##NAMES=Grunerite
##RRUFFID=R040150
##IDEAL CHEMISTRY=[box]Fe^2+^_2_Fe^2+^_5_Si_8_O_22_(OH)_2_
##LOCALITY=Smallwood mine, Heath Lake, Newfoundland, Canada
##OWNER=RRUFF
##SOURCE=University of Arizona Mineral Museum
##DESCRIPTION=Brown bladed crystals in parallel aggregate
##STATUS=The identification of this mineral has been confirmed by X-ray diffraction and chemical analysis
##URL=rruff.info/R040150
##MEASURED CHEMISTRY=(Fe_0.69_Mg_0.27_Ca_0.02_Mn_0.02_)_7_Si_8.02_O_22_((OH)_0.98_Cl_0.02_)_2_
##PIN_ID=M00372
##ORIENTATION=Laser parallel to c* (0 0 1). Fiducial mark perpendicular to laser is parallel to a [1 0 0]
64.62300, 639.0000
65.86500, 701.0000
67.10700, 764.0000
68.34900, 824.2213
69.59100, 999.0000
70.83300, 988.0000
72.07400, 1014.000
73.31600, 1092.000
74.55700, 1349.000
75.79800, 1512.000
77.03900, 1718.000
78.27900, 1889.000
79.52000, 1919.000
80.76000, 2034.000
82.00000, 1970.000
83.24000, 1785.000
84.48000, 1602.000
85.72000, 1457.000
86.95900, 1344.000
88.19900, 1262.000
89.43800, 1278.000
90.67700, 1285.000
91.91600, 1360.000
93.15400, 1385.000
94.39300, 1490.000
95.63100, 1610.000
96.86900, 1761.000
98.10700, 2130.000
99.34500, 2303.000
100.5820, 2370.000
101.8200, 2320.000
103.0570, 2088.670
104.2940, 1898.866
105.5310, 1693.427
106.7680, 1520.000
108.0040, 1428.000
109.2410, 1417.000
110.4770, 1390.000
111.7130, 1389.000
112.9490, 1532.000
114.1850, 1605.000
115.4200, 1634.000
116.6560, 1674.000
117.8910, 1829.000
119.1260, 1939.000
120.3610, 2068.000
121.5960, 2228.000
122.8300, 2384.000
124.0640, 2505.000
125.2990, 2479.000
126.5330, 2448.000
127.7670, 2243.000
129.0000, 2139.000
130.2340, 2090.000
131.4670, 2096.000
132.7000, 2137.000
133.9330, 2225.000
135.1660, 2214.000
136.3990, 2157.000
137.6310, 2018.000
138.8640, 1910.000
140.0960, 1782.000
141.3280, 1706.000
142.5600, 1656.000
143.7910, 1670.000
145.0230, 1746.000
146.2540, 1796.000
147.4850, 1975.000
148.7160, 2124.000
149.9470, 2437.000
151.1780, 2792.000
152.4080, 3321.000
153.6380, 4162.000
154.8690, 4982.000
156.0980, 5856.000
157.3280, 6482.000
158.5580, 6545.000
159.7870, 6275.000
161.0170, 5734.000
162.2460, 4971.000
163.4750, 4299.000
164.7030, 3685.000
165.9320, 3284.000
167.1600, 3155.000
168.3890, 2996.000
169.6170, 3091.000
170.8450, 3167.000
172.0730, 3417.000
173.3000, 3638.000
174.5280, 4069.000
175.7550, 4518.000
176.9820, 5264.000
178.2090, 6039.000
179.4350, 6875.000
180.6620, 7977.000
181.8880, 8898.000
183.1150, 9778.000
184.3410, 10292.00
185.5670, 10350.00
186.7920, 10250.00
188.0180, 9577.000
189.2430, 8840.000
190.4690, 8095.000
191.6940, 7185.000
192.9180, 6559.000
194.1430, 5986.000
195.3680, 5436.000
196.5920, 5054.000
197.8160, 4811.000
199.0400, 4542.000
200.2640, 4450.000
201.4880, 4240.000
202.7110, 4132.000
203.9350, 4125.000
205.1580, 4085.000
206.3810, 3945.000
207.6040, 3894.000
208.8270, 3819.000
210.0490, 3894.000
211.2710, 3903.000
212.4940, 3854.000
213.7160, 3916.000
214.9370, 3846.000
216.1590, 3870.000
217.3810, 3861.000
218.6020, 3823.000
219.8230, 3783.000
221.0440, 3806.000
222.2650, 3686.000
223.4860, 3610.000
224.7060, 3423.000
225.9260, 3295.000
227.1470, 3135.000
228.3670, 3021.686
229.5860, 2919.000
230.8060, 2824.000
232.0260, 2760.000
233.2450, 2685.000
234.4640, 2581.000
235.6830, 2457.000
236.9020, 2481.000
238.1200, 2378.000
239.3390, 2334.000
240.5570, 2301.000
241.7750, 2226.000
242.9930, 2218.000
244.2110, 2168.000
245.4290, 2067.000
246.6460, 2048.000
247.8630, 2085.000
249.0810, 2029.000
250.2980, 2054.000
251.5140, 2027.000
252.7310, 1997.000
253.9470, 1992.802
255.1640, 1958.000
256.3800, 1942.000
257.5960, 1941.000
258.8120, 1893.000
260.0270, 1912.000
261.2430, 1889.000
262.4580, 1869.727
263.6730, 1881.000
264.8880, 1834.000
266.1030, 1795.000
267.3170, 1773.000
268.5320, 1786.000
269.7460, 1752.000
270.9600, 1725.000
272.1740, 1775.000
273.3880, 1748.000
274.6010, 1762.000
275.8150, 1792.000
277.0280, 1778.000
278.2410, 1799.000
279.4540, 1824.000
280.6670, 1765.000
281.8790, 1849.000
283.0920, 1819.000
284.3040, 1858.000
285.5160, 1810.000
286.7280, 1890.000
287.9400, 1918.000
289.1510, 1891.000
290.3630, 1884.000
291.5740, 1916.000
292.7850, 1910.000
293.9960, 1971.000
295.2070, 1931.000
296.4170, 1966.000
297.6280, 1993.000
298.8380, 1893.000
300.0480, 1886.000
301.2580, 1967.000
302.4680, 1937.000
303.6770, 1867.000
304.8870, 1908.000
306.0960, 1850.000
307.3050, 1810.000
308.5140, 1882.000
309.7230, 1835.000
310.9310, 1823.000
312.1400, 1847.000
313.3480, 1804.000
314.5560, 1798.000
315.7640, 1763.000
316.9720, 1780.000
318.1790, 1725.000
319.3870, 1767.000
320.5940, 1642.000
321.8010, 1645.000
323.0080, 1597.000
324.2150, 1584.041
325.4210, 1655.000
326.6280, 1608.000
327.8340, 1658.000
329.0400, 1687.000
330.2460, 1782.000
331.4510, 1818.000
332.6570, 1802.000
333.8620, 1917.000
335.0680, 1945.000
336.2730, 1933.000
337.4780, 2035.000
338.6820, 2118.000
339.8870, 2229.000
341.0910, 2318.000
342.2950, 2411.000
343.5000, 2637.000
344.7030, 2637.000
345.9070, 2893.000
347.1110, 3003.000
348.3140, 3151.000
349.5170, 3247.000
350.7200, 3434.000
351.9230, 3488.000
353.1260, 3367.000
354.3290, 3426.000
355.5310, 3328.000
356.7330, 3238.000
357.9350, 3264.000
359.1370, 3262.000
360.3390, 3269.000
361.5400, 3084.000
362.7420, 3126.000
363.9430, 3132.000
365.1440, 3234.000
366.3450, 3335.000
367.5460, 3303.000
368.7460, 3221.000
369.9470, 3101.000
371.1470, 2954.000
372.3470, 2699.000
373.5470, 2520.000
374.7460, 2373.000
375.9460, 2256.000
377.1450, 2137.559
378.3450, 2061.000
379.5440, 1996.000
380.7430, 1931.000
381.9410, 1900.852
383.1400, 1898.000
384.3380, 1870.000
385.5370, 1881.000
386.7350, 1896.000
387.9320, 1925.554
389.1300, 1905.000
390.3280, 2009.000
391.5250, 2070.000
392.7220, 2093.000
393.9190, 2297.000
395.1160, 2332.000
396.3130, 2409.000
397.5100, 2539.000
398.7060, 2660.000
399.9020, 2795.000
401.0980, 2749.000
402.2940, 2781.000
403.4900, 2871.000
404.6860, 2785.000
405.8810, 2718.000
407.0760, 2741.000
408.2710, 2671.000
409.4660, 2694.000
410.6610, 2603.000
411.8550, 2638.000
413.0500, 2547.000
414.2440, 2657.000
415.4380, 2603.000
416.6320, 2655.000
417.8260, 2667.000
419.0190, 2651.000
420.2130, 2782.000
421.4060, 2819.000
422.5990, 2890.000
423.7920, 2841.462
424.9850, 2756.000
426.1770, 2642.000
427.3700, 2449.000
428.5620, 2247.000
429.7540, 2027.000
430.9460, 1911.000
432.1380, 1765.000
433.3290, 1739.000
434.5210, 1648.000
435.7120, 1546.000
436.9030, 1533.000
438.0940, 1513.000
439.2850, 1459.000
440.4750, 1503.000
441.6660, 1446.000
442.8560, 1414.000
444.0460, 1430.000
445.2360, 1362.000
446.4260, 1342.000
447.6160, 1413.000
448.8050, 1379.000
449.9940, 1417.000
451.1830, 1386.000
452.3720, 1390.000
453.5610, 1395.000
454.7500, 1382.000
455.9380, 1355.000
457.1260, 1421.000
458.3150, 1430.000
459.5020, 1418.000
460.6900, 1375.000
461.8780, 1389.000
463.0650, 1403.000
464.2530, 1401.000
465.4400, 1414.000
466.6270, 1418.000
467.8130, 1404.000
469.0000, 1373.000
470.1870, 1416.000
471.3730, 1399.000
472.5590, 1392.982
473.7450, 1442.704
474.9310, 1476.792
476.1160, 1496.072
477.3020, 1456.257
478.4870, 1492.756
479.6720, 1498.666
480.8570, 1503.323
482.0420, 1550.563
483.2270, 1519.334
484.4110, 1565.888
485.5960, 1581.399
486.7800, 1611.111
487.9640, 1566.000
489.1480, 1616.000
490.3310, 1562.000
491.5150, 1631.000
492.6980, 1660.000
493.8810, 1655.000
495.0640, 1686.000
496.2470, 1691.000
497.4300, 1682.000
498.6120, 1757.000
499.7950, 1799.000
500.9770, 1783.000
502.1590, 1909.000
503.3410, 1890.000
504.5220, 1974.000
505.7040, 2106.000
506.8850, 2144.000
508.0660, 2162.000
509.2470, 2244.000
510.4280, 2174.000
511.6090, 2244.000
512.7890, 2229.000
513.9700, 2196.000
515.1500, 2248.000
516.3300, 2241.000
517.5100, 2303.000
518.6900, 2308.000
519.8690, 2417.000
521.0490, 2486.000
522.2280, 2658.000
523.4070, 2732.000
524.5860, 2886.000
525.7640, 3115.000
526.9430, 3205.000
528.1210, 3454.000
529.3000, 3499.000
530.4780, 3518.000
531.6560, 3418.000
532.8330, 3254.000
534.0110, 3059.000
535.1880, 2905.000
536.3650, 2648.000
537.5430, 2505.000
538.7190, 2314.000
539.8960, 2217.000
541.0730, 2088.000
542.2490, 2023.000
543.4250, 1938.000
544.6020, 1867.000
545.7780, 1831.000
546.9530, 1804.000
548.1290, 1833.000
549.3040, 1825.000
550.4800, 1785.000
551.6550, 1762.000
552.8300, 1727.000
554.0040, 1749.000
555.1790, 1792.000
556.3540, 1804.000
557.5280, 1781.000
558.7020, 1754.000
559.8760, 1796.000
561.0500, 1765.000
562.2230, 1771.000
563.3970, 1750.000
564.5700, 1739.667
565.7430, 1708.000
566.9160, 1715.000
568.0890, 1696.769
569.2620, 1674.000
570.4340, 1674.000
571.6070, 1649.000
572.7790, 1653.000
573.9510, 1615.000
575.1230, 1580.000
576.2940, 1630.000
577.4660, 1500.000
578.6370, 1541.000
579.8080, 1546.000
580.9790, 1568.000
582.1500, 1515.000
583.3210, 1504.000
584.4910, 1552.000
585.6620, 1493.000
586.8320, 1489.000
588.0020, 1473.000
589.1720, 1487.000
590.3410, 1498.000
591.5110, 1555.000
592.6800, 1513.000
593.8500, 1555.000
595.0190, 1552.000
596.1880, 1525.000
597.3560, 1544.000
598.5250, 1564.000
599.6930, 1554.000
600.8620, 1505.000
602.0300, 1578.000
603.1970, 1566.000
604.3650, 1540.000
605.5330, 1617.000
606.7000, 1597.000
607.8680, 1625.000
609.0350, 1619.000
610.2020, 1686.000
611.3680, 1730.000
612.5350, 1668.000
613.7010, 1687.000
614.8680, 1767.000
616.0340, 1768.000
617.2000, 1830.000
618.3660, 1844.000
619.5310, 1864.000
620.6970, 1951.000
621.8620, 2040.000
623.0270, 2119.000
624.1920, 2208.485
625.3570, 2334.000
626.5220, 2383.000
627.6860, 2488.000
628.8500, 2580.000
630.0140, 2756.000
631.1780, 2914.000
632.3420, 3130.000
633.5060, 3208.000
634.6700, 3335.000
635.8330, 3394.000
636.9960, 3469.000
638.1590, 3603.000
639.3220, 3588.000
640.4850, 3697.000
641.6470, 3859.000
642.8100, 4054.000
643.9720, 4196.000
645.1340, 4433.000
646.2960, 4693.000
647.4570, 5212.000
648.6190, 5628.000
649.7800, 6342.000
650.9420, 6934.000
652.1030, 8009.000
653.2640, 9123.000
654.4240, 10294.00
655.5850, 11997.00
656.7450, 13871.00
657.9060, 15613.00
659.0660, 17323.00
660.2260, 18532.00
661.3850, 19118.00
662.5450, 18755.00
663.7040, 17536.00
664.8640, 16060.00
666.0230, 13790.00
667.1820, 11794.00
668.3410, 9898.000
669.4990, 8362.000
670.6580, 7182.000
671.8160, 6094.000
672.9740, 5389.000
674.1320, 4902.000
675.2900, 4291.000
676.4480, 4100.000
677.6050, 3759.000
678.7630, 3683.000
679.9200, 3500.000
681.0770, 3349.000
682.2340, 3281.000
683.3900, 3213.000
684.5470, 3267.000
685.7030, 3223.000
686.8590, 3288.000
688.0150, 3202.000
689.1710, 3246.000
690.3270, 3238.000
691.4830, 3123.000
692.6380, 3216.000
693.7930, 3105.000
694.9480, 2978.000
696.1030, 2849.000
697.2580, 2718.000
698.4130, 2614.550
699.5670, 2552.000
700.7210, 2413.000
701.8750, 2325.000
703.0290, 2229.000
704.1830, 2210.000
705.3370, 2095.000
706.4900, 2064.000
707.6430, 2001.000
708.7970, 1969.000
709.9490, 1996.000
711.1020, 1907.000
712.2550, 1881.000
713.4070, 1903.000
714.5600, 1867.000
715.7120, 1822.000
716.8640, 1823.000
718.0160, 1803.000
719.1670, 1782.000
720.3190, 1757.000
721.4700, 1743.000
722.6210, 1728.000
723.7720, 1759.000
724.9230, 1790.000
726.0740, 1752.000
727.2250, 1720.000
728.3750, 1772.000
729.5250, 1722.000
730.6750, 1736.000
731.8250, 1750.000
732.9750, 1779.000
734.1240, 1814.000
735.2740, 1829.000
736.4230, 1841.232
737.5720, 1781.000
738.7210, 1856.000
739.8700, 1847.000
741.0190, 1868.000
742.1670, 1920.000
743.3150, 1882.000
744.4630, 1963.000
745.6110, 1896.000
746.7590, 1851.000
747.9070, 1800.000
749.0540, 1798.000
750.2020, 1732.000
751.3490, 1737.000
752.4960, 1759.000
753.6430, 1731.000
754.7890, 1696.000
755.9360, 1755.000
757.0820, 1700.000
758.2280, 1734.000
759.3740, 1722.000
760.5200, 1712.000
761.6660, 1724.000
762.8120, 1690.000
763.9570, 1728.000
765.1020, 1716.000
766.2470, 1714.000
767.3920, 1709.000
768.5370, 1732.000
769.6810, 1721.000
770.8260, 1691.000
771.9700, 1709.000
773.1140, 1780.000
774.2580, 1687.000
775.4020, 1760.000
776.5460, 1751.000
777.6890, 1757.000
778.8320, 1756.000
779.9750, 1778.000
781.1180, 1772.000
782.2610, 1738.000
783.4040, 1748.000
784.5460, 1701.000
785.6890, 1702.000
786.8310, 1715.000
787.9730, 1761.000
789.1150, 1733.098
790.2560, 1739.000
791.3980, 1717.000
792.5390, 1717.613
793.6810, 1695.000
794.8220, 1721.000
795.9630, 1732.000
797.1030, 1738.000
798.2440, 1707.000
799.3840, 1740.000
800.5240, 1689.000
801.6650, 1714.000
802.8040, 1717.000
803.9440, 1687.000
805.0840, 1708.777
806.2230, 1754.000
807.3630, 1721.000
808.5020, 1731.000
809.6410, 1744.000
810.7790, 1721.000
811.9180, 1699.000
813.0570, 1713.000
814.1950, 1720.000
815.3330, 1716.000
816.4710, 1714.000
817.6090, 1739.000
818.7470, 1737.383
819.8840, 1768.000
821.0220, 1755.000
822.1590, 1757.000
823.2960, 1764.000
824.4330, 1739.000
825.5690, 1770.000
826.7060, 1727.000
827.8420, 1777.000
828.9790, 1699.000
830.1150, 1748.000
831.2510, 1713.000
832.3860, 1790.000
833.5220, 1797.000
834.6570, 1729.000
835.7930, 1773.000
836.9280, 1818.000
838.0630, 1771.000
839.1980, 1806.000
840.3320, 1818.000
841.4670, 1779.000
842.6010, 1799.000
843.7350, 1827.000
844.8690, 1774.000
846.0030, 1804.000
847.1370, 1801.000
848.2700, 1793.000
849.4040, 1866.000
850.5370, 1850.000
851.6700, 1817.000
852.8030, 1857.000
853.9360, 1842.000
855.0680, 1842.000
856.2000, 1864.000
857.3330, 1880.000
858.4650, 1886.978
859.5970, 1877.000
860.7290, 1908.000
861.8600, 1884.000
862.9920, 1893.000
864.1230, 1945.000
865.2540, 1934.000
866.3850, 1993.000
867.5160, 1909.000
868.6460, 1930.000
869.7770, 1936.000
870.9070, 1969.000
872.0370, 1965.000
873.1670, 1950.000
874.2970, 1954.000
875.4270, 1968.127
876.5570, 2057.000
877.6860, 2013.000
878.8150, 2060.000
879.9440, 2090.000
881.0730, 2039.000
882.2020, 2050.000
883.3300, 2077.000
884.4590, 2152.000
885.5870, 2131.000
886.7150, 2132.000
887.8430, 2203.000
888.9710, 2201.000
890.0990, 2170.000
891.2260, 2310.000
892.3530, 2295.000
893.4810, 2393.000
894.6080, 2391.000
895.7340, 2453.000
896.8610, 2524.000
897.9880, 2615.000
899.1140, 2592.000
900.2400, 2674.000
901.3660, 2803.000
902.4920, 2756.000
903.6180, 2796.000
904.7430, 2838.000
905.8690, 2934.000
906.9940, 2960.000
908.1190, 2941.000
909.2440, 2895.000
910.3690, 2937.000
911.4930, 2868.000
912.6180, 2804.000
913.7420, 2843.000
914.8660, 2793.000
915.9900, 2716.000
917.1140, 2698.000
918.2380, 2692.000
919.3610, 2676.000
920.4850, 2634.000
921.6080, 2606.525
922.7310, 2539.000
923.8540, 2523.000
924.9760, 2496.000
926.0990, 2456.000
927.2210, 2442.087
928.3440, 2409.000
929.4660, 2404.000
930.5880, 2381.000
931.7090, 2369.000
932.8310, 2374.000
933.9520, 2391.000
935.0740, 2394.000
936.1950, 2409.000
937.3160, 2405.000
938.4360, 2385.000
939.5570, 2461.000
940.6780, 2409.000
941.7980, 2441.000
942.9180, 2405.000
944.0380, 2444.000
945.1580, 2516.000
946.2780, 2473.000
947.3970, 2510.000
948.5170, 2574.000
949.6360, 2618.000
950.7550, 2701.000
951.8740, 2719.000
952.9930, 2749.000
954.1110, 2780.000
955.2300, 2878.000
956.3480, 2945.000
957.4660, 3066.000
958.5840, 3121.000
959.7020, 3204.000
960.8190, 3391.000
961.9370, 3403.000
963.0540, 3737.000
964.1710, 3842.000
965.2880, 3848.000
966.4050, 3965.000
967.5220, 3964.000
968.6380, 4209.000
969.7550, 4167.000
970.8710, 4119.000
971.9870, 4091.000
973.1030, 4000.000
974.2190, 3878.000
975.3340, 3897.000
976.4500, 3722.000
977.5650, 3571.000
978.6800, 3603.000
979.7950, 3421.000
980.9100, 3329.000
982.0250, 3272.000
983.1390, 3161.000
984.2530, 3147.000
985.3680, 3094.000
986.4820, 3093.000
987.5950, 3110.000
988.7090, 3141.000
989.8230, 3178.000
990.9360, 3188.000
992.0490, 3223.000
993.1620, 3259.000
994.2750, 3328.945
995.3880, 3501.000
996.5010, 3497.000
997.6130, 3555.000
998.7250, 3641.000
999.8370, 3641.000
1000.949, 3703.000
1002.061, 3832.000
1003.173, 3894.000
1004.284, 4009.000
1005.396, 4097.660
1006.507, 4150.000
1007.618, 4304.000
1008.729, 4411.000
1009.839, 4575.000
1010.950, 4894.000
1012.060, 5160.000
1013.171, 5479.000
1014.281, 5886.000
1015.391, 6234.000
1016.500, 6704.000
1017.610, 7155.000
1018.719, 7609.000
1019.829, 8028.000
1020.938, 8379.000
1022.047, 8640.000
1023.156, 8724.000
1024.264, 8742.000
1025.373, 8453.000
1026.481, 8025.000
1027.589, 7631.000
1028.697, 7274.000
1029.805, 6728.000
1030.913, 6231.000
1032.020, 5826.000
1033.128, 5360.000
1034.235, 4975.000
1035.342, 4717.000
1036.449, 4470.000
1037.556, 4280.000
1038.663, 4074.904
1039.769, 3900.485
1040.875, 3739.000
1041.981, 3607.000
1043.087, 3473.000
1044.193, 3381.000
1045.299, 3353.000
1046.404, 3266.000
1047.510, 3195.000
1048.615, 3190.000
1049.720, 3000.000
1050.825, 3017.000
1051.930, 2894.000
1053.034, 2866.000
1054.139, 2809.000
1055.243, 2726.000
1056.347, 2679.000
1057.451, 2599.000
1058.555, 2616.000
1059.658, 2547.000
1060.762, 2520.000
1061.865, 2566.000
1062.968, 2451.000
1064.071, 2563.000
1065.174, 2446.000
1066.277, 2420.000
1067.380, 2403.000
1068.482, 2443.000
1069.584, 2350.000
1070.686, 2365.000
1071.788, 2303.000
1072.890, 2331.000
1073.992, 2318.000
1075.093, 2334.000
1076.194, 2346.000
1077.295, 2365.000
1078.396, 2364.000
1079.497, 2358.000
1080.598, 2287.000
1081.698, 2290.000
1082.799, 2359.000
1083.899, 2282.000
1084.999, 2362.000
1086.099, 2316.000
1087.199, 2337.000
1088.298, 2330.000
1089.398, 2366.000
1090.497, 2386.000
1091.596, 2401.000
1092.695, 2396.000
1093.794, 2421.588
1094.892, 2445.778
1095.991, 2478.000
1097.089, 2478.000
1098.187, 2549.000
1099.285, 2498.000
1100.383, 2451.000
1101.481, 2355.000
1102.579, 2418.000
1103.676, 2331.000
1104.773, 2349.000
1105.870, 2237.000
1106.967, 2152.000
1108.064, 2144.000
1109.161, 2141.000
1110.257, 2092.000
1111.353, 2104.000
1112.449, 2070.000
1113.545, 2148.000
1114.641, 2137.000
1115.737, 2146.000
1116.832, 2033.000
1117.928, 2073.000
1119.023, 2109.000
1120.118, 2028.000
1121.213, 2069.000
1122.308, 2042.000
1123.402, 2060.000
1124.497, 2026.000
1125.591, 2078.000
1126.685, 2102.000
1127.779, 2051.000
1128.873, 2024.000
1129.967, 2027.000
1131.060, 2000.000
1132.153, 2035.000
1133.247, 2034.000
1134.340, 2019.000
1135.433, 2011.000
1136.525, 1942.000
1137.618, 1986.000
1138.710, 1971.000
1139.802, 1993.000
1140.895, 2012.000
1141.987, 1979.000
1143.078, 1977.000
1144.170, 1970.000
1145.261, 2020.000
1146.353, 2027.000
1147.444, 2018.000
1148.535, 1966.000
1149.626, 1996.000
1150.716, 1977.000
1151.807, 1974.000
1152.897, 1975.000
1153.988, 1979.000
1155.078, 1972.000
1156.168, 1969.169
1157.257, 1963.000
1158.347, 1947.000
1159.436, 1959.000
1160.526, 1931.000
1161.615, 1939.000
1162.704, 1974.000
1163.793, 1980.000
1164.881, 1948.000
1165.970, 1963.000
1167.058, 1980.000
1168.147, 1933.000
1169.235, 1981.000
1170.323, 1933.000
1171.410, 1976.000
1172.498, 2009.000
1173.585, 1984.000
1174.673, 1973.000
1175.760, 1979.000
1176.847, 1965.000
1177.934, 1980.000
1179.020, 1989.000
1180.107, 1955.000
1181.193, 1994.000
1182.279, 1947.000
1183.365, 1951.000
1184.451, 1965.000
1185.537, 1954.000
1186.623, 1978.000
1187.708, 1968.000
1188.793, 1974.000
1189.878, 1960.000
1190.963, 1967.318
1192.048, 1945.000
1193.133, 1964.000
1194.217, 1969.000
1195.302, 1937.000
1196.386, 1948.000
1197.470, 1957.000
1198.554, 1950.406
1199.638, 1962.000
1200.721, 1964.000
1201.805, 1987.000
1202.888, 2004.000
1203.971, 1863.000
1205.054, 1952.000
1206.137, 1936.000
1207.219, 1985.000
1208.302, 2011.000
1209.384, 2006.000
1210.466, 2007.955
1211.548, 2000.000
1212.630, 1961.000
1213.712, 1993.000
1214.794, 1960.000
1215.875, 2035.000
1216.956, 1964.000
1218.037, 1980.000
1219.118, 1970.000
1220.199, 1964.000
1221.280, 1977.000
1222.360, 1985.000
1223.441, 1966.000
1224.521, 2058.000
1225.601, 2021.000
1226.681, 2012.000
1227.760, 1942.000
1228.840, 2028.000
1229.919, 2080.000
1230.999, 2045.000
1232.078, 1989.000
1233.157, 2008.000
1234.236, 1993.000
1235.314, 2012.000
1236.393, 2005.688
1237.471, 2027.000
1238.549, 2014.000
1239.627, 1999.000
1240.705, 2037.000
1241.783, 2004.000
1242.860, 1971.000
1243.938, 1995.000
1245.015, 2030.000
1246.092, 2013.000
1247.169, 2011.000
1248.246, 2088.000
1249.323, 2041.000
1250.399, 2044.000
1251.475, 2067.000
1252.552, 2006.000
1253.628, 2012.000
1254.703, 2024.000
1255.779, 2051.000
1256.855, 2042.000
1257.930, 2050.000
1259.005, 2075.000
1260.080, 2077.000
1261.155, 2068.000
1262.230, 2040.000
1263.305, 2098.000
1264.379, 2032.000
1265.454, 1977.000
1266.528, 2035.000
1267.602, 2079.000
1268.676, 2057.000
1269.750, 2115.000
1270.823, 2070.000
1271.897, 2061.000
1272.970, 2106.000
1274.043, 2065.000
1275.116, 2070.000
1276.189, 2054.000
1277.261, 2046.000
1278.334, 2028.000
1279.406, 2040.000
1280.478, 2021.000
1281.550, 2085.000
1282.622, 2061.000
1283.694, 2051.000
1284.766, 2127.000
1285.837, 2071.000
1286.908, 2059.000
1287.979, 2052.000
1289.050, 2081.000
1290.121, 2089.000
1291.192, 2043.000
1292.262, 2069.000
1293.333, 2053.000
1294.403, 2074.000
1295.473, 2064.000
1296.543, 2051.000
1297.613, 2059.584
1298.682, 2063.000
1299.752, 2057.000
1300.821, 2060.000
1301.890, 2055.638
1302.959, 2100.000
1304.028, 2090.000
1305.096, 2082.000
1306.165, 2116.000
1307.233, 2110.000
1308.301, 2071.000
1309.370, 2071.000
1310.437, 2094.000
1311.505, 2070.000
1312.573, 2141.000
1313.640, 2150.000
1314.708, 2123.000
1315.775, 2122.000
1316.842, 2074.000
1317.908, 2083.000
1318.975, 2173.000
1320.042, 2088.000
1321.108, 2171.000
1322.174, 2118.000
1323.240, 2089.000
1324.306, 2079.000
1325.372, 2082.000
1326.438, 2073.566
1327.503, 2083.474
1328.568, 2070.000
1329.634, 2107.000
1330.699, 2088.000
1331.763, 2101.000
1332.828, 2087.000
1333.893, 2157.000
1334.957, 2112.000
1336.021, 2122.000
1337.085, 2158.000
1338.149, 2100.000
1339.213, 2112.000
1340.277, 2139.000
1341.340, 2143.000
1342.404, 2116.000
1343.467, 2084.000
1344.530, 2133.000
1345.593, 2041.000
1346.655, 2072.000
1347.718, 2156.000
1348.780, 2116.000
1349.843, 2122.000
1350.905, 2081.000
1351.967, 2058.000
1353.028, 2135.000
1354.090, 2117.000
1355.152, 2113.000
1356.213, 2128.000
1357.274, 2075.000
1358.335, 2163.000
1359.396, 2158.000
1360.457, 2119.000
1361.517, 2172.000
1362.578, 2103.000
1363.638, 2131.000
1364.698, 2177.000
1365.758, 2153.000
1366.818, 2140.000
1367.878, 2110.000
1368.937, 2197.000
1369.997, 2139.000
1371.056, 2168.000
1372.115, 2106.000
1373.174, 2194.000
1374.232, 2193.000
1375.291, 2151.000
1376.350, 2224.000
1377.408, 2193.000
1378.466, 2133.000
1379.524, 2149.000
1380.582, 2179.000
1381.640, 2176.000
1382.697, 2213.000
1383.754, 2232.000
1384.812, 2145.000
1385.869, 2204.000
1386.926, 2183.000
1387.983, 2224.000
1389.039, 2215.000
1390.096, 2199.000
1391.152, 2172.000
1392.208, 2194.000
1393.264, 2189.000
1394.320, 2166.000
1395.376, 2186.000
1396.431, 2193.000
1397.487, 2233.000
1398.542, 2198.000
1399.597, 2252.000
1400.652, 2179.000
1401.707, 2216.000
1402.762, 2134.000
1403.816, 2200.000
1404.871, 2166.000
1405.925, 2184.000
1406.979, 2263.000
1408.033, 2251.000
1409.086, 2203.000
1410.140, 2205.000
1411.194, 2170.000
1412.247, 2222.000
1413.300, 2253.000
1414.353, 2253.000
1415.406, 2263.020
1416.458, 2266.000
1417.511, 2226.000
1418.563, 2253.000
1419.616, 2206.000
1420.668, 2202.000
1421.720, 2295.000
1422.772, 2229.000
1423.823, 2280.000
1424.875, 2229.000
1425.926, 2207.000
1426.977, 2240.000
1428.028, 2232.000
1429.079, 2251.000
1430.130, 2264.000
1431.180, 2247.000
1432.231, 2297.000
1433.281, 2288.836
1434.331, 2318.000
1435.381, 2296.000
1436.431, 2295.000
1437.481, 2280.000
1438.530, 2286.000
1439.580, 2313.000
1440.629, 2207.000
1441.678, 2297.000
1442.727, 2238.000
1443.776, 2280.000
1444.824, 2242.000
1445.873, 2301.000
1446.921, 2256.000
1447.969, 2301.000
1449.017, 2234.000
1450.065, 2272.000
1451.113, 2260.000
1452.160, 2317.000
1453.208, 2272.000
1454.255, 2256.000
1455.302, 2341.000
1456.349, 2336.000
1457.396, 2317.000
1458.443, 2290.000
1459.489, 2304.000
1460.535, 2274.000
1461.582, 2276.000
1462.628, 2327.000
1463.674, 2337.000
1464.719, 2352.000
1465.765, 2301.000
1466.810, 2279.000
1467.856, 2343.000
1468.901, 2341.000
1469.946, 2371.000
1470.991, 2301.000
1472.035, 2322.000
1473.080, 2378.000
1474.124, 2328.000
1475.169, 2360.000
1476.213, 2336.000
1477.257, 2327.000
1478.300, 2349.000
1479.344, 2370.000
1480.388, 2347.274
1481.431, 2353.327
1482.474, 2311.000
1483.517, 2339.000
1484.560, 2326.000
1485.603, 2341.000
1486.645, 2407.000
1487.688, 2340.000
1488.730, 2363.000
1489.772, 2409.000
1490.814, 2383.000
1491.856, 2382.000
1492.898, 2411.000
1493.939, 2385.000
1494.981, 2371.000
1496.022, 2417.000
1497.063, 2362.000
1498.104, 2369.000
1499.145, 2363.000
1500.186, 2355.033
1501.226, 2395.000
1502.266, 2369.000
1503.307, 2408.000
1504.347, 2422.000
1505.387, 2419.000
1506.426, 2417.000
1507.466, 2432.000
1508.505, 2428.000
1509.545, 2407.000
1510.584, 2401.000
1511.623, 2406.000
1512.662, 2457.000
1513.700, 2386.000
1514.739, 2378.000
1515.777, 2439.000
1516.815, 2413.000
1517.854, 2467.000
1518.892, 2433.000
1519.929, 2448.000
1520.967, 2448.000
1522.004, 2465.000
1523.042, 2458.285
1524.079, 2436.000
1525.116, 2457.000
1526.153, 2457.000
1527.190, 2481.000
1528.226, 2482.000
1529.263, 2481.000
1530.299, 2538.000
1531.335, 2508.776
1532.371, 2527.000
1533.407, 2485.000
1534.443, 2466.000
1535.478, 2454.000
1536.514, 2433.000
1537.549, 2464.000
1538.584, 2476.000
1539.619, 2452.000
1540.654, 2500.000
1541.689, 2544.000
1542.723, 2506.000
1543.757, 2509.000
1544.792, 2509.000
1545.826, 2506.000
1546.860, 2446.000
1547.893, 2479.000
1548.927, 2457.000
1549.960, 2517.000
1550.994, 2534.000
1552.027, 2512.000
1553.060, 2491.000
1554.093, 2544.000
1555.126, 2564.000
1556.158, 2536.000
1557.191, 2557.000
1558.223, 2511.000
1559.255, 2526.000
1560.287, 2529.000
1561.319, 2477.000
1562.350, 2545.000
1563.382, 2582.000
1564.413, 2483.000
1565.444, 2566.000
1566.476, 2469.000
1567.506, 2534.000
1568.537, 2551.000
1569.568, 2543.000
1570.598, 2563.000
1571.629, 2600.000
1572.659, 2563.000
1573.689, 2535.000
1574.719, 2528.000
1575.749, 2585.000
1576.778, 2548.000
1577.808, 2549.000
##END=



