##NAMES=Grunerite
##RRUFFID=R040150
##IDEAL CHEMISTRY=[box]Fe^2+^_2_Fe^2+^_5_Si_8_O_22_(OH)_2_
##LOCALITY=Smallwood mine, Heath Lake, Newfoundland, Canada
##OWNER=RRUFF
##SOURCE=University of Arizona Mineral Museum
##DESCRIPTION=Brown bladed crystals in parallel aggregate
##STATUS=The identification of this mineral has been confirmed by X-ray diffraction and chemical analysis
##URL=rruff.info/R040150
##MEASURED CHEMISTRY=(Fe_0.69_Mg_0.27_Ca_0.02_Mn_0.02_)_7_Si_8.02_O_22_((OH)_0.98_Cl_0.02_)_2_
##PIN_ID=M00276
##ORIENTATION=Laser parallel to (1 0 1). Fiducial mark perpendicular to laser is parallel to b [0 1 0]
72.07400, 3671.000
73.31600, 3788.000
74.55700, 4134.000
75.79800, 4489.000
77.03900, 4623.000
78.27900, 4690.000
79.52000, 4683.000
80.76000, 4710.000
82.00000, 4439.000
83.24000, 4444.000
84.48000, 4124.000
85.72000, 3793.000
86.95900, 3630.000
88.19900, 3472.000
89.43800, 3442.000
90.67700, 3427.000
91.91600, 3393.874
93.15400, 3504.000
94.39300, 3507.000
95.63100, 3630.000
96.86900, 3875.000
98.10700, 4165.000
99.34500, 4362.000
100.5820, 4389.000
101.8200, 4361.000
103.0570, 4157.000
104.2940, 3910.000
105.5310, 3751.000
106.7680, 3713.000
108.0040, 3586.000
109.2410, 3495.000
110.4770, 3437.000
111.7130, 3523.000
112.9490, 3667.000
114.1850, 3741.000
115.4200, 3807.000
116.6560, 3947.000
117.8910, 4007.000
119.1260, 4128.000
120.3610, 4412.000
121.5960, 4491.000
122.8300, 4796.000
124.0640, 4968.000
125.2990, 4888.000
126.5330, 4879.000
127.7670, 4610.000
129.0000, 4501.000
130.2340, 4336.000
131.4670, 4392.000
132.7000, 4469.000
133.9330, 4500.000
135.1660, 4576.000
136.3990, 4591.000
137.6310, 4454.000
138.8640, 4324.000
140.0960, 4136.000
141.3280, 3999.000
142.5600, 3931.000
143.7910, 3974.000
145.0230, 3893.000
146.2540, 4085.000
147.4850, 4352.000
148.7160, 4495.000
149.9470, 4842.000
151.1780, 5569.000
152.4080, 6417.000
153.6380, 7405.000
154.8690, 8673.000
156.0980, 9883.000
157.3280, 10798.00
158.5580, 11073.00
159.7870, 10525.00
161.0170, 9668.000
162.2460, 8501.000
163.4750, 7517.000
164.7030, 6830.000
165.9320, 6149.000
167.1600, 6031.000
168.3890, 5798.000
169.6170, 5969.000
170.8450, 6212.000
172.0730, 6359.000
173.3000, 6892.000
174.5280, 7502.000
175.7550, 8256.000
176.9820, 9402.000
178.2090, 10735.00
179.4350, 12159.00
180.6620, 13891.00
181.8880, 15483.00
183.1150, 16942.00
184.3410, 17990.00
185.5670, 18444.00
186.7920, 18578.00
188.0180, 17819.00
189.2430, 16829.00
190.4690, 15577.00
191.6940, 14070.00
192.9180, 12890.00
194.1430, 11843.00
195.3680, 10826.00
196.5920, 10324.00
197.8160, 9795.000
199.0400, 9441.000
200.2640, 9165.000
201.4880, 8890.000
202.7110, 8622.000
203.9350, 8446.000
205.1580, 8319.000
206.3810, 8365.000
207.6040, 8256.000
208.8270, 8131.000
210.0490, 8186.000
211.2710, 8084.000
212.4940, 8114.000
213.7160, 8027.000
214.9370, 8008.000
216.1590, 8079.000
217.3810, 8138.000
218.6020, 7967.000
219.8230, 7985.000
221.0440, 7799.000
222.2650, 7656.000
223.4860, 7538.000
224.7060, 7262.000
225.9260, 6928.000
227.1470, 6827.000
228.3670, 6645.000
229.5860, 6337.807
230.8060, 6269.646
232.0260, 6179.672
233.2450, 6069.332
234.4640, 5867.340
235.6830, 5791.251
236.9020, 5669.325
238.1200, 5548.766
239.3390, 5499.821
240.5570, 5328.203
241.7750, 5284.843
242.9930, 5194.890
244.2110, 5131.059
245.4290, 5021.083
246.6460, 4980.000
247.8630, 4924.000
249.0810, 4856.000
250.2980, 4852.000
251.5140, 4790.116
252.7310, 4849.000
253.9470, 4708.000
255.1640, 4779.000
256.3800, 4749.000
257.5960, 4657.000
258.8120, 4726.000
260.0270, 4704.000
261.2430, 4700.000
262.4580, 4652.000
263.6730, 4525.000
264.8880, 4628.000
266.1030, 4568.000
267.3170, 4658.000
268.5320, 4730.000
269.7460, 4790.000
270.9600, 4627.000
272.1740, 4586.000
273.3880, 4649.000
274.6010, 4675.000
275.8150, 4791.000
277.0280, 4829.000
278.2410, 4814.000
279.4540, 4808.000
280.6670, 4971.000
281.8790, 4951.000
283.0920, 5123.000
284.3040, 5200.000
285.5160, 5264.000
286.7280, 5356.000
287.9400, 5405.000
289.1510, 5481.000
290.3630, 5535.000
291.5740, 5627.000
292.7850, 5669.564
293.9960, 5688.385
295.2070, 5742.000
296.4170, 5702.000
297.6280, 5681.000
298.8380, 5698.000
300.0480, 5655.283
301.2580, 5670.000
302.4680, 5598.000
303.6770, 5596.000
304.8870, 5554.000
306.0960, 5521.000
307.3050, 5444.000
308.5140, 5481.000
309.7230, 5425.000
310.9310, 5549.000
312.1400, 5483.000
313.3480, 5553.000
314.5560, 5574.000
315.7640, 5643.000
316.9720, 5572.000
318.1790, 5661.000
319.3870, 5703.000
320.5940, 5687.000
321.8010, 5577.000
323.0080, 5507.000
324.2150, 5615.000
325.4210, 5456.000
326.6280, 5466.000
327.8340, 5447.000
329.0400, 5401.000
330.2460, 5471.000
331.4510, 5536.000
332.6570, 5583.000
333.8620, 5669.000
335.0680, 5739.000
336.2730, 5864.000
337.4780, 6079.000
338.6820, 6261.000
339.8870, 6634.000
341.0910, 6838.000
342.2950, 7233.000
343.5000, 7540.000
344.7030, 8067.000
345.9070, 8346.000
347.1110, 8782.000
348.3140, 8966.000
349.5170, 9078.000
350.7200, 9161.000
351.9230, 9056.000
353.1260, 8904.000
354.3290, 8716.000
355.5310, 8540.000
356.7330, 8329.000
357.9350, 8157.000
359.1370, 8008.000
360.3390, 8061.000
361.5400, 7923.000
362.7420, 8170.000
363.9430, 8246.000
365.1440, 8544.000
366.3450, 8571.000
367.5460, 8843.000
368.7460, 8656.000
369.9470, 8448.000
371.1470, 8191.000
372.3470, 7677.000
373.5470, 7277.000
374.7460, 6810.000
375.9460, 6483.000
377.1450, 6192.000
378.3450, 6020.000
379.5440, 5764.000
380.7430, 5666.000
381.9410, 5474.000
383.1400, 5430.000
384.3380, 5381.000
385.5370, 5369.000
386.7350, 5355.976
387.9320, 5296.000
389.1300, 5356.000
390.3280, 5409.000
391.5250, 5398.000
392.7220, 5563.000
393.9190, 5581.000
395.1160, 5825.000
396.3130, 5869.000
397.5100, 5993.000
398.7060, 6206.000
399.9020, 6324.000
401.0980, 6348.000
402.2940, 6525.000
403.4900, 6452.000
404.6860, 6526.000
405.8810, 6565.000
407.0760, 6368.000
408.2710, 6249.000
409.4660, 6255.000
410.6610, 6151.000
411.8550, 6185.000
413.0500, 6207.000
414.2440, 6082.000
415.4380, 6108.000
416.6320, 6214.000
417.8260, 6208.000
419.0190, 6327.000
420.2130, 6386.000
421.4060, 6605.000
422.5990, 6679.000
423.7920, 6713.000
424.9850, 6615.000
426.1770, 6578.000
427.3700, 6330.000
428.5620, 6091.000
429.7540, 5762.000
430.9460, 5506.000
432.1380, 5341.000
433.3290, 5216.000
434.5210, 5081.000
435.7120, 4986.000
436.9030, 4894.000
438.0940, 4835.000
439.2850, 4779.699
440.4750, 4735.000
441.6660, 4722.000
442.8560, 4697.000
444.0460, 4706.000
445.2360, 4716.000
446.4260, 4647.000
447.6160, 4701.000
448.8050, 4718.000
449.9940, 4741.000
451.1830, 4625.000
452.3720, 4750.000
453.5610, 4699.000
454.7500, 4614.000
455.9380, 4678.000
457.1260, 4702.000
458.3150, 4726.000
459.5020, 4743.000
460.6900, 4699.000
461.8780, 4789.000
463.0650, 4737.000
464.2530, 4758.000
465.4400, 4840.000
466.6270, 4810.000
467.8130, 4761.000
469.0000, 4741.000
470.1870, 4798.000
471.3730, 4783.000
472.5590, 4772.000
473.7450, 4858.000
474.9310, 4977.000
476.1160, 4893.000
477.3020, 4944.000
478.4870, 5070.000
479.6720, 5003.000
480.8570, 5136.000
482.0420, 5070.000
483.2270, 5116.000
484.4110, 5211.000
485.5960, 5279.000
486.7800, 5331.000
487.9640, 5416.000
489.1480, 5378.000
490.3310, 5438.000
491.5150, 5653.000
492.6980, 5796.000
493.8810, 5785.000
495.0640, 5750.000
496.2470, 5725.000
497.4300, 5737.000
498.6120, 5650.000
499.7950, 5781.000
500.9770, 5714.000
502.1590, 5866.000
503.3410, 5809.000
504.5220, 5868.000
505.7040, 6029.000
506.8850, 6046.000
508.0660, 6156.000
509.2470, 6210.000
510.4280, 6082.000
511.6090, 6294.000
512.7890, 6291.000
513.9700, 6183.000
515.1500, 6353.000
516.3300, 6235.000
517.5100, 6327.000
518.6900, 6525.000
519.8690, 6577.000
521.0490, 6753.000
522.2280, 7015.000
523.4070, 7230.000
524.5860, 7505.000
525.7640, 7712.000
526.9430, 8151.000
528.1210, 8457.000
529.3000, 8637.000
530.4780, 8606.000
531.6560, 8648.000
532.8330, 8348.000
534.0110, 8084.000
535.1880, 7686.000
536.3650, 7388.000
537.5430, 7198.000
538.7190, 6839.000
539.8960, 6575.000
541.0730, 6533.000
542.2490, 6317.000
543.4250, 6179.000
544.6020, 6105.000
545.7780, 6058.000
546.9530, 5984.000
548.1290, 5978.000
549.3040, 5893.000
550.4800, 5900.000
551.6550, 5905.000
552.8300, 5825.000
554.0040, 5937.000
555.1790, 5948.000
556.3540, 6052.000
557.5280, 6011.000
558.7020, 6061.000
559.8760, 6092.000
561.0500, 6107.000
562.2230, 6071.000
563.3970, 6033.000
564.5700, 6016.000
565.7430, 5985.270
566.9160, 5954.774
568.0890, 5934.000
569.2620, 5878.000
570.4340, 5837.000
571.6070, 5763.000
572.7790, 5714.000
573.9510, 5729.000
575.1230, 5682.000
576.2940, 5691.765
577.4660, 5652.000
578.6370, 5697.000
579.8080, 5684.000
580.9790, 5664.000
582.1500, 5762.000
583.3210, 5577.000
584.4910, 5663.000
585.6620, 5694.000
586.8320, 5593.000
588.0020, 5635.000
589.1720, 5679.000
590.3410, 5630.000
591.5110, 5750.000
592.6800, 5756.000
593.8500, 5760.000
595.0190, 5841.000
596.1880, 5816.000
597.3560, 5836.000
598.5250, 5880.000
599.6930, 5801.000
600.8620, 5745.000
602.0300, 5930.000
603.1970, 5890.000
604.3650, 5981.000
605.5330, 5946.000
606.7000, 6005.000
607.8680, 6048.000
609.0350, 6086.971
610.2020, 6136.000
611.3680, 6223.000
612.5350, 6280.000
613.7010, 6374.000
614.8680, 6349.000
616.0340, 6458.000
617.2000, 6465.000
618.3660, 6641.000
619.5310, 6788.000
620.6970, 6819.000
621.8620, 6967.000
623.0270, 7162.000
624.1920, 7211.000
625.3570, 7483.000
626.5220, 7690.000
627.6860, 7758.000
628.8500, 8013.000
630.0140, 8351.000
631.1780, 8576.000
632.3420, 8951.000
633.5060, 9241.000
634.6700, 9582.000
635.8330, 9813.000
636.9960, 10133.00
638.1590, 10391.00
639.3220, 10705.00
640.4850, 11215.00
641.6470, 11527.00
642.8100, 11861.00
643.9720, 12582.00
645.1340, 13300.00
646.2960, 14281.00
647.4570, 15235.00
648.6190, 16481.00
649.7800, 18011.00
650.9420, 19851.00
652.1030, 21819.00
653.2640, 24287.00
654.4240, 27209.00
655.5850, 30924.00
656.7450, 34399.00
657.9060, 38291.00
659.0660, 42159.00
660.2260, 44985.00
661.3850, 46490.00
662.5450, 46294.00
663.7040, 43810.00
664.8640, 40131.00
666.0230, 35311.00
667.1820, 30477.00
668.3410, 26151.00
669.4990, 22464.00
670.6580, 19393.00
671.8160, 16963.00
672.9740, 15193.00
674.1320, 13853.00
675.2900, 12672.00
676.4480, 11791.00
677.6050, 11197.00
678.7630, 10710.00
679.9200, 10230.00
681.0770, 10062.00
682.2340, 9758.000
683.3900, 9551.000
684.5470, 9387.000
685.7030, 9191.000
686.8590, 9175.000
688.0150, 9165.000
689.1710, 9128.000
690.3270, 9063.000
691.4830, 8990.248
692.6380, 8919.000
693.7930, 8766.000
694.9480, 8663.000
696.1030, 8484.000
697.2580, 8287.000
698.4130, 8199.000
699.5670, 7950.000
700.7210, 7768.000
701.8750, 7752.000
703.0290, 7618.000
704.1830, 7528.000
705.3370, 7503.000
706.4900, 7362.000
707.6430, 7295.000
708.7970, 7299.000
709.9490, 7254.000
711.1020, 7122.000
712.2550, 7199.000
713.4070, 7165.000
714.5600, 7211.000
715.7120, 7032.000
716.8640, 6979.000
718.0160, 7010.000
719.1670, 7005.000
720.3190, 7085.000
721.4700, 6903.000
722.6210, 7086.000
723.7720, 6963.000
724.9230, 6959.000
726.0740, 7041.000
727.2250, 6954.000
728.3750, 6948.000
729.5250, 6997.000
730.6750, 6930.000
731.8250, 6912.000
732.9750, 6920.000
734.1240, 6992.000
735.2740, 7061.000
736.4230, 6975.000
737.5720, 7068.000
738.7210, 7076.000
739.8700, 7085.000
741.0190, 7099.000
742.1670, 7068.000
743.3150, 7208.000
744.4630, 7165.000
745.6110, 7212.000
746.7590, 7145.000
747.9070, 7150.000
749.0540, 7116.000
750.2020, 7028.000
751.3490, 7148.000
752.4960, 7148.000
753.6430, 7281.000
754.7890, 7214.000
755.9360, 7335.000
757.0820, 7176.000
758.2280, 7393.000
759.3740, 7443.000
760.5200, 7640.000
761.6660, 7654.444
762.8120, 7731.000
763.9570, 7631.000
765.1020, 7617.000
766.2470, 7516.000
767.3920, 7489.000
768.5370, 7385.000
769.6810, 7263.000
770.8260, 7352.000
771.9700, 7329.000
773.1140, 7205.000
774.2580, 7363.000
775.4020, 7284.000
776.5460, 7239.000
777.6890, 7388.000
778.8320, 7305.000
779.9750, 7321.000
781.1180, 7320.000
782.2610, 7328.000
783.4040, 7419.000
784.5460, 7359.000
785.6890, 7249.000
786.8310, 7348.000
787.9730, 7315.000
789.1150, 7269.000
790.2560, 7289.000
791.3980, 7247.610
792.5390, 7302.000
793.6810, 7212.000
794.8220, 7231.000
795.9630, 7229.000
797.1030, 7211.808
798.2440, 7234.982
799.3840, 7226.000
800.5240, 7240.000
801.6650, 7249.000
802.8040, 7203.000
803.9440, 7150.000
805.0840, 7214.000
806.2230, 7161.000
807.3630, 7334.000
808.5020, 7191.000
809.6410, 7327.000
810.7790, 7182.000
811.9180, 7244.000
813.0570, 7229.000
814.1950, 7264.000
815.3330, 7285.000
816.4710, 7294.521
817.6090, 7392.000
818.7470, 7340.000
819.8840, 7382.000
821.0220, 7428.000
822.1590, 7318.000
823.2960, 7366.000
824.4330, 7289.000
825.5690, 7414.000
826.7060, 7408.000
827.8420, 7500.000
828.9790, 7406.000
830.1150, 7405.000
831.2510, 7382.000
832.3860, 7385.395
833.5220, 7451.000
834.6570, 7420.000
835.7930, 7523.000
836.9280, 7506.000
838.0630, 7480.000
839.1980, 7616.000
840.3320, 7561.000
841.4670, 7580.000
842.6010, 7537.000
843.7350, 7626.000
844.8690, 7633.000
846.0030, 7577.000
847.1370, 7502.000
848.2700, 7649.000
849.4040, 7634.000
850.5370, 7699.000
851.6700, 7667.000
852.8030, 7695.000
853.9360, 7669.000
855.0680, 7589.000
856.2000, 7705.000
857.3330, 7696.000
858.4650, 7670.000
859.5970, 7759.000
860.7290, 7799.000
861.8600, 7733.000
862.9920, 7803.000
864.1230, 7844.000
865.2540, 7830.000
866.3850, 7961.000
867.5160, 7981.000
868.6460, 7882.000
869.7770, 7929.000
870.9070, 7983.000
872.0370, 8032.000
873.1670, 7995.000
874.2970, 8080.000
875.4270, 8072.000
876.5570, 7985.000
877.6860, 8107.000
878.8150, 8007.000
879.9440, 8006.000
881.0730, 8027.111
882.2020, 8116.894
883.3300, 8180.212
884.4590, 8218.539
885.5870, 8156.897
886.7150, 8224.313
887.8430, 8240.007
888.9710, 8253.581
890.0990, 8339.159
891.2260, 8292.027
892.3530, 8376.438
893.4810, 8396.000
894.6080, 8467.000
895.7340, 8483.000
896.8610, 8479.000
897.9880, 8525.000
899.1140, 8705.000
900.2400, 8733.000
901.3660, 8852.000
902.4920, 8770.000
903.6180, 9030.000
904.7430, 9112.000
905.8690, 9186.000
906.9940, 9085.000
908.1190, 9210.000
909.2440, 9269.000
910.3690, 9366.000
911.4930, 9291.000
912.6180, 9256.000
913.7420, 9192.000
914.8660, 9253.000
915.9900, 9215.000
917.1140, 9153.000
918.2380, 9115.000
919.3610, 9033.000
920.4850, 8901.000
921.6080, 8981.000
922.7310, 8805.000
923.8540, 8845.000
924.9760, 8997.000
926.0990, 8881.000
927.2210, 8889.000
928.3440, 8858.000
929.4660, 8768.000
930.5880, 8836.000
931.7090, 8785.000
932.8310, 8799.000
933.9520, 8803.526
935.0740, 8828.000
936.1950, 8802.000
937.3160, 8794.000
938.4360, 8807.000
939.5570, 8752.000
940.6780, 8828.000
941.7980, 8772.000
942.9180, 8846.000
944.0380, 8959.000
945.1580, 9012.000
946.2780, 9093.000
947.3970, 9033.000
948.5170, 9211.000
949.6360, 9159.000
950.7550, 9470.000
951.8740, 9438.000
952.9930, 9489.000
954.1110, 9760.000
955.2300, 9913.000
956.3480, 9951.000
957.4660, 10260.00
958.5840, 10417.00
959.7020, 10644.00
960.8190, 10979.00
961.9370, 11230.00
963.0540, 11676.00
964.1710, 11890.55
965.2880, 12225.00
966.4050, 12314.00
967.5220, 12530.00
968.6380, 12557.00
969.7550, 12611.00
970.8710, 12489.00
971.9870, 12467.00
973.1030, 12375.00
974.2190, 12041.00
975.3340, 11828.00
976.4500, 11572.00
977.5650, 11379.00
978.6800, 11226.00
979.7950, 11019.00
980.9100, 10804.00
982.0250, 10736.00
983.1390, 10576.00
984.2530, 10469.00
985.3680, 10566.00
986.4820, 10594.00
987.5950, 10398.00
988.7090, 10582.00
989.8230, 10599.67
990.9360, 10870.00
992.0490, 10858.00
993.1620, 11071.00
994.2750, 11288.00
995.3880, 11516.00
996.5010, 11748.00
997.6130, 12102.00
998.7250, 12288.00
999.8370, 12324.00
1000.949, 12521.00
1002.061, 12539.00
1003.173, 12592.00
1004.284, 12516.00
1005.396, 12490.00
1006.507, 12544.00
1007.618, 12580.00
1008.729, 12943.00
1009.839, 13184.00
1010.950, 13709.00
1012.060, 14150.00
1013.171, 14803.00
1014.281, 15473.00
1015.391, 16095.00
1016.500, 16895.00
1017.610, 17896.00
1018.719, 18717.00
1019.829, 19748.00
1020.938, 20366.00
1022.047, 20972.00
1023.156, 21279.00
1024.264, 21424.00
1025.373, 21269.00
1026.481, 20751.00
1027.589, 20087.00
1028.697, 19336.00
1029.805, 18276.00
1030.913, 17030.00
1032.020, 16387.00
1033.128, 15668.00
1034.235, 14637.00
1035.342, 13936.00
1036.449, 13561.00
1037.556, 13041.00
1038.663, 12416.00
1039.769, 12436.00
1040.875, 11865.00
1041.981, 11192.00
1043.087, 11158.00
1044.193, 10746.00
1045.299, 10629.00
1046.404, 10501.00
1047.510, 10372.00
1048.615, 10268.00
1049.720, 10043.00
1050.825, 9857.000
1051.930, 9770.000
1053.034, 9770.000
1054.139, 9537.000
1055.243, 9429.000
1056.347, 9355.000
1057.451, 9218.000
1058.555, 9230.940
1059.658, 9256.000
1060.762, 9226.000
1061.865, 9135.000
1062.968, 9062.000
1064.071, 9001.000
1065.174, 8902.000
1066.277, 8878.000
1067.380, 8956.000
1068.482, 8885.000
1069.584, 8916.000
1070.686, 8746.000
1071.788, 8957.000
1072.890, 8876.000
1073.992, 8775.000
1075.093, 8831.000
1076.194, 8861.000
1077.295, 8742.000
1078.396, 8820.000
1079.497, 8829.000
1080.598, 8827.000
1081.698, 8831.000
1082.799, 8772.000
1083.899, 8979.000
1084.999, 8907.000
1086.099, 8822.000
1087.199, 9073.000
1088.298, 9069.000
1089.398, 9027.000
1090.497, 9183.000
1091.596, 9200.000
1092.695, 9463.218
1093.794, 9599.811
1094.892, 9711.376
1095.991, 9799.395
1097.089, 9748.179
1098.187, 9818.382
1099.285, 9802.934
1100.383, 9703.175
1101.481, 9448.400
1102.579, 9210.000
1103.676, 9157.000
1104.773, 8983.000
1105.870, 8697.000
1106.967, 8751.000
1108.064, 8577.000
1109.161, 8412.000
1110.257, 8387.000
1111.353, 8292.000
1112.449, 8262.000
1113.545, 8228.000
1114.641, 8227.000
1115.737, 8152.000
1116.832, 8213.000
1117.928, 8003.000
1119.023, 8157.000
1120.118, 7999.000
1121.213, 8094.000
1122.308, 8145.000
1123.402, 7903.000
1124.497, 8032.000
1125.591, 7984.000
1126.685, 7946.000
1127.779, 8042.000
1128.873, 7958.000
1129.967, 8004.000
1131.060, 7885.000
1132.153, 7884.000
1133.247, 7953.000
1134.340, 7915.000
1135.433, 7945.000
1136.525, 7838.000
1137.618, 7928.000
1138.710, 7804.000
1139.802, 7812.000
1140.895, 7871.000
1141.987, 7816.000
1143.078, 7730.000
1144.170, 7713.000
1145.261, 7778.000
1146.353, 7795.000
1147.444, 7757.000
1148.535, 7890.000
1149.626, 7672.000
1150.716, 7741.000
1151.807, 7772.000
1152.897, 7786.000
1153.988, 7698.000
1155.078, 7626.000
1156.168, 7703.000
1157.257, 7691.000
1158.347, 7662.000
1159.436, 7677.000
1160.526, 7632.000
1161.615, 7579.000
1162.704, 7664.000
1163.793, 7637.000
1164.881, 7600.000
1165.970, 7624.000
1167.058, 7658.000
1168.147, 7567.000
1169.235, 7604.000
1170.323, 7676.000
1171.410, 7666.000
1172.498, 7628.000
1173.585, 7608.000
1174.673, 7641.000
1175.760, 7596.000
1176.847, 7620.000
1177.934, 7600.000
1179.020, 7583.000
1180.107, 7584.202
1181.193, 7625.000
1182.279, 7568.000
1183.365, 7563.000
1184.451, 7562.000
1185.537, 7642.000
1186.623, 7659.000
1187.708, 7538.000
1188.793, 7584.000
1189.878, 7465.000
1190.963, 7558.000
1192.048, 7599.000
1193.133, 7559.000
1194.217, 7527.000
1195.302, 7530.045
1196.386, 7492.000
1197.470, 7517.000
1198.554, 7512.000
1199.638, 7545.000
1200.721, 7570.000
1201.805, 7503.000
1202.888, 7614.000
1203.971, 7451.000
1205.054, 7655.000
1206.137, 7534.000
1207.219, 7494.000
1208.302, 7506.000
1209.384, 7576.000
1210.466, 7363.000
1211.548, 7509.000
1212.630, 7456.000
1213.712, 7453.000
1214.794, 7453.000
1215.875, 7458.000
1216.956, 7552.000
1218.037, 7390.000
1219.118, 7409.000
1220.199, 7602.000
1221.280, 7485.000
1222.360, 7518.000
1223.441, 7550.000
1224.521, 7579.000
1225.601, 7574.125
1226.681, 7564.000
1227.760, 7534.000
1228.840, 7558.000
1229.919, 7502.000
1230.999, 7453.000
1232.078, 7549.000
1233.157, 7613.000
1234.236, 7388.000
1235.314, 7412.000
1236.393, 7493.000
1237.471, 7519.000
1238.549, 7477.000
1239.627, 7498.000
1240.705, 7491.000
1241.783, 7522.000
1242.860, 7545.000
1243.938, 7493.000
1245.015, 7512.000
1246.092, 7462.000
1247.169, 7455.000
1248.246, 7502.000
1249.323, 7537.000
1250.399, 7536.000
1251.475, 7516.000
1252.552, 7469.000
1253.628, 7481.000
1254.703, 7527.000
1255.779, 7421.000
1256.855, 7539.000
1257.930, 7553.000
1259.005, 7543.000
1260.080, 7470.000
1261.155, 7501.000
1262.230, 7555.000
1263.305, 7615.000
1264.379, 7443.000
1265.454, 7567.000
1266.528, 7550.000
1267.602, 7461.000
1268.676, 7550.000
1269.750, 7545.000
1270.823, 7582.000
1271.897, 7516.000
1272.970, 7534.000
1274.043, 7489.000
1275.116, 7495.568
1276.189, 7612.000
1277.261, 7515.000
1278.334, 7616.000
1279.406, 7633.000
1280.478, 7516.000
1281.550, 7711.000
1282.622, 7640.000
1283.694, 7672.000
1284.766, 7580.000
1285.837, 7711.000
1286.908, 7610.000
1287.979, 7590.000
1289.050, 7685.000
1290.121, 7623.000
1291.192, 7665.000
1292.262, 7595.000
1293.333, 7665.000
1294.403, 7653.000
1295.473, 7567.000
1296.543, 7528.000
1297.613, 7628.000
1298.682, 7659.000
1299.752, 7646.000
1300.821, 7683.000
1301.890, 7543.000
1302.959, 7597.000
1304.028, 7574.000
1305.096, 7627.000
1306.165, 7521.000
1307.233, 7451.000
1308.301, 7683.000
1309.370, 7586.000
1310.437, 7740.000
1311.505, 7688.000
1312.573, 7662.000
1313.640, 7679.345
1314.708, 7696.000
1315.775, 7613.000
1316.842, 7666.000
1317.908, 7639.000
1318.975, 7600.000
1320.042, 7641.000
1321.108, 7672.000
1322.174, 7600.000
1323.240, 7585.000
1324.306, 7512.000
1325.372, 7659.000
1326.438, 7590.000
1327.503, 7643.000
1328.568, 7669.000
1329.634, 7602.000
1330.699, 7566.000
1331.763, 7676.000
1332.828, 7645.000
1333.893, 7585.000
1334.957, 7741.000
1336.021, 7613.000
1337.085, 7729.000
1338.149, 7567.000
1339.213, 7683.000
1340.277, 7595.000
1341.340, 7584.000
1342.404, 7662.000
1343.467, 7638.000
1344.530, 7641.000
1345.593, 7701.000
1346.655, 7642.000
1347.718, 7736.000
1348.780, 7697.000
1349.843, 7872.000
1350.905, 7709.000
1351.967, 7849.000
1353.028, 7721.000
1354.090, 7699.000
1355.152, 7791.000
1356.213, 7732.000
1357.274, 7870.000
1358.335, 7734.000
1359.396, 7847.000
1360.457, 7690.000
1361.517, 7822.000
1362.578, 7942.000
1363.638, 7841.000
1364.698, 7809.000
1365.758, 7846.000
1366.818, 7985.000
1367.878, 7825.000
1368.937, 7945.000
1369.997, 7848.000
1371.056, 7963.000
1372.115, 7893.000
1373.174, 7950.000
1374.232, 7973.000
1375.291, 7972.000
1376.350, 8011.000
1377.408, 8000.000
1378.466, 7884.000
1379.524, 8053.000
1380.582, 7873.000
1381.640, 8124.000
1382.697, 8095.000
1383.754, 8085.000
1384.812, 8000.000
1385.869, 8033.000
1386.926, 8053.000
1387.983, 8154.000
1389.039, 8176.000
1390.096, 8209.265
1391.152, 8154.000
1392.208, 8243.000
1393.264, 8148.000
1394.320, 8131.000
1395.376, 8242.000
1396.431, 8205.000
1397.487, 8257.000
1398.542, 8303.000
1399.597, 8202.000
1400.652, 8419.000
1401.707, 8261.000
1402.762, 8249.000
1403.816, 8261.000
1404.871, 8200.000
1405.925, 8249.213
1406.979, 8258.546
1408.033, 8306.000
1409.086, 8359.000
1410.140, 8361.000
1411.194, 8475.000
1412.247, 8433.000
1413.300, 8495.000
1414.353, 8413.000
1415.406, 8421.000
1416.458, 8446.000
1417.511, 8558.000
1418.563, 8549.000
1419.616, 8561.000
1420.668, 8588.000
1421.720, 8595.652
1422.772, 8560.000
1423.823, 8668.000
1424.875, 8665.000
1425.926, 8770.000
1426.977, 8785.446
1428.028, 8795.000
1429.079, 8820.000
1430.130, 8836.000
1431.180, 8838.000
1432.231, 8962.000
1433.281, 8906.000
1434.331, 8855.000
1435.381, 9040.000
1436.431, 9152.000
1437.481, 9000.000
1438.530, 8867.000
1439.580, 9114.000
1440.629, 9086.000
1441.678, 9100.000
1442.727, 9268.000
1443.776, 9070.000
1444.824, 9165.000
1445.873, 9225.000
1446.921, 9256.000
1447.969, 9319.000
1449.017, 9260.000
1450.065, 9268.000
1451.113, 9246.000
1452.160, 9305.000
1453.208, 9271.000
1454.255, 9245.000
1455.302, 9362.000
1456.349, 9379.000
1457.396, 9264.000
1458.443, 9461.000
1459.489, 9383.000
1460.535, 9412.000
1461.582, 9575.000
1462.628, 9537.000
1463.674, 9440.000
1464.719, 9566.000
1465.765, 9541.000
1466.810, 9395.000
1467.856, 9680.000
1468.901, 9652.000
1469.946, 9424.000
1470.991, 9663.000
1472.035, 9657.000
1473.080, 9699.000
1474.124, 9675.000
1475.169, 9714.000
1476.213, 9790.000
1477.257, 9721.000
1478.300, 9781.000
1479.344, 9870.000
1480.388, 9827.000
1481.431, 9846.000
1482.474, 9783.000
1483.517, 9957.000
1484.560, 9905.000
1485.603, 9942.000
1486.645, 9988.000
1487.688, 9936.000
1488.730, 10021.00
1489.772, 10025.00
1490.814, 10000.00
1491.856, 10108.00
1492.898, 10090.00
1493.939, 10184.00
1494.981, 10090.00
1496.022, 10191.00
1497.063, 10227.00
1498.104, 10281.00
1499.145, 10236.00
1500.186, 10323.00
1501.226, 10240.00
1502.266, 10347.00
1503.307, 10301.00
1504.347, 10412.00
1505.387, 10374.00
1506.426, 10280.00
1507.466, 10384.00
1508.505, 10565.00
1509.545, 10411.00
1510.584, 10487.00
1511.623, 10527.00
1512.662, 10537.00
1513.700, 10599.00
1514.739, 10548.00
1515.777, 10643.00
1516.815, 10696.00
1517.854, 10690.00
1518.892, 10669.00
1519.929, 10845.00
1520.967, 10794.00
1522.004, 10695.00
1523.042, 10832.00
1524.079, 10820.00
1525.116, 10943.00
1526.153, 10848.00
1527.190, 11017.00
1528.226, 10875.00
1529.263, 11019.00
1530.299, 10857.00
1531.335, 10996.00
1532.371, 11111.00
1533.407, 11012.00
1534.443, 11212.00
1535.478, 11125.00
1536.514, 11164.00
1537.549, 11138.00
1538.584, 11214.00
1539.619, 11131.00
1540.654, 11208.00
1541.689, 11331.00
1542.723, 11210.00
1543.757, 11256.00
1544.792, 11333.00
1545.826, 11316.00
1546.860, 11424.00
1547.893, 11442.11
1548.927, 11414.00
1549.960, 11505.00
1550.994, 11547.00
1552.027, 11553.00
1553.060, 11406.00
1554.093, 11628.00
1555.126, 11760.00
1556.158, 11554.00
1557.191, 11681.00
1558.223, 11660.00
1559.255, 11599.00
1560.287, 11696.00
1561.319, 11807.00
1562.350, 11931.00
1563.382, 11841.00
1564.413, 11733.00
1565.444, 11758.00
1566.476, 11810.00
1567.506, 11833.00
1568.537, 11834.00
1569.568, 11908.00
1570.598, 11920.00
1571.629, 11955.00
1572.659, 11949.00
1573.689, 11982.00
1574.719, 12109.00
1575.749, 12114.00
1576.778, 12107.00
1577.808, 11982.00
##END=



