##NAMES=Gypsum
##RRUFFID=R060509
##IDEAL CHEMISTRY=CaS^6+^O_4_&#183;2H_2_O
##LOCALITY=Pierre Shale, Hermosa, Custer County, South Dakota, USA
##OWNER=RRUFF
##SOURCE=Michael Scott
##DESCRIPTION=Colorless tabular single crystal
##STATUS=The identification of this mineral has been confirmed by X-ray diffraction and chemical analysis
##URL=rruff.info/R060509
##PIN_ID=L01702
##ORIENTATION=Laser parallel to a* (1 0 0). Fiducial mark perpendicular to laser is parallel to b [0 1 0]
155.8940, 2831.000
157.1300, 2815.000
158.3650, 2932.000
159.6000, 2952.000
160.8340, 2971.000
162.0690, 3108.000
163.3030, 3216.000
164.5370, 3220.000
165.7710, 3308.000
167.0050, 3383.000
168.2380, 3485.000
169.4720, 3563.000
170.7050, 3682.000
171.9380, 3794.000
173.1700, 3982.000
174.4030, 4116.000
175.6350, 4241.000
176.8680, 4394.000
178.1000, 4518.000
179.3310, 4723.000
180.5630, 4683.000
181.7940, 4597.000
183.0260, 4516.000
184.2570, 4325.000
185.4870, 4013.000
186.7180, 3734.000
187.9480, 3499.000
189.1790, 3286.000
190.4090, 3141.000
191.6390, 3031.000
192.8680, 2994.000
194.0980, 2946.000
195.3270, 2905.000
196.5560, 2903.000
197.7850, 2916.594
199.0140, 2869.000
200.2420, 2983.000
201.4710, 3011.000
202.6990, 3026.000
203.9270, 3063.000
205.1550, 3122.000
206.3820, 3105.000
207.6090, 3150.000
208.8370, 3165.000
210.0640, 3130.000
211.2900, 3058.000
212.5170, 3054.000
213.7440, 2998.380
214.9700, 2930.000
216.1960, 2897.000
217.4220, 2873.000
218.6470, 2781.000
219.8730, 2694.000
221.0980, 2672.000
222.3230, 2630.000
223.5480, 2549.000
224.7730, 2609.000
225.9970, 2548.000
227.2220, 2562.000
228.4460, 2516.000
229.6700, 2487.000
230.8940, 2478.000
232.1170, 2461.629
233.3400, 2482.000
234.5640, 2463.000
235.7870, 2486.000
237.0100, 2499.000
238.2320, 2498.000
239.4550, 2507.000
240.6770, 2496.290
241.8990, 2504.000
243.1210, 2476.000
244.3420, 2467.000
245.5640, 2469.000
246.7850, 2499.000
248.0060, 2474.000
249.2270, 2431.000
250.4480, 2471.000
251.6690, 2522.000
252.8890, 2481.000
254.1090, 2467.000
255.3290, 2528.000
256.5490, 2465.000
257.7680, 2546.000
258.9880, 2614.000
260.2070, 2627.000
261.4260, 2483.000
262.6450, 2507.000
263.8640, 2489.000
265.0820, 2493.000
266.3000, 2516.000
267.5180, 2496.000
268.7360, 2459.000
269.9540, 2536.000
271.1720, 2554.000
272.3890, 2531.000
273.6060, 2488.000
274.8230, 2466.000
276.0400, 2505.000
277.2560, 2588.000
278.4730, 2512.000
279.6890, 2552.000
280.9050, 2563.000
282.1210, 2500.000
283.3370, 2584.000
284.5520, 2604.000
285.7670, 2599.000
286.9820, 2594.000
288.1970, 2589.000
289.4120, 2614.000
290.6270, 2565.000
291.8410, 2617.000
293.0550, 2586.000
294.2690, 2606.000
295.4830, 2613.000
296.6970, 2632.000
297.9100, 2672.000
299.1230, 2629.000
300.3360, 2643.000
301.5490, 2693.000
302.7620, 2621.000
303.9740, 2694.000
305.1860, 2687.000
306.3990, 2683.000
307.6110, 2700.000
308.8220, 2670.000
310.0340, 2705.000
311.2450, 2684.000
312.4560, 2740.000
313.6670, 2785.000
314.8780, 2782.000
316.0890, 2804.000
317.2990, 2755.000
318.5090, 2727.000
319.7200, 2781.000
320.9290, 2827.000
322.1390, 2833.000
323.3490, 2784.000
324.5580, 2764.000
325.7670, 2696.000
326.9760, 2735.000
328.1850, 2695.000
329.3930, 2749.000
330.6020, 2740.000
331.8100, 2747.000
333.0180, 2691.000
334.2260, 2745.000
335.4340, 2766.000
336.6410, 2729.000
337.8480, 2755.000
339.0550, 2782.000
340.2620, 2744.000
341.4690, 2731.000
342.6760, 2746.000
343.8820, 2778.000
345.0880, 2763.000
346.2940, 2717.000
347.5000, 2769.000
348.7060, 2775.000
349.9110, 2715.000
351.1160, 2780.000
352.3210, 2754.000
353.5260, 2832.000
354.7310, 2858.000
355.9360, 2769.000
357.1400, 2843.000
358.3440, 2810.000
359.5480, 2845.000
360.7520, 2789.000
361.9550, 2898.000
363.1590, 2825.000
364.3620, 2792.000
365.5650, 2849.000
366.7680, 2840.000
367.9710, 2815.000
369.1730, 2831.000
370.3760, 2893.000
371.5780, 2852.000
372.7800, 2885.000
373.9810, 2836.000
375.1830, 2847.000
376.3840, 2849.000
377.5860, 2838.031
378.7870, 2886.000
379.9880, 2864.000
381.1880, 2866.000
382.3890, 2922.000
383.5890, 2997.000
384.7890, 2955.000
385.9890, 2986.000
387.1890, 2955.000
388.3880, 3045.000
389.5880, 3085.000
390.7870, 3051.000
391.9860, 3071.000
393.1850, 3119.000
394.3840, 3128.000
395.5820, 3217.000
396.7800, 3269.000
397.9790, 3287.000
399.1770, 3318.000
400.3740, 3507.000
401.5720, 3684.000
402.7690, 3908.000
403.9670, 4258.000
405.1640, 4608.000
406.3600, 5086.000
407.5570, 5441.000
408.7540, 5768.000
409.9500, 6117.000
411.1460, 6439.000
412.3420, 6785.000
413.5380, 6973.000
414.7330, 7086.000
415.9290, 6907.000
417.1240, 6360.000
418.3190, 5781.000
419.5140, 5249.000
420.7090, 4614.000
421.9030, 4232.000
423.0970, 3930.000
424.2920, 3696.000
425.4860, 3567.000
426.6790, 3544.000
427.8730, 3412.000
429.0660, 3292.000
430.2600, 3292.000
431.4530, 3266.000
432.6460, 3294.000
433.8380, 3261.922
435.0310, 3154.000
436.2230, 3203.000
437.4150, 3151.000
438.6070, 3085.000
439.7990, 3125.000
440.9910, 3151.000
442.1820, 3118.000
443.3730, 3126.000
444.5640, 3082.000
445.7550, 3179.000
446.9460, 3129.000
448.1370, 3091.000
449.3270, 3142.000
450.5170, 3112.000
451.7070, 3124.000
452.8970, 3219.000
454.0870, 3063.000
455.2760, 3154.000
456.4650, 3155.000
457.6550, 3127.000
458.8430, 3187.000
460.0320, 3196.000
461.2210, 3158.000
462.4090, 3212.000
463.5970, 3218.000
464.7850, 3171.000
465.9730, 3248.000
467.1610, 3287.000
468.3480, 3266.000
469.5360, 3195.000
470.7230, 3246.000
471.9100, 3338.000
473.0970, 3314.000
474.2830, 3397.000
475.4700, 3352.000
476.6560, 3366.000
477.8420, 3506.000
479.0280, 3585.000
480.2140, 3680.000
481.3990, 3752.000
482.5850, 3856.000
483.7700, 4004.000
484.9550, 4151.000
486.1400, 4311.000
487.3240, 4506.000
488.5090, 4681.000
489.6930, 4821.000
490.8770, 4960.000
492.0610, 4957.000
493.2450, 5041.000
494.4290, 5004.000
495.6120, 4848.000
496.7950, 4800.000
497.9780, 4461.000
499.1610, 4265.000
500.3440, 3993.000
501.5260, 3894.000
502.7090, 3777.000
503.8910, 3743.000
505.0730, 3638.832
506.2550, 3550.000
507.4360, 3511.000
508.6180, 3449.000
509.7990, 3446.000
510.9800, 3371.000
512.1610, 3371.000
513.3420, 3451.000
514.5230, 3388.000
515.7030, 3406.000
516.8830, 3365.000
518.0630, 3411.000
519.2430, 3384.000
520.4230, 3432.000
521.6020, 3343.000
522.7820, 3387.000
523.9610, 3377.000
525.1400, 3350.000
526.3190, 3386.000
527.4970, 3424.000
528.6760, 3352.000
529.8540, 3326.000
531.0320, 3442.000
532.2100, 3366.000
533.3880, 3439.000
534.5660, 3324.000
535.7430, 3372.000
536.9200, 3379.000
538.0970, 3409.000
539.2740, 3406.000
540.4510, 3423.000
541.6270, 3425.000
542.8040, 3401.000
543.9800, 3454.000
545.1560, 3408.000
546.3320, 3442.065
547.5080, 3503.000
548.6830, 3482.000
549.8580, 3493.000
551.0340, 3509.000
552.2090, 3512.000
553.3830, 3563.000
554.5580, 3507.000
555.7320, 3561.000
556.9070, 3635.000
558.0810, 3563.000
559.2550, 3629.000
560.4280, 3616.000
561.6020, 3656.000
562.7750, 3687.829
563.9490, 3728.604
565.1220, 3750.000
566.2950, 3800.000
567.4670, 3834.000
568.6400, 3853.695
569.8120, 3839.000
570.9840, 3893.000
572.1560, 3872.000
573.3280, 3889.000
574.5000, 3858.000
575.6710, 3841.000
576.8430, 3884.000
578.0140, 3873.000
579.1850, 3912.000
580.3560, 3892.000
581.5260, 3912.000
582.6970, 3850.000
583.8670, 3879.000
585.0370, 3945.000
586.2070, 3939.000
587.3770, 3891.000
588.5460, 3924.000
589.7160, 3902.000
590.8850, 3904.000
592.0540, 3999.000
593.2230, 4017.000
594.3920, 3947.000
595.5600, 4092.000
596.7290, 4006.000
597.8970, 3972.000
599.0650, 4098.000
600.2330, 4152.000
601.4000, 4192.000
602.5680, 4229.000
603.7350, 4250.000
604.9020, 4299.000
606.0690, 4383.000
607.2360, 4512.000
608.4030, 4564.000
609.5690, 4799.000
610.7360, 4878.000
611.9020, 5032.000
613.0680, 5228.000
614.2340, 5277.000
615.3990, 5382.000
616.5650, 5581.000
617.7300, 5662.000
618.8950, 5637.000
620.0600, 5592.000
621.2250, 5479.000
622.3890, 5355.608
623.5540, 5232.000
624.7180, 5004.000
625.8820, 4797.000
627.0460, 4572.000
628.2100, 4403.000
629.3730, 4281.000
630.5370, 4180.000
631.7000, 4045.000
632.8630, 3979.062
634.0260, 3975.000
635.1890, 3870.000
636.3510, 3836.000
637.5140, 3838.000
638.6760, 3809.000
639.8380, 3745.000
641.0000, 3702.000
642.1610, 3718.000
643.3230, 3728.000
644.4840, 3745.000
645.6450, 3658.000
646.8060, 3710.000
647.9670, 3684.000
649.1280, 3749.000
650.2880, 3772.000
651.4490, 3708.000
652.6090, 3768.000
653.7690, 3790.000
654.9290, 3802.000
656.0880, 3781.000
657.2480, 3901.000
658.4070, 3914.000
659.5660, 4038.000
660.7250, 4110.000
661.8840, 4217.000
663.0430, 4558.000
664.2010, 4805.000
665.3600, 4955.000
666.5180, 5141.000
667.6760, 5312.000
668.8330, 5464.000
669.9910, 5585.000
671.1480, 5609.000
672.3060, 5510.000
673.4630, 5254.000
674.6200, 4931.000
675.7770, 4617.000
676.9330, 4385.000
678.0900, 4176.000
679.2460, 3985.000
680.4020, 4030.000
681.5580, 3974.000
682.7140, 3971.000
683.8690, 3877.000
685.0250, 3895.000
686.1800, 3763.000
687.3350, 3887.000
688.4900, 3910.000
689.6450, 3889.000
690.7990, 3806.000
691.9540, 3875.000
693.1080, 3808.000
694.2620, 3872.000
695.4160, 3878.000
696.5700, 3871.000
697.7230, 3874.000
698.8770, 3821.000
700.0300, 3813.000
701.1830, 3867.000
702.3360, 3758.000
703.4890, 3878.000
704.6410, 3866.000
705.7930, 3824.000
706.9460, 3818.000
708.0980, 3833.288
709.2500, 3880.000
710.4010, 3865.000
711.5530, 3879.000
712.7040, 3851.000
713.8560, 3820.000
715.0070, 3806.000
716.1580, 3888.000
717.3080, 3863.000
718.4590, 3963.000
719.6090, 3857.000
720.7590, 3797.000
721.9090, 3781.000
723.0590, 3860.000
724.2090, 3859.000
725.3590, 3829.000
726.5080, 3873.000
727.6570, 3882.000
728.8060, 3886.000
729.9550, 3933.000
731.1040, 3891.000
732.2530, 3873.000
733.4010, 3892.000
734.5490, 3906.000
735.6970, 3937.000
736.8450, 3940.430
737.9930, 3944.000
739.1400, 3949.369
740.2880, 3958.000
741.4350, 3953.000
742.5820, 3960.000
743.7290, 3924.000
744.8760, 3894.000
746.0220, 3922.000
747.1690, 3958.000
748.3150, 3880.000
749.4610, 3899.000
750.6070, 3921.000
751.7530, 3966.000
752.8980, 3976.155
754.0440, 3964.000
755.1890, 3999.000
756.3340, 3999.000
757.4790, 3980.000
758.6240, 3984.000
759.7680, 3976.441
760.9130, 4026.000
762.0570, 3996.000
763.2010, 3998.000
764.3450, 4067.000
765.4890, 4015.000
766.6320, 3936.000
767.7760, 3950.000
768.9190, 4008.000
770.0620, 4038.000
771.2050, 4071.000
772.3480, 3977.000
773.4900, 4052.000
774.6330, 4009.000
775.7750, 4033.000
776.9170, 4081.000
778.0590, 4040.000
779.2010, 4036.000
780.3420, 4110.000
781.4840, 4140.000
782.6250, 4060.000
783.7660, 4111.000
784.9070, 4087.000
786.0480, 4079.000
787.1890, 4094.000
788.3290, 4083.000
789.4690, 4021.000
790.6100, 4149.000
791.7490, 3968.000
792.8890, 4111.000
794.0290, 4188.000
795.1680, 4121.000
796.3080, 4093.000
797.4470, 4139.000
798.5860, 4163.000
799.7250, 4124.000
800.8630, 4152.000
802.0020, 4134.000
803.1400, 4196.000
804.2780, 4114.000
805.4160, 4181.000
806.5540, 4134.000
807.6920, 4162.000
808.8300, 4196.000
809.9670, 4160.000
811.1040, 4145.000
812.2410, 4149.000
813.3780, 4205.000
814.5150, 4174.000
815.6510, 4168.000
816.7880, 4189.000
817.9240, 4168.000
819.0600, 4185.000
820.1960, 4178.000
821.3320, 4169.000
822.4670, 4171.000
823.6030, 4206.000
824.7380, 4244.000
825.8730, 4225.000
827.0080, 4273.000
828.1430, 4152.000
829.2770, 4270.000
830.4120, 4178.000
831.5460, 4226.000
832.6800, 4216.000
833.8140, 4218.000
834.9480, 4143.000
836.0810, 4286.000
837.2150, 4301.000
838.3480, 4206.000
839.4810, 4260.000
840.6140, 4264.000
841.7470, 4311.000
842.8800, 4325.498
844.0120, 4283.000
845.1450, 4338.000
846.2770, 4312.000
847.4090, 4277.000
848.5410, 4295.000
849.6720, 4345.000
850.8040, 4303.000
851.9350, 4300.000
853.0660, 4339.000
854.1970, 4319.000
855.3280, 4291.000
856.4590, 4343.000
857.5900, 4327.000
858.7200, 4318.000
859.8500, 4387.000
860.9800, 4365.000
862.1100, 4331.000
863.2400, 4367.000
864.3700, 4355.000
865.4990, 4280.000
866.6280, 4381.000
867.7570, 4387.000
868.8860, 4281.000
870.0150, 4346.000
871.1440, 4394.000
872.2720, 4446.000
873.4010, 4395.000
874.5290, 4329.000
875.6570, 4280.000
876.7850, 4388.000
877.9120, 4382.000
879.0400, 4436.000
880.1670, 4341.000
881.2940, 4446.000
882.4210, 4433.000
883.5480, 4448.000
884.6750, 4475.000
885.8020, 4445.000
886.9280, 4405.000
888.0540, 4406.000
889.1800, 4427.000
890.3060, 4445.000
891.4320, 4430.000
892.5580, 4465.000
893.6830, 4561.000
894.8080, 4411.000
895.9330, 4515.000
897.0580, 4399.000
898.1830, 4428.000
899.3080, 4439.000
900.4320, 4500.000
901.5570, 4545.000
902.6810, 4509.000
903.8050, 4553.170
904.9290, 4555.000
906.0520, 4538.000
907.1760, 4530.000
908.2990, 4451.000
909.4230, 4487.000
910.5460, 4492.000
911.6690, 4587.000
912.7910, 4514.000
913.9140, 4523.000
915.0360, 4556.000
916.1590, 4465.000
917.2810, 4528.000
918.4030, 4643.000
919.5240, 4599.000
920.6460, 4556.000
921.7680, 4584.000
922.8890, 4603.000
924.0100, 4612.000
925.1310, 4551.000
926.2520, 4609.000
927.3730, 4578.000
928.4930, 4600.000
929.6130, 4599.000
930.7340, 4677.000
931.8540, 4647.000
932.9740, 4632.000
934.0930, 4702.000
935.2130, 4673.000
936.3320, 4663.000
937.4520, 4600.000
938.5710, 4648.000
939.6900, 4666.000
940.8090, 4709.000
941.9270, 4650.000
943.0460, 4667.000
944.1640, 4748.000
945.2820, 4702.000
946.4000, 4752.000
947.5180, 4717.000
948.6360, 4765.000
949.7530, 4680.000
950.8710, 4743.000
951.9880, 4737.747
953.1050, 4724.274
954.2220, 4762.000
955.3390, 4746.000
956.4550, 4742.000
957.5720, 4795.000
958.6880, 4813.000
959.8040, 4864.000
960.9200, 4869.000
962.0360, 4876.000
963.1520, 4917.000
964.2670, 4872.000
965.3820, 4936.000
966.4980, 4960.000
967.6130, 4949.000
968.7280, 5070.000
969.8420, 4996.000
970.9570, 4995.000
972.0710, 5060.000
973.1850, 5073.000
974.3000, 5150.000
975.4140, 5156.000
976.5270, 5110.000
977.6410, 5170.000
978.7540, 5323.000
979.8680, 5336.000
980.9810, 5470.417
982.0940, 5600.000
983.2070, 5683.000
984.3200, 5806.000
985.4320, 5892.000
986.5440, 5955.000
987.6570, 6108.714
988.7690, 6134.000
989.8810, 6390.000
990.9920, 6517.000
992.1040, 6653.000
993.2160, 7016.000
994.3270, 7397.000
995.4380, 7972.000
996.5490, 8877.000
997.6600, 9843.000
998.7710, 12006.00
999.8810, 15326.00
1000.991, 20900.00
1002.102, 28051.00
1003.212, 34348.00
1004.322, 40823.00
1005.431, 47270.00
1006.541, 51691.00
1007.651, 53105.00
1008.760, 49273.00
1009.869, 42152.00
1010.978, 32783.00
1012.087, 23419.00
1013.195, 16830.00
1014.304, 12792.00
1015.412, 10225.00
1016.521, 8840.000
1017.629, 7945.000
1018.737, 7276.000
1019.844, 6830.000
1020.952, 6646.000
1022.059, 6346.000
1023.167, 6227.000
1024.274, 5981.000
1025.381, 5820.000
1026.488, 5769.000
1027.594, 5720.000
1028.701, 5655.000
1029.807, 5611.000
1030.913, 5545.000
1032.019, 5474.000
1033.125, 5543.000
1034.231, 5417.000
1035.337, 5398.000
1036.442, 5291.000
1037.548, 5445.000
1038.653, 5382.000
1039.758, 5327.000
1040.863, 5314.000
1041.967, 5287.000
1043.072, 5340.000
1044.176, 5258.000
1045.280, 5253.000
1046.384, 5219.000
1047.488, 5345.000
1048.592, 5280.000
1049.696, 5284.000
1050.799, 5232.000
1051.903, 5255.000
1053.006, 5292.000
1054.109, 5227.000
1055.212, 5304.000
1056.314, 5313.000
1057.417, 5255.000
1058.519, 5318.000
1059.621, 5248.000
1060.724, 5253.000
1061.826, 5343.000
1062.927, 5396.000
1064.029, 5406.000
1065.130, 5321.000
1066.232, 5297.000
1067.333, 5276.000
1068.434, 5407.000
1069.535, 5314.000
1070.636, 5398.000
1071.736, 5312.000
1072.837, 5296.000
1073.937, 5376.000
1075.037, 5408.000
1076.137, 5380.000
1077.237, 5454.000
1078.337, 5409.000
1079.436, 5457.000
1080.535, 5427.000
1081.635, 5468.000
1082.734, 5461.000
1083.833, 5464.000
1084.931, 5484.000
1086.030, 5515.000
1087.128, 5574.000
1088.227, 5547.000
1089.325, 5539.000
1090.423, 5535.000
1091.521, 5640.000
1092.618, 5699.000
1093.716, 5654.000
1094.813, 5693.000
1095.911, 5720.000
1097.008, 5810.000
1098.105, 5859.000
1099.202, 5871.000
1100.298, 5957.715
1101.395, 5987.687
1102.491, 6069.000
1103.587, 6118.000
1104.683, 6136.000
1105.779, 6274.000
1106.875, 6207.000
1107.971, 6356.000
1109.066, 6584.000
1110.161, 6519.000
1111.256, 6760.000
1112.351, 6854.000
1113.446, 6801.000
1114.541, 6882.000
1115.636, 6912.000
1116.730, 7029.000
1117.824, 6923.000
1118.918, 7040.000
1120.012, 6821.000
1121.106, 6839.000
1122.200, 6834.000
1123.293, 6765.000
1124.387, 6886.000
1125.480, 6972.000
1126.573, 7149.000
1127.666, 7552.000
1128.759, 8010.000
1129.851, 8471.000
1130.944, 9099.000
1132.036, 9655.000
1133.128, 10237.00
1134.220, 10415.00
1135.312, 10468.00
1136.404, 10174.00
1137.495, 9786.000
1138.587, 9276.000
1139.678, 8686.000
1140.769, 8261.000
1141.860, 7909.000
1142.951, 7430.000
1144.041, 7116.000
1145.132, 6889.000
1146.222, 6628.000
1147.313, 6429.256
1148.403, 6342.000
1149.493, 6096.000
1150.582, 5997.000
1151.672, 5889.000
1152.761, 5890.000
1153.851, 5861.000
1154.940, 5791.000
1156.029, 5745.000
1157.118, 5732.000
1158.207, 5684.447
1159.295, 5659.000
1160.384, 5633.000
1161.472, 5605.000
1162.560, 5587.000
1163.648, 5649.000
1164.736, 5692.000
1165.824, 5683.000
1166.911, 5671.000
1167.999, 5671.266
1169.086, 5642.467
1170.173, 5632.000
1171.260, 5602.000
1172.347, 5570.000
1173.434, 5580.000
1174.520, 5548.000
1175.606, 5689.000
1176.693, 5603.000
1177.779, 5633.000
1178.865, 5644.000
1179.951, 5614.000
1181.036, 5634.000
1182.122, 5687.000
1183.207, 5663.000
1184.292, 5630.000
1185.377, 5670.000
1186.462, 5572.000
1187.547, 5734.000
1188.632, 5645.000
1189.716, 5631.000
1190.800, 5595.000
1191.885, 5698.000
1192.969, 5640.000
1194.052, 5646.000
1195.136, 5708.000
1196.220, 5622.000
1197.303, 5693.000
1198.387, 5739.000
1199.470, 5613.000
1200.553, 5707.000
1201.636, 5642.000
1202.718, 5722.000
1203.801, 5688.000
1204.883, 5700.000
1205.966, 5744.000
1207.048, 5764.000
1208.130, 5686.000
1209.211, 5726.000
1210.293, 5752.000
1211.375, 5682.000
1212.456, 5699.000
1213.537, 5778.000
1214.618, 5673.000
1215.699, 5739.000
1216.780, 5773.000
1217.861, 5787.000
1218.941, 5746.000
1220.022, 5742.000
1221.102, 5840.000
1222.182, 5686.000
1223.262, 5711.000
1224.342, 5788.000
1225.422, 5689.000
1226.501, 5786.000
1227.580, 5807.000
1228.660, 5804.000
1229.739, 5832.000
1230.818, 5742.000
1231.896, 5799.000
1232.975, 5746.000
1234.054, 5803.000
1235.132, 5835.268
1236.210, 5886.000
1237.288, 5914.000
1238.366, 5899.000
1239.444, 5900.000
1240.521, 5901.908
1241.599, 5794.000
1242.676, 5862.000
1243.753, 5890.000
1244.830, 5806.000
1245.907, 5863.000
1246.984, 5878.000
1248.061, 5885.000
1249.137, 5889.000
1250.214, 5945.000
1251.290, 5917.000
1252.366, 5841.000
1253.442, 6106.000
1254.517, 5894.000
1255.593, 5978.000
1256.668, 5872.000
1257.744, 5900.000
1258.819, 5870.000
1259.894, 5923.000
1260.969, 5785.000
1262.044, 5868.000
1263.118, 5806.000
1264.193, 5797.000
1265.267, 5857.000
1266.341, 5931.000
1267.415, 5921.000
1268.489, 5960.000
1269.563, 5942.000
1270.636, 5984.000
1271.710, 6051.000
1272.783, 5941.000
1273.856, 5995.000
1274.929, 5891.000
1276.002, 5883.000
1277.075, 5880.000
1278.147, 5947.000
1279.220, 5893.000
1280.292, 5952.000
1281.364, 5987.000
1282.436, 5919.000
1283.508, 5966.000
1284.580, 5989.000
1285.652, 5875.000
1286.723, 6025.000
1287.794, 5988.000
1288.865, 5925.000
1289.936, 5959.000
1291.007, 6023.000
1292.078, 5998.000
1293.149, 6022.000
1294.219, 6022.000
1295.289, 6002.000
1296.360, 5969.000
1297.430, 6010.000
1298.499, 6001.000
1299.569, 6051.000
1300.639, 6031.163
1301.708, 5970.000
1302.778, 6022.000
1303.847, 6012.000
1304.916, 6057.000
1305.985, 6087.000
1307.053, 6152.000
1308.122, 6006.000
1309.190, 6143.000
1310.259, 6039.000
1311.327, 6061.000
1312.395, 6023.000
1313.463, 6064.000
1314.531, 6146.000
1315.598, 6070.000
1316.666, 6166.000
1317.733, 6106.000
1318.800, 6118.000
1319.867, 6049.000
1320.934, 6114.000
1322.001, 6118.000
1323.067, 6206.000
1324.134, 6188.263
1325.200, 6183.000
1326.266, 6180.000
1327.333, 6160.000
1328.398, 6179.000
1329.464, 6087.000
1330.530, 6119.000
1331.595, 6265.000
1332.661, 6121.000
1333.726, 6133.000
1334.791, 6154.000
1335.856, 6092.000
1336.921, 6216.000
1337.985, 6251.000
1339.050, 6188.000
1340.114, 6226.000
1341.178, 6289.000
1342.242, 6190.000
1343.306, 6138.000
1344.370, 6157.000
1345.434, 6150.000
1346.497, 6165.000
1347.561, 6216.000
1348.624, 6124.000
1349.687, 6300.000
1350.750, 6312.000
1351.813, 6266.000
1352.876, 6198.000
1353.938, 6324.000
1355.000, 6242.000
1356.063, 6237.000
1357.125, 6259.000
1358.187, 6192.000
1359.249, 6295.000
1360.310, 6192.000
1361.372, 6357.000
1362.433, 6286.000
1363.495, 6230.000
1364.556, 6280.000
1365.617, 6291.000
1366.678, 6257.000
1367.738, 6257.000
1368.799, 6280.000
1369.859, 6262.000
1370.920, 6354.000
1371.980, 6255.000
1373.040, 6248.000
1374.100, 6193.000
1375.159, 6259.000
1376.219, 6345.000
1377.278, 6284.000
1378.338, 6240.000
1379.397, 6306.000
1380.456, 6219.000
1381.515, 6283.000
1382.574, 6262.000
1383.632, 6257.000
1384.691, 6273.988
1385.749, 6338.000
1386.807, 6292.000
1387.865, 6289.000
1388.923, 6339.000
1389.981, 6319.919
1391.039, 6368.000
1392.096, 6345.000
1393.154, 6390.000
1394.211, 6404.000
1395.268, 6311.000
1396.325, 6370.000
1397.382, 6451.000
1398.439, 6349.000
1399.495, 6277.000
1400.552, 6413.000
1401.608, 6359.000
1402.664, 6375.000
1403.720, 6411.000
1404.776, 6462.000
1405.832, 6444.000
1406.887, 6470.257
1407.943, 6426.000
1408.998, 6467.000
1410.053, 6407.000
1411.108, 6382.000
1412.163, 6405.434
1413.218, 6449.000
1414.272, 6424.000
1415.327, 6388.000
1416.381, 6376.000
1417.435, 6438.000
1418.489, 6450.000
1419.543, 6458.399
1420.597, 6471.000
1421.651, 6482.000
1422.704, 6500.988
1423.758, 6493.000
1424.811, 6536.000
1425.864, 6545.000
1426.917, 6548.232
1427.970, 6462.000
1429.023, 6536.000
1430.075, 6510.913
1431.128, 6516.000
1432.180, 6552.000
1433.232, 6534.000
1434.284, 6550.000
1435.336, 6509.000
1436.388, 6537.512
1437.439, 6635.000
1438.491, 6555.000
1439.542, 6598.000
1440.593, 6559.000
1441.644, 6608.000
1442.695, 6689.000
1443.746, 6540.000
1444.797, 6684.000
1445.847, 6590.000
1446.898, 6674.000
1447.948, 6663.000
1448.998, 6662.000
1450.048, 6669.000
1451.098, 6614.000
1452.147, 6682.000
1453.197, 6525.000
1454.246, 6639.000
1455.296, 6663.000
1456.345, 6539.000
1457.394, 6652.000
1458.443, 6681.000
1459.491, 6702.000
1460.540, 6694.000
1461.588, 6694.000
1462.637, 6603.000
1463.685, 6579.000
1464.733, 6611.000
1465.781, 6598.000
1466.829, 6685.000
1467.876, 6677.000
1468.924, 6662.000
1469.971, 6718.000
1471.019, 6695.000
1472.066, 6647.000
1473.113, 6665.000
1474.160, 6737.000
1475.206, 6776.000
1476.253, 6771.000
1477.299, 6636.000
1478.346, 6820.000
1479.392, 6739.000
1480.438, 6793.000
1481.484, 6825.000
1482.529, 6706.000
1483.575, 6767.000
1484.620, 6792.000
1485.666, 6768.000
1486.711, 6824.000
1487.756, 6789.548
1488.801, 6815.000
1489.846, 6753.000
1490.891, 6697.000
1491.935, 6694.000
1492.980, 6685.000
1494.024, 6693.052
1495.068, 6772.000
1496.112, 6766.000
1497.156, 6743.000
1498.200, 6825.000
1499.243, 6742.000
1500.287, 6857.000
1501.330, 6830.000
1502.373, 6882.000
1503.416, 6880.358
1504.459, 6853.000
1505.502, 6825.000
1506.545, 6861.000
1507.587, 6790.000
1508.630, 6809.000
1509.672, 6819.000
1510.714, 6803.000
1511.756, 6859.000
1512.798, 6830.871
1513.840, 6838.000
1514.881, 6831.000
1515.923, 6874.000
1516.964, 6929.000
1518.005, 6984.000
1519.046, 6867.000
1520.087, 6944.000
1521.128, 6921.000
1522.169, 6975.000
1523.209, 6914.000
1524.249, 6937.000
1525.290, 6906.000
1526.330, 6945.000
1527.370, 6907.000
1528.410, 6974.000
1529.449, 6928.000
1530.489, 7041.000
1531.528, 7064.000
1532.568, 6938.000
1533.607, 6926.000
1534.646, 7007.000
1535.685, 7055.000
1536.724, 6961.000
1537.762, 6931.000
1538.801, 6974.000
1539.839, 6914.000
1540.878, 7057.000
1541.916, 6972.000
1542.954, 6934.000
1543.992, 7021.000
1545.029, 6961.012
1546.067, 7002.000
1547.104, 6956.000
1548.142, 6998.000
1549.179, 6992.000
1550.216, 6975.000
1551.253, 6982.000
1552.290, 6977.000
1553.326, 6889.000
1554.363, 7152.000
1555.399, 7107.000
1556.436, 7090.000
1557.472, 7059.000
1558.508, 7074.000
1559.544, 7147.000
1560.579, 7024.000
1561.615, 7227.000
1562.651, 7142.000
##END=



