##NAMES=Gypsum
##RRUFFID=R060509
##IDEAL CHEMISTRY=CaS^6+^O_4_&#183;2H_2_O
##LOCALITY=Pierre Shale, Hermosa, Custer County, South Dakota, USA
##OWNER=RRUFF
##SOURCE=Michael Scott
##DESCRIPTION=Colorless tabular single crystal
##STATUS=The identification of this mineral has been confirmed by X-ray diffraction and chemical analysis
##URL=rruff.info/R060509
##PIN_ID=L01702
##ORIENTATION=Laser parallel to a* (1 0 0). Fiducial mark perpendicular to laser is parallel to b [0 1 0]
189.1790, 2588.000
190.4090, 2519.000
191.6390, 2499.000
192.8680, 2516.000
194.0980, 2555.000
195.3270, 2582.000
196.5560, 2578.000
197.7850, 2621.000
199.0140, 2690.000
200.2420, 2781.000
201.4710, 2851.000
202.6990, 2956.000
203.9270, 2911.000
205.1550, 3043.000
206.3820, 3029.000
207.6090, 3112.000
208.8370, 3189.000
210.0640, 3100.000
211.2900, 3142.000
212.5170, 3095.000
213.7440, 3066.000
214.9700, 2973.000
216.1960, 2855.000
217.4220, 2798.000
218.6470, 2722.038
219.8730, 2736.000
221.0980, 2615.000
222.3230, 2620.000
223.5480, 2584.000
224.7730, 2540.000
225.9970, 2532.000
227.2220, 2506.000
228.4460, 2501.000
229.6700, 2508.000
230.8940, 2471.000
232.1170, 2462.000
233.3400, 2446.000
234.5640, 2425.560
235.7870, 2418.842
237.0100, 2411.000
238.2320, 2403.000
239.4550, 2430.000
240.6770, 2432.000
241.8990, 2465.000
243.1210, 2462.681
244.3420, 2449.000
245.5640, 2465.000
246.7850, 2454.000
248.0060, 2458.000
249.2270, 2442.921
250.4480, 2445.041
251.6690, 2416.000
252.8890, 2439.000
254.1090, 2453.000
255.3290, 2439.000
256.5490, 2460.000
257.7680, 2492.000
258.9880, 2522.000
260.2070, 2556.000
261.4260, 2487.000
262.6450, 2530.000
263.8640, 2511.000
265.0820, 2528.000
266.3000, 2475.000
267.5180, 2536.000
268.7360, 2512.000
269.9540, 2461.000
271.1720, 2451.000
272.3890, 2540.000
273.6060, 2475.000
274.8230, 2509.000
276.0400, 2479.000
277.2560, 2542.000
278.4730, 2524.000
279.6890, 2545.000
280.9050, 2501.000
282.1210, 2541.000
283.3370, 2524.000
284.5520, 2532.000
285.7670, 2534.000
286.9820, 2583.000
288.1970, 2535.000
289.4120, 2602.000
290.6270, 2557.000
291.8410, 2587.000
293.0550, 2632.000
294.2690, 2552.000
295.4830, 2613.000
296.6970, 2561.000
297.9100, 2613.000
299.1230, 2646.000
300.3360, 2654.000
301.5490, 2623.000
302.7620, 2642.000
303.9740, 2664.000
305.1860, 2638.000
306.3990, 2642.000
307.6110, 2675.000
308.8220, 2666.000
310.0340, 2727.000
311.2450, 2718.000
312.4560, 2703.000
313.6670, 2685.000
314.8780, 2679.000
316.0890, 2702.000
317.2990, 2720.000
318.5090, 2736.000
319.7200, 2755.000
320.9290, 2749.000
322.1390, 2722.000
323.3490, 2718.000
324.5580, 2722.000
325.7670, 2703.000
326.9760, 2750.000
328.1850, 2698.000
329.3930, 2721.000
330.6020, 2654.000
331.8100, 2730.000
333.0180, 2759.000
334.2260, 2622.000
335.4340, 2698.000
336.6410, 2709.000
337.8480, 2661.000
339.0550, 2686.000
340.2620, 2665.000
341.4690, 2683.000
342.6760, 2737.000
343.8820, 2732.000
345.0880, 2730.000
346.2940, 2652.000
347.5000, 2749.000
348.7060, 2681.000
349.9110, 2711.000
351.1160, 2777.000
352.3210, 2760.000
353.5260, 2721.000
354.7310, 2698.000
355.9360, 2708.363
357.1400, 2802.000
358.3440, 2720.000
359.5480, 2775.000
360.7520, 2744.000
361.9550, 2844.000
363.1590, 2818.000
364.3620, 2805.000
365.5650, 2809.000
366.7680, 2823.000
367.9710, 2811.000
369.1730, 2814.639
370.3760, 2842.000
371.5780, 2815.000
372.7800, 2824.000
373.9810, 2843.000
375.1830, 2817.000
376.3840, 2836.000
377.5860, 2860.000
378.7870, 2881.000
379.9880, 2868.000
381.1880, 2876.000
382.3890, 2895.000
383.5890, 2879.000
384.7890, 2853.000
385.9890, 2891.000
387.1890, 2923.000
388.3880, 3022.000
389.5880, 3020.990
390.7870, 3049.000
391.9860, 3040.000
393.1850, 3048.000
394.3840, 3022.000
395.5820, 3059.000
396.7800, 3129.000
397.9790, 3200.000
399.1770, 3279.602
400.3740, 3349.000
401.5720, 3487.000
402.7690, 3603.000
403.9670, 3758.000
405.1640, 4053.000
406.3600, 4341.000
407.5570, 4580.000
408.7540, 4798.318
409.9500, 5004.000
411.1460, 5191.000
412.3420, 5337.000
413.5380, 5561.000
414.7330, 5462.000
415.9290, 5317.000
417.1240, 5067.000
418.3190, 4706.000
419.5140, 4342.000
420.7090, 3981.000
421.9030, 3754.000
423.0970, 3601.000
424.2920, 3384.000
425.4860, 3364.000
426.6790, 3241.000
427.8730, 3160.000
429.0660, 3142.000
430.2600, 3077.047
431.4530, 3102.000
432.6460, 3066.000
433.8380, 3082.000
435.0310, 3065.059
436.2230, 3135.000
437.4150, 3055.000
438.6070, 3072.000
439.7990, 3115.000
440.9910, 3090.000
442.1820, 3080.000
443.3730, 3091.000
444.5640, 3078.016
445.7550, 3070.000
446.9460, 3066.000
448.1370, 3068.000
449.3270, 3039.000
450.5170, 3155.000
451.7070, 3162.000
452.8970, 3089.000
454.0870, 3138.000
455.2760, 3053.000
456.4650, 3172.000
457.6550, 3051.000
458.8430, 3093.000
460.0320, 3154.000
461.2210, 3158.000
462.4090, 3198.000
463.5970, 3195.000
464.7850, 3196.000
465.9730, 3189.000
467.1610, 3176.000
468.3480, 3245.000
469.5360, 3256.000
470.7230, 3304.000
471.9100, 3207.000
473.0970, 3270.000
474.2830, 3320.000
475.4700, 3371.000
476.6560, 3416.000
477.8420, 3427.000
479.0280, 3484.000
480.2140, 3531.000
481.3990, 3733.000
482.5850, 3829.000
483.7700, 3915.000
484.9550, 4033.000
486.1400, 4183.000
487.3240, 4340.000
488.5090, 4465.000
489.6930, 4536.224
490.8770, 4580.000
492.0610, 4591.000
493.2450, 4565.153
494.4290, 4532.000
495.6120, 4433.000
496.7950, 4312.000
497.9780, 4197.000
499.1610, 4042.000
500.3440, 3838.000
501.5260, 3722.000
502.7090, 3634.000
503.8910, 3521.000
505.0730, 3475.000
506.2550, 3441.000
507.4360, 3463.000
508.6180, 3450.000
509.7990, 3435.000
510.9800, 3409.000
512.1610, 3333.000
513.3420, 3368.000
514.5230, 3320.086
515.7030, 3367.000
516.8830, 3315.000
518.0630, 3295.000
519.2430, 3367.000
520.4230, 3319.000
521.6020, 3370.000
522.7820, 3346.000
523.9610, 3303.000
525.1400, 3327.000
526.3190, 3380.000
527.4970, 3294.000
528.6760, 3395.000
529.8540, 3354.000
531.0320, 3465.000
532.2100, 3351.000
533.3880, 3366.000
534.5660, 3343.000
535.7430, 3411.000
536.9200, 3465.000
538.0970, 3365.000
539.2740, 3429.000
540.4510, 3484.000
541.6270, 3443.000
542.8040, 3385.000
543.9800, 3506.000
545.1560, 3457.000
546.3320, 3518.000
547.5080, 3446.000
548.6830, 3495.000
549.8580, 3522.000
551.0340, 3520.000
552.2090, 3496.000
553.3830, 3595.000
554.5580, 3522.000
555.7320, 3650.000
556.9070, 3567.000
558.0810, 3611.000
559.2550, 3563.000
560.4280, 3615.000
561.6020, 3631.000
562.7750, 3696.000
563.9490, 3727.000
565.1220, 3753.000
566.2950, 3806.000
567.4670, 3806.313
568.6400, 3825.000
569.8120, 3813.000
570.9840, 3847.000
572.1560, 3844.000
573.3280, 3921.000
574.5000, 3845.000
575.6710, 3906.000
576.8430, 3962.000
578.0140, 3928.000
579.1850, 4001.000
580.3560, 3977.000
581.5260, 3975.000
582.6970, 3960.000
583.8670, 4015.000
585.0370, 4046.000
586.2070, 3994.000
587.3770, 4086.000
588.5460, 4119.000
589.7160, 4121.000
590.8850, 4065.000
592.0540, 4200.000
593.2230, 4097.000
594.3920, 4082.000
595.5600, 4194.000
596.7290, 4141.000
597.8970, 4235.000
599.0650, 4292.000
600.2330, 4295.000
601.4000, 4429.000
602.5680, 4368.000
603.7350, 4435.000
604.9020, 4472.000
606.0690, 4657.000
607.2360, 4747.000
608.4030, 4820.000
609.5690, 5021.000
610.7360, 5094.000
611.9020, 5362.000
613.0680, 5499.000
614.2340, 5599.000
615.3990, 5632.000
616.5650, 5843.000
617.7300, 5886.000
618.8950, 6010.000
620.0600, 5968.000
621.2250, 5664.000
622.3890, 5763.000
623.5540, 5466.000
624.7180, 5284.000
625.8820, 5023.000
627.0460, 4798.000
628.2100, 4610.000
629.3730, 4444.000
630.5370, 4302.000
631.7000, 4236.000
632.8630, 4115.000
634.0260, 4028.000
635.1890, 3927.000
636.3510, 3876.436
637.5140, 3846.100
638.6760, 3811.000
639.8380, 3847.000
641.0000, 3851.000
642.1610, 3886.000
643.3230, 3747.000
644.4840, 3761.000
645.6450, 3759.000
646.8060, 3710.000
647.9670, 3720.000
649.1280, 3786.000
650.2880, 3745.000
651.4490, 3685.000
652.6090, 3752.000
653.7690, 3733.000
654.9290, 3777.000
656.0880, 3856.000
657.2480, 3819.000
658.4070, 3842.000
659.5660, 3932.000
660.7250, 3920.000
661.8840, 4113.000
663.0430, 4203.000
664.2010, 4373.000
665.3600, 4506.000
666.5180, 4540.000
667.6760, 4665.000
668.8330, 4804.000
669.9910, 4763.000
671.1480, 4929.000
672.3060, 4670.000
673.4630, 4567.000
674.6200, 4354.000
675.7770, 4307.000
676.9330, 4127.000
678.0900, 4074.000
679.2460, 4021.000
680.4020, 3940.000
681.5580, 3932.000
682.7140, 3867.000
683.8690, 3822.000
685.0250, 3872.000
686.1800, 3815.000
687.3350, 3894.000
688.4900, 3814.000
689.6450, 3880.000
690.7990, 3875.000
691.9540, 3933.000
693.1080, 3893.000
694.2620, 3856.000
695.4160, 3848.000
696.5700, 3822.000
697.7230, 3829.000
698.8770, 3836.000
700.0300, 3819.000
701.1830, 3831.000
702.3360, 3832.936
703.4890, 3810.000
704.6410, 3828.000
705.7930, 3886.000
706.9460, 3847.000
708.0980, 3854.000
709.2500, 3888.000
710.4010, 3838.000
711.5530, 3865.000
712.7040, 3850.300
713.8560, 3831.000
715.0070, 3835.000
716.1580, 3822.226
717.3080, 3900.000
718.4590, 3841.000
719.6090, 3867.000
720.7590, 3940.000
721.9090, 3833.000
723.0590, 3968.000
724.2090, 3924.000
725.3590, 3887.108
726.5080, 3952.052
727.6570, 3989.539
728.8060, 4001.043
729.9550, 3908.746
731.1040, 3950.488
732.2530, 3938.512
733.4010, 3924.333
734.5490, 3984.937
735.6970, 3907.736
736.8450, 3967.154
737.9930, 3972.037
739.1400, 4001.877
740.2880, 3977.671
741.4350, 3970.157
742.5820, 4016.708
743.7290, 4033.323
744.8760, 4002.894
746.0220, 4034.319
747.1690, 3955.228
748.3150, 3973.116
749.4610, 4032.847
750.6070, 4005.133
751.7530, 4037.546
752.8980, 4047.057
754.0440, 3952.501
755.1890, 4038.930
756.3340, 4047.088
757.4790, 3974.879
758.6240, 4055.107
759.7680, 3993.975
760.9130, 3983.302
762.0570, 4010.597
763.2010, 3998.309
764.3450, 4048.429
765.4890, 4038.427
766.6320, 4003.000
767.7760, 4007.348
768.9190, 4044.000
770.0620, 4021.000
771.2050, 4033.000
772.3480, 4075.000
773.4900, 4094.000
774.6330, 4065.000
775.7750, 4001.000
776.9170, 4044.000
778.0590, 4097.000
779.2010, 4072.000
780.3420, 4119.000
781.4840, 4172.000
782.6250, 4105.000
783.7660, 4094.000
784.9070, 4150.000
786.0480, 4216.000
787.1890, 4099.000
788.3290, 4162.000
789.4690, 4107.000
790.6100, 4223.000
791.7490, 4043.000
792.8890, 4100.000
794.0290, 4101.000
795.1680, 4067.000
796.3080, 4169.000
797.4470, 4119.000
798.5860, 4091.000
799.7250, 4093.000
800.8630, 4098.154
802.0020, 4123.000
803.1400, 4157.000
804.2780, 4156.000
805.4160, 4190.000
806.5540, 4188.112
807.6920, 4201.000
808.8300, 4193.000
809.9670, 4169.000
811.1040, 4183.000
812.2410, 4127.000
813.3780, 4224.000
814.5150, 4289.000
815.6510, 4219.000
816.7880, 4182.000
817.9240, 4150.000
819.0600, 4160.000
820.1960, 4202.000
821.3320, 4199.000
822.4670, 4248.000
823.6030, 4207.000
824.7380, 4245.000
825.8730, 4258.000
827.0080, 4214.000
828.1430, 4283.000
829.2770, 4219.000
830.4120, 4296.000
831.5460, 4362.000
832.6800, 4291.000
833.8140, 4204.000
834.9480, 4289.000
836.0810, 4206.000
837.2150, 4283.000
838.3480, 4378.000
839.4810, 4279.000
840.6140, 4282.000
841.7470, 4432.000
842.8800, 4320.000
844.0120, 4387.000
845.1450, 4316.000
846.2770, 4308.000
847.4090, 4317.000
848.5410, 4287.000
849.6720, 4320.000
850.8040, 4340.000
851.9350, 4309.000
853.0660, 4339.000
854.1970, 4366.000
855.3280, 4370.000
856.4590, 4312.000
857.5900, 4389.000
858.7200, 4296.000
859.8500, 4347.000
860.9800, 4410.000
862.1100, 4292.000
863.2400, 4397.000
864.3700, 4477.000
865.4990, 4378.000
866.6280, 4443.000
867.7570, 4410.000
868.8860, 4459.000
870.0150, 4366.000
871.1440, 4473.000
872.2720, 4428.000
873.4010, 4487.000
874.5290, 4474.000
875.6570, 4399.000
876.7850, 4489.000
877.9120, 4423.000
879.0400, 4434.000
880.1670, 4452.000
881.2940, 4457.000
882.4210, 4441.000
883.5480, 4416.000
884.6750, 4411.000
885.8020, 4494.000
886.9280, 4486.000
888.0540, 4453.000
889.1800, 4510.000
890.3060, 4380.000
891.4320, 4470.000
892.5580, 4424.000
893.6830, 4543.000
894.8080, 4511.000
895.9330, 4534.000
897.0580, 4568.000
898.1830, 4430.000
899.3080, 4487.000
900.4320, 4458.000
901.5570, 4532.000
902.6810, 4506.000
903.8050, 4530.000
904.9290, 4532.000
906.0520, 4521.000
907.1760, 4548.000
908.2990, 4581.000
909.4230, 4525.000
910.5460, 4577.000
911.6690, 4587.000
912.7910, 4519.000
913.9140, 4593.000
915.0360, 4573.000
916.1590, 4583.000
917.2810, 4613.000
918.4030, 4613.000
919.5240, 4634.000
920.6460, 4601.000
921.7680, 4638.000
922.8890, 4577.000
924.0100, 4674.000
925.1310, 4622.000
926.2520, 4657.000
927.3730, 4710.000
928.4930, 4624.000
929.6130, 4647.000
930.7340, 4641.000
931.8540, 4664.000
932.9740, 4669.000
934.0930, 4680.000
935.2130, 4742.000
936.3320, 4683.000
937.4520, 4707.000
938.5710, 4680.000
939.6900, 4766.000
940.8090, 4784.000
941.9270, 4838.000
943.0460, 4759.000
944.1640, 4795.000
945.2820, 4798.000
946.4000, 4703.000
947.5180, 4792.000
948.6360, 4767.000
949.7530, 4802.000
950.8710, 4851.000
951.9880, 4780.000
953.1050, 4834.000
954.2220, 4753.000
955.3390, 4852.000
956.4550, 4802.000
957.5720, 4831.000
958.6880, 4743.000
959.8040, 4843.000
960.9200, 4920.000
962.0360, 4857.000
963.1520, 4905.000
964.2670, 4986.000
965.3820, 4994.000
966.4980, 4957.000
967.6130, 4944.000
968.7280, 5010.000
969.8420, 4986.000
970.9570, 5038.000
972.0710, 5069.000
973.1850, 5105.000
974.3000, 5080.000
975.4140, 5190.000
976.5270, 5237.000
977.6410, 5211.000
978.7540, 5228.000
979.8680, 5318.000
980.9810, 5302.000
982.0940, 5437.000
983.2070, 5433.000
984.3200, 5484.000
985.4320, 5615.000
986.5440, 5859.000
987.6570, 5882.000
988.7690, 6058.000
989.8810, 6187.000
990.9920, 6252.000
992.1040, 6468.000
993.2160, 6692.000
994.3270, 7073.000
995.4380, 7488.000
996.5490, 8156.000
997.6600, 9278.000
998.7710, 10932.00
999.8810, 13826.00
1000.991, 18628.00
1002.102, 24084.00
1003.212, 29342.00
1004.322, 33894.00
1005.431, 38876.00
1006.541, 42607.00
1007.651, 43681.00
1008.760, 40510.00
1009.869, 34757.00
1010.978, 27300.00
1012.087, 20058.00
1013.195, 14571.00
1014.304, 11255.00
1015.412, 9247.000
1016.521, 8131.000
1017.629, 7346.000
1018.737, 6919.000
1019.844, 6553.000
1020.952, 6283.000
1022.059, 6093.000
1023.167, 6008.000
1024.274, 5804.000
1025.381, 5746.000
1026.488, 5647.000
1027.594, 5628.000
1028.701, 5521.000
1029.807, 5471.000
1030.913, 5503.000
1032.019, 5426.000
1033.125, 5339.000
1034.231, 5396.000
1035.337, 5319.000
1036.442, 5343.000
1037.548, 5303.000
1038.653, 5312.000
1039.758, 5270.000
1040.863, 5273.000
1041.967, 5335.000
1043.072, 5334.000
1044.176, 5278.000
1045.280, 5271.000
1046.384, 5226.000
1047.488, 5261.000
1048.592, 5255.181
1049.696, 5296.000
1050.799, 5293.000
1051.903, 5285.000
1053.006, 5314.000
1054.109, 5297.000
1055.212, 5206.000
1056.314, 5313.000
1057.417, 5217.000
1058.519, 5383.000
1059.621, 5291.000
1060.724, 5228.000
1061.826, 5285.000
1062.927, 5316.000
1064.029, 5250.000
1065.130, 5286.000
1066.232, 5309.000
1067.333, 5285.000
1068.434, 5333.000
1069.535, 5395.000
1070.636, 5351.000
1071.736, 5347.000
1072.837, 5386.000
1073.937, 5364.000
1075.037, 5271.000
1076.137, 5369.000
1077.237, 5385.000
1078.337, 5386.000
1079.436, 5287.000
1080.535, 5351.000
1081.635, 5383.000
1082.734, 5394.000
1083.833, 5439.000
1084.931, 5537.000
1086.030, 5532.000
1087.128, 5567.300
1088.227, 5570.961
1089.325, 5560.000
1090.423, 5554.000
1091.521, 5571.524
1092.618, 5519.000
1093.716, 5592.000
1094.813, 5603.000
1095.911, 5579.000
1097.008, 5621.000
1098.105, 5653.000
1099.202, 5785.000
1100.298, 5775.000
1101.395, 5827.000
1102.491, 5800.000
1103.587, 5936.000
1104.683, 5947.000
1105.779, 5979.000
1106.875, 5985.000
1107.971, 6152.000
1109.066, 6072.000
1110.161, 6240.000
1111.256, 6261.000
1112.351, 6301.000
1113.446, 6392.000
1114.541, 6303.000
1115.636, 6434.000
1116.730, 6461.000
1117.824, 6423.000
1118.918, 6368.000
1120.012, 6401.000
1121.106, 6413.000
1122.200, 6328.000
1123.293, 6356.000
1124.387, 6344.000
1125.480, 6322.000
1126.573, 6590.000
1127.666, 6705.000
1128.759, 7075.000
1129.851, 7370.000
1130.944, 7833.000
1132.036, 8198.000
1133.128, 8584.000
1134.220, 8749.673
1135.312, 9000.000
1136.404, 8864.000
1137.495, 8848.000
1138.587, 8644.000
1139.678, 8355.000
1140.769, 8215.000
1141.860, 7807.000
1142.951, 7540.000
1144.041, 7309.000
1145.132, 7031.000
1146.222, 6680.000
1147.313, 6537.000
1148.403, 6319.000
1149.493, 6247.000
1150.582, 6117.000
1151.672, 5935.000
1152.761, 5842.000
1153.851, 5808.000
1154.940, 5815.000
1156.029, 5827.000
1157.118, 5833.000
1158.207, 5765.000
1159.295, 5749.000
1160.384, 5734.000
1161.472, 5711.000
1162.560, 5613.000
1163.648, 5725.000
1164.736, 5604.000
1165.824, 5789.000
1166.911, 5657.000
1167.999, 5680.000
1169.086, 5765.000
1170.173, 5594.000
1171.260, 5692.000
1172.347, 5613.000
1173.434, 5622.000
1174.520, 5681.000
1175.606, 5729.000
1176.693, 5646.000
1177.779, 5707.000
1178.865, 5622.000
1179.951, 5672.000
1181.036, 5762.000
1182.122, 5669.000
1183.207, 5682.000
1184.292, 5542.000
1185.377, 5691.000
1186.462, 5641.000
1187.547, 5718.000
1188.632, 5683.000
1189.716, 5582.000
1190.800, 5748.000
1191.885, 5612.000
1192.969, 5636.000
1194.052, 5697.000
1195.136, 5635.000
1196.220, 5687.000
1197.303, 5655.000
1198.387, 5718.000
1199.470, 5657.000
1200.553, 5734.000
1201.636, 5771.000
1202.718, 5720.000
1203.801, 5735.000
1204.883, 5790.000
1205.966, 5795.000
1207.048, 5783.816
1208.130, 5725.000
1209.211, 5742.000
1210.293, 5712.000
1211.375, 5707.000
1212.456, 5822.000
1213.537, 5820.000
1214.618, 5842.068
1215.699, 5785.000
1216.780, 5856.000
1217.861, 5771.000
1218.941, 5770.000
1220.022, 5902.000
1221.102, 5797.000
1222.182, 5743.000
1223.262, 5732.000
1224.342, 5858.000
1225.422, 5852.000
1226.501, 5854.000
1227.580, 5900.443
1228.660, 5869.000
1229.739, 5929.000
1230.818, 5848.000
1231.896, 5864.000
1232.975, 5777.000
1234.054, 5736.000
1235.132, 5889.000
1236.210, 5755.000
1237.288, 5891.000
1238.366, 5858.000
1239.444, 5761.000
1240.521, 5928.000
1241.599, 5832.000
1242.676, 5886.000
1243.753, 5790.000
1244.830, 5870.000
1245.907, 5895.000
1246.984, 5808.000
1248.061, 5859.000
1249.137, 5916.000
1250.214, 5893.000
1251.290, 5922.000
1252.366, 5856.000
1253.442, 5892.000
1254.517, 5916.000
1255.593, 5856.000
1256.668, 5939.000
1257.744, 5928.000
1258.819, 5859.000
1259.894, 5815.000
1260.969, 5889.000
1262.044, 5925.000
1263.118, 5890.000
1264.193, 5946.000
1265.267, 5905.000
1266.341, 5986.000
1267.415, 5939.000
1268.489, 5927.000
1269.563, 5879.000
1270.636, 5897.267
1271.710, 5921.000
1272.783, 5941.000
1273.856, 5962.000
1274.929, 5990.000
1276.002, 5911.000
1277.075, 6006.000
1278.147, 5895.000
1279.220, 6005.000
1280.292, 5955.000
1281.364, 6024.000
1282.436, 6003.000
1283.508, 5926.000
1284.580, 5966.000
1285.652, 5964.000
1286.723, 5957.000
1287.794, 5964.461
1288.865, 6024.000
1289.936, 5946.000
1291.007, 5966.000
1292.078, 5950.321
1293.149, 6021.000
1294.219, 5985.000
1295.289, 6042.000
1296.360, 6065.000
1297.430, 6113.000
1298.499, 6085.000
1299.569, 6132.000
1300.639, 6128.557
1301.708, 6082.000
1302.778, 6128.000
1303.847, 6135.000
1304.916, 6125.000
1305.985, 6088.000
1307.053, 6089.000
1308.122, 6093.000
1309.190, 6110.000
1310.259, 6111.000
1311.327, 6057.000
1312.395, 6113.000
1313.463, 6153.000
1314.531, 6030.000
1315.598, 6072.000
1316.666, 6148.000
1317.733, 6049.000
1318.800, 6093.000
1319.867, 6154.000
1320.934, 6169.000
1322.001, 6212.000
1323.067, 6157.000
1324.134, 6194.000
1325.200, 6197.000
1326.266, 6251.000
1327.333, 6189.000
1328.398, 6141.000
1329.464, 6323.000
1330.530, 6153.000
1331.595, 6204.000
1332.661, 6211.000
1333.726, 6183.000
1334.791, 6239.000
1335.856, 6197.000
1336.921, 6139.000
1337.985, 6167.000
1339.050, 6174.000
1340.114, 6319.000
1341.178, 6150.000
1342.242, 6251.000
1343.306, 6330.000
1344.370, 6261.000
1345.434, 6354.000
1346.497, 6176.000
1347.561, 6270.000
1348.624, 6279.000
1349.687, 6361.000
1350.750, 6272.000
1351.813, 6302.000
1352.876, 6238.000
1353.938, 6265.000
1355.000, 6241.000
1356.063, 6260.000
1357.125, 6285.000
1358.187, 6314.000
1359.249, 6289.000
1360.310, 6329.000
1361.372, 6296.000
1362.433, 6320.000
1363.495, 6305.000
1364.556, 6249.000
1365.617, 6368.000
1366.678, 6321.000
1367.738, 6300.000
1368.799, 6366.000
1369.859, 6268.000
1370.920, 6336.000
1371.980, 6319.000
1373.040, 6416.000
1374.100, 6278.000
1375.159, 6389.000
1376.219, 6347.000
1377.278, 6457.000
1378.338, 6355.000
1379.397, 6371.000
1380.456, 6309.000
1381.515, 6329.000
1382.574, 6321.960
1383.632, 6334.000
1384.691, 6382.000
1385.749, 6335.000
1386.807, 6371.366
1387.865, 6285.000
1388.923, 6399.000
1389.981, 6378.000
1391.039, 6398.000
1392.096, 6422.000
1393.154, 6350.000
1394.211, 6461.000
1395.268, 6407.000
1396.325, 6490.000
1397.382, 6391.000
1398.439, 6344.000
1399.495, 6382.000
1400.552, 6337.000
1401.608, 6455.000
1402.664, 6427.000
1403.720, 6439.000
1404.776, 6477.000
1405.832, 6484.000
1406.887, 6450.000
1407.943, 6533.000
1408.998, 6465.000
1410.053, 6461.000
1411.108, 6536.000
1412.163, 6575.000
1413.218, 6425.000
1414.272, 6505.000
1415.327, 6480.000
1416.381, 6469.000
1417.435, 6580.000
1418.489, 6477.000
1419.543, 6635.000
1420.597, 6493.000
1421.651, 6602.000
1422.704, 6570.000
1423.758, 6512.000
1424.811, 6564.000
1425.864, 6602.000
1426.917, 6540.000
1427.970, 6479.000
1429.023, 6624.000
1430.075, 6613.000
1431.128, 6626.000
1432.180, 6501.000
1433.232, 6592.000
1434.284, 6642.000
1435.336, 6593.000
1436.388, 6665.000
1437.439, 6676.000
1438.491, 6707.000
1439.542, 6737.000
1440.593, 6686.000
1441.644, 6728.000
1442.695, 6641.000
1443.746, 6675.413
1444.797, 6696.000
1445.847, 6695.000
1446.898, 6722.000
1447.948, 6703.000
1448.998, 6692.000
1450.048, 6723.000
1451.098, 6699.000
1452.147, 6693.528
1453.197, 6701.595
1454.246, 6679.000
1455.296, 6686.000
1456.345, 6681.496
1457.394, 6678.818
1458.443, 6684.000
1459.491, 6683.000
1460.540, 6677.324
1461.588, 6673.000
1462.637, 6658.000
1463.685, 6652.961
1464.733, 6630.812
1465.781, 6651.000
1466.829, 6623.000
1467.876, 6667.000
1468.924, 6723.000
1469.971, 6713.000
1471.019, 6760.000
1472.066, 6713.000
1473.113, 6684.000
1474.160, 6776.000
1475.206, 6730.000
1476.253, 6817.000
1477.299, 6766.000
1478.346, 6819.000
1479.392, 6785.000
1480.438, 6748.000
1481.484, 6799.000
1482.529, 6832.000
1483.575, 6800.000
1484.620, 6784.000
1485.666, 6754.000
1486.711, 6814.000
1487.756, 6930.000
1488.801, 6854.000
1489.846, 6776.000
1490.891, 6918.000
1491.935, 6817.000
1492.980, 6810.000
1494.024, 6923.000
1495.068, 6905.000
1496.112, 6871.000
1497.156, 6871.000
1498.200, 6871.000
1499.243, 6783.000
1500.287, 6908.000
1501.330, 6899.000
1502.373, 6963.000
1503.416, 6860.000
1504.459, 6836.000
1505.502, 6934.000
1506.545, 6892.000
1507.587, 6973.000
1508.630, 6946.000
1509.672, 6924.000
1510.714, 6921.000
1511.756, 6976.000
1512.798, 6947.000
1513.840, 6853.000
1514.881, 6944.000
1515.923, 6933.000
1516.964, 6993.000
1518.005, 6936.000
1519.046, 7002.000
1520.087, 7015.000
1521.128, 7009.000
1522.169, 6989.000
1523.209, 7011.000
1524.249, 7033.000
1525.290, 7082.000
1526.330, 7065.267
1527.370, 6995.000
1528.410, 7039.000
1529.449, 6998.000
1530.489, 6976.000
1531.528, 6979.000
1532.568, 7123.000
1533.607, 7144.000
1534.646, 7077.000
1535.685, 7044.000
1536.724, 7026.000
1537.762, 7101.000
1538.801, 7060.000
1539.839, 7160.000
1540.878, 7108.000
1541.916, 7111.000
1542.954, 7115.000
1543.992, 7087.000
1545.029, 7132.000
1546.067, 7137.000
1547.104, 7039.000
1548.142, 7092.000
1549.179, 7118.000
1550.216, 7031.000
1551.253, 7077.000
1552.290, 7124.000
1553.326, 7144.000
1554.363, 7157.000
1555.399, 7113.000
1556.436, 7180.000
1557.472, 7112.000
1558.508, 7127.000
1559.544, 7096.000
1560.579, 7113.000
1561.615, 7173.000
1562.651, 7311.000
##END=



