##NAMES=Hausmannite
##RRUFFID=R040090
##IDEAL CHEMISTRY=Mn^2+^Mn^3+^_2_O_4_
##LOCALITY=Ã–hrenstock, Ilmenau, near Thuringia, Germany
##OWNER=RRUFF
##SOURCE=University of Arizona Mineral Museum
##DESCRIPTION=Mass of black octahedral crystals
##STATUS=The identification of this mineral has been confirmed by X-ray diffraction and chemical analysis
##URL=rruff.info/R040090
##MEASURED CHEMISTRY=(Mn^2+^_0.71_Zn_0.28_)Mn^3+^_2.00_O_4_
##PIN_ID=M01013
##ORIENTATION=Laser parallel to a* (1 0 0). Fiducial mark perpendicular to laser is parallel to c [0 0 1]
127.4030, 2969.000
128.6310, 2907.000
129.8580, 2916.000
131.0850, 2862.000
132.3120, 2789.000
133.5390, 2726.000
134.7660, 2719.000
135.9930, 2744.000
137.2200, 2736.000
138.4460, 2873.000
139.6720, 2793.000
140.8980, 2790.000
142.1240, 2726.000
143.3500, 2656.000
144.5760, 2697.000
145.8020, 2749.000
147.0270, 2749.000
148.2520, 2654.000
149.4780, 2625.000
150.7030, 2571.000
151.9270, 2611.000
153.1520, 2566.000
154.3770, 2594.000
155.6010, 2591.000
156.8260, 2617.000
158.0500, 2572.761
159.2740, 2621.870
160.4980, 2647.397
161.7210, 2650.615
162.9450, 2564.684
164.1690, 2593.865
165.3920, 2576.918
166.6150, 2558.080
167.8380, 2603.467
169.0610, 2610.000
170.2840, 2581.381
171.5070, 2608.529
172.7290, 2559.925
173.9510, 2610.246
175.1740, 2636.983
176.3960, 2641.410
177.6180, 2556.691
178.8390, 2587.088
180.0610, 2571.350
181.2830, 2553.720
182.5040, 2600.319
183.7250, 2528.569
184.9460, 2574.149
186.1670, 2572.894
187.3880, 2593.073
188.6090, 2566.836
189.8290, 2601.000
191.0500, 2467.000
192.2700, 2577.000
193.4900, 2583.000
194.7100, 2560.000
195.9300, 2492.000
197.1490, 2492.000
198.3690, 2460.000
199.5880, 2489.000
200.8080, 2436.000
202.0270, 2453.000
203.2460, 2414.000
204.4650, 2411.000
205.6830, 2501.000
206.9020, 2370.000
208.1200, 2402.000
209.3380, 2486.000
210.5570, 2335.000
211.7750, 2458.000
212.9920, 2316.000
214.2100, 2352.000
215.4280, 2362.000
216.6450, 2258.000
217.8620, 2392.000
219.0790, 2313.000
220.2960, 2292.000
221.5130, 2274.000
222.7300, 2265.000
223.9460, 2239.000
225.1630, 2216.000
226.3790, 2211.000
227.5950, 2201.000
228.8110, 2189.000
230.0270, 2200.000
231.2430, 2197.000
232.4580, 2230.000
233.6740, 2188.000
234.8890, 2228.000
236.1040, 2187.000
237.3190, 2180.000
238.5340, 2149.000
239.7490, 2138.735
240.9630, 2204.000
242.1780, 2142.000
243.3920, 2183.000
244.6060, 2231.000
245.8200, 2188.000
247.0340, 2253.000
248.2470, 2269.000
249.4610, 2293.000
250.6740, 2303.000
251.8880, 2306.000
253.1010, 2343.000
254.3140, 2302.000
255.5270, 2359.000
256.7390, 2267.000
257.9520, 2250.000
259.1640, 2215.000
260.3760, 2276.000
261.5880, 2221.000
262.8000, 2302.000
264.0120, 2224.000
265.2240, 2293.000
266.4350, 2310.000
267.6470, 2295.000
268.8580, 2357.000
270.0690, 2352.000
271.2800, 2408.000
272.4910, 2415.000
273.7020, 2413.182
274.9120, 2369.000
276.1230, 2389.000
277.3330, 2396.000
278.5430, 2363.000
279.7530, 2463.000
280.9630, 2448.000
282.1720, 2468.000
283.3820, 2529.000
284.5910, 2538.000
285.8000, 2612.000
287.0090, 2618.000
288.2180, 2767.000
289.4270, 2726.094
290.6360, 2785.329
291.8440, 2724.000
293.0530, 2796.000
294.2610, 2869.000
295.4690, 2793.000
296.6770, 2749.000
297.8850, 2761.000
299.0920, 2676.000
300.3000, 2712.000
301.5070, 2846.000
302.7140, 2800.000
303.9210, 2881.000
305.1280, 2887.000
306.3350, 2990.000
307.5420, 3181.000
308.7480, 3298.000
309.9540, 3375.000
311.1600, 3500.000
312.3660, 3565.000
313.5720, 3719.000
314.7780, 3859.000
315.9840, 4038.000
317.1890, 4116.000
318.3940, 4098.000
319.6000, 4102.000
320.8050, 4184.000
322.0090, 4077.000
323.2140, 4019.000
324.4190, 3821.000
325.6230, 3760.000
326.8270, 3544.000
328.0320, 3430.000
329.2360, 3283.000
330.4390, 3187.000
331.6430, 3039.000
332.8470, 3007.000
334.0500, 2913.000
335.2530, 2764.000
336.4560, 2735.000
337.6590, 2726.000
338.8620, 2728.000
340.0650, 2687.000
341.2670, 2619.000
342.4700, 2546.000
343.6720, 2575.000
344.8740, 2626.000
346.0760, 2608.000
347.2780, 2575.000
348.4790, 2520.000
349.6810, 2624.000
350.8820, 2579.000
352.0830, 2564.000
353.2840, 2544.000
354.4850, 2551.637
355.6860, 2567.000
356.8870, 2598.000
358.0870, 2598.000
359.2870, 2639.000
360.4880, 2644.664
361.6880, 2689.000
362.8870, 2678.000
364.0870, 2673.000
365.2870, 2711.625
366.4860, 2802.000
367.6850, 2765.000
368.8850, 2859.000
370.0840, 2789.000
371.2820, 2785.000
372.4810, 2880.000
373.6800, 2859.000
374.8780, 2876.000
376.0760, 2832.000
377.2740, 2826.000
378.4720, 2681.000
379.6700, 2756.000
380.8680, 2688.000
382.0650, 2710.000
383.2630, 2605.000
384.4600, 2514.000
385.6570, 2594.000
386.8540, 2518.000
388.0510, 2532.000
389.2470, 2520.000
390.4440, 2508.000
391.6400, 2514.000
392.8360, 2409.000
394.0320, 2438.000
395.2280, 2408.000
396.4240, 2450.000
397.6190, 2357.000
398.8150, 2331.000
400.0100, 2351.000
401.2050, 2307.000
402.4000, 2343.000
403.5950, 2315.480
404.7900, 2312.442
405.9840, 2292.000
407.1790, 2281.000
408.3730, 2293.000
409.5670, 2232.000
410.7610, 2311.000
411.9550, 2251.000
413.1480, 2271.000
414.3420, 2269.000
415.5350, 2249.000
416.7280, 2260.000
417.9220, 2226.000
419.1140, 2252.000
420.3070, 2258.000
421.5000, 2215.000
422.6920, 2192.000
423.8850, 2241.000
425.0770, 2175.000
426.2690, 2215.732
427.4610, 2225.392
428.6520, 2262.000
429.8440, 2251.000
431.0350, 2280.000
432.2260, 2261.000
433.4180, 2264.000
434.6090, 2298.000
435.7990, 2302.000
436.9900, 2300.000
438.1800, 2320.000
439.3710, 2293.000
440.5610, 2330.000
441.7510, 2328.825
442.9410, 2371.000
444.1310, 2339.000
445.3200, 2366.000
446.5100, 2351.000
447.6990, 2400.000
448.8880, 2340.000
450.0770, 2394.000
451.2660, 2492.000
452.4550, 2423.057
453.6430, 2459.794
454.8320, 2413.000
456.0200, 2420.000
457.2080, 2526.000
458.3960, 2509.000
459.5840, 2582.000
460.7720, 2634.000
461.9590, 2619.000
463.1460, 2673.000
464.3340, 2698.000
465.5210, 2631.000
466.7080, 2722.000
467.8940, 2773.000
469.0810, 2753.000
470.2670, 2729.000
471.4540, 2754.000
472.6400, 2781.044
473.8260, 2793.000
475.0120, 2870.000
476.1970, 2926.000
477.3830, 2946.000
478.5680, 2870.000
479.7540, 2857.000
480.9390, 2982.000
482.1240, 2914.000
483.3080, 3020.000
484.4930, 2903.000
485.6780, 2947.000
486.8620, 2990.000
488.0460, 2831.000
489.2300, 2887.000
490.4140, 2899.000
491.5980, 2941.000
492.7810, 2927.000
493.9650, 2932.000
495.1480, 2937.000
496.3310, 2942.328
497.5140, 2943.000
498.6970, 2974.000
499.8800, 3015.000
501.0620, 3051.000
502.2440, 3057.000
503.4270, 2984.000
504.6090, 3083.000
505.7910, 3029.000
506.9720, 3058.000
508.1540, 3166.000
509.3350, 3195.000
510.5170, 3207.525
511.6980, 3213.000
512.8790, 3196.000
514.0600, 3191.386
515.2400, 3176.548
516.4210, 3159.000
517.6010, 3150.000
518.7810, 3136.000
519.9620, 3141.000
521.1410, 3164.000
522.3210, 3182.000
523.5010, 3111.000
524.6800, 3068.000
525.8600, 3092.000
527.0390, 3091.000
528.2180, 3078.000
529.3970, 3026.000
530.5750, 3007.000
531.7540, 3002.822
532.9320, 2994.000
534.1110, 3005.000
535.2890, 3005.000
536.4670, 3006.000
537.6440, 3079.000
538.8220, 3069.000
540.0000, 3106.457
541.1770, 3116.648
542.3540, 3135.000
543.5310, 3114.000
544.7080, 3073.000
545.8850, 3051.000
547.0610, 3118.000
548.2380, 3055.000
549.4140, 3053.000
550.5900, 3201.000
551.7660, 3187.000
552.9420, 3175.000
554.1170, 3247.000
555.2930, 3323.000
556.4680, 3297.000
557.6430, 3359.000
558.8180, 3471.000
559.9930, 3464.000
561.1680, 3562.000
562.3430, 3603.000
563.5170, 3608.000
564.6910, 3657.000
565.8650, 3724.031
567.0390, 3809.000
568.2130, 3883.000
569.3870, 3964.000
570.5600, 4018.714
571.7340, 4093.725
572.9070, 4148.544
574.0800, 4184.003
575.2530, 4158.331
576.4250, 4199.174
577.5980, 4205.790
578.7700, 4205.802
579.9430, 4240.550
581.1150, 4195.919
582.2870, 4219.214
583.4590, 4207.830
584.6300, 4204.455
585.8020, 4166.651
586.9730, 4132.427
588.1440, 4121.829
589.3150, 4089.763
590.4860, 4027.050
591.6570, 3992.144
592.8270, 3892.567
593.9980, 3947.000
595.1680, 3873.000
596.3380, 3915.000
597.5080, 3866.585
598.6780, 3712.000
599.8480, 3810.000
601.0170, 3760.000
602.1860, 3785.000
603.3550, 3761.000
604.5240, 3728.000
605.6930, 3827.000
606.8620, 3847.000
608.0310, 3837.000
609.1990, 3824.000
610.3670, 3904.000
611.5350, 3870.000
612.7030, 3992.000
613.8710, 3944.000
615.0390, 4058.000
616.2060, 4096.000
617.3730, 4186.000
618.5410, 4158.000
619.7080, 4240.000
620.8740, 4286.482
622.0410, 4437.000
623.2080, 4424.000
624.3740, 4518.000
625.5400, 4639.000
626.7060, 4652.000
627.8720, 4775.000
629.0380, 4844.000
630.2040, 4941.000
631.3690, 5093.000
632.5340, 5139.000
633.6990, 5153.000
634.8640, 5326.000
636.0290, 5434.000
637.1940, 5520.000
638.3580, 5735.000
639.5230, 5842.000
640.6870, 6005.000
641.8510, 6097.000
643.0150, 6432.000
644.1790, 6559.000
645.3420, 6806.000
646.5060, 7137.000
647.6690, 7495.000
648.8320, 7920.000
649.9950, 8295.000
651.1580, 8738.000
652.3200, 9227.646
653.4830, 9856.000
654.6450, 10307.00
655.8070, 10898.00
656.9690, 11560.00
658.1310, 11958.00
659.2930, 12471.00
660.4540, 12888.00
661.6160, 13052.00
662.7770, 13105.00
663.9380, 13084.00
665.0990, 12828.00
666.2600, 12412.00
667.4200, 11858.00
668.5810, 11188.00
669.7410, 10597.45
670.9010, 10113.00
672.0610, 9243.000
673.2210, 8675.000
674.3810, 8037.000
675.5400, 7508.000
676.6990, 7068.000
677.8590, 6622.000
679.0180, 6078.000
680.1760, 5850.000
681.3350, 5400.000
682.4940, 5159.000
683.6520, 4927.000
684.8100, 4635.000
685.9680, 4466.000
687.1260, 4312.000
688.2840, 4182.000
689.4420, 4088.000
690.5990, 3875.000
691.7560, 3797.000
692.9140, 3665.000
694.0710, 3650.000
695.2270, 3505.000
696.3840, 3518.000
697.5410, 3483.000
698.6970, 3372.000
699.8530, 3340.000
701.0090, 3264.000
702.1650, 3313.000
703.3210, 3213.000
704.4760, 3144.000
705.6320, 3154.000
706.7870, 3036.000
707.9420, 3019.000
709.0970, 2983.000
710.2520, 2938.000
711.4060, 2927.000
712.5610, 2943.000
713.7150, 2928.000
714.8690, 2833.864
716.0230, 2876.698
717.1770, 2895.952
718.3310, 2892.892
719.4840, 2800.696
720.6380, 2823.604
721.7910, 2800.388
722.9440, 2775.282
724.0970, 2814.400
725.2490, 2814.000
726.4020, 2718.000
727.5540, 2683.000
728.7070, 2760.000
729.8590, 2709.000
731.0110, 2721.000
732.1620, 2663.000
733.3140, 2616.000
734.4650, 2721.000
735.6170, 2681.000
736.7680, 2671.000
737.9190, 2641.000
739.0700, 2647.000
740.2200, 2627.000
741.3710, 2635.000
742.5210, 2632.659
743.6710, 2618.000
744.8210, 2632.000
745.9710, 2652.000
747.1210, 2645.000
748.2700, 2598.000
749.4200, 2611.000
750.5690, 2576.000
751.7180, 2569.000
752.8670, 2565.000
754.0160, 2518.000
755.1640, 2502.000
756.3130, 2565.000
757.4610, 2579.000
758.6090, 2539.000
759.7570, 2504.000
760.9050, 2487.000
762.0530, 2485.000
763.2000, 2453.626
764.3470, 2404.954
765.4940, 2429.211
766.6410, 2438.730
767.7880, 2434.303
768.9350, 2374.161
770.0810, 2385.972
771.2280, 2368.942
772.3740, 2350.738
773.5200, 2372.675
774.6660, 2320.645
775.8120, 2341.945
776.9570, 2364.000
778.1030, 2343.000
779.2480, 2316.000
780.3930, 2307.000
781.5380, 2347.000
782.6830, 2244.000
783.8270, 2307.000
784.9720, 2305.000
786.1160, 2246.000
787.2600, 2241.000
788.4040, 2298.000
789.5480, 2254.000
790.6910, 2237.000
791.8350, 2212.000
792.9780, 2248.000
794.1210, 2193.000
795.2640, 2278.000
796.4070, 2191.000
797.5500, 2172.000
798.6920, 2180.000
799.8350, 2208.000
800.9770, 2222.000
802.1190, 2196.000
803.2610, 2171.000
804.4030, 2180.000
805.5440, 2126.000
806.6850, 2180.000
807.8270, 2122.000
808.9680, 2180.000
810.1090, 2169.000
811.2490, 2157.000
812.3900, 2130.000
813.5300, 2144.000
814.6710, 2166.000
815.8110, 2178.000
816.9510, 2161.000
818.0910, 2150.000
819.2300, 2117.000
820.3700, 2105.000
821.5090, 2142.200
822.6480, 2132.683
823.7870, 2226.000
824.9260, 2141.000
826.0640, 2152.000
827.2030, 2105.000
828.3410, 2057.000
829.4790, 2066.000
830.6170, 2114.000
831.7550, 2051.000
832.8930, 2118.000
834.0310, 2094.000
835.1680, 2137.000
836.3050, 2107.000
837.4420, 2163.000
838.5790, 2102.000
839.7160, 2068.000
840.8520, 2130.000
841.9890, 2065.000
843.1250, 2077.000
844.2610, 2089.000
845.3970, 2039.000
846.5330, 2136.000
847.6680, 2084.000
848.8040, 2075.000
849.9390, 2030.817
851.0740, 2082.923
852.2090, 2111.448
853.3440, 2117.659
854.4780, 2034.726
855.6130, 2066.905
856.7470, 2052.953
857.8810, 2037.110
859.0150, 2085.492
860.1490, 2106.000
861.2830, 1948.193
862.4160, 2017.117
863.5490, 2115.000
864.6830, 2058.000
865.8160, 2102.000
866.9480, 2078.000
868.0810, 2079.000
869.2140, 2095.000
870.3460, 2079.000
871.4780, 2053.000
872.6100, 2073.000
873.7420, 2101.000
874.8740, 2050.000
876.0050, 2054.000
877.1370, 2110.000
878.2680, 2080.000
879.3990, 2074.000
880.5300, 2119.000
881.6600, 2156.000
882.7910, 2154.000
883.9210, 2134.000
885.0520, 2165.000
886.1820, 2158.000
887.3120, 2149.000
888.4410, 2160.000
889.5710, 2172.000
890.7000, 2145.000
891.8300, 2064.000
892.9590, 2163.000
894.0880, 2081.000
895.2160, 2124.000
896.3450, 2168.000
897.4730, 2134.000
898.6020, 2117.000
899.7300, 2146.000
900.8580, 2164.000
901.9860, 2218.000
903.1130, 2171.000
904.2410, 2147.000
905.3680, 2168.000
906.4950, 2129.000
907.6220, 2201.000
908.7490, 2181.000
909.8760, 2199.000
911.0020, 2131.000
912.1280, 2152.570
913.2550, 2185.000
914.3810, 2164.000
915.5060, 2156.000
916.6320, 2173.000
917.7580, 2149.620
918.8830, 2202.000
920.0080, 2149.000
921.1330, 2177.000
922.2580, 2229.000
923.3830, 2208.000
924.5070, 2215.000
925.6310, 2212.000
926.7560, 2199.469
927.8800, 2164.000
929.0040, 2172.000
930.1270, 2227.000
931.2510, 2200.000
932.3740, 2188.000
933.4970, 2198.546
934.6200, 2184.970
935.7430, 2202.000
936.8660, 2185.000
937.9890, 2221.000
939.1110, 2226.000
940.2330, 2227.000
941.3550, 2224.346
942.4770, 2213.000
943.5990, 2198.000
944.7200, 2212.000
945.8420, 2211.000
946.9630, 2215.030
948.0840, 2194.282
949.2050, 2230.000
950.3260, 2177.000
951.4460, 2182.000
952.5670, 2252.000
953.6870, 2255.000
954.8070, 2202.000
955.9270, 2294.000
957.0470, 2256.000
958.1660, 2252.000
959.2860, 2281.000
960.4050, 2279.000
961.5240, 2260.000
962.6430, 2293.000
963.7620, 2293.000
964.8810, 2273.000
965.9990, 2233.000
967.1170, 2248.000
968.2350, 2239.000
969.3530, 2261.000
970.4710, 2276.000
971.5890, 2287.000
972.7060, 2342.000
973.8240, 2353.916
974.9410, 2362.401
976.0580, 2375.000
977.1740, 2353.000
978.2910, 2289.000
979.4080, 2253.000
980.5240, 2298.000
981.6400, 2294.000
982.7560, 2320.000
983.8720, 2303.000
984.9870, 2346.000
986.1030, 2327.000
987.2180, 2292.000
988.3330, 2279.000
989.4480, 2345.000
990.5630, 2264.000
991.6780, 2364.000
992.7920, 2320.000
993.9070, 2321.000
995.0210, 2371.000
996.1350, 2339.000
997.2490, 2400.000
998.3620, 2322.000
999.4760, 2375.000
1000.589, 2297.000
1001.702, 2318.000
1002.815, 2277.000
1003.928, 2316.000
1005.041, 2293.000
1006.153, 2317.000
1007.266, 2293.000
1008.378, 2265.000
1009.490, 2270.000
1010.602, 2271.000
1011.713, 2268.000
1012.825, 2219.000
1013.936, 2287.000
1015.047, 2206.000
1016.158, 2286.000
1017.269, 2212.000
1018.380, 2233.000
1019.490, 2246.000
1020.601, 2247.000
1021.711, 2220.000
1022.821, 2317.000
1023.931, 2265.000
1025.040, 2351.000
1026.150, 2336.575
1027.259, 2241.000
1028.368, 2329.000
1029.477, 2233.000
1030.586, 2241.000
1031.695, 2276.000
1032.803, 2242.000
1033.912, 2269.000
1035.020, 2273.000
1036.128, 2251.000
1037.236, 2292.000
1038.343, 2274.000
1039.451, 2276.396
1040.558, 2289.000
1041.665, 2280.000
1042.772, 2290.710
1043.879, 2278.000
1044.986, 2298.000
1046.093, 2303.000
1047.199, 2297.000
1048.305, 2238.000
1049.411, 2334.000
1050.517, 2324.000
1051.623, 2358.000
1052.728, 2299.000
1053.833, 2329.000
1054.939, 2346.000
1056.044, 2314.000
1057.148, 2342.000
1058.253, 2338.000
1059.358, 2294.000
1060.462, 2389.000
1061.566, 2345.567
1062.670, 2353.000
1063.774, 2340.000
1064.878, 2337.000
1065.981, 2345.000
1067.085, 2328.000
1068.188, 2343.000
1069.291, 2352.000
1070.394, 2323.000
1071.496, 2280.000
1072.599, 2336.000
1073.701, 2357.000
1074.803, 2307.000
1075.905, 2328.000
1077.007, 2315.000
1078.109, 2369.000
1079.210, 2326.000
1080.312, 2316.000
1081.413, 2410.000
1082.514, 2315.000
1083.615, 2278.000
1084.715, 2391.000
1085.816, 2454.000
1086.916, 2357.000
1088.016, 2298.000
1089.116, 2358.000
1090.216, 2397.000
1091.316, 2323.000
1092.415, 2352.000
1093.515, 2363.000
1094.614, 2381.000
1095.713, 2398.000
1096.812, 2389.000
1097.910, 2430.000
1099.009, 2392.340
1100.107, 2395.051
1101.205, 2342.000
1102.303, 2373.000
1103.401, 2380.000
1104.499, 2386.000
1105.596, 2351.000
1106.693, 2372.000
1107.791, 2383.000
1108.888, 2413.000
1109.984, 2380.000
1111.081, 2399.000
1112.177, 2367.000
1113.274, 2400.000
1114.370, 2396.969
1115.466, 2403.000
1116.562, 2416.000
1117.657, 2396.000
1118.753, 2411.000
1119.848, 2410.774
1120.943, 2410.104
1122.038, 2426.000
1123.133, 2429.000
1124.228, 2451.000
1125.322, 2488.000
1126.416, 2476.000
1127.510, 2534.000
1128.604, 2379.000
1129.698, 2479.000
1130.792, 2462.000
1131.885, 2499.000
1132.978, 2537.000
1134.071, 2461.000
1135.164, 2479.000
1136.257, 2475.000
1137.350, 2465.000
1138.442, 2484.000
1139.534, 2521.000
1140.627, 2516.000
1141.718, 2511.000
1142.810, 2505.196
1143.902, 2517.948
1144.993, 2471.000
1146.084, 2535.000
1147.176, 2537.000
1148.266, 2518.000
1149.357, 2480.000
1150.448, 2561.000
1151.538, 2561.000
1152.628, 2534.000
1153.718, 2523.000
1154.808, 2514.000
1155.898, 2506.389
1156.988, 2500.904
1158.077, 2514.000
1159.166, 2491.000
1160.255, 2514.000
1161.344, 2506.636
1162.433, 2506.676
1163.521, 2473.000
1164.610, 2521.000
1165.698, 2480.000
1166.786, 2509.000
1167.874, 2448.000
1168.961, 2521.000
1170.049, 2510.000
1171.136, 2485.000
1172.224, 2459.000
1173.311, 2494.000
1174.397, 2453.000
1175.484, 2431.000
1176.571, 2468.000
1177.657, 2489.000
1178.743, 2508.000
1179.829, 2485.000
1180.915, 2493.000
1182.001, 2523.000
1183.086, 2432.000
1184.171, 2442.000
1185.256, 2437.000
1186.341, 2472.000
1187.426, 2442.000
1188.511, 2516.000
1189.595, 2492.588
1190.680, 2491.837
1191.764, 2464.000
1192.848, 2492.000
1193.932, 2444.000
1195.015, 2491.000
1196.099, 2509.000
1197.182, 2467.000
1198.265, 2442.000
1199.348, 2477.000
1200.431, 2467.000
1201.513, 2454.000
1202.596, 2444.000
1203.678, 2517.000
1204.760, 2450.000
1205.842, 2454.000
1206.924, 2502.000
1208.005, 2448.000
1209.087, 2507.000
1210.168, 2473.000
1211.249, 2467.000
1212.330, 2462.352
1213.411, 2455.820
1214.491, 2443.000
1215.572, 2442.000
1216.652, 2485.000
1217.732, 2438.000
1218.812, 2451.000
1219.891, 2519.000
1220.971, 2480.000
1222.050, 2443.000
1223.129, 2482.000
1224.208, 2492.000
1225.287, 2475.000
1226.366, 2472.000
1227.444, 2522.000
1228.523, 2486.000
1229.601, 2498.000
1230.679, 2524.000
1231.757, 2435.000
1232.834, 2529.000
1233.912, 2437.000
1234.989, 2505.000
1236.066, 2478.000
1237.143, 2448.000
1238.220, 2485.000
1239.297, 2475.000
1240.373, 2475.000
1241.449, 2491.000
1242.526, 2444.000
1243.601, 2553.000
1244.677, 2393.000
1245.753, 2484.000
1246.828, 2521.000
1247.904, 2495.000
1248.979, 2445.000
1250.054, 2517.000
1251.128, 2524.000
1252.203, 2512.000
1253.277, 2508.000
1254.351, 2536.000
1255.426, 2532.000
1256.499, 2505.000
1257.573, 2517.000
1258.647, 2493.000
1259.720, 2517.000
1260.793, 2452.000
1261.866, 2460.000
1262.939, 2509.000
1264.012, 2524.000
1265.084, 2474.000
1266.157, 2553.000
1267.229, 2499.000
1268.301, 2540.000
1269.373, 2504.000
1270.444, 2482.000
1271.516, 2475.000
1272.587, 2516.000
1273.658, 2513.000
1274.729, 2507.000
1275.800, 2518.000
1276.871, 2473.000
1277.941, 2539.000
1279.011, 2542.000
1280.082, 2606.000
1281.151, 2555.000
1282.221, 2598.000
1283.291, 2556.000
1284.360, 2517.000
1285.430, 2547.000
1286.499, 2542.000
1287.568, 2575.000
1288.636, 2514.000
1289.705, 2503.000
1290.773, 2528.240
1291.841, 2501.952
1292.909, 2575.000
1293.977, 2520.000
1295.045, 2537.000
1296.113, 2578.000
1297.180, 2552.000
1298.247, 2588.000
1299.314, 2526.000
1300.381, 2558.000
1301.448, 2574.000
1302.514, 2511.000
1303.580, 2578.000
1304.647, 2597.000
1305.713, 2568.000
1306.778, 2551.000
1307.844, 2538.000
1308.910, 2465.000
1309.975, 2500.000
1311.040, 2487.000
1312.105, 2469.000
1313.170, 2573.000
1314.234, 2453.000
1315.299, 2546.000
1316.363, 2512.000
1317.427, 2486.000
1318.491, 2448.000
1319.555, 2421.000
1320.618, 2401.000
1321.682, 2437.000
1322.745, 2440.000
1323.808, 2419.000
1324.871, 2533.000
1325.933, 2467.000
1326.996, 2451.000
1328.058, 2354.000
1329.121, 2358.364
1330.183, 2337.000
1331.244, 2361.000
1332.306, 2352.000
1333.368, 2386.000
1334.429, 2360.000
1335.490, 2387.000
1336.551, 2359.000
1337.612, 2401.000
1338.672, 2317.000
1339.733, 2369.000
1340.793, 2278.000
1341.853, 2311.000
1342.913, 2312.000
1343.973, 2340.000
1345.033, 2343.000
1346.092, 2276.000
1347.151, 2339.000
1348.210, 2302.000
1349.269, 2317.000
1350.328, 2371.000
1351.386, 2329.000
1352.445, 2353.000
1353.503, 2262.000
1354.561, 2301.000
1355.619, 2259.000
1356.677, 2207.000
1357.734, 2287.000
1358.791, 2240.000
1359.849, 2265.000
1360.906, 2240.000
1361.962, 2276.000
1363.019, 2293.000
1364.075, 2222.000
1365.132, 2303.000
1366.188, 2252.000
1367.244, 2305.000
1368.300, 2212.000
1369.355, 2295.000
1370.411, 2265.000
1371.466, 2256.000
1372.521, 2246.000
1373.576, 2201.000
1374.631, 2266.000
1375.685, 2182.000
1376.740, 2262.000
1377.794, 2186.000
1378.848, 2212.000
1379.902, 2222.000
1380.955, 2179.000
1382.009, 2140.000
1383.062, 2222.000
1384.115, 2211.000
1385.168, 2197.000
1386.221, 2163.000
1387.274, 2198.000
1388.326, 2173.000
1389.379, 2258.000
1390.431, 2208.000
1391.483, 2124.000
1392.534, 2174.000
1393.586, 2262.000
1394.637, 2179.000
1395.689, 2195.000
1396.740, 2116.000
1397.791, 2133.747
1398.841, 2120.248
1399.892, 2182.000
1400.942, 2130.000
1401.993, 2184.000
1403.043, 2219.000
1404.092, 2138.000
1405.142, 2141.000
1406.192, 2186.000
1407.241, 2167.000
1408.290, 2141.000
1409.339, 2109.000
1410.388, 2107.841
1411.437, 2091.426
1412.485, 2104.000
1413.533, 2094.000
1414.581, 2094.221
1415.629, 2123.000
1416.677, 2118.000
1417.725, 2114.000
1418.772, 2120.000
1419.819, 2106.000
1420.867, 2110.348
1421.913, 2110.501
1422.960, 2104.000
1424.007, 2105.000
1425.053, 2088.000
1426.099, 2092.030
1427.145, 2091.000
1428.191, 2098.000
1429.237, 2102.000
1430.282, 2117.000
1431.328, 2174.000
1432.373, 2069.000
1433.418, 2046.000
1434.462, 2054.000
1435.507, 2085.000
1436.552, 2141.000
1437.596, 2081.000
1438.640, 2065.000
1439.684, 2128.000
1440.728, 2074.000
1441.771, 2101.000
1442.815, 2068.000
1443.858, 2125.000
1444.901, 2111.000
1445.944, 2074.000
1446.986, 2152.000
1448.029, 2107.000
1449.071, 2086.000
1450.113, 2117.000
1451.155, 2101.000
1452.197, 2098.000
1453.239, 2119.000
1454.280, 2123.000
1455.322, 2084.000
1456.363, 2104.000
1457.404, 2126.000
1458.444, 2125.000
1459.485, 2049.000
1460.525, 2060.000
1461.566, 2076.000
1462.606, 2128.000
1463.646, 2090.000
1464.685, 2087.000
1465.725, 2083.000
1466.764, 2117.000
1467.803, 2098.000
1468.842, 2132.000
1469.881, 2100.000
1470.920, 2107.000
1471.958, 2060.000
1472.997, 2122.000
1474.035, 2164.000
1475.073, 2114.000
1476.111, 2134.000
1477.148, 2099.000
1478.186, 2053.000
1479.223, 2097.000
1480.260, 2127.000
1481.297, 2126.000
1482.334, 2097.000
1483.370, 2096.000
1484.407, 2081.000
1485.443, 2082.000
1486.479, 2111.000
1487.515, 2015.000
1488.550, 2116.000
1489.586, 2041.000
1490.621, 2120.000
1491.656, 2194.000
1492.691, 2095.000
1493.726, 2062.000
1494.761, 2117.000
1495.795, 2058.000
1496.829, 2055.000
1497.863, 2040.000
1498.897, 2107.000
1499.931, 2124.000
1500.965, 2129.000
1501.998, 2094.000
1503.031, 2113.000
1504.064, 2108.000
1505.097, 2105.000
1506.130, 2068.000
1507.162, 2059.000
1508.195, 2053.836
1509.227, 2035.797
1510.259, 2064.000
1511.291, 2028.000
1512.322, 2061.000
1513.354, 2080.000
1514.385, 2091.000
1515.416, 2087.000
1516.447, 2087.000
1517.478, 2087.681
1518.508, 2088.150
1519.539, 2075.000
1520.569, 2095.000
1521.599, 2073.000
1522.629, 2080.000
1523.658, 2104.000
1524.688, 2106.000
1525.717, 2118.000
1526.746, 2078.000
1527.775, 2102.000
1528.804, 2089.000
1529.833, 2121.000
1530.861, 2108.236
1531.890, 2041.000
1532.918, 2098.000
1533.946, 2054.000
1534.973, 2060.000
1536.001, 2082.000
1537.028, 2064.000
1538.055, 2058.000
1539.082, 2042.000
1540.109, 2092.000
1541.136, 2116.000
1542.163, 2065.000
1543.189, 2103.000
1544.215, 2027.562
1545.241, 2079.978
1546.267, 2108.812
1547.292, 2115.335
1548.318, 2032.711
1549.343, 2065.200
1550.368, 2051.558
1551.393, 2036.025
1552.418, 2084.716
1553.442, 2015.061
1554.467, 2062.734
1555.491, 2063.572
1556.515, 2085.846
1557.539, 2061.704
1558.562, 2051.899
1559.586, 2080.000
1560.609, 2074.000
1561.632, 2095.000
1562.655, 2063.000
1563.678, 2041.000
1564.701, 2063.000
1565.723, 2051.654
1566.745, 2064.000
1567.768, 2066.000
1568.789, 2091.000
1569.811, 2089.000
1570.833, 2088.000
1571.854, 2128.000
1572.875, 2049.000
1573.896, 2081.000
1574.917, 2103.000
1575.938, 2138.000
1576.958, 2106.000
##END=



