##NAMES=Hausmannite
##RRUFFID=R040090
##IDEAL CHEMISTRY=Mn^2+^Mn^3+^_2_O_4_
##LOCALITY=Ã–hrenstock, Ilmenau, near Thuringia, Germany
##OWNER=RRUFF
##SOURCE=University of Arizona Mineral Museum
##DESCRIPTION=Mass of black octahedral crystals
##STATUS=The identification of this mineral has been confirmed by X-ray diffraction and chemical analysis
##URL=rruff.info/R040090
##MEASURED CHEMISTRY=(Mn^2+^_0.71_Zn_0.28_)Mn^3+^_2.00_O_4_
##PIN_ID=M01013
##ORIENTATION=Laser parallel to a* (1 0 0). Fiducial mark perpendicular to laser is parallel to c [0 0 1]
127.4030, 3734.000
128.6310, 3787.000
129.8580, 3707.000
131.0850, 3778.000
132.3120, 3702.000
133.5390, 3612.000
134.7660, 3585.000
135.9930, 3613.000
137.2200, 3622.000
138.4460, 3589.660
139.6720, 3577.759
140.8980, 3528.000
142.1240, 3512.000
143.3500, 3473.000
144.5760, 3454.000
145.8020, 3492.000
147.0270, 3546.000
148.2520, 3408.000
149.4780, 3329.000
150.7030, 3281.000
151.9270, 3309.000
153.1520, 3327.000
154.3770, 3309.324
155.6010, 3316.038
156.8260, 3303.000
158.0500, 3300.000
159.2740, 3291.000
160.4980, 3270.177
161.7210, 3305.848
162.9450, 3326.782
164.1690, 3333.770
165.3920, 3285.041
166.6150, 3308.257
167.8380, 3362.000
169.0610, 3309.000
170.2840, 3327.000
171.5070, 3326.000
172.7290, 3387.000
173.9510, 3365.000
175.1740, 3370.000
176.3960, 3424.000
177.6180, 3412.000
178.8390, 3388.000
180.0610, 3403.000
181.2830, 3350.000
182.5040, 3305.000
183.7250, 3374.000
184.9460, 3374.000
186.1670, 3315.000
187.3880, 3263.000
188.6090, 3222.000
189.8290, 3236.000
191.0500, 3157.000
192.2700, 3164.000
193.4900, 3186.000
194.7100, 3153.000
195.9300, 3177.323
197.1490, 3175.000
198.3690, 3186.000
199.5880, 3193.213
200.8080, 3176.270
202.0270, 3187.000
203.2460, 3136.000
204.4650, 3139.883
205.6830, 3104.000
206.9020, 3114.000
208.1200, 3103.000
209.3380, 3080.000
210.5570, 3090.000
211.7750, 3009.000
212.9920, 3043.000
214.2100, 2976.000
215.4280, 3000.000
216.6450, 2978.000
217.8620, 2968.000
219.0790, 2969.000
220.2960, 2944.000
221.5130, 2979.000
222.7300, 2972.000
223.9460, 2977.000
225.1630, 2958.000
226.3790, 2919.000
227.5950, 2892.000
228.8110, 2948.000
230.0270, 2904.000
231.2430, 2893.000
232.4580, 2858.000
233.6740, 2858.000
234.8890, 2869.000
236.1040, 2813.000
237.3190, 2792.000
238.5340, 2865.000
239.7490, 2829.000
240.9630, 2872.000
242.1780, 2842.000
243.3920, 2860.000
244.6060, 2877.000
245.8200, 2866.000
247.0340, 2821.000
248.2470, 2796.000
249.4610, 2843.912
250.6740, 2871.414
251.8880, 2884.172
253.1010, 2882.989
254.3140, 2826.090
255.5270, 2841.137
256.7390, 2827.356
257.9520, 2854.000
259.1640, 2780.000
260.3760, 2853.000
261.5880, 2773.000
262.8000, 2842.000
264.0120, 2794.000
265.2240, 2813.000
266.4350, 2826.000
267.6470, 2786.000
268.8580, 2870.000
270.0690, 2881.000
271.2800, 2930.000
272.4910, 2932.000
273.7020, 2939.000
274.9120, 2898.000
276.1230, 2875.000
277.3330, 2847.000
278.5430, 2875.000
279.7530, 2968.000
280.9630, 2936.000
282.1720, 2975.000
283.3820, 2928.000
284.5910, 2962.000
285.8000, 3071.000
287.0090, 3010.000
288.2180, 3078.000
289.4270, 3083.000
290.6360, 3099.000
291.8440, 3117.000
293.0530, 3086.000
294.2610, 3106.976
295.4690, 3107.000
296.6770, 3102.000
297.8850, 3139.000
299.0920, 3112.000
300.3000, 3202.000
301.5070, 3213.000
302.7140, 3239.000
303.9210, 3202.000
305.1280, 3350.000
306.3350, 3447.000
307.5420, 3454.000
308.7480, 3570.000
309.9540, 3675.000
311.1600, 3853.000
312.3660, 3981.000
313.5720, 3988.000
314.7780, 4031.000
315.9840, 4219.000
317.1890, 4228.000
318.3940, 4355.000
319.6000, 4340.000
320.8050, 4285.000
322.0090, 4153.000
323.2140, 4076.000
324.4190, 4049.000
325.6230, 3886.000
326.8270, 3784.000
328.0320, 3709.000
329.2360, 3473.000
330.4390, 3488.000
331.6430, 3377.000
332.8470, 3281.000
334.0500, 3286.000
335.2530, 3214.000
336.4560, 3167.035
337.6590, 3178.000
338.8620, 3115.000
340.0650, 3082.000
341.2670, 3153.000
342.4700, 3089.000
343.6720, 3094.000
344.8740, 3113.000
346.0760, 3076.000
347.2780, 3069.000
348.4790, 3083.246
349.6810, 3130.000
350.8820, 3127.000
352.0830, 3150.000
353.2840, 3210.000
354.4850, 3208.000
355.6860, 3240.038
356.8870, 3275.024
358.0870, 3255.000
359.2870, 3357.000
360.4880, 3327.000
361.6880, 3403.000
362.8870, 3377.000
364.0870, 3478.000
365.2870, 3556.000
366.4860, 3641.000
367.6850, 3668.000
368.8850, 3669.000
370.0840, 3712.000
371.2820, 3714.000
372.4810, 3747.000
373.6800, 3834.000
374.8780, 3824.000
376.0760, 3750.000
377.2740, 3657.000
378.4720, 3691.000
379.6700, 3610.000
380.8680, 3640.000
382.0650, 3547.000
383.2630, 3476.000
384.4600, 3508.000
385.6570, 3429.000
386.8540, 3359.000
388.0510, 3234.000
389.2470, 3286.000
390.4440, 3208.991
391.6400, 3168.000
392.8360, 3169.000
394.0320, 3167.000
395.2280, 3165.000
396.4240, 3072.000
397.6190, 3087.000
398.8150, 3089.000
400.0100, 3009.000
401.2050, 3024.000
402.4000, 2956.000
403.5950, 2946.859
404.7900, 2887.000
405.9840, 2929.000
407.1790, 2918.000
408.3730, 2918.995
409.5670, 2913.000
410.7610, 2884.253
411.9550, 2911.000
413.1480, 2831.000
414.3420, 2841.000
415.5350, 2837.000
416.7280, 2731.000
417.9220, 2834.000
419.1140, 2771.000
420.3070, 2825.000
421.5000, 2848.000
422.6920, 2844.000
423.8850, 2818.000
425.0770, 2885.000
426.2690, 2883.000
427.4610, 2946.000
428.6520, 2894.000
429.8440, 2925.480
431.0350, 2871.000
432.2260, 2932.000
433.4180, 2880.000
434.6090, 2864.000
435.7990, 2971.000
436.9900, 2925.000
438.1800, 2985.000
439.3710, 3025.000
440.5610, 3048.000
441.7510, 3000.000
442.9410, 3079.000
444.1310, 3069.000
445.3200, 3103.000
446.5100, 3000.000
447.6990, 3108.000
448.8880, 3192.000
450.0770, 3056.000
451.2660, 3145.000
452.4550, 3172.000
453.6430, 3164.000
454.8320, 3191.498
456.0200, 3229.000
457.2080, 3181.000
458.3960, 3208.000
459.5840, 3209.000
460.7720, 3232.000
461.9590, 3295.000
463.1460, 3255.000
464.3340, 3321.000
465.5210, 3399.000
466.7080, 3466.000
467.8940, 3494.000
469.0810, 3497.000
470.2670, 3501.000
471.4540, 3529.000
472.6400, 3565.103
473.8260, 3607.076
475.0120, 3655.000
476.1970, 3693.000
477.3830, 3718.000
478.5680, 3708.000
479.7540, 3805.000
480.9390, 3819.000
482.1240, 3806.000
483.3080, 3766.000
484.4930, 3764.000
485.6780, 3835.000
486.8620, 3865.000
488.0460, 3858.000
489.2300, 3773.000
490.4140, 3874.000
491.5980, 3814.000
492.7810, 3829.000
493.9650, 3864.000
495.1480, 3856.000
496.3310, 3956.000
497.5140, 3910.000
498.6970, 3961.000
499.8800, 3941.000
501.0620, 4130.872
502.2440, 4224.344
503.4270, 4290.987
504.6090, 4331.510
505.7910, 4304.189
506.9720, 4336.681
508.1540, 4328.228
509.3350, 4306.479
510.5170, 4312.738
511.6980, 4232.938
512.8790, 4214.361
514.0600, 4154.406
515.2400, 4207.000
516.4210, 4193.000
517.6010, 3978.000
518.7810, 4052.000
519.9620, 4010.000
521.1410, 4060.000
522.3210, 3957.000
523.5010, 3942.000
524.6800, 3971.000
525.8600, 3844.000
527.0390, 3872.000
528.2180, 3921.000
529.3970, 3884.000
530.5750, 3898.000
531.7540, 3921.000
532.9320, 3922.114
534.1110, 3883.000
535.2890, 3944.000
536.4670, 4000.000
537.6440, 3976.000
538.8220, 4044.000
540.0000, 3990.000
541.1770, 3977.000
542.3540, 4049.000
543.5310, 4017.000
544.7080, 4129.000
545.8850, 4088.000
547.0610, 4148.000
548.2380, 4253.000
549.4140, 4248.000
550.5900, 4319.000
551.7660, 4338.000
552.9420, 4398.695
554.1170, 4465.000
555.2930, 4555.000
556.4680, 4663.000
557.6430, 4799.000
558.8180, 4809.000
559.9930, 4980.000
561.1680, 5089.000
562.3430, 5273.000
563.5170, 5250.000
564.6910, 5462.000
565.8650, 5631.993
567.0390, 5689.271
568.2130, 5727.516
569.3870, 5747.519
570.5600, 5707.503
571.7340, 5735.150
572.9070, 5729.668
574.0800, 5718.716
575.2530, 5743.618
576.4250, 5690.274
577.5980, 5705.966
578.7700, 5688.116
579.9430, 5679.361
581.1150, 5529.000
582.2870, 5636.000
583.4590, 5532.000
584.6300, 5451.000
585.8020, 5436.000
586.9730, 5332.000
588.1440, 5256.000
589.3150, 5197.674
590.4860, 5154.000
591.6570, 5076.000
592.8270, 5107.000
593.9980, 5102.000
595.1680, 5023.000
596.3380, 4897.000
597.5080, 4830.000
598.6780, 4892.000
599.8480, 4905.000
601.0170, 4902.000
602.1860, 4887.000
603.3550, 4838.000
604.5240, 4861.000
605.6930, 4960.000
606.8620, 4904.000
608.0310, 5057.000
609.1990, 4997.000
610.3670, 5059.000
611.5350, 5179.000
612.7030, 5086.000
613.8710, 5236.000
615.0390, 5292.000
616.2060, 5365.000
617.3730, 5376.000
618.5410, 5540.269
619.7080, 5635.660
620.8740, 5806.000
622.0410, 5883.000
623.2080, 5899.000
624.3740, 5933.000
625.5400, 5970.000
626.7060, 6155.000
627.8720, 6155.000
629.0380, 6332.000
630.2040, 6386.000
631.3690, 6595.000
632.5340, 6609.000
633.6990, 6794.000
634.8640, 6996.000
636.0290, 7121.000
637.1940, 7301.000
638.3580, 7504.000
639.5230, 7701.000
640.6870, 7880.000
641.8510, 8057.000
643.0150, 8436.000
644.1790, 8730.000
645.3420, 9179.000
646.5060, 9415.000
647.6690, 9972.000
648.8320, 10317.00
649.9950, 10928.00
651.1580, 11595.00
652.3200, 12242.00
653.4830, 12977.00
654.6450, 14021.00
655.8070, 14547.00
656.9690, 15278.00
658.1310, 16190.00
659.2930, 16789.00
660.4540, 17258.00
661.6160, 17411.00
662.7770, 17562.79
663.9380, 17449.00
665.0990, 17263.00
666.2600, 16736.00
667.4200, 16112.00
668.5810, 15385.00
669.7410, 14515.00
670.9010, 13760.00
672.0610, 12802.00
673.2210, 12043.00
674.3810, 11356.00
675.5400, 10508.00
676.6990, 9896.000
677.8590, 9158.000
679.0180, 8761.000
680.1760, 8315.000
681.3350, 7748.000
682.4940, 7423.000
683.6520, 7104.000
684.8100, 6894.000
685.9680, 6581.000
687.1260, 6378.000
688.2840, 6151.000
689.4420, 5948.000
690.5990, 5764.000
691.7560, 5623.000
692.9140, 5487.000
694.0710, 5349.000
695.2270, 5209.000
696.3840, 5045.000
697.5410, 4917.000
698.6970, 4777.000
699.8530, 4664.994
701.0090, 4628.000
702.1650, 4492.000
703.3210, 4405.000
704.4760, 4388.000
705.6320, 4313.000
706.7870, 4133.000
707.9420, 4201.000
709.0970, 4001.000
710.2520, 3912.000
711.4060, 4014.000
712.5610, 3923.000
713.7150, 3864.000
714.8690, 3880.000
716.0230, 3825.000
717.1770, 3847.000
718.3310, 3850.000
719.4840, 3711.000
720.6380, 3683.000
721.7910, 3707.000
722.9440, 3617.000
724.0970, 3602.000
725.2490, 3535.000
726.4020, 3568.000
727.5540, 3547.000
728.7070, 3514.000
729.8590, 3454.000
731.0110, 3510.000
732.1620, 3454.000
733.3140, 3451.000
734.4650, 3399.000
735.6170, 3434.000
736.7680, 3405.000
737.9190, 3428.000
739.0700, 3355.000
740.2200, 3290.000
741.3710, 3405.000
742.5210, 3280.000
743.6710, 3302.000
744.8210, 3274.000
745.9710, 3320.000
747.1210, 3256.000
748.2700, 3237.000
749.4200, 3213.000
750.5690, 3180.000
751.7180, 3120.000
752.8670, 3208.000
754.0160, 3137.000
755.1640, 3201.000
756.3130, 3207.000
757.4610, 3126.000
758.6090, 3134.000
759.7570, 3097.000
760.9050, 3030.000
762.0530, 3091.000
763.2000, 3080.000
764.3470, 3001.000
765.4940, 2975.000
766.6410, 2979.000
767.7880, 2973.000
768.9350, 3001.000
770.0810, 2979.000
771.2280, 2918.000
772.3740, 2848.000
773.5200, 2903.000
774.6660, 2916.000
775.8120, 2902.000
776.9570, 2890.000
778.1030, 2901.873
779.2480, 2881.000
780.3930, 2886.000
781.5380, 2898.000
782.6830, 2827.000
783.8270, 2811.000
784.9720, 2827.000
786.1160, 2778.000
787.2600, 2791.000
788.4040, 2748.000
789.5480, 2736.000
790.6910, 2748.000
791.8350, 2765.000
792.9780, 2733.000
794.1210, 2732.000
795.2640, 2739.000
796.4070, 2754.000
797.5500, 2749.000
798.6920, 2717.000
799.8350, 2779.000
800.9770, 2689.000
802.1190, 2723.000
803.2610, 2692.000
804.4030, 2631.000
805.5440, 2665.000
806.6850, 2622.000
807.8270, 2625.000
808.9680, 2680.000
810.1090, 2662.000
811.2490, 2614.000
812.3900, 2708.000
813.5300, 2629.000
814.6710, 2647.373
815.8110, 2629.573
816.9510, 2636.000
818.0910, 2584.000
819.2300, 2584.000
820.3700, 2602.000
821.5090, 2551.000
822.6480, 2594.000
823.7870, 2610.000
824.9260, 2598.000
826.0640, 2641.000
827.2030, 2647.000
828.3410, 2512.000
829.4790, 2625.000
830.6170, 2572.000
831.7550, 2607.000
832.8930, 2612.000
834.0310, 2578.000
835.1680, 2609.000
836.3050, 2642.000
837.4420, 2568.000
838.5790, 2580.000
839.7160, 2592.489
840.8520, 2576.659
841.9890, 2578.752
843.1250, 2586.000
844.2610, 2560.000
845.3970, 2541.000
846.5330, 2531.519
847.6680, 2528.477
848.8040, 2548.000
849.9390, 2552.000
851.0740, 2611.000
852.2090, 2657.000
853.3440, 2625.640
854.4780, 2614.247
855.6130, 2610.000
856.7470, 2509.000
857.8810, 2587.000
859.0150, 2541.000
860.1490, 2588.000
861.2830, 2532.000
862.4160, 2545.065
863.5490, 2583.000
864.6830, 2572.000
865.8160, 2573.000
866.9480, 2637.000
868.0810, 2596.000
869.2140, 2540.000
870.3460, 2539.000
871.4780, 2572.000
872.6100, 2563.419
873.7420, 2586.174
874.8740, 2607.000
876.0050, 2598.000
877.1370, 2619.000
878.2680, 2576.000
879.3990, 2615.000
880.5300, 2551.000
881.6600, 2570.000
882.7910, 2604.000
883.9210, 2629.000
885.0520, 2596.000
886.1820, 2576.000
887.3120, 2589.000
888.4410, 2662.000
889.5710, 2575.000
890.7000, 2583.000
891.8300, 2647.000
892.9590, 2600.000
894.0880, 2597.000
895.2160, 2591.000
896.3450, 2637.000
897.4730, 2592.231
898.6020, 2638.000
899.7300, 2573.000
900.8580, 2603.000
901.9860, 2692.000
903.1130, 2658.448
904.2410, 2743.000
905.3680, 2669.000
906.4950, 2623.000
907.6220, 2595.000
908.7490, 2596.000
909.8760, 2668.000
911.0020, 2602.000
912.1280, 2680.000
913.2550, 2627.000
914.3810, 2667.000
915.5060, 2667.000
916.6320, 2635.000
917.7580, 2671.000
918.8830, 2649.000
920.0080, 2696.000
921.1330, 2598.000
922.2580, 2695.000
923.3830, 2700.000
924.5070, 2614.000
925.6310, 2685.000
926.7560, 2666.000
927.8800, 2704.000
929.0040, 2615.000
930.1270, 2720.000
931.2510, 2661.000
932.3740, 2742.000
933.4970, 2685.000
934.6200, 2627.000
935.7430, 2636.000
936.8660, 2681.000
937.9890, 2621.000
939.1110, 2766.000
940.2330, 2720.000
941.3550, 2714.000
942.4770, 2729.000
943.5990, 2659.000
944.7200, 2664.000
945.8420, 2720.000
946.9630, 2718.000
948.0840, 2624.000
949.2050, 2685.000
950.3260, 2658.000
951.4460, 2737.000
952.5670, 2720.000
953.6870, 2696.000
954.8070, 2785.000
955.9270, 2695.000
957.0470, 2763.000
958.1660, 2649.000
959.2860, 2750.000
960.4050, 2722.000
961.5240, 2777.000
962.6430, 2733.000
963.7620, 2697.000
964.8810, 2750.000
965.9990, 2721.000
967.1170, 2749.000
968.2350, 2725.000
969.3530, 2750.000
970.4710, 2736.000
971.5890, 2787.000
972.7060, 2778.000
973.8240, 2814.000
974.9410, 2778.000
976.0580, 2795.000
977.1740, 2755.000
978.2910, 2757.393
979.4080, 2775.000
980.5240, 2753.000
981.6400, 2777.000
982.7560, 2780.000
983.8720, 2747.000
984.9870, 2789.000
986.1030, 2792.000
987.2180, 2785.000
988.3330, 2772.000
989.4480, 2759.000
990.5630, 2813.000
991.6780, 2751.000
992.7920, 2760.000
993.9070, 2833.000
995.0210, 2704.000
996.1350, 2797.000
997.2490, 2801.000
998.3620, 2818.000
999.4760, 2761.000
1000.589, 2845.000
1001.702, 2816.610
1002.815, 2815.517
1003.928, 2848.000
1005.041, 2754.000
1006.153, 2817.000
1007.266, 2688.000
1008.378, 2774.000
1009.490, 2802.000
1010.602, 2747.000
1011.713, 2665.000
1012.825, 2734.000
1013.936, 2796.000
1015.047, 2655.000
1016.158, 2619.000
1017.269, 2727.000
1018.380, 2664.000
1019.490, 2628.000
1020.601, 2756.000
1021.711, 2674.000
1022.821, 2694.000
1023.931, 2642.000
1025.040, 2653.000
1026.150, 2696.000
1027.259, 2655.000
1028.368, 2674.809
1029.477, 2727.000
1030.586, 2707.000
1031.695, 2630.000
1032.803, 2724.000
1033.912, 2678.000
1035.020, 2679.000
1036.128, 2771.000
1037.236, 2704.000
1038.343, 2784.000
1039.451, 2728.000
1040.558, 2711.000
1041.665, 2730.000
1042.772, 2720.000
1043.879, 2718.000
1044.986, 2679.000
1046.093, 2798.000
1047.199, 2739.000
1048.305, 2686.000
1049.411, 2706.000
1050.517, 2822.000
1051.623, 2793.000
1052.728, 2780.000
1053.833, 2773.000
1054.939, 2698.000
1056.044, 2778.000
1057.148, 2786.000
1058.253, 2745.000
1059.358, 2836.000
1060.462, 2875.000
1061.566, 2828.000
1062.670, 2741.000
1063.774, 2831.000
1064.878, 2785.000
1065.981, 2829.000
1067.085, 2803.153
1068.188, 2801.000
1069.291, 2737.000
1070.394, 2790.000
1071.496, 2774.000
1072.599, 2811.000
1073.701, 2804.000
1074.803, 2818.000
1075.905, 2780.000
1077.007, 2712.000
1078.109, 2826.000
1079.210, 2767.000
1080.312, 2733.000
1081.413, 2768.000
1082.514, 2804.000
1083.615, 2771.000
1084.715, 2793.000
1085.816, 2792.000
1086.916, 2798.000
1088.016, 2796.954
1089.116, 2777.000
1090.216, 2796.000
1091.316, 2805.000
1092.415, 2830.000
1093.515, 2778.000
1094.614, 2809.000
1095.713, 2812.000
1096.812, 2811.000
1097.910, 2870.000
1099.009, 2879.000
1100.107, 2857.478
1101.205, 2759.000
1102.303, 2800.000
1103.401, 2834.000
1104.499, 2817.000
1105.596, 2859.000
1106.693, 2796.000
1107.791, 2804.000
1108.888, 2830.000
1109.984, 2841.000
1111.081, 2908.000
1112.177, 2788.000
1113.274, 2874.000
1114.370, 2809.000
1115.466, 2913.000
1116.562, 2867.000
1117.657, 2904.000
1118.753, 2881.000
1119.848, 2943.000
1120.943, 2916.000
1122.038, 2901.000
1123.133, 3012.000
1124.228, 2971.000
1125.322, 2893.000
1126.416, 2924.000
1127.510, 2930.000
1128.604, 2963.000
1129.698, 2918.000
1130.792, 2911.000
1131.885, 2904.000
1132.978, 2984.000
1134.071, 3003.000
1135.164, 3016.000
1136.257, 3008.904
1137.350, 2987.000
1138.442, 2945.000
1139.534, 3003.000
1140.627, 2983.000
1141.718, 3007.179
1142.810, 3046.063
1143.902, 3070.209
1144.993, 3080.405
1146.084, 3034.885
1147.176, 3061.315
1148.266, 3058.903
1149.357, 3018.000
1150.448, 2936.000
1151.538, 2954.000
1152.628, 3013.000
1153.718, 2937.000
1154.808, 3011.000
1155.898, 2958.000
1156.988, 3014.000
1158.077, 3040.000
1159.166, 3071.000
1160.255, 3036.000
1161.344, 3051.000
1162.433, 3010.000
1163.521, 3011.000
1164.610, 3017.000
1165.698, 3019.000
1166.786, 3080.000
1167.874, 2975.000
1168.961, 3009.000
1170.049, 3075.000
1171.136, 2983.000
1172.224, 3018.000
1173.311, 3070.000
1174.397, 2982.000
1175.484, 2952.000
1176.571, 3078.000
1177.657, 2985.000
1178.743, 3050.000
1179.829, 2988.000
1180.915, 2974.000
1182.001, 3074.000
1183.086, 3023.000
1184.171, 3072.000
1185.256, 3060.000
1186.341, 3008.000
1187.426, 3001.000
1188.511, 3019.000
1189.595, 3045.000
1190.680, 3036.000
1191.764, 3044.000
1192.848, 3046.000
1193.932, 3062.856
1195.015, 3050.279
1196.099, 3090.000
1197.182, 3041.000
1198.265, 3015.000
1199.348, 3036.000
1200.431, 3055.000
1201.513, 3084.000
1202.596, 3014.000
1203.678, 3051.000
1204.760, 2991.000
1205.842, 3041.000
1206.924, 3071.000
1208.005, 3025.000
1209.087, 3061.564
1210.168, 3064.000
1211.249, 3050.000
1212.330, 3061.000
1213.411, 3020.000
1214.491, 3050.000
1215.572, 3069.000
1216.652, 3069.000
1217.732, 3026.000
1218.812, 2977.000
1219.891, 3064.000
1220.971, 3098.000
1222.050, 3029.000
1223.129, 3088.000
1224.208, 3061.000
1225.287, 3005.000
1226.366, 2990.000
1227.444, 3027.000
1228.523, 3040.000
1229.601, 3074.000
1230.679, 3108.000
1231.757, 3059.000
1232.834, 2972.000
1233.912, 3040.000
1234.989, 3082.000
1236.066, 3041.401
1237.143, 3102.000
1238.220, 2994.000
1239.297, 3071.000
1240.373, 3006.000
1241.449, 3020.000
1242.526, 3071.000
1243.601, 3050.000
1244.677, 3065.507
1245.753, 3000.000
1246.828, 3049.000
1247.904, 3016.000
1248.979, 2984.000
1250.054, 3089.000
1251.128, 3081.000
1252.203, 3112.000
1253.277, 2986.000
1254.351, 2982.000
1255.426, 3015.000
1256.499, 3058.000
1257.573, 3043.000
1258.647, 3021.000
1259.720, 3015.000
1260.793, 3056.000
1261.866, 3041.000
1262.939, 3030.000
1264.012, 3033.000
1265.084, 2949.000
1266.157, 3084.000
1267.229, 3044.000
1268.301, 3080.000
1269.373, 3004.000
1270.444, 3017.000
1271.516, 2953.000
1272.587, 2985.000
1273.658, 3027.000
1274.729, 3049.000
1275.800, 3068.000
1276.871, 3035.784
1277.941, 3013.000
1279.011, 3000.000
1280.082, 2987.000
1281.151, 3096.000
1282.221, 3044.191
1283.291, 3088.347
1284.360, 2997.000
1285.430, 3093.000
1286.499, 3027.000
1287.568, 2959.000
1288.636, 3035.000
1289.705, 3101.000
1290.773, 3025.000
1291.841, 3044.000
1292.909, 3025.000
1293.977, 2989.000
1295.045, 3083.000
1296.113, 3101.000
1297.180, 3039.000
1298.247, 3052.000
1299.314, 3117.361
1300.381, 3075.435
1301.448, 3065.423
1302.514, 3070.000
1303.580, 3019.000
1304.647, 3020.000
1305.713, 3080.000
1306.778, 3054.000
1307.844, 3041.000
1308.910, 3023.000
1309.975, 2992.000
1311.040, 3004.000
1312.105, 2993.000
1313.170, 2950.000
1314.234, 2990.000
1315.299, 3018.000
1316.363, 2892.000
1317.427, 2964.000
1318.491, 2950.000
1319.555, 2919.000
1320.618, 2907.000
1321.682, 2969.000
1322.745, 2898.000
1323.808, 2861.000
1324.871, 2912.000
1325.933, 2860.000
1326.996, 2925.000
1328.058, 2881.000
1329.121, 2912.000
1330.183, 2844.000
1331.244, 2821.000
1332.306, 2881.000
1333.368, 2843.000
1334.429, 2850.000
1335.490, 2781.000
1336.551, 2802.000
1337.612, 2770.000
1338.672, 2796.000
1339.733, 2810.000
1340.793, 2800.000
1341.853, 2796.000
1342.913, 2763.000
1343.973, 2781.000
1345.033, 2771.000
1346.092, 2729.000
1347.151, 2752.000
1348.210, 2701.000
1349.269, 2746.000
1350.328, 2757.000
1351.386, 2712.000
1352.445, 2709.000
1353.503, 2738.000
1354.561, 2668.000
1355.619, 2757.000
1356.677, 2681.000
1357.734, 2705.000
1358.791, 2695.000
1359.849, 2672.000
1360.906, 2685.000
1361.962, 2682.000
1363.019, 2637.000
1364.075, 2685.000
1365.132, 2645.350
1366.188, 2651.372
1367.244, 2606.000
1368.300, 2664.000
1369.355, 2646.000
1370.411, 2681.000
1371.466, 2697.000
1372.521, 2627.000
1373.576, 2655.000
1374.631, 2661.000
1375.685, 2651.000
1376.740, 2656.022
1377.794, 2620.000
1378.848, 2620.000
1379.902, 2616.000
1380.955, 2557.000
1382.009, 2620.000
1383.062, 2621.000
1384.115, 2714.000
1385.168, 2579.000
1386.221, 2604.000
1387.274, 2614.000
1388.326, 2617.000
1389.379, 2566.000
1390.431, 2580.000
1391.483, 2603.000
1392.534, 2575.000
1393.586, 2598.000
1394.637, 2542.000
1395.689, 2525.000
1396.740, 2514.000
1397.791, 2563.000
1398.841, 2539.000
1399.892, 2524.000
1400.942, 2473.000
1401.993, 2558.000
1403.043, 2533.000
1404.092, 2569.000
1405.142, 2570.358
1406.192, 2530.986
1407.241, 2539.000
1408.290, 2489.000
1409.339, 2443.000
1410.388, 2509.000
1411.437, 2516.000
1412.485, 2545.000
1413.533, 2517.000
1414.581, 2512.000
1415.629, 2474.000
1416.677, 2438.000
1417.725, 2488.000
1418.772, 2533.000
1419.819, 2464.000
1420.867, 2537.000
1421.913, 2525.000
1422.960, 2489.000
1424.007, 2471.000
1425.053, 2492.000
1426.099, 2441.000
1427.145, 2488.000
1428.191, 2544.000
1429.237, 2452.000
1430.282, 2516.000
1431.328, 2445.000
1432.373, 2419.000
1433.418, 2480.000
1434.462, 2560.000
1435.507, 2452.000
1436.552, 2408.000
1437.596, 2463.000
1438.640, 2517.000
1439.684, 2541.000
1440.728, 2540.589
1441.771, 2462.000
1442.815, 2516.000
1443.858, 2494.000
1444.901, 2509.000
1445.944, 2507.000
1446.986, 2446.000
1448.029, 2435.000
1449.071, 2499.000
1450.113, 2440.000
1451.155, 2482.000
1452.197, 2507.000
1453.239, 2465.000
1454.280, 2494.000
1455.322, 2484.662
1456.363, 2482.276
1457.404, 2472.000
1458.444, 2483.000
1459.485, 2456.000
1460.525, 2442.000
1461.566, 2465.000
1462.606, 2448.471
1463.646, 2442.000
1464.685, 2452.000
1465.725, 2438.000
1466.764, 2441.000
1467.803, 2443.000
1468.842, 2470.000
1469.881, 2444.000
1470.920, 2416.000
1471.958, 2362.000
1472.997, 2458.000
1474.035, 2405.000
1475.073, 2411.000
1476.111, 2367.000
1477.148, 2442.000
1478.186, 2407.000
1479.223, 2401.000
1480.260, 2424.000
1481.297, 2422.000
1482.334, 2450.000
1483.370, 2430.000
1484.407, 2406.000
1485.443, 2425.000
1486.479, 2435.000
1487.515, 2385.000
1488.550, 2412.000
1489.586, 2412.000
1490.621, 2402.000
1491.656, 2397.000
1492.691, 2387.000
1493.726, 2427.000
1494.761, 2396.000
1495.795, 2443.000
1496.829, 2435.000
1497.863, 2484.000
1498.897, 2458.000
1499.931, 2414.000
1500.965, 2405.000
1501.998, 2394.000
1503.031, 2390.000
1504.064, 2398.418
1505.097, 2387.000
1506.130, 2427.000
1507.162, 2420.000
1508.195, 2439.000
1509.227, 2420.000
1510.259, 2473.000
1511.291, 2397.000
1512.322, 2407.000
1513.354, 2410.000
1514.385, 2484.000
1515.416, 2473.166
1516.447, 2451.000
1517.478, 2479.000
1518.508, 2493.000
1519.539, 2460.000
1520.569, 2398.000
1521.599, 2367.000
1522.629, 2380.000
1523.658, 2390.000
1524.688, 2388.784
1525.717, 2367.000
1526.746, 2401.000
1527.775, 2422.000
1528.804, 2410.000
1529.833, 2360.000
1530.861, 2403.000
1531.890, 2409.000
1532.918, 2441.000
1533.946, 2369.000
1534.973, 2413.000
1536.001, 2407.000
1537.028, 2398.000
1538.055, 2433.000
1539.082, 2379.000
1540.109, 2440.000
1541.136, 2407.000
1542.163, 2397.000
1543.189, 2372.000
1544.215, 2458.000
1545.241, 2412.000
1546.267, 2482.000
1547.292, 2420.873
1548.318, 2455.994
1549.343, 2476.377
1550.368, 2482.813
1551.393, 2433.534
1552.418, 2456.200
1553.442, 2450.032
1554.467, 2442.684
1555.491, 2475.474
1556.515, 2434.297
1557.539, 2459.000
1558.562, 2402.000
1559.586, 2440.000
1560.609, 2421.000
1561.632, 2416.965
1562.655, 2368.000
1563.678, 2420.000
1564.701, 2400.000
1565.723, 2401.000
1566.745, 2434.000
1567.768, 2393.000
1568.789, 2410.000
1569.811, 2384.000
1570.833, 2394.854
1571.854, 2431.000
1572.875, 2441.000
1573.896, 2418.000
1574.917, 2479.000
1575.938, 2397.000
1576.958, 2462.000
##END=



