##NAMES=Hausmannite
##RRUFFID=R040090
##IDEAL CHEMISTRY=Mn^2+^Mn^3+^_2_O_4_
##LOCALITY=Ã–hrenstock, Ilmenau, near Thuringia, Germany
##OWNER=RRUFF
##SOURCE=University of Arizona Mineral Museum
##DESCRIPTION=Mass of black octahedral crystals
##STATUS=The identification of this mineral has been confirmed by X-ray diffraction and chemical analysis
##URL=rruff.info/R040090
##MEASURED CHEMISTRY=(Mn^2+^_0.71_Zn_0.28_)Mn^3+^_2.00_O_4_
##PIN_ID=M01013
##ORIENTATION=Laser parallel to a* (1 0 0). Fiducial mark perpendicular to laser is parallel to c [0 0 1]
127.4030, 2861.000
128.6310, 2893.000
129.8580, 2941.000
131.0850, 2893.000
132.3120, 2834.000
133.5390, 2752.000
134.7660, 2731.000
135.9930, 2803.000
137.2200, 2811.000
138.4460, 2881.000
139.6720, 2885.000
140.8980, 2782.000
142.1240, 2691.000
143.3500, 2729.000
144.5760, 2721.000
145.8020, 2723.000
147.0270, 2706.000
148.2520, 2661.000
149.4780, 2625.000
150.7030, 2557.000
151.9270, 2592.000
153.1520, 2569.000
154.3770, 2605.000
155.6010, 2591.000
156.8260, 2518.000
158.0500, 2507.000
159.2740, 2461.000
160.4980, 2509.000
161.7210, 2629.000
162.9450, 2716.000
164.1690, 2691.000
165.3920, 2571.000
166.6150, 2515.000
167.8380, 2528.000
169.0610, 2467.000
170.2840, 2509.000
171.5070, 2503.000
172.7290, 2465.000
173.9510, 2469.000
175.1740, 2517.000
176.3960, 2574.000
177.6180, 2507.000
178.8390, 2469.000
180.0610, 2522.000
181.2830, 2461.000
182.5040, 2408.000
183.7250, 2415.000
184.9460, 2443.000
186.1670, 2387.000
187.3880, 2397.000
188.6090, 2398.000
189.8290, 2388.000
191.0500, 2384.295
192.2700, 2338.000
193.4900, 2365.000
194.7100, 2345.000
195.9300, 2342.000
197.1490, 2391.000
198.3690, 2312.000
199.5880, 2353.000
200.8080, 2338.000
202.0270, 2297.000
203.2460, 2304.000
204.4650, 2309.000
205.6830, 2294.000
206.9020, 2286.000
208.1200, 2323.000
209.3380, 2249.000
210.5570, 2221.000
211.7750, 2346.000
212.9920, 2282.000
214.2100, 2241.000
215.4280, 2212.000
216.6450, 2241.000
217.8620, 2258.000
219.0790, 2306.000
220.2960, 2296.000
221.5130, 2217.000
222.7300, 2241.000
223.9460, 2186.000
225.1630, 2181.000
226.3790, 2162.000
227.5950, 2141.000
228.8110, 2252.000
230.0270, 2195.000
231.2430, 2200.000
232.4580, 2147.000
233.6740, 2192.000
234.8890, 2211.000
236.1040, 2219.000
237.3190, 2227.000
238.5340, 2208.000
239.7490, 2207.000
240.9630, 2176.000
242.1780, 2174.000
243.3920, 2193.000
244.6060, 2231.000
245.8200, 2251.000
247.0340, 2262.000
248.2470, 2302.453
249.4610, 2273.000
250.6740, 2358.000
251.8880, 2364.000
253.1010, 2364.000
254.3140, 2358.000
255.5270, 2331.000
256.7390, 2417.000
257.9520, 2337.737
259.1640, 2244.000
260.3760, 2204.000
261.5880, 2290.000
262.8000, 2167.000
264.0120, 2286.000
265.2240, 2244.000
266.4350, 2263.000
267.6470, 2215.000
268.8580, 2304.000
270.0690, 2276.000
271.2800, 2331.000
272.4910, 2263.000
273.7020, 2260.000
274.9120, 2294.000
276.1230, 2213.000
277.3330, 2265.000
278.5430, 2307.000
279.7530, 2364.000
280.9630, 2378.590
282.1720, 2417.000
283.3820, 2402.000
284.5910, 2407.000
285.8000, 2411.000
287.0090, 2549.000
288.2180, 2584.000
289.4270, 2669.000
290.6360, 2627.000
291.8440, 2600.000
293.0530, 2702.000
294.2610, 2707.000
295.4690, 2728.000
296.6770, 2715.000
297.8850, 2862.000
299.0920, 2888.000
300.3000, 2945.000
301.5070, 3033.000
302.7140, 3093.000
303.9210, 3253.000
305.1280, 3357.000
306.3350, 3508.000
307.5420, 3823.000
308.7480, 3956.000
309.9540, 4255.000
311.1600, 4440.000
312.3660, 4632.000
313.5720, 4942.000
314.7780, 5231.000
315.9840, 5433.000
317.1890, 5534.000
318.3940, 5696.000
319.6000, 5712.000
320.8050, 5620.000
322.0090, 5639.000
323.2140, 5346.000
324.4190, 5182.000
325.6230, 4975.000
326.8270, 4655.000
328.0320, 4361.000
329.2360, 4204.000
330.4390, 4100.000
331.6430, 3789.000
332.8470, 3771.000
334.0500, 3634.000
335.2530, 3553.000
336.4560, 3473.000
337.6590, 3448.000
338.8620, 3359.000
340.0650, 3361.000
341.2670, 3341.000
342.4700, 3349.000
343.6720, 3330.000
344.8740, 3310.000
346.0760, 3362.000
347.2780, 3461.000
348.4790, 3380.000
349.6810, 3539.000
350.8820, 3479.000
352.0830, 3659.000
353.2840, 3633.000
354.4850, 3617.000
355.6860, 3750.000
356.8870, 3940.000
358.0870, 4028.000
359.2870, 4109.000
360.4880, 4326.000
361.6880, 4408.000
362.8870, 4630.000
364.0870, 4694.000
365.2870, 4855.000
366.4860, 5107.000
367.6850, 5255.000
368.8850, 5328.000
370.0840, 5454.000
371.2820, 5546.471
372.4810, 5566.044
373.6800, 5702.000
374.8780, 5563.000
376.0760, 5571.000
377.2740, 5514.000
378.4720, 5300.000
379.6700, 5141.000
380.8680, 4909.000
382.0650, 4642.000
383.2630, 4384.000
384.4600, 4177.973
385.6570, 3929.000
386.8540, 3782.000
388.0510, 3598.000
389.2470, 3439.000
390.4440, 3301.000
391.6400, 3165.854
392.8360, 3089.000
394.0320, 2966.000
395.2280, 2850.000
396.4240, 2819.000
397.6190, 2714.000
398.8150, 2785.000
400.0100, 2661.000
401.2050, 2629.000
402.4000, 2577.000
403.5950, 2531.000
404.7900, 2499.000
405.9840, 2395.000
407.1790, 2432.000
408.3730, 2420.000
409.5670, 2471.000
410.7610, 2445.000
411.9550, 2425.000
413.1480, 2305.000
414.3420, 2410.000
415.5350, 2348.703
416.7280, 2331.497
417.9220, 2338.000
419.1140, 2327.000
420.3070, 2315.000
421.5000, 2329.073
422.6920, 2327.467
423.8850, 2350.000
425.0770, 2338.000
426.2690, 2344.038
427.4610, 2332.954
428.6520, 2358.000
429.8440, 2343.000
431.0350, 2330.000
432.2260, 2364.000
433.4180, 2268.000
434.6090, 2367.000
435.7990, 2328.000
436.9900, 2361.000
438.1800, 2384.000
439.3710, 2358.000
440.5610, 2336.000
441.7510, 2313.000
442.9410, 2323.000
444.1310, 2393.000
445.3200, 2345.000
446.5100, 2321.000
447.6990, 2380.000
448.8880, 2329.000
450.0770, 2341.000
451.2660, 2296.000
452.4550, 2360.000
453.6430, 2363.000
454.8320, 2403.000
456.0200, 2385.000
457.2080, 2353.000
458.3960, 2366.000
459.5840, 2475.000
460.7720, 2415.000
461.9590, 2482.000
463.1460, 2425.000
464.3340, 2473.000
465.5210, 2458.000
466.7080, 2467.000
467.8940, 2557.000
469.0810, 2505.000
470.2670, 2529.000
471.4540, 2559.000
472.6400, 2510.000
473.8260, 2567.000
475.0120, 2555.000
476.1970, 2554.000
477.3830, 2598.000
478.5680, 2620.000
479.7540, 2631.000
480.9390, 2604.000
482.1240, 2587.000
483.3080, 2600.019
484.4930, 2605.315
485.6780, 2616.000
486.8620, 2647.000
488.0460, 2652.000
489.2300, 2664.000
490.4140, 2704.000
491.5980, 2654.000
492.7810, 2683.000
493.9650, 2683.000
495.1480, 2711.000
496.3310, 2701.000
497.5140, 2673.000
498.6970, 2722.000
499.8800, 2725.000
501.0620, 2763.000
502.2440, 2735.543
503.4270, 2833.000
504.6090, 2715.000
505.7910, 2752.000
506.9720, 2848.000
508.1540, 2831.000
509.3350, 2825.000
510.5170, 2828.000
511.6980, 2893.000
512.8790, 2867.000
514.0600, 2881.000
515.2400, 2887.121
516.4210, 2824.482
517.6010, 2881.000
518.7810, 2879.000
519.9620, 2886.000
521.1410, 2941.669
522.3210, 3025.000
523.5010, 2988.000
524.6800, 3047.000
525.8600, 2970.000
527.0390, 3017.000
528.2180, 3069.000
529.3970, 2964.000
530.5750, 3049.000
531.7540, 3036.000
532.9320, 3046.000
534.1110, 3001.000
535.2890, 3034.000
536.4670, 3020.000
537.6440, 3031.000
538.8220, 3054.002
540.0000, 3136.000
541.1770, 3112.000
542.3540, 3144.000
543.5310, 3207.000
544.7080, 3215.000
545.8850, 3212.000
547.0610, 3292.000
548.2380, 3295.000
549.4140, 3306.000
550.5900, 3279.000
551.7660, 3387.000
552.9420, 3373.000
554.1170, 3425.000
555.2930, 3523.000
556.4680, 3545.000
557.6430, 3593.000
558.8180, 3638.744
559.9930, 3661.000
561.1680, 3705.000
562.3430, 3732.000
563.5170, 3765.000
564.6910, 3706.000
565.8650, 3805.000
567.0390, 3817.000
568.2130, 3763.000
569.3870, 3809.000
570.5600, 3871.000
571.7340, 4004.000
572.9070, 3959.000
574.0800, 3968.000
575.2530, 4046.000
576.4250, 3963.000
577.5980, 4018.000
578.7700, 4113.000
579.9430, 4081.796
581.1150, 4214.000
582.2870, 4106.000
583.4590, 4126.000
584.6300, 4110.000
585.8020, 4231.000
586.9730, 4174.514
588.1440, 4102.000
589.3150, 4144.000
590.4860, 4103.000
591.6570, 4119.000
592.8270, 4152.000
593.9980, 4225.000
595.1680, 4222.000
596.3380, 4230.000
597.5080, 4203.000
598.6780, 4261.000
599.8480, 4298.000
601.0170, 4384.000
602.1860, 4437.000
603.3550, 4496.587
604.5240, 4502.000
605.6930, 4607.000
606.8620, 4678.000
608.0310, 4712.000
609.1990, 4930.000
610.3670, 5078.000
611.5350, 5113.000
612.7030, 5256.000
613.8710, 5354.000
615.0390, 5553.000
616.2060, 5605.000
617.3730, 5864.000
618.5410, 5966.000
619.7080, 6186.000
620.8740, 6425.000
622.0410, 6527.000
623.2080, 6740.000
624.3740, 7030.000
625.5400, 7191.000
626.7060, 7406.000
627.8720, 7665.132
629.0380, 7915.513
630.2040, 8225.000
631.3690, 8540.000
632.5340, 8960.000
633.6990, 9382.000
634.8640, 9962.000
636.0290, 10386.00
637.1940, 10864.91
638.3580, 11325.00
639.5230, 11918.00
640.6870, 12675.00
641.8510, 13507.00
643.0150, 14319.00
644.1790, 15351.00
645.3420, 16625.38
646.5060, 18052.00
647.6690, 19706.00
648.8320, 21514.68
649.9950, 23396.00
651.1580, 25774.00
652.3200, 28270.00
653.4830, 31032.00
654.6450, 33735.00
655.8070, 36647.00
656.9690, 39260.00
658.1310, 41820.00
659.2930, 43934.00
660.4540, 45469.00
661.6160, 46117.00
662.7770, 46390.00
663.9380, 45508.00
665.0990, 44142.00
666.2600, 43149.00
667.4200, 39986.00
668.5810, 37248.00
669.7410, 34081.00
670.9010, 31144.00
672.0610, 27972.00
673.2210, 25336.00
674.3810, 22900.00
675.5400, 20782.00
676.6990, 18650.00
677.8590, 16765.00
679.0180, 15190.00
680.1760, 13585.00
681.3350, 12620.00
682.4940, 11476.00
683.6520, 10629.00
684.8100, 9787.000
685.9680, 9170.000
687.1260, 8401.000
688.2840, 7894.000
689.4420, 7404.000
690.5990, 6949.000
691.7560, 6704.000
692.9140, 6405.000
694.0710, 6145.000
695.2270, 5872.000
696.3840, 5628.980
697.5410, 5385.000
698.6970, 5220.000
699.8530, 5032.000
701.0090, 4952.000
702.1650, 4775.000
703.3210, 4662.000
704.4760, 4598.000
705.6320, 4462.000
706.7870, 4372.000
707.9420, 4350.000
709.0970, 4139.000
710.2520, 4203.000
711.4060, 4068.000
712.5610, 4056.000
713.7150, 3997.000
714.8690, 3908.000
716.0230, 3766.000
717.1770, 3824.000
718.3310, 3843.000
719.4840, 3740.000
720.6380, 3764.000
721.7910, 3797.000
722.9440, 3668.000
724.0970, 3619.000
725.2490, 3685.000
726.4020, 3616.000
727.5540, 3589.000
728.7070, 3569.000
729.8590, 3576.000
731.0110, 3545.000
732.1620, 3548.000
733.3140, 3555.000
734.4650, 3493.000
735.6170, 3457.000
736.7680, 3453.000
737.9190, 3388.000
739.0700, 3496.000
740.2200, 3403.000
741.3710, 3425.542
742.5210, 3414.260
743.6710, 3389.000
744.8210, 3386.000
745.9710, 3361.208
747.1210, 3340.000
748.2700, 3314.000
749.4200, 3294.000
750.5690, 3260.000
751.7180, 3228.000
752.8670, 3221.000
754.0160, 3283.000
755.1640, 3344.000
756.3130, 3281.000
757.4610, 3083.000
758.6090, 3132.000
759.7570, 3134.000
760.9050, 3129.000
762.0530, 3116.000
763.2000, 3101.000
764.3470, 3089.844
765.4940, 3111.000
766.6410, 3047.000
767.7880, 3054.000
768.9350, 3004.000
770.0810, 3045.000
771.2280, 2996.000
772.3740, 2956.000
773.5200, 2957.000
774.6660, 2950.000
775.8120, 2998.000
776.9570, 2947.829
778.1030, 2973.000
779.2480, 2877.000
780.3930, 2905.000
781.5380, 2886.000
782.6830, 2889.000
783.8270, 2851.000
784.9720, 2880.000
786.1160, 2843.000
787.2600, 2815.000
788.4040, 2809.000
789.5480, 2751.000
790.6910, 2775.000
791.8350, 2737.000
792.9780, 2739.000
794.1210, 2756.000
795.2640, 2663.000
796.4070, 2686.000
797.5500, 2747.000
798.6920, 2710.000
799.8350, 2737.000
800.9770, 2663.000
802.1190, 2705.000
803.2610, 2686.362
804.4030, 2622.000
805.5440, 2677.000
806.6850, 2634.000
807.8270, 2616.000
808.9680, 2623.000
810.1090, 2576.000
811.2490, 2598.000
812.3900, 2610.000
813.5300, 2612.000
814.6710, 2588.000
815.8110, 2541.000
816.9510, 2570.000
818.0910, 2529.000
819.2300, 2570.000
820.3700, 2492.000
821.5090, 2445.000
822.6480, 2435.000
823.7870, 2475.000
824.9260, 2490.000
826.0640, 2494.000
827.2030, 2443.000
828.3410, 2397.000
829.4790, 2434.000
830.6170, 2462.000
831.7550, 2411.000
832.8930, 2443.000
834.0310, 2401.000
835.1680, 2411.000
836.3050, 2484.000
837.4420, 2472.000
838.5790, 2440.000
839.7160, 2407.000
840.8520, 2398.000
841.9890, 2376.000
843.1250, 2389.000
844.2610, 2371.701
845.3970, 2355.000
846.5330, 2381.000
847.6680, 2347.000
848.8040, 2404.000
849.9390, 2358.000
851.0740, 2346.000
852.2090, 2351.000
853.3440, 2415.000
854.4780, 2323.000
855.6130, 2383.000
856.7470, 2388.000
857.8810, 2358.000
859.0150, 2310.000
860.1490, 2362.000
861.2830, 2332.000
862.4160, 2333.000
863.5490, 2328.000
864.6830, 2306.000
865.8160, 2296.000
866.9480, 2355.000
868.0810, 2323.000
869.2140, 2324.000
870.3460, 2357.000
871.4780, 2278.000
872.6100, 2375.000
873.7420, 2315.000
874.8740, 2359.000
876.0050, 2337.000
877.1370, 2279.000
878.2680, 2351.000
879.3990, 2361.000
880.5300, 2387.000
881.6600, 2332.000
882.7910, 2377.000
883.9210, 2333.000
885.0520, 2396.000
886.1820, 2333.000
887.3120, 2322.000
888.4410, 2388.000
889.5710, 2352.000
890.7000, 2341.000
891.8300, 2316.000
892.9590, 2325.372
894.0880, 2405.000
895.2160, 2377.000
896.3450, 2384.000
897.4730, 2455.000
898.6020, 2352.000
899.7300, 2406.000
900.8580, 2345.000
901.9860, 2415.000
903.1130, 2359.000
904.2410, 2374.000
905.3680, 2422.000
906.4950, 2369.000
907.6220, 2372.000
908.7490, 2420.000
909.8760, 2328.000
911.0020, 2402.000
912.1280, 2428.000
913.2550, 2378.000
914.3810, 2279.854
915.5060, 2342.004
916.6320, 2380.580
917.7580, 2396.843
918.8830, 2323.953
920.0080, 2366.175
921.1330, 2362.265
922.2580, 2356.464
923.3830, 2354.000
924.5070, 2416.000
925.6310, 2365.000
926.7560, 2419.000
927.8800, 2409.000
929.0040, 2424.000
930.1270, 2438.262
931.2510, 2452.000
932.3740, 2452.000
933.4970, 2436.000
934.6200, 2448.000
935.7430, 2442.000
936.8660, 2381.000
937.9890, 2414.000
939.1110, 2331.000
940.2330, 2418.000
941.3550, 2428.000
942.4770, 2474.000
943.5990, 2379.000
944.7200, 2482.000
945.8420, 2396.000
946.9630, 2456.000
948.0840, 2486.000
949.2050, 2402.000
950.3260, 2450.000
951.4460, 2486.000
952.5670, 2472.000
953.6870, 2566.000
954.8070, 2501.000
955.9270, 2538.000
957.0470, 2530.302
958.1660, 2578.000
959.2860, 2568.197
960.4050, 2569.000
961.5240, 2548.000
962.6430, 2546.000
963.7620, 2512.000
964.8810, 2553.000
965.9990, 2589.000
967.1170, 2515.000
968.2350, 2526.000
969.3530, 2586.000
970.4710, 2493.000
971.5890, 2518.000
972.7060, 2582.000
973.8240, 2480.000
974.9410, 2570.000
976.0580, 2566.000
977.1740, 2567.000
978.2910, 2565.000
979.4080, 2537.000
980.5240, 2601.000
981.6400, 2612.000
982.7560, 2606.000
983.8720, 2553.000
984.9870, 2648.000
986.1030, 2564.000
987.2180, 2594.000
988.3330, 2564.000
989.4480, 2567.000
990.5630, 2559.000
991.6780, 2626.000
992.7920, 2535.000
993.9070, 2616.000
995.0210, 2546.000
996.1350, 2581.000
997.2490, 2573.000
998.3620, 2543.000
999.4760, 2571.000
1000.589, 2562.000
1001.702, 2560.000
1002.815, 2552.000
1003.928, 2547.149
1005.041, 2544.364
1006.153, 2542.000
1007.266, 2546.000
1008.378, 2555.000
1009.490, 2573.000
1010.602, 2512.000
1011.713, 2449.000
1012.825, 2559.000
1013.936, 2473.000
1015.047, 2515.000
1016.158, 2475.000
1017.269, 2456.000
1018.380, 2489.000
1019.490, 2461.000
1020.601, 2454.329
1021.711, 2464.165
1022.821, 2416.000
1023.931, 2467.000
1025.040, 2444.000
1026.150, 2440.000
1027.259, 2461.000
1028.368, 2472.000
1029.477, 2392.000
1030.586, 2410.000
1031.695, 2434.000
1032.803, 2406.000
1033.912, 2470.000
1035.020, 2398.000
1036.128, 2381.000
1037.236, 2496.000
1038.343, 2480.000
1039.451, 2408.000
1040.558, 2396.000
1041.665, 2386.000
1042.772, 2375.569
1043.879, 2442.000
1044.986, 2411.000
1046.093, 2462.000
1047.199, 2514.000
1048.305, 2419.000
1049.411, 2545.000
1050.517, 2480.000
1051.623, 2430.000
1052.728, 2413.000
1053.833, 2461.000
1054.939, 2475.000
1056.044, 2499.000
1057.148, 2414.000
1058.253, 2448.000
1059.358, 2429.000
1060.462, 2520.000
1061.566, 2520.000
1062.670, 2457.000
1063.774, 2477.000
1064.878, 2478.000
1065.981, 2466.000
1067.085, 2470.997
1068.188, 2481.000
1069.291, 2474.000
1070.394, 2491.000
1071.496, 2525.000
1072.599, 2547.000
1073.701, 2508.000
1074.803, 2505.000
1075.905, 2558.000
1077.007, 2497.000
1078.109, 2493.000
1079.210, 2533.000
1080.312, 2476.000
1081.413, 2495.000
1082.514, 2505.156
1083.615, 2502.757
1084.715, 2525.000
1085.816, 2533.000
1086.916, 2523.000
1088.016, 2528.000
1089.116, 2507.000
1090.216, 2538.000
1091.316, 2524.000
1092.415, 2588.000
1093.515, 2531.000
1094.614, 2576.000
1095.713, 2581.000
1096.812, 2593.000
1097.910, 2627.000
1099.009, 2573.000
1100.107, 2605.000
1101.205, 2628.000
1102.303, 2628.000
1103.401, 2587.000
1104.499, 2581.000
1105.596, 2591.000
1106.693, 2666.000
1107.791, 2662.000
1108.888, 2693.000
1109.984, 2689.000
1111.081, 2718.000
1112.177, 2777.000
1113.274, 2788.000
1114.370, 2763.000
1115.466, 2731.000
1116.562, 2809.000
1117.657, 2817.000
1118.753, 2884.000
1119.848, 2920.000
1120.943, 2923.000
1122.038, 2957.000
1123.133, 2948.000
1124.228, 2953.000
1125.322, 3025.000
1126.416, 2978.000
1127.510, 3038.000
1128.604, 3041.000
1129.698, 3026.000
1130.792, 3015.000
1131.885, 3054.869
1132.978, 3138.000
1134.071, 3128.000
1135.164, 3170.000
1136.257, 3182.000
1137.350, 3186.139
1138.442, 3174.000
1139.534, 3187.000
1140.627, 3200.000
1141.718, 3179.000
1142.810, 3223.000
1143.902, 3242.000
1144.993, 3181.000
1146.084, 3265.000
1147.176, 3206.000
1148.266, 3249.000
1149.357, 3186.000
1150.448, 3194.000
1151.538, 3289.000
1152.628, 3197.000
1153.718, 3293.000
1154.808, 3224.000
1155.898, 3204.000
1156.988, 3195.000
1158.077, 3192.000
1159.166, 3249.000
1160.255, 3210.000
1161.344, 3176.000
1162.433, 3137.000
1163.521, 3231.000
1164.610, 3214.000
1165.698, 3189.000
1166.786, 3132.000
1167.874, 3192.000
1168.961, 3114.000
1170.049, 3160.000
1171.136, 3151.000
1172.224, 3083.000
1173.311, 3172.000
1174.397, 3118.000
1175.484, 3119.000
1176.571, 3186.000
1177.657, 3120.000
1178.743, 3101.000
1179.829, 3101.000
1180.915, 3107.000
1182.001, 3088.000
1183.086, 3016.000
1184.171, 3122.000
1185.256, 3139.000
1186.341, 3073.000
1187.426, 3054.000
1188.511, 3140.000
1189.595, 3106.000
1190.680, 3089.000
1191.764, 3107.000
1192.848, 3027.000
1193.932, 3048.000
1195.015, 3051.121
1196.099, 3102.000
1197.182, 3106.000
1198.265, 3049.000
1199.348, 3109.000
1200.431, 3025.000
1201.513, 3006.000
1202.596, 3114.000
1203.678, 3029.000
1204.760, 3027.000
1205.842, 3035.000
1206.924, 3019.000
1208.005, 2996.000
1209.087, 3071.000
1210.168, 3078.000
1211.249, 3061.000
1212.330, 3017.000
1213.411, 3061.000
1214.491, 3081.000
1215.572, 3064.000
1216.652, 3051.000
1217.732, 3051.000
1218.812, 3076.000
1219.891, 3071.000
1220.971, 3059.202
1222.050, 3061.554
1223.129, 3018.000
1224.208, 3064.000
1225.287, 3043.000
1226.366, 3088.000
1227.444, 3078.000
1228.523, 3064.000
1229.601, 3082.000
1230.679, 3101.000
1231.757, 3103.995
1232.834, 3136.000
1233.912, 3125.000
1234.989, 3131.000
1236.066, 3134.000
1237.143, 3021.000
1238.220, 3126.000
1239.297, 3101.000
1240.373, 3138.000
1241.449, 3206.000
1242.526, 3174.000
1243.601, 3141.000
1244.677, 3064.000
1245.753, 3152.000
1246.828, 3171.000
1247.904, 3129.000
1248.979, 3066.590
1250.054, 3130.577
1251.128, 3170.974
1252.203, 3189.066
1253.277, 3118.002
1254.351, 3127.000
1255.426, 3196.000
1256.499, 3168.000
1257.573, 3144.000
1258.647, 3135.000
1259.720, 3169.000
1260.793, 3227.000
1261.866, 3169.000
1262.939, 3177.000
1264.012, 3241.000
1265.084, 3219.000
1266.157, 3258.543
1267.229, 3194.000
1268.301, 3268.000
1269.373, 3253.000
1270.444, 3175.000
1271.516, 3251.000
1272.587, 3245.000
1273.658, 3173.000
1274.729, 3298.000
1275.800, 3312.000
1276.871, 3234.000
1277.941, 3249.000
1279.011, 3234.000
1280.082, 3217.000
1281.151, 3252.000
1282.221, 3239.000
1283.291, 3267.000
1284.360, 3205.000
1285.430, 3272.000
1286.499, 3322.000
1287.568, 3233.000
1288.636, 3289.000
1289.705, 3352.000
1290.773, 3235.000
1291.841, 3307.000
1292.909, 3372.000
1293.977, 3331.000
1295.045, 3317.000
1296.113, 3355.000
1297.180, 3364.000
1298.247, 3374.000
1299.314, 3337.000
1300.381, 3368.000
1301.448, 3356.000
1302.514, 3359.000
1303.580, 3358.000
1304.647, 3338.000
1305.713, 3335.441
1306.778, 3332.218
1307.844, 3311.000
1308.910, 3311.000
1309.975, 3295.000
1311.040, 3241.879
1312.105, 3280.000
1313.170, 3191.000
1314.234, 3218.000
1315.299, 3261.000
1316.363, 3146.000
1317.427, 3172.000
1318.491, 3134.000
1319.555, 3190.000
1320.618, 3058.000
1321.682, 3078.000
1322.745, 3044.000
1323.808, 3028.000
1324.871, 3027.000
1325.933, 3033.000
1326.996, 2958.000
1328.058, 2966.000
1329.121, 2980.000
1330.183, 2990.000
1331.244, 2872.000
1332.306, 2920.000
1333.368, 2838.000
1334.429, 2899.000
1335.490, 2811.000
1336.551, 2818.000
1337.612, 2774.000
1338.672, 2835.000
1339.733, 2791.031
1340.793, 2775.000
1341.853, 2740.000
1342.913, 2731.000
1343.973, 2692.000
1345.033, 2655.000
1346.092, 2685.000
1347.151, 2674.000
1348.210, 2681.000
1349.269, 2623.000
1350.328, 2603.000
1351.386, 2622.000
1352.445, 2584.946
1353.503, 2581.000
1354.561, 2562.000
1355.619, 2523.000
1356.677, 2512.000
1357.734, 2509.013
1358.791, 2525.000
1359.849, 2522.000
1360.906, 2554.000
1361.962, 2568.000
1363.019, 2525.000
1364.075, 2473.000
1365.132, 2536.000
1366.188, 2545.000
1367.244, 2500.000
1368.300, 2493.000
1369.355, 2476.000
1370.411, 2461.883
1371.466, 2454.000
1372.521, 2458.000
1373.576, 2456.000
1374.631, 2472.000
1375.685, 2446.000
1376.740, 2413.000
1377.794, 2428.000
1378.848, 2397.000
1379.902, 2401.589
1380.955, 2379.000
1382.009, 2401.000
1383.062, 2370.000
1384.115, 2356.000
1385.168, 2380.000
1386.221, 2311.000
1387.274, 2333.000
1388.326, 2342.000
1389.379, 2345.000
1390.431, 2304.000
1391.483, 2295.000
1392.534, 2255.000
1393.586, 2305.000
1394.637, 2281.000
1395.689, 2289.000
1396.740, 2266.088
1397.791, 2260.384
1398.841, 2223.000
1399.892, 2239.000
1400.942, 2282.000
1401.993, 2265.000
1403.043, 2199.000
1404.092, 2289.000
1405.142, 2264.000
1406.192, 2169.000
1407.241, 2186.000
1408.290, 2181.000
1409.339, 2187.000
1410.388, 2202.000
1411.437, 2175.000
1412.485, 2254.000
1413.533, 2164.000
1414.581, 2152.000
1415.629, 2205.000
1416.677, 2176.000
1417.725, 2181.000
1418.772, 2212.000
1419.819, 2185.000
1420.867, 2169.000
1421.913, 2132.000
1422.960, 2172.000
1424.007, 2104.000
1425.053, 2174.000
1426.099, 2086.000
1427.145, 2167.000
1428.191, 2168.743
1429.237, 2149.375
1430.282, 2215.000
1431.328, 2122.000
1432.373, 2136.000
1433.418, 2087.000
1434.462, 2070.000
1435.507, 2087.000
1436.552, 2151.000
1437.596, 2105.000
1438.640, 2114.000
1439.684, 2070.000
1440.728, 2138.000
1441.771, 2082.000
1442.815, 2090.000
1443.858, 2036.387
1444.901, 2088.244
1445.944, 2116.520
1446.986, 2122.485
1448.029, 2039.302
1449.071, 2071.234
1450.113, 2057.034
1451.155, 2130.000
1452.197, 2120.000
1453.239, 2097.000
1454.280, 2119.000
1455.322, 2136.000
1456.363, 2073.000
1457.404, 2124.000
1458.444, 2047.000
1459.485, 2129.000
1460.525, 2059.000
1461.566, 2066.000
1462.606, 2065.995
1463.646, 2057.973
1464.685, 2078.000
1465.725, 2044.000
1466.764, 2131.000
1467.803, 2044.000
1468.842, 2099.000
1469.881, 2070.000
1470.920, 2104.000
1471.958, 2107.276
1472.997, 2090.000
1474.035, 2105.000
1475.073, 2054.000
1476.111, 2032.000
1477.148, 2024.000
1478.186, 2045.000
1479.223, 2053.000
1480.260, 2059.000
1481.297, 2133.000
1482.334, 2125.000
1483.370, 2163.000
1484.407, 2019.000
1485.443, 2063.000
1486.479, 2093.000
1487.515, 2054.000
1488.550, 2082.000
1489.586, 2085.000
1490.621, 2039.000
1491.656, 2077.000
1492.691, 2038.000
1493.726, 2064.000
1494.761, 2040.000
1495.795, 2066.000
1496.829, 2019.000
1497.863, 2050.000
1498.897, 2033.000
1499.931, 2082.000
1500.965, 2096.000
1501.998, 2059.000
1503.031, 2023.000
1504.064, 2148.000
1505.097, 2088.000
1506.130, 2105.000
1507.162, 2023.000
1508.195, 2063.000
1509.227, 2053.000
1510.259, 2032.000
1511.291, 2090.000
1512.322, 2067.000
1513.354, 2051.000
1514.385, 2110.000
1515.416, 2062.000
1516.447, 2020.000
1517.478, 2067.000
1518.508, 2053.000
1519.539, 2039.000
1520.569, 2048.000
1521.599, 2039.417
1522.629, 2055.000
1523.658, 2039.000
1524.688, 2072.000
1525.717, 2071.000
1526.746, 2063.000
1527.775, 2108.000
1528.804, 2069.000
1529.833, 2068.000
1530.861, 2119.000
1531.890, 2028.000
1532.918, 2069.000
1533.946, 2046.000
1534.973, 2119.000
1536.001, 2090.240
1537.028, 2101.629
1538.055, 2070.000
1539.082, 2066.000
1540.109, 2079.000
1541.136, 1995.000
1542.163, 2070.000
1543.189, 2118.000
1544.215, 2075.000
1545.241, 2055.000
1546.267, 2038.689
1547.292, 2097.344
1548.318, 2132.422
1549.343, 2145.182
1550.368, 2068.797
1551.393, 2107.524
1552.418, 2100.120
1553.442, 2090.820
1554.467, 2145.749
1555.491, 2082.324
1556.515, 2136.230
1557.539, 2030.000
1558.562, 2100.000
1559.586, 2025.000
1560.609, 2065.000
1561.632, 2078.000
1562.655, 2101.000
1563.678, 2075.000
1564.701, 2073.000
1565.723, 2095.000
1566.745, 2117.000
1567.768, 2056.000
1568.789, 2059.000
1569.811, 2040.000
1570.833, 2050.000
1571.854, 2036.000
1572.875, 2013.000
1573.896, 2046.000
1574.917, 2038.000
1575.938, 2064.000
1576.958, 2056.000
##END=



