##NAMES=Hausmannite
##RRUFFID=R060512
##IDEAL CHEMISTRY=Mn^2+^Mn^3+^_2_O_4_
##LOCALITY=N'Chwaning II mine, Kalahari manganese field, northern Cape Province, Republic of South Africa
##OWNER=RRUFF
##SOURCE=Michael Scott
##DESCRIPTION=Group of black pseudo-octahedra with striations parallel to the (001) plane
##STATUS=The identification of this mineral has been confirmed by X-ray diffraction and chemical analysis
##URL=rruff.info/R060512
##MEASURED CHEMISTRY=Mn^2+^_0.99_Mn^3+^_1.98_O_4_
##PIN_ID=M00870
##ORIENTATION=Laser parallel to c* (0 0 1). Fiducial mark perpendicular to laser is parallel to a [1 0 0]
149.9700, 10723.00
151.2000, 10862.00
152.4310, 10929.00
153.6610, 11001.00
154.8910, 11037.00
156.1210, 10882.00
157.3500, 11074.00
158.5800, 11033.00
159.8090, 11090.00
161.0380, 11229.00
162.2670, 11209.00
163.4960, 11212.71
164.7240, 11160.78
165.9530, 11125.00
167.1810, 11037.00
168.4090, 10994.00
169.6370, 11101.00
170.8650, 11137.00
172.0920, 11050.00
173.3200, 11006.00
174.5470, 11018.00
175.7740, 10874.00
177.0010, 10968.00
178.2280, 10900.00
179.4540, 10911.00
180.6810, 10871.00
181.9070, 10982.00
183.1330, 10951.00
184.3590, 10869.00
185.5850, 10729.00
186.8100, 10759.00
188.0350, 10552.00
189.2610, 10736.00
190.4860, 10743.00
191.7110, 10540.00
192.9350, 10868.00
194.1600, 10819.00
195.3840, 10756.00
196.6080, 10732.00
197.8320, 10603.00
199.0560, 10589.00
200.2800, 10791.00
201.5030, 10818.00
202.7270, 10621.00
203.9500, 10445.00
205.1730, 10453.00
206.3950, 10447.00
207.6180, 10185.00
208.8410, 10277.00
210.0630, 10229.00
211.2850, 10216.00
212.5070, 10142.00
213.7290, 10280.00
214.9500, 10194.00
216.1720, 10290.00
217.3930, 10186.00
218.6140, 10327.00
219.8350, 10058.00
221.0560, 10066.00
222.2770, 10209.00
223.4970, 10133.00
224.7170, 10163.76
225.9370, 9971.000
227.1570, 10073.00
228.3770, 10010.00
229.5970, 9850.000
230.8160, 9878.000
232.0350, 9843.099
233.2540, 9848.000
234.4730, 9873.000
235.6920, 9842.000
236.9110, 9839.000
238.1290, 9829.273
239.3470, 9754.000
240.5650, 9817.000
241.7830, 9692.000
243.0010, 9716.000
244.2180, 9618.000
245.4360, 9795.000
246.6530, 9799.000
247.8700, 9740.000
249.0870, 9662.000
250.3040, 9625.000
251.5200, 9604.057
252.7370, 9677.000
253.9530, 9600.000
255.1690, 9593.000
256.3850, 9603.000
257.6000, 9575.000
258.8160, 9565.304
260.0310, 9548.410
261.2460, 9542.000
262.4610, 9550.000
263.6760, 9579.000
264.8910, 9679.000
266.1050, 9551.000
267.3200, 9418.000
268.5340, 9527.000
269.7480, 9497.000
270.9620, 9627.000
272.1750, 9551.000
273.3890, 9433.000
274.6020, 9481.000
275.8150, 9366.000
277.0280, 9381.000
278.2410, 9412.000
279.4540, 9447.000
280.6660, 9566.000
281.8790, 9431.000
283.0910, 9563.000
284.3030, 9396.000
285.5140, 9522.000
286.7260, 9489.000
287.9380, 9315.000
289.1490, 9383.000
290.3600, 9433.000
291.5710, 9515.000
292.7820, 9263.000
293.9920, 9260.000
295.2030, 9257.000
296.4130, 9421.000
297.6230, 9467.000
298.8330, 9447.000
300.0430, 9367.000
301.2520, 9391.000
302.4620, 9496.000
303.6710, 9325.000
304.8800, 9445.000
306.0890, 9686.000
307.2980, 9649.000
308.5070, 9742.000
309.7150, 9909.000
310.9230, 10117.00
312.1310, 10033.00
313.3390, 10295.00
314.5470, 10630.00
315.7550, 10958.00
316.9620, 10976.00
318.1690, 10978.00
319.3760, 10813.00
320.5830, 10809.00
321.7900, 10479.00
322.9960, 10404.00
324.2030, 10189.00
325.4090, 9981.000
326.6150, 9846.000
327.8210, 9726.000
329.0270, 9663.000
330.2320, 9593.000
331.4380, 9486.000
332.6430, 9446.235
333.8480, 9385.895
335.0530, 9356.000
336.2580, 9373.000
337.4620, 9363.000
338.6670, 9389.421
339.8710, 9405.000
341.0750, 9442.000
342.2790, 9399.000
343.4820, 9389.000
344.6860, 9482.000
345.8890, 9518.000
347.0920, 9484.000
348.2960, 9350.000
349.4980, 9510.000
350.7010, 9411.000
351.9040, 9543.000
353.1060, 9500.000
354.3080, 9538.000
355.5100, 9735.000
356.7120, 9605.000
357.9140, 9776.000
359.1150, 9871.000
360.3170, 9999.000
361.5180, 10111.00
362.7190, 10259.00
363.9200, 10277.00
365.1200, 10435.00
366.3210, 10497.00
367.5210, 10493.00
368.7210, 10403.00
369.9210, 10400.00
371.1210, 10332.00
372.3210, 10337.00
373.5200, 10142.00
374.7200, 10054.93
375.9190, 9969.000
377.1180, 9746.000
378.3170, 9615.000
379.5150, 9436.000
380.7140, 9368.376
381.9120, 9347.000
383.1110, 9275.000
384.3090, 9248.000
385.5060, 9203.000
386.7040, 9182.000
387.9020, 9067.000
389.0990, 9162.000
390.2960, 9152.000
391.4930, 9085.000
392.6900, 9150.000
393.8860, 9156.000
395.0830, 9069.000
396.2790, 9068.000
397.4750, 9094.000
398.6710, 9010.000
399.8670, 9030.000
401.0630, 9043.000
402.2580, 9118.000
403.4540, 8906.000
404.6490, 9040.000
405.8440, 8935.000
407.0390, 9000.000
408.2330, 8946.000
409.4280, 9152.000
410.6220, 9132.000
411.8160, 8956.000
413.0100, 9110.000
414.2040, 9025.000
415.3980, 9147.000
416.5910, 9093.000
417.7850, 9256.000
418.9780, 9095.000
420.1710, 8990.000
421.3640, 8971.000
422.5560, 9106.000
423.7490, 9165.000
424.9410, 9149.000
426.1330, 9044.000
427.3250, 9027.000
428.5170, 9061.000
429.7090, 9138.000
430.9000, 9139.000
432.0910, 9093.000
433.2820, 9218.000
434.4730, 9073.000
435.6640, 9074.000
436.8550, 9213.000
438.0450, 9214.000
439.2360, 9115.000
440.4260, 9132.000
441.6160, 9222.000
442.8060, 9180.000
443.9950, 9159.000
445.1850, 9136.000
446.3740, 9131.000
447.5630, 9185.000
448.7520, 9247.000
449.9410, 9229.235
451.1300, 9212.000
452.3180, 9256.000
453.5060, 9231.000
454.6950, 9318.000
455.8830, 9166.000
457.0700, 9263.000
458.2580, 9375.000
459.4450, 9211.000
460.6330, 9298.000
461.8200, 9322.000
463.0070, 9413.000
464.1940, 9272.000
465.3800, 9321.000
466.5670, 9295.000
467.7530, 9315.000
468.9390, 9308.000
470.1250, 9342.881
471.3110, 9349.000
472.4970, 9385.000
473.6820, 9369.000
474.8680, 9295.000
476.0530, 9277.000
477.2380, 9328.000
478.4230, 9259.000
479.6070, 9354.000
480.7920, 9343.000
481.9760, 9350.000
483.1600, 9514.000
484.3440, 9542.000
485.5280, 9595.000
486.7120, 9536.000
487.8950, 9575.000
489.0780, 9555.000
490.2620, 9466.000
491.4450, 9512.052
492.6270, 9499.326
493.8100, 9548.000
494.9920, 9516.000
496.1750, 9568.000
497.3570, 9512.000
498.5390, 9512.000
499.7210, 9536.000
500.9020, 9607.000
502.0840, 9573.000
503.2650, 9612.000
504.4460, 9642.000
505.6270, 9796.000
506.8080, 9731.000
507.9890, 9730.000
509.1690, 9796.000
510.3500, 9617.000
511.5300, 9733.000
512.7100, 9740.000
513.8900, 9672.000
515.0690, 9845.000
516.2490, 9881.000
517.4280, 9886.000
518.6070, 9799.000
519.7860, 9795.000
520.9650, 9775.314
522.1440, 9913.000
523.3220, 9818.000
524.5010, 9945.000
525.6790, 10117.00
526.8570, 9935.000
528.0350, 10012.00
529.2130, 10034.00
530.3900, 9971.000
531.5670, 9995.000
532.7450, 10017.00
533.9220, 10024.00
535.0980, 10094.00
536.2750, 9874.000
537.4520, 10080.00
538.6280, 9902.000
539.8040, 10038.00
540.9800, 10033.00
542.1560, 9985.000
543.3320, 10176.00
544.5070, 10166.00
545.6830, 10162.00
546.8580, 10178.25
548.0330, 10313.71
549.2080, 10399.93
550.3830, 10439.55
551.5570, 10293.00
552.7310, 10386.83
553.9060, 10384.34
555.0800, 10377.88
556.2540, 10505.54
557.4270, 10386.05
558.6010, 10511.58
559.7740, 10539.29
560.9470, 10611.76
562.1210, 10550.00
563.2930, 10584.00
564.4660, 10712.00
565.6390, 10614.00
566.8110, 10741.00
567.9830, 10709.00
569.1550, 10646.00
570.3270, 10766.00
571.4990, 10646.00
572.6710, 10623.00
573.8420, 10538.00
575.0130, 10626.00
576.1840, 10485.40
577.3550, 10443.00
578.5260, 10288.00
579.6970, 10264.00
580.8670, 10196.00
582.0370, 10067.00
583.2070, 9922.000
584.3770, 9963.000
585.5470, 9868.000
586.7170, 9735.000
587.8860, 9693.000
589.0550, 9505.000
590.2240, 9575.000
591.3930, 9509.403
592.5620, 9425.000
593.7310, 9493.000
594.8990, 9516.000
596.0670, 9489.000
597.2350, 9538.000
598.4030, 9597.000
599.5710, 9591.992
600.7390, 9599.000
601.9060, 9620.000
603.0740, 9645.000
604.2410, 9646.000
605.4080, 9692.000
606.5740, 9780.000
607.7410, 9686.000
608.9080, 9713.000
610.0740, 9867.000
611.2400, 10036.00
612.4060, 10042.00
613.5720, 10118.00
614.7370, 10233.00
615.9030, 10293.00
617.0680, 10542.00
618.2330, 10553.84
619.3980, 10680.00
620.5630, 10647.00
621.7280, 10708.00
622.8920, 10708.73
624.0570, 10716.00
625.2210, 10839.00
626.3850, 10912.00
627.5490, 11007.00
628.7120, 11084.00
629.8760, 11274.00
631.0390, 11327.00
632.2020, 11587.00
633.3650, 11892.00
634.5280, 12069.00
635.6910, 12374.00
636.8530, 12966.00
638.0160, 13230.00
639.1780, 13783.00
640.3400, 14541.00
641.5020, 15016.00
642.6640, 16133.00
643.8250, 16978.00
644.9870, 18630.00
646.1480, 20295.00
647.3090, 22338.00
648.4700, 25104.00
649.6300, 28199.00
650.7910, 32355.00
651.9510, 37015.00
653.1120, 42134.00
654.2720, 47640.00
655.4320, 52449.00
656.5910, 56011.00
657.7510, 57045.00
658.9100, 56274.00
660.0690, 53062.00
661.2290, 48425.00
662.3880, 43473.00
663.5460, 38558.00
664.7050, 33714.00
665.8630, 29789.00
667.0220, 26209.00
668.1800, 23470.00
669.3380, 21230.00
670.4950, 19195.00
671.6530, 17809.00
672.8100, 16500.00
673.9680, 15659.00
675.1250, 14750.00
676.2820, 14104.00
677.4390, 13310.00
678.5950, 12970.00
679.7520, 12499.00
680.9080, 12282.00
682.0640, 11929.00
683.2200, 11602.00
684.3760, 11429.00
685.5320, 11207.00
686.6870, 10903.00
687.8420, 10688.00
688.9980, 10823.00
690.1530, 10591.00
691.3070, 10530.00
692.4620, 10329.00
693.6170, 10318.00
694.7710, 10291.00
695.9250, 10182.00
697.0790, 10152.00
698.2330, 10152.00
699.3870, 10008.00
700.5400, 10056.00
701.6940, 9853.000
702.8470, 9880.000
704.0000, 9964.000
705.1530, 9906.000
706.3050, 9836.000
707.4580, 9758.000
708.6100, 9792.000
709.7630, 9802.000
710.9150, 9805.000
712.0660, 9825.963
713.2180, 9801.000
714.3700, 9866.000
715.5210, 9826.000
716.6720, 9877.000
717.8240, 9794.000
718.9740, 9740.000
720.1250, 9816.000
721.2760, 9695.000
722.4260, 9734.000
723.5770, 9669.000
724.7270, 9860.000
725.8770, 9808.000
727.0260, 9727.000
728.1760, 9792.000
729.3250, 9755.000
730.4750, 9672.000
731.6240, 9678.000
732.7730, 9722.000
733.9220, 9789.000
735.0700, 9769.000
736.2190, 9743.000
737.3670, 9801.000
738.5150, 9787.000
739.6630, 9635.000
740.8110, 9805.000
741.9590, 9626.000
743.1060, 9561.000
744.2540, 9643.000
745.4010, 9613.000
746.5480, 9610.000
747.6950, 9477.000
748.8410, 9531.000
749.9880, 9569.000
751.1340, 9637.000
752.2800, 9662.000
753.4260, 9649.130
754.5720, 9596.000
755.7180, 9607.000
756.8640, 9583.063
758.0090, 9527.000
759.1540, 9559.000
760.2990, 9526.000
761.4440, 9503.000
762.5890, 9538.000
763.7340, 9479.000
764.8780, 9469.000
766.0220, 9565.000
767.1660, 9495.000
768.3100, 9492.000
769.4540, 9530.000
770.5980, 9474.000
771.7410, 9487.000
772.8840, 9461.161
774.0280, 9421.000
775.1700, 9451.000
776.3130, 9396.000
777.4560, 9486.000
778.5980, 9307.000
779.7410, 9392.000
780.8830, 9155.000
782.0250, 9308.000
783.1670, 9334.000
784.3080, 9351.000
785.4500, 9400.000
786.5910, 9320.000
787.7320, 9224.000
788.8730, 9245.000
790.0140, 9195.000
791.1550, 9261.000
792.2950, 9237.133
793.4360, 9302.000
794.5760, 9234.000
795.7160, 9265.000
796.8560, 9265.000
797.9960, 9209.000
799.1350, 9251.000
800.2750, 9218.000
801.4140, 9244.000
802.5530, 9263.000
803.6920, 9300.000
804.8310, 9237.000
805.9690, 9210.000
807.1080, 9159.000
808.2460, 9090.000
809.3840, 9184.000
810.5220, 9139.000
811.6600, 9266.000
812.7970, 9209.000
813.9350, 9234.000
815.0720, 9209.000
816.2090, 9114.000
817.3460, 9204.000
818.4830, 9058.000
819.6200, 9137.000
820.7560, 9056.000
821.8930, 9089.000
823.0290, 9033.000
824.1650, 9095.000
825.3010, 9117.000
826.4360, 9092.455
827.5720, 9013.000
828.7070, 9056.000
829.8420, 9049.000
830.9770, 9000.000
832.1120, 9060.000
833.2470, 9057.000
834.3820, 8957.000
835.5160, 9038.000
836.6500, 9026.000
837.7840, 9039.000
838.9180, 9126.000
840.0520, 9063.000
841.1860, 8989.000
842.3190, 9044.000
843.4520, 9119.000
844.5850, 9141.000
845.7180, 8956.000
846.8510, 9000.000
847.9840, 8901.000
849.1160, 9009.000
850.2490, 8953.000
851.3810, 8974.000
852.5130, 9014.000
853.6450, 9059.000
854.7760, 8914.000
855.9080, 9045.000
857.0390, 8972.000
858.1700, 9144.000
859.3010, 9031.000
860.4320, 9063.000
861.5630, 8954.000
862.6930, 8944.000
863.8240, 9000.000
864.9540, 9056.000
866.0840, 9092.000
867.2140, 9004.000
868.3440, 9213.000
869.4730, 8951.000
870.6030, 8948.000
871.7320, 9334.000
872.8610, 8944.000
873.9900, 8992.000
875.1190, 9027.000
876.2470, 9155.000
877.3760, 9163.000
878.5040, 9040.000
879.6320, 9083.000
880.7600, 9116.000
881.8880, 8911.000
883.0150, 9124.000
884.1430, 9206.000
885.2700, 9111.000
886.3970, 8983.000
887.5240, 9034.000
888.6510, 8974.000
889.7780, 9051.000
890.9040, 9009.000
892.0310, 9053.000
893.1570, 9099.000
894.2830, 9024.000
895.4090, 9009.000
896.5350, 8952.000
897.6600, 8975.000
898.7860, 8965.347
899.9110, 9034.000
901.0360, 8989.000
902.1610, 9021.000
903.2860, 9034.000
904.4100, 9151.000
905.5350, 9173.000
906.6590, 9098.000
907.7830, 9063.000
908.9070, 9065.000
910.0310, 9043.000
911.1540, 9047.000
912.2780, 9051.460
913.4010, 9056.081
914.5240, 9089.000
915.6470, 9054.000
916.7700, 9109.000
917.8930, 9049.000
919.0150, 9129.000
920.1380, 9116.000
921.2600, 9003.000
922.3820, 9093.000
923.5040, 9103.000
924.6260, 9048.000
925.7470, 9125.000
926.8690, 9077.000
927.9900, 9163.000
929.1110, 9085.000
930.2320, 9097.026
931.3530, 9144.000
932.4730, 9064.000
933.5940, 9063.000
934.7140, 9034.000
935.8340, 9162.000
936.9540, 9166.000
938.0740, 9086.000
939.1930, 9009.000
940.3130, 9214.000
941.4320, 9075.000
942.5510, 9211.000
943.6700, 9234.000
944.7890, 9163.000
945.9080, 9232.000
947.0260, 9156.000
948.1450, 9119.000
949.2630, 9238.000
950.3810, 9253.000
951.4990, 9183.000
952.6170, 9243.000
953.7340, 9247.000
954.8520, 9191.000
955.9690, 9228.995
957.0860, 9261.000
958.2030, 9235.000
959.3200, 9216.000
960.4360, 9224.000
961.5530, 9230.000
962.6690, 9201.000
963.7850, 9229.000
964.9010, 9198.734
966.0170, 9239.000
967.1330, 9183.000
968.2480, 9217.000
969.3630, 9270.000
970.4790, 9247.000
971.5940, 9292.000
972.7080, 9249.000
973.8230, 9307.000
974.9380, 9334.000
976.0520, 9393.000
977.1660, 9390.000
978.2800, 9342.000
979.3940, 9221.000
980.5080, 9228.000
981.6220, 9204.827
982.7350, 9263.000
983.8480, 9217.000
984.9610, 9292.000
986.0740, 9277.000
987.1870, 9227.000
988.3000, 9315.000
989.4120, 9343.000
990.5250, 9367.000
991.6370, 9370.339
992.7490, 9363.170
993.8610, 9349.000
994.9720, 9296.000
996.0840, 9328.000
997.1950, 9241.000
998.3060, 9125.000
999.4170, 9321.000
1000.528, 9328.000
1001.639, 9236.000
1002.750, 9211.000
1003.860, 9242.000
1004.970, 9342.000
1006.080, 9308.000
1007.190, 9252.000
1008.300, 9218.000
1009.410, 9257.000
1010.519, 9319.000
1011.628, 9222.000
1012.738, 9324.000
1013.846, 9199.000
1014.955, 9290.000
1016.064, 9178.000
1017.172, 9288.000
1018.281, 9263.000
1019.389, 9158.000
1020.497, 9160.000
1021.605, 9234.000
1022.713, 9263.000
1023.820, 9159.000
1024.928, 9256.000
1026.035, 9116.000
1027.142, 9105.000
1028.249, 9220.000
1029.356, 9349.000
1030.462, 9325.000
1031.569, 9148.000
1032.675, 9174.000
1033.781, 9226.000
1034.887, 9175.000
1035.993, 9190.000
1037.098, 9193.000
1038.204, 9136.000
1039.309, 9182.000
1040.415, 9257.000
1041.520, 9316.000
1042.624, 9228.000
1043.729, 9274.000
1044.834, 9179.000
1045.938, 9160.604
1047.042, 9274.000
1048.146, 9128.000
1049.250, 9204.000
1050.354, 9273.000
1051.458, 9342.000
1052.561, 9332.000
1053.664, 9240.000
1054.767, 9190.000
1055.870, 9251.000
1056.973, 9157.000
1058.076, 9279.000
1059.178, 9351.000
1060.281, 9243.000
1061.383, 9313.000
1062.485, 9207.000
1063.587, 9243.000
1064.688, 9256.000
1065.790, 9294.000
1066.891, 9333.000
1067.993, 9290.000
1069.094, 9247.000
1070.195, 9333.000
1071.295, 9301.000
1072.396, 9304.000
1073.496, 9266.000
1074.597, 9217.000
1075.697, 9323.000
1076.797, 9341.000
1077.897, 9430.000
1078.996, 9380.000
1080.096, 9364.000
1081.195, 9395.000
1082.294, 9376.000
1083.393, 9413.000
1084.492, 9422.399
1085.591, 9386.080
1086.689, 9459.000
1087.788, 9350.000
1088.886, 9363.000
1089.984, 9431.000
1091.082, 9262.000
1092.180, 9283.000
1093.277, 9378.000
1094.375, 9412.000
1095.472, 9363.000
1096.569, 9479.000
1097.666, 9436.000
1098.763, 9358.000
1099.860, 9386.000
1100.956, 9379.000
1102.053, 9476.000
1103.149, 9399.000
1104.245, 9514.000
1105.341, 9651.000
1106.436, 9647.000
1107.532, 9509.000
1108.627, 9502.000
1109.723, 9561.000
1110.818, 9636.000
1111.913, 9652.000
1113.007, 9612.000
1114.102, 9561.000
1115.197, 9658.000
1116.291, 9679.000
1117.385, 9769.000
1118.479, 9805.000
1119.573, 9888.000
1120.666, 9904.000
1121.760, 9905.000
1122.853, 9892.000
1123.947, 9941.000
1125.040, 9885.000
1126.132, 10034.00
1127.225, 9957.000
1128.318, 9883.000
1129.410, 9978.000
1130.502, 9906.000
1131.595, 9943.000
1132.687, 9912.000
1133.778, 9990.000
1134.870, 9875.000
1135.961, 9840.000
1137.053, 9902.000
1138.144, 9943.000
1139.235, 9979.000
1140.326, 9955.520
1141.416, 9961.195
1142.507, 9869.000
1143.597, 9913.000
1144.688, 9865.000
1145.778, 9829.000
1146.868, 9875.000
1147.957, 9923.000
1149.047, 9784.000
1150.136, 9913.000
1151.226, 9864.000
1152.315, 9880.000
1153.404, 10028.00
1154.493, 9845.000
1155.581, 9868.000
1156.670, 9839.000
1157.758, 9732.000
1158.846, 9856.000
1159.934, 9884.000
1161.022, 9691.000
1162.110, 9712.000
1163.198, 9673.000
1164.285, 9738.000
1165.372, 9730.000
1166.459, 9740.000
1167.546, 9741.000
1168.633, 9784.000
1169.720, 9748.000
1170.806, 9678.000
1171.892, 9726.000
1172.979, 9667.000
1174.065, 9638.000
1175.150, 9719.000
1176.236, 9746.000
1177.322, 9730.000
1178.407, 9709.000
1179.492, 9692.000
1180.577, 9741.000
1181.662, 9787.000
1182.747, 9593.000
1183.832, 9632.000
1184.916, 9584.000
1186.000, 9626.000
1187.084, 9688.000
1188.168, 9664.000
1189.252, 9605.000
1190.336, 9590.000
1191.419, 9529.000
1192.503, 9595.000
1193.586, 9602.000
1194.669, 9601.000
1195.752, 9588.000
1196.835, 9656.000
1197.917, 9666.000
1199.000, 9594.000
1200.082, 9684.000
1201.164, 9679.000
1202.246, 9659.000
1203.328, 9580.000
1204.409, 9556.000
1205.491, 9573.000
1206.572, 9535.000
1207.653, 9600.000
1208.734, 9580.000
1209.815, 9608.070
1210.896, 9599.000
1211.976, 9600.448
1213.057, 9596.000
1214.137, 9613.000
1215.217, 9603.000
1216.297, 9633.731
1217.377, 9626.959
1218.456, 9701.000
1219.536, 9623.000
1220.615, 9578.000
1221.694, 9565.000
1222.773, 9662.000
1223.852, 9714.000
1224.931, 9693.000
1226.009, 9636.000
1227.088, 9801.000
1228.166, 9572.000
1229.244, 9720.000
1230.322, 9769.000
1231.400, 9752.000
1232.477, 9760.000
1233.555, 9711.000
1234.632, 9860.000
1235.709, 9653.000
1236.786, 9732.000
1237.863, 9653.000
1238.939, 9752.000
1240.016, 9803.000
1241.092, 9807.000
1242.168, 9808.000
1243.245, 9815.000
1244.320, 9768.000
1245.396, 9748.640
1246.472, 9770.000
1247.547, 9709.000
1248.622, 9698.000
1249.697, 9770.000
1250.772, 9819.000
1251.847, 9810.000
1252.922, 9779.000
1253.996, 9784.000
1255.071, 9881.000
1256.145, 9781.000
1257.219, 9849.000
1258.293, 9743.000
1259.366, 9706.000
1260.440, 9764.000
1261.513, 9762.000
1262.587, 9821.000
1263.660, 9832.000
1264.733, 9847.000
1265.805, 9757.000
1266.878, 9702.000
1267.951, 9693.000
1269.023, 9675.188
1270.095, 9815.000
1271.167, 9734.000
1272.239, 9802.000
1273.311, 9895.000
1274.382, 9688.000
1275.454, 9764.000
1276.525, 9733.000
1277.596, 9773.000
1278.667, 9770.000
1279.738, 9837.000
1280.808, 9840.000
1281.879, 9721.000
1282.949, 9904.000
1284.019, 9779.000
1285.089, 9955.000
1286.159, 9881.000
1287.229, 9854.000
1288.298, 9759.000
1289.368, 9845.000
1290.437, 9906.000
1291.506, 9970.000
1292.575, 9901.000
1293.644, 9994.000
1294.712, 9941.000
1295.781, 10018.00
1296.849, 9931.000
1297.917, 9942.000
1298.985, 9930.000
1300.053, 9979.000
1301.121, 9972.236
1302.188, 9970.000
1303.255, 9976.000
1304.323, 10006.00
1305.390, 9980.000
1306.457, 9844.000
1307.523, 9895.000
1308.590, 9879.000
1309.656, 9753.000
1310.723, 9899.000
1311.789, 9800.000
1312.855, 9790.000
1313.921, 9722.000
1314.986, 9701.000
1316.052, 9726.000
1317.117, 9810.000
1318.182, 9763.000
1319.248, 9772.000
1320.312, 9718.000
1321.377, 9586.000
1322.442, 9533.000
1323.506, 9483.014
1324.571, 9500.000
1325.635, 9463.000
1326.699, 9428.000
1327.762, 9531.000
1328.826, 9540.000
1329.890, 9511.000
1330.953, 9505.000
1332.016, 9528.000
1333.079, 9510.828
1334.142, 9468.000
1335.205, 9500.000
1336.268, 9545.000
1337.330, 9521.000
1338.392, 9474.000
1339.454, 9477.000
1340.516, 9442.098
1341.578, 9433.000
1342.640, 9405.000
1343.701, 9412.000
1344.763, 9413.000
1345.824, 9401.000
1346.885, 9458.000
1347.946, 9377.000
1349.007, 9399.000
1350.067, 9500.000
1351.128, 9503.000
1352.188, 9218.000
1353.248, 9531.000
1354.308, 9414.000
1355.368, 9320.000
1356.428, 9431.000
1357.487, 9401.000
1358.547, 9254.000
1359.606, 9287.000
1360.665, 9256.000
1361.724, 9337.000
1362.783, 9363.000
1363.841, 9362.000
1364.900, 9383.000
1365.958, 9427.000
1367.016, 9309.000
1368.074, 9259.000
1369.132, 9307.000
1370.190, 9217.000
1371.247, 9339.000
1372.304, 9237.000
1373.362, 9393.000
1374.419, 9226.000
1375.476, 9280.000
1376.532, 9286.000
1377.589, 9322.000
1378.645, 9270.000
1379.702, 9244.000
1380.758, 9299.000
1381.814, 9367.000
1382.870, 9299.000
1383.925, 9225.000
1384.981, 9267.000
1386.036, 9247.000
1387.092, 9189.000
1388.147, 9145.000
1389.202, 9171.000
1390.256, 9146.000
1391.311, 9161.000
1392.365, 9207.000
1393.420, 9209.000
1394.474, 9246.000
1395.528, 9194.000
1396.582, 9216.339
1397.636, 9237.000
1398.689, 9200.000
1399.742, 9197.000
1400.796, 9157.000
1401.849, 9178.000
1402.902, 9178.000
1403.955, 9206.000
1405.007, 9204.802
1406.060, 9198.473
1407.112, 9181.000
1408.164, 9189.000
1409.216, 9118.000
1410.268, 9140.000
1411.320, 9092.000
1412.371, 9168.000
1413.423, 9176.000
1414.474, 9231.000
1415.525, 9264.000
1416.576, 9009.000
1417.627, 9087.000
1418.678, 9107.000
1419.728, 9274.000
1420.778, 9182.000
1421.829, 9151.000
1422.879, 9108.000
1423.928, 9143.000
1424.978, 9109.000
1426.028, 9101.000
1427.077, 9191.000
1428.126, 9086.000
1429.176, 9271.000
1430.225, 9231.000
1431.273, 9103.000
1432.322, 9138.000
1433.371, 9045.000
1434.419, 9128.000
1435.467, 9228.000
1436.515, 9172.000
1437.563, 9118.000
1438.611, 9062.000
1439.658, 9079.000
1440.706, 9136.000
1441.753, 9128.000
1442.800, 9160.283
1443.847, 9127.000
1444.894, 9175.000
1445.941, 9159.000
1446.987, 9116.000
1448.034, 9100.000
1449.080, 9136.000
1450.126, 9210.000
1451.172, 9200.000
1452.218, 9207.583
1453.263, 9212.118
1454.309, 9160.000
1455.354, 9168.000
1456.399, 9127.000
1457.444, 9073.000
1458.489, 9093.215
1459.534, 9127.000
1460.579, 9123.000
1461.623, 9160.000
1462.667, 9212.000
1463.711, 9152.000
1464.755, 9046.000
1465.799, 9080.000
1466.843, 9136.000
1467.886, 9208.000
1468.930, 9133.000
1469.973, 9055.000
1471.016, 9215.000
1472.059, 9202.000
1473.101, 9219.000
1474.144, 9314.000
1475.186, 9232.958
1476.229, 9128.000
1477.271, 9143.000
1478.313, 9134.000
1479.355, 9134.000
1480.396, 9141.000
1481.438, 9049.000
1482.479, 9073.000
1483.520, 9154.000
1484.561, 9047.000
1485.602, 9046.000
1486.643, 9118.000
1487.684, 9056.000
1488.724, 9114.000
1489.765, 9046.000
1490.805, 9145.000
1491.845, 9030.000
1492.885, 9075.000
1493.924, 9137.000
1494.964, 9119.000
1496.003, 9130.000
1497.042, 9082.000
1498.082, 9102.000
1499.120, 9180.000
1500.159, 9075.000
1501.198, 9151.000
1502.236, 9158.000
1503.275, 9079.000
1504.313, 9114.000
1505.351, 9147.000
1506.389, 9146.000
1507.427, 9039.000
1508.464, 9050.000
1509.502, 8925.000
1510.539, 9044.000
1511.576, 9199.000
1512.613, 9049.000
1513.650, 9149.000
1514.687, 9218.000
1515.723, 9031.000
1516.759, 8996.000
1517.796, 9110.000
1518.832, 9041.000
1519.868, 9070.000
1520.903, 9179.000
1521.939, 9095.000
1522.975, 9005.000
1524.010, 9036.000
1525.045, 9128.000
1526.080, 9176.000
1527.115, 9008.000
1528.150, 9126.000
1529.184, 9071.000
1530.219, 8989.000
1531.253, 9190.000
1532.287, 9059.000
1533.321, 9061.000
1534.355, 9132.000
1535.388, 9076.000
1536.422, 9136.000
1537.455, 9055.000
1538.488, 9031.000
1539.522, 8976.000
1540.554, 9071.000
1541.587, 9109.000
1542.620, 9159.000
1543.652, 9119.000
1544.685, 8990.000
1545.717, 9119.000
1546.749, 9118.000
1547.781, 9024.000
1548.812, 9247.000
1549.844, 9122.000
1550.875, 9151.000
1551.906, 9252.000
1552.938, 9288.000
1553.968, 9316.738
1554.999, 9285.000
1556.030, 9301.538
1557.060, 9248.000
1558.091, 9118.000
1559.121, 9111.000
1560.151, 9058.000
1561.181, 9073.000
1562.211, 9016.000
1563.240, 8991.000
1564.270, 9132.000
1565.299, 9029.000
1566.328, 9101.000
1567.357, 9042.000
1568.386, 9053.000
1569.415, 9089.000
1570.443, 9129.000
1571.472, 9078.000
1572.500, 9053.000
1573.528, 9049.000
1574.556, 9127.000
1575.584, 9029.000
1576.611, 9103.000
1577.639, 9123.000
##END=



