##NAMES=Hausmannite
##RRUFFID=R040090
##IDEAL CHEMISTRY=Mn^2+^Mn^3+^_2_O_4_
##LOCALITY=Ã–hrenstock, Ilmenau, near Thuringia, Germany
##OWNER=RRUFF
##SOURCE=University of Arizona Mineral Museum
##DESCRIPTION=Mass of black octahedral crystals
##STATUS=The identification of this mineral has been confirmed by X-ray diffraction and chemical analysis
##URL=rruff.info/R040090
##MEASURED CHEMISTRY=(Mn^2+^_0.71_Zn_0.28_)Mn^3+^_2.00_O_4_
##PIN_ID=M01013
##ORIENTATION=Laser parallel to a* (1 0 0). Fiducial mark perpendicular to laser is parallel to c [0 0 1]
127.4030, 2781.000
128.6310, 2882.000
129.8580, 2952.000
131.0850, 2830.000
132.3120, 2715.000
133.5390, 2727.000
134.7660, 2600.000
135.9930, 2753.000
137.2200, 2730.000
138.4460, 2788.000
139.6720, 2760.000
140.8980, 2655.000
142.1240, 2595.000
143.3500, 2559.000
144.5760, 2521.000
145.8020, 2571.000
147.0270, 2515.000
148.2520, 2514.000
149.4780, 2460.000
150.7030, 2467.953
151.9270, 2488.000
153.1520, 2464.000
154.3770, 2423.000
155.6010, 2375.000
156.8260, 2334.687
158.0500, 2384.046
159.2740, 2409.824
160.4980, 2413.289
161.7210, 2327.612
162.9450, 2357.044
164.1690, 2340.344
165.3920, 2321.756
166.6150, 2367.394
167.8380, 2313.000
169.0610, 2395.000
170.2840, 2387.000
171.5070, 2346.000
172.7290, 2328.000
173.9510, 2384.000
175.1740, 2402.000
176.3960, 2469.000
177.6180, 2438.000
178.8390, 2352.000
180.0610, 2338.000
181.2830, 2364.000
182.5040, 2297.000
183.7250, 2333.000
184.9460, 2257.000
186.1670, 2248.000
187.3880, 2270.000
188.6090, 2305.000
189.8290, 2245.000
191.0500, 2190.000
192.2700, 2207.000
193.4900, 2211.000
194.7100, 2197.000
195.9300, 2246.000
197.1490, 2256.000
198.3690, 2171.000
199.5880, 2202.000
200.8080, 2200.000
202.0270, 2145.000
203.2460, 2179.000
204.4650, 2207.000
205.6830, 2164.000
206.9020, 2133.000
208.1200, 2130.000
209.3380, 2158.000
210.5570, 2141.345
211.7750, 2127.932
212.9920, 2155.000
214.2100, 2090.000
215.4280, 2110.000
216.6450, 2120.000
217.8620, 2106.000
219.0790, 2164.000
220.2960, 2126.000
221.5130, 2146.000
222.7300, 2138.000
223.9460, 2112.000
225.1630, 2122.000
226.3790, 2064.000
227.5950, 2054.000
228.8110, 2033.000
230.0270, 2022.000
231.2430, 2004.000
232.4580, 2005.571
233.6740, 2045.000
234.8890, 2009.000
236.1040, 2009.000
237.3190, 2001.000
238.5340, 1968.000
239.7490, 2007.000
240.9630, 1993.000
242.1780, 1941.000
243.3920, 2054.000
244.6060, 2080.000
245.8200, 2013.000
247.0340, 2070.000
248.2470, 2060.000
249.4610, 2045.000
250.6740, 2096.000
251.8880, 2169.000
253.1010, 2179.000
254.3140, 2188.000
255.5270, 2205.000
256.7390, 2099.000
257.9520, 2036.000
259.1640, 2067.000
260.3760, 2056.000
261.5880, 2066.000
262.8000, 2083.930
264.0120, 2064.000
265.2240, 2104.000
266.4350, 2105.000
267.6470, 2091.000
268.8580, 2183.000
270.0690, 2099.000
271.2800, 2141.000
272.4910, 2142.021
273.7020, 2204.205
274.9120, 2242.802
276.1230, 2259.091
277.3330, 2186.229
278.5430, 2228.479
279.7530, 2224.597
280.9630, 2312.000
282.1720, 2340.000
283.3820, 2363.000
284.5910, 2408.000
285.8000, 2432.436
287.0090, 2500.000
288.2180, 2513.000
289.4270, 2584.000
290.6360, 2667.000
291.8440, 2639.000
293.0530, 2680.000
294.2610, 2668.000
295.4690, 2672.000
296.6770, 2637.000
297.8850, 2701.000
299.0920, 2732.000
300.3000, 2812.000
301.5070, 2787.000
302.7140, 2809.000
303.9210, 2932.000
305.1280, 3060.000
306.3350, 3186.000
307.5420, 3305.000
308.7480, 3417.000
309.9540, 3720.000
311.1600, 3902.000
312.3660, 3989.000
313.5720, 4301.000
314.7780, 4458.000
315.9840, 4540.000
317.1890, 4788.000
318.3940, 4810.000
319.6000, 5153.000
320.8050, 4974.611
322.0090, 4928.000
323.2140, 4633.000
324.4190, 4423.000
325.6230, 4203.000
326.8270, 3943.000
328.0320, 3719.000
329.2360, 3553.000
330.4390, 3394.000
331.6430, 3278.000
332.8470, 3091.000
334.0500, 3131.000
335.2530, 3018.000
336.4560, 3065.000
337.6590, 2981.323
338.8620, 2916.778
340.0650, 2846.000
341.2670, 2835.000
342.4700, 2790.000
343.6720, 2788.348
344.8740, 2734.000
346.0760, 2791.000
347.2780, 2815.000
348.4790, 2794.000
349.6810, 2854.000
350.8820, 2782.000
352.0830, 2774.000
353.2840, 2857.000
354.4850, 2910.000
355.6860, 2929.000
356.8870, 2991.000
358.0870, 3029.000
359.2870, 3097.323
360.4880, 3145.000
361.6880, 3227.000
362.8870, 3300.000
364.0870, 3323.000
365.2870, 3400.000
366.4860, 3514.000
367.6850, 3537.000
368.8850, 3612.000
370.0840, 3681.000
371.2820, 3671.000
372.4810, 3626.000
373.6800, 3642.000
374.8780, 3537.000
376.0760, 3625.000
377.2740, 3448.000
378.4720, 3402.000
379.6700, 3382.000
380.8680, 3165.000
382.0650, 3092.000
383.2630, 3028.000
384.4600, 2899.000
385.6570, 2865.000
386.8540, 2766.000
388.0510, 2728.000
389.2470, 2648.000
390.4440, 2538.000
391.6400, 2579.000
392.8360, 2508.000
394.0320, 2536.000
395.2280, 2454.000
396.4240, 2330.000
397.6190, 2363.000
398.8150, 2313.000
400.0100, 2295.000
401.2050, 2263.000
402.4000, 2253.000
403.5950, 2214.000
404.7900, 2257.000
405.9840, 2243.000
407.1790, 2188.000
408.3730, 2153.000
409.5670, 2202.000
410.7610, 2183.000
411.9550, 2131.000
413.1480, 2150.000
414.3420, 2207.000
415.5350, 2166.000
416.7280, 2198.000
417.9220, 2241.000
419.1140, 2168.000
420.3070, 2166.000
421.5000, 2136.000
422.6920, 2170.000
423.8850, 2186.000
425.0770, 2196.000
426.2690, 2163.000
427.4610, 2163.374
428.6520, 2180.000
429.8440, 2117.000
431.0350, 2195.000
432.2260, 2161.000
433.4180, 2187.000
434.6090, 2172.000
435.7990, 2219.000
436.9900, 2176.000
438.1800, 2259.000
439.3710, 2226.910
440.5610, 2209.000
441.7510, 2231.000
442.9410, 2180.000
444.1310, 2248.000
445.3200, 2240.000
446.5100, 2273.000
447.6990, 2249.000
448.8880, 2254.000
450.0770, 2207.060
451.2660, 2274.131
452.4550, 2317.621
453.6430, 2338.786
454.8320, 2270.818
456.0200, 2317.950
457.2080, 2318.951
458.3960, 2318.061
459.5840, 2381.395
460.7720, 2326.382
461.9590, 2388.687
463.1460, 2431.000
464.3340, 2437.000
465.5210, 2457.000
466.7080, 2493.000
467.8940, 2469.000
469.0810, 2527.000
470.2670, 2551.000
471.4540, 2541.000
472.6400, 2671.000
473.8260, 2625.000
475.0120, 2647.000
476.1970, 2753.000
477.3830, 2688.000
478.5680, 2694.000
479.7540, 2720.000
480.9390, 2745.000
482.1240, 2739.000
483.3080, 2706.000
484.4930, 2700.270
485.6780, 2677.000
486.8620, 2653.000
488.0460, 2632.000
489.2300, 2619.000
490.4140, 2659.000
491.5980, 2621.000
492.7810, 2656.000
493.9650, 2653.000
495.1480, 2693.000
496.3310, 2629.000
497.5140, 2705.000
498.6970, 2687.000
499.8800, 2732.000
501.0620, 2773.000
502.2440, 2781.000
503.4270, 2804.468
504.6090, 2802.000
505.7910, 2815.000
506.9720, 2813.000
508.1540, 2807.000
509.3350, 2837.000
510.5170, 2841.000
511.6980, 2867.000
512.8790, 2877.000
514.0600, 2760.000
515.2400, 2852.000
516.4210, 2788.000
517.6010, 2778.000
518.7810, 2829.000
519.9620, 2763.000
521.1410, 2790.000
522.3210, 2763.000
523.5010, 2765.000
524.6800, 2801.000
525.8600, 2813.000
527.0390, 2803.000
528.2180, 2847.000
529.3970, 2799.000
530.5750, 2817.000
531.7540, 2808.000
532.9320, 2840.000
534.1110, 2835.000
535.2890, 2859.000
536.4670, 2841.000
537.6440, 2915.000
538.8220, 2881.000
540.0000, 2959.000
541.1770, 2935.000
542.3540, 2913.000
543.5310, 2921.000
544.7080, 2936.880
545.8850, 2968.617
547.0610, 3013.000
548.2380, 3056.000
549.4140, 3119.000
550.5900, 3147.000
551.7660, 3155.000
552.9420, 3232.000
554.1170, 3275.000
555.2930, 3337.000
556.4680, 3413.000
557.6430, 3488.000
558.8180, 3581.000
559.9930, 3616.451
561.1680, 3686.713
562.3430, 3685.000
563.5170, 3798.000
564.6910, 3828.000
565.8650, 3897.000
567.0390, 3977.000
568.2130, 3938.000
569.3870, 3981.000
570.5600, 3997.000
571.7340, 3993.000
572.9070, 4001.128
574.0800, 3995.000
575.2530, 3953.000
576.4250, 3937.000
577.5980, 3849.000
578.7700, 3858.000
579.9430, 3879.000
581.1150, 3928.000
582.2870, 3874.000
583.4590, 3914.000
584.6300, 3890.000
585.8020, 3881.000
586.9730, 3797.000
588.1440, 3822.000
589.3150, 3785.000
590.4860, 3795.416
591.6570, 3782.000
592.8270, 3820.000
593.9980, 3796.000
595.1680, 3763.000
596.3380, 3832.000
597.5080, 3866.000
598.6780, 3855.000
599.8480, 3789.000
601.0170, 3893.000
602.1860, 3877.000
603.3550, 3970.000
604.5240, 4013.000
605.6930, 4051.000
606.8620, 4048.000
608.0310, 4146.000
609.1990, 4221.000
610.3670, 4324.000
611.5350, 4446.000
612.7030, 4539.000
613.8710, 4587.000
615.0390, 4731.000
616.2060, 4772.000
617.3730, 4910.965
618.5410, 5014.000
619.7080, 5172.000
620.8740, 5325.000
622.0410, 5450.000
623.2080, 5703.000
624.3740, 5722.000
625.5400, 5977.000
626.7060, 6126.000
627.8720, 6171.000
629.0380, 6503.000
630.2040, 6545.000
631.3690, 6798.000
632.5340, 7108.000
633.6990, 7282.000
634.8640, 7475.000
636.0290, 7907.000
637.1940, 8196.000
638.3580, 8605.000
639.5230, 8813.000
640.6870, 9229.000
641.8510, 9828.000
643.0150, 10477.00
644.1790, 11018.00
645.3420, 11708.00
646.5060, 12489.00
647.6690, 13444.00
648.8320, 14550.00
649.9950, 15548.00
651.1580, 16776.00
652.3200, 18335.00
653.4830, 19783.00
654.6450, 21570.00
655.8070, 22811.00
656.9690, 24308.00
658.1310, 26064.00
659.2930, 27139.00
660.4540, 28252.00
661.6160, 28998.00
662.7770, 28936.00
663.9380, 29026.00
665.0990, 28534.00
666.2600, 27490.00
667.4200, 26371.00
668.5810, 24806.00
669.7410, 23342.00
670.9010, 21509.00
672.0610, 20053.00
673.2210, 18445.00
674.3810, 16785.00
675.5400, 15415.00
676.6990, 13986.00
677.8590, 12688.00
679.0180, 11694.00
680.1760, 10702.00
681.3350, 9956.000
682.4940, 9146.000
683.6520, 8540.000
684.8100, 7944.000
685.9680, 7407.000
687.1260, 6953.000
688.2840, 6510.000
689.4420, 6156.000
690.5990, 5943.000
691.7560, 5608.000
692.9140, 5381.046
694.0710, 5318.000
695.2270, 4987.000
696.3840, 4751.000
697.5410, 4681.000
698.6970, 4465.000
699.8530, 4318.000
701.0090, 4153.000
702.1650, 4019.248
703.3210, 3966.000
704.4760, 3824.000
705.6320, 3792.000
706.7870, 3779.000
707.9420, 3702.000
709.0970, 3685.000
710.2520, 3568.000
711.4060, 3558.000
712.5610, 3436.000
713.7150, 3391.000
714.8690, 3359.000
716.0230, 3259.000
717.1770, 3273.000
718.3310, 3236.000
719.4840, 3165.000
720.6380, 3173.000
721.7910, 3237.000
722.9440, 3180.000
724.0970, 3153.000
725.2490, 3143.165
726.4020, 3086.844
727.5540, 3057.000
728.7070, 3034.000
729.8590, 2949.000
731.0110, 2993.000
732.1620, 2945.000
733.3140, 2981.000
734.4650, 2966.000
735.6170, 2905.000
736.7680, 2851.000
737.9190, 2800.000
739.0700, 2787.235
740.2200, 2868.000
741.3710, 2799.000
742.5210, 2811.000
743.6710, 2861.000
744.8210, 2811.000
745.9710, 2853.000
747.1210, 2788.000
748.2700, 2821.000
749.4200, 2749.000
750.5690, 2754.000
751.7180, 2757.000
752.8670, 2729.000
754.0160, 2796.000
755.1640, 2722.488
756.3130, 2667.000
757.4610, 2632.000
758.6090, 2682.000
759.7570, 2685.000
760.9050, 2662.000
762.0530, 2566.000
763.2000, 2612.000
764.3470, 2595.000
765.4940, 2633.000
766.6410, 2556.000
767.7880, 2644.000
768.9350, 2597.933
770.0810, 2536.000
771.2280, 2537.000
772.3740, 2562.000
773.5200, 2488.000
774.6660, 2517.000
775.8120, 2444.000
776.9570, 2465.000
778.1030, 2485.000
779.2480, 2510.000
780.3930, 2486.859
781.5380, 2494.404
782.6830, 2431.000
783.8270, 2446.000
784.9720, 2418.000
786.1160, 2335.000
787.2600, 2469.000
788.4040, 2367.000
789.5480, 2383.000
790.6910, 2368.000
791.8350, 2343.000
792.9780, 2380.000
794.1210, 2308.000
795.2640, 2351.000
796.4070, 2304.000
797.5500, 2321.000
798.6920, 2306.000
799.8350, 2317.448
800.9770, 2336.000
802.1190, 2312.000
803.2610, 2333.000
804.4030, 2232.000
805.5440, 2300.000
806.6850, 2222.000
807.8270, 2231.000
808.9680, 2224.000
810.1090, 2216.000
811.2490, 2242.000
812.3900, 2271.000
813.5300, 2281.000
814.6710, 2279.000
815.8110, 2243.000
816.9510, 2248.100
818.0910, 2245.210
819.2300, 2218.000
820.3700, 2257.000
821.5090, 2227.000
822.6480, 2233.000
823.7870, 2214.000
824.9260, 2246.000
826.0640, 2193.000
827.2030, 2191.000
828.3410, 2142.000
829.4790, 2186.000
830.6170, 2171.000
831.7550, 2200.000
832.8930, 2164.000
834.0310, 2129.000
835.1680, 2137.000
836.3050, 2126.000
837.4420, 2100.000
838.5790, 2125.000
839.7160, 2193.000
840.8520, 2143.000
841.9890, 2157.000
843.1250, 2164.000
844.2610, 2124.000
845.3970, 2177.000
846.5330, 2170.000
847.6680, 2130.000
848.8040, 2138.555
849.9390, 2088.000
851.0740, 2090.000
852.2090, 2132.000
853.3440, 2102.000
854.4780, 2132.000
855.6130, 2135.000
856.7470, 2114.000
857.8810, 2124.000
859.0150, 2095.000
860.1490, 2107.000
861.2830, 2132.000
862.4160, 2097.000
863.5490, 2144.000
864.6830, 2087.000
865.8160, 2108.000
866.9480, 2092.000
868.0810, 2135.000
869.2140, 2045.000
870.3460, 2144.000
871.4780, 2069.000
872.6100, 2147.000
873.7420, 2107.000
874.8740, 2114.000
876.0050, 2110.000
877.1370, 2126.000
878.2680, 2113.813
879.3990, 2113.000
880.5300, 2114.000
881.6600, 2103.000
882.7910, 2144.000
883.9210, 2113.000
885.0520, 2149.000
886.1820, 2135.000
887.3120, 2123.000
888.4410, 2116.000
889.5710, 2096.976
890.7000, 2100.565
891.8300, 2104.000
892.9590, 2086.000
894.0880, 2179.000
895.2160, 2139.000
896.3450, 2217.000
897.4730, 2184.000
898.6020, 2185.000
899.7300, 2152.000
900.8580, 2218.000
901.9860, 2167.000
903.1130, 2089.000
904.2410, 2179.000
905.3680, 2245.000
906.4950, 2207.000
907.6220, 2199.000
908.7490, 2154.000
909.8760, 2190.000
911.0020, 2189.000
912.1280, 2194.000
913.2550, 2180.000
914.3810, 2199.000
915.5060, 2173.000
916.6320, 2242.000
917.7580, 2257.000
918.8830, 2225.000
920.0080, 2195.000
921.1330, 2244.000
922.2580, 2240.000
923.3830, 2202.000
924.5070, 2263.000
925.6310, 2245.073
926.7560, 2236.000
927.8800, 2262.000
929.0040, 2223.816
930.1270, 2222.000
931.2510, 2188.000
932.3740, 2190.000
933.4970, 2232.000
934.6200, 2194.000
935.7430, 2232.000
936.8660, 2234.000
937.9890, 2232.000
939.1110, 2259.000
940.2330, 2269.000
941.3550, 2210.000
942.4770, 2243.000
943.5990, 2225.000
944.7200, 2248.000
945.8420, 2242.000
946.9630, 2239.000
948.0840, 2211.000
949.2050, 2229.000
950.3260, 2213.306
951.4460, 2270.000
952.5670, 2212.000
953.6870, 2291.000
954.8070, 2318.000
955.9270, 2271.000
957.0470, 2283.000
958.1660, 2320.000
959.2860, 2285.312
960.4050, 2280.990
961.5240, 2302.000
962.6430, 2230.000
963.7620, 2319.000
964.8810, 2313.000
965.9990, 2305.000
967.1170, 2277.000
968.2350, 2277.000
969.3530, 2309.000
970.4710, 2299.000
971.5890, 2318.000
972.7060, 2358.000
973.8240, 2365.000
974.9410, 2325.000
976.0580, 2378.000
977.1740, 2285.000
978.2910, 2341.000
979.4080, 2345.000
980.5240, 2317.000
981.6400, 2359.000
982.7560, 2370.000
983.8720, 2343.000
984.9870, 2398.000
986.1030, 2384.000
987.2180, 2312.000
988.3330, 2335.000
989.4480, 2355.000
990.5630, 2365.000
991.6780, 2421.000
992.7920, 2350.000
993.9070, 2315.000
995.0210, 2353.000
996.1350, 2430.000
997.2490, 2415.000
998.3620, 2263.000
999.4760, 2348.000
1000.589, 2315.000
1001.702, 2368.000
1002.815, 2393.000
1003.928, 2425.000
1005.041, 2338.000
1006.153, 2299.000
1007.266, 2303.000
1008.378, 2287.000
1009.490, 2329.000
1010.602, 2329.209
1011.713, 2305.000
1012.825, 2350.000
1013.936, 2345.000
1015.047, 2325.000
1016.158, 2286.000
1017.269, 2244.000
1018.380, 2264.000
1019.490, 2244.000
1020.601, 2264.000
1021.711, 2229.000
1022.821, 2248.000
1023.931, 2232.000
1025.040, 2227.113
1026.150, 2264.000
1027.259, 2229.000
1028.368, 2247.000
1029.477, 2266.000
1030.586, 2302.000
1031.695, 2211.000
1032.803, 2270.000
1033.912, 2259.000
1035.020, 2227.000
1036.128, 2252.000
1037.236, 2299.000
1038.343, 2195.000
1039.451, 2247.000
1040.558, 2212.000
1041.665, 2243.000
1042.772, 2221.000
1043.879, 2230.000
1044.986, 2304.000
1046.093, 2270.000
1047.199, 2305.000
1048.305, 2260.000
1049.411, 2257.000
1050.517, 2285.000
1051.623, 2288.000
1052.728, 2249.000
1053.833, 2312.000
1054.939, 2300.000
1056.044, 2286.000
1057.148, 2317.000
1058.253, 2335.000
1059.358, 2321.000
1060.462, 2286.000
1061.566, 2299.000
1062.670, 2285.000
1063.774, 2317.000
1064.878, 2290.000
1065.981, 2324.000
1067.085, 2334.041
1068.188, 2332.000
1069.291, 2364.000
1070.394, 2339.000
1071.496, 2339.000
1072.599, 2372.000
1073.701, 2325.000
1074.803, 2317.000
1075.905, 2283.000
1077.007, 2297.000
1078.109, 2334.000
1079.210, 2284.000
1080.312, 2324.833
1081.413, 2313.327
1082.514, 2363.000
1083.615, 2298.000
1084.715, 2320.000
1085.816, 2290.191
1086.916, 2308.000
1088.016, 2302.000
1089.116, 2326.000
1090.216, 2357.000
1091.316, 2345.000
1092.415, 2361.000
1093.515, 2298.000
1094.614, 2320.000
1095.713, 2302.000
1096.812, 2338.000
1097.910, 2343.000
1099.009, 2364.000
1100.107, 2359.000
1101.205, 2397.000
1102.303, 2397.000
1103.401, 2449.000
1104.499, 2397.000
1105.596, 2404.000
1106.693, 2418.000
1107.791, 2452.000
1108.888, 2429.000
1109.984, 2404.000
1111.081, 2415.000
1112.177, 2457.000
1113.274, 2416.000
1114.370, 2482.000
1115.466, 2541.000
1116.562, 2511.000
1117.657, 2602.000
1118.753, 2532.000
1119.848, 2588.000
1120.943, 2608.000
1122.038, 2631.000
1123.133, 2561.000
1124.228, 2645.000
1125.322, 2697.000
1126.416, 2557.000
1127.510, 2651.000
1128.604, 2633.000
1129.698, 2591.000
1130.792, 2653.000
1131.885, 2666.000
1132.978, 2725.000
1134.071, 2774.000
1135.164, 2699.000
1136.257, 2734.000
1137.350, 2755.000
1138.442, 2783.000
1139.534, 2771.000
1140.627, 2738.000
1141.718, 2740.000
1142.810, 2744.000
1143.902, 2751.454
1144.993, 2777.000
1146.084, 2805.000
1147.176, 2714.000
1148.266, 2758.000
1149.357, 2811.000
1150.448, 2705.000
1151.538, 2858.000
1152.628, 2767.000
1153.718, 2742.000
1154.808, 2819.000
1155.898, 2810.000
1156.988, 2768.000
1158.077, 2738.000
1159.166, 2847.000
1160.255, 2851.000
1161.344, 2794.000
1162.433, 2790.000
1163.521, 2774.000
1164.610, 2739.000
1165.698, 2758.000
1166.786, 2745.987
1167.874, 2740.000
1168.961, 2751.000
1170.049, 2782.000
1171.136, 2778.000
1172.224, 2839.000
1173.311, 2764.000
1174.397, 2747.000
1175.484, 2753.000
1176.571, 2818.000
1177.657, 2721.000
1178.743, 2748.000
1179.829, 2747.000
1180.915, 2729.000
1182.001, 2763.000
1183.086, 2682.000
1184.171, 2723.000
1185.256, 2707.000
1186.341, 2693.000
1187.426, 2756.000
1188.511, 2715.000
1189.595, 2745.000
1190.680, 2713.000
1191.764, 2698.000
1192.848, 2746.000
1193.932, 2731.000
1195.015, 2726.000
1196.099, 2705.000
1197.182, 2708.137
1198.265, 2723.000
1199.348, 2708.000
1200.431, 2723.000
1201.513, 2717.000
1202.596, 2688.000
1203.678, 2736.000
1204.760, 2744.000
1205.842, 2693.000
1206.924, 2725.659
1208.005, 2709.000
1209.087, 2688.000
1210.168, 2693.832
1211.249, 2665.000
1212.330, 2679.000
1213.411, 2668.000
1214.491, 2668.801
1215.572, 2674.033
1216.652, 2717.000
1217.732, 2677.000
1218.812, 2685.000
1219.891, 2679.000
1220.971, 2618.000
1222.050, 2714.000
1223.129, 2743.000
1224.208, 2660.000
1225.287, 2663.000
1226.366, 2706.000
1227.444, 2743.000
1228.523, 2742.880
1229.601, 2748.000
1230.679, 2731.000
1231.757, 2785.000
1232.834, 2734.000
1233.912, 2785.000
1234.989, 2725.000
1236.066, 2751.000
1237.143, 2758.000
1238.220, 2739.000
1239.297, 2759.000
1240.373, 2768.000
1241.449, 2723.000
1242.526, 2753.000
1243.601, 2742.000
1244.677, 2697.000
1245.753, 2705.000
1246.828, 2698.000
1247.904, 2726.000
1248.979, 2726.000
1250.054, 2735.000
1251.128, 2729.000
1252.203, 2807.000
1253.277, 2716.000
1254.351, 2778.000
1255.426, 2746.000
1256.499, 2751.000
1257.573, 2718.000
1258.647, 2649.000
1259.720, 2741.000
1260.793, 2798.000
1261.866, 2778.000
1262.939, 2769.000
1264.012, 2751.000
1265.084, 2793.000
1266.157, 2790.000
1267.229, 2731.000
1268.301, 2858.000
1269.373, 2803.000
1270.444, 2762.000
1271.516, 2797.000
1272.587, 2865.000
1273.658, 2805.000
1274.729, 2808.000
1275.800, 2818.000
1276.871, 2806.000
1277.941, 2820.000
1279.011, 2791.000
1280.082, 2834.000
1281.151, 2816.000
1282.221, 2854.000
1283.291, 2796.000
1284.360, 2807.000
1285.430, 2789.000
1286.499, 2882.000
1287.568, 2812.000
1288.636, 2806.000
1289.705, 2830.000
1290.773, 2769.000
1291.841, 2821.040
1292.909, 2818.142
1293.977, 2895.000
1295.045, 2868.000
1296.113, 2912.000
1297.180, 2969.000
1298.247, 2868.000
1299.314, 2835.000
1300.381, 2894.000
1301.448, 2820.000
1302.514, 2840.000
1303.580, 2858.998
1304.647, 2858.000
1305.713, 2904.000
1306.778, 2878.000
1307.844, 2902.000
1308.910, 2880.000
1309.975, 2878.414
1311.040, 2879.144
1312.105, 2859.000
1313.170, 2855.000
1314.234, 2826.000
1315.299, 2778.000
1316.363, 2727.000
1317.427, 2769.000
1318.491, 2718.000
1319.555, 2725.000
1320.618, 2655.000
1321.682, 2681.000
1322.745, 2646.000
1323.808, 2678.000
1324.871, 2688.000
1325.933, 2656.000
1326.996, 2638.194
1328.058, 2627.601
1329.121, 2570.000
1330.183, 2583.000
1331.244, 2597.000
1332.306, 2553.000
1333.368, 2534.000
1334.429, 2592.000
1335.490, 2508.000
1336.551, 2460.316
1337.612, 2497.793
1338.672, 2511.707
1339.733, 2503.291
1340.793, 2405.746
1341.853, 2423.311
1342.913, 2394.747
1343.973, 2364.289
1345.033, 2398.058
1346.092, 2313.492
1347.151, 2379.000
1348.210, 2374.000
1349.269, 2389.000
1350.328, 2391.000
1351.386, 2398.000
1352.445, 2271.000
1353.503, 2328.089
1354.561, 2307.679
1355.619, 2373.000
1356.677, 2315.000
1357.734, 2361.000
1358.791, 2312.000
1359.849, 2297.000
1360.906, 2392.000
1361.962, 2246.000
1363.019, 2280.000
1364.075, 2241.000
1365.132, 2296.000
1366.188, 2307.000
1367.244, 2267.000
1368.300, 2274.000
1369.355, 2245.000
1370.411, 2238.000
1371.466, 2251.000
1372.521, 2219.000
1373.576, 2217.000
1374.631, 2252.000
1375.685, 2157.000
1376.740, 2240.000
1377.794, 2165.000
1378.848, 2165.000
1379.902, 2130.000
1380.955, 2176.000
1382.009, 2148.000
1383.062, 2149.000
1384.115, 2191.000
1385.168, 2214.000
1386.221, 2218.000
1387.274, 2215.703
1388.326, 2223.288
1389.379, 2178.000
1390.431, 2212.000
1391.483, 2197.660
1392.534, 2169.355
1393.586, 2187.000
1394.637, 2069.000
1395.689, 2103.000
1396.740, 2125.000
1397.791, 2071.000
1398.841, 2144.000
1399.892, 2131.000
1400.942, 2067.000
1401.993, 2198.000
1403.043, 2129.145
1404.092, 2146.788
1405.142, 2076.000
1406.192, 2122.000
1407.241, 2048.000
1408.290, 2001.000
1409.339, 2077.000
1410.388, 2112.000
1411.437, 2078.000
1412.485, 2034.000
1413.533, 2007.000
1414.581, 2092.000
1415.629, 2025.000
1416.677, 2061.000
1417.725, 2039.045
1418.772, 2021.189
1419.819, 2000.000
1420.867, 2004.000
1421.913, 2027.000
1422.960, 2035.000
1424.007, 2016.000
1425.053, 2070.000
1426.099, 2013.000
1427.145, 1979.000
1428.191, 2006.143
1429.237, 2001.000
1430.282, 2028.000
1431.328, 2015.000
1432.373, 2031.000
1433.418, 2015.000
1434.462, 2017.000
1435.507, 1999.000
1436.552, 1961.000
1437.596, 1972.000
1438.640, 2037.000
1439.684, 1983.000
1440.728, 2005.000
1441.771, 1980.000
1442.815, 1904.000
1443.858, 1987.000
1444.901, 1945.000
1445.944, 2007.000
1446.986, 1984.000
1448.029, 1961.000
1449.071, 1980.000
1450.113, 1988.000
1451.155, 2020.000
1452.197, 2000.000
1453.239, 1970.000
1454.280, 1959.000
1455.322, 2018.000
1456.363, 1994.000
1457.404, 2037.000
1458.444, 1960.000
1459.485, 1973.000
1460.525, 1975.000
1461.566, 1944.284
1462.606, 1989.000
1463.646, 1930.000
1464.685, 1926.000
1465.725, 1933.000
1466.764, 1971.000
1467.803, 1986.000
1468.842, 1999.000
1469.881, 1930.000
1470.920, 1981.000
1471.958, 1970.000
1472.997, 1981.000
1474.035, 2011.000
1475.073, 1995.000
1476.111, 1967.000
1477.148, 1934.000
1478.186, 1976.000
1479.223, 1985.000
1480.260, 1979.000
1481.297, 1980.000
1482.334, 1952.000
1483.370, 1978.000
1484.407, 1974.228
1485.443, 1986.935
1486.479, 1981.000
1487.515, 1982.000
1488.550, 1958.000
1489.586, 1958.834
1490.621, 1920.308
1491.656, 1969.000
1492.691, 1950.000
1493.726, 2002.000
1494.761, 1945.000
1495.795, 1931.000
1496.829, 1890.000
1497.863, 1909.000
1498.897, 1922.000
1499.931, 1948.000
1500.965, 1944.000
1501.998, 1933.000
1503.031, 1990.000
1504.064, 2002.000
1505.097, 1978.000
1506.130, 1945.000
1507.162, 1948.000
1508.195, 2002.000
1509.227, 1999.000
1510.259, 1956.000
1511.291, 1965.000
1512.322, 1946.000
1513.354, 1946.000
1514.385, 2001.000
1515.416, 1916.000
1516.447, 1938.000
1517.478, 2013.000
1518.508, 1988.000
1519.539, 1998.000
1520.569, 2013.000
1521.599, 1899.000
1522.629, 1982.000
1523.658, 1942.000
1524.688, 1893.000
1525.717, 2011.000
1526.746, 2019.000
1527.775, 1991.000
1528.804, 1954.000
1529.833, 1912.000
1530.861, 1945.000
1531.890, 1974.000
1532.918, 1988.000
1533.946, 2010.000
1534.973, 2024.000
1536.001, 1957.000
1537.028, 1920.000
1538.055, 1986.000
1539.082, 1976.000
1540.109, 2038.000
1541.136, 1983.000
1542.163, 1950.000
1543.189, 1987.000
1544.215, 1965.000
1545.241, 1908.967
1546.267, 1962.020
1547.292, 1991.493
1548.318, 1998.652
1549.343, 1916.666
1550.368, 1949.793
1551.393, 1936.787
1552.418, 1921.891
1553.442, 1971.220
1554.467, 1902.200
1555.491, 1950.511
1556.515, 1951.985
1557.539, 1974.896
1558.562, 1951.390
1559.586, 1942.220
1560.609, 1979.483
1561.632, 1989.000
1562.655, 1937.000
1563.678, 1913.000
1564.701, 1979.000
1565.723, 1985.000
1566.745, 1893.000
1567.768, 1976.000
1568.789, 1955.000
1569.811, 2027.000
1570.833, 2003.000
1571.854, 1988.000
1572.875, 2014.000
1573.896, 1982.000
1574.917, 1999.000
1575.938, 1985.000
1576.958, 2011.000
##END=



