##NAMES=Hausmannite
##RRUFFID=R040090
##IDEAL CHEMISTRY=Mn^2+^Mn^3+^_2_O_4_
##LOCALITY=Ã–hrenstock, Ilmenau, near Thuringia, Germany
##OWNER=RRUFF
##SOURCE=University of Arizona Mineral Museum
##DESCRIPTION=Mass of black octahedral crystals
##STATUS=The identification of this mineral has been confirmed by X-ray diffraction and chemical analysis
##URL=rruff.info/R040090
##MEASURED CHEMISTRY=(Mn^2+^_0.71_Zn_0.28_)Mn^3+^_2.00_O_4_
##PIN_ID=M00841
##ORIENTATION=Laser parallel to c* (0 0 1). Fiducial mark perpendicular to laser is parallel to a [1 0 0]
88.04900, 12403.00
89.28100, 12348.00
90.51200, 12369.00
91.74400, 12643.00
92.97600, 12756.00
94.20700, 12756.00
95.43800, 12560.00
96.66900, 12615.00
97.90100, 12415.17
99.13100, 12216.00
100.3620, 12193.00
101.5930, 12186.00
102.8230, 12353.00
104.0530, 12843.00
105.2840, 12732.00
106.5140, 13252.00
107.7440, 12863.00
108.9730, 12843.00
110.2030, 12613.00
111.4320, 12211.00
112.6620, 12544.00
113.8910, 12998.00
115.1200, 13853.00
116.3490, 14852.00
117.5780, 15185.00
118.8060, 15983.00
120.0350, 17224.00
121.2630, 16903.00
122.4920, 15436.00
123.7200, 13626.00
124.9480, 12428.00
126.1750, 11486.00
127.4030, 11211.00
128.6310, 11140.00
129.8580, 11060.00
131.0850, 11204.00
132.3120, 11251.00
133.5390, 11092.00
134.7660, 11027.00
135.9930, 10988.00
137.2200, 11226.00
138.4460, 11108.32
139.6720, 11028.00
140.8980, 11099.00
142.1240, 10799.00
143.3500, 10821.00
144.5760, 10868.00
145.8020, 10817.00
147.0270, 10745.00
148.2520, 10704.86
149.4780, 10684.00
150.7030, 10567.00
151.9270, 10511.00
153.1520, 10488.00
154.3770, 10608.00
155.6010, 10795.00
156.8260, 10740.00
158.0500, 10710.00
159.2740, 10541.00
160.4980, 10635.00
161.7210, 10820.00
162.9450, 10750.00
164.1690, 10734.00
165.3920, 10603.00
166.6150, 10604.98
167.8380, 10548.00
169.0610, 10564.00
170.2840, 10453.00
171.5070, 10424.00
172.7290, 10426.98
173.9510, 10441.61
175.1740, 10421.00
176.3960, 10424.51
177.6180, 10490.00
178.8390, 10438.00
180.0610, 10469.00
181.2830, 10538.00
182.5040, 10535.00
183.7250, 10447.00
184.9460, 10565.00
186.1670, 10564.00
187.3880, 10663.00
188.6090, 10617.00
189.8290, 10585.00
191.0500, 10487.00
192.2700, 10506.00
193.4900, 10422.00
194.7100, 10284.00
195.9300, 10294.00
197.1490, 10485.00
198.3690, 10379.00
199.5880, 10407.00
200.8080, 10331.00
202.0270, 10417.00
203.2460, 10139.00
204.4650, 10370.00
205.6830, 10330.00
206.9020, 10157.00
208.1200, 10199.00
209.3380, 10343.00
210.5570, 10158.00
211.7750, 10205.00
212.9920, 10205.00
214.2100, 10142.00
215.4280, 10172.00
216.6450, 10247.00
217.8620, 10132.00
219.0790, 10251.00
220.2960, 10027.00
221.5130, 10095.00
222.7300, 10042.00
223.9460, 10154.00
225.1630, 10104.00
226.3790, 10172.00
227.5950, 10134.00
228.8110, 10076.00
230.0270, 9858.000
231.2430, 10068.00
232.4580, 10018.00
233.6740, 10096.00
234.8890, 10219.00
236.1040, 10025.00
237.3190, 10194.00
238.5340, 10209.00
239.7490, 10231.00
240.9630, 10096.00
242.1780, 10112.54
243.3920, 9949.000
244.6060, 10052.00
245.8200, 9953.000
247.0340, 9959.000
248.2470, 10033.00
249.4610, 10200.00
250.6740, 10160.00
251.8880, 10238.00
253.1010, 10175.00
254.3140, 10133.00
255.5270, 10128.00
256.7390, 10213.00
257.9520, 10117.00
259.1640, 10128.00
260.3760, 10075.76
261.5880, 10158.85
262.8000, 10211.38
264.0120, 10234.99
265.2240, 10143.05
266.4350, 10200.31
267.6470, 10197.78
268.8580, 10175.00
270.0690, 10215.00
271.2800, 10146.00
272.4910, 10360.00
273.7020, 10183.00
274.9120, 9989.000
276.1230, 10322.00
277.3330, 10356.00
278.5430, 10309.00
279.7530, 10304.00
280.9630, 10366.00
282.1720, 10366.00
283.3820, 10453.00
284.5910, 10460.00
285.8000, 10563.00
287.0090, 10760.00
288.2180, 10664.00
289.4270, 10795.00
290.6360, 10763.00
291.8440, 10682.00
293.0530, 10971.00
294.2610, 10910.00
295.4690, 11084.00
296.6770, 11084.00
297.8850, 10894.00
299.0920, 10916.00
300.3000, 10994.00
301.5070, 10869.00
302.7140, 10966.00
303.9210, 11188.00
305.1280, 11237.00
306.3350, 11411.50
307.5420, 11486.00
308.7480, 11697.00
309.9540, 11935.00
311.1600, 12071.00
312.3660, 12218.00
313.5720, 12587.00
314.7780, 12796.00
315.9840, 13124.00
317.1890, 13203.00
318.3940, 13324.00
319.6000, 13373.00
320.8050, 13355.97
322.0090, 13291.71
323.2140, 13187.00
324.4190, 12985.44
325.6230, 12728.00
326.8270, 12452.00
328.0320, 12260.00
329.2360, 12168.00
330.4390, 11935.81
331.6430, 11792.37
332.8470, 11597.00
334.0500, 11474.00
335.2530, 11321.00
336.4560, 11203.00
337.6590, 11129.00
338.8620, 11176.00
340.0650, 11116.00
341.2670, 10957.00
342.4700, 11124.00
343.6720, 11104.02
344.8740, 11131.91
346.0760, 11152.00
347.2780, 11183.00
348.4790, 10940.00
349.6810, 10837.15
350.8820, 10884.02
352.0830, 10973.00
353.2840, 10977.00
354.4850, 10941.00
355.6860, 10991.00
356.8870, 11002.00
358.0870, 11155.00
359.2870, 11162.00
360.4880, 11125.00
361.6880, 11181.00
362.8870, 11136.00
364.0870, 11251.00
365.2870, 11306.00
366.4860, 11260.00
367.6850, 11281.00
368.8850, 11236.00
370.0840, 11193.00
371.2820, 11194.11
372.4810, 11190.65
373.6800, 11166.00
374.8780, 11163.00
376.0760, 11151.00
377.2740, 11132.96
378.4720, 11219.00
379.6700, 11073.00
380.8680, 10981.00
382.0650, 10885.00
383.2630, 10982.00
384.4600, 10685.00
385.6570, 10766.00
386.8540, 10927.00
388.0510, 10798.00
389.2470, 10750.00
390.4440, 10680.00
391.6400, 10744.00
392.8360, 10607.00
394.0320, 10743.00
395.2280, 10593.00
396.4240, 10571.00
397.6190, 10683.00
398.8150, 10561.00
400.0100, 10569.00
401.2050, 10519.00
402.4000, 10584.00
403.5950, 10556.00
404.7900, 10677.00
405.9840, 10509.00
407.1790, 10478.00
408.3730, 10485.00
409.5670, 10627.00
410.7610, 10680.00
411.9550, 10433.00
413.1480, 10589.00
414.3420, 10453.00
415.5350, 10565.00
416.7280, 10691.00
417.9220, 10619.00
419.1140, 10641.00
420.3070, 10540.00
421.5000, 10394.00
422.6920, 10697.00
423.8850, 10636.00
425.0770, 10554.00
426.2690, 10670.00
427.4610, 10613.00
428.6520, 10699.00
429.8440, 10605.00
431.0350, 10668.00
432.2260, 10718.00
433.4180, 10755.00
434.6090, 10710.00
435.7990, 10737.00
436.9900, 10703.00
438.1800, 10683.00
439.3710, 10676.00
440.5610, 10708.00
441.7510, 10836.00
442.9410, 10740.00
444.1310, 10816.00
445.3200, 10842.00
446.5100, 10766.00
447.6990, 10848.00
448.8880, 10704.00
450.0770, 10874.00
451.2660, 10843.00
452.4550, 10643.00
453.6430, 10783.00
454.8320, 10973.00
456.0200, 10981.00
457.2080, 10843.00
458.3960, 10813.00
459.5840, 11021.00
460.7720, 10900.00
461.9590, 10919.00
463.1460, 11083.00
464.3340, 11035.00
465.5210, 11043.00
466.7080, 11047.00
467.8940, 11159.00
469.0810, 11184.00
470.2670, 11311.00
471.4540, 11195.00
472.6400, 11289.00
473.8260, 11327.00
475.0120, 11434.00
476.1970, 11434.48
477.3830, 11487.00
478.5680, 11433.00
479.7540, 11472.00
480.9390, 11460.00
482.1240, 11434.00
483.3080, 11393.00
484.4930, 11434.00
485.6780, 11457.00
486.8620, 11542.00
488.0460, 11510.37
489.2300, 11380.00
490.4140, 11446.00
491.5980, 11407.00
492.7810, 11328.00
493.9650, 11396.00
495.1480, 11415.00
496.3310, 11430.00
497.5140, 11444.00
498.6970, 11280.00
499.8800, 11277.00
501.0620, 11561.00
502.2440, 11384.00
503.4270, 11540.00
504.6090, 11476.00
505.7910, 11542.00
506.9720, 11516.00
508.1540, 11441.00
509.3350, 11500.00
510.5170, 11509.00
511.6980, 11550.00
512.8790, 11551.00
514.0600, 11627.00
515.2400, 11613.00
516.4210, 11650.00
517.6010, 11702.95
518.7810, 11731.00
519.9620, 11802.00
521.1410, 11791.00
522.3210, 11832.00
523.5010, 11821.92
524.6800, 11835.00
525.8600, 11791.00
527.0390, 11754.00
528.2180, 11748.00
529.3970, 11776.00
530.5750, 11756.72
531.7540, 11791.00
532.9320, 11772.00
534.1110, 11798.00
535.2890, 11832.00
536.4670, 11818.00
537.6440, 11791.00
538.8220, 11868.00
540.0000, 11913.00
541.1770, 11921.00
542.3540, 11864.00
543.5310, 11930.00
544.7080, 11880.00
545.8850, 11938.02
547.0610, 11938.00
548.2380, 12066.00
549.4140, 12120.00
550.5900, 12222.00
551.7660, 12210.00
552.9420, 12326.00
554.1170, 12297.00
555.2930, 12263.00
556.4680, 12217.00
557.6430, 12418.00
558.8180, 12451.00
559.9930, 12466.00
561.1680, 12442.00
562.3430, 12561.00
563.5170, 12536.00
564.6910, 12588.00
565.8650, 12676.00
567.0390, 12511.00
568.2130, 12700.00
569.3870, 12783.00
570.5600, 12675.00
571.7340, 12663.00
572.9070, 12646.00
574.0800, 12610.77
575.2530, 12709.00
576.4250, 12575.00
577.5980, 12616.00
578.7700, 12560.00
579.9430, 12504.00
581.1150, 12436.00
582.2870, 12404.40
583.4590, 12386.00
584.6300, 12331.00
585.8020, 12307.00
586.9730, 12255.00
588.1440, 12332.00
589.3150, 12344.00
590.4860, 12374.00
591.6570, 12334.55
592.8270, 12352.17
593.9980, 12233.00
595.1680, 12304.00
596.3380, 12308.00
597.5080, 12197.00
598.6780, 12401.00
599.8480, 12404.00
601.0170, 12284.00
602.1860, 12422.58
603.3550, 12579.00
604.5240, 12485.00
605.6930, 12614.00
606.8620, 12601.00
608.0310, 12634.00
609.1990, 12799.00
610.3670, 12924.00
611.5350, 12871.00
612.7030, 12977.00
613.8710, 13027.00
615.0390, 13243.00
616.2060, 13283.00
617.3730, 13392.00
618.5410, 13635.00
619.7080, 13595.00
620.8740, 13911.00
622.0410, 14003.00
623.2080, 14166.00
624.3740, 14199.00
625.5400, 14296.00
626.7060, 14415.00
627.8720, 14535.00
629.0380, 14721.00
630.2040, 14977.00
631.3690, 15235.00
632.5340, 15467.00
633.6990, 15646.00
634.8640, 15933.00
636.0290, 16187.48
637.1940, 16452.58
638.3580, 16811.00
639.5230, 17078.00
640.6870, 17497.00
641.8510, 17934.00
643.0150, 18437.00
644.1790, 18938.00
645.3420, 19803.00
646.5060, 20428.00
647.6690, 21684.00
648.8320, 22428.00
649.9950, 23716.00
651.1580, 24981.00
652.3200, 26254.00
653.4830, 27929.80
654.6450, 29742.00
655.8070, 31195.00
656.9690, 32871.00
658.1310, 34112.00
659.2930, 35577.00
660.4540, 36240.00
661.6160, 36874.00
662.7770, 36943.91
663.9380, 36840.00
665.0990, 35932.00
666.2600, 34937.00
667.4200, 33417.00
668.5810, 32187.00
669.7410, 30500.00
670.9010, 28850.00
672.0610, 27137.00
673.2210, 25456.00
674.3810, 24001.00
675.5400, 22645.45
676.6990, 21663.00
677.8590, 20338.00
679.0180, 19529.00
680.1760, 18694.00
681.3350, 17834.00
682.4940, 17085.00
683.6520, 16388.00
684.8100, 16051.00
685.9680, 15459.00
687.1260, 14967.00
688.2840, 14704.00
689.4420, 14279.00
690.5990, 14118.00
691.7560, 13987.00
692.9140, 13630.00
694.0710, 13423.00
695.2270, 13297.00
696.3840, 13209.00
697.5410, 13099.00
698.6970, 12966.21
699.8530, 12692.00
701.0090, 12686.00
702.1650, 12547.00
703.3210, 12380.00
704.4760, 12520.00
705.6320, 12263.00
706.7870, 12262.00
707.9420, 12179.00
709.0970, 12120.00
710.2520, 12089.00
711.4060, 11985.00
712.5610, 11930.00
713.7150, 12004.00
714.8690, 11906.00
716.0230, 12004.00
717.1770, 11994.00
718.3310, 12022.00
719.4840, 11858.00
720.6380, 11786.00
721.7910, 11851.00
722.9440, 11901.00
724.0970, 11762.00
725.2490, 11766.00
726.4020, 11695.00
727.5540, 11818.00
728.7070, 11547.00
729.8590, 11783.00
731.0110, 11767.00
732.1620, 11612.00
733.3140, 11716.00
734.4650, 11871.00
735.6170, 11730.00
736.7680, 11727.00
737.9190, 11683.00
739.0700, 11623.00
740.2200, 11629.00
741.3710, 11558.00
742.5210, 11549.00
743.6710, 11627.00
744.8210, 11556.00
745.9710, 11656.00
747.1210, 11655.00
748.2700, 11638.00
749.4200, 11629.00
750.5690, 11563.00
751.7180, 11427.00
752.8670, 11614.00
754.0160, 11608.00
755.1640, 11493.00
756.3130, 11561.00
757.4610, 11469.00
758.6090, 11403.00
759.7570, 11490.00
760.9050, 11459.00
762.0530, 11429.00
763.2000, 11517.00
764.3470, 11465.00
765.4940, 11352.00
766.6410, 11438.00
767.7880, 11410.00
768.9350, 11546.00
770.0810, 11361.00
771.2280, 11365.00
772.3740, 11385.00
773.5200, 11220.00
774.6660, 11469.00
775.8120, 11267.00
776.9570, 11385.00
778.1030, 11386.00
779.2480, 11291.00
780.3930, 11287.00
781.5380, 11283.00
782.6830, 11347.00
783.8270, 11325.25
784.9720, 11441.00
786.1160, 11328.00
787.2600, 11374.00
788.4040, 11380.00
789.5480, 11318.00
790.6910, 11278.00
791.8350, 11340.00
792.9780, 11140.00
794.1210, 11201.00
795.2640, 11212.00
796.4070, 11150.00
797.5500, 11225.00
798.6920, 11101.00
799.8350, 11047.00
800.9770, 11225.00
802.1190, 11139.00
803.2610, 11281.00
804.4030, 11145.00
805.5440, 11237.00
806.6850, 11208.00
807.8270, 11162.00
808.9680, 11304.00
810.1090, 11089.00
811.2490, 11121.00
812.3900, 11043.00
813.5300, 11047.00
814.6710, 11255.00
815.8110, 11174.00
816.9510, 11221.00
818.0910, 11193.00
819.2300, 11129.00
820.3700, 11185.00
821.5090, 11220.00
822.6480, 11131.00
823.7870, 11174.00
824.9260, 11190.00
826.0640, 11105.00
827.2030, 11029.00
828.3410, 11144.00
829.4790, 11119.00
830.6170, 11079.00
831.7550, 11064.00
832.8930, 11198.00
834.0310, 11132.00
835.1680, 11238.00
836.3050, 11138.00
837.4420, 11213.00
838.5790, 11219.00
839.7160, 11182.00
840.8520, 11100.00
841.9890, 11146.00
843.1250, 11175.00
844.2610, 10999.00
845.3970, 11135.00
846.5330, 11094.00
847.6680, 11156.00
848.8040, 11189.00
849.9390, 11111.00
851.0740, 11106.00
852.2090, 11194.00
853.3440, 11136.42
854.4780, 11147.00
855.6130, 11124.00
856.7470, 11039.00
857.8810, 11023.00
859.0150, 11048.00
860.1490, 11158.00
861.2830, 10991.00
862.4160, 11138.00
863.5490, 11210.00
864.6830, 11121.00
865.8160, 11070.00
866.9480, 11098.50
868.0810, 11098.65
869.2140, 11120.00
870.3460, 11140.00
871.4780, 11182.00
872.6100, 11082.00
873.7420, 11128.00
874.8740, 11092.00
876.0050, 11142.00
877.1370, 11145.38
878.2680, 11228.00
879.3990, 11155.00
880.5300, 11182.00
881.6600, 11153.51
882.7910, 11154.92
883.9210, 11141.00
885.0520, 11159.00
886.1820, 11137.00
887.3120, 11098.00
888.4410, 11126.00
889.5710, 11200.00
890.7000, 11290.00
891.8300, 11109.00
892.9590, 11205.00
894.0880, 11118.00
895.2160, 11201.00
896.3450, 11209.00
897.4730, 11194.41
898.6020, 11315.00
899.7300, 11184.00
900.8580, 11280.00
901.9860, 11252.00
903.1130, 11312.00
904.2410, 11308.00
905.3680, 11254.01
906.4950, 11336.35
907.6220, 11388.14
908.7490, 11411.00
909.8760, 11318.33
911.0020, 11361.00
912.1280, 11446.00
913.2550, 11319.00
914.3810, 11276.00
915.5060, 11386.00
916.6320, 11311.00
917.7580, 11221.00
918.8830, 11253.00
920.0080, 11313.00
921.1330, 11282.00
922.2580, 11154.00
923.3830, 11318.00
924.5070, 11289.00
925.6310, 11476.00
926.7560, 11199.00
927.8800, 11316.00
929.0040, 11298.00
930.1270, 11404.00
931.2510, 11325.00
932.3740, 11269.00
933.4970, 11310.00
934.6200, 11152.00
935.7430, 11257.00
936.8660, 11246.42
937.9890, 11491.00
939.1110, 11289.00
940.2330, 11401.18
941.3550, 11352.52
942.4770, 11314.00
943.5990, 11422.00
944.7200, 11336.00
945.8420, 11387.00
946.9630, 11435.00
948.0840, 11359.00
949.2050, 11458.00
950.3260, 11530.00
951.4460, 11366.00
952.5670, 11419.00
953.6870, 11401.00
954.8070, 11474.00
955.9270, 11487.00
957.0470, 11458.00
958.1660, 11512.00
959.2860, 11501.27
960.4050, 11486.75
961.5240, 11535.00
962.6430, 11478.00
963.7620, 11526.00
964.8810, 11592.00
965.9990, 11492.00
967.1170, 11535.00
968.2350, 11331.00
969.3530, 11562.00
970.4710, 11589.00
971.5890, 11469.00
972.7060, 11570.00
973.8240, 11543.00
974.9410, 11588.00
976.0580, 11646.00
977.1740, 11586.00
978.2910, 11598.00
979.4080, 11551.00
980.5240, 11508.00
981.6400, 11476.71
982.7560, 11473.29
983.8720, 11386.00
984.9870, 11531.00
986.1030, 11511.00
987.2180, 11630.00
988.3330, 11596.00
989.4480, 11657.00
990.5630, 11539.00
991.6780, 11496.00
992.7920, 11549.00
993.9070, 11594.00
995.0210, 11669.00
996.1350, 11606.00
997.2490, 11665.00
998.3620, 11663.35
999.4760, 11672.00
1000.589, 11678.00
1001.702, 11667.23
1002.815, 11682.00
1003.928, 11682.00
1005.041, 11596.00
1006.153, 11575.00
1007.266, 11630.00
1008.378, 11648.00
1009.490, 11572.00
1010.602, 11581.00
1011.713, 11532.00
1012.825, 11538.00
1013.936, 11522.14
1015.047, 11526.43
1016.158, 11491.00
1017.269, 11536.00
1018.380, 11504.00
1019.490, 11464.00
1020.601, 11417.00
1021.711, 11427.03
1022.821, 11402.24
1023.931, 11450.00
1025.040, 11403.00
1026.150, 11411.22
1027.259, 11427.87
1028.368, 11501.00
1029.477, 11519.00
1030.586, 11436.00
1031.695, 11522.00
1032.803, 11493.00
1033.912, 11533.00
1035.020, 11679.00
1036.128, 11510.00
1037.236, 11388.00
1038.343, 11511.00
1039.451, 11515.00
1040.558, 11530.00
1041.665, 11572.00
1042.772, 11643.00
1043.879, 11532.00
1044.986, 11583.00
1046.093, 11545.00
1047.199, 11726.00
1048.305, 11644.76
1049.411, 11736.00
1050.517, 11617.00
1051.623, 11629.00
1052.728, 11711.00
1053.833, 11598.00
1054.939, 11514.00
1056.044, 11756.00
1057.148, 11672.00
1058.253, 11719.00
1059.358, 11619.00
1060.462, 11668.00
1061.566, 11702.00
1062.670, 11569.00
1063.774, 11654.00
1064.878, 11720.00
1065.981, 11755.00
1067.085, 11771.00
1068.188, 11806.88
1069.291, 11750.00
1070.394, 11779.00
1071.496, 11838.00
1072.599, 11688.00
1073.701, 11859.00
1074.803, 11676.00
1075.905, 11713.00
1077.007, 11754.00
1078.109, 11716.00
1079.210, 11697.00
1080.312, 11667.00
1081.413, 11657.00
1082.514, 11864.00
1083.615, 11640.00
1084.715, 11728.00
1085.816, 11762.00
1086.916, 11632.00
1088.016, 11684.00
1089.116, 11672.65
1090.216, 11656.46
1091.316, 11688.00
1092.415, 11698.00
1093.515, 11668.00
1094.614, 11721.00
1095.713, 11764.00
1096.812, 11844.00
1097.910, 11700.00
1099.009, 11813.00
1100.107, 11623.00
1101.205, 11789.00
1102.303, 11736.00
1103.401, 11669.00
1104.499, 11803.00
1105.596, 11854.00
1106.693, 11756.00
1107.791, 11859.00
1108.888, 11895.00
1109.984, 11864.52
1111.081, 11925.00
1112.177, 11847.00
1113.274, 11891.00
1114.370, 11871.00
1115.466, 11743.01
1116.562, 11824.40
1117.657, 11875.22
1118.753, 11897.13
1119.848, 11803.49
1120.943, 11859.04
1122.038, 11854.81
1123.133, 11848.12
1124.228, 11915.00
1125.322, 12089.00
1126.416, 12021.00
1127.510, 11927.00
1128.604, 11894.35
1129.698, 11979.86
1130.792, 12034.81
1131.885, 12060.83
1132.978, 11971.31
1134.071, 12030.99
1135.164, 12030.87
1136.257, 12028.31
1137.350, 12053.00
1138.442, 12203.00
1139.534, 12073.00
1140.627, 12127.00
1141.718, 12066.00
1142.810, 12206.00
1143.902, 12229.00
1144.993, 12311.00
1146.084, 12167.00
1147.176, 12062.00
1148.266, 12077.00
1149.357, 12099.00
1150.448, 12100.80
1151.538, 12216.00
1152.628, 12154.00
1153.718, 12164.00
1154.808, 12118.74
1155.898, 12218.00
1156.988, 12119.00
1158.077, 12126.00
1159.166, 12176.00
1160.255, 11995.00
1161.344, 12060.00
1162.433, 12062.00
1163.521, 12036.14
1164.610, 12170.00
1165.698, 12064.00
1166.786, 12047.00
1167.874, 12026.00
1168.961, 12079.00
1170.049, 12069.00
1171.136, 12091.00
1172.224, 12085.00
1173.311, 12062.44
1174.397, 12068.70
1175.484, 12059.83
1176.571, 12061.00
1177.657, 12046.00
1178.743, 12057.79
1179.829, 12031.00
1180.915, 12038.00
1182.001, 11987.00
1183.086, 11925.00
1184.171, 11955.00
1185.256, 12022.00
1186.341, 12141.00
1187.426, 12032.00
1188.511, 12051.00
1189.595, 12054.00
1190.680, 11980.00
1191.764, 11991.00
1192.848, 11982.10
1193.932, 11917.00
1195.015, 11996.00
1196.099, 11957.00
1197.182, 11968.00
1198.265, 11965.61
1199.348, 11959.60
1200.431, 11965.00
1201.513, 11935.00
1202.596, 12012.00
1203.678, 11938.00
1204.760, 12006.00
1205.842, 11817.00
1206.924, 12076.00
1208.005, 11989.00
1209.087, 12125.00
1210.168, 11949.00
1211.249, 11886.00
1212.330, 11824.00
1213.411, 11979.00
1214.491, 12019.00
1215.572, 11988.00
1216.652, 11914.00
1217.732, 11990.00
1218.812, 11947.00
1219.891, 12067.00
1220.971, 11933.00
1222.050, 12011.00
1223.129, 11996.00
1224.208, 12117.00
1225.287, 12043.00
1226.366, 12002.00
1227.444, 11992.08
1228.523, 12037.00
1229.601, 11901.00
1230.679, 11974.00
1231.757, 11978.00
1232.834, 12099.00
1233.912, 11954.00
1234.989, 11990.00
1236.066, 11983.00
1237.143, 12066.00
1238.220, 12043.88
1239.297, 12065.24
1240.373, 12037.00
1241.449, 12038.00
1242.526, 12042.00
1243.601, 11950.00
1244.677, 12102.00
1245.753, 12041.00
1246.828, 11929.00
1247.904, 12023.00
1248.979, 11969.74
1250.054, 12053.00
1251.128, 11992.00
1252.203, 12120.00
1253.277, 12131.00
1254.351, 11937.00
1255.426, 12010.00
1256.499, 12102.00
1257.573, 12045.00
1258.647, 12147.00
1259.720, 12097.00
1260.793, 12091.00
1261.866, 12046.00
1262.939, 12062.00
1264.012, 12088.00
1265.084, 12090.23
1266.157, 12106.10
1267.229, 12133.00
1268.301, 12135.00
1269.373, 12141.00
1270.444, 12178.00
1271.516, 12085.00
1272.587, 12016.00
1273.658, 12115.00
1274.729, 12156.00
1275.800, 12105.00
1276.871, 12196.00
1277.941, 12013.00
1279.011, 12124.00
1280.082, 12111.00
1281.151, 12116.00
1282.221, 12199.00
1283.291, 12184.00
1284.360, 12245.00
1285.430, 12152.00
1286.499, 12205.00
1287.568, 12205.00
1288.636, 12222.00
1289.705, 12072.00
1290.773, 12294.00
1291.841, 12078.00
1292.909, 12272.00
1293.977, 12265.00
1295.045, 12310.00
1296.113, 12144.00
1297.180, 12224.00
1298.247, 12126.00
1299.314, 12200.00
1300.381, 12255.00
1301.448, 12084.00
1302.514, 12242.00
1303.580, 12228.00
1304.647, 12251.00
1305.713, 12179.00
1306.778, 12309.00
1307.844, 12156.00
1308.910, 12316.00
1309.975, 12095.00
1311.040, 12287.00
1312.105, 12035.00
1313.170, 12159.00
1314.234, 12092.00
1315.299, 12147.00
1316.363, 12142.00
1317.427, 12052.00
1318.491, 12022.00
1319.555, 12092.00
1320.618, 12083.00
1321.682, 11991.00
1322.745, 11945.00
1323.808, 11981.00
1324.871, 11997.00
1325.933, 12002.00
1326.996, 12056.00
1328.058, 12041.28
1329.121, 12042.00
1330.183, 12015.00
1331.244, 11961.00
1332.306, 11899.00
1333.368, 11869.00
1334.429, 12104.00
1335.490, 11925.05
1336.551, 11977.00
1337.612, 11842.00
1338.672, 11728.00
1339.733, 11888.00
1340.793, 11753.00
1341.853, 11845.00
1342.913, 11823.00
1343.973, 11746.00
1345.033, 11814.00
1346.092, 11755.00
1347.151, 11782.00
1348.210, 11765.00
1349.269, 11815.00
1350.328, 11790.00
1351.386, 11669.00
1352.445, 11869.00
1353.503, 11733.00
1354.561, 11730.00
1355.619, 11762.96
1356.677, 11765.00
1357.734, 11701.00
1358.791, 11782.00
1359.849, 11662.00
1360.906, 11592.00
1361.962, 11698.00
1363.019, 11698.00
1364.075, 11694.00
1365.132, 11589.00
1366.188, 11596.00
1367.244, 11533.00
1368.300, 11555.00
1369.355, 11556.34
1370.411, 11484.00
1371.466, 11613.00
1372.521, 11580.00
1373.576, 11650.00
1374.631, 11650.00
1375.685, 11571.00
1376.740, 11594.00
1377.794, 11523.00
1378.848, 11536.11
1379.902, 11523.00
1380.955, 11544.00
1382.009, 11550.00
1383.062, 11523.00
1384.115, 11350.10
1385.168, 11420.30
1386.221, 11459.94
1387.274, 11470.66
1388.326, 11365.84
1389.379, 11410.21
1390.431, 11394.79
1391.483, 11376.92
1392.534, 11442.30
1393.586, 11354.28
1394.637, 11418.33
1395.689, 11421.68
1396.740, 11458.00
1397.791, 11398.49
1398.841, 11423.13
1399.892, 11377.00
1400.942, 11452.00
1401.993, 11561.00
1403.043, 11527.00
1404.092, 11447.00
1405.142, 11483.00
1406.192, 11381.00
1407.241, 11430.00
1408.290, 11309.00
1409.339, 11402.00
1410.388, 11361.00
1411.437, 11395.00
1412.485, 11518.00
1413.533, 11434.00
1414.581, 11292.00
1415.629, 11533.00
1416.677, 11425.00
1417.725, 11387.00
1418.772, 11423.00
1419.819, 11348.00
1420.867, 11421.00
1421.913, 11396.64
1422.960, 11439.00
1424.007, 11423.00
1425.053, 11383.00
1426.099, 11450.00
1427.145, 11582.00
1428.191, 11410.00
1429.237, 11283.00
1430.282, 11289.00
1431.328, 11403.00
1432.373, 11285.00
1433.418, 11383.00
1434.462, 11466.00
1435.507, 11391.00
1436.552, 11502.00
1437.596, 11510.35
1438.640, 11417.00
1439.684, 11531.00
1440.728, 11479.00
1441.771, 11376.00
1442.815, 11460.00
1443.858, 11308.00
1444.901, 11348.12
1445.944, 11446.00
1446.986, 11365.00
1448.029, 11439.00
1449.071, 11448.00
1450.113, 11411.00
1451.155, 11364.00
1452.197, 11310.00
1453.239, 11449.00
1454.280, 11319.00
1455.322, 11385.00
1456.363, 11419.00
1457.404, 11365.00
1458.444, 11297.00
1459.485, 11297.00
1460.525, 11261.13
1461.566, 11386.00
1462.606, 11269.00
1463.646, 11354.59
1464.685, 11432.00
1465.725, 11378.00
1466.764, 11403.00
1467.803, 11409.00
1468.842, 11338.00
1469.881, 11375.00
1470.920, 11369.00
1471.958, 11332.00
1472.997, 11345.00
1474.035, 11400.00
1475.073, 11433.00
1476.111, 11397.00
1477.148, 11458.28
1478.186, 11394.00
1479.223, 11499.00
1480.260, 11525.00
1481.297, 11495.00
1482.334, 11318.00
1483.370, 11311.00
1484.407, 11389.00
1485.443, 11331.00
1486.479, 11391.00
1487.515, 11338.79
1488.550, 11405.00
1489.586, 11261.00
1490.621, 11444.00
1491.656, 11486.00
1492.691, 11245.00
1493.726, 11382.00
1494.761, 11451.00
1495.795, 11321.00
1496.829, 11427.00
1497.863, 11424.00
1498.897, 11409.90
1499.931, 11519.00
1500.965, 11413.00
1501.998, 11345.00
1503.031, 11308.00
1504.064, 11311.00
1505.097, 11404.00
1506.130, 11365.00
1507.162, 11381.00
1508.195, 11316.00
1509.227, 11320.00
1510.259, 11345.00
1511.291, 11408.00
1512.322, 11453.00
1513.354, 11312.00
1514.385, 11457.00
1515.416, 11323.00
1516.447, 11304.00
1517.478, 11390.00
1518.508, 11298.00
1519.539, 11472.00
1520.569, 11360.00
1521.599, 11442.00
1522.629, 11300.00
1523.658, 11395.00
1524.688, 11376.00
1525.717, 11376.00
1526.746, 11386.00
1527.775, 11378.00
1528.804, 11353.00
1529.833, 11446.00
1530.861, 11446.00
1531.890, 11583.00
1532.918, 11276.00
1533.946, 11343.00
1534.973, 11413.00
1536.001, 11439.00
1537.028, 11452.00
1538.055, 11429.00
1539.082, 11318.00
1540.109, 11383.00
1541.136, 11305.00
1542.163, 11453.00
1543.189, 11499.00
1544.215, 11358.00
1545.241, 11462.00
1546.267, 11417.00
1547.292, 11428.00
##END=



