##NAMES=Hausmannite
##RRUFFID=R040090
##IDEAL CHEMISTRY=Mn^2+^Mn^3+^_2_O_4_
##LOCALITY=Ã–hrenstock, Ilmenau, near Thuringia, Germany
##OWNER=RRUFF
##SOURCE=University of Arizona Mineral Museum
##DESCRIPTION=Mass of black octahedral crystals
##STATUS=The identification of this mineral has been confirmed by X-ray diffraction and chemical analysis
##URL=rruff.info/R040090
##MEASURED CHEMISTRY=(Mn^2+^_0.71_Zn_0.28_)Mn^3+^_2.00_O_4_
##PIN_ID=M00841
##ORIENTATION=Laser parallel to c* (0 0 1). Fiducial mark perpendicular to laser is parallel to a [1 0 0]
88.04900, 13262.00
89.28100, 13590.00
90.51200, 13701.00
91.74400, 13760.00
92.97600, 13790.00
94.20700, 13578.00
95.43800, 13415.00
96.66900, 13067.00
97.90100, 12972.00
99.13100, 13401.70
100.3620, 14083.00
101.5930, 14193.00
102.8230, 14452.00
104.0530, 14118.00
105.2840, 14741.00
106.5140, 14179.00
107.7440, 13356.00
108.9730, 13207.00
110.2030, 13243.00
111.4320, 13131.00
112.6620, 15935.00
113.8910, 15218.00
115.1200, 15875.00
116.3490, 15781.00
117.5780, 14774.00
118.8060, 15607.00
120.0350, 17511.00
121.2630, 17309.00
122.4920, 15971.00
123.7200, 14107.00
124.9480, 12662.00
126.1750, 12065.00
127.4030, 11764.00
128.6310, 11862.00
129.8580, 11932.00
131.0850, 11979.00
132.3120, 11934.72
133.5390, 11903.02
134.7660, 11790.00
135.9930, 11788.00
137.2200, 11740.00
138.4460, 11795.00
139.6720, 11846.00
140.8980, 11646.00
142.1240, 11370.00
143.3500, 11536.00
144.5760, 11509.00
145.8020, 11683.00
147.0270, 11366.00
148.2520, 11200.00
149.4780, 11346.00
150.7030, 11136.00
151.9270, 11330.00
153.1520, 11249.00
154.3770, 11114.00
155.6010, 11275.00
156.8260, 11088.94
158.0500, 11593.00
159.2740, 11067.00
160.4980, 11173.00
161.7210, 11565.00
162.9450, 11268.75
164.1690, 11255.00
165.3920, 11250.00
166.6150, 11009.00
167.8380, 11073.00
169.0610, 10983.00
170.2840, 11051.00
171.5070, 11062.00
172.7290, 11036.00
173.9510, 10920.00
175.1740, 11039.00
176.3960, 11195.00
177.6180, 11105.00
178.8390, 10933.00
180.0610, 11056.00
181.2830, 11063.00
182.5040, 11161.00
183.7250, 11151.40
184.9460, 10862.00
186.1670, 11042.00
187.3880, 10972.00
188.6090, 10750.00
189.8290, 10887.00
191.0500, 11028.00
192.2700, 10732.00
193.4900, 10740.00
194.7100, 10982.00
195.9300, 10844.00
197.1490, 10919.00
198.3690, 10836.00
199.5880, 10948.00
200.8080, 10906.00
202.0270, 10834.84
203.2460, 10896.00
204.4650, 10648.00
205.6830, 10654.00
206.9020, 10538.00
208.1200, 10558.00
209.3380, 10373.00
210.5570, 10432.00
211.7750, 10402.00
212.9920, 10494.00
214.2100, 10419.00
215.4280, 10632.00
216.6450, 10705.00
217.8620, 10532.00
219.0790, 10599.00
220.2960, 10564.00
221.5130, 10478.00
222.7300, 10416.00
223.9460, 10467.00
225.1630, 10548.00
226.3790, 10474.00
227.5950, 10498.00
228.8110, 10464.00
230.0270, 10353.00
231.2430, 10448.00
232.4580, 10419.00
233.6740, 10466.00
234.8890, 10469.70
236.1040, 10457.53
237.3190, 10428.00
238.5340, 10436.00
239.7490, 10350.00
240.9630, 10331.00
242.1780, 10426.00
243.3920, 10753.00
244.6060, 10688.57
245.8200, 10731.00
247.0340, 10765.00
248.2470, 10701.88
249.4610, 10727.00
250.6740, 10439.00
251.8880, 10540.00
253.1010, 10452.00
254.3140, 10585.00
255.5270, 10569.00
256.7390, 10492.00
257.9520, 10292.00
259.1640, 10259.00
260.3760, 10354.00
261.5880, 10291.00
262.8000, 10270.00
264.0120, 10315.00
265.2240, 10260.00
266.4350, 10357.00
267.6470, 10173.00
268.8580, 10373.00
270.0690, 10511.00
271.2800, 10545.00
272.4910, 10463.00
273.7020, 10356.00
274.9120, 10210.00
276.1230, 10293.00
277.3330, 10197.00
278.5430, 10321.00
279.7530, 10360.00
280.9630, 10417.00
282.1720, 10507.00
283.3820, 10515.00
284.5910, 10577.00
285.8000, 10564.00
287.0090, 10596.62
288.2180, 10540.00
289.4270, 10637.00
290.6360, 10678.47
291.8440, 10705.00
293.0530, 10813.00
294.2610, 10783.00
295.4690, 10844.00
296.6770, 10951.00
297.8850, 10967.00
299.0920, 11084.00
300.3000, 11071.00
301.5070, 11153.00
302.7140, 11191.00
303.9210, 11354.00
305.1280, 11541.00
306.3350, 11605.00
307.5420, 12007.00
308.7480, 12068.00
309.9540, 12450.00
311.1600, 12400.00
312.3660, 12936.00
313.5720, 13271.00
314.7780, 13451.00
315.9840, 13783.00
317.1890, 13916.00
318.3940, 14066.75
319.6000, 14288.00
320.8050, 14210.00
322.0090, 14239.00
323.2140, 14162.00
324.4190, 13735.00
325.6230, 13434.00
326.8270, 13176.00
328.0320, 12893.00
329.2360, 12583.00
330.4390, 12430.00
331.6430, 12207.00
332.8470, 12087.00
334.0500, 11832.00
335.2530, 11688.00
336.4560, 11767.00
337.6590, 11566.00
338.8620, 11527.00
340.0650, 11486.00
341.2670, 11446.80
342.4700, 11548.00
343.6720, 11465.00
344.8740, 11492.00
346.0760, 11481.00
347.2780, 11443.00
348.4790, 11430.00
349.6810, 11601.00
350.8820, 11531.00
352.0830, 11601.00
353.2840, 11614.00
354.4850, 11829.00
355.6860, 11770.00
356.8870, 11834.00
358.0870, 12022.00
359.2870, 11948.00
360.4880, 12123.00
361.6880, 12317.00
362.8870, 12341.00
364.0870, 12350.00
365.2870, 12392.00
366.4860, 12518.00
367.6850, 12495.00
368.8850, 12607.00
370.0840, 12552.00
371.2820, 12592.00
372.4810, 12421.00
373.6800, 12481.00
374.8780, 12248.00
376.0760, 12351.00
377.2740, 12235.64
378.4720, 12106.23
379.6700, 12062.00
380.8680, 11806.00
382.0650, 11648.00
383.2630, 11399.00
384.4600, 11410.00
385.6570, 11442.00
386.8540, 11323.00
388.0510, 11311.00
389.2470, 11189.00
390.4440, 11104.00
391.6400, 11058.00
392.8360, 11140.00
394.0320, 10937.00
395.2280, 11005.00
396.4240, 10889.00
397.6190, 10809.00
398.8150, 11132.00
400.0100, 10822.00
401.2050, 10753.00
402.4000, 10891.00
403.5950, 10696.00
404.7900, 10850.00
405.9840, 10822.00
407.1790, 10920.00
408.3730, 10915.08
409.5670, 10721.00
410.7610, 10839.00
411.9550, 10874.00
413.1480, 10746.00
414.3420, 10803.00
415.5350, 10762.00
416.7280, 10815.00
417.9220, 10800.00
419.1140, 10907.00
420.3070, 10871.00
421.5000, 10715.00
422.6920, 10843.00
423.8850, 10775.00
425.0770, 10937.00
426.2690, 10905.00
427.4610, 10903.00
428.6520, 10997.00
429.8440, 10899.00
431.0350, 10917.00
432.2260, 11062.00
433.4180, 10949.00
434.6090, 10886.00
435.7990, 10971.00
436.9900, 10953.00
438.1800, 10989.00
439.3710, 10938.00
440.5610, 11026.00
441.7510, 10951.00
442.9410, 10999.00
444.1310, 11015.00
445.3200, 11027.00
446.5100, 11000.00
447.6990, 10945.00
448.8880, 10980.00
450.0770, 11097.00
451.2660, 10987.00
452.4550, 11062.00
453.6430, 10988.00
454.8320, 10867.00
456.0200, 11058.00
457.2080, 10970.00
458.3960, 11084.00
459.5840, 11210.00
460.7720, 11041.00
461.9590, 11200.00
463.1460, 11184.00
464.3340, 11183.00
465.5210, 11207.00
466.7080, 11309.00
467.8940, 11263.00
469.0810, 11339.97
470.2670, 11304.02
471.4540, 11300.00
472.6400, 11374.00
473.8260, 11353.90
475.0120, 11406.00
476.1970, 11417.00
477.3830, 11372.06
478.5680, 11459.00
479.7540, 11377.00
480.9390, 11420.00
482.1240, 11443.00
483.3080, 11403.00
484.4930, 11459.72
485.6780, 11544.00
486.8620, 11491.00
488.0460, 11631.00
489.2300, 11590.00
490.4140, 11501.00
491.5980, 11606.00
492.7810, 11587.00
493.9650, 11614.00
495.1480, 11639.00
496.3310, 11687.00
497.5140, 11653.00
498.6970, 11659.00
499.8800, 11595.00
501.0620, 11693.00
502.2440, 11728.00
503.4270, 11787.00
504.6090, 11713.00
505.7910, 11786.00
506.9720, 11922.00
508.1540, 11711.00
509.3350, 11956.00
510.5170, 12003.00
511.6980, 11764.00
512.8790, 11818.00
514.0600, 11950.00
515.2400, 12290.00
516.4210, 12125.63
517.6010, 12053.00
518.7810, 12021.00
519.9620, 11872.00
521.1410, 12015.00
522.3210, 12202.00
523.5010, 12157.00
524.6800, 12121.00
525.8600, 12198.00
527.0390, 12259.00
528.2180, 12179.00
529.3970, 12094.00
530.5750, 12121.00
531.7540, 12181.00
532.9320, 12107.00
534.1110, 12077.00
535.2890, 12183.00
536.4670, 12145.00
537.6440, 12294.00
538.8220, 12348.00
540.0000, 12216.00
541.1770, 12345.00
542.3540, 12270.00
543.5310, 12502.00
544.7080, 12361.00
545.8850, 12416.00
547.0610, 12510.00
548.2380, 12593.00
549.4140, 12717.00
550.5900, 12742.53
551.7660, 12642.00
552.9420, 12758.00
554.1170, 12771.00
555.2930, 12683.00
556.4680, 12718.00
557.6430, 12725.00
558.8180, 12854.00
559.9930, 12870.73
561.1680, 12912.30
562.3430, 12974.00
563.5170, 12999.00
564.6910, 13039.00
565.8650, 13142.00
567.0390, 13041.00
568.2130, 13108.00
569.3870, 13269.00
570.5600, 13342.00
571.7340, 13265.00
572.9070, 13261.91
574.0800, 13329.00
575.2530, 13047.00
576.4250, 13137.00
577.5980, 13003.00
578.7700, 13107.00
579.9430, 13159.00
581.1150, 12982.00
582.2870, 12923.00
583.4590, 12901.00
584.6300, 12870.00
585.8020, 12825.76
586.9730, 12924.00
588.1440, 12772.00
589.3150, 12794.00
590.4860, 12820.00
591.6570, 12716.00
592.8270, 12908.00
593.9980, 12683.00
595.1680, 12876.00
596.3380, 12878.00
597.5080, 12930.00
598.6780, 13124.00
599.8480, 13038.00
601.0170, 13035.00
602.1860, 13066.00
603.3550, 13110.00
604.5240, 13325.00
605.6930, 13201.00
606.8620, 13254.00
608.0310, 13556.00
609.1990, 13582.00
610.3670, 13643.00
611.5350, 13959.00
612.7030, 14172.00
613.8710, 14323.00
615.0390, 14408.00
616.2060, 14752.00
617.3730, 14949.00
618.5410, 15014.00
619.7080, 15032.00
620.8740, 15357.88
622.0410, 15545.21
623.2080, 15873.00
624.3740, 16118.00
625.5400, 16200.00
626.7060, 16379.00
627.8720, 16830.00
629.0380, 16983.00
630.2040, 17309.00
631.3690, 17698.00
632.5340, 17987.00
633.6990, 18292.00
634.8640, 18942.00
636.0290, 19390.00
637.1940, 19683.00
638.3580, 20371.00
639.5230, 20915.00
640.6870, 21667.00
641.8510, 22501.00
643.0150, 23674.00
644.1790, 24700.00
645.3420, 25931.00
646.5060, 27450.00
647.6690, 29196.00
648.8320, 31284.00
649.9950, 33549.31
651.1580, 36010.00
652.3200, 38896.00
653.4830, 41996.00
654.6450, 45317.00
655.8070, 48738.00
656.9690, 51749.00
658.1310, 54426.00
659.2930, 56751.00
660.4540, 58423.00
661.6160, 59546.00
662.7770, 59707.00
663.9380, 58429.00
665.0990, 56607.00
666.2600, 54332.00
667.4200, 51542.00
668.5810, 48121.00
669.7410, 44582.00
670.9010, 41389.00
672.0610, 38289.00
673.2210, 35155.00
674.3810, 32636.00
675.5400, 29962.00
676.6990, 28124.00
677.8590, 26232.00
679.0180, 24492.00
680.1760, 23049.00
681.3350, 21635.00
682.4940, 20589.00
683.6520, 19618.00
684.8100, 18804.00
685.9680, 17969.00
687.1260, 17188.00
688.2840, 16612.00
689.4420, 16109.21
690.5990, 15828.00
691.7560, 15486.00
692.9140, 15224.21
694.0710, 15188.00
695.2270, 14651.00
696.3840, 14514.00
697.5410, 14039.00
698.6970, 13866.00
699.8530, 13880.00
701.0090, 13712.00
702.1650, 13680.00
703.3210, 13394.00
704.4760, 13457.00
705.6320, 13402.00
706.7870, 13118.00
707.9420, 13159.00
709.0970, 12946.00
710.2520, 12902.58
711.4060, 12930.00
712.5610, 12824.00
713.7150, 12788.00
714.8690, 12751.00
716.0230, 12761.00
717.1770, 12672.00
718.3310, 12635.00
719.4840, 12780.00
720.6380, 12728.00
721.7910, 12824.00
722.9440, 12446.00
724.0970, 12601.00
725.2490, 12488.00
726.4020, 12440.00
727.5540, 12585.00
728.7070, 12561.00
729.8590, 12400.00
731.0110, 12439.00
732.1620, 12494.00
733.3140, 12378.00
734.4650, 12525.00
735.6170, 12570.00
736.7680, 12400.00
737.9190, 12489.00
739.0700, 12391.00
740.2200, 12370.00
741.3710, 12336.00
742.5210, 12343.00
743.6710, 12321.00
744.8210, 12335.00
745.9710, 12314.00
747.1210, 12261.00
748.2700, 12165.00
749.4200, 12217.00
750.5690, 12087.00
751.7180, 12269.00
752.8670, 12085.00
754.0160, 12223.00
755.1640, 12036.00
756.3130, 12093.00
757.4610, 12001.00
758.6090, 12070.00
759.7570, 12197.00
760.9050, 12016.00
762.0530, 12050.00
763.2000, 11999.00
764.3470, 12040.00
765.4940, 11962.00
766.6410, 11939.00
767.7880, 11998.00
768.9350, 12008.00
770.0810, 11992.00
771.2280, 11974.00
772.3740, 11907.00
773.5200, 11926.00
774.6660, 11891.70
775.8120, 11852.59
776.9570, 11879.00
778.1030, 11814.00
779.2480, 11839.00
780.3930, 11903.00
781.5380, 12040.00
782.6830, 11925.89
783.8270, 11910.00
784.9720, 11759.00
786.1160, 11686.00
787.2600, 11661.00
788.4040, 11679.00
789.5480, 11650.00
790.6910, 11574.00
791.8350, 11725.00
792.9780, 11527.00
794.1210, 11548.00
795.2640, 11682.00
796.4070, 11508.00
797.5500, 11653.00
798.6920, 11604.00
799.8350, 11482.00
800.9770, 11496.00
802.1190, 11636.00
803.2610, 11710.00
804.4030, 11663.00
805.5440, 11913.00
806.6850, 11728.69
807.8270, 11509.00
808.9680, 11479.00
810.1090, 11616.00
811.2490, 11545.00
812.3900, 11525.90
813.5300, 11387.00
814.6710, 11463.00
815.8110, 11433.00
816.9510, 11527.00
818.0910, 11384.00
819.2300, 11395.00
820.3700, 11528.00
821.5090, 11437.00
822.6480, 11494.00
823.7870, 11574.00
824.9260, 11656.00
826.0640, 11477.00
827.2030, 11316.00
828.3410, 11364.00
829.4790, 11418.00
830.6170, 11495.00
831.7550, 11489.07
832.8930, 11467.00
834.0310, 11469.00
835.1680, 11480.00
836.3050, 11441.00
837.4420, 11343.00
838.5790, 11239.00
839.7160, 11295.00
840.8520, 11323.00
841.9890, 11420.00
843.1250, 11323.00
844.2610, 11236.88
845.3970, 11304.69
846.5330, 11341.94
847.6680, 11350.26
848.8040, 11243.05
849.9390, 11285.03
851.0740, 11267.22
852.2090, 11336.00
853.3440, 11338.00
854.4780, 11326.00
855.6130, 11298.00
856.7470, 11304.77
857.8810, 11240.00
859.0150, 11290.00
860.1490, 11299.00
861.2830, 11267.00
862.4160, 11223.00
863.5490, 11344.00
864.6830, 11410.00
865.8160, 11378.00
866.9480, 11409.37
868.0810, 11337.00
869.2140, 11350.00
870.3460, 11306.00
871.4780, 11266.00
872.6100, 11356.00
873.7420, 11257.00
874.8740, 11289.00
876.0050, 11199.15
877.1370, 11271.86
878.2680, 11314.00
879.3990, 11327.23
880.5300, 11224.91
881.6600, 11271.79
882.7910, 11240.00
883.9210, 11164.00
885.0520, 11208.74
886.1820, 11284.00
887.3120, 11351.00
888.4410, 11401.00
889.5710, 11528.00
890.7000, 11308.00
891.8300, 11436.00
892.9590, 11307.00
894.0880, 11411.00
895.2160, 11412.00
896.3450, 11396.00
897.4730, 11469.00
898.6020, 11382.00
899.7300, 11556.00
900.8580, 11538.00
901.9860, 11425.00
903.1130, 11504.00
904.2410, 11425.00
905.3680, 11317.00
906.4950, 11511.00
907.6220, 11423.00
908.7490, 11350.00
909.8760, 11407.00
911.0020, 11441.00
912.1280, 11417.91
913.2550, 11484.00
914.3810, 11410.00
915.5060, 11480.00
916.6320, 11458.00
917.7580, 11522.00
918.8830, 11590.00
920.0080, 11628.00
921.1330, 11575.00
922.2580, 11529.00
923.3830, 11540.00
924.5070, 11517.00
925.6310, 11652.00
926.7560, 11475.00
927.8800, 11519.99
929.0040, 11649.00
930.1270, 11507.00
931.2510, 11493.00
932.3740, 11585.00
933.4970, 11572.00
934.6200, 11706.00
935.7430, 11789.42
936.8660, 11818.00
937.9890, 11957.00
939.1110, 11622.00
940.2330, 11534.00
941.3550, 11551.00
942.4770, 11626.00
943.5990, 11640.00
944.7200, 11610.00
945.8420, 11715.00
946.9630, 11573.00
948.0840, 11557.00
949.2050, 11651.00
950.3260, 11584.00
951.4460, 11624.74
952.5670, 11622.00
953.6870, 11654.00
954.8070, 11632.00
955.9270, 11659.00
957.0470, 11666.00
958.1660, 11703.00
959.2860, 11704.00
960.4050, 11597.00
961.5240, 11782.00
962.6430, 11697.00
963.7620, 11574.00
964.8810, 11781.00
965.9990, 11689.00
967.1170, 11823.00
968.2350, 11880.00
969.3530, 11913.00
970.4710, 11742.00
971.5890, 11689.00
972.7060, 11788.00
973.8240, 11704.00
974.9410, 11834.00
976.0580, 11812.00
977.1740, 11568.00
978.2910, 11804.00
979.4080, 11685.00
980.5240, 11763.00
981.6400, 11821.00
982.7560, 11811.00
983.8720, 11767.00
984.9870, 11807.00
986.1030, 11854.00
987.2180, 11841.00
988.3330, 11922.00
989.4480, 11837.00
990.5630, 11895.00
991.6780, 11810.00
992.7920, 11922.00
993.9070, 11821.00
995.0210, 11768.00
996.1350, 11697.00
997.2490, 11711.15
998.3620, 11854.00
999.4760, 11764.00
1000.589, 11872.00
1001.702, 11881.00
1002.815, 11733.00
1003.928, 11824.00
1005.041, 11823.00
1006.153, 11902.00
1007.266, 11861.00
1008.378, 11835.00
1009.490, 11769.00
1010.602, 11735.00
1011.713, 11825.00
1012.825, 11810.00
1013.936, 11629.00
1015.047, 11706.00
1016.158, 11568.00
1017.269, 11786.00
1018.380, 11591.00
1019.490, 11707.00
1020.601, 11705.00
1021.711, 11535.00
1022.821, 11644.00
1023.931, 11780.00
1025.040, 11676.00
1026.150, 11739.00
1027.259, 11781.00
1028.368, 11671.00
1029.477, 11675.00
1030.586, 11813.00
1031.695, 11778.00
1032.803, 11722.00
1033.912, 11781.00
1035.020, 11826.00
1036.128, 11763.00
1037.236, 11760.00
1038.343, 11636.00
1039.451, 11595.00
1040.558, 11610.00
1041.665, 11606.46
1042.772, 11644.00
1043.879, 11672.00
1044.986, 11675.51
1046.093, 11725.00
1047.199, 11689.00
1048.305, 11705.00
1049.411, 11701.04
1050.517, 11751.00
1051.623, 11746.00
1052.728, 11719.00
1053.833, 11751.00
1054.939, 11830.00
1056.044, 11850.00
1057.148, 11795.00
1058.253, 11912.00
1059.358, 11858.24
1060.462, 11865.00
1061.566, 11871.00
1062.670, 11800.00
1063.774, 11893.00
1064.878, 11816.00
1065.981, 11819.00
1067.085, 11796.00
1068.188, 11810.00
1069.291, 11917.00
1070.394, 11777.00
1071.496, 11872.00
1072.599, 11904.00
1073.701, 11764.00
1074.803, 11880.00
1075.905, 12017.00
1077.007, 11826.00
1078.109, 11792.00
1079.210, 11780.00
1080.312, 11743.00
1081.413, 12023.00
1082.514, 11958.00
1083.615, 11978.00
1084.715, 11932.00
1085.816, 11929.00
1086.916, 11955.32
1088.016, 11971.00
1089.116, 11968.00
1090.216, 11966.00
1091.316, 11871.00
1092.415, 11938.00
1093.515, 11964.00
1094.614, 11798.00
1095.713, 12100.00
1096.812, 11876.00
1097.910, 11972.00
1099.009, 12071.00
1100.107, 11988.00
1101.205, 12087.00
1102.303, 12165.00
1103.401, 12051.00
1104.499, 11965.00
1105.596, 12081.00
1106.693, 12013.00
1107.791, 12056.00
1108.888, 12008.00
1109.984, 12064.00
1111.081, 12123.00
1112.177, 12109.00
1113.274, 12150.00
1114.370, 12189.00
1115.466, 12151.00
1116.562, 12095.00
1117.657, 12286.00
1118.753, 12393.00
1119.848, 12209.00
1120.943, 12177.00
1122.038, 12290.00
1123.133, 12433.00
1124.228, 12469.00
1125.322, 12448.00
1126.416, 12406.00
1127.510, 12547.00
1128.604, 12451.00
1129.698, 12568.00
1130.792, 12386.00
1131.885, 12476.00
1132.978, 12531.00
1134.071, 12759.00
1135.164, 12640.00
1136.257, 12735.00
1137.350, 12686.00
1138.442, 12696.00
1139.534, 12745.00
1140.627, 12703.00
1141.718, 12712.03
1142.810, 12597.00
1143.902, 12670.00
1144.993, 12742.00
1146.084, 12710.00
1147.176, 12886.00
1148.266, 12755.62
1149.357, 12562.00
1150.448, 12545.00
1151.538, 12750.00
1152.628, 12650.00
1153.718, 12664.00
1154.808, 12505.00
1155.898, 12626.00
1156.988, 12502.00
1158.077, 12577.00
1159.166, 12527.00
1160.255, 12764.00
1161.344, 12638.00
1162.433, 12616.00
1163.521, 12503.00
1164.610, 12548.00
1165.698, 12509.00
1166.786, 12456.89
1167.874, 12516.85
1168.961, 12546.25
1170.049, 12546.73
1171.136, 12431.68
1172.224, 12465.81
1173.311, 12440.16
1174.397, 12412.06
1175.484, 12433.00
1176.571, 12633.00
1177.657, 12444.00
1178.743, 12526.00
1179.829, 12493.00
1180.915, 12514.00
1182.001, 12498.00
1183.086, 12522.00
1184.171, 12471.00
1185.256, 12485.00
1186.341, 12439.00
1187.426, 12372.00
1188.511, 12409.00
1189.595, 12488.00
1190.680, 12386.00
1191.764, 12399.00
1192.848, 12371.00
1193.932, 12353.00
1195.015, 12305.00
1196.099, 12464.00
1197.182, 12492.00
1198.265, 12404.00
1199.348, 12313.00
1200.431, 12355.00
1201.513, 12350.00
1202.596, 12344.00
1203.678, 12229.00
1204.760, 12307.00
1205.842, 12379.00
1206.924, 12246.00
1208.005, 12305.00
1209.087, 12296.00
1210.168, 12321.00
1211.249, 12342.00
1212.330, 12306.23
1213.411, 12221.00
1214.491, 12246.00
1215.572, 12238.00
1216.652, 12225.00
1217.732, 12214.00
1218.812, 12363.00
1219.891, 12344.00
1220.971, 12288.00
1222.050, 12336.00
1223.129, 12272.00
1224.208, 12358.00
1225.287, 12243.00
1226.366, 12263.00
1227.444, 12268.00
1228.523, 12395.00
1229.601, 12469.00
1230.679, 12329.00
1231.757, 12562.00
1232.834, 12509.00
1233.912, 12516.00
1234.989, 12558.00
1236.066, 12467.00
1237.143, 12370.00
1238.220, 12597.00
1239.297, 12411.00
1240.373, 12449.00
1241.449, 12360.00
1242.526, 12468.00
1243.601, 12370.00
1244.677, 12553.00
1245.753, 12364.00
1246.828, 12420.00
1247.904, 12381.00
1248.979, 12392.00
1250.054, 12415.00
1251.128, 12430.00
1252.203, 12546.00
1253.277, 12545.00
1254.351, 12566.00
1255.426, 12377.20
1256.499, 12449.65
1257.573, 12491.54
1258.647, 12504.52
1259.720, 12401.95
1260.793, 12448.58
1261.866, 12435.42
1262.939, 12419.80
1264.012, 12487.43
1265.084, 12473.00
1266.157, 12474.05
1267.229, 12500.00
1268.301, 12496.00
1269.373, 12524.00
1270.444, 12584.00
1271.516, 12571.00
1272.587, 12593.00
1273.658, 12404.00
1274.729, 12582.00
1275.800, 12556.00
1276.871, 12493.00
1277.941, 12623.00
1279.011, 12549.00
1280.082, 12618.00
1281.151, 12589.00
1282.221, 12541.00
1283.291, 12558.00
1284.360, 12537.00
1285.430, 12555.37
1286.499, 12654.00
1287.568, 12627.00
1288.636, 12651.00
1289.705, 12728.00
1290.773, 12605.00
1291.841, 12730.00
1292.909, 12780.00
1293.977, 12715.00
1295.045, 12844.00
1296.113, 12559.00
1297.180, 12657.00
1298.247, 12644.19
1299.314, 12861.00
1300.381, 12741.00
1301.448, 12612.00
1302.514, 12746.00
1303.580, 12713.00
1304.647, 12741.00
1305.713, 12864.00
1306.778, 12819.00
1307.844, 12706.00
1308.910, 12789.00
1309.975, 12593.00
1311.040, 12896.00
1312.105, 12983.00
1313.170, 12616.00
1314.234, 12652.00
1315.299, 12563.00
1316.363, 12510.00
1317.427, 12626.00
1318.491, 12503.00
1319.555, 12492.00
1320.618, 12509.58
1321.682, 12566.00
1322.745, 12467.00
1323.808, 12397.00
1324.871, 12291.00
1325.933, 12236.22
1326.996, 12207.26
1328.058, 12154.00
1329.121, 12206.00
1330.183, 12240.00
1331.244, 12293.00
1332.306, 12225.00
1333.368, 12275.21
1334.429, 12240.00
1335.490, 12301.00
1336.551, 12215.00
1337.612, 12226.00
1338.672, 12179.99
1339.733, 12119.38
1340.793, 12100.00
1341.853, 12032.00
1342.913, 12051.00
1343.973, 12077.00
1345.033, 11923.00
1346.092, 12025.00
1347.151, 11837.00
1348.210, 11991.00
1349.269, 11957.00
1350.328, 11968.00
1351.386, 11914.00
1352.445, 11924.00
1353.503, 11979.00
1354.561, 12040.00
1355.619, 11985.65
1356.677, 12194.00
1357.734, 11932.00
1358.791, 11803.00
1359.849, 11873.00
1360.906, 11909.00
1361.962, 11825.00
1363.019, 11935.00
1364.075, 11907.00
1365.132, 11853.00
1366.188, 11997.00
1367.244, 11818.00
1368.300, 11898.00
1369.355, 11768.00
1370.411, 11822.00
1371.466, 11880.00
1372.521, 11753.00
1373.576, 11873.00
1374.631, 11798.00
1375.685, 11821.00
1376.740, 11817.92
1377.794, 11804.00
1378.848, 11791.00
1379.902, 11767.00
1380.955, 11756.86
1382.009, 11748.00
1383.062, 11737.33
1384.115, 11708.00
1385.168, 11713.00
1386.221, 11683.00
1387.274, 11725.00
1388.326, 11735.00
1389.379, 11719.00
1390.431, 11842.00
1391.483, 11514.00
1392.534, 11594.00
1393.586, 11566.00
1394.637, 11717.00
1395.689, 11562.00
1396.740, 11654.00
1397.791, 11653.00
1398.841, 11558.00
1399.892, 11580.00
1400.942, 11567.00
1401.993, 11493.00
1403.043, 11531.00
1404.092, 11510.00
1405.142, 11580.00
1406.192, 11578.00
1407.241, 11545.00
1408.290, 11614.00
1409.339, 11533.00
1410.388, 11503.00
1411.437, 11558.00
1412.485, 11629.00
1413.533, 11563.00
1414.581, 11492.00
1415.629, 11584.00
1416.677, 11428.00
1417.725, 11502.00
1418.772, 11469.00
1419.819, 11484.00
1420.867, 11453.00
1421.913, 11477.00
1422.960, 11488.00
1424.007, 11464.00
1425.053, 11417.00
1426.099, 11563.00
1427.145, 11590.00
1428.191, 11419.00
1429.237, 11506.00
1430.282, 11453.00
1431.328, 11611.00
1432.373, 11426.00
1433.418, 11401.00
1434.462, 11414.00
1435.507, 11465.00
1436.552, 11552.00
1437.596, 11602.00
1438.640, 11527.12
1439.684, 11585.00
1440.728, 11357.00
1441.771, 11434.00
1442.815, 11415.00
1443.858, 11474.00
1444.901, 11586.00
1445.944, 11524.00
1446.986, 11449.00
1448.029, 11391.00
1449.071, 11473.00
1450.113, 11521.00
1451.155, 11495.35
1452.197, 11602.00
1453.239, 11478.00
1454.280, 11421.00
1455.322, 11393.00
1456.363, 11406.00
1457.404, 11456.00
1458.444, 11580.00
1459.485, 11416.00
1460.525, 11307.00
1461.566, 11439.00
1462.606, 11526.00
1463.646, 11262.00
1464.685, 11290.00
1465.725, 11433.00
1466.764, 11316.00
1467.803, 11439.00
1468.842, 11402.00
1469.881, 11432.00
1470.920, 11462.00
1471.958, 11541.00
1472.997, 11444.00
1474.035, 11357.00
1475.073, 11575.00
1476.111, 11371.00
1477.148, 11401.00
1478.186, 11548.00
1479.223, 11266.00
1480.260, 11431.00
1481.297, 11487.00
1482.334, 11387.00
1483.370, 11473.00
1484.407, 11488.00
1485.443, 11465.00
1486.479, 11447.00
1487.515, 11485.00
1488.550, 11495.00
1489.586, 11456.00
1490.621, 11294.00
1491.656, 11390.00
1492.691, 11435.00
1493.726, 11560.00
1494.761, 11555.46
1495.795, 11428.00
1496.829, 11540.00
1497.863, 11418.00
1498.897, 11359.00
1499.931, 11412.00
1500.965, 11504.00
1501.998, 11561.00
1503.031, 11487.00
1504.064, 11416.00
1505.097, 11430.00
1506.130, 11414.00
1507.162, 11413.06
1508.195, 11377.00
1509.227, 11412.00
1510.259, 11405.69
1511.291, 11339.48
1512.322, 11392.00
1513.354, 11340.00
1514.385, 11379.00
1515.416, 11433.00
1516.447, 11419.00
1517.478, 11425.11
1518.508, 11413.90
1519.539, 11407.00
1520.569, 11407.00
1521.599, 11447.00
1522.629, 11546.00
1523.658, 11495.48
1524.688, 11428.00
1525.717, 11438.00
1526.746, 11352.00
1527.775, 11310.00
1528.804, 11432.00
1529.833, 11502.00
1530.861, 11406.00
1531.890, 11346.00
1532.918, 11380.00
1533.946, 11394.00
1534.973, 11492.00
1536.001, 11388.00
1537.028, 11346.00
1538.055, 11431.00
1539.082, 11342.00
1540.109, 11479.00
1541.136, 11552.00
1542.163, 11420.00
1543.189, 11514.00
1544.215, 11322.00
1545.241, 11457.00
1546.267, 11429.00
1547.292, 11424.00
##END=



