##NAMES=Hausmannite
##RRUFFID=R040090
##IDEAL CHEMISTRY=Mn^2+^Mn^3+^_2_O_4_
##LOCALITY=Ã–hrenstock, Ilmenau, near Thuringia, Germany
##OWNER=RRUFF
##SOURCE=University of Arizona Mineral Museum
##DESCRIPTION=Mass of black octahedral crystals
##STATUS=The identification of this mineral has been confirmed by X-ray diffraction and chemical analysis
##URL=rruff.info/R040090
##MEASURED CHEMISTRY=(Mn^2+^_0.71_Zn_0.28_)Mn^3+^_2.00_O_4_
##PIN_ID=M00841
##ORIENTATION=Laser parallel to c* (0 0 1). Fiducial mark perpendicular to laser is parallel to a [1 0 0]
88.04900, 10751.00
89.28100, 10907.00
90.51200, 11010.00
91.74400, 11313.00
92.97600, 11140.00
94.20700, 11009.00
95.43800, 11025.00
96.66900, 10981.00
97.90100, 11051.30
99.13100, 11043.00
100.3620, 11262.00
101.5930, 11304.00
102.8230, 11410.00
104.0530, 11732.00
105.2840, 12026.00
106.5140, 11831.00
107.7440, 11600.00
108.9730, 11544.00
110.2030, 11594.00
111.4320, 11329.00
112.6620, 11624.00
113.8910, 12084.00
115.1200, 12711.00
116.3490, 12922.00
117.5780, 12711.00
118.8060, 13482.00
120.0350, 15578.00
121.2630, 15778.00
122.4920, 14737.00
123.7200, 14427.00
124.9480, 11874.00
126.1750, 10554.00
127.4030, 10170.00
128.6310, 9964.000
129.8580, 10015.00
131.0850, 10062.00
132.3120, 9755.000
133.5390, 9788.000
134.7660, 9818.000
135.9930, 9807.000
137.2200, 9919.000
138.4460, 9835.000
139.6720, 9974.000
140.8980, 9816.000
142.1240, 9778.000
143.3500, 9699.000
144.5760, 9693.000
145.8020, 9649.235
147.0270, 9578.000
148.2520, 9629.000
149.4780, 9571.000
150.7030, 9626.000
151.9270, 9528.000
153.1520, 9558.000
154.3770, 9445.000
155.6010, 9511.000
156.8260, 9503.000
158.0500, 9516.000
159.2740, 9399.882
160.4980, 9469.239
161.7210, 9508.034
162.9450, 9517.909
164.1690, 9412.246
165.3920, 9455.777
166.6150, 9439.518
167.8380, 9420.807
169.0610, 9485.336
170.2840, 9396.478
171.5070, 9456.000
172.7290, 9419.000
173.9510, 9454.000
175.1740, 9468.345
176.3960, 9473.000
177.6180, 9517.000
178.8390, 9472.000
180.0610, 9449.000
181.2830, 9326.000
182.5040, 9454.000
183.7250, 9316.000
184.9460, 9382.000
186.1670, 9383.582
187.3880, 9367.381
188.6090, 9414.000
189.8290, 9357.000
191.0500, 9406.000
192.2700, 9306.000
193.4900, 9415.000
194.7100, 9339.000
195.9300, 9407.000
197.1490, 9296.000
198.3690, 9309.000
199.5880, 9326.000
200.8080, 9332.000
202.0270, 9310.000
203.2460, 9221.000
204.4650, 9214.000
205.6830, 9196.000
206.9020, 9188.000
208.1200, 9151.000
209.3380, 9180.000
210.5570, 9129.000
211.7750, 9074.000
212.9920, 9182.000
214.2100, 9113.000
215.4280, 9025.000
216.6450, 9101.000
217.8620, 9137.000
219.0790, 9200.000
220.2960, 9207.922
221.5130, 9101.000
222.7300, 9175.000
223.9460, 9133.000
225.1630, 9038.000
226.3790, 9150.000
227.5950, 9126.000
228.8110, 9054.000
230.0270, 8970.000
231.2430, 8898.000
232.4580, 9001.000
233.6740, 9140.000
234.8890, 9175.000
236.1040, 9121.000
237.3190, 9090.000
238.5340, 8974.000
239.7490, 8964.000
240.9630, 9108.000
242.1780, 9041.000
243.3920, 8872.000
244.6060, 9077.000
245.8200, 9014.000
247.0340, 9076.000
248.2470, 9224.000
249.4610, 9165.000
250.6740, 9120.000
251.8880, 9308.000
253.1010, 9142.000
254.3140, 9212.000
255.5270, 9318.000
256.7390, 9274.000
257.9520, 9145.000
259.1640, 9251.000
260.3760, 9072.000
261.5880, 9115.000
262.8000, 9243.000
264.0120, 9180.000
265.2240, 9213.000
266.4350, 9090.000
267.6470, 9168.000
268.8580, 9234.000
270.0690, 9225.000
271.2800, 9290.107
272.4910, 9307.848
273.7020, 9328.000
274.9120, 9341.000
276.1230, 9346.666
277.3330, 9278.000
278.5430, 9343.000
279.7530, 9336.000
280.9630, 9317.000
282.1720, 9353.271
283.3820, 9386.344
284.5910, 9407.000
285.8000, 9528.000
287.0090, 9622.000
288.2180, 9759.000
289.4270, 9807.388
290.6360, 9765.000
291.8440, 9883.000
293.0530, 9890.000
294.2610, 9874.000
295.4690, 9974.000
296.6770, 9922.000
297.8850, 10111.00
299.0920, 10017.00
300.3000, 10182.00
301.5070, 10213.00
302.7140, 10300.00
303.9210, 10430.00
305.1280, 10684.00
306.3350, 10979.00
307.5420, 11043.00
308.7480, 11240.00
309.9540, 11584.00
311.1600, 11900.00
312.3660, 12311.00
313.5720, 12612.10
314.7780, 13113.00
315.9840, 13275.00
317.1890, 13495.00
318.3940, 13845.00
319.6000, 13932.00
320.8050, 13833.00
322.0090, 13672.00
323.2140, 13441.00
324.4190, 13195.00
325.6230, 12813.00
326.8270, 12474.80
328.0320, 12147.00
329.2360, 11799.00
330.4390, 11516.77
331.6430, 11289.00
332.8470, 11005.00
334.0500, 10886.00
335.2530, 10749.00
336.4560, 10487.00
337.6590, 10433.00
338.8620, 10395.00
340.0650, 10394.00
341.2670, 10334.00
342.4700, 10299.00
343.6720, 10333.00
344.8740, 10306.00
346.0760, 10256.00
347.2780, 10227.00
348.4790, 10252.00
349.6810, 10201.00
350.8820, 10295.00
352.0830, 10221.00
353.2840, 10395.00
354.4850, 10374.00
355.6860, 10280.00
356.8870, 10440.00
358.0870, 10303.00
359.2870, 10382.00
360.4880, 10551.00
361.6880, 10482.00
362.8870, 10604.00
364.0870, 10602.00
365.2870, 10696.00
366.4860, 10648.00
367.6850, 10643.00
368.8850, 10670.00
370.0840, 10698.00
371.2820, 10813.00
372.4810, 10791.00
373.6800, 10663.00
374.8780, 10694.00
376.0760, 10583.06
377.2740, 10672.00
378.4720, 10472.00
379.6700, 10365.00
380.8680, 10435.00
382.0650, 10327.00
383.2630, 10268.00
384.4600, 10085.00
385.6570, 10021.00
386.8540, 9927.995
388.0510, 10076.00
389.2470, 9820.000
390.4440, 9970.000
391.6400, 10042.00
392.8360, 9966.000
394.0320, 10006.30
395.2280, 9930.910
396.4240, 9877.000
397.6190, 9833.000
398.8150, 9781.254
400.0100, 9767.000
401.2050, 9719.000
402.4000, 9778.000
403.5950, 9796.000
404.7900, 9800.000
405.9840, 9755.000
407.1790, 9782.000
408.3730, 9817.000
409.5670, 9705.000
410.7610, 9800.000
411.9550, 9895.000
413.1480, 9709.000
414.3420, 9755.000
415.5350, 9879.000
416.7280, 9773.000
417.9220, 9842.000
419.1140, 9871.000
420.3070, 9792.000
421.5000, 9868.000
422.6920, 9762.000
423.8850, 9822.000
425.0770, 9766.000
426.2690, 9892.000
427.4610, 9819.000
428.6520, 9776.000
429.8440, 9876.000
431.0350, 9901.000
432.2260, 9823.000
433.4180, 9839.000
434.6090, 9959.000
435.7990, 9945.000
436.9900, 9924.000
438.1800, 9855.000
439.3710, 9939.000
440.5610, 9910.000
441.7510, 9842.000
442.9410, 9770.000
444.1310, 10038.00
445.3200, 9884.000
446.5100, 9948.000
447.6990, 9929.000
448.8880, 9906.000
450.0770, 9990.000
451.2660, 9906.000
452.4550, 9999.755
453.6430, 9954.000
454.8320, 10108.00
456.0200, 10063.00
457.2080, 10046.00
458.3960, 10101.00
459.5840, 10108.00
460.7720, 10010.00
461.9590, 10085.00
463.1460, 10077.00
464.3340, 10247.00
465.5210, 10165.00
466.7080, 10322.00
467.8940, 10388.00
469.0810, 10322.00
470.2670, 10236.00
471.4540, 10344.00
472.6400, 10294.00
473.8260, 10485.00
475.0120, 10473.00
476.1970, 10442.00
477.3830, 10468.00
478.5680, 10359.00
479.7540, 10430.00
480.9390, 10558.00
482.1240, 10429.00
483.3080, 10425.00
484.4930, 10668.00
485.6780, 10537.26
486.8620, 10578.00
488.0460, 10536.00
489.2300, 10459.00
490.4140, 10509.00
491.5980, 10538.00
492.7810, 10489.00
493.9650, 10519.00
495.1480, 10480.00
496.3310, 10603.00
497.5140, 10465.00
498.6970, 10551.34
499.8800, 10526.95
501.0620, 10653.00
502.2440, 10503.00
503.4270, 10588.00
504.6090, 10593.00
505.7910, 10681.00
506.9720, 10670.00
508.1540, 10533.00
509.3350, 10677.00
510.5170, 10610.00
511.6980, 10743.00
512.8790, 10718.00
514.0600, 10611.00
515.2400, 10815.00
516.4210, 10807.00
517.6010, 10901.00
518.7810, 10922.00
519.9620, 10803.00
521.1410, 10875.00
522.3210, 10959.00
523.5010, 10744.00
524.6800, 10929.00
525.8600, 10806.00
527.0390, 11034.00
528.2180, 11008.00
529.3970, 10799.00
530.5750, 11034.00
531.7540, 11150.00
532.9320, 10893.00
534.1110, 11097.00
535.2890, 10937.00
536.4670, 10945.00
537.6440, 10931.00
538.8220, 10982.00
540.0000, 11119.00
541.1770, 11110.00
542.3540, 11250.00
543.5310, 11339.00
544.7080, 11129.00
545.8850, 11250.00
547.0610, 11274.00
548.2380, 11312.00
549.4140, 11264.00
550.5900, 11256.00
551.7660, 11340.00
552.9420, 11441.00
554.1170, 11433.06
555.2930, 11514.00
556.4680, 11492.00
557.6430, 11507.00
558.8180, 11588.00
559.9930, 11756.00
561.1680, 11677.00
562.3430, 11740.00
563.5170, 11610.00
564.6910, 11729.00
565.8650, 11833.00
567.0390, 11815.00
568.2130, 11895.52
569.3870, 11962.00
570.5600, 11927.00
571.7340, 11993.00
572.9070, 11962.00
574.0800, 12023.00
575.2530, 11676.00
576.4250, 11772.00
577.5980, 11760.00
578.7700, 11913.00
579.9430, 11739.00
581.1150, 11775.00
582.2870, 11856.00
583.4590, 11623.00
584.6300, 11491.00
585.8020, 11434.00
586.9730, 11474.00
588.1440, 11474.00
589.3150, 11588.00
590.4860, 11552.81
591.6570, 11545.00
592.8270, 11540.00
593.9980, 11501.00
595.1680, 11511.00
596.3380, 11541.00
597.5080, 11544.20
598.6780, 11521.00
599.8480, 11619.00
601.0170, 11623.00
602.1860, 11707.00
603.3550, 11755.00
604.5240, 11705.00
605.6930, 11856.00
606.8620, 11754.00
608.0310, 11783.00
609.1990, 11894.00
610.3670, 11987.00
611.5350, 12169.00
612.7030, 12056.00
613.8710, 12430.00
615.0390, 12346.00
616.2060, 12659.00
617.3730, 12746.00
618.5410, 12846.00
619.7080, 13053.00
620.8740, 13040.00
622.0410, 13304.00
623.2080, 13404.00
624.3740, 13370.00
625.5400, 13738.00
626.7060, 13637.00
627.8720, 13929.00
629.0380, 14158.00
630.2040, 14200.00
631.3690, 14530.00
632.5340, 14678.00
633.6990, 14927.00
634.8640, 15142.00
636.0290, 15411.08
637.1940, 15815.00
638.3580, 16074.00
639.5230, 16504.00
640.6870, 17013.00
641.8510, 17362.00
643.0150, 18158.00
644.1790, 18570.00
645.3420, 19246.00
646.5060, 20191.00
647.6690, 21053.00
648.8320, 22238.00
649.9950, 23292.00
651.1580, 24664.00
652.3200, 26368.00
653.4830, 27994.00
654.6450, 29724.00
655.8070, 31231.00
656.9690, 33127.00
658.1310, 34431.00
659.2930, 35676.00
660.4540, 36911.00
661.6160, 37273.00
662.7770, 37309.00
663.9380, 37216.00
665.0990, 36230.00
666.2600, 34768.00
667.4200, 33601.00
668.5810, 31806.00
669.7410, 30182.00
670.9010, 28360.00
672.0610, 26590.00
673.2210, 25124.00
674.3810, 23494.00
675.5400, 22343.00
676.6990, 20707.00
677.8590, 19671.00
679.0180, 18835.00
680.1760, 17841.00
681.3350, 17182.00
682.4940, 16204.00
683.6520, 15547.00
684.8100, 15060.00
685.9680, 14825.00
687.1260, 14390.00
688.2840, 13986.00
689.4420, 13585.00
690.5990, 13393.00
691.7560, 13052.00
692.9140, 12947.00
694.0710, 12743.00
695.2270, 12392.00
696.3840, 12326.00
697.5410, 12131.00
698.6970, 12080.00
699.8530, 11976.00
701.0090, 11828.00
702.1650, 11763.00
703.3210, 11618.00
704.4760, 11637.00
705.6320, 11478.00
706.7870, 11581.00
707.9420, 11379.00
709.0970, 11348.00
710.2520, 11433.00
711.4060, 11421.00
712.5610, 11269.00
713.7150, 11344.00
714.8690, 11258.00
716.0230, 11204.00
717.1770, 11173.00
718.3310, 11134.51
719.4840, 11017.00
720.6380, 11106.00
721.7910, 11113.00
722.9440, 11114.00
724.0970, 11035.00
725.2490, 10990.00
726.4020, 10920.00
727.5540, 10932.00
728.7070, 10912.06
729.8590, 10888.02
731.0110, 10939.00
732.1620, 10887.00
733.3140, 10917.00
734.4650, 10974.00
735.6170, 10835.00
736.7680, 10932.00
737.9190, 10804.00
739.0700, 10880.00
740.2200, 10933.00
741.3710, 10856.00
742.5210, 10792.00
743.6710, 10779.00
744.8210, 10755.92
745.9710, 10909.00
747.1210, 10758.00
748.2700, 10814.00
749.4200, 10801.00
750.5690, 10750.00
751.7180, 10785.00
752.8670, 10753.00
754.0160, 10668.00
755.1640, 10738.00
756.3130, 10786.00
757.4610, 10747.00
758.6090, 10764.00
759.7570, 10720.00
760.9050, 10655.00
762.0530, 10750.00
763.2000, 10730.00
764.3470, 10611.00
765.4940, 10651.00
766.6410, 10655.00
767.7880, 10622.00
768.9350, 10611.00
770.0810, 10605.85
771.2280, 10562.00
772.3740, 10562.00
773.5200, 10662.00
774.6660, 10580.00
775.8120, 10568.00
776.9570, 10669.00
778.1030, 10518.00
779.2480, 10576.00
780.3930, 10601.00
781.5380, 10535.00
782.6830, 10437.00
783.8270, 10642.00
784.9720, 10564.00
786.1160, 10624.00
787.2600, 10510.00
788.4040, 10636.00
789.5480, 10534.00
790.6910, 10446.00
791.8350, 10534.00
792.9780, 10579.00
794.1210, 10445.00
795.2640, 10461.00
796.4070, 10516.00
797.5500, 10537.00
798.6920, 10419.00
799.8350, 10472.00
800.9770, 10480.00
802.1190, 10375.00
803.2610, 10431.00
804.4030, 10263.00
805.5440, 10426.00
806.6850, 10528.00
807.8270, 10313.00
808.9680, 10373.00
810.1090, 10516.00
811.2490, 10407.00
812.3900, 10376.00
813.5300, 10362.00
814.6710, 10519.00
815.8110, 10341.00
816.9510, 10438.00
818.0910, 10339.00
819.2300, 10495.00
820.3700, 10320.00
821.5090, 10336.00
822.6480, 10421.00
823.7870, 10414.00
824.9260, 10315.00
826.0640, 10263.00
827.2030, 10380.00
828.3410, 10415.00
829.4790, 10466.00
830.6170, 10475.44
831.7550, 10356.00
832.8930, 10437.00
834.0310, 10400.25
835.1680, 10362.00
836.3050, 10408.00
837.4420, 10377.00
838.5790, 10292.00
839.7160, 10410.00
840.8520, 10397.00
841.9890, 10367.00
843.1250, 10411.59
844.2610, 10333.00
845.3970, 10396.00
846.5330, 10308.00
847.6680, 10251.00
848.8040, 10358.00
849.9390, 10312.00
851.0740, 10343.00
852.2090, 10190.00
853.3440, 10295.00
854.4780, 10370.00
855.6130, 10261.00
856.7470, 10344.00
857.8810, 10349.00
859.0150, 10438.00
860.1490, 10381.00
861.2830, 10413.00
862.4160, 10412.00
863.5490, 10406.57
864.6830, 10418.62
865.8160, 10420.00
866.9480, 10401.00
868.0810, 10403.00
869.2140, 10352.00
870.3460, 10366.28
871.4780, 10366.29
872.6100, 10406.00
873.7420, 10349.00
874.8740, 10435.00
876.0050, 10340.00
877.1370, 10426.00
878.2680, 10277.00
879.3990, 10479.00
880.5300, 10460.00
881.6600, 10346.00
882.7910, 10349.00
883.9210, 10370.00
885.0520, 10438.00
886.1820, 10450.00
887.3120, 10412.00
888.4410, 10461.97
889.5710, 10441.00
890.7000, 10481.00
891.8300, 10453.00
892.9590, 10424.00
894.0880, 10410.00
895.2160, 10415.00
896.3450, 10407.00
897.4730, 10379.00
898.6020, 10508.00
899.7300, 10372.00
900.8580, 10504.00
901.9860, 10586.00
903.1130, 10604.00
904.2410, 10500.00
905.3680, 10501.00
906.4950, 10460.00
907.6220, 10565.00
908.7490, 10591.00
909.8760, 10469.00
911.0020, 10374.00
912.1280, 10431.00
913.2550, 10581.00
914.3810, 10561.00
915.5060, 10485.00
916.6320, 10400.00
917.7580, 10583.00
918.8830, 10594.00
920.0080, 10581.00
921.1330, 10373.00
922.2580, 10603.00
923.3830, 10508.00
924.5070, 10480.00
925.6310, 10504.00
926.7560, 10428.00
927.8800, 10501.00
929.0040, 10486.00
930.1270, 10485.00
931.2510, 10535.00
932.3740, 10539.00
933.4970, 10565.73
934.6200, 10582.00
935.7430, 10623.00
936.8660, 10617.00
937.9890, 10664.00
939.1110, 10589.00
940.2330, 10697.00
941.3550, 10637.00
942.4770, 10663.00
943.5990, 10655.00
944.7200, 10553.00
945.8420, 10718.00
946.9630, 10649.00
948.0840, 10591.00
949.2050, 10719.00
950.3260, 10575.00
951.4460, 10749.00
952.5670, 10557.00
953.6870, 10625.00
954.8070, 10746.00
955.9270, 10668.00
957.0470, 10726.00
958.1660, 10676.00
959.2860, 10790.00
960.4050, 10702.00
961.5240, 10640.00
962.6430, 10799.00
963.7620, 10716.00
964.8810, 10715.00
965.9990, 10805.00
967.1170, 10764.00
968.2350, 10794.00
969.3530, 10764.00
970.4710, 10751.00
971.5890, 10766.00
972.7060, 10741.00
973.8240, 10778.00
974.9410, 10868.00
976.0580, 10816.19
977.1740, 10850.00
978.2910, 10783.00
979.4080, 10703.00
980.5240, 10708.00
981.6400, 10793.00
982.7560, 10849.00
983.8720, 10638.00
984.9870, 10843.00
986.1030, 10658.00
987.2180, 10713.00
988.3330, 10754.00
989.4480, 10918.00
990.5630, 10733.00
991.6780, 10849.00
992.7920, 10726.00
993.9070, 10721.00
995.0210, 10793.00
996.1350, 10859.00
997.2490, 10826.00
998.3620, 10763.00
999.4760, 10817.00
1000.589, 10771.00
1001.702, 10751.00
1002.815, 10699.00
1003.928, 10856.00
1005.041, 10794.00
1006.153, 10784.00
1007.266, 10593.00
1008.378, 10863.00
1009.490, 10749.00
1010.602, 10736.00
1011.713, 10904.00
1012.825, 10649.00
1013.936, 10757.00
1015.047, 10789.00
1016.158, 10657.00
1017.269, 10608.00
1018.380, 10722.00
1019.490, 10811.00
1020.601, 10726.00
1021.711, 10788.00
1022.821, 10767.00
1023.931, 10728.00
1025.040, 10791.00
1026.150, 10772.00
1027.259, 10693.00
1028.368, 10774.00
1029.477, 10690.00
1030.586, 10874.00
1031.695, 10787.00
1032.803, 10696.00
1033.912, 10852.00
1035.020, 10772.00
1036.128, 10754.00
1037.236, 10902.00
1038.343, 10914.00
1039.451, 10720.00
1040.558, 10811.00
1041.665, 10700.00
1042.772, 10732.00
1043.879, 10718.00
1044.986, 10841.00
1046.093, 10754.00
1047.199, 10740.00
1048.305, 10706.00
1049.411, 10855.00
1050.517, 10780.00
1051.623, 10899.00
1052.728, 10726.00
1053.833, 10918.00
1054.939, 10814.00
1056.044, 10865.00
1057.148, 10776.00
1058.253, 10844.00
1059.358, 10949.00
1060.462, 10941.00
1061.566, 10992.00
1062.670, 11021.71
1063.774, 10930.00
1064.878, 11051.00
1065.981, 10946.00
1067.085, 10933.00
1068.188, 11009.00
1069.291, 10935.00
1070.394, 10933.00
1071.496, 10893.00
1072.599, 10821.00
1073.701, 10780.00
1074.803, 10920.00
1075.905, 11089.00
1077.007, 10998.95
1078.109, 10987.00
1079.210, 10932.00
1080.312, 10906.00
1081.413, 10937.00
1082.514, 10905.00
1083.615, 10881.00
1084.715, 10862.00
1085.816, 10956.00
1086.916, 10854.00
1088.016, 11074.00
1089.116, 10913.00
1090.216, 10980.00
1091.316, 10950.00
1092.415, 10939.00
1093.515, 10992.00
1094.614, 10896.00
1095.713, 10823.00
1096.812, 10995.00
1097.910, 10943.00
1099.009, 10920.00
1100.107, 10923.00
1101.205, 11082.00
1102.303, 10876.00
1103.401, 11041.00
1104.499, 10941.00
1105.596, 10872.00
1106.693, 11001.00
1107.791, 10949.00
1108.888, 11042.00
1109.984, 11142.00
1111.081, 11069.00
1112.177, 11062.00
1113.274, 11082.00
1114.370, 10994.00
1115.466, 11159.00
1116.562, 11065.00
1117.657, 11136.00
1118.753, 11252.00
1119.848, 11151.00
1120.943, 11069.00
1122.038, 11160.00
1123.133, 11133.00
1124.228, 11226.00
1125.322, 11179.00
1126.416, 11314.00
1127.510, 11170.00
1128.604, 11244.00
1129.698, 11336.00
1130.792, 11316.00
1131.885, 11200.00
1132.978, 11366.00
1134.071, 11306.00
1135.164, 11294.00
1136.257, 11416.00
1137.350, 11254.00
1138.442, 11477.00
1139.534, 11300.00
1140.627, 11406.00
1141.718, 11351.00
1142.810, 11444.00
1143.902, 11403.00
1144.993, 11295.00
1146.084, 11357.00
1147.176, 11322.85
1148.266, 11323.88
1149.357, 11352.00
1150.448, 11375.00
1151.538, 11385.00
1152.628, 11403.69
1153.718, 11415.42
1154.808, 11411.00
1155.898, 11429.00
1156.988, 11399.00
1158.077, 11385.00
1159.166, 11358.00
1160.255, 11419.00
1161.344, 11421.00
1162.433, 11391.00
1163.521, 11421.00
1164.610, 11307.00
1165.698, 11409.00
1166.786, 11490.00
1167.874, 11348.00
1168.961, 11406.00
1170.049, 11371.48
1171.136, 11330.00
1172.224, 11390.00
1173.311, 11276.00
1174.397, 11408.00
1175.484, 11371.00
1176.571, 11198.00
1177.657, 11295.00
1178.743, 11373.00
1179.829, 11345.00
1180.915, 11275.00
1182.001, 11254.00
1183.086, 11357.00
1184.171, 11272.00
1185.256, 11281.00
1186.341, 11346.00
1187.426, 11298.00
1188.511, 11368.00
1189.595, 11267.00
1190.680, 11280.34
1191.764, 11320.00
1192.848, 11250.00
1193.932, 11197.00
1195.015, 11190.00
1196.099, 11260.00
1197.182, 11200.00
1198.265, 11148.00
1199.348, 11292.00
1200.431, 11273.00
1201.513, 11130.00
1202.596, 11092.00
1203.678, 11038.00
1204.760, 11158.00
1205.842, 11143.00
1206.924, 11158.00
1208.005, 11176.00
1209.087, 11130.00
1210.168, 11154.00
1211.249, 11223.00
1212.330, 11110.00
1213.411, 11209.00
1214.491, 11229.00
1215.572, 11118.00
1216.652, 11157.00
1217.732, 11182.00
1218.812, 11249.00
1219.891, 11286.00
1220.971, 11214.00
1222.050, 11245.00
1223.129, 11195.00
1224.208, 11132.00
1225.287, 11189.00
1226.366, 11211.00
1227.444, 11228.00
1228.523, 11205.00
1229.601, 11355.00
1230.679, 11351.00
1231.757, 11393.00
1232.834, 11287.00
1233.912, 11260.00
1234.989, 11337.00
1236.066, 11268.51
1237.143, 11279.97
1238.220, 11240.00
1239.297, 11292.00
1240.373, 11260.00
1241.449, 11359.00
1242.526, 11320.00
1243.601, 11213.00
1244.677, 11331.00
1245.753, 11290.00
1246.828, 11286.00
1247.904, 11188.00
1248.979, 11364.00
1250.054, 11411.00
1251.128, 11303.00
1252.203, 11282.00
1253.277, 11350.00
1254.351, 11300.00
1255.426, 11266.00
1256.499, 11282.00
1257.573, 11354.00
1258.647, 11349.00
1259.720, 11313.00
1260.793, 11394.00
1261.866, 11302.00
1262.939, 11292.00
1264.012, 11349.00
1265.084, 11377.00
1266.157, 11297.00
1267.229, 11152.00
1268.301, 11435.00
1269.373, 11321.00
1270.444, 11553.00
1271.516, 11500.30
1272.587, 11517.00
1273.658, 11431.00
1274.729, 11337.00
1275.800, 11361.00
1276.871, 11351.00
1277.941, 11390.00
1279.011, 11398.00
1280.082, 11466.00
1281.151, 11385.00
1282.221, 11458.00
1283.291, 11389.00
1284.360, 11444.00
1285.430, 11435.00
1286.499, 11303.00
1287.568, 11372.00
1288.636, 11386.00
1289.705, 11368.00
1290.773, 11434.00
1291.841, 11454.00
1292.909, 11518.00
1293.977, 11502.00
1295.045, 11476.00
1296.113, 11492.00
1297.180, 11438.00
1298.247, 11440.00
1299.314, 11623.00
1300.381, 11676.00
1301.448, 11503.00
1302.514, 11535.00
1303.580, 11446.00
1304.647, 11456.00
1305.713, 11572.00
1306.778, 11446.73
1307.844, 11450.49
1308.910, 11344.00
1309.975, 11355.00
1311.040, 11391.00
1312.105, 11423.00
1313.170, 11474.00
1314.234, 11453.00
1315.299, 11473.00
1316.363, 11316.00
1317.427, 11444.00
1318.491, 11312.00
1319.555, 11373.00
1320.618, 11223.00
1321.682, 11462.00
1322.745, 11225.00
1323.808, 11217.00
1324.871, 11097.00
1325.933, 11308.00
1326.996, 11261.00
1328.058, 11236.00
1329.121, 11240.00
1330.183, 11125.00
1331.244, 11144.00
1332.306, 11127.00
1333.368, 11091.00
1334.429, 10991.00
1335.490, 11183.00
1336.551, 11061.00
1337.612, 11193.00
1338.672, 10971.00
1339.733, 11105.00
1340.793, 10962.00
1341.853, 11102.00
1342.913, 11010.00
1343.973, 11045.00
1345.033, 11076.00
1346.092, 11025.00
1347.151, 11018.00
1348.210, 11000.00
1349.269, 10852.00
1350.328, 10997.00
1351.386, 10917.00
1352.445, 10976.00
1353.503, 11052.00
1354.561, 10859.00
1355.619, 10886.00
1356.677, 10932.00
1357.734, 10927.00
1358.791, 10939.00
1359.849, 10934.46
1360.906, 10983.00
1361.962, 10888.00
1363.019, 10869.00
1364.075, 10811.00
1365.132, 10870.00
1366.188, 10828.85
1367.244, 10870.00
1368.300, 10811.00
1369.355, 10836.00
1370.411, 10829.00
1371.466, 10824.00
1372.521, 10846.00
1373.576, 10804.00
1374.631, 10863.00
1375.685, 10871.00
1376.740, 10848.27
1377.794, 10800.00
1378.848, 10828.00
1379.902, 10789.00
1380.955, 10812.00
1382.009, 10894.00
1383.062, 10719.00
1384.115, 10802.00
1385.168, 10773.00
1386.221, 10871.00
1387.274, 10727.00
1388.326, 10723.00
1389.379, 10664.00
1390.431, 10677.19
1391.483, 10674.43
1392.534, 10760.00
1393.586, 10693.00
1394.637, 10724.00
1395.689, 10720.00
1396.740, 10703.00
1397.791, 10562.00
1398.841, 10666.00
1399.892, 10597.85
1400.942, 10742.00
1401.993, 10620.00
1403.043, 10734.00
1404.092, 10844.00
1405.142, 10747.00
1406.192, 10746.00
1407.241, 10736.00
1408.290, 10685.00
1409.339, 10677.00
1410.388, 10767.00
1411.437, 10619.00
1412.485, 10728.00
1413.533, 10691.00
1414.581, 10582.00
1415.629, 10680.00
1416.677, 10684.00
1417.725, 10623.00
1418.772, 10555.00
1419.819, 10607.00
1420.867, 10681.00
1421.913, 10541.00
1422.960, 10670.00
1424.007, 10474.00
1425.053, 10614.00
1426.099, 10652.00
1427.145, 10609.00
1428.191, 10456.00
1429.237, 10760.00
1430.282, 10588.00
1431.328, 10654.00
1432.373, 10603.00
1433.418, 10561.00
1434.462, 10555.00
1435.507, 10617.00
1436.552, 10567.00
1437.596, 10607.00
1438.640, 10643.00
1439.684, 10608.00
1440.728, 10688.00
1441.771, 10576.00
1442.815, 10672.00
1443.858, 10682.00
1444.901, 10619.00
1445.944, 10607.00
1446.986, 10610.00
1448.029, 10610.00
1449.071, 10594.00
1450.113, 10638.00
1451.155, 10665.00
1452.197, 10608.00
1453.239, 10662.46
1454.280, 10600.00
1455.322, 10699.00
1456.363, 10640.00
1457.404, 10639.00
1458.444, 10635.00
1459.485, 10669.00
1460.525, 10573.00
1461.566, 10456.00
1462.606, 10762.00
1463.646, 10654.00
1464.685, 10642.00
1465.725, 10551.00
1466.764, 10648.00
1467.803, 10587.00
1468.842, 10556.00
1469.881, 10780.00
1470.920, 10626.00
1471.958, 10608.00
1472.997, 10506.00
1474.035, 10628.00
1475.073, 10575.00
1476.111, 10461.00
1477.148, 10660.00
1478.186, 10495.00
1479.223, 10665.00
1480.260, 10605.00
1481.297, 10575.00
1482.334, 10593.00
1483.370, 10617.00
1484.407, 10603.98
1485.443, 10615.69
1486.479, 10579.00
1487.515, 10621.00
1488.550, 10553.00
1489.586, 10568.00
1490.621, 10653.00
1491.656, 10550.00
1492.691, 10640.00
1493.726, 10645.00
1494.761, 10541.00
1495.795, 10603.00
1496.829, 10589.63
1497.863, 10668.00
1498.897, 10638.00
1499.931, 10538.00
1500.965, 10556.00
1501.998, 10549.00
1503.031, 10471.00
1504.064, 10606.00
1505.097, 10578.00
1506.130, 10596.00
1507.162, 10511.00
1508.195, 10454.00
1509.227, 10576.00
1510.259, 10576.00
1511.291, 10642.00
1512.322, 10653.00
1513.354, 10628.00
1514.385, 10682.00
1515.416, 10549.00
1516.447, 10612.00
1517.478, 10551.00
1518.508, 10540.00
1519.539, 10644.00
1520.569, 10536.00
1521.599, 10497.00
1522.629, 10588.00
1523.658, 10566.00
1524.688, 10470.00
1525.717, 10603.00
1526.746, 10706.00
1527.775, 10599.00
1528.804, 10555.00
1529.833, 10609.00
1530.861, 10673.00
1531.890, 10619.42
1532.918, 10633.00
1533.946, 10561.00
1534.973, 10581.00
1536.001, 10563.00
1537.028, 10513.00
1538.055, 10598.00
1539.082, 10530.00
1540.109, 10523.00
1541.136, 10539.00
1542.163, 10544.00
1543.189, 10636.00
1544.215, 10654.00
1545.241, 10639.00
1546.267, 10703.00
1547.292, 10657.00
##END=



