##NAMES=Hausmannite
##RRUFFID=R040091
##IDEAL CHEMISTRY=Mn^2+^Mn^3+^_2_O_4_
##LOCALITY=Germany
##OWNER=RRUFF
##SOURCE=University of Arizona Mineral Museum
##DESCRIPTION=Mass of black octahedral crystals
##STATUS=The identification of this mineral has been confirmed by X-ray diffraction and chemical analysis
##URL=rruff.info/R040091
##MEASURED CHEMISTRY=(Mn^2+^_0.96_Zn_0.02_Mg_0.02_)Mn^3+^_2.00_O_4_
##PIN_ID=S00049
##ORIENTATION=Laser parallel to a* (1 0 0). Fiducial mark perpendicular to laser is parallel to -c [0 0 -1]
139.2070, 21668.00
140.4320, 22004.00
141.6580, 22027.00
142.8830, 22096.00
144.1080, 21579.00
145.3330, 21314.00
146.5580, 21142.00
147.7830, 21134.00
149.0070, 21226.00
150.2320, 21092.00
151.4560, 20901.00
152.6800, 21003.00
153.9040, 20784.00
155.1280, 20942.00
156.3520, 20987.00
157.5760, 20755.00
158.7990, 20565.00
160.0220, 20468.00
161.2450, 20701.00
162.4680, 20696.00
163.6910, 21066.00
164.9140, 20850.24
166.1370, 20884.13
167.3590, 20479.00
168.5810, 20650.00
169.8040, 20483.00
171.0260, 20289.00
172.2480, 20390.00
173.4690, 20549.00
174.6910, 20266.00
175.9120, 20613.00
177.1340, 20866.00
178.3550, 20400.00
179.5760, 20353.00
180.7970, 20277.00
182.0180, 20479.00
183.2380, 20270.00
184.4590, 20499.00
185.6790, 20339.97
186.8990, 20239.00
188.1190, 20235.00
189.3390, 20211.00
190.5590, 20489.00
191.7780, 20463.00
192.9980, 20414.09
194.2170, 20160.00
195.4360, 20272.00
196.6550, 20146.00
197.8740, 20206.00
199.0930, 20218.00
200.3120, 20092.00
201.5300, 19905.00
202.7480, 20309.00
203.9670, 19920.00
205.1850, 20037.00
206.4020, 19805.00
207.6200, 19874.00
208.8380, 19813.00
210.0550, 19642.00
211.2730, 19468.00
212.4900, 19501.21
213.7070, 19833.00
214.9240, 19524.00
216.1400, 19640.00
217.3570, 19617.00
218.5730, 19457.00
219.7900, 19563.00
221.0060, 19386.00
222.2220, 19452.00
223.4380, 19519.00
224.6540, 19551.00
225.8690, 19462.00
227.0850, 19402.00
228.3000, 19355.00
229.5150, 19512.00
230.7300, 19236.00
231.9450, 19478.00
233.1600, 19609.00
234.3740, 19446.17
235.5890, 19758.00
236.8030, 19324.00
238.0170, 19342.00
239.2310, 19381.00
240.4450, 19272.00
241.6590, 19541.00
242.8720, 19390.00
244.0860, 19625.00
245.2990, 19476.00
246.5120, 19451.00
247.7250, 19245.00
248.9380, 19361.00
250.1510, 19304.00
251.3630, 19316.00
252.5750, 19327.02
253.7880, 19294.63
255.0000, 19319.00
256.2120, 19314.00
257.4240, 19347.00
258.6350, 19468.00
259.8470, 19239.61
261.0580, 19513.52
262.2690, 19679.88
263.4810, 19744.51
264.6920, 19402.56
265.9020, 19585.57
267.1130, 19558.21
268.3240, 19522.22
269.5340, 19779.12
270.7440, 19496.28
271.9540, 19748.53
273.1640, 19787.18
274.3740, 19923.59
275.5840, 19848.31
276.7930, 19838.40
278.0020, 20040.24
279.2120, 20124.85
280.4210, 20025.18
281.6300, 20167.78
282.8380, 19877.50
284.0470, 20019.00
285.2550, 20127.00
286.4640, 20269.00
287.6720, 20293.00
288.8800, 20226.00
290.0880, 20474.00
291.2960, 20399.00
292.5030, 20365.00
293.7110, 20506.00
294.9180, 20446.00
296.1250, 20470.00
297.3320, 20597.00
298.5390, 20622.00
299.7460, 20722.00
300.9520, 20905.00
302.1590, 20868.00
303.3650, 20981.00
304.5710, 21435.00
305.7770, 21474.00
306.9830, 21877.00
308.1890, 22090.00
309.3940, 22522.00
310.6000, 22937.00
311.8050, 23586.00
313.0100, 24067.00
314.2150, 24644.00
315.4200, 25323.00
316.6240, 25656.10
317.8290, 25953.00
319.0330, 26178.00
320.2370, 26320.00
321.4410, 26086.00
322.6450, 25732.00
323.8490, 25433.00
325.0530, 25277.00
326.2560, 24600.00
327.4600, 24147.00
328.6630, 23847.00
329.8660, 23454.00
331.0690, 23113.60
332.2710, 22880.00
333.4740, 22537.00
334.6760, 22281.20
335.8790, 22173.00
337.0810, 21922.00
338.2830, 21809.00
339.4850, 21787.00
340.6860, 21581.00
341.8880, 21778.00
343.0890, 21641.00
344.2910, 21695.00
345.4920, 21826.00
346.6930, 21801.00
347.8940, 21836.25
349.0940, 21819.00
350.2950, 21764.00
351.4950, 21834.00
352.6950, 21688.00
353.8950, 21916.00
355.0950, 22335.00
356.2950, 22212.00
357.4950, 22367.00
358.6940, 22644.00
359.8940, 22790.00
361.0930, 23023.56
362.2920, 23280.00
363.4910, 23434.00
364.6890, 23574.00
365.8880, 23708.00
367.0860, 23715.00
368.2850, 23743.43
369.4830, 23724.00
370.6810, 23647.00
371.8790, 23535.00
373.0760, 23419.00
374.2740, 23276.71
375.4710, 22873.00
376.6690, 22904.00
377.8660, 22666.00
379.0630, 22357.00
380.2590, 22261.00
381.4560, 21986.47
382.6530, 21798.74
383.8490, 21574.00
385.0450, 21462.00
386.2410, 21302.00
387.4370, 21248.00
388.6330, 21194.00
389.8280, 20970.00
391.0240, 20858.00
392.2190, 21029.00
393.4140, 20909.00
394.6090, 20864.00
395.8040, 20723.00
396.9990, 20796.00
398.1930, 20720.00
399.3880, 20605.00
400.5820, 20751.79
401.7760, 20707.48
402.9700, 20933.00
404.1640, 20692.00
405.3580, 20666.00
406.5510, 20411.00
407.7440, 20467.00
408.9380, 20467.00
410.1310, 20420.00
411.3240, 20540.00
412.5160, 20563.00
413.7090, 20712.00
414.9010, 20592.00
416.0940, 20710.00
417.2860, 20603.00
418.4780, 20640.00
419.6700, 20475.03
420.8610, 20733.13
422.0530, 20883.71
423.2440, 20932.50
424.4360, 20574.75
425.6270, 20741.98
426.8180, 20698.81
428.0080, 20647.00
429.1990, 20888.12
430.3890, 20589.48
431.5800, 20772.00
432.7700, 20631.00
433.9600, 20636.00
435.1500, 20731.00
436.3400, 20907.00
437.5290, 20989.00
438.7190, 20983.60
439.9080, 21135.00
441.0970, 20887.00
442.2860, 20903.00
443.4750, 20807.00
444.6640, 20870.00
445.8520, 20991.00
447.0400, 20961.00
448.2290, 20873.00
449.4170, 21111.00
450.6050, 21131.00
451.7920, 21262.00
452.9800, 20864.00
454.1670, 21014.00
455.3550, 21065.00
456.5420, 21112.00
457.7290, 21322.00
458.9160, 21085.00
460.1030, 21181.00
461.2890, 21169.00
462.4750, 21302.00
463.6620, 21119.00
464.8480, 21235.00
466.0340, 21253.00
467.2200, 21477.00
468.4050, 21424.00
469.5910, 21472.00
470.7760, 21599.00
471.9610, 21703.00
473.1460, 21517.00
474.3310, 21587.00
475.5160, 22056.00
476.7000, 21689.00
477.8850, 21881.00
479.0690, 21947.00
480.2530, 21757.00
481.4370, 21880.00
482.6210, 22132.00
483.8050, 21833.00
484.9880, 21855.00
486.1710, 22013.00
487.3550, 21664.00
488.5380, 21989.00
489.7210, 21945.00
490.9030, 22459.00
492.0860, 22513.00
493.2680, 21890.00
494.4510, 22240.00
495.6330, 22129.00
496.8150, 22079.00
497.9970, 22145.00
499.1780, 22196.00
500.3600, 21983.00
501.5410, 22383.00
502.7220, 22117.00
503.9030, 22353.00
505.0840, 22507.00
506.2650, 22434.00
507.4460, 22462.00
508.6260, 22447.71
509.8060, 22370.00
510.9870, 22385.00
512.1670, 22320.00
513.3460, 22346.00
514.5260, 22490.00
515.7060, 22771.00
516.8850, 22515.00
518.0640, 22664.00
519.2430, 22852.00
520.4220, 22772.08
521.6010, 22992.00
522.7790, 22869.00
523.9580, 22811.00
525.1360, 22885.00
526.3140, 23066.00
527.4920, 23045.00
528.6700, 23125.00
529.8480, 22976.00
531.0250, 23086.00
532.2030, 23118.00
533.3800, 23179.00
534.5570, 23431.00
535.7340, 23095.00
536.9110, 23216.00
538.0870, 23016.00
539.2640, 23147.00
540.4400, 23501.00
541.6160, 23347.00
542.7920, 23486.00
543.9680, 23437.00
545.1440, 23680.00
546.3190, 23769.00
547.4940, 23745.00
548.6700, 23872.00
549.8450, 24078.00
551.0200, 24120.00
552.1940, 24241.00
553.3690, 24267.00
554.5430, 24205.00
555.7180, 24524.00
556.8920, 24485.00
558.0660, 24751.00
559.2400, 24806.00
560.4130, 24815.00
561.5870, 24862.00
562.7600, 25033.00
563.9330, 25061.00
565.1060, 25176.00
566.2790, 25181.00
567.4520, 25337.00
568.6250, 25305.00
569.7970, 25275.00
570.9690, 25290.00
572.1410, 25165.00
573.3130, 25065.00
574.4850, 25428.00
575.6570, 25276.00
576.8280, 25192.00
578.0000, 24998.00
579.1710, 25072.00
580.3420, 25068.00
581.5130, 24821.00
582.6830, 24883.00
583.8540, 24737.00
585.0240, 24646.00
586.1940, 24730.00
587.3650, 24377.00
588.5340, 24559.00
589.7040, 24871.00
590.8740, 24219.00
592.0430, 24384.00
593.2130, 24329.00
594.3820, 24217.00
595.5510, 24470.00
596.7200, 24395.00
597.8880, 24607.00
599.0570, 24611.00
600.2250, 24752.00
601.3930, 24752.00
602.5610, 24921.00
603.7290, 24799.00
604.8970, 25110.00
606.0650, 25330.00
607.2320, 25290.00
608.3990, 25746.00
609.5670, 25767.00
610.7330, 26279.00
611.9000, 26409.00
613.0670, 26713.32
614.2330, 26745.00
615.4000, 27335.00
616.5660, 27484.00
617.7320, 27827.00
618.8980, 27973.00
620.0640, 28527.00
621.2290, 28932.00
622.3950, 29147.00
623.5600, 29562.25
624.7250, 30048.00
625.8900, 30216.00
627.0550, 30565.00
628.2190, 31026.00
629.3840, 31685.00
630.5480, 32258.00
631.7120, 33267.00
632.8760, 33747.00
634.0400, 34482.00
635.2040, 35970.00
636.3670, 37280.00
637.5300, 38579.00
638.6940, 40356.00
639.8570, 42116.00
641.0190, 44474.00
642.1820, 47445.00
643.3450, 50529.00
644.5070, 54120.00
645.6690, 58636.00
646.8320, 63893.00
647.9930, 70137.00
649.1550, 77151.00
650.3170, 85613.00
651.4780, 94781.00
652.6400, 104570.0
653.8010, 114009.0
654.9620, 123347.0
656.1230, 130452.0
657.2830, 130456.0
658.4440, 130430.0
659.6040, 130452.0
660.7640, 130430.0
661.9240, 130452.0
663.0840, 130462.0
664.2440, 126665.8
665.4040, 125004.0
666.5630, 116652.0
667.7220, 107772.0
668.8810, 99217.00
670.0400, 90910.00
671.1990, 82760.00
672.3580, 76117.00
673.5160, 69359.00
674.6750, 64044.00
675.8330, 58997.00
676.9910, 54986.00
678.1480, 51295.00
679.3060, 48017.00
680.4640, 45344.00
681.6210, 42844.00
682.7780, 40875.00
683.9350, 38928.39
685.0920, 37300.00
686.2490, 35906.00
687.4050, 34888.00
688.5620, 33904.00
689.7180, 32877.00
690.8740, 32090.00
692.0300, 31411.00
693.1860, 30788.00
694.3410, 30130.00
695.4970, 29520.00
696.6520, 29194.00
697.8070, 28555.00
698.9620, 28230.00
700.1170, 28130.00
701.2720, 27858.00
702.4260, 27783.00
703.5810, 27786.00
704.7350, 27858.00
705.8890, 27690.00
707.0430, 27547.00
708.1960, 27157.00
709.3500, 26948.00
710.5030, 26602.00
711.6570, 26586.00
712.8100, 26408.00
713.9630, 26134.00
715.1150, 26014.00
716.2680, 25744.00
717.4200, 25610.00
718.5730, 25615.00
719.7250, 25788.00
720.8770, 25564.00
722.0280, 25691.00
723.1800, 25382.00
724.3310, 25494.00
725.4830, 25317.00
726.6340, 25267.00
727.7850, 25224.37
728.9360, 25145.41
730.0860, 25052.00
731.2370, 25099.00
732.3870, 24975.00
733.5370, 25006.00
734.6880, 25023.00
735.8370, 25113.00
736.9870, 24930.00
738.1370, 24670.00
739.2860, 24918.00
740.4350, 24600.00
741.5840, 24850.00
742.7330, 24645.00
743.8820, 24630.00
745.0310, 24525.00
746.1790, 24679.00
747.3270, 24378.00
748.4750, 24252.00
749.6230, 24405.00
750.7710, 24339.00
751.9190, 24119.00
753.0660, 24151.00
754.2140, 24139.00
755.3610, 24167.00
756.5080, 24169.30
757.6540, 24122.00
758.8010, 24140.00
759.9480, 24128.00
761.0940, 24031.00
762.2400, 24189.00
763.3860, 23865.00
764.5320, 23945.00
765.6780, 24060.00
766.8230, 23847.00
767.9690, 24043.00
769.1140, 23852.00
770.2590, 24055.00
771.4040, 23633.00
772.5490, 23723.00
773.6930, 23769.00
774.8380, 23543.00
775.9820, 23604.00
777.1260, 23486.00
778.2700, 23347.00
779.4140, 23363.00
780.5570, 23347.00
781.7010, 23185.00
782.8440, 23275.00
783.9870, 22949.00
785.1300, 23222.00
786.2730, 23064.00
787.4150, 23138.00
788.5580, 22836.00
789.7000, 23029.00
790.8420, 23030.00
791.9840, 22972.00
793.1260, 22956.00
794.2680, 22889.00
795.4090, 22775.00
796.5510, 22690.00
797.6920, 22782.00
798.8330, 22829.00
799.9740, 22643.00
801.1150, 22772.00
802.2550, 22544.00
803.3950, 22752.00
804.5360, 22645.00
805.6760, 22570.00
806.8160, 22646.00
807.9550, 22878.00
809.0950, 22644.00
810.2340, 22464.00
811.3740, 22671.00
812.5130, 22536.00
813.6520, 22471.00
814.7900, 22320.00
815.9290, 22338.48
817.0670, 22835.00
818.2060, 22287.00
819.3440, 22545.00
820.4820, 22341.00
821.6190, 22160.00
822.7570, 22371.00
823.8950, 22329.00
825.0320, 22275.00
826.1690, 22406.00
827.3060, 22201.00
828.4430, 22206.00
829.5790, 22273.00
830.7160, 22206.00
831.8520, 22101.00
832.9880, 22102.00
834.1240, 22066.00
835.2600, 21997.00
836.3960, 22162.00
837.5310, 21925.00
838.6670, 21988.00
839.8020, 21960.00
840.9370, 22209.00
842.0720, 22275.00
843.2060, 21999.00
844.3410, 21935.00
845.4750, 22022.00
846.6100, 21935.00
847.7440, 22041.00
848.8770, 21909.00
850.0110, 21912.00
851.1450, 21896.00
852.2780, 21819.00
853.4110, 21854.04
854.5440, 21884.00
855.6770, 21803.00
856.8100, 22015.00
857.9430, 21843.00
859.0750, 21869.00
860.2070, 21914.00
861.3390, 21734.00
862.4710, 21840.00
863.6030, 21789.00
864.7350, 21860.00
865.8660, 22123.00
866.9970, 21823.00
868.1280, 22140.00
869.2590, 21960.98
870.3900, 21901.12
871.5210, 21852.00
872.6510, 21728.00
873.7820, 21967.00
874.9120, 21903.00
876.0420, 21874.00
877.1710, 21902.00
878.3010, 21882.00
879.4300, 22006.00
880.5600, 21887.00
881.6890, 22292.00
882.8180, 22622.00
883.9470, 22080.00
885.0750, 21900.00
886.2040, 22022.00
887.3320, 22104.00
888.4600, 21959.00
889.5880, 22120.00
890.7160, 22127.00
891.8440, 21940.00
892.9710, 21964.00
894.0990, 22005.00
895.2260, 22066.00
896.3530, 22148.00
897.4800, 21990.00
898.6060, 22152.00
899.7330, 22113.01
900.8590, 22017.00
901.9850, 22054.00
903.1110, 22062.89
904.2370, 22064.65
905.3630, 22151.00
906.4890, 22140.00
907.6140, 22143.00
908.7390, 22184.00
909.8640, 21995.00
910.9890, 22191.00
912.1140, 22080.00
913.2380, 22173.00
914.3630, 22103.00
915.4870, 22174.00
916.6110, 22162.00
917.7350, 22255.00
918.8580, 22276.00
919.9820, 22250.00
921.1050, 22183.00
922.2290, 22230.00
923.3520, 22389.00
924.4750, 22250.02
925.5970, 22382.96
926.7200, 22119.00
927.8420, 22419.00
928.9640, 22461.00
930.0870, 22312.00
931.2080, 22272.00
932.3300, 22342.00
933.4520, 22431.00
934.5730, 22265.00
935.6940, 22320.00
936.8150, 22263.00
937.9360, 22382.00
939.0570, 22236.00
940.1780, 22344.00
941.2980, 22499.00
942.4180, 22483.00
943.5380, 22397.00
944.6580, 22462.00
945.7780, 22483.00
946.8980, 22477.00
948.0170, 22544.10
949.1360, 22551.74
950.2560, 22626.00
951.3740, 22597.00
952.4930, 22600.00
953.6120, 22600.00
954.7300, 22606.00
955.8480, 22443.00
956.9670, 22658.00
958.0850, 22497.00
959.2020, 22507.00
960.3200, 22612.00
961.4370, 22719.00
962.5550, 22662.00
963.6720, 22658.00
964.7890, 22742.00
965.9050, 22774.00
967.0220, 22774.43
968.1380, 22780.00
969.2550, 22751.00
970.3710, 22747.00
971.4870, 22685.00
972.6030, 22871.00
973.7180, 22897.00
974.8340, 22863.00
975.9490, 22836.00
977.0640, 22737.00
978.1790, 22763.00
979.2940, 22915.00
980.4080, 22830.00
981.5230, 22814.00
982.6370, 22820.00
983.7510, 22769.00
984.8650, 22738.00
985.9790, 22964.00
987.0920, 22840.00
988.2060, 22912.00
989.3190, 22732.00
990.4320, 22761.00
991.5450, 22743.43
992.6580, 22713.38
993.7710, 22503.85
994.8830, 22749.24
995.9950, 22887.07
997.1080, 22923.15
998.2190, 22552.67
999.3310, 22707.18
1000.443, 22651.29
1001.554, 22586.78
1002.666, 22815.17
1003.777, 22503.83
1004.888, 22727.57
1005.998, 22737.72
1007.109, 22845.63
1008.219, 22741.85
1009.330, 22703.45
1010.440, 22876.81
1011.550, 22932.92
1012.660, 22618.00
1013.769, 22654.00
1014.879, 22798.00
1015.988, 22479.00
1017.097, 22433.00
1018.206, 22769.00
1019.315, 22628.00
1020.423, 22666.00
1021.532, 22722.00
1022.640, 22548.00
1023.748, 22621.00
1024.856, 22668.00
1025.964, 22559.00
1027.072, 22692.00
1028.179, 22679.00
1029.286, 22581.00
1030.393, 22634.00
1031.500, 22613.08
1032.607, 22586.00
1033.714, 22710.00
1034.820, 22527.00
1035.926, 22696.00
1037.032, 22577.00
1038.138, 22607.00
1039.244, 22707.00
1040.350, 22610.00
1041.455, 22683.00
1042.560, 22664.07
1043.665, 22678.00
1044.770, 22568.00
1045.875, 22820.00
1046.980, 22639.00
1048.084, 22740.00
1049.188, 22619.00
1050.292, 22683.00
1051.396, 22730.00
1052.500, 22696.00
1053.604, 22751.00
1054.707, 22729.00
1055.810, 22817.00
1056.913, 22597.00
1058.016, 22558.00
1059.119, 22633.00
1060.222, 22666.00
1061.324, 22914.00
1062.426, 22868.00
1063.528, 22859.29
1064.630, 22970.00
1065.732, 22801.00
1066.834, 22646.00
1067.935, 22821.00
1069.036, 23006.00
1070.137, 22937.00
1071.238, 23036.00
1072.339, 22849.00
1073.439, 22908.00
1074.540, 23002.00
1075.640, 23059.00
1076.740, 22823.00
1077.840, 22832.00
1078.940, 22810.00
1080.039, 23075.00
1081.138, 22993.00
1082.238, 23185.00
1083.337, 23110.50
1084.436, 23116.00
1085.534, 22970.00
1086.633, 23096.00
1087.731, 23119.00
1088.829, 23177.00
1089.927, 23193.00
1091.025, 23109.00
1092.123, 23030.00
1093.220, 23440.00
1094.318, 23292.00
1095.415, 23504.00
1096.512, 23246.00
1097.609, 23386.62
1098.705, 23637.00
1099.802, 23530.00
1100.898, 23405.00
1101.994, 23434.00
1103.090, 23455.00
1104.186, 23725.00
1105.282, 23655.00
1106.377, 23740.00
1107.473, 23837.00
1108.568, 23740.00
1109.663, 23835.00
1110.758, 23979.00
1111.852, 23876.00
1112.947, 24006.00
1114.041, 24096.00
1115.135, 24162.00
1116.229, 24301.00
1117.323, 24103.00
1118.417, 24335.00
1119.510, 24266.00
1120.603, 24416.00
1121.696, 24463.00
1122.789, 24425.00
1123.882, 24591.00
1124.975, 24879.00
1126.067, 24814.00
1127.159, 24615.00
1128.251, 24510.00
1129.343, 24772.00
1130.435, 24817.00
1131.527, 24913.00
1132.618, 24823.00
1133.709, 24946.00
1134.800, 25007.00
1135.891, 24954.69
1136.982, 24935.00
1138.073, 24870.00
1139.163, 24992.00
1140.253, 24894.00
1141.343, 24706.00
1142.433, 24813.00
1143.523, 24938.00
1144.612, 24942.00
1145.702, 24796.00
1146.791, 24791.00
1147.880, 24775.00
1148.969, 24929.00
1150.058, 24802.00
1151.146, 24826.73
1152.235, 24741.22
1153.323, 24808.00
1154.411, 24803.04
1155.499, 24703.00
1156.586, 24853.00
1157.674, 24822.00
1158.761, 24842.79
1159.848, 24834.00
1160.935, 24794.00
1162.022, 24784.11
1163.109, 24538.00
1164.195, 24628.00
1165.281, 24665.00
1166.368, 24393.00
1167.454, 24337.00
1168.539, 24522.00
1169.625, 24777.00
1170.710, 24436.00
1171.796, 24487.00
1172.881, 24394.00
1173.966, 24412.00
1175.051, 24356.82
1176.135, 24346.22
1177.220, 24245.00
1178.304, 24329.00
1179.388, 24291.00
1180.472, 24261.00
1181.556, 24327.00
1182.639, 24425.00
1183.723, 24244.00
1184.806, 24149.00
1185.889, 24191.00
1186.972, 24267.00
1188.055, 24179.00
1189.137, 24156.00
1190.219, 23995.00
1191.302, 24199.00
1192.384, 24257.00
1193.466, 24070.00
1194.547, 24137.00
1195.629, 24080.00
1196.710, 24137.00
1197.791, 24195.00
1198.872, 24041.00
1199.953, 24190.00
1201.034, 23900.00
1202.114, 23988.00
1203.195, 23966.00
1204.275, 23779.00
1205.355, 23844.00
1206.435, 23875.00
1207.514, 24084.00
1208.594, 23895.00
1209.673, 23961.00
1210.752, 24177.00
1211.831, 24032.00
1212.910, 23994.00
1213.989, 24173.00
1215.067, 24099.00
1216.145, 24163.00
1217.223, 24102.00
1218.301, 24089.66
1219.379, 24081.00
1220.457, 24058.00
1221.534, 24135.00
1222.611, 24155.00
1223.688, 24208.00
1224.765, 24143.00
1225.842, 24306.00
1226.918, 24289.00
1227.995, 24391.00
1229.071, 24214.00
1230.147, 24381.00
1231.223, 24003.88
1232.299, 24257.41
1233.374, 24403.39
1234.449, 24447.61
1235.525, 24085.28
1236.600, 24247.93
1237.674, 24200.18
1238.749, 24143.81
1239.824, 24380.34
1240.898, 24077.13
1241.972, 24309.01
1243.046, 24327.30
1244.120, 24443.34
1245.193, 24347.69
1246.267, 24317.42
1247.340, 24498.91
1248.413, 24563.14
1249.486, 24443.12
1250.559, 24565.37
1251.632, 24254.76
1252.704, 24323.98
1253.776, 24557.09
1254.848, 24447.71
1255.920, 24573.82
1256.992, 24610.24
1258.064, 24239.05
1259.135, 24576.73
1260.206, 24607.84
1261.277, 24324.19
1262.348, 24637.57
1263.419, 24397.31
1264.489, 24354.66
1265.560, 24460.74
1266.630, 24411.77
1267.700, 24607.23
1268.770, 24706.00
1269.839, 24573.00
1270.909, 24475.00
1271.978, 24445.00
1273.047, 24503.24
1274.116, 24556.00
1275.185, 24692.00
1276.254, 24751.00
1277.322, 24753.00
1278.390, 24542.00
1279.458, 24784.00
1280.526, 24613.00
1281.594, 24906.00
1282.662, 24647.00
1283.729, 24461.00
1284.796, 24899.00
1285.863, 24675.00
1286.930, 24830.00
1287.997, 24864.00
1289.063, 24861.00
1290.130, 25109.00
1291.196, 25036.00
1292.262, 24984.00
1293.328, 24892.00
1294.394, 24946.99
1295.459, 25001.00
1296.524, 25045.00
1297.590, 25061.00
1298.655, 25056.00
1299.719, 25123.36
1300.784, 25024.00
1301.849, 25218.00
1302.913, 25099.00
1303.977, 25091.00
1305.041, 25098.00
1306.105, 24921.00
1307.168, 25003.00
1308.232, 24714.19
1309.295, 24911.04
1310.358, 25000.36
1311.421, 24987.91
1312.484, 24568.90
1313.546, 24674.92
1314.609, 24570.51
1315.671, 24457.52
1316.733, 24637.43
1317.795, 24277.60
1318.856, 24452.91
1319.918, 24414.58
1320.979, 24474.05
1322.040, 24321.83
1323.101, 24235.00
1324.162, 24359.92
1325.223, 24367.60
1326.283, 24191.06
1327.344, 24256.74
1328.404, 23889.61
1329.464, 23902.33
1330.523, 24078.97
1331.583, 23946.00
1332.642, 23704.00
1333.702, 23653.00
1334.761, 23779.00
1335.820, 23551.00
1336.878, 23606.00
1337.937, 23523.00
1338.995, 23676.00
1340.054, 23453.00
1341.112, 23495.00
1342.169, 23370.00
1343.227, 23451.00
1344.285, 23391.00
1345.342, 23348.00
1346.399, 23288.00
1347.456, 23340.00
1348.513, 23080.09
1349.570, 23296.92
1350.626, 23406.23
1351.682, 23413.79
1352.738, 23014.78
1353.794, 23140.76
1354.850, 23056.35
1355.906, 22963.31
1356.961, 23163.20
1358.016, 22823.36
1359.071, 23018.60
1360.126, 23000.25
1361.181, 23079.66
1362.236, 22947.38
1363.290, 22880.51
1364.344, 23025.40
1365.398, 23053.03
1366.452, 22969.00
1367.506, 22905.00
1368.559, 23008.00
1369.613, 23005.00
1370.666, 22959.89
1371.719, 22981.00
1372.771, 22867.00
1373.824, 22705.00
1374.877, 22653.00
1375.929, 22609.75
1376.981, 22551.21
1378.033, 22591.00
1379.085, 22546.00
1380.136, 22508.00
1381.188, 22576.00
1382.239, 22800.00
1383.290, 22627.00
1384.341, 22716.00
1385.391, 22629.00
1386.442, 22489.00
1387.492, 22612.00
1388.542, 22404.00
1389.592, 22639.00
1390.642, 22496.00
1391.692, 22476.00
1392.741, 22690.00
1393.791, 22486.00
1394.840, 22386.00
1395.889, 22349.00
1396.938, 22420.00
1397.986, 22157.00
1399.035, 22579.00
1400.083, 22258.00
1401.131, 22446.00
1402.179, 22355.00
1403.226, 22615.00
1404.274, 22404.00
1405.321, 22383.00
1406.369, 22389.00
1407.416, 22471.00
1408.462, 22603.00
1409.509, 22533.00
1410.556, 22398.00
1411.602, 22468.00
1412.648, 22297.00
1413.694, 22354.00
1414.740, 22361.00
1415.785, 22430.00
1416.831, 22418.07
1417.876, 22354.00
1418.921, 22335.00
1419.966, 22386.00
1421.011, 22206.00
1422.055, 22374.00
1423.100, 22495.00
1424.144, 22031.00
1425.188, 22333.00
1426.232, 22292.00
1427.276, 22201.00
1428.319, 22249.00
1429.362, 22271.00
1430.406, 22383.00
1431.448, 22363.21
1432.491, 22286.00
1433.534, 22356.00
1434.576, 22239.00
1435.619, 22212.00
1436.661, 22252.57
1437.703, 22335.00
1438.744, 22312.81
1439.786, 22389.00
1440.827, 22417.00
1441.869, 22296.00
1442.910, 22071.00
1443.950, 22178.00
1444.991, 22330.00
1446.032, 22294.00
1447.072, 22434.00
1448.112, 22199.00
1449.152, 22209.00
1450.192, 22407.00
1451.232, 22184.00
1452.271, 22195.00
1453.310, 22226.00
1454.349, 22206.00
1455.388, 22128.00
1456.427, 22197.00
1457.466, 22265.00
1458.504, 22211.00
1459.542, 22354.00
1460.580, 22216.00
1461.618, 22269.00
1462.656, 22310.00
1463.693, 22320.00
1464.731, 22362.00
1465.768, 22343.25
1466.805, 22252.00
1467.842, 22323.00
1468.878, 22173.00
1469.915, 22198.00
1470.951, 22180.00
1471.987, 22187.00
1473.023, 22381.00
1474.059, 22177.00
1475.094, 22432.00
1476.130, 22233.00
1477.165, 22654.00
1478.200, 22274.00
1479.235, 22135.00
1480.270, 22384.00
1481.304, 22186.00
1482.338, 22319.00
1483.373, 22468.00
1484.406, 22294.00
1485.440, 22295.00
1486.474, 22196.00
1487.507, 22044.00
1488.541, 22572.00
1489.574, 22104.00
1490.607, 22324.00
1491.639, 22288.00
1492.672, 22046.00
1493.704, 22102.00
1494.737, 22184.00
1495.769, 22243.00
1496.800, 22237.00
1497.832, 22089.00
1498.864, 22242.00
1499.895, 22256.00
1500.926, 22094.00
1501.957, 22345.00
1502.988, 22214.00
1504.018, 22327.00
1505.049, 22311.00
1506.079, 22167.00
1507.109, 22166.00
1508.139, 22124.00
1509.169, 22176.00
1510.198, 22211.00
1511.228, 22230.00
1512.257, 22238.00
1513.286, 22128.00
1514.315, 22120.00
1515.343, 22201.00
1516.372, 22342.00
1517.400, 22175.00
1518.428, 22283.00
1519.456, 22074.00
1520.484, 22183.00
1521.512, 22383.00
1522.539, 22254.00
1523.566, 22274.00
1524.593, 22044.00
1525.620, 22231.00
1526.647, 22298.00
1527.674, 22338.00
1528.700, 22145.00
1529.726, 22324.00
1530.752, 22213.00
1531.778, 22257.00
1532.804, 22088.00
1533.829, 22097.85
1534.854, 22337.00
1535.879, 22104.00
1536.904, 22215.00
1537.929, 22335.00
1538.954, 22334.00
1539.978, 22270.00
1541.002, 22377.00
1542.026, 22408.00
1543.050, 22012.00
1544.074, 22079.00
1545.097, 22209.46
1546.121, 22459.76
1547.144, 22602.51
1548.167, 22643.50
1549.190, 22277.93
1550.212, 22437.35
1551.235, 22386.37
1552.257, 22326.77
1553.279, 22560.07
1554.301, 22253.63
1555.323, 22482.28
1556.344, 22497.33
1557.366, 22610.15
1558.387, 22511.27
1559.408, 22477.78
1560.429, 22656.04
1561.449, 22211.00
1562.470, 22038.00
1563.490, 22230.00
1564.510, 21987.00
1565.530, 22118.00
1566.550, 22172.00
1567.569, 22249.00
1568.589, 22124.00
1569.608, 22234.00
1570.627, 22239.66
1571.646, 22058.00
1572.665, 22298.00
1573.683, 22258.00
1574.702, 22226.00
1575.720, 22226.00
1576.738, 22283.00
1577.755, 22212.00
1578.773, 22774.00
##END=



