##NAMES=Hausmannite
##RRUFFID=R040091
##IDEAL CHEMISTRY=Mn^2+^Mn^3+^_2_O_4_
##LOCALITY=Germany
##OWNER=RRUFF
##SOURCE=University of Arizona Mineral Museum
##DESCRIPTION=Mass of black octahedral crystals
##STATUS=The identification of this mineral has been confirmed by X-ray diffraction and chemical analysis
##URL=rruff.info/R040091
##MEASURED CHEMISTRY=(Mn^2+^_0.96_Zn_0.02_Mg_0.02_)Mn^3+^_2.00_O_4_
##PIN_ID=S00049
##ORIENTATION=Laser parallel to a* (1 0 0). Fiducial mark perpendicular to laser is parallel to -c [0 0 -1]
157.5760, 19818.00
158.7990, 19852.00
160.0220, 19711.00
161.2450, 19696.00
162.4680, 19803.00
163.6910, 20075.00
164.9140, 19825.00
166.1370, 19762.00
167.3590, 19930.00
168.5810, 19678.00
169.8040, 19748.00
171.0260, 19745.00
172.2480, 19813.00
173.4690, 19766.57
174.6910, 19783.00
175.9120, 19682.00
177.1340, 19695.00
178.3550, 19691.00
179.5760, 19693.00
180.7970, 19582.00
182.0180, 19683.00
183.2380, 19738.00
184.4590, 19599.00
185.6790, 19533.00
186.8990, 19631.00
188.1190, 19951.00
189.3390, 19674.00
190.5590, 19946.00
191.7780, 19844.00
192.9980, 19740.00
194.2170, 19795.00
195.4360, 19799.00
196.6550, 19855.00
197.8740, 19792.00
199.0930, 20028.00
200.3120, 19938.00
201.5300, 19818.00
202.7480, 19994.00
203.9670, 20031.00
205.1850, 19887.00
206.4020, 19719.00
207.6200, 19693.00
208.8380, 19756.00
210.0550, 19658.00
211.2730, 19683.00
212.4900, 19801.00
213.7070, 19750.00
214.9240, 19695.00
216.1400, 19805.00
217.3570, 19722.38
218.5730, 19741.00
219.7900, 19742.00
221.0060, 19777.00
222.2220, 19757.70
223.4380, 19686.00
224.6540, 19755.00
225.8690, 19695.00
227.0850, 19749.00
228.3000, 19827.00
229.5150, 19932.00
230.7300, 19777.00
231.9450, 19813.00
233.1600, 19638.00
234.3740, 19726.00
235.5890, 19971.00
236.8030, 19896.00
238.0170, 19998.83
239.2310, 19973.10
240.4450, 20045.00
241.6590, 19962.00
242.8720, 19995.00
244.0860, 20232.00
245.2990, 19883.00
246.5120, 20200.00
247.7250, 20153.00
248.9380, 19992.00
250.1510, 20163.00
251.3630, 20009.00
252.5750, 20152.00
253.7880, 20233.00
255.0000, 19937.00
256.2120, 20253.00
257.4240, 20152.00
258.6350, 20146.00
259.8470, 20104.57
261.0580, 20330.68
262.2690, 20476.13
263.4810, 20545.29
264.6920, 20309.50
265.9020, 20467.42
267.1130, 20467.57
268.3240, 20461.26
269.5340, 20674.59
270.7440, 20483.12
271.9540, 20692.96
273.1640, 20742.61
274.3740, 20865.58
275.5840, 20829.78
276.7930, 20842.98
278.0020, 21015.00
279.2120, 20704.00
280.4210, 20859.00
281.6300, 20920.00
282.8380, 21145.00
284.0470, 21180.96
285.2550, 21214.00
286.4640, 21334.00
287.6720, 21354.46
288.8800, 21489.00
290.0880, 21628.00
291.2960, 21740.00
292.5030, 22058.00
293.7110, 21815.00
294.9180, 21788.00
296.1250, 21995.00
297.3320, 22191.00
298.5390, 22509.00
299.7460, 22385.00
300.9520, 22941.00
302.1590, 22925.00
303.3650, 23364.00
304.5710, 24202.00
305.7770, 24268.00
306.9830, 24850.00
308.1890, 25432.00
309.3940, 26204.00
310.6000, 26986.00
311.8050, 27782.00
313.0100, 28906.00
314.2150, 30069.00
315.4200, 30703.00
316.6240, 31454.00
317.8290, 31772.00
319.0330, 32030.00
320.2370, 31857.00
321.4410, 31302.00
322.6450, 30544.00
323.8490, 29855.00
325.0530, 28995.00
326.2560, 28349.00
327.4600, 27346.00
328.6630, 26636.00
329.8660, 25974.00
331.0690, 25366.00
332.2710, 25079.00
333.4740, 24829.00
334.6760, 24141.00
335.8790, 23773.00
337.0810, 23840.00
338.2830, 23572.00
339.4850, 23377.00
340.6860, 23308.70
341.8880, 23293.79
343.0890, 23247.62
344.2910, 23172.87
345.4920, 22917.30
346.6930, 22946.61
347.8940, 22893.10
349.0940, 22857.65
350.2950, 22991.02
351.4950, 22876.85
352.6950, 23086.00
353.8950, 23030.00
355.0950, 23155.00
356.2950, 23197.00
357.4950, 23257.00
358.6940, 23107.00
359.8940, 23308.00
361.0930, 23320.00
362.2920, 23261.00
363.4910, 23456.00
364.6890, 23350.00
365.8880, 23692.00
367.0860, 23601.00
368.2850, 23530.00
369.4830, 23456.00
370.6810, 23433.86
371.8790, 23421.65
373.0760, 23478.00
374.2740, 23561.00
375.4710, 23730.00
376.6690, 23615.96
377.8660, 23572.88
379.0630, 23424.00
380.2590, 23221.00
381.4560, 23126.00
382.6530, 22826.00
383.8490, 22875.00
385.0450, 22963.00
386.2410, 22670.00
387.4370, 22688.00
388.6330, 22573.00
389.8280, 22593.00
391.0240, 22485.00
392.2190, 22333.00
393.4140, 22396.00
394.6090, 22531.00
395.8040, 22384.00
396.9990, 22340.00
398.1930, 22141.00
399.3880, 22248.00
400.5820, 22168.00
401.7760, 22066.00
402.9700, 22122.00
404.1640, 22206.00
405.3580, 22209.00
406.5510, 22160.00
407.7440, 22276.00
408.9380, 22103.00
410.1310, 22179.00
411.3240, 22324.00
412.5160, 22458.00
413.7090, 22192.00
414.9010, 22342.00
416.0940, 22201.00
417.2860, 22313.00
418.4780, 22243.00
419.6700, 22284.00
420.8610, 22274.00
422.0530, 22292.00
423.2440, 22341.00
424.4360, 22370.00
425.6270, 22402.00
426.8180, 22479.00
428.0080, 22453.00
429.1990, 22364.00
430.3890, 22397.00
431.5800, 22465.00
432.7700, 22285.00
433.9600, 22537.00
435.1500, 22286.00
436.3400, 22711.00
437.5290, 22648.00
438.7190, 22629.85
439.9080, 22552.00
441.0970, 22516.00
442.2860, 22705.00
443.4750, 22549.00
444.6640, 22677.00
445.8520, 22618.00
447.0400, 22583.41
448.2290, 22590.88
449.4170, 22637.00
450.6050, 22492.00
451.7920, 22751.00
452.9800, 22675.00
454.1670, 22750.00
455.3550, 22952.00
456.5420, 22832.00
457.7290, 23028.00
458.9160, 22674.00
460.1030, 22891.00
461.2890, 22966.00
462.4750, 23052.00
463.6620, 23100.08
464.8480, 23165.00
466.0340, 23140.00
467.2200, 23227.23
468.4050, 23295.89
469.5910, 23313.00
470.7760, 23490.00
471.9610, 23459.00
473.1460, 23567.00
474.3310, 23370.00
475.5160, 23384.00
476.7000, 23663.00
477.8850, 23490.00
479.0690, 23566.00
480.2530, 23448.00
481.4370, 23580.00
482.6210, 23635.00
483.8050, 23639.00
484.9880, 23443.00
486.1710, 23580.00
487.3550, 23714.00
488.5380, 23466.00
489.7210, 23776.00
490.9030, 23669.00
492.0860, 23516.00
493.2680, 23521.00
494.4510, 23818.00
495.6330, 23740.00
496.8150, 23876.00
497.9970, 23645.00
499.1780, 23878.00
500.3600, 23711.00
501.5410, 23738.00
502.7220, 23887.00
503.9030, 23801.00
505.0840, 23882.00
506.2650, 24017.00
507.4460, 24054.00
508.6260, 23945.00
509.8060, 24009.00
510.9870, 24131.00
512.1670, 23990.00
513.3460, 24043.00
514.5260, 24184.00
515.7060, 24221.00
516.8850, 23946.00
518.0640, 24144.00
519.2430, 24229.00
520.4220, 24263.00
521.6010, 24447.00
522.7790, 24236.00
523.9580, 24552.00
525.1360, 24395.00
526.3140, 24540.00
527.4920, 24440.00
528.6700, 24591.00
529.8480, 24451.00
531.0250, 24654.00
532.2030, 24637.00
533.3800, 24694.00
534.5570, 24841.00
535.7340, 24754.00
536.9110, 24761.00
538.0870, 24836.00
539.2640, 24637.00
540.4400, 24780.00
541.6160, 24965.00
542.7920, 24837.00
543.9680, 24861.00
545.1440, 25217.00
546.3190, 25065.43
547.4940, 25303.00
548.6700, 25107.00
549.8450, 25191.00
551.0200, 25264.81
552.1940, 25369.60
553.3690, 25441.73
554.5430, 25483.08
555.7180, 25392.11
556.8920, 25479.26
558.0660, 25499.45
559.2400, 25519.93
560.4130, 25641.17
561.5870, 25585.69
562.7600, 25711.70
563.9330, 25769.66
565.1060, 25663.00
566.2790, 25813.00
567.4520, 25994.00
568.6250, 26054.00
569.7970, 26085.00
570.9690, 26089.00
572.1410, 26128.64
573.3130, 26092.28
574.4850, 26055.97
575.6570, 26011.00
576.8280, 25915.00
578.0000, 25855.00
579.1710, 25749.00
580.3420, 25700.00
581.5130, 25618.00
582.6830, 25610.00
583.8540, 25392.00
585.0240, 25169.00
586.1940, 25268.00
587.3650, 25201.00
588.5340, 25141.00
589.7040, 25162.00
590.8740, 25142.00
592.0430, 25132.60
593.2130, 25102.41
594.3820, 25099.00
595.5510, 25059.00
596.7200, 24973.00
597.8880, 25031.00
599.0570, 25002.86
600.2250, 25022.00
601.3930, 25059.00
602.5610, 25185.00
603.7290, 25269.00
604.8970, 25314.00
606.0650, 25275.00
607.2320, 25393.18
608.3990, 25432.00
609.5670, 25574.00
610.7330, 25544.00
611.9000, 25655.00
613.0670, 25715.00
614.2330, 25902.00
615.4000, 25945.00
616.5660, 25980.00
617.7320, 26280.00
618.8980, 26147.00
620.0640, 26402.53
621.2290, 26481.96
622.3950, 26750.00
623.5600, 26710.00
624.7250, 26847.00
625.8900, 26999.00
627.0550, 27028.00
628.2190, 27504.00
629.3840, 27353.00
630.5480, 27898.00
631.7120, 28222.00
632.8760, 28359.00
634.0400, 28597.00
635.2040, 29104.00
636.3670, 29271.00
637.5300, 29661.00
638.6940, 30133.15
639.8570, 30644.55
641.0190, 31222.00
642.1820, 32005.00
643.3450, 32851.00
644.5070, 33758.00
645.6690, 34976.00
646.8320, 35956.00
647.9930, 37441.00
649.1550, 38889.00
650.3170, 40567.00
651.4780, 42749.00
652.6400, 44675.00
653.8010, 46642.00
654.9620, 48901.00
656.1230, 50441.00
657.2830, 52445.00
658.4440, 54092.00
659.6040, 55495.00
660.7640, 56339.00
661.9240, 56295.00
663.0840, 55746.00
664.2440, 54763.00
665.4040, 53840.00
666.5630, 52148.00
667.7220, 50406.00
668.8810, 47988.00
670.0400, 46436.00
671.1990, 44013.00
672.3580, 42014.00
673.5160, 40364.00
674.6750, 38408.00
675.8330, 37220.00
676.9910, 35548.00
678.1480, 34405.00
679.3060, 33297.00
680.4640, 32612.00
681.6210, 31771.00
682.7780, 30616.00
683.9350, 30373.00
685.0920, 29659.00
686.2490, 29290.00
687.4050, 28852.00
688.5620, 28493.00
689.7180, 27932.00
690.8740, 27741.00
692.0300, 27604.00
693.1860, 27042.00
694.3410, 26921.00
695.4970, 26816.00
696.6520, 26686.00
697.8070, 26512.00
698.9620, 26363.98
700.1170, 26260.00
701.2720, 26050.00
702.4260, 25878.00
703.5810, 25798.00
704.7350, 25733.00
705.8890, 25718.00
707.0430, 25605.00
708.1960, 25442.00
709.3500, 25685.00
710.5030, 25515.00
711.6570, 25482.00
712.8100, 25331.00
713.9630, 25160.00
715.1150, 25417.00
716.2680, 25325.00
717.4200, 25243.00
718.5730, 25027.00
719.7250, 25040.00
720.8770, 25099.00
722.0280, 25038.00
723.1800, 25193.00
724.3310, 24888.00
725.4830, 25091.00
726.6340, 24921.00
727.7850, 24943.00
728.9360, 25047.00
730.0860, 24853.00
731.2370, 25069.00
732.3870, 24870.00
733.5370, 24984.00
734.6880, 24937.00
735.8370, 24862.00
736.9870, 24937.78
738.1370, 24862.62
739.2860, 24946.00
740.4350, 24822.00
741.5840, 24714.00
742.7330, 24723.00
743.8820, 24870.00
745.0310, 24857.00
746.1790, 24892.00
747.3270, 24864.00
748.4750, 24844.00
749.6230, 24855.00
750.7710, 24797.00
751.9190, 24813.00
753.0660, 24847.00
754.2140, 24756.00
755.3610, 24650.00
756.5080, 24837.00
757.6540, 24650.00
758.8010, 24703.00
759.9480, 24732.00
761.0940, 24763.00
762.2400, 24823.00
763.3860, 24603.00
764.5320, 24463.00
765.6780, 24677.00
766.8230, 24804.00
767.9690, 24629.00
769.1140, 24567.00
770.2590, 24834.00
771.4040, 24667.00
772.5490, 24478.00
773.6930, 24382.00
774.8380, 24555.00
775.9820, 24465.00
777.1260, 24505.00
778.2700, 24603.00
779.4140, 24516.00
780.5570, 24429.00
781.7010, 24514.00
782.8440, 24545.00
783.9870, 24545.15
785.1300, 24517.00
786.2730, 24564.00
787.4150, 24506.00
788.5580, 24434.00
789.7000, 24534.00
790.8420, 24574.00
791.9840, 24594.00
793.1260, 24537.00
794.2680, 24680.00
795.4090, 24481.00
796.5510, 24517.00
797.6920, 24541.66
798.8330, 24702.00
799.9740, 24573.00
801.1150, 24496.00
802.2550, 24459.00
803.3950, 24458.86
804.5360, 24614.00
805.6760, 24544.00
806.8160, 24608.00
807.9550, 24656.00
809.0950, 24489.00
810.2340, 24543.51
811.3740, 24513.00
812.5130, 24543.00
813.6520, 24526.88
814.7900, 24653.20
815.9290, 24477.00
817.0670, 24730.00
818.2060, 24470.00
819.3440, 24499.00
820.4820, 24248.00
821.6190, 24237.00
822.7570, 24475.00
823.8950, 24304.00
825.0320, 24418.00
826.1690, 24448.00
827.3060, 24437.00
828.4430, 24378.00
829.5790, 24599.00
830.7160, 24192.00
831.8520, 24518.00
832.9880, 24414.00
834.1240, 24564.00
835.2600, 24468.00
836.3960, 24280.00
837.5310, 24448.00
838.6670, 24413.00
839.8020, 24224.00
840.9370, 24583.00
842.0720, 24429.00
843.2060, 24475.00
844.3410, 24425.00
845.4750, 24468.00
846.6100, 24487.21
847.7440, 24392.00
848.8770, 24552.00
850.0110, 24500.00
851.1450, 24534.00
852.2780, 24405.00
853.4110, 24510.00
854.5440, 24440.00
855.6770, 24379.00
856.8100, 24457.00
857.9430, 24539.00
859.0750, 24526.14
860.2070, 24365.39
861.3390, 24549.87
862.4710, 24653.70
863.6030, 24681.20
864.7350, 24403.79
865.8660, 24520.11
866.9970, 24478.64
868.1280, 24430.70
869.2590, 24602.43
870.3900, 24369.37
871.5210, 24537.62
872.6510, 24545.67
873.7820, 24627.04
874.9120, 24654.35
876.0420, 24636.29
877.1710, 24666.00
878.3010, 24565.00
879.4300, 24572.00
880.5600, 24498.66
881.6890, 24687.58
882.8180, 24795.85
883.9470, 24827.80
885.0750, 24554.83
886.2040, 24675.59
887.3320, 24638.56
888.4600, 24595.07
889.5880, 24771.25
890.7160, 24542.62
891.8440, 24715.32
892.9710, 24727.81
894.0990, 24813.63
895.2260, 24740.67
896.3530, 24716.76
897.4800, 24845.00
898.6060, 24677.00
899.7330, 24628.00
900.8590, 24882.00
901.9850, 24761.00
903.1110, 24707.00
904.2370, 24736.00
905.3630, 24706.00
906.4890, 24658.00
907.6140, 24663.00
908.7390, 24866.00
909.8640, 24789.00
910.9890, 24806.00
912.1140, 24790.00
913.2380, 24783.00
914.3630, 24914.00
915.4870, 24682.00
916.6110, 25004.00
917.7350, 24880.00
918.8580, 24992.00
919.9820, 24849.00
921.1050, 24828.00
922.2290, 24926.00
923.3520, 25005.00
924.4750, 24937.00
925.5970, 25011.00
926.7200, 25065.00
927.8420, 24939.00
928.9640, 25044.74
930.0870, 24962.00
931.2080, 25099.00
932.3300, 25041.00
933.4520, 25009.00
934.5730, 25047.00
935.6940, 25026.00
936.8150, 25051.00
937.9360, 25159.00
939.0570, 25287.00
940.1780, 24918.00
941.2980, 25107.00
942.4180, 25095.00
943.5380, 25294.00
944.6580, 25021.00
945.7780, 25249.00
946.8980, 25295.00
948.0170, 25089.00
949.1360, 25220.00
950.2560, 25167.00
951.3740, 25088.00
952.4930, 25273.00
953.6120, 25309.00
954.7300, 25329.00
955.8480, 25357.00
956.9670, 25383.17
958.0850, 25318.00
959.2020, 25430.00
960.3200, 25284.00
961.4370, 25288.00
962.5550, 25263.00
963.6720, 25316.00
964.7890, 25449.00
965.9050, 25306.00
967.0220, 25371.00
968.1380, 25481.00
969.2550, 25435.00
970.3710, 25451.00
971.4870, 25512.00
972.6030, 25493.00
973.7180, 25401.00
974.8340, 25579.00
975.9490, 25522.00
977.0640, 25545.00
978.1790, 25394.00
979.2940, 25547.00
980.4080, 25635.00
981.5230, 25632.00
982.6370, 25671.00
983.7510, 25402.00
984.8650, 25416.00
985.9790, 25544.00
987.0920, 25454.00
988.2060, 25606.00
989.3190, 25578.00
990.4320, 25632.00
991.5450, 25644.74
992.6580, 25646.00
993.7710, 25630.00
994.8830, 25509.00
995.9950, 25511.13
997.1080, 25694.00
998.2190, 25573.00
999.3310, 25610.00
1000.443, 25691.00
1001.554, 25516.00
1002.666, 25693.00
1003.777, 25549.00
1004.888, 25634.00
1005.998, 25650.00
1007.109, 25567.00
1008.219, 25537.00
1009.330, 25509.33
1010.440, 25474.93
1011.550, 25427.00
1012.660, 25519.00
1013.769, 25458.00
1014.879, 25455.78
1015.988, 25606.00
1017.097, 25447.00
1018.206, 25422.00
1019.315, 25502.00
1020.423, 25659.00
1021.532, 25499.00
1022.640, 25674.00
1023.748, 25476.00
1024.856, 25543.00
1025.964, 25484.00
1027.072, 25405.00
1028.179, 25287.00
1029.286, 25457.00
1030.393, 25427.76
1031.500, 25565.00
1032.607, 25457.00
1033.714, 25645.00
1034.820, 25408.00
1035.926, 25557.00
1037.032, 25539.00
1038.138, 25616.00
1039.244, 25617.00
1040.350, 25514.00
1041.455, 25426.00
1042.560, 25491.18
1043.665, 25802.00
1044.770, 25551.00
1045.875, 25806.00
1046.980, 25735.00
1048.084, 25726.61
1049.188, 25920.09
1050.292, 26032.91
1051.396, 26069.41
1052.500, 25800.99
1053.604, 25926.31
1054.707, 25893.83
1055.810, 25854.88
1056.913, 26035.60
1058.016, 25811.53
1059.119, 25988.77
1060.222, 26005.81
1061.324, 26096.17
1062.426, 26027.76
1063.528, 26008.38
1064.630, 26147.83
1065.732, 26199.33
1066.834, 26112.64
1067.935, 26207.65
1069.036, 25978.01
1070.137, 26033.26
1071.238, 26211.41
1072.339, 26132.70
1073.439, 26230.60
1074.540, 26261.24
1075.640, 25986.17
1076.740, 26242.75
1077.840, 26269.41
1078.940, 26059.99
1080.039, 26298.34
1081.138, 26121.46
1082.238, 26092.80
1083.337, 26175.67
1084.436, 26142.27
1085.534, 26292.18
1086.633, 26265.49
1087.731, 26223.01
1088.829, 26249.39
1089.927, 26212.27
1091.025, 26273.91
1092.123, 26219.88
1093.220, 26288.77
1094.318, 26385.53
1095.415, 26268.95
1096.512, 26378.22
1097.609, 26137.24
1098.705, 26189.32
1099.802, 26209.85
1100.898, 26417.69
1101.994, 26178.42
1103.090, 26271.00
1104.186, 26478.00
1105.282, 26280.00
1106.377, 26435.00
1107.473, 26408.00
1108.568, 26320.00
1109.663, 26355.00
1110.758, 26379.00
1111.852, 26359.00
1112.947, 26393.00
1114.041, 26274.00
1115.135, 26336.00
1116.229, 26530.00
1117.323, 26418.00
1118.417, 26414.00
1119.510, 26593.00
1120.603, 26614.00
1121.696, 26548.00
1122.789, 26502.36
1123.882, 26686.70
1124.975, 26790.38
1126.067, 26817.74
1127.159, 26540.18
1128.251, 26656.36
1129.343, 26614.75
1130.435, 26566.67
1131.527, 26738.27
1132.618, 26505.06
1133.709, 26673.17
1134.800, 26681.09
1135.891, 26762.32
1136.982, 26684.79
1138.073, 26656.29
1139.163, 26786.61
1140.253, 26829.00
1141.343, 26733.19
1142.433, 26819.08
1143.523, 26580.33
1144.612, 26626.45
1145.702, 26795.50
1146.791, 26488.00
1147.880, 26683.00
1148.969, 26530.00
1150.058, 26758.00
1151.146, 26695.00
1152.235, 26760.00
1153.323, 26583.00
1154.411, 26511.00
1155.499, 26592.00
1156.586, 26526.00
1157.674, 26598.00
1158.761, 26696.00
1159.848, 26623.00
1160.935, 26708.27
1162.022, 26731.62
1163.109, 26739.00
1164.195, 26757.00
1165.281, 26712.81
1166.368, 26614.00
1167.454, 26541.00
1168.539, 26573.00
1169.625, 26432.00
1170.710, 26571.00
1171.796, 26601.00
1172.881, 26496.00
1173.966, 26617.00
1175.051, 26363.00
1176.135, 26474.00
1177.220, 26682.00
1178.304, 26432.00
1179.388, 26627.00
1180.472, 26569.00
1181.556, 26476.00
1182.639, 26521.00
1183.723, 26457.40
1184.806, 26476.00
1185.889, 26457.00
1186.972, 26441.00
1188.055, 26528.00
1189.137, 26362.00
1190.219, 26343.00
1191.302, 26568.00
1192.384, 26409.00
1193.466, 26475.00
1194.547, 26619.00
1195.629, 26514.62
1196.710, 26393.00
1197.791, 26505.00
1198.872, 26328.00
1199.953, 26384.00
1201.034, 26485.00
1202.114, 26516.00
1203.195, 26509.41
1204.275, 26383.00
1205.355, 26455.00
1206.435, 26442.00
1207.514, 26433.00
1208.594, 26472.00
1209.673, 26450.00
1210.752, 26393.00
1211.831, 26609.00
1212.910, 26390.00
1213.989, 26323.00
1215.067, 26530.00
1216.145, 26473.00
1217.223, 26579.00
1218.301, 26537.00
1219.379, 26500.00
1220.457, 26341.00
1221.534, 26525.00
1222.611, 26463.00
1223.688, 26537.00
1224.765, 26722.00
1225.842, 26678.00
1226.918, 26675.00
1227.995, 26508.00
1229.071, 26494.46
1230.147, 26511.00
1231.223, 26440.00
1232.299, 26495.00
1233.374, 26626.00
1234.449, 26497.90
1235.525, 26636.00
1236.600, 26447.00
1237.674, 26330.00
1238.749, 26540.00
1239.824, 26668.00
1240.898, 26546.00
1241.972, 26608.00
1243.046, 26514.00
1244.120, 26522.00
1245.193, 26611.00
1246.267, 26684.00
1247.340, 26584.00
1248.413, 26604.00
1249.486, 26669.00
1250.559, 26529.00
1251.632, 26572.00
1252.704, 26695.00
1253.776, 26484.00
1254.848, 26834.00
1255.920, 26851.16
1256.992, 26780.00
1258.064, 26690.00
1259.135, 26759.81
1260.206, 26673.00
1261.277, 26749.00
1262.348, 26916.49
1263.419, 26678.23
1264.489, 27005.00
1265.560, 26635.00
1266.630, 26584.00
1267.700, 26704.77
1268.770, 26300.91
1269.839, 26768.00
1270.909, 26732.00
1271.978, 26596.00
1273.047, 26656.00
1274.116, 26669.00
1275.185, 26748.00
1276.254, 26741.53
1277.322, 26713.00
1278.390, 26752.00
1279.458, 26653.00
1280.526, 26673.00
1281.594, 26740.00
1282.662, 26746.00
1283.729, 26976.00
1284.796, 26929.56
1285.863, 26953.00
1286.930, 27003.00
1287.997, 26772.00
1289.063, 26905.00
1290.130, 26908.00
1291.196, 26822.00
1292.262, 26953.00
1293.328, 26996.00
1294.394, 26769.00
1295.459, 26855.00
1296.524, 26875.00
1297.590, 26860.00
1298.655, 26748.00
1299.719, 26946.00
1300.784, 26784.00
1301.849, 26770.00
1302.913, 26990.00
1303.977, 26845.00
1305.041, 26826.00
1306.105, 27101.91
1307.168, 26773.00
1308.232, 26884.40
1309.295, 26999.00
1310.358, 26796.00
1311.421, 26855.00
1312.484, 26779.00
1313.546, 26651.00
1314.609, 26816.00
1315.671, 26638.00
1316.733, 26702.00
1317.795, 26670.00
1318.856, 26594.85
1319.918, 26603.00
1320.979, 26508.00
1322.040, 26371.00
1323.101, 26337.92
1324.162, 26326.12
1325.223, 26374.00
1326.283, 26399.00
1327.344, 26459.00
1328.404, 26445.11
1329.464, 26392.00
1330.523, 26404.00
1331.583, 26331.00
1332.642, 26275.13
1333.702, 26572.00
1334.761, 26279.00
1335.820, 26294.00
1336.878, 26503.00
1337.937, 26341.00
1338.995, 26464.00
1340.054, 26345.00
1341.112, 26154.00
1342.169, 26374.00
1343.227, 26118.00
1344.285, 26228.00
1345.342, 26158.00
1346.399, 26393.00
1347.456, 26405.00
1348.513, 26216.00
1349.570, 25961.05
1350.626, 26321.70
1351.682, 26521.04
1352.738, 26567.73
1353.794, 26004.59
1354.850, 26228.92
1355.906, 26137.67
1356.961, 26033.48
1358.016, 26368.65
1359.071, 25894.22
1360.126, 26222.42
1361.181, 26230.23
1362.236, 26384.68
1363.290, 26221.59
1364.344, 26156.59
1365.398, 26409.22
1366.452, 26485.97
1367.506, 26286.34
1368.559, 26450.12
1369.613, 25964.60
1370.666, 26048.86
1371.719, 26378.94
1372.771, 26035.65
1373.824, 26219.16
1374.877, 26322.03
1375.929, 26348.56
1376.981, 26070.19
1378.033, 26185.55
1379.085, 26143.11
1380.136, 26094.21
1381.188, 26264.99
1382.239, 26030.96
1383.290, 26198.25
1384.341, 26205.35
1385.391, 26285.76
1386.442, 26207.40
1387.492, 26178.09
1388.542, 26307.59
1389.592, 26349.15
1390.642, 26252.52
1391.692, 26337.60
1392.741, 26098.03
1393.791, 26143.33
1394.840, 26311.56
1395.889, 26222.91
1396.938, 26310.88
1397.986, 26331.60
1399.035, 26046.60
1400.083, 26293.25
1401.131, 26309.99
1402.179, 26090.64
1403.226, 26319.08
1404.274, 26132.28
1405.321, 26093.70
1406.369, 26166.65
1407.416, 26322.44
1408.462, 26153.44
1409.509, 26082.50
1410.556, 26329.20
1411.602, 26400.03
1412.648, 26194.47
1413.694, 26352.32
1414.740, 25860.88
1415.785, 25939.22
1416.831, 26263.37
1417.876, 26073.79
1418.921, 26237.46
1419.966, 26266.59
1421.011, 25684.32
1422.055, 26165.36
1423.100, 26186.54
1424.144, 25735.58
1425.188, 26180.19
1426.232, 25794.32
1427.276, 25704.88
1428.319, 25838.53
1429.362, 25739.63
1430.406, 26007.37
1431.448, 25921.91
1432.491, 25804.88
1433.534, 26059.00
1434.576, 25974.00
1435.619, 26099.00
1436.661, 25911.00
1437.703, 25861.00
1438.744, 25898.00
1439.786, 25807.00
1440.827, 26024.00
1441.869, 25774.00
1442.910, 26038.00
1443.950, 25793.00
1444.991, 26004.00
1446.032, 26059.00
1447.072, 25835.00
1448.112, 25982.00
1449.152, 25734.00
1450.192, 25837.00
1451.232, 25906.00
1452.271, 25931.00
1453.310, 25783.00
1454.349, 26023.00
1455.388, 25927.00
1456.427, 26108.00
1457.466, 25930.00
1458.504, 25970.00
1459.542, 25889.00
1460.580, 25887.00
1461.618, 25897.00
1462.656, 25693.00
1463.693, 25824.00
1464.731, 25935.00
1465.768, 25730.00
1466.805, 26199.00
1467.842, 25600.00
1468.878, 25830.00
1469.915, 25860.00
1470.951, 25949.00
1471.987, 26019.00
1473.023, 25875.00
1474.059, 25902.00
1475.094, 25804.00
1476.130, 25741.00
1477.165, 26074.00
1478.200, 25833.00
1479.235, 25940.00
1480.270, 26130.00
1481.304, 25895.00
1482.338, 25857.00
1483.373, 25809.00
1484.406, 25765.30
1485.440, 25755.98
1486.474, 25811.00
1487.507, 25751.00
1488.541, 25790.00
1489.574, 25807.00
1490.607, 26027.00
1491.639, 25840.00
1492.672, 25806.00
1493.704, 25678.00
1494.737, 26073.00
1495.769, 25782.00
1496.800, 25881.00
1497.832, 26077.00
1498.864, 25873.00
1499.895, 25905.00
1500.926, 25890.00
1501.957, 26026.00
1502.988, 25901.00
1504.018, 26004.00
1505.049, 25765.09
1506.079, 26125.99
1507.109, 26325.57
1508.139, 26372.51
1509.169, 25809.62
1510.198, 26034.21
1511.228, 25943.21
1512.257, 25839.28
1513.286, 26174.70
1514.315, 25700.52
1515.343, 26028.98
1516.372, 26037.03
1517.400, 26191.73
1518.428, 26028.90
1519.456, 25964.15
1520.484, 26217.03
1521.512, 26294.03
1522.539, 26094.65
1523.566, 26258.68
1524.593, 25773.42
1525.620, 25857.92
1526.647, 26188.25
1527.674, 26004.84
1528.700, 26174.68
1529.726, 26209.99
1530.752, 25633.89
1531.778, 26121.09
1532.804, 26148.44
1533.829, 25703.65
1534.854, 26154.42
1535.879, 25774.72
1536.904, 25974.00
1537.929, 25758.52
1538.954, 26128.11
1539.978, 26336.38
1541.002, 26392.01
1542.026, 25837.81
1543.050, 26071.07
1544.074, 25988.76
1545.097, 25893.50
1546.121, 26237.60
1547.144, 25772.10
1548.167, 26109.23
1549.190, 26125.96
1550.212, 26289.33
1551.235, 26135.17
1552.257, 26079.09
1553.279, 26340.64
1554.301, 26426.31
1555.323, 26235.60
1556.344, 26408.29
1557.366, 25931.69
1558.387, 26024.85
1559.408, 26363.84
1560.429, 26189.09
1561.449, 26367.59
1562.470, 26411.55
1563.490, 25844.10
1564.510, 26339.96
1565.530, 26375.96
1566.550, 25939.82
1567.569, 26399.23
1568.589, 25865.00
1569.608, 26149.00
1570.627, 26045.64
1571.646, 26165.00
1572.665, 25986.00
1573.683, 26033.00
1574.702, 25848.00
1575.720, 25832.00
1576.738, 25969.00
1577.755, 25865.00
1578.773, 26016.00
##END=



