##NAMES=Hausmannite
##RRUFFID=R040090
##IDEAL CHEMISTRY=Mn^2+^Mn^3+^_2_O_4_
##LOCALITY=Ã–hrenstock, Ilmenau, near Thuringia, Germany
##OWNER=RRUFF
##SOURCE=University of Arizona Mineral Museum
##DESCRIPTION=Mass of black octahedral crystals
##STATUS=The identification of this mineral has been confirmed by X-ray diffraction and chemical analysis
##URL=rruff.info/R040090
##MEASURED CHEMISTRY=(Mn^2+^_0.71_Zn_0.28_)Mn^3+^_2.00_O_4_
##PIN_ID=M00841
##ORIENTATION=Laser parallel to c* (0 0 1). Fiducial mark perpendicular to laser is parallel to a [1 0 0]
88.04900, 12030.00
89.28100, 12170.00
90.51200, 12359.00
91.74400, 12678.00
92.97600, 12464.00
94.20700, 12331.00
95.43800, 12428.00
96.66900, 12424.00
97.90100, 12657.00
99.13100, 12971.00
100.3620, 13245.00
101.5930, 13659.00
102.8230, 14139.00
104.0530, 14124.00
105.2840, 13652.00
106.5140, 13003.00
107.7440, 12769.00
108.9730, 12208.00
110.2030, 12255.00
111.4320, 12127.00
112.6620, 12197.00
113.8910, 12889.00
115.1200, 14077.00
116.3490, 14568.00
117.5780, 14765.00
118.8060, 16901.00
120.0350, 19615.00
121.2630, 19930.00
122.4920, 18389.00
123.7200, 15697.00
124.9480, 13235.00
126.1750, 11665.00
127.4030, 11136.00
128.6310, 10974.00
129.8580, 10845.00
131.0850, 10776.00
132.3120, 10813.00
133.5390, 10515.00
134.7660, 10408.00
135.9930, 10498.00
137.2200, 10550.00
138.4460, 10454.00
139.6720, 10566.00
140.8980, 10371.25
142.1240, 10457.86
143.3500, 10513.92
144.5760, 10541.05
145.8020, 10452.65
147.0270, 10513.42
148.2520, 10456.65
149.4780, 10398.66
150.7030, 10548.79
151.9270, 10315.46
153.1520, 10462.29
154.3770, 10457.36
155.6010, 10521.90
156.8260, 10436.02
158.0500, 10396.62
159.2740, 10507.65
160.4980, 10535.39
161.7210, 10408.78
162.9450, 10433.18
164.1690, 10451.00
165.3920, 10454.00
166.6150, 10396.35
167.8380, 10430.00
169.0610, 10294.00
170.2840, 10227.00
171.5070, 10148.00
172.7290, 10198.00
173.9510, 10198.00
175.1740, 10094.00
176.3960, 10186.00
177.6180, 10197.00
178.8390, 10086.00
180.0610, 10162.00
181.2830, 10115.00
182.5040, 10079.00
183.7250, 10158.00
184.9460, 10268.00
186.1670, 10175.00
187.3880, 10075.00
188.6090, 10027.00
189.8290, 10123.00
191.0500, 10137.00
192.2700, 10097.00
193.4900, 10018.00
194.7100, 10032.00
195.9300, 9915.000
197.1490, 9982.000
198.3690, 9681.000
199.5880, 9881.000
200.8080, 9801.000
202.0270, 9659.000
203.2460, 9695.000
204.4650, 9611.000
205.6830, 9601.000
206.9020, 9757.000
208.1200, 9645.000
209.3380, 9552.343
210.5570, 9569.979
211.7750, 9336.000
212.9920, 9418.000
214.2100, 9587.000
215.4280, 9410.000
216.6450, 9484.000
217.8620, 9441.000
219.0790, 9370.000
220.2960, 9566.000
221.5130, 9384.000
222.7300, 9388.000
223.9460, 9177.116
225.1630, 9298.773
226.3790, 9369.489
227.5950, 9392.006
228.8110, 9221.958
230.0270, 9300.565
231.2430, 9279.524
232.4580, 9254.392
233.6740, 9367.996
234.8890, 9225.952
236.1040, 9337.353
237.3190, 9347.582
238.5340, 9404.115
239.7490, 9360.383
240.9630, 9303.589
242.1780, 9260.911
243.3920, 9426.332
244.6060, 9208.284
245.8200, 9273.000
247.0340, 9294.000
248.2470, 9300.000
249.4610, 9428.000
250.6740, 9356.000
251.8880, 9220.000
253.1010, 9409.000
254.3140, 9358.000
255.5270, 9313.000
256.7390, 9370.000
257.9520, 9348.000
259.1640, 9287.000
260.3760, 9294.000
261.5880, 9351.000
262.8000, 9330.000
264.0120, 9350.000
265.2240, 9304.000
266.4350, 9316.000
267.6470, 9440.000
268.8580, 9285.000
270.0690, 9366.000
271.2800, 9385.000
272.4910, 9335.000
273.7020, 9394.000
274.9120, 9294.000
276.1230, 9284.000
277.3330, 9453.000
278.5430, 9338.000
279.7530, 9417.000
280.9630, 9368.000
282.1720, 9473.000
283.3820, 9464.000
284.5910, 9504.340
285.8000, 9522.634
287.0090, 9614.000
288.2180, 9528.000
289.4270, 9630.000
290.6360, 9644.000
291.8440, 9738.000
293.0530, 9778.000
294.2610, 9819.000
295.4690, 9918.000
296.6770, 10067.00
297.8850, 10098.00
299.0920, 10097.00
300.3000, 10208.00
301.5070, 10465.00
302.7140, 10582.00
303.9210, 10937.00
305.1280, 11171.00
306.3350, 11516.00
307.5420, 11719.00
308.7480, 12291.00
309.9540, 12730.00
311.1600, 13444.00
312.3660, 13889.00
313.5720, 14393.00
314.7780, 14933.00
315.9840, 15458.00
317.1890, 15798.00
318.3940, 16039.00
319.6000, 15993.00
320.8050, 16005.00
322.0090, 15688.00
323.2140, 14989.00
324.4190, 14586.00
325.6230, 14068.00
326.8270, 13411.00
328.0320, 12972.00
329.2360, 12349.00
330.4390, 11943.00
331.6430, 11709.00
332.8470, 11286.00
334.0500, 11132.00
335.2530, 11041.00
336.4560, 10736.00
337.6590, 10787.00
338.8620, 10736.00
340.0650, 10455.00
341.2670, 10566.00
342.4700, 10519.00
343.6720, 10498.00
344.8740, 10288.00
346.0760, 10516.00
347.2780, 10299.00
348.4790, 10360.00
349.6810, 10215.00
350.8820, 10178.02
352.0830, 10282.00
353.2840, 10164.00
354.4850, 10178.00
355.6860, 10286.00
356.8870, 10415.00
358.0870, 10387.47
359.2870, 10253.00
360.4880, 10338.00
361.6880, 10342.00
362.8870, 10236.00
364.0870, 10245.00
365.2870, 10110.00
366.4860, 10189.00
367.6850, 10192.10
368.8850, 10252.00
370.0840, 10278.00
371.2820, 10399.00
372.4810, 10410.00
373.6800, 10453.00
374.8780, 10314.00
376.0760, 10371.00
377.2740, 10417.00
378.4720, 10273.00
379.6700, 10337.00
380.8680, 10243.00
382.0650, 10267.00
383.2630, 10236.00
384.4600, 10231.00
385.6570, 10030.00
386.8540, 10006.00
388.0510, 9963.000
389.2470, 9875.000
390.4440, 9815.000
391.6400, 9810.000
392.8360, 9901.000
394.0320, 9853.000
395.2280, 9770.000
396.4240, 9791.000
397.6190, 9676.000
398.8150, 9670.000
400.0100, 9623.000
401.2050, 9642.000
402.4000, 9675.000
403.5950, 9718.000
404.7900, 9667.000
405.9840, 9755.000
407.1790, 9717.000
408.3730, 9741.571
409.5670, 9680.000
410.7610, 9717.000
411.9550, 9692.000
413.1480, 9679.784
414.3420, 9520.000
415.5350, 9632.000
416.7280, 9608.000
417.9220, 9517.000
419.1140, 9582.000
420.3070, 9576.000
421.5000, 9511.000
422.6920, 9715.000
423.8850, 9608.000
425.0770, 9526.000
426.2690, 9569.000
427.4610, 9658.000
428.6520, 9635.000
429.8440, 9614.000
431.0350, 9682.000
432.2260, 9658.801
433.4180, 9664.775
434.6090, 9704.000
435.7990, 9609.000
436.9900, 9676.153
438.1800, 9560.472
439.3710, 9679.000
440.5610, 9755.000
441.7510, 9636.000
442.9410, 9716.000
444.1310, 9764.000
445.3200, 9711.000
446.5100, 9622.000
447.6990, 9644.000
448.8880, 9696.000
450.0770, 9794.000
451.2660, 9600.000
452.4550, 9703.000
453.6430, 9921.000
454.8320, 9717.000
456.0200, 9926.000
457.2080, 9756.000
458.3960, 9823.000
459.5840, 9950.000
460.7720, 9782.000
461.9590, 9952.000
463.1460, 9793.000
464.3340, 9908.000
465.5210, 10065.00
466.7080, 9995.000
467.8940, 9861.000
469.0810, 9915.000
470.2670, 10032.00
471.4540, 9995.000
472.6400, 10109.00
473.8260, 10020.00
475.0120, 10031.00
476.1970, 10020.00
477.3830, 10143.00
478.5680, 10128.00
479.7540, 9981.000
480.9390, 10127.00
482.1240, 10106.00
483.3080, 10262.00
484.4930, 10201.00
485.6780, 10215.00
486.8620, 10142.00
488.0460, 10226.00
489.2300, 10196.00
490.4140, 10061.00
491.5980, 10193.00
492.7810, 10351.00
493.9650, 10115.00
495.1480, 10279.00
496.3310, 10253.00
497.5140, 10229.00
498.6970, 10238.00
499.8800, 10286.00
501.0620, 10315.00
502.2440, 10278.00
503.4270, 10338.14
504.6090, 10328.00
505.7910, 10407.00
506.9720, 10415.00
508.1540, 10452.00
509.3350, 10372.00
510.5170, 10463.00
511.6980, 10324.00
512.8790, 10392.00
514.0600, 10611.00
515.2400, 10531.00
516.4210, 10654.00
517.6010, 10654.00
518.7810, 10604.00
519.9620, 10609.00
521.1410, 10588.81
522.3210, 10610.13
523.5010, 10621.36
524.6800, 10662.00
525.8600, 10668.00
527.0390, 10664.00
528.2180, 10690.00
529.3970, 10573.87
530.5750, 10670.09
531.7540, 10735.77
532.9320, 10772.51
534.1110, 10693.73
535.2890, 10764.13
536.4670, 10774.73
537.6440, 10782.86
538.8220, 10874.25
540.0000, 10812.26
541.1770, 10902.31
542.3540, 10931.66
543.5310, 10988.79
544.7080, 10985.76
545.8850, 10957.00
547.0610, 10995.00
548.2380, 11005.00
549.4140, 11019.57
550.5900, 11032.00
551.7660, 11036.00
552.9420, 11186.00
554.1170, 11158.00
555.2930, 11256.00
556.4680, 11218.78
557.6430, 11331.00
558.8180, 11227.00
559.9930, 11282.53
561.1680, 11333.00
562.3430, 11324.00
563.5170, 11369.00
564.6910, 11403.00
565.8650, 11454.00
567.0390, 11488.30
568.2130, 11485.94
569.3870, 11569.00
570.5600, 11466.00
571.7340, 11509.00
572.9070, 11502.00
574.0800, 11367.00
575.2530, 11282.00
576.4250, 11384.00
577.5980, 11366.00
578.7700, 11319.00
579.9430, 11155.00
581.1150, 11239.00
582.2870, 11196.00
583.4590, 11161.00
584.6300, 11157.00
585.8020, 11128.81
586.9730, 11061.00
588.1440, 11123.00
589.3150, 11061.87
590.4860, 11099.00
591.6570, 10921.00
592.8270, 11111.00
593.9980, 10939.00
595.1680, 11004.00
596.3380, 11034.00
597.5080, 11023.00
598.6780, 11155.00
599.8480, 11139.28
601.0170, 11175.00
602.1860, 11200.00
603.3550, 11195.00
604.5240, 11254.81
605.6930, 11395.00
606.8620, 11223.00
608.0310, 11390.00
609.1990, 11388.00
610.3670, 11371.00
611.5350, 11451.00
612.7030, 11554.00
613.8710, 11681.00
615.0390, 11655.00
616.2060, 11752.00
617.3730, 11808.00
618.5410, 11836.00
619.7080, 11978.00
620.8740, 11921.00
622.0410, 12073.00
623.2080, 12206.00
624.3740, 12270.00
625.5400, 12416.00
626.7060, 12420.00
627.8720, 12598.00
629.0380, 12594.00
630.2040, 12761.00
631.3690, 12961.00
632.5340, 13200.00
633.6990, 13154.00
634.8640, 13310.00
636.0290, 13600.00
637.1940, 13614.00
638.3580, 13935.00
639.5230, 14127.00
640.6870, 14503.00
641.8510, 14469.00
643.0150, 14888.00
644.1790, 15207.00
645.3420, 15781.00
646.5060, 16012.85
647.6690, 16203.00
648.8320, 16720.00
649.9950, 17230.00
651.1580, 17910.00
652.3200, 18499.00
653.4830, 19084.00
654.6450, 19949.00
655.8070, 20334.00
656.9690, 20854.00
658.1310, 21465.00
659.2930, 22249.00
660.4540, 22581.00
661.6160, 22846.00
662.7770, 22986.00
663.9380, 23097.00
665.0990, 23002.00
666.2600, 22687.87
667.4200, 22299.00
668.5810, 21636.00
669.7410, 21025.00
670.9010, 20177.00
672.0610, 19255.00
673.2210, 18699.00
674.3810, 18159.00
675.5400, 17269.00
676.6990, 16654.00
677.8590, 15970.00
679.0180, 15357.00
680.1760, 15053.00
681.3350, 14308.00
682.4940, 13850.00
683.6520, 13641.00
684.8100, 13230.27
685.9680, 12932.70
687.1260, 12828.00
688.2840, 12392.00
689.4420, 12240.00
690.5990, 12111.00
691.7560, 11956.00
692.9140, 11885.00
694.0710, 11927.00
695.2270, 11691.00
696.3840, 11483.00
697.5410, 11210.00
698.6970, 11230.00
699.8530, 11008.00
701.0090, 11064.00
702.1650, 10964.00
703.3210, 10889.00
704.4760, 11023.00
705.6320, 11003.00
706.7870, 10717.00
707.9420, 10822.00
709.0970, 10795.00
710.2520, 10669.00
711.4060, 10631.00
712.5610, 10589.23
713.7150, 10548.71
714.8690, 10537.00
716.0230, 10504.00
717.1770, 10501.00
718.3310, 10439.00
719.4840, 10545.00
720.6380, 10523.00
721.7910, 10432.00
722.9440, 10426.00
724.0970, 10344.00
725.2490, 10372.00
726.4020, 10256.00
727.5540, 10387.00
728.7070, 10169.00
729.8590, 10351.00
731.0110, 10163.00
732.1620, 10319.00
733.3140, 10307.00
734.4650, 10330.00
735.6170, 10332.00
736.7680, 10330.75
737.9190, 10232.00
739.0700, 10313.00
740.2200, 10243.00
741.3710, 10192.00
742.5210, 10221.00
743.6710, 10168.92
744.8210, 10145.00
745.9710, 10134.00
747.1210, 10219.00
748.2700, 10205.00
749.4200, 10169.00
750.5690, 10264.00
751.7180, 10171.00
752.8670, 10149.00
754.0160, 10110.00
755.1640, 10192.00
756.3130, 10208.00
757.4610, 10120.00
758.6090, 10184.11
759.7570, 10052.00
760.9050, 10213.00
762.0530, 10155.00
763.2000, 10184.00
764.3470, 10074.00
765.4940, 10087.00
766.6410, 10141.00
767.7880, 10071.00
768.9350, 10081.00
770.0810, 10156.00
771.2280, 10016.00
772.3740, 10042.00
773.5200, 10036.00
774.6660, 10196.00
775.8120, 9952.000
776.9570, 10084.00
778.1030, 10032.00
779.2480, 10049.00
780.3930, 9993.000
781.5380, 10149.00
782.6830, 10149.00
783.8270, 10088.00
784.9720, 10082.00
786.1160, 9977.000
787.2600, 10126.00
788.4040, 10129.00
789.5480, 10069.00
790.6910, 10254.00
791.8350, 9978.000
792.9780, 10028.00
794.1210, 10021.00
795.2640, 10146.00
796.4070, 10099.00
797.5500, 10101.00
798.6920, 10183.00
799.8350, 9985.000
800.9770, 10035.00
802.1190, 10153.00
803.2610, 10049.00
804.4030, 10106.00
805.5440, 10017.00
806.6850, 10069.00
807.8270, 9943.000
808.9680, 10035.00
810.1090, 10079.00
811.2490, 10119.00
812.3900, 10120.60
813.5300, 10115.00
814.6710, 10085.00
815.8110, 10132.00
816.9510, 10134.67
818.0910, 9965.000
819.2300, 10017.00
820.3700, 10054.00
821.5090, 9943.000
822.6480, 9965.000
823.7870, 9965.532
824.9260, 10099.00
826.0640, 10012.00
827.2030, 10009.00
828.3410, 10068.00
829.4790, 9984.113
830.6170, 10210.00
831.7550, 9894.000
832.8930, 10018.00
834.0310, 9979.000
835.1680, 10158.00
836.3050, 10047.00
837.4420, 9991.000
838.5790, 10001.00
839.7160, 10009.00
840.8520, 10041.00
841.9890, 9940.000
843.1250, 10082.00
844.2610, 10096.00
845.3970, 10011.00
846.5330, 10005.00
847.6680, 10084.00
848.8040, 10124.00
849.9390, 9951.000
851.0740, 10156.00
852.2090, 9919.000
853.3440, 9947.000
854.4780, 10068.00
855.6130, 10109.00
856.7470, 10074.00
857.8810, 10130.25
859.0150, 9987.000
860.1490, 10125.00
861.2830, 10027.00
862.4160, 9990.000
863.5490, 10074.00
864.6830, 10023.00
865.8160, 10038.00
866.9480, 9898.000
868.0810, 10017.00
869.2140, 10008.00
870.3460, 10064.00
871.4780, 10156.00
872.6100, 10103.00
873.7420, 10061.00
874.8740, 10161.00
876.0050, 10126.00
877.1370, 10015.00
878.2680, 10089.00
879.3990, 10010.00
880.5300, 10093.00
881.6600, 10160.00
882.7910, 10138.00
883.9210, 10123.00
885.0520, 10261.00
886.1820, 10121.00
887.3120, 10205.00
888.4410, 10185.00
889.5710, 9991.000
890.7000, 10137.00
891.8300, 10199.00
892.9590, 10158.00
894.0880, 10120.00
895.2160, 10057.00
896.3450, 10161.00
897.4730, 10236.00
898.6020, 10167.00
899.7300, 10235.00
900.8580, 10113.00
901.9860, 10189.00
903.1130, 9984.000
904.2410, 10112.00
905.3680, 10111.00
906.4950, 10125.00
907.6220, 10146.00
908.7490, 10154.00
909.8760, 10265.00
911.0020, 10349.00
912.1280, 10148.00
913.2550, 10250.00
914.3810, 10200.00
915.5060, 10413.00
916.6320, 10333.00
917.7580, 10257.00
918.8830, 10353.00
920.0080, 10245.00
921.1330, 10362.00
922.2580, 10411.00
923.3830, 10322.85
924.5070, 10346.28
925.6310, 10216.00
926.7560, 10282.00
927.8800, 10286.00
929.0040, 10349.00
930.1270, 10414.00
931.2510, 10288.00
932.3740, 10295.00
933.4970, 10169.00
934.6200, 10297.00
935.7430, 10457.00
936.8660, 10335.00
937.9890, 10315.00
939.1110, 10383.00
940.2330, 10341.00
941.3550, 10394.00
942.4770, 10265.78
943.5990, 10348.05
944.7200, 10399.75
945.8420, 10422.54
946.9630, 10329.79
948.0840, 10386.22
949.2050, 10382.87
950.3260, 10377.06
951.4460, 10454.49
952.5670, 10378.53
953.6870, 10454.63
954.8070, 10414.00
955.9270, 10487.00
957.0470, 10466.84
958.1660, 10437.00
959.2860, 10470.00
960.4050, 10533.00
961.5240, 10514.00
962.6430, 10408.92
963.7620, 10482.92
964.8810, 10526.37
965.9990, 10540.89
967.1170, 10439.87
968.2350, 10488.04
969.3530, 10508.00
970.4710, 10523.00
971.5890, 10598.00
972.7060, 10485.36
973.8240, 10553.33
974.9410, 10590.73
976.0580, 10599.22
977.1740, 10492.16
978.2910, 10534.30
979.4080, 10516.65
980.5240, 10496.55
981.6400, 10559.70
982.7560, 10435.00
983.8720, 10551.00
984.9870, 10503.94
986.1030, 10632.00
987.2180, 10550.00
988.3330, 10563.00
989.4480, 10500.00
990.5630, 10646.00
991.6780, 10567.00
992.7920, 10576.00
993.9070, 10589.00
995.0210, 10575.00
996.1350, 10631.00
997.2490, 10693.00
998.3620, 10662.00
999.4760, 10660.96
1000.589, 10658.98
1001.702, 10640.00
1002.815, 10631.09
1003.928, 10625.03
1005.041, 10604.00
1006.153, 10586.00
1007.266, 10584.47
1008.378, 10509.00
1009.490, 10506.00
1010.602, 10565.00
1011.713, 10502.00
1012.825, 10552.00
1013.936, 10550.00
1015.047, 10535.00
1016.158, 10539.00
1017.269, 10485.00
1018.380, 10483.76
1019.490, 10511.00
1020.601, 10470.00
1021.711, 10429.00
1022.821, 10463.58
1023.931, 10446.00
1025.040, 10419.00
1026.150, 10476.00
1027.259, 10457.00
1028.368, 10410.00
1029.477, 10567.00
1030.586, 10407.00
1031.695, 10539.00
1032.803, 10582.00
1033.912, 10517.00
1035.020, 10595.00
1036.128, 10599.00
1037.236, 10711.00
1038.343, 10583.00
1039.451, 10655.00
1040.558, 10708.00
1041.665, 10570.00
1042.772, 10660.00
1043.879, 10570.00
1044.986, 10652.00
1046.093, 10600.00
1047.199, 10645.00
1048.305, 10629.00
1049.411, 10698.00
1050.517, 10764.00
1051.623, 10844.00
1052.728, 10819.91
1053.833, 10621.00
1054.939, 10749.00
1056.044, 10708.00
1057.148, 10654.00
1058.253, 10727.00
1059.358, 10704.00
1060.462, 10734.00
1061.566, 10800.00
1062.670, 10764.00
1063.774, 10902.00
1064.878, 10834.00
1065.981, 10839.00
1067.085, 10740.00
1068.188, 10871.00
1069.291, 10789.00
1070.394, 10824.00
1071.496, 10738.00
1072.599, 10750.00
1073.701, 10819.00
1074.803, 10720.00
1075.905, 10724.00
1077.007, 10822.00
1078.109, 10670.00
1079.210, 10863.00
1080.312, 10675.00
1081.413, 10731.00
1082.514, 10813.00
1083.615, 10732.00
1084.715, 10757.00
1085.816, 10727.00
1086.916, 10799.00
1088.016, 10764.00
1089.116, 10736.00
1090.216, 10846.00
1091.316, 10744.00
1092.415, 10714.00
1093.515, 10865.00
1094.614, 10798.00
1095.713, 10805.00
1096.812, 10850.00
1097.910, 10859.00
1099.009, 10874.96
1100.107, 10894.00
1101.205, 10830.00
1102.303, 10837.00
1103.401, 10826.37
1104.499, 10774.00
1105.596, 10834.00
1106.693, 10820.00
1107.791, 10862.00
1108.888, 10828.00
1109.984, 10852.00
1111.081, 10870.00
1112.177, 10814.00
1113.274, 10756.00
1114.370, 10759.00
1115.466, 10989.00
1116.562, 10910.00
1117.657, 10984.00
1118.753, 10851.00
1119.848, 10859.00
1120.943, 10826.00
1122.038, 10936.00
1123.133, 10951.00
1124.228, 10935.00
1125.322, 10823.00
1126.416, 10984.00
1127.510, 11125.00
1128.604, 10888.00
1129.698, 10916.00
1130.792, 11012.00
1131.885, 10902.02
1132.978, 10962.58
1134.071, 10945.00
1135.164, 10940.00
1136.257, 10954.80
1137.350, 11058.00
1138.442, 10933.00
1139.534, 11036.00
1140.627, 10998.00
1141.718, 11222.00
1142.810, 11127.00
1143.902, 11055.00
1144.993, 11130.00
1146.084, 10895.00
1147.176, 11150.00
1148.266, 11007.00
1149.357, 10986.00
1150.448, 11089.00
1151.538, 11014.00
1152.628, 11024.00
1153.718, 10997.00
1154.808, 11025.00
1155.898, 11075.00
1156.988, 11027.69
1158.077, 11092.76
1159.166, 11127.26
1160.255, 11132.84
1161.344, 11022.89
1162.433, 11062.12
1163.521, 11041.57
1164.610, 11018.57
1165.698, 11078.81
1166.786, 10985.66
1167.874, 11029.00
1168.961, 11079.00
1170.049, 10986.00
1171.136, 11006.00
1172.224, 11044.00
1173.311, 11122.00
1174.397, 11016.00
1175.484, 11055.00
1176.571, 11069.00
1177.657, 11003.32
1178.743, 11012.00
1179.829, 10915.00
1180.915, 11013.00
1182.001, 10962.00
1183.086, 11036.00
1184.171, 10937.00
1185.256, 10980.00
1186.341, 10938.00
1187.426, 10812.00
1188.511, 11016.00
1189.595, 11046.00
1190.680, 11059.00
1191.764, 10945.00
1192.848, 10862.00
1193.932, 10972.00
1195.015, 10983.00
1196.099, 10884.00
1197.182, 10825.00
1198.265, 10943.00
1199.348, 11017.00
1200.431, 11100.00
1201.513, 10969.00
1202.596, 11028.00
1203.678, 10854.00
1204.760, 11049.00
1205.842, 10949.00
1206.924, 10943.00
1208.005, 11018.00
1209.087, 10893.00
1210.168, 10827.00
1211.249, 10938.00
1212.330, 11013.00
1213.411, 10916.00
1214.491, 10905.00
1215.572, 10913.25
1216.652, 10985.43
1217.732, 11027.06
1218.812, 11039.76
1219.891, 10936.92
1220.971, 10983.28
1222.050, 10969.85
1223.129, 10953.96
1224.208, 11021.32
1225.287, 10935.29
1226.366, 11001.32
1227.444, 11006.65
1228.523, 11039.77
1229.601, 11012.72
1230.679, 11060.00
1231.757, 11002.00
1232.834, 11001.00
1233.912, 11100.00
1234.989, 10940.00
1236.066, 11021.00
1237.143, 10936.00
1238.220, 10941.00
1239.297, 10984.00
1240.373, 10996.00
1241.449, 10894.00
1242.526, 10884.00
1243.601, 10988.00
1244.677, 11083.00
1245.753, 11030.00
1246.828, 11001.00
1247.904, 10979.00
1248.979, 11002.00
1250.054, 10943.00
1251.128, 10934.00
1252.203, 10971.00
1253.277, 11119.00
1254.351, 10956.00
1255.426, 11060.00
1256.499, 11013.00
1257.573, 10908.00
1258.647, 10901.00
1259.720, 11061.00
1260.793, 11100.00
1261.866, 11083.00
1262.939, 11009.00
1264.012, 10942.00
1265.084, 10941.00
1266.157, 11056.00
1267.229, 11157.00
1268.301, 10977.00
1269.373, 10951.00
1270.444, 10895.00
1271.516, 10907.82
1272.587, 10989.00
1273.658, 11010.00
1274.729, 11061.00
1275.800, 11082.00
1276.871, 11108.65
1277.941, 11104.00
1279.011, 11162.00
1280.082, 11181.00
1281.151, 11225.38
1282.221, 11190.59
1283.291, 11327.00
1284.360, 11133.00
1285.430, 11106.00
1286.499, 11149.00
1287.568, 11249.00
1288.636, 11136.00
1289.705, 11094.00
1290.773, 11203.00
1291.841, 11084.00
1292.909, 11184.00
1293.977, 11196.00
1295.045, 11183.00
1296.113, 11200.00
1297.180, 11216.00
1298.247, 11151.00
1299.314, 11164.00
1300.381, 11186.00
1301.448, 11093.00
1302.514, 11160.00
1303.580, 11109.00
1304.647, 11203.00
1305.713, 11237.00
1306.778, 11187.00
1307.844, 11138.00
1308.910, 11022.00
1309.975, 11156.00
1311.040, 11208.00
1312.105, 11019.00
1313.170, 11068.00
1314.234, 10989.00
1315.299, 10965.00
1316.363, 11195.00
1317.427, 11074.00
1318.491, 11138.00
1319.555, 10927.00
1320.618, 11164.00
1321.682, 11101.00
1322.745, 11043.00
1323.808, 11050.00
1324.871, 10987.88
1325.933, 10940.00
1326.996, 10926.00
1328.058, 10922.00
1329.121, 10919.39
1330.183, 10913.01
1331.244, 10858.00
1332.306, 10933.00
1333.368, 10836.00
1334.429, 10893.00
1335.490, 10885.00
1336.551, 10935.00
1337.612, 10833.00
1338.672, 10963.00
1339.733, 10976.00
1340.793, 10729.00
1341.853, 10908.00
1342.913, 10801.00
1343.973, 10740.00
1345.033, 10744.00
1346.092, 10812.00
1347.151, 10832.00
1348.210, 10781.00
1349.269, 10743.00
1350.328, 10900.00
1351.386, 10842.00
1352.445, 10774.00
1353.503, 10587.00
1354.561, 10827.00
1355.619, 10862.00
1356.677, 10764.00
1357.734, 10859.00
1358.791, 10739.00
1359.849, 10789.00
1360.906, 10803.00
1361.962, 10762.00
1363.019, 10664.00
1364.075, 10731.00
1365.132, 10800.00
1366.188, 10692.00
1367.244, 10743.00
1368.300, 10903.00
1369.355, 10677.00
1370.411, 10649.00
1371.466, 10831.00
1372.521, 10722.00
1373.576, 10794.00
1374.631, 10786.00
1375.685, 10760.00
1376.740, 10768.41
1377.794, 10688.00
1378.848, 10705.00
1379.902, 10702.00
1380.955, 10634.00
1382.009, 10690.63
1383.062, 10654.63
1384.115, 10756.00
1385.168, 10630.00
1386.221, 10645.85
1387.274, 10614.89
1388.326, 10770.00
1389.379, 10567.00
1390.431, 10663.00
1391.483, 10561.00
1392.534, 10560.00
1393.586, 10617.00
1394.637, 10519.00
1395.689, 10666.00
1396.740, 10624.00
1397.791, 10557.00
1398.841, 10597.00
1399.892, 10570.00
1400.942, 10739.00
1401.993, 10649.00
1403.043, 10604.00
1404.092, 10720.00
1405.142, 10633.00
1406.192, 10638.04
1407.241, 10674.00
1408.290, 10585.00
1409.339, 10586.00
1410.388, 10579.00
1411.437, 10566.00
1412.485, 10556.46
1413.533, 10505.00
1414.581, 10615.00
1415.629, 10473.00
1416.677, 10680.00
1417.725, 10488.00
1418.772, 10611.00
1419.819, 10691.00
1420.867, 10514.00
1421.913, 10516.00
1422.960, 10575.00
1424.007, 10540.00
1425.053, 10630.00
1426.099, 10614.00
1427.145, 10517.00
1428.191, 10553.00
1429.237, 10586.00
1430.282, 10650.00
1431.328, 10647.00
1432.373, 10636.17
1433.418, 10504.00
1434.462, 10571.00
1435.507, 10540.00
1436.552, 10517.00
1437.596, 10608.00
1438.640, 10556.00
1439.684, 10560.00
1440.728, 10655.00
1441.771, 10626.00
1442.815, 10693.00
1443.858, 10641.14
1444.901, 10822.00
1445.944, 10595.00
1446.986, 10446.00
1448.029, 10576.00
1449.071, 10564.00
1450.113, 10647.00
1451.155, 10576.00
1452.197, 10602.00
1453.239, 10529.00
1454.280, 10571.00
1455.322, 10521.00
1456.363, 10541.00
1457.404, 10457.00
1458.444, 10608.00
1459.485, 10448.00
1460.525, 10497.00
1461.566, 10607.00
1462.606, 10551.13
1463.646, 10594.47
1464.685, 10603.00
1465.725, 10590.00
1466.764, 10625.00
1467.803, 10643.00
1468.842, 10485.00
1469.881, 10587.00
1470.920, 10456.00
1471.958, 10688.00
1472.997, 10611.00
1474.035, 10526.00
1475.073, 10591.00
1476.111, 10636.00
1477.148, 10575.00
1478.186, 10590.00
1479.223, 10650.00
1480.260, 10490.00
1481.297, 10615.00
1482.334, 10530.00
1483.370, 10575.00
1484.407, 10655.05
1485.443, 10588.34
1486.479, 10762.00
1487.515, 10593.00
1488.550, 10516.00
1489.586, 10629.00
1490.621, 10626.00
1491.656, 10557.00
1492.691, 10551.00
1493.726, 10592.88
1494.761, 10561.48
1495.795, 10565.90
1496.829, 10575.00
1497.863, 10554.00
1498.897, 10570.00
1499.931, 10590.00
1500.965, 10610.08
1501.998, 10583.00
1503.031, 10635.00
1504.064, 10641.00
1505.097, 10557.00
1506.130, 10596.00
1507.162, 10568.00
1508.195, 10638.00
1509.227, 10671.00
1510.259, 10667.00
1511.291, 10707.00
1512.322, 10582.00
1513.354, 10618.00
1514.385, 10506.00
1515.416, 10501.00
1516.447, 10630.00
1517.478, 10468.00
1518.508, 10649.00
1519.539, 10705.00
1520.569, 10600.00
1521.599, 10807.00
1522.629, 10558.00
1523.658, 10630.00
1524.688, 10730.00
1525.717, 10585.00
1526.746, 10655.35
1527.775, 10652.78
1528.804, 10632.00
1529.833, 10636.00
1530.861, 10639.00
1531.890, 10536.00
1532.918, 10598.00
1533.946, 10683.00
1534.973, 10551.00
1536.001, 10577.00
1537.028, 10678.00
1538.055, 10553.00
1539.082, 10631.00
1540.109, 10629.00
1541.136, 10565.00
1542.163, 10544.00
1543.189, 10582.00
1544.215, 10649.00
1545.241, 10729.00
1546.267, 10631.00
1547.292, 10685.00
##END=



