##NAMES=Hauyne
##RRUFFID=R050606
##IDEAL CHEMISTRY=Na_3_Ca(Si_3_Al_3_)O_12_(S^6+^O_4_)
##LOCALITY=Ariccia, near Rome, Italy
##OWNER=RRUFF
##SOURCE=University of Arizona Mineral Museum
##DESCRIPTION=Blue crystal embedded in calcite
##STATUS=The identification of this mineral has been confirmed only by X-ray diffraction
##URL=rruff.info/R050606
##PIN_ID=M01913
##ORIENTATION=Laser parallel to c* (0 0 1). Fiducial mark perpendicular to laser is parallel to a [1 0 0]
235.6830, 12231.00
236.9020, 12230.00
238.1200, 12162.74
239.3390, 12160.40
240.5570, 12139.00
241.7750, 12094.00
242.9930, 12113.00
244.2110, 12015.00
245.4290, 12052.00
246.6460, 12001.24
247.8630, 12205.00
249.0810, 11955.00
250.2980, 11913.00
251.5140, 11935.00
252.7310, 12127.00
253.9470, 11973.00
255.1640, 12055.00
256.3800, 11930.00
257.5960, 12001.00
258.8120, 11957.00
260.0270, 12028.00
261.2430, 11921.00
262.4580, 11939.00
263.6730, 11836.00
264.8880, 11885.00
266.1030, 11703.00
267.3170, 11729.00
268.5320, 11579.00
269.7460, 11676.00
270.9600, 11642.00
272.1740, 11741.00
273.3880, 11633.00
274.6010, 11700.00
275.8150, 11707.00
277.0280, 11567.00
278.2410, 11720.00
279.4540, 11597.00
280.6670, 11830.00
281.8790, 11740.00
283.0920, 11679.00
284.3040, 11785.00
285.5160, 11699.00
286.7280, 11625.00
287.9400, 11757.00
289.1510, 11645.00
290.3630, 11749.00
291.5740, 11640.00
292.7850, 11600.00
293.9960, 11409.00
295.2070, 11443.44
296.4170, 11547.00
297.6280, 11513.00
298.8380, 11516.00
300.0480, 11652.00
301.2580, 11570.00
302.4680, 11588.00
303.6770, 11419.00
304.8870, 11551.00
306.0960, 11596.00
307.3050, 11548.00
308.5140, 11609.00
309.7230, 11546.00
310.9310, 11597.00
312.1400, 11647.65
313.3480, 11690.00
314.5560, 11694.61
315.7640, 11694.00
316.9720, 11677.00
318.1790, 11688.30
319.3870, 11662.00
320.5940, 11672.00
321.8010, 11676.00
323.0080, 11654.00
324.2150, 11689.42
325.4210, 11734.00
326.6280, 11736.00
327.8340, 11692.00
329.0400, 11690.00
330.2460, 11651.00
331.4510, 11673.00
332.6570, 11711.00
333.8620, 11784.00
335.0680, 11808.00
336.2730, 11724.00
337.4780, 11869.00
338.6820, 11690.00
339.8870, 11773.00
341.0910, 11758.00
342.2950, 11809.00
343.5000, 11980.00
344.7030, 11887.00
345.9070, 11959.00
347.1110, 12191.00
348.3140, 12099.00
349.5170, 12349.00
350.7200, 12156.00
351.9230, 12335.00
353.1260, 12318.00
354.3290, 12353.00
355.5310, 12379.00
356.7330, 12447.78
357.9350, 12528.01
359.1370, 12604.00
360.3390, 12718.00
361.5400, 12760.00
362.7420, 12829.00
363.9430, 12869.00
365.1440, 12987.00
366.3450, 13031.00
367.5460, 12958.00
368.7460, 12831.00
369.9470, 12907.00
371.1470, 12998.00
372.3470, 13294.00
373.5470, 13187.00
374.7460, 13234.00
375.9460, 13350.00
377.1450, 13279.00
378.3450, 13267.00
379.5440, 13426.00
380.7430, 13413.00
381.9410, 13493.00
383.1400, 13575.00
384.3380, 13496.00
385.5370, 13706.00
386.7350, 13550.00
387.9320, 13728.00
389.1300, 13619.00
390.3280, 13652.00
391.5250, 13537.00
392.7220, 13592.79
393.9190, 13727.00
395.1160, 13743.00
396.3130, 13815.00
397.5100, 13994.00
398.7060, 13877.00
399.9020, 14139.00
401.0980, 14100.00
402.2940, 14390.00
403.4900, 14439.00
404.6860, 14700.00
405.8810, 14711.00
407.0760, 14986.00
408.2710, 15378.00
409.4660, 15537.00
410.6610, 15660.00
411.8550, 16221.00
413.0500, 16378.00
414.2440, 16791.00
415.4380, 17108.00
416.6320, 17745.00
417.8260, 18144.00
419.0190, 18423.00
420.2130, 19178.00
421.4060, 19974.00
422.5990, 20605.00
423.7920, 21550.00
424.9850, 22523.00
426.1770, 23614.00
427.3700, 24709.00
428.5620, 26006.00
429.7540, 27037.00
430.9460, 28399.00
432.1380, 28861.00
433.3290, 29424.00
434.5210, 30000.00
435.7120, 29706.00
436.9030, 29111.00
438.0940, 28418.00
439.2850, 27559.00
440.4750, 26722.00
441.6660, 25480.00
442.8560, 24818.00
444.0460, 23777.00
445.2360, 23062.00
446.4260, 22267.00
447.6160, 21764.00
448.8050, 21090.00
449.9940, 20748.00
451.1830, 20303.00
452.3720, 19818.00
453.5610, 19558.00
454.7500, 19094.00
455.9380, 18891.00
457.1260, 18545.00
458.3150, 18408.00
459.5020, 18233.00
460.6900, 17876.00
461.8780, 17984.00
463.0650, 17709.00
464.2530, 17443.00
465.4400, 17233.00
466.6270, 17242.00
467.8130, 16976.00
469.0000, 16971.00
470.1870, 16988.00
471.3730, 16772.00
472.5590, 16617.00
473.7450, 16534.00
474.9310, 16387.00
476.1160, 16445.00
477.3020, 16472.00
478.4870, 16482.00
479.6720, 16544.00
480.8570, 16382.00
482.0420, 16393.89
483.2270, 16501.00
484.4110, 16247.00
485.5960, 16235.00
486.7800, 16108.00
487.9640, 16031.00
489.1480, 15951.00
490.3310, 16033.00
491.5150, 15948.90
492.6980, 15879.00
493.8810, 15926.00
495.0640, 15832.00
496.2470, 15875.66
497.4300, 15662.00
498.6120, 15763.00
499.7950, 15737.00
500.9770, 15664.00
502.1590, 15711.00
503.3410, 15704.00
504.5220, 15766.00
505.7040, 15662.00
506.8850, 15599.00
508.0660, 15529.00
509.2470, 15643.00
510.4280, 15701.00
511.6090, 15611.00
512.7890, 15793.00
513.9700, 15675.00
515.1500, 15686.00
516.3300, 15749.00
517.5100, 15687.00
518.6900, 15870.00
519.8690, 15790.00
521.0490, 15905.00
522.2280, 15874.00
523.4070, 15903.00
524.5860, 16077.00
525.7640, 16256.00
526.9430, 16163.00
528.1210, 16338.00
529.3000, 16478.00
530.4780, 16629.00
531.6560, 16774.00
532.8330, 16917.00
534.0110, 17216.00
535.1880, 17583.00
536.3650, 17869.00
537.5430, 18121.00
538.7190, 18599.00
539.8960, 19236.00
541.0730, 19617.00
542.2490, 20468.00
543.4250, 20649.00
544.6020, 21233.00
545.7780, 21668.00
546.9530, 21909.00
548.1290, 21810.00
549.3040, 21388.00
550.4800, 20746.00
551.6550, 19917.00
552.8300, 19085.00
554.0040, 18573.00
555.1790, 18040.00
556.3540, 17667.00
557.5280, 17449.00
558.7020, 17066.00
559.8760, 16978.00
561.0500, 17038.00
562.2230, 16898.00
563.3970, 16957.00
564.5700, 16907.00
565.7430, 16943.00
566.9160, 16842.00
568.0890, 16903.00
569.2620, 16784.00
570.4340, 16939.00
571.6070, 17096.00
572.7790, 17219.00
573.9510, 17149.00
575.1230, 17096.00
576.2940, 17213.00
577.4660, 17358.00
578.6370, 17483.00
579.8080, 17381.00
580.9790, 17744.00
582.1500, 17552.00
583.3210, 17658.00
584.4910, 17776.00
585.6620, 17743.00
586.8320, 17639.00
588.0020, 17813.00
589.1720, 17873.00
590.3410, 17810.00
591.5110, 17911.00
592.6800, 17965.05
593.8500, 17950.00
595.0190, 18108.00
596.1880, 18086.00
597.3560, 18075.00
598.5250, 18249.00
599.6930, 18181.00
600.8620, 18263.00
602.0300, 18328.00
603.1970, 18669.00
604.3650, 18702.00
605.5330, 18945.00
606.7000, 19054.00
607.8680, 19044.00
609.0350, 19133.00
610.2020, 19178.00
611.3680, 19389.00
612.5350, 19328.00
613.7010, 19480.00
614.8680, 19404.00
616.0340, 19483.00
617.2000, 19239.00
618.3660, 19457.00
619.5310, 19330.00
620.6970, 19375.00
621.8620, 19286.00
623.0270, 19137.00
624.1920, 19227.00
625.3570, 19219.00
626.5220, 19218.00
627.6860, 18974.00
628.8500, 18799.00
630.0140, 19171.00
631.1780, 18855.00
632.3420, 18984.00
633.5060, 19044.00
634.6700, 19041.00
635.8330, 19082.00
636.9960, 19154.00
638.1590, 19307.00
639.3220, 19433.00
640.4850, 19390.00
641.6470, 19486.00
642.8100, 19539.00
643.9720, 19643.00
645.1340, 19690.02
646.2960, 19736.51
647.4570, 19771.00
648.6190, 19800.00
649.7800, 19794.48
650.9420, 19775.97
652.1030, 19708.00
653.2640, 19683.00
654.4240, 19587.00
655.5850, 19504.19
656.7450, 19322.00
657.9060, 19344.00
659.0660, 19243.00
660.2260, 19210.00
661.3850, 19250.00
662.5450, 19167.00
663.7040, 19071.00
664.8640, 19083.00
666.0230, 19111.00
667.1820, 19102.00
668.3410, 19147.00
669.4990, 19141.00
670.6580, 19127.00
671.8160, 19132.00
672.9740, 19142.00
674.1320, 19326.00
675.2900, 19222.00
676.4480, 19346.00
677.6050, 19395.00
678.7630, 19270.00
679.9200, 19360.00
681.0770, 19312.00
682.2340, 19335.00
683.3900, 19182.00
684.5470, 19346.00
685.7030, 19404.00
686.8590, 19284.00
688.0150, 19459.00
689.1710, 19605.00
690.3270, 19426.00
691.4830, 19675.00
692.6380, 19618.00
693.7930, 19692.00
694.9480, 19574.00
696.1030, 19735.00
697.2580, 19755.00
698.4130, 19683.00
699.5670, 19764.00
700.7210, 19716.00
701.8750, 19768.00
703.0290, 19937.00
704.1830, 20004.00
705.3370, 19852.00
706.4900, 19990.00
707.6430, 19970.00
708.7970, 20167.00
709.9490, 20151.00
711.1020, 20096.00
712.2550, 20334.00
713.4070, 20213.00
714.5600, 20439.00
715.7120, 20280.00
716.8640, 20351.00
718.0160, 20602.00
719.1670, 20509.00
720.3190, 20635.00
721.4700, 20644.00
722.6210, 20649.00
723.7720, 20807.00
724.9230, 20748.00
726.0740, 20556.00
727.2250, 20822.00
728.3750, 20567.00
729.5250, 20829.00
730.6750, 21081.00
731.8250, 20887.00
732.9750, 20804.00
734.1240, 20841.00
735.2740, 20934.00
736.4230, 20998.00
737.5720, 21030.00
738.7210, 21100.32
739.8700, 21146.82
741.0190, 21178.00
742.1670, 21232.00
743.3150, 21225.00
744.4630, 21223.00
745.6110, 21242.00
746.7590, 21276.00
747.9070, 21440.00
749.0540, 21144.00
750.2020, 21334.00
751.3490, 21317.00
752.4960, 21536.00
753.6430, 21156.00
754.7890, 21178.00
755.9360, 21326.00
757.0820, 21453.00
758.2280, 21529.00
759.3740, 21529.00
760.5200, 21589.00
761.6660, 21539.00
762.8120, 21679.00
763.9570, 21560.00
765.1020, 21623.00
766.2470, 21754.00
767.3920, 21823.00
768.5370, 21965.00
769.6810, 21946.00
770.8260, 21978.00
771.9700, 22064.00
773.1140, 22079.19
774.2580, 21972.00
775.4020, 22198.00
776.5460, 22155.00
777.6890, 22246.63
778.8320, 22070.00
779.9750, 22330.00
781.1180, 22191.00
782.2610, 22255.00
783.4040, 22279.00
784.5460, 22455.00
785.6890, 22490.00
786.8310, 22413.00
787.9730, 22379.00
789.1150, 22495.00
790.2560, 22499.00
791.3980, 22383.00
792.5390, 22581.00
793.6810, 22584.00
794.8220, 22631.00
795.9630, 22877.00
797.1030, 22853.00
798.2440, 23032.00
799.3840, 23082.00
800.5240, 22955.00
801.6650, 22978.00
802.8040, 23025.00
803.9440, 23054.00
805.0840, 23102.00
806.2230, 23189.00
807.3630, 23373.00
808.5020, 23366.00
809.6410, 23419.46
810.7790, 23423.00
811.9180, 23429.00
813.0570, 23449.00
814.1950, 23482.00
815.3330, 23489.00
816.4710, 23561.00
817.6090, 23516.00
818.7470, 23623.00
819.8840, 23696.00
821.0220, 23441.00
822.1590, 23765.00
823.2960, 23621.00
824.4330, 23996.00
825.5690, 23932.00
826.7060, 23940.00
827.8420, 24026.00
828.9790, 24012.00
830.1150, 24096.00
831.2510, 24151.34
832.3860, 24038.00
833.5220, 24254.00
834.6570, 24203.00
835.7930, 24177.00
836.9280, 23991.00
838.0630, 24218.00
839.1980, 24383.00
840.3320, 24392.00
841.4670, 24637.00
842.6010, 24433.00
843.7350, 24483.00
844.8690, 24470.00
846.0030, 24563.00
847.1370, 24599.00
848.2700, 24676.00
849.4040, 24721.33
850.5370, 24772.96
851.6700, 24798.00
852.8030, 24845.00
853.9360, 24865.00
855.0680, 24837.00
856.2000, 24955.70
857.3330, 25107.00
858.4650, 25126.00
859.5970, 25106.00
860.7290, 25098.00
861.8600, 25158.00
862.9920, 25188.00
864.1230, 25135.00
865.2540, 25206.00
866.3850, 25217.00
867.5160, 25412.00
868.6460, 25335.00
869.7770, 25519.00
870.9070, 25498.00
872.0370, 25572.00
873.1670, 25402.00
874.2970, 25662.00
875.4270, 25567.00
876.5570, 25694.00
877.6860, 25957.00
878.8150, 25767.00
879.9440, 25832.00
881.0730, 25868.00
882.2020, 25814.00
883.3300, 25959.00
884.4590, 25993.00
885.5870, 25906.00
886.7150, 25948.00
887.8430, 25989.00
888.9710, 26022.00
890.0990, 26102.00
891.2260, 26126.00
892.3530, 26178.00
893.4810, 26309.00
894.6080, 26221.00
895.7340, 26071.00
896.8610, 26295.00
897.9880, 26220.00
899.1140, 26408.00
900.2400, 26526.00
901.3660, 26529.00
902.4920, 26426.00
903.6180, 26568.00
904.7430, 26619.00
905.8690, 26546.00
906.9940, 26707.00
908.1190, 26635.00
909.2440, 26663.00
910.3690, 26786.00
911.4930, 26852.00
912.6180, 26919.00
913.7420, 26960.00
914.8660, 27043.97
915.9900, 27170.00
917.1140, 27177.00
918.2380, 27120.00
919.3610, 27131.00
920.4850, 27043.00
921.6080, 27057.00
922.7310, 27132.00
923.8540, 27195.53
924.9760, 27329.00
926.0990, 27405.00
927.2210, 27507.00
928.3440, 27517.00
929.4660, 27511.00
930.5880, 27663.00
931.7090, 27872.00
932.8310, 27931.00
933.9520, 27727.00
935.0740, 27981.00
936.1950, 27794.00
937.3160, 27865.00
938.4360, 28125.00
939.5570, 28350.00
940.6780, 28142.00
941.7980, 28491.00
942.9180, 28431.00
944.0380, 28499.00
945.1580, 28534.00
946.2780, 28631.00
947.3970, 28689.91
948.5170, 28885.00
949.6360, 28848.00
950.7550, 29051.00
951.8740, 29163.00
952.9930, 29135.00
954.1110, 29349.00
955.2300, 29827.00
956.3480, 30029.00
957.4660, 30153.00
958.5840, 30276.00
959.7020, 30421.00
960.8190, 31214.00
961.9370, 31620.00
963.0540, 32198.00
964.1710, 33055.00
965.2880, 33885.00
966.4050, 35380.00
967.5220, 37101.00
968.6380, 38550.00
969.7550, 40563.00
970.8710, 42936.00
971.9870, 45286.00
973.1030, 47413.00
974.2190, 49671.00
975.3340, 51467.00
976.4500, 52827.00
977.5650, 53396.00
978.6800, 53640.00
979.7950, 53093.00
980.9100, 52411.00
982.0250, 51850.00
983.1390, 51748.00
984.2530, 51977.00
985.3680, 52516.00
986.4820, 53045.00
987.5950, 53308.00
988.7090, 53478.00
989.8230, 53273.00
990.9360, 52576.00
992.0490, 52253.00
993.1620, 51542.00
994.2750, 50694.00
995.3880, 50042.00
996.5010, 49255.00
997.6130, 49182.00
998.7250, 49045.00
999.8370, 49133.00
1000.949, 49440.00
1002.061, 49215.00
1003.173, 49008.00
1004.284, 48459.00
1005.396, 47257.00
1006.507, 46692.00
1007.618, 45483.00
1008.729, 44379.00
1009.839, 43225.00
1010.950, 42248.00
1012.060, 41447.00
1013.171, 40149.00
1014.281, 39476.00
1015.391, 38419.00
1016.500, 37850.00
1017.610, 37047.00
1018.719, 36697.00
1019.829, 36479.00
1020.938, 36214.00
1022.047, 35973.00
1023.156, 35852.95
1024.264, 35707.18
1025.373, 35674.00
1026.481, 35614.00
1027.589, 35610.00
1028.697, 35598.78
1029.805, 35517.00
1030.913, 35642.00
1032.020, 35598.00
1033.128, 35679.00
1034.235, 35730.00
1035.342, 35616.00
1036.449, 35637.15
1037.556, 35641.00
1038.663, 35554.00
1039.769, 35569.00
1040.875, 35585.00
1041.981, 35617.00
1043.087, 35589.00
1044.193, 35216.00
1045.299, 35213.00
1046.404, 35242.00
1047.510, 35322.00
1048.615, 34977.00
1049.720, 34894.00
1050.825, 34954.00
1051.930, 35037.00
1053.034, 35075.00
1054.139, 34816.00
1055.243, 34789.00
1056.347, 34709.00
1057.451, 34846.00
1058.555, 34979.00
1059.658, 34744.00
1060.762, 34986.00
1061.865, 34957.00
1062.968, 35249.00
1064.071, 34935.00
1065.174, 35201.00
1066.277, 35211.00
1067.380, 35426.00
1068.482, 35340.00
1069.584, 35315.00
1070.686, 35614.00
1071.788, 35663.00
1072.890, 35589.00
1073.992, 35674.00
1075.093, 35931.00
1076.194, 36078.00
1077.295, 36062.00
1078.396, 36077.00
1079.497, 36325.00
1080.598, 36540.00
1081.698, 36443.00
1082.799, 36594.00
1083.899, 36746.00
1084.999, 36757.00
1086.099, 36959.00
1087.199, 37057.04
1088.298, 37187.00
1089.398, 37319.00
1090.497, 37511.00
1091.596, 37639.41
1092.695, 37767.00
1093.794, 37730.00
1094.892, 37659.00
1095.991, 37513.00
1097.089, 37639.00
1098.187, 37638.00
1099.285, 37807.00
1100.383, 37568.00
1101.481, 37607.00
1102.579, 37705.00
1103.676, 37493.00
1104.773, 37198.00
1105.870, 37263.00
1106.967, 37324.00
1108.064, 37132.00
1109.161, 37355.00
1110.257, 37431.00
1111.353, 37476.00
1112.449, 37446.00
1113.545, 37523.00
1114.641, 37381.00
1115.737, 37647.00
1116.832, 37641.00
1117.928, 37859.00
1119.023, 37779.00
1120.118, 37895.00
1121.213, 38035.00
1122.308, 38090.00
1123.402, 38124.00
1124.497, 38228.00
1125.591, 38091.00
1126.685, 38062.00
1127.779, 38288.00
1128.873, 38312.00
1129.967, 38130.00
1131.060, 38351.00
1132.153, 38474.00
1133.247, 38476.00
1134.340, 38608.02
1135.433, 38450.00
1136.525, 38731.00
1137.618, 38679.00
1138.710, 38756.00
1139.802, 38558.00
1140.895, 38724.00
1141.987, 38850.00
1143.078, 38749.00
1144.170, 39113.00
1145.261, 39185.00
1146.353, 39204.00
1147.444, 39242.00
1148.535, 39225.00
1149.626, 39124.00
1150.716, 39343.00
1151.807, 39247.00
1152.897, 39354.00
1153.988, 39635.00
1155.078, 39551.29
1156.168, 39628.40
1157.257, 39496.00
1158.347, 39695.00
1159.436, 39460.00
1160.526, 39728.00
1161.615, 39851.00
1162.704, 39903.00
1163.793, 39585.00
1164.881, 39714.00
1165.970, 39681.00
1167.058, 39928.00
1168.147, 39817.00
1169.235, 39632.00
1170.323, 39839.00
1171.410, 39946.00
1172.498, 40022.00
1173.585, 39808.00
1174.673, 39809.00
1175.760, 39667.00
1176.847, 39689.85
1177.934, 39858.00
1179.020, 39729.00
1180.107, 39864.00
1181.193, 39785.00
1182.279, 39875.00
1183.365, 40039.00
1184.451, 39959.00
1185.537, 39929.00
1186.623, 40113.00
1187.708, 39967.00
1188.793, 39895.00
1189.878, 39990.00
1190.963, 39976.00
1192.048, 39952.00
1193.133, 40012.00
1194.217, 39966.00
1195.302, 39947.00
1196.386, 40207.00
1197.470, 40441.00
1198.554, 40362.00
1199.638, 40178.00
1200.721, 40546.00
1201.805, 40117.00
1202.888, 40484.00
1203.971, 40516.00
1205.054, 40539.00
1206.137, 40244.00
1207.219, 40601.00
1208.302, 40631.00
1209.384, 40198.00
1210.466, 40435.00
1211.548, 40709.00
1212.630, 40548.00
1213.712, 40737.00
1214.794, 40949.00
1215.875, 40732.00
1216.956, 41107.00
1218.037, 41015.00
1219.118, 41201.00
1220.199, 40859.00
1221.280, 41124.00
1222.360, 40934.00
1223.441, 41230.00
1224.521, 41210.00
1225.601, 41254.00
1226.681, 41089.00
1227.760, 41038.00
1228.840, 41366.00
1229.919, 41505.00
1230.999, 41597.00
1232.078, 41647.40
1233.157, 41480.00
1234.236, 41603.00
1235.314, 41525.00
1236.393, 41581.00
1237.471, 41785.00
1238.549, 41675.00
1239.627, 41715.00
1240.705, 41737.00
1241.783, 41761.00
1242.860, 41889.00
1243.938, 41913.00
1245.015, 41930.00
1246.092, 42010.00
1247.169, 41913.00
1248.246, 42099.00
1249.323, 42072.00
1250.399, 42427.00
1251.475, 42348.00
1252.552, 42693.00
1253.628, 42489.00
1254.703, 42578.00
1255.779, 42638.00
1256.855, 42373.00
1257.930, 42511.00
1259.005, 42834.00
1260.080, 42581.00
1261.155, 42933.00
1262.230, 42757.00
1263.305, 43000.00
1264.379, 42732.00
1265.454, 43230.00
1266.528, 42767.00
1267.602, 42958.00
1268.676, 43106.00
1269.750, 43149.00
1270.823, 43019.00
1271.897, 43299.00
1272.970, 42938.00
1274.043, 43346.00
1275.116, 43210.00
1276.189, 43570.00
1277.261, 43412.00
1278.334, 43475.00
1279.406, 43479.00
1280.478, 43512.00
1281.550, 43783.00
1282.622, 43848.00
1283.694, 43576.00
1284.766, 43925.00
1285.837, 43890.00
1286.908, 43952.00
1287.979, 44142.00
1289.050, 43982.00
1290.121, 44311.00
1291.192, 44439.00
1292.262, 44520.00
1293.333, 44559.00
1294.403, 44775.00
1295.473, 44515.00
1296.543, 44555.00
1297.613, 44780.00
1298.682, 44792.00
1299.752, 44558.00
1300.821, 44883.00
1301.890, 44871.00
1302.959, 44849.00
1304.028, 45048.00
1305.096, 44962.00
1306.165, 45509.00
1307.233, 45378.00
1308.301, 45533.00
1309.370, 45222.00
1310.437, 45599.00
1311.505, 45466.00
1312.573, 45652.00
1313.640, 45496.00
1314.708, 45581.00
1315.775, 45730.00
1316.842, 45927.00
1317.908, 45944.24
1318.975, 46038.57
1320.042, 46027.00
1321.108, 46154.00
1322.174, 46210.00
1323.240, 46385.00
1324.306, 46734.00
1325.372, 46104.00
1326.438, 46547.00
1327.503, 46418.00
1328.568, 46234.00
1329.634, 46543.00
1330.699, 46755.00
1331.763, 46781.00
1332.828, 46741.00
1333.893, 46906.00
1334.957, 46772.00
1336.021, 46889.00
1337.085, 46757.00
1338.149, 47071.00
1339.213, 47188.00
1340.277, 47197.00
1341.340, 47282.00
1342.404, 47169.00
1343.467, 47608.00
1344.530, 47781.00
1345.593, 47455.00
1346.655, 47665.00
1347.718, 47539.00
1348.780, 47506.00
1349.843, 47391.00
1350.905, 47577.00
1351.967, 47602.02
1353.028, 47655.63
1354.090, 47839.00
1355.152, 47897.00
1356.213, 47974.00
1357.274, 48018.06
1358.335, 48092.00
1359.396, 48037.00
1360.457, 48191.00
1361.517, 48221.00
1362.578, 48425.00
1363.638, 48442.00
1364.698, 48510.04
1365.758, 48496.00
1366.818, 48628.00
1367.878, 48630.00
1368.937, 48768.52
1369.997, 48681.00
1371.056, 48817.00
1372.115, 48922.00
1373.174, 48787.00
1374.232, 48972.00
1375.291, 49109.00
1376.350, 48994.00
1377.408, 49024.00
1378.466, 49208.00
1379.524, 49384.00
1380.582, 49443.00
1381.640, 49681.00
1382.697, 49449.00
1383.754, 49875.00
1384.812, 49271.00
1385.869, 49423.00
1386.926, 49764.00
1387.983, 49786.00
1389.039, 49918.07
1390.096, 49789.00
1391.152, 49950.00
1392.208, 50017.00
1393.264, 49886.00
1394.320, 49873.00
1395.376, 50230.00
1396.431, 49939.00
1397.487, 49603.00
1398.542, 50054.00
1399.597, 50280.00
1400.652, 50066.00
1401.707, 50669.00
1402.762, 50560.00
1403.816, 50342.00
1404.871, 50348.00
1405.925, 50613.00
1406.979, 50622.00
1408.033, 50889.00
1409.086, 50632.00
1410.140, 50896.00
1411.194, 50937.00
1412.247, 50708.00
1413.300, 51092.00
1414.353, 51172.00
1415.406, 50850.00
1416.458, 50979.00
1417.511, 51334.00
1418.563, 51248.00
1419.616, 51430.00
1420.668, 51498.15
1421.720, 51475.00
1422.772, 51615.00
1423.823, 51596.00
1424.875, 51729.00
1425.926, 51543.00
1426.977, 51362.00
1428.028, 51730.00
1429.079, 51844.00
1430.130, 51684.00
1431.180, 51912.00
1432.231, 51894.00
1433.281, 51891.00
1434.331, 52389.00
1435.381, 52104.00
1436.431, 51933.00
1437.481, 52171.00
1438.530, 52429.00
1439.580, 52456.00
1440.629, 52302.00
1441.678, 52876.00
1442.727, 52459.00
1443.776, 52789.00
1444.824, 52841.00
1445.873, 52901.00
1446.921, 52686.00
1447.969, 52871.00
1449.017, 52917.00
1450.065, 53299.00
1451.113, 53154.00
1452.160, 53244.00
1453.208, 53188.00
1454.255, 53257.48
1455.302, 53317.00
1456.349, 53384.00
1457.396, 53611.00
1458.443, 53566.00
1459.489, 53762.00
1460.535, 53723.00
1461.582, 53609.00
1462.628, 53731.00
1463.674, 54017.00
1464.719, 53910.00
1465.765, 54372.00
1466.810, 54222.00
1467.856, 53907.00
1468.901, 54489.00
1469.946, 54094.00
1470.991, 54238.00
1472.035, 54331.00
1473.080, 54472.00
1474.124, 54480.00
1475.169, 54396.00
1476.213, 54536.00
1477.257, 54673.00
1478.300, 54489.00
1479.344, 54703.00
1480.388, 55030.00
1481.431, 54612.00
1482.474, 54996.00
1483.517, 54991.00
1484.560, 54935.00
1485.603, 54934.00
1486.645, 55263.00
1487.688, 54996.00
1488.730, 55318.00
1489.772, 55095.00
1490.814, 55428.00
1491.856, 55436.00
1492.898, 55307.00
1493.939, 55455.00
1494.981, 55514.00
1496.022, 55467.00
1497.063, 55997.00
1498.104, 56020.00
1499.145, 55719.00
1500.186, 56117.00
1501.226, 56219.00
1502.266, 55852.00
1503.307, 56488.00
1504.347, 56021.00
1505.387, 56329.00
1506.426, 56270.00
1507.466, 56679.00
1508.505, 56518.00
1509.545, 56755.00
1510.584, 56512.00
1511.623, 56521.00
1512.662, 56982.00
1513.700, 56665.00
1514.739, 56986.00
1515.777, 57188.00
1516.815, 56860.00
1517.854, 57181.00
1518.892, 57338.00
1519.929, 57421.00
1520.967, 57328.00
1522.004, 57221.00
1523.042, 57642.00
1524.079, 57499.00
1525.116, 57606.00
1526.153, 58087.00
1527.190, 57855.00
1528.226, 57890.00
1529.263, 57920.00
1530.299, 58061.00
1531.335, 58184.04
1532.371, 58106.00
1533.407, 58403.00
1534.443, 58304.00
1535.478, 58113.00
1536.514, 58274.00
1537.549, 58352.00
1538.584, 58836.00
1539.619, 58607.00
1540.654, 58635.00
1541.689, 59036.00
1542.723, 58820.00
1543.757, 58831.00
1544.792, 58989.00
1545.826, 59070.00
1546.860, 59228.64
1547.893, 59219.00
1548.927, 59488.00
1549.960, 59592.00
1550.994, 59503.00
1552.027, 59405.00
1553.060, 59256.00
1554.093, 59511.00
1555.126, 59986.00
1556.158, 59950.00
1557.191, 60054.00
1558.223, 59739.00
1559.255, 59966.00
1560.287, 60089.00
1561.319, 60044.00
1562.350, 60459.00
##END=



