##NAMES=Hauyne
##RRUFFID=R050606
##IDEAL CHEMISTRY=Na_3_Ca(Si_3_Al_3_)O_12_(S^6+^O_4_)
##LOCALITY=Ariccia, near Rome, Italy
##OWNER=RRUFF
##SOURCE=University of Arizona Mineral Museum
##DESCRIPTION=Blue crystal embedded in calcite
##STATUS=The identification of this mineral has been confirmed only by X-ray diffraction
##URL=rruff.info/R050606
##PIN_ID=M01913
##ORIENTATION=Laser parallel to c* (0 0 1). Fiducial mark perpendicular to laser is parallel to a [1 0 0]
235.6830, 10667.00
236.9020, 10707.00
238.1200, 10611.00
239.3390, 10705.00
240.5570, 10681.00
241.7750, 10638.00
242.9930, 10475.00
244.2110, 10511.00
245.4290, 10576.00
246.6460, 10426.00
247.8630, 10493.00
249.0810, 10482.00
250.2980, 10472.00
251.5140, 10473.00
252.7310, 10428.08
253.9470, 10390.00
255.1640, 10324.00
256.3800, 10320.00
257.5960, 10241.00
258.8120, 10320.00
260.0270, 10469.00
261.2430, 10315.00
262.4580, 10109.00
263.6730, 10188.00
264.8880, 10046.00
266.1030, 10049.00
267.3170, 10019.00
268.5320, 9999.000
269.7460, 9913.000
270.9600, 9980.000
272.1740, 10007.00
273.3880, 9925.000
274.6010, 9996.000
275.8150, 10007.00
277.0280, 9934.000
278.2410, 9889.000
279.4540, 9809.000
280.6670, 9890.000
281.8790, 9903.000
283.0920, 9876.000
284.3040, 9923.000
285.5160, 9866.000
286.7280, 9968.000
287.9400, 10017.00
289.1510, 9942.000
290.3630, 9902.000
291.5740, 9968.000
292.7850, 9808.000
293.9960, 9923.000
295.2070, 9977.000
296.4170, 9865.000
297.6280, 9822.000
298.8380, 9929.000
300.0480, 9977.000
301.2580, 9882.000
302.4680, 9944.000
303.6770, 9929.000
304.8870, 9967.000
306.0960, 10002.00
307.3050, 9937.000
308.5140, 9901.000
309.7230, 9930.961
310.9310, 9951.058
312.1400, 9999.000
313.3480, 10093.00
314.5560, 10196.00
315.7640, 10312.00
316.9720, 10271.00
318.1790, 10394.00
319.3870, 10373.00
320.5940, 10459.00
321.8010, 10382.00
323.0080, 10316.00
324.2150, 10301.00
325.4210, 10183.00
326.6280, 10230.00
327.8340, 10102.00
329.0400, 10243.00
330.2460, 10133.00
331.4510, 10132.44
332.6570, 9970.000
333.8620, 10064.00
335.0680, 10088.00
336.2730, 10004.00
337.4780, 9998.000
338.6820, 9965.000
339.8870, 10050.00
341.0910, 10096.00
342.2950, 10090.00
343.5000, 10126.00
344.7030, 10146.00
345.9070, 10254.00
347.1110, 10384.00
348.3140, 10381.00
349.5170, 10317.00
350.7200, 10397.00
351.9230, 10523.00
353.1260, 10353.00
354.3290, 10506.00
355.5310, 10597.00
356.7330, 10559.00
357.9350, 10640.00
359.1370, 10681.16
360.3390, 10781.00
361.5400, 10786.00
362.7420, 10847.00
363.9430, 10901.00
365.1440, 11032.00
366.3450, 11054.00
367.5460, 11128.00
368.7460, 11171.00
369.9470, 11091.00
371.1470, 11210.00
372.3470, 11152.00
373.5470, 11179.00
374.7460, 11267.04
375.9460, 11426.00
377.1450, 11443.00
378.3450, 11469.00
379.5440, 11591.00
380.7430, 11605.00
381.9410, 11704.00
383.1400, 11695.00
384.3380, 11720.00
385.5370, 11817.00
386.7350, 11747.00
387.9320, 11768.00
389.1300, 11744.00
390.3280, 11858.00
391.5250, 11780.00
392.7220, 11747.00
393.9190, 11919.00
395.1160, 11895.00
396.3130, 11864.00
397.5100, 12041.00
398.7060, 12162.00
399.9020, 12254.00
401.0980, 12265.00
402.2940, 12466.00
403.4900, 12561.76
404.6860, 12620.00
405.8810, 12857.00
407.0760, 13027.00
408.2710, 13167.00
409.4660, 13377.00
410.6610, 13675.00
411.8550, 13897.00
413.0500, 14095.00
414.2440, 14532.00
415.4380, 14981.00
416.6320, 15389.00
417.8260, 15694.00
419.0190, 16245.00
420.2130, 16652.00
421.4060, 17505.00
422.5990, 18100.00
423.7920, 18895.00
424.9850, 19844.00
426.1770, 20910.00
427.3700, 21810.00
428.5620, 23135.00
429.7540, 24352.00
430.9460, 25451.00
432.1380, 26063.00
433.3290, 26896.00
434.5210, 27374.00
435.7120, 26972.00
436.9030, 26760.00
438.0940, 26200.00
439.2850, 25092.00
440.4750, 24363.00
441.6660, 23073.00
442.8560, 22053.00
444.0460, 21250.00
445.2360, 20386.00
446.4260, 19532.00
447.6160, 18893.00
448.8050, 18305.00
449.9940, 17984.00
451.1830, 17533.00
452.3720, 16943.00
453.5610, 16723.00
454.7500, 16295.00
455.9380, 16056.00
457.1260, 16020.00
458.3150, 15836.00
459.5020, 15750.00
460.6900, 15642.00
461.8780, 15398.00
463.0650, 15292.00
464.2530, 15144.00
465.4400, 14932.00
466.6270, 14954.00
467.8130, 14755.00
469.0000, 14679.00
470.1870, 14750.00
471.3730, 14468.00
472.5590, 14390.00
473.7450, 14277.00
474.9310, 14229.00
476.1160, 14165.00
477.3020, 14066.00
478.4870, 13875.00
479.6720, 13748.00
480.8570, 13792.00
482.0420, 13828.00
483.2270, 13728.00
484.4110, 13637.00
485.5960, 13744.00
486.7800, 13714.00
487.9640, 13726.00
489.1480, 13602.00
490.3310, 13510.00
491.5150, 13508.80
492.6980, 13382.00
493.8810, 13468.00
495.0640, 13529.00
496.2470, 13510.00
497.4300, 13400.00
498.6120, 13390.00
499.7950, 13354.28
500.9770, 13315.00
502.1590, 13337.00
503.3410, 13395.00
504.5220, 13440.00
505.7040, 13403.00
506.8850, 13396.00
508.0660, 13389.00
509.2470, 13443.00
510.4280, 13529.00
511.6090, 13429.00
512.7890, 13521.00
513.9700, 13387.00
515.1500, 13589.00
516.3300, 13523.00
517.5100, 13533.00
518.6900, 13637.00
519.8690, 13614.00
521.0490, 13711.00
522.2280, 13659.00
523.4070, 13713.00
524.5860, 13910.00
525.7640, 14023.00
526.9430, 14046.00
528.1210, 14221.00
529.3000, 14082.00
530.4780, 14226.00
531.6560, 14407.00
532.8330, 14619.00
534.0110, 14633.00
535.1880, 14926.00
536.3650, 15206.00
537.5430, 15727.00
538.7190, 16114.00
539.8960, 16444.00
541.0730, 16980.00
542.2490, 17273.00
543.4250, 17991.00
544.6020, 18376.00
545.7780, 18688.00
546.9530, 18863.49
548.1290, 18808.15
549.3040, 18661.00
550.4800, 18279.00
551.6550, 17664.00
552.8300, 16986.00
554.0040, 16313.00
555.1790, 15696.00
556.3540, 15417.00
557.5280, 15220.00
558.7020, 15006.00
559.8760, 14810.00
561.0500, 14697.00
562.2230, 14589.00
563.3970, 14657.00
564.5700, 14485.00
565.7430, 14645.00
566.9160, 14552.00
568.0890, 14492.00
569.2620, 14486.00
570.4340, 14702.00
571.6070, 14556.00
572.7790, 14689.00
573.9510, 14768.00
575.1230, 14814.00
576.2940, 14886.00
577.4660, 14961.47
578.6370, 15053.00
579.8080, 15121.00
580.9790, 15210.00
582.1500, 15299.00
583.3210, 15418.00
584.4910, 15468.00
585.6620, 15431.00
586.8320, 15596.00
588.0020, 15684.00
589.1720, 15593.00
590.3410, 15792.00
591.5110, 15867.00
592.6800, 15730.00
593.8500, 15908.00
595.0190, 15943.00
596.1880, 16061.00
597.3560, 16602.00
598.5250, 16649.00
599.6930, 17063.00
600.8620, 17353.00
602.0300, 17394.00
603.1970, 17742.00
604.3650, 18139.00
605.5330, 18258.00
606.7000, 18462.00
607.8680, 18765.00
609.0350, 18945.00
610.2020, 18943.00
611.3680, 18904.00
612.5350, 18777.00
613.7010, 18658.00
614.8680, 18523.00
616.0340, 18433.00
617.2000, 18426.00
618.3660, 18239.00
619.5310, 18200.00
620.6970, 18072.00
621.8620, 17678.00
623.0270, 17567.00
624.1920, 17415.00
625.3570, 17082.00
626.5220, 16890.00
627.6860, 16731.00
628.8500, 16647.00
630.0140, 16505.00
631.1780, 16194.00
632.3420, 16387.00
633.5060, 16267.00
634.6700, 16029.00
635.8330, 16096.00
636.9960, 16179.00
638.1590, 16300.00
639.3220, 16200.00
640.4850, 16246.00
641.6470, 16423.00
642.8100, 16207.00
643.9720, 16445.00
645.1340, 16524.00
646.2960, 16441.00
647.4570, 16477.00
648.6190, 16470.00
649.7800, 16454.62
650.9420, 16489.00
652.1030, 16466.00
653.2640, 16385.00
654.4240, 16400.00
655.5850, 16198.00
656.7450, 16249.00
657.9060, 16216.00
659.0660, 16329.00
660.2260, 16245.00
661.3850, 16221.00
662.5450, 16205.00
663.7040, 16225.00
664.8640, 16438.00
666.0230, 16290.00
667.1820, 16390.00
668.3410, 16233.00
669.4990, 16452.00
670.6580, 16367.00
671.8160, 16445.00
672.9740, 16330.00
674.1320, 16443.00
675.2900, 16405.00
676.4480, 16531.00
677.6050, 16409.00
678.7630, 16489.00
679.9200, 16551.00
681.0770, 16518.00
682.2340, 16663.00
683.3900, 16574.00
684.5470, 16722.00
685.7030, 16557.00
686.8590, 16666.00
688.0150, 16632.00
689.1710, 16699.00
690.3270, 16812.00
691.4830, 16776.00
692.6380, 16886.00
693.7930, 16876.00
694.9480, 16895.00
696.1030, 16733.00
697.2580, 16994.00
698.4130, 16970.00
699.5670, 16904.00
700.7210, 17149.00
701.8750, 17210.00
703.0290, 17142.00
704.1830, 17237.00
705.3370, 17090.00
706.4900, 17129.00
707.6430, 17266.00
708.7970, 17425.00
709.9490, 17391.00
711.1020, 17452.00
712.2550, 17505.00
713.4070, 17563.00
714.5600, 17537.00
715.7120, 17573.00
716.8640, 17627.00
718.0160, 17683.00
719.1670, 17715.00
720.3190, 17767.00
721.4700, 17774.00
722.6210, 17764.00
723.7720, 17765.00
724.9230, 17892.00
726.0740, 17850.00
727.2250, 17892.00
728.3750, 18021.00
729.5250, 18065.00
730.6750, 17977.00
731.8250, 17862.00
732.9750, 17985.00
734.1240, 18051.00
735.2740, 18040.00
736.4230, 18089.00
737.5720, 18200.00
738.7210, 18119.00
739.8700, 18208.00
741.0190, 18214.50
742.1670, 18167.00
743.3150, 18225.00
744.4630, 18252.00
745.6110, 18210.00
746.7590, 18338.00
747.9070, 18380.09
749.0540, 18300.00
750.2020, 18537.00
751.3490, 18468.00
752.4960, 18472.00
753.6430, 18654.00
754.7890, 18449.00
755.9360, 18737.00
757.0820, 18643.00
758.2280, 18402.00
759.3740, 18601.00
760.5200, 18715.00
761.6660, 18671.00
762.8120, 18741.00
763.9570, 18805.00
765.1020, 18714.00
766.2470, 18832.20
767.3920, 18846.00
768.5370, 18920.00
769.6810, 19015.00
770.8260, 18968.00
771.9700, 19107.00
773.1140, 18919.00
774.2580, 18872.00
775.4020, 19050.00
776.5460, 19213.00
777.6890, 18961.00
778.8320, 19187.00
779.9750, 19297.00
781.1180, 19214.00
782.2610, 19428.00
783.4040, 19439.00
784.5460, 19469.00
785.6890, 19505.00
786.8310, 19225.00
787.9730, 19511.00
789.1150, 19387.00
790.2560, 19485.00
791.3980, 19735.00
792.5390, 19724.00
793.6810, 19667.00
794.8220, 19764.00
795.9630, 19566.00
797.1030, 19741.00
798.2440, 19907.00
799.3840, 19866.00
800.5240, 19786.00
801.6650, 19986.00
802.8040, 20063.00
803.9440, 20161.00
805.0840, 20214.00
806.2230, 20264.22
807.3630, 20266.99
808.5020, 20302.00
809.6410, 20290.00
810.7790, 20238.00
811.9180, 20380.00
813.0570, 20353.00
814.1950, 20465.00
815.3330, 20514.00
816.4710, 20763.00
817.6090, 20587.00
818.7470, 20580.00
819.8840, 20425.00
821.0220, 20613.00
822.1590, 20704.00
823.2960, 20731.00
824.4330, 20722.00
825.5690, 20755.00
826.7060, 20744.00
827.8420, 20803.00
828.9790, 20848.67
830.1150, 20835.74
831.2510, 20999.00
832.3860, 20902.00
833.5220, 21011.00
834.6570, 21211.00
835.7930, 20984.00
836.9280, 21074.00
838.0630, 21112.00
839.1980, 21135.00
840.3320, 21250.00
841.4670, 21346.00
842.6010, 21488.00
843.7350, 21325.00
844.8690, 21479.00
846.0030, 21336.00
847.1370, 21468.00
848.2700, 21652.00
849.4040, 21531.00
850.5370, 21758.00
851.6700, 21720.12
852.8030, 21626.00
853.9360, 21671.00
855.0680, 21679.00
856.2000, 21551.00
857.3330, 21832.00
858.4650, 21849.00
859.5970, 21828.00
860.7290, 21947.00
861.8600, 22002.00
862.9920, 22049.00
864.1230, 22088.00
865.2540, 21997.00
866.3850, 22125.00
867.5160, 21975.00
868.6460, 22102.74
869.7770, 22204.00
870.9070, 22268.00
872.0370, 22325.00
873.1670, 22339.00
874.2970, 22496.00
875.4270, 22466.00
876.5570, 22538.00
877.6860, 22577.49
878.8150, 22595.00
879.9440, 22634.00
881.0730, 22637.00
882.2020, 22683.00
883.3300, 22680.80
884.4590, 22719.00
885.5870, 22660.00
886.7150, 22750.00
887.8430, 22698.00
888.9710, 22651.00
890.0990, 22896.00
891.2260, 22889.00
892.3530, 22764.00
893.4810, 22881.00
894.6080, 22848.00
895.7340, 23113.00
896.8610, 22981.00
897.9880, 23102.00
899.1140, 23134.00
900.2400, 23158.00
901.3660, 23054.00
902.4920, 23197.00
903.6180, 23207.00
904.7430, 23450.00
905.8690, 23410.00
906.9940, 23414.00
908.1190, 23377.00
909.2440, 23432.00
910.3690, 23450.00
911.4930, 23603.00
912.6180, 23676.00
913.7420, 23759.00
914.8660, 23758.00
915.9900, 23792.00
917.1140, 23828.00
918.2380, 23821.00
919.3610, 24038.00
920.4850, 23832.00
921.6080, 23874.00
922.7310, 24200.00
923.8540, 23966.00
924.9760, 24076.00
926.0990, 24069.00
927.2210, 24078.00
928.3440, 24237.00
929.4660, 24187.00
930.5880, 24198.00
931.7090, 24391.00
932.8310, 24615.00
933.9520, 24447.00
935.0740, 24509.00
936.1950, 24530.00
937.3160, 24748.00
938.4360, 24747.00
939.5570, 24806.00
940.6780, 24680.00
941.7980, 24778.00
942.9180, 24976.00
944.0380, 24782.00
945.1580, 25025.00
946.2780, 24957.00
947.3970, 25100.00
948.5170, 25253.00
949.6360, 25392.00
950.7550, 25494.00
951.8740, 25521.00
952.9930, 25710.00
954.1110, 25814.00
955.2300, 25903.00
956.3480, 26181.00
957.4660, 26447.00
958.5840, 26678.00
959.7020, 26990.00
960.8190, 27491.00
961.9370, 28036.00
963.0540, 28536.00
964.1710, 29272.00
965.2880, 30418.00
966.4050, 31626.00
967.5220, 33242.00
968.6380, 34841.21
969.7550, 36684.00
970.8710, 38724.00
971.9870, 41070.00
973.1030, 43574.00
974.2190, 45426.00
975.3340, 47249.00
976.4500, 48428.62
977.5650, 49643.00
978.6800, 49699.00
979.7950, 49432.00
980.9100, 48981.00
982.0250, 48559.00
983.1390, 48114.00
984.2530, 48520.00
985.3680, 48703.00
986.4820, 49010.00
987.5950, 49943.00
988.7090, 49875.00
989.8230, 49727.00
990.9360, 49182.00
992.0490, 49006.00
993.1620, 48086.00
994.2750, 47352.00
995.3880, 46483.00
996.5010, 46108.00
997.6130, 45518.00
998.7250, 45329.00
999.8370, 45376.00
1000.949, 45566.00
1002.061, 45421.00
1003.173, 45166.00
1004.284, 44687.00
1005.396, 44085.00
1006.507, 42784.00
1007.618, 42018.00
1008.729, 40843.00
1009.839, 39792.00
1010.950, 38605.00
1012.060, 37468.00
1013.171, 36817.00
1014.281, 35852.00
1015.391, 35099.00
1016.500, 34155.00
1017.610, 33585.00
1018.719, 33188.00
1019.829, 32386.00
1020.938, 32351.00
1022.047, 31942.00
1023.156, 31947.00
1024.264, 31828.00
1025.373, 31827.00
1026.481, 32010.00
1027.589, 31957.00
1028.697, 32000.00
1029.805, 32028.00
1030.913, 31947.00
1032.020, 32014.00
1033.128, 31987.00
1034.235, 31969.00
1035.342, 31963.00
1036.449, 32032.00
1037.556, 31991.71
1038.663, 31958.41
1039.769, 31943.00
1040.875, 31842.00
1041.981, 31761.00
1043.087, 31716.00
1044.193, 31847.00
1045.299, 31599.00
1046.404, 31682.00
1047.510, 31747.00
1048.615, 31146.00
1049.720, 31576.00
1050.825, 31077.00
1051.930, 31211.00
1053.034, 31299.00
1054.139, 31105.00
1055.243, 31373.00
1056.347, 31309.00
1057.451, 31293.00
1058.555, 31254.00
1059.658, 31258.00
1060.762, 31457.00
1061.865, 31498.00
1062.968, 31548.75
1064.071, 31488.00
1065.174, 31552.00
1066.277, 31596.00
1067.380, 31440.00
1068.482, 31905.00
1069.584, 31765.00
1070.686, 31919.00
1071.788, 32170.00
1072.890, 32050.00
1073.992, 32191.00
1075.093, 32007.00
1076.194, 32338.00
1077.295, 32415.00
1078.396, 32510.00
1079.497, 32579.00
1080.598, 32657.00
1081.698, 33120.00
1082.799, 33149.00
1083.899, 33200.00
1084.999, 33295.00
1086.099, 33333.00
1087.199, 33543.00
1088.298, 33520.00
1089.398, 33738.00
1090.497, 33809.00
1091.596, 33855.00
1092.695, 33939.00
1093.794, 33805.00
1094.892, 33914.00
1095.991, 33826.00
1097.089, 34107.00
1098.187, 33957.00
1099.285, 33897.00
1100.383, 33909.00
1101.481, 33512.00
1102.579, 33748.00
1103.676, 33320.00
1104.773, 33684.00
1105.870, 33346.00
1106.967, 33531.00
1108.064, 33592.00
1109.161, 33536.00
1110.257, 33515.00
1111.353, 33629.00
1112.449, 33453.00
1113.545, 33642.00
1114.641, 33633.00
1115.737, 33876.00
1116.832, 33865.45
1117.928, 33833.00
1119.023, 33875.00
1120.118, 33969.00
1121.213, 33930.00
1122.308, 34031.00
1123.402, 34023.00
1124.497, 34192.00
1125.591, 34113.00
1126.685, 34350.00
1127.779, 34229.00
1128.873, 34272.00
1129.967, 34339.00
1131.060, 34554.00
1132.153, 34480.00
1133.247, 34180.00
1134.340, 34589.00
1135.433, 34621.00
1136.525, 34476.00
1137.618, 34703.00
1138.710, 34640.00
1139.802, 34766.00
1140.895, 34929.00
1141.987, 34697.00
1143.078, 35008.00
1144.170, 35181.00
1145.261, 35099.00
1146.353, 35281.00
1147.444, 35327.00
1148.535, 35416.00
1149.626, 35189.00
1150.716, 35147.00
1151.807, 35484.00
1152.897, 35211.00
1153.988, 35656.00
1155.078, 35787.00
1156.168, 35538.00
1157.257, 35856.00
1158.347, 35803.00
1159.436, 35669.00
1160.526, 35832.00
1161.615, 35582.00
1162.704, 35850.00
1163.793, 35741.00
1164.881, 35691.00
1165.970, 35812.00
1167.058, 35932.00
1168.147, 35974.00
1169.235, 35874.00
1170.323, 35902.00
1171.410, 35761.00
1172.498, 35677.00
1173.585, 35946.00
1174.673, 35589.00
1175.760, 35798.00
1176.847, 35998.00
1177.934, 35665.00
1179.020, 35611.00
1180.107, 35857.00
1181.193, 35757.00
1182.279, 35771.04
1183.365, 35493.00
1184.451, 35696.00
1185.537, 35636.00
1186.623, 35622.00
1187.708, 35369.00
1188.793, 35717.00
1189.878, 35813.00
1190.963, 35665.00
1192.048, 35845.00
1193.133, 35730.00
1194.217, 35757.00
1195.302, 35687.00
1196.386, 35644.00
1197.470, 35632.00
1198.554, 35676.00
1199.638, 35706.13
1200.721, 35662.00
1201.805, 35865.00
1202.888, 35817.00
1203.971, 35942.00
1205.054, 35925.00
1206.137, 35983.00
1207.219, 36030.00
1208.302, 35967.00
1209.384, 36012.00
1210.466, 36043.57
1211.548, 36044.00
1212.630, 36129.00
1213.712, 36144.00
1214.794, 36166.28
1215.875, 36388.00
1216.956, 36182.00
1218.037, 36294.00
1219.118, 36458.00
1220.199, 36658.00
1221.280, 36570.00
1222.360, 36701.00
1223.441, 36625.00
1224.521, 36666.00
1225.601, 36667.00
1226.681, 36596.00
1227.760, 36820.00
1228.840, 36871.00
1229.919, 36769.00
1230.999, 37071.00
1232.078, 36939.00
1233.157, 37056.00
1234.236, 36877.00
1235.314, 36996.00
1236.393, 36984.00
1237.471, 37054.00
1238.549, 37143.00
1239.627, 37205.00
1240.705, 37239.73
1241.783, 37454.00
1242.860, 37232.00
1243.938, 37368.00
1245.015, 37253.27
1246.092, 37327.00
1247.169, 37359.00
1248.246, 37323.00
1249.323, 37656.00
1250.399, 37617.00
1251.475, 37721.00
1252.552, 37791.00
1253.628, 37908.00
1254.703, 37932.00
1255.779, 38075.00
1256.855, 37783.00
1257.930, 37860.00
1259.005, 37838.00
1260.080, 38136.00
1261.155, 38092.00
1262.230, 38229.62
1263.305, 38228.00
1264.379, 38455.00
1265.454, 38423.00
1266.528, 38590.00
1267.602, 38520.00
1268.676, 38426.00
1269.750, 38539.00
1270.823, 38404.00
1271.897, 38425.00
1272.970, 38511.97
1274.043, 38579.00
1275.116, 38631.00
1276.189, 38812.00
1277.261, 38748.00
1278.334, 38968.00
1279.406, 38903.00
1280.478, 39072.00
1281.550, 39305.00
1282.622, 39030.00
1283.694, 39015.00
1284.766, 39106.00
1285.837, 39057.00
1286.908, 39101.25
1287.979, 39153.18
1289.050, 39159.00
1290.121, 39266.00
1291.192, 39332.00
1292.262, 39406.00
1293.333, 39650.00
1294.403, 39657.00
1295.473, 39825.00
1296.543, 39791.00
1297.613, 39922.00
1298.682, 39894.00
1299.752, 40032.00
1300.821, 40054.00
1301.890, 40214.00
1302.959, 39903.00
1304.028, 40111.00
1305.096, 40244.00
1306.165, 40334.00
1307.233, 40645.00
1308.301, 40423.00
1309.370, 40392.00
1310.437, 40561.00
1311.505, 40619.00
1312.573, 40834.00
1313.640, 40925.00
1314.708, 41117.00
1315.775, 40887.00
1316.842, 40861.00
1317.908, 41058.00
1318.975, 41109.00
1320.042, 41281.00
1321.108, 41230.00
1322.174, 41068.00
1323.240, 41233.00
1324.306, 41452.00
1325.372, 41067.00
1326.438, 41344.00
1327.503, 41347.00
1328.568, 41485.00
1329.634, 41632.00
1330.699, 41830.00
1331.763, 41353.00
1332.828, 41926.00
1333.893, 41606.00
1334.957, 41945.00
1336.021, 41848.00
1337.085, 42136.00
1338.149, 41878.00
1339.213, 42117.00
1340.277, 42543.00
1341.340, 42003.00
1342.404, 42254.00
1343.467, 42477.00
1344.530, 42450.00
1345.593, 41978.00
1346.655, 42572.00
1347.718, 42420.00
1348.780, 42880.00
1349.843, 42801.00
1350.905, 42830.00
1351.967, 42609.00
1353.028, 42754.00
1354.090, 43007.00
1355.152, 42535.00
1356.213, 42650.00
1357.274, 43137.00
1358.335, 42849.00
1359.396, 43069.00
1360.457, 43062.00
1361.517, 43153.00
1362.578, 43286.00
1363.638, 43294.00
1364.698, 43210.00
1365.758, 43372.00
1366.818, 43209.00
1367.878, 43260.00
1368.937, 43465.00
1369.997, 43504.00
1371.056, 43384.00
1372.115, 43525.00
1373.174, 43525.51
1374.232, 43638.00
1375.291, 43710.00
1376.350, 43757.00
1377.408, 43859.86
1378.466, 43953.77
1379.524, 44021.00
1380.582, 44180.00
1381.640, 44252.00
1382.697, 44365.60
1383.754, 44218.00
1384.812, 44343.00
1385.869, 44289.00
1386.926, 44066.00
1387.983, 44323.00
1389.039, 44550.00
1390.096, 44156.00
1391.152, 44473.00
1392.208, 44629.00
1393.264, 44706.00
1394.320, 44550.00
1395.376, 44908.00
1396.431, 44582.00
1397.487, 44762.00
1398.542, 44851.00
1399.597, 45014.00
1400.652, 45048.00
1401.707, 45144.00
1402.762, 45108.00
1403.816, 45002.00
1404.871, 45070.00
1405.925, 45291.00
1406.979, 45063.00
1408.033, 45351.00
1409.086, 45108.00
1410.140, 45366.00
1411.194, 45551.00
1412.247, 45354.00
1413.300, 45643.00
1414.353, 45846.00
1415.406, 45519.00
1416.458, 45852.00
1417.511, 45678.00
1418.563, 45581.00
1419.616, 45933.00
1420.668, 45945.00
1421.720, 45995.00
1422.772, 46012.00
1423.823, 46168.00
1424.875, 46091.00
1425.926, 46025.00
1426.977, 46388.00
1428.028, 46306.00
1429.079, 46381.00
1430.130, 46437.00
1431.180, 46707.00
1432.231, 46337.00
1433.281, 46871.00
1434.331, 46366.00
1435.381, 46773.00
1436.431, 46791.00
1437.481, 46987.00
1438.530, 46909.00
1439.580, 46841.00
1440.629, 47256.00
1441.678, 47279.00
1442.727, 47420.00
1443.776, 47403.00
1444.824, 47526.46
1445.873, 47460.00
1446.921, 47710.00
1447.969, 47547.00
1449.017, 47572.00
1450.065, 47774.00
1451.113, 47741.00
1452.160, 47893.00
1453.208, 47726.00
1454.255, 47654.00
1455.302, 47941.00
1456.349, 48299.00
1457.396, 48129.00
1458.443, 47780.00
1459.489, 48039.00
1460.535, 48065.00
1461.582, 48213.00
1462.628, 48230.00
1463.674, 48433.00
1464.719, 48259.00
1465.765, 48414.00
1466.810, 48554.00
1467.856, 48546.00
1468.901, 48748.00
1469.946, 48840.00
1470.991, 48724.00
1472.035, 48864.00
1473.080, 48716.00
1474.124, 48964.00
1475.169, 48935.91
1476.213, 48852.00
1477.257, 48989.00
1478.300, 49003.00
1479.344, 48980.00
1480.388, 49165.00
1481.431, 49342.00
1482.474, 49365.00
1483.517, 49393.00
1484.560, 49658.00
1485.603, 49435.00
1486.645, 49738.00
1487.688, 49284.00
1488.730, 49303.00
1489.772, 49391.00
1490.814, 49663.00
1491.856, 49590.00
1492.898, 49802.00
1493.939, 50117.00
1494.981, 49970.00
1496.022, 49855.00
1497.063, 50228.00
1498.104, 50288.00
1499.145, 50299.00
1500.186, 50454.79
1501.226, 50405.00
1502.266, 50546.00
1503.307, 50423.00
1504.347, 50455.00
1505.387, 50762.00
1506.426, 50696.00
1507.466, 50778.00
1508.505, 50714.00
1509.545, 51064.00
1510.584, 50685.00
1511.623, 51172.00
1512.662, 50887.00
1513.700, 50893.00
1514.739, 51247.00
1515.777, 51542.00
1516.815, 51171.00
1517.854, 51432.00
1518.892, 51536.00
1519.929, 51453.00
1520.967, 51644.00
1522.004, 51676.97
1523.042, 51832.00
1524.079, 51825.00
1525.116, 51917.00
1526.153, 51937.00
1527.190, 51986.79
1528.226, 51949.00
1529.263, 52097.00
1530.299, 52012.00
1531.335, 52074.00
1532.371, 51975.00
1533.407, 52255.00
1534.443, 52535.00
1535.478, 52506.00
1536.514, 52498.00
1537.549, 52637.00
1538.584, 52627.26
1539.619, 52605.00
1540.654, 52734.00
1541.689, 53004.00
1542.723, 53084.00
1543.757, 53190.30
1544.792, 52888.00
1545.826, 53307.00
1546.860, 53198.00
1547.893, 53225.00
1548.927, 53477.00
1549.960, 53613.00
1550.994, 53501.00
1552.027, 53579.00
1553.060, 53622.00
1554.093, 53865.00
1555.126, 53760.00
1556.158, 53601.00
1557.191, 54008.00
1558.223, 53901.00
1559.255, 53876.00
1560.287, 53846.00
1561.319, 54043.00
1562.350, 54352.00
##END=



