##NAMES=Hauyne
##RRUFFID=R070121
##IDEAL CHEMISTRY=Na_3_Ca(Si_3_Al_3_)O_12_(S^6+^O_4_)
##LOCALITY=Hesse, Germany
##OWNER=RRUFF
##SOURCE=Michael Scott
##DESCRIPTION=Blue cut gemstones
##STATUS=The identification of this mineral has been confirmed by single-crystal X-ray diffraction.
##URL=rruff.info/R070121
##PIN_ID=M01514
##ORIENTATION=Laser parallel to a* (1 0 0). Fiducial mark perpendicular to laser is parallel to c [0 0 1]
224.7060, 10015.00
225.9260, 10098.00
227.1470, 10009.00
228.3670, 9950.000
229.5860, 9939.000
230.8060, 9978.000
232.0260, 9968.000
233.2450, 9955.000
234.4640, 10052.00
235.6830, 10083.00
236.9020, 10005.00
238.1200, 10041.00
239.3390, 10233.00
240.5570, 10313.00
241.7750, 10452.00
242.9930, 10649.00
244.2110, 10680.00
245.4290, 10856.00
246.6460, 11024.00
247.8630, 11359.00
249.0810, 11552.00
250.2980, 11763.00
251.5140, 11892.00
252.7310, 12027.00
253.9470, 12147.00
255.1640, 12079.00
256.3800, 12073.00
257.5960, 11933.00
258.8120, 11835.00
260.0270, 11826.00
261.2430, 11420.00
262.4580, 11133.00
263.6730, 10748.00
264.8880, 10535.00
266.1030, 10316.00
267.3170, 10015.00
268.5320, 9717.000
269.7460, 9463.000
270.9600, 9278.180
272.1740, 9142.000
273.3880, 9003.000
274.6010, 8941.000
275.8150, 8878.000
277.0280, 8764.625
278.2410, 8609.000
279.4540, 8564.000
280.6670, 8468.000
281.8790, 8343.000
283.0920, 8370.000
284.3040, 8271.000
285.5160, 8243.000
286.7280, 8223.000
287.9400, 8171.000
289.1510, 7991.000
290.3630, 7929.000
291.5740, 7772.000
292.7850, 7755.000
293.9960, 7707.000
295.2070, 7733.000
296.4170, 7664.000
297.6280, 7586.000
298.8380, 7510.000
300.0480, 7476.000
301.2580, 7423.000
302.4680, 7409.000
303.6770, 7336.000
304.8870, 7329.000
306.0960, 7290.000
307.3050, 7238.000
308.5140, 7187.000
309.7230, 7177.000
310.9310, 7133.751
312.1400, 7253.000
313.3480, 7115.000
314.5560, 7194.000
315.7640, 7268.000
316.9720, 7246.000
318.1790, 7145.000
319.3870, 7247.000
320.5940, 7054.000
321.8010, 7106.000
323.0080, 7056.000
324.2150, 7028.000
325.4210, 6983.000
326.6280, 6992.000
327.8340, 6889.000
329.0400, 6926.000
330.2460, 6788.000
331.4510, 6674.000
332.6570, 6760.000
333.8620, 6781.000
335.0680, 6675.000
336.2730, 6757.000
337.4780, 6685.000
338.6820, 6770.000
339.8870, 6729.000
341.0910, 6840.000
342.2950, 6920.000
343.5000, 7024.000
344.7030, 6861.000
345.9070, 7026.000
347.1110, 7089.000
348.3140, 7258.000
349.5170, 7254.000
350.7200, 7251.000
351.9230, 7354.000
353.1260, 7427.000
354.3290, 7411.000
355.5310, 7400.000
356.7330, 7443.000
357.9350, 7508.000
359.1370, 7533.000
360.3390, 7630.000
361.5400, 7566.000
362.7420, 7637.000
363.9430, 7612.000
365.1440, 7618.000
366.3450, 7642.000
367.5460, 7649.000
368.7460, 7723.000
369.9470, 7684.000
371.1470, 7857.000
372.3470, 7908.000
373.5470, 7916.000
374.7460, 8038.000
375.9460, 7965.000
377.1450, 8004.000
378.3450, 8122.000
379.5440, 8019.000
380.7430, 8296.000
381.9410, 8349.000
383.1400, 8423.000
384.3380, 8406.000
385.5370, 8343.000
386.7350, 8504.000
387.9320, 8462.000
389.1300, 8415.000
390.3280, 8458.000
391.5250, 8586.000
392.7220, 8511.000
393.9190, 8667.000
395.1160, 8700.000
396.3130, 8771.000
397.5100, 8843.046
398.7060, 8790.000
399.9020, 8958.000
401.0980, 8993.000
402.2940, 9081.000
403.4900, 9277.000
404.6860, 9349.000
405.8810, 9324.000
407.0760, 9652.000
408.2710, 9908.000
409.4660, 10152.00
410.6610, 10530.00
411.8550, 10535.00
413.0500, 10823.00
414.2440, 11182.00
415.4380, 11736.00
416.6320, 11884.00
417.8260, 12343.00
419.0190, 12839.00
420.2130, 13304.00
421.4060, 14049.00
422.5990, 14602.00
423.7920, 15214.00
424.9850, 15950.00
426.1770, 16887.00
427.3700, 18062.00
428.5620, 18977.00
429.7540, 19992.00
430.9460, 21319.00
432.1380, 22451.00
433.3290, 23517.00
434.5210, 24530.00
435.7120, 25376.00
436.9030, 26138.00
438.0940, 26512.00
439.2850, 27027.00
440.4750, 27125.00
441.6660, 27254.00
442.8560, 27193.00
444.0460, 27198.00
445.2360, 26616.00
446.4260, 26327.00
447.6160, 25913.00
448.8050, 24958.00
449.9940, 24499.00
451.1830, 23805.00
452.3720, 23085.00
453.5610, 22436.00
454.7500, 21752.98
455.9380, 20951.00
457.1260, 20401.00
458.3150, 19709.00
459.5020, 18965.00
460.6900, 18382.00
461.8780, 17556.00
463.0650, 16920.00
464.2530, 16328.00
465.4400, 15773.99
466.6270, 15243.00
467.8130, 14868.00
469.0000, 14485.00
470.1870, 14086.00
471.3730, 13640.00
472.5590, 13351.00
473.7450, 13056.00
474.9310, 12626.00
476.1160, 12533.00
477.3020, 12309.00
478.4870, 11926.00
479.6720, 11734.00
480.8570, 11622.00
482.0420, 11447.00
483.2270, 11250.00
484.4110, 11355.00
485.5960, 11157.00
486.7800, 10932.00
487.9640, 10679.00
489.1480, 10670.00
490.3310, 10670.00
491.5150, 10465.00
492.6980, 10489.00
493.8810, 10561.00
495.0640, 10382.00
496.2470, 10241.00
497.4300, 10352.00
498.6120, 10350.00
499.7950, 10388.00
500.9770, 10282.00
502.1590, 10262.00
503.3410, 10310.00
504.5220, 10377.00
505.7040, 10320.00
506.8850, 10460.00
508.0660, 10439.00
509.2470, 10666.00
510.4280, 10843.00
511.6090, 10692.00
512.7890, 10877.00
513.9700, 11002.00
515.1500, 11204.00
516.3300, 11431.00
517.5100, 11479.00
518.6900, 11747.00
519.8690, 12051.00
521.0490, 12551.00
522.2280, 13014.00
523.4070, 13604.00
524.5860, 14412.00
525.7640, 15271.00
526.9430, 16291.00
528.1210, 17541.00
529.3000, 19115.00
530.4780, 21026.00
531.6560, 23555.00
532.8330, 26481.00
534.0110, 29684.00
535.1880, 33791.00
536.3650, 37872.00
537.5430, 42661.00
538.7190, 47767.00
539.8960, 52590.00
541.0730, 57410.00
542.2490, 60957.00
543.4250, 62958.00
544.6020, 63247.00
545.7780, 62236.00
546.9530, 58164.00
548.1290, 52923.00
549.3040, 46281.00
550.4800, 39534.00
551.6550, 34116.00
552.8300, 28058.00
554.0040, 23959.00
555.1790, 20845.00
556.3540, 18680.00
557.5280, 17084.00
558.7020, 15849.00
559.8760, 15114.00
561.0500, 14502.00
562.2230, 13975.00
563.3970, 13762.00
564.5700, 13472.00
565.7430, 13357.00
566.9160, 13278.00
568.0890, 13369.00
569.2620, 13559.00
570.4340, 13644.00
571.6070, 13925.00
572.7790, 14198.00
573.9510, 14508.00
575.1230, 14636.00
576.2940, 15073.00
577.4660, 15334.00
578.6370, 15451.00
579.8080, 15429.00
580.9790, 15551.00
582.1500, 15427.00
583.3210, 15368.00
584.4910, 15307.00
585.6620, 14940.00
586.8320, 14844.00
588.0020, 14567.00
589.1720, 14427.00
590.3410, 14054.00
591.5110, 13909.00
592.6800, 13955.00
593.8500, 13766.00
595.0190, 13749.00
596.1880, 13647.00
597.3560, 13658.00
598.5250, 14019.00
599.6930, 14242.00
600.8620, 14431.00
602.0300, 15061.00
603.1970, 15610.00
604.3650, 15985.00
605.5330, 16577.00
606.7000, 17238.00
607.8680, 17570.00
609.0350, 17798.00
610.2020, 17760.00
611.3680, 17387.00
612.5350, 17274.00
613.7010, 16806.00
614.8680, 16674.00
616.0340, 16132.00
617.2000, 16021.00
618.3660, 15536.00
619.5310, 15120.00
620.6970, 14839.00
621.8620, 14450.00
623.0270, 14189.00
624.1920, 13808.00
625.3570, 13318.00
626.5220, 13058.00
627.6860, 12580.00
628.8500, 12252.00
630.0140, 11942.00
631.1780, 11653.00
632.3420, 11337.00
633.5060, 11216.16
634.6700, 11084.00
635.8330, 11070.00
636.9960, 10919.00
638.1590, 10968.00
639.3220, 10941.00
640.4850, 10986.00
641.6470, 10795.00
642.8100, 10877.00
643.9720, 10754.00
645.1340, 10694.00
646.2960, 10713.00
647.4570, 10650.00
648.6190, 10583.00
649.7800, 10617.00
650.9420, 10562.00
652.1030, 10378.00
653.2640, 10365.00
654.4240, 10174.00
655.5850, 10239.00
656.7450, 10241.00
657.9060, 9924.000
659.0660, 9974.000
660.2260, 10029.00
661.3850, 9999.000
662.5450, 9994.041
663.7040, 9977.775
664.8640, 9913.000
666.0230, 9939.000
667.1820, 9912.000
668.3410, 9954.000
669.4990, 9957.000
670.6580, 9988.000
671.8160, 9970.000
672.9740, 9924.000
674.1320, 9960.000
675.2900, 9832.000
676.4480, 9950.000
677.6050, 9992.000
678.7630, 9916.000
679.9200, 9900.000
681.0770, 10044.00
682.2340, 9929.000
683.3900, 9992.000
684.5470, 9986.000
685.7030, 9967.000
686.8590, 10002.00
688.0150, 9966.000
689.1710, 10027.00
690.3270, 9926.000
691.4830, 10018.00
692.6380, 9945.000
693.7930, 9971.000
694.9480, 10082.00
696.1030, 9998.000
697.2580, 10064.00
698.4130, 10032.00
699.5670, 9960.000
700.7210, 10125.00
701.8750, 10058.00
703.0290, 10056.00
704.1830, 10271.00
705.3370, 10184.00
706.4900, 10184.00
707.6430, 10190.00
708.7970, 10132.00
709.9490, 10362.00
711.1020, 10388.00
712.2550, 10378.00
713.4070, 10313.00
714.5600, 10416.00
715.7120, 10434.00
716.8640, 10418.00
718.0160, 10508.00
719.1670, 10500.00
720.3190, 10653.00
721.4700, 10618.00
722.6210, 10454.00
723.7720, 10577.00
724.9230, 10483.00
726.0740, 10555.00
727.2250, 10698.00
728.3750, 10656.00
729.5250, 10545.00
730.6750, 10750.00
731.8250, 10558.00
732.9750, 10832.00
734.1240, 10654.00
735.2740, 10688.00
736.4230, 10660.00
737.5720, 10655.00
738.7210, 10640.00
739.8700, 10881.00
741.0190, 10779.00
742.1670, 10787.00
743.3150, 10660.00
744.4630, 10873.00
745.6110, 10779.00
746.7590, 10780.00
747.9070, 10727.00
749.0540, 10818.00
750.2020, 10775.00
751.3490, 10916.00
752.4960, 10941.00
753.6430, 10930.00
754.7890, 10894.00
755.9360, 10951.00
757.0820, 10966.00
758.2280, 10957.35
759.3740, 10953.00
760.5200, 10994.00
761.6660, 11014.00
762.8120, 11119.00
763.9570, 11134.29
765.1020, 11103.00
766.2470, 11215.00
767.3920, 11284.00
768.5370, 11332.00
769.6810, 11281.00
770.8260, 11306.00
771.9700, 11356.62
773.1140, 11397.00
774.2580, 11472.00
775.4020, 11498.00
776.5460, 11549.00
777.6890, 11686.00
778.8320, 11581.00
779.9750, 11783.00
781.1180, 11908.00
782.2610, 11915.00
783.4040, 11905.00
784.5460, 11955.00
785.6890, 12101.00
786.8310, 12190.00
787.9730, 12373.00
789.1150, 12375.00
790.2560, 12395.00
791.3980, 12598.00
792.5390, 12735.00
793.6810, 12806.00
794.8220, 12906.00
795.9630, 13009.00
797.1030, 13078.24
798.2440, 13037.00
799.3840, 13200.00
800.5240, 13329.00
801.6650, 13329.00
802.8040, 13206.00
803.9440, 13256.00
805.0840, 13333.00
806.2230, 13257.00
807.3630, 13332.00
808.5020, 13298.00
809.6410, 13284.00
810.7790, 13327.00
811.9180, 13299.00
813.0570, 13199.00
814.1950, 13195.00
815.3330, 13107.00
816.4710, 13140.00
817.6090, 13111.00
818.7470, 13025.00
819.8840, 12904.00
821.0220, 13021.00
822.1590, 12967.00
823.2960, 13118.00
824.4330, 13086.00
825.5690, 13060.00
826.7060, 12999.00
827.8420, 13041.15
828.9790, 13005.00
830.1150, 13119.00
831.2510, 13158.00
832.3860, 13193.00
833.5220, 13154.00
834.6570, 13188.00
835.7930, 13095.00
836.9280, 13124.00
838.0630, 13309.00
839.1980, 13154.00
840.3320, 13246.00
841.4670, 13168.00
842.6010, 13369.00
843.7350, 13377.00
844.8690, 13231.00
846.0030, 13296.00
847.1370, 13281.00
848.2700, 13409.00
849.4040, 13309.00
850.5370, 13373.00
851.6700, 13394.00
852.8030, 13333.00
853.9360, 13470.00
855.0680, 13476.00
856.2000, 13447.00
857.3330, 13561.00
858.4650, 13658.00
859.5970, 13733.00
860.7290, 13639.00
861.8600, 13754.00
862.9920, 13629.00
864.1230, 13505.00
865.2540, 13639.00
866.3850, 13625.00
867.5160, 13534.00
868.6460, 13508.00
869.7770, 13608.00
870.9070, 13478.00
872.0370, 13656.00
873.1670, 13650.00
874.2970, 13594.00
875.4270, 13623.00
876.5570, 13687.00
877.6860, 13680.00
878.8150, 13716.40
879.9440, 13721.00
881.0730, 13748.00
882.2020, 13801.00
883.3300, 13809.00
884.4590, 13701.00
885.5870, 13786.00
886.7150, 13757.00
887.8430, 13772.00
888.9710, 13906.00
890.0990, 13819.00
891.2260, 13880.00
892.3530, 13959.00
893.4810, 13727.00
894.6080, 13976.00
895.7340, 13901.00
896.8610, 13930.00
897.9880, 14100.00
899.1140, 14070.00
900.2400, 14062.00
901.3660, 14017.00
902.4920, 14110.00
903.6180, 14159.00
904.7430, 14076.00
905.8690, 14223.00
906.9940, 14091.00
908.1190, 14242.00
909.2440, 14332.00
910.3690, 14290.00
911.4930, 14254.00
912.6180, 14388.00
913.7420, 14312.00
914.8660, 14316.00
915.9900, 14440.00
917.1140, 14437.00
918.2380, 14524.00
919.3610, 14668.00
920.4850, 14685.00
921.6080, 14577.00
922.7310, 14415.00
923.8540, 14609.00
924.9760, 14639.00
926.0990, 14728.00
927.2210, 14674.00
928.3440, 14795.00
929.4660, 14858.00
930.5880, 14765.00
931.7090, 14844.00
932.8310, 14940.00
933.9520, 15003.00
935.0740, 15084.82
936.1950, 15222.00
937.3160, 15162.00
938.4360, 15329.00
939.5570, 15226.00
940.6780, 15374.00
941.7980, 15236.00
942.9180, 15526.00
944.0380, 15429.00
945.1580, 15320.00
946.2780, 15479.00
947.3970, 15583.00
948.5170, 15622.00
949.6360, 15800.00
950.7550, 15944.00
951.8740, 16028.00
952.9930, 16296.00
954.1110, 16416.82
955.2300, 16442.00
956.3480, 16817.00
957.4660, 17007.00
958.5840, 17322.00
959.7020, 17739.00
960.8190, 18427.00
961.9370, 19026.00
963.0540, 19937.00
964.1710, 21179.00
965.2880, 22644.00
966.4050, 24552.00
967.5220, 26501.00
968.6380, 28879.00
969.7550, 31199.00
970.8710, 33810.00
971.9870, 35904.00
973.1030, 37253.00
974.2190, 38562.00
975.3340, 39297.00
976.4500, 39942.00
977.5650, 40466.00
978.6800, 42135.00
979.7950, 43268.00
980.9100, 45153.00
982.0250, 47309.00
983.1390, 49988.00
984.2530, 52928.00
985.3680, 55241.00
986.4820, 57055.00
987.5950, 58693.00
988.7090, 58851.00
989.8230, 59007.00
990.9360, 58086.00
992.0490, 56439.00
993.1620, 55440.00
994.2750, 53397.00
995.3880, 51533.00
996.5010, 49307.00
997.6130, 47331.00
998.7250, 45557.00
999.8370, 43536.00
1000.949, 41887.00
1002.061, 40017.00
1003.173, 38366.00
1004.284, 37232.00
1005.396, 35571.00
1006.507, 34492.00
1007.618, 33432.00
1008.729, 32645.00
1009.839, 31736.00
1010.950, 31002.00
1012.060, 30331.00
1013.171, 29368.00
1014.281, 28196.00
1015.391, 27521.00
1016.500, 26662.00
1017.610, 25788.00
1018.719, 25200.00
1019.829, 24426.00
1020.938, 24010.00
1022.047, 23384.00
1023.156, 23223.00
1024.264, 22670.00
1025.373, 22624.00
1026.481, 22633.00
1027.589, 22626.00
1028.697, 22550.66
1029.805, 22284.00
1030.913, 22447.00
1032.020, 22428.00
1033.128, 22474.00
1034.235, 22677.00
1035.342, 22742.00
1036.449, 22833.00
1037.556, 22911.00
1038.663, 23373.00
1039.769, 23418.00
1040.875, 23702.00
1041.981, 23727.00
1043.087, 23894.00
1044.193, 24211.00
1045.299, 24054.00
1046.404, 24233.00
1047.510, 24110.00
1048.615, 24247.00
1049.720, 24210.00
1050.825, 24059.00
1051.930, 23801.00
1053.034, 23781.00
1054.139, 23748.00
1055.243, 23537.00
1056.347, 23549.00
1057.451, 23624.00
1058.555, 23653.00
1059.658, 23601.00
1060.762, 23735.00
1061.865, 23667.00
1062.968, 24106.00
1064.071, 24375.00
1065.174, 24415.00
1066.277, 25041.00
1067.380, 25120.00
1068.482, 25665.00
1069.584, 25944.00
1070.686, 26459.00
1071.788, 26960.00
1072.890, 27455.00
1073.992, 27987.43
1075.093, 28615.00
1076.194, 29117.00
1077.295, 29815.00
1078.396, 30545.00
1079.497, 31329.00
1080.598, 31998.00
1081.698, 32727.00
1082.799, 33054.00
1083.899, 33852.00
1084.999, 34162.00
1086.099, 34640.00
1087.199, 34715.00
1088.298, 35020.00
1089.398, 34799.00
1090.497, 34886.00
1091.596, 34576.00
1092.695, 34386.00
1093.794, 33657.00
1094.892, 33002.00
1095.991, 32245.00
1097.089, 31480.00
1098.187, 30848.00
1099.285, 30099.00
1100.383, 29494.84
1101.481, 28893.33
1102.579, 28329.00
1103.676, 27843.00
1104.773, 27341.00
1105.870, 27005.83
1106.967, 26783.00
1108.064, 26673.00
1109.161, 26676.00
1110.257, 26752.00
1111.353, 26584.00
1112.449, 26602.00
1113.545, 26570.00
1114.641, 26651.00
1115.737, 26695.00
1116.832, 26591.00
1117.928, 26699.00
1119.023, 26584.00
1120.118, 26450.00
1121.213, 26156.00
1122.308, 26345.00
1123.402, 26168.00
1124.497, 26171.00
1125.591, 25945.00
1126.685, 25814.41
1127.779, 25614.99
1128.873, 25426.00
1129.967, 25187.00
1131.060, 24893.00
1132.153, 24773.00
1133.247, 24608.10
1134.340, 24710.00
1135.433, 24466.00
1136.525, 24451.00
1137.618, 24522.00
1138.710, 24467.00
1139.802, 24314.00
1140.895, 24290.00
1141.987, 24369.00
1143.078, 24295.00
1144.170, 24383.00
1145.261, 24425.00
1146.353, 24200.00
1147.444, 24220.00
1148.535, 24351.00
1149.626, 24416.00
1150.716, 24146.00
1151.807, 24359.00
1152.897, 24272.00
1153.988, 24309.00
1155.078, 24434.00
1156.168, 24229.00
1157.257, 24362.00
1158.347, 24485.00
1159.436, 24153.00
1160.526, 24250.00
1161.615, 24347.00
1162.704, 24293.00
1163.793, 24128.00
1164.881, 23963.00
1165.970, 24042.00
1167.058, 23865.15
1168.147, 23975.00
1169.235, 23705.00
1170.323, 23726.73
1171.410, 23690.00
1172.498, 23594.00
1173.585, 23595.54
1174.673, 23855.00
1175.760, 23497.00
1176.847, 23466.00
1177.934, 23356.00
1179.020, 23073.00
1180.107, 23306.00
1181.193, 23076.00
1182.279, 23064.00
1183.365, 22874.00
1184.451, 22783.00
1185.537, 22722.00
1186.623, 22693.00
1187.708, 22680.00
1188.793, 22614.00
1189.878, 22560.00
1190.963, 22382.00
1192.048, 22492.00
1193.133, 22288.00
1194.217, 22318.00
1195.302, 22251.00
1196.386, 22259.00
1197.470, 22226.78
1198.554, 22082.00
1199.638, 22138.00
1200.721, 22056.00
1201.805, 21956.00
1202.888, 22178.00
1203.971, 22093.00
1205.054, 22034.00
1206.137, 22015.00
1207.219, 21931.43
1208.302, 21992.00
1209.384, 21980.94
1210.466, 21988.00
1211.548, 22058.00
1212.630, 22053.00
1213.712, 22125.38
1214.794, 22213.00
1215.875, 22193.00
1216.956, 22124.00
1218.037, 22201.00
1219.118, 22044.00
1220.199, 22160.00
1221.280, 22148.00
1222.360, 22156.00
1223.441, 22272.00
1224.521, 22229.00
1225.601, 22323.00
1226.681, 22427.00
1227.760, 22378.00
1228.840, 22309.00
1229.919, 22313.00
1230.999, 22245.00
1232.078, 22213.00
1233.157, 22390.00
1234.236, 22396.00
1235.314, 22465.00
1236.393, 22410.00
1237.471, 22491.00
1238.549, 22373.00
1239.627, 22670.00
1240.705, 22436.00
1241.783, 22549.00
1242.860, 22383.00
1243.938, 22422.00
1245.015, 22727.00
1246.092, 22381.00
1247.169, 22540.00
1248.246, 22580.00
1249.323, 22507.00
1250.399, 22477.00
1251.475, 22611.00
1252.552, 22741.00
1253.628, 22744.00
1254.703, 22914.00
1255.779, 22779.00
1256.855, 22898.00
1257.930, 22880.00
1259.005, 22954.00
1260.080, 22777.00
1261.155, 22930.00
1262.230, 23073.00
1263.305, 22841.00
1264.379, 23033.00
1265.454, 23052.00
1266.528, 23296.00
1267.602, 23305.00
1268.676, 23109.00
1269.750, 23361.00
1270.823, 23385.00
1271.897, 23350.00
1272.970, 23408.00
1274.043, 23494.00
1275.116, 23817.00
1276.189, 23895.00
1277.261, 24064.00
1278.334, 23955.00
1279.406, 23498.00
1280.478, 23716.00
1281.550, 23558.00
1282.622, 23451.00
1283.694, 23636.00
1284.766, 23642.00
1285.837, 23535.00
1286.908, 23664.00
1287.979, 23709.00
1289.050, 23694.00
1290.121, 23693.00
1291.192, 23806.00
1292.262, 24019.00
1293.333, 23946.00
1294.403, 24063.00
1295.473, 23950.00
1296.543, 24118.00
1297.613, 24029.00
1298.682, 24160.00
1299.752, 24232.00
1300.821, 24192.00
1301.890, 24451.00
1302.959, 24218.00
1304.028, 24282.00
1305.096, 24260.00
1306.165, 24542.00
1307.233, 24649.00
1308.301, 24656.00
1309.370, 24702.00
1310.437, 24666.00
1311.505, 24608.00
1312.573, 24905.00
1313.640, 24883.00
1314.708, 24853.00
1315.775, 24930.00
1316.842, 24790.00
1317.908, 25016.00
1318.975, 25078.00
1320.042, 24977.00
1321.108, 25161.00
1322.174, 25128.00
1323.240, 25254.00
1324.306, 25373.00
1325.372, 25443.00
1326.438, 25406.00
1327.503, 25516.00
1328.568, 25423.00
1329.634, 25451.00
1330.699, 25601.00
1331.763, 25616.00
1332.828, 25646.00
1333.893, 25827.00
1334.957, 25754.00
1336.021, 25801.00
1337.085, 26052.00
1338.149, 26074.00
1339.213, 26039.00
1340.277, 26164.00
1341.340, 26127.00
1342.404, 26263.00
1343.467, 26325.00
1344.530, 26299.39
1345.593, 26363.00
1346.655, 26223.00
1347.718, 26400.00
1348.780, 26282.00
1349.843, 26467.00
1350.905, 26643.00
1351.967, 26609.00
1353.028, 26636.00
1354.090, 26424.00
1355.152, 26616.00
1356.213, 26515.00
1357.274, 26382.00
1358.335, 26639.00
1359.396, 26530.00
1360.457, 26840.00
1361.517, 26712.00
1362.578, 26910.00
1363.638, 26779.00
1364.698, 26750.00
1365.758, 26692.00
1366.818, 26735.00
1367.878, 26811.00
1368.937, 26805.00
1369.997, 27059.00
1371.056, 27044.00
1372.115, 27184.00
1373.174, 27182.00
1374.232, 27225.00
1375.291, 27151.00
1376.350, 27382.00
1377.408, 27612.00
1378.466, 28078.00
1379.524, 28312.00
1380.582, 28185.00
1381.640, 28354.00
1382.697, 27952.00
1383.754, 27532.00
1384.812, 27250.00
1385.869, 27241.00
1386.926, 27310.00
1387.983, 27253.00
1389.039, 27335.00
1390.096, 27332.69
1391.152, 27217.00
1392.208, 27282.00
1393.264, 27262.00
1394.320, 27065.00
1395.376, 27264.00
1396.431, 27404.00
1397.487, 27283.00
1398.542, 27304.00
1399.597, 27520.00
1400.652, 27249.00
1401.707, 27371.00
1402.762, 27498.00
1403.816, 27572.00
1404.871, 27355.00
1405.925, 27382.00
1406.979, 27477.00
1408.033, 27324.00
1409.086, 27412.00
1410.140, 27407.00
1411.194, 27314.00
1412.247, 27694.00
1413.300, 27553.00
1414.353, 27488.00
1415.406, 27717.00
1416.458, 27724.00
1417.511, 27745.00
1418.563, 27571.00
1419.616, 27656.00
1420.668, 27848.00
1421.720, 27828.00
1422.772, 27922.00
1423.823, 27770.00
1424.875, 27960.00
1425.926, 27746.00
1426.977, 28015.00
1428.028, 28031.00
1429.079, 27915.00
1430.130, 27998.00
1431.180, 27981.00
1432.231, 28151.00
1433.281, 28140.00
1434.331, 28108.00
1435.381, 28127.00
1436.431, 28437.00
1437.481, 28586.00
1438.530, 28530.00
1439.580, 28859.00
1440.629, 28763.00
1441.678, 28728.00
1442.727, 28955.00
1443.776, 28769.00
1444.824, 28891.00
1445.873, 28864.00
1446.921, 28961.00
1447.969, 28978.00
1449.017, 28957.00
1450.065, 29008.00
1451.113, 29225.00
1452.160, 29114.00
1453.208, 29254.00
1454.255, 29250.00
1455.302, 29299.00
1456.349, 29405.00
1457.396, 29540.00
1458.443, 29250.00
1459.489, 29288.00
1460.535, 29351.00
1461.582, 29499.00
1462.628, 29401.00
1463.674, 29402.00
1464.719, 29299.00
1465.765, 29531.00
1466.810, 29401.00
1467.856, 29599.00
1468.901, 29307.00
1469.946, 29243.00
1470.991, 29450.00
1472.035, 29347.00
1473.080, 29416.00
1474.124, 29645.00
1475.169, 29369.00
1476.213, 29555.00
1477.257, 29837.00
1478.300, 29608.00
1479.344, 29856.00
1480.388, 30105.00
1481.431, 29762.00
1482.474, 29842.00
1483.517, 29647.00
1484.560, 29757.00
1485.603, 29750.00
1486.645, 29820.00
1487.688, 29704.00
1488.730, 30037.00
1489.772, 30048.00
1490.814, 29936.00
1491.856, 29785.00
1492.898, 29995.00
1493.939, 29902.00
1494.981, 30037.00
1496.022, 30133.00
1497.063, 29989.00
1498.104, 30212.00
1499.145, 30146.00
1500.186, 30289.00
1501.226, 30267.00
1502.266, 30335.83
1503.307, 30412.00
1504.347, 30485.00
1505.387, 30476.00
1506.426, 30572.00
1507.466, 30480.00
1508.505, 30643.00
1509.545, 30712.00
1510.584, 30646.00
1511.623, 30632.00
1512.662, 30687.97
1513.700, 30793.00
1514.739, 30734.00
1515.777, 30874.00
1516.815, 30808.00
1517.854, 30870.00
1518.892, 30959.00
1519.929, 31025.00
1520.967, 31200.00
1522.004, 31054.00
1523.042, 30977.00
1524.079, 31097.00
1525.116, 31228.00
1526.153, 31284.00
1527.190, 31293.00
1528.226, 31297.00
1529.263, 31207.00
1530.299, 31301.42
1531.335, 31076.00
1532.371, 31405.00
1533.407, 31661.00
1534.443, 31653.00
1535.478, 31643.00
1536.514, 31635.00
1537.549, 31628.00
1538.584, 31669.00
1539.619, 31743.00
1540.654, 31806.00
1541.689, 32051.00
1542.723, 31834.00
1543.757, 32003.00
1544.792, 31853.00
1545.826, 31824.00
1546.860, 31897.12
1547.893, 32153.00
1548.927, 31998.00
1549.960, 32252.00
1550.994, 32366.00
1552.027, 32263.00
1553.060, 32523.00
1554.093, 32417.00
1555.126, 32365.00
1556.158, 32532.00
1557.191, 32649.00
1558.223, 32436.00
1559.255, 32501.00
1560.287, 32728.00
1561.319, 32763.00
1562.350, 32606.00
##END=



