##NAMES=Hauyne
##RRUFFID=R070121
##IDEAL CHEMISTRY=Na_3_Ca(Si_3_Al_3_)O_12_(S^6+^O_4_)
##LOCALITY=Hesse, Germany
##OWNER=RRUFF
##SOURCE=Michael Scott
##DESCRIPTION=Blue cut gemstones
##STATUS=The identification of this mineral has been confirmed by single-crystal X-ray diffraction.
##URL=rruff.info/R070121
##PIN_ID=M01514
##ORIENTATION=Laser parallel to a* (1 0 0). Fiducial mark perpendicular to laser is parallel to c [0 0 1]
224.7060, 9648.000
225.9260, 9751.000
227.1470, 9569.000
228.3670, 9533.000
229.5860, 9565.000
230.8060, 9748.000
232.0260, 9563.000
233.2450, 9719.000
234.4640, 9648.000
235.6830, 9818.000
236.9020, 9740.000
238.1200, 9768.000
239.3390, 9841.000
240.5570, 9883.000
241.7750, 10073.00
242.9930, 10214.00
244.2110, 10387.00
245.4290, 10543.00
246.6460, 10654.00
247.8630, 11030.00
249.0810, 11144.00
250.2980, 11349.00
251.5140, 11474.00
252.7310, 11707.00
253.9470, 11710.00
255.1640, 11876.00
256.3800, 11861.00
257.5960, 11734.00
258.8120, 11820.00
260.0270, 11559.00
261.2430, 11297.00
262.4580, 10948.00
263.6730, 10651.00
264.8880, 10316.00
266.1030, 10072.00
267.3170, 9808.000
268.5320, 9615.000
269.7460, 9453.000
270.9600, 9300.000
272.1740, 9168.000
273.3880, 8820.000
274.6010, 8833.000
275.8150, 8667.000
277.0280, 8508.000
278.2410, 8533.000
279.4540, 8469.000
280.6670, 8377.000
281.8790, 8193.000
283.0920, 8204.000
284.3040, 8185.000
285.5160, 8219.000
286.7280, 8022.000
287.9400, 8018.000
289.1510, 7865.000
290.3630, 7861.000
291.5740, 7660.000
292.7850, 7633.000
293.9960, 7561.000
295.2070, 7565.000
296.4170, 7447.000
297.6280, 7320.000
298.8380, 7230.000
300.0480, 7261.000
301.2580, 7244.000
302.4680, 7179.000
303.6770, 7111.000
304.8870, 7016.000
306.0960, 6975.235
307.3050, 6927.564
308.5140, 6895.000
309.7230, 6871.000
310.9310, 6868.000
312.1400, 6852.000
313.3480, 6840.000
314.5560, 6804.000
315.7640, 6870.000
316.9720, 6815.000
318.1790, 6861.000
319.3870, 6666.000
320.5940, 6831.000
321.8010, 6712.000
323.0080, 6691.000
324.2150, 6720.000
325.4210, 6729.000
326.6280, 6614.000
327.8340, 6529.000
329.0400, 6624.000
330.2460, 6538.000
331.4510, 6559.000
332.6570, 6487.000
333.8620, 6588.000
335.0680, 6425.000
336.2730, 6580.000
337.4780, 6549.000
338.6820, 6446.000
339.8870, 6550.000
341.0910, 6696.000
342.2950, 6652.000
343.5000, 6763.000
344.7030, 6765.000
345.9070, 6858.000
347.1110, 6860.000
348.3140, 6988.000
349.5170, 7102.000
350.7200, 7129.000
351.9230, 7097.000
353.1260, 7320.000
354.3290, 7208.000
355.5310, 7365.000
356.7330, 7389.000
357.9350, 7403.000
359.1370, 7510.000
360.3390, 7514.000
361.5400, 7457.000
362.7420, 7541.000
363.9430, 7487.000
365.1440, 7625.000
366.3450, 7681.000
367.5460, 7637.000
368.7460, 7759.000
369.9470, 7722.000
371.1470, 7786.000
372.3470, 7803.000
373.5470, 7851.000
374.7460, 7924.053
375.9460, 7917.000
377.1450, 8035.000
378.3450, 8102.000
379.5440, 8069.000
380.7430, 7975.000
381.9410, 8145.000
383.1400, 8127.000
384.3380, 8113.000
385.5370, 8273.000
386.7350, 8235.000
387.9320, 8180.000
389.1300, 8116.000
390.3280, 8358.000
391.5250, 8301.000
392.7220, 8369.000
393.9190, 8268.000
395.1160, 8432.000
396.3130, 8511.000
397.5100, 8500.000
398.7060, 8631.000
399.9020, 8654.000
401.0980, 8773.000
402.2940, 8773.000
403.4900, 9030.000
404.6860, 9179.000
405.8810, 9321.000
407.0760, 9653.000
408.2710, 9818.000
409.4660, 9923.000
410.6610, 10203.00
411.8550, 10634.00
413.0500, 10842.00
414.2440, 11143.00
415.4380, 11451.00
416.6320, 11720.00
417.8260, 12421.00
419.0190, 12876.00
420.2130, 13318.00
421.4060, 13987.00
422.5990, 14546.00
423.7920, 15130.00
424.9850, 15997.00
426.1770, 16791.00
427.3700, 17808.00
428.5620, 18536.00
429.7540, 19679.00
430.9460, 20861.00
432.1380, 21606.00
433.3290, 22987.00
434.5210, 23917.00
435.7120, 24941.00
436.9030, 25322.00
438.0940, 26281.00
439.2850, 26455.00
440.4750, 26810.00
441.6660, 27022.00
442.8560, 26913.00
444.0460, 26877.00
445.2360, 26817.00
446.4260, 26100.00
447.6160, 25626.00
448.8050, 24911.00
449.9940, 24645.00
451.1830, 23849.00
452.3720, 23161.00
453.5610, 22590.00
454.7500, 21686.00
455.9380, 21330.00
457.1260, 20560.00
458.3150, 19826.00
459.5020, 19093.00
460.6900, 18439.00
461.8780, 17711.00
463.0650, 16979.00
464.2530, 16427.00
465.4400, 16066.00
466.6270, 15576.00
467.8130, 15016.00
469.0000, 14396.00
470.1870, 13932.00
471.3730, 13717.00
472.5590, 13263.54
473.7450, 13003.00
474.9310, 12669.00
476.1160, 12473.00
477.3020, 12231.00
478.4870, 12025.00
479.6720, 11854.00
480.8570, 11565.00
482.0420, 11388.00
483.2270, 11332.00
484.4110, 11147.00
485.5960, 11133.00
486.7800, 10934.00
487.9640, 10792.00
489.1480, 10668.00
490.3310, 10523.00
491.5150, 10441.57
492.6980, 10367.00
493.8810, 10287.00
495.0640, 10210.00
496.2470, 10135.00
497.4300, 10099.38
498.6120, 10039.00
499.7950, 10028.00
500.9770, 10011.20
502.1590, 10009.00
503.3410, 10032.00
504.5220, 10074.00
505.7040, 10138.00
506.8850, 10163.09
508.0660, 10280.00
509.2470, 10255.00
510.4280, 10358.00
511.6090, 10446.00
512.7890, 10562.00
513.9700, 10635.00
515.1500, 10788.00
516.3300, 11021.00
517.5100, 11226.00
518.6900, 11593.00
519.8690, 11875.00
521.0490, 12258.00
522.2280, 12888.00
523.4070, 13468.00
524.5860, 14216.00
525.7640, 15161.00
526.9430, 16238.00
528.1210, 17604.00
529.3000, 19209.00
530.4780, 21346.00
531.6560, 23740.00
532.8330, 26913.00
534.0110, 30588.00
535.1880, 34733.00
536.3650, 39040.00
537.5430, 44033.00
538.7190, 49218.00
539.8960, 54549.00
541.0730, 59046.00
542.2490, 62549.00
543.4250, 64420.00
544.6020, 64540.00
545.7780, 62772.00
546.9530, 59154.00
548.1290, 54003.00
549.3040, 47222.00
550.4800, 40332.00
551.6550, 33573.00
552.8300, 28257.00
554.0040, 24115.00
555.1790, 20757.00
556.3540, 18412.00
557.5280, 16742.00
558.7020, 15540.00
559.8760, 14779.00
561.0500, 14392.00
562.2230, 13739.00
563.3970, 13502.00
564.5700, 13373.00
565.7430, 13174.00
566.9160, 13173.23
568.0890, 13016.00
569.2620, 13338.00
570.4340, 13473.00
571.6070, 13808.00
572.7790, 13905.00
573.9510, 14258.00
575.1230, 14483.00
576.2940, 14871.00
577.4660, 15139.00
578.6370, 15243.00
579.8080, 15383.03
580.9790, 15299.00
582.1500, 15341.00
583.3210, 15094.00
584.4910, 14861.00
585.6620, 14732.00
586.8320, 14583.00
588.0020, 14197.00
589.1720, 13997.00
590.3410, 13629.00
591.5110, 13350.00
592.6800, 13270.00
593.8500, 12845.00
595.0190, 12791.00
596.1880, 12965.00
597.3560, 12737.00
598.5250, 12714.00
599.6930, 12871.00
600.8620, 12988.00
602.0300, 13283.00
603.1970, 13466.00
604.3650, 13726.00
605.5330, 14133.00
606.7000, 14273.00
607.8680, 14598.00
609.0350, 14759.00
610.2020, 14673.00
611.3680, 14564.00
612.5350, 14700.00
613.7010, 14421.00
614.8680, 14388.00
616.0340, 14258.00
617.2000, 14091.00
618.3660, 13955.00
619.5310, 13776.88
620.6970, 13624.85
621.8620, 13413.00
623.0270, 13275.00
624.1920, 13090.00
625.3570, 12846.00
626.5220, 12591.00
627.6860, 12423.00
628.8500, 12295.00
630.0140, 12041.00
631.1780, 11748.00
632.3420, 11658.00
633.5060, 11476.00
634.6700, 11526.00
635.8330, 11260.00
636.9960, 11389.00
638.1590, 11521.00
639.3220, 11413.00
640.4850, 11422.00
641.6470, 11413.00
642.8100, 11327.00
643.9720, 11369.00
645.1340, 11338.00
646.2960, 11202.00
647.4570, 11199.00
648.6190, 11033.00
649.7800, 10945.00
650.9420, 10777.00
652.1030, 10810.00
653.2640, 10543.00
654.4240, 10548.00
655.5850, 10527.00
656.7450, 10262.00
657.9060, 10201.00
659.0660, 10152.00
660.2260, 10129.00
661.3850, 10147.00
662.5450, 10055.00
663.7040, 9944.000
664.8640, 9822.000
666.0230, 9813.951
667.1820, 9888.000
668.3410, 9807.000
669.4990, 9922.000
670.6580, 9937.000
671.8160, 10048.00
672.9740, 9996.000
674.1320, 9939.000
675.2900, 9818.000
676.4480, 9948.000
677.6050, 9780.000
678.7630, 9886.000
679.9200, 9935.000
681.0770, 9924.000
682.2340, 9959.000
683.3900, 9943.727
684.5470, 9926.000
685.7030, 9915.000
686.8590, 9913.000
688.0150, 9919.000
689.1710, 10005.00
690.3270, 9976.000
691.4830, 9912.000
692.6380, 10078.00
693.7930, 10041.00
694.9480, 10011.00
696.1030, 9896.000
697.2580, 9889.000
698.4130, 10005.00
699.5670, 10049.00
700.7210, 10045.00
701.8750, 10033.00
703.0290, 10021.00
704.1830, 10035.00
705.3370, 10051.00
706.4900, 10119.00
707.6430, 10130.00
708.7970, 10257.00
709.9490, 10226.00
711.1020, 10292.00
712.2550, 10338.00
713.4070, 10224.00
714.5600, 10336.00
715.7120, 10437.00
716.8640, 10290.00
718.0160, 10448.00
719.1670, 10489.00
720.3190, 10447.00
721.4700, 10561.00
722.6210, 10647.00
723.7720, 10648.00
724.9230, 10655.00
726.0740, 10703.00
727.2250, 10594.00
728.3750, 10722.00
729.5250, 10620.00
730.6750, 10655.00
731.8250, 10686.00
732.9750, 10581.00
734.1240, 10699.00
735.2740, 10590.00
736.4230, 10768.00
737.5720, 10787.00
738.7210, 10544.00
739.8700, 10653.00
741.0190, 10783.00
742.1670, 10770.00
743.3150, 10815.00
744.4630, 10832.00
745.6110, 10754.00
746.7590, 10938.00
747.9070, 10726.00
749.0540, 10770.00
750.2020, 10889.00
751.3490, 10768.00
752.4960, 10914.00
753.6430, 11049.00
754.7890, 10839.00
755.9360, 10912.00
757.0820, 10845.00
758.2280, 10874.00
759.3740, 11005.00
760.5200, 11049.00
761.6660, 11109.00
762.8120, 10958.00
763.9570, 11062.00
765.1020, 11056.00
766.2470, 11123.00
767.3920, 11153.00
768.5370, 11134.00
769.6810, 11162.00
770.8260, 11283.00
771.9700, 11361.00
773.1140, 11301.00
774.2580, 11412.00
775.4020, 11404.00
776.5460, 11512.00
777.6890, 11551.00
778.8320, 11622.00
779.9750, 11627.00
781.1180, 11755.00
782.2610, 11809.00
783.4040, 11889.00
784.5460, 11962.00
785.6890, 11946.00
786.8310, 12191.00
787.9730, 12190.00
789.1150, 12296.00
790.2560, 12461.00
791.3980, 12476.00
792.5390, 12533.00
793.6810, 12688.00
794.8220, 12846.00
795.9630, 12986.00
797.1030, 12942.00
798.2440, 13055.00
799.3840, 13139.00
800.5240, 13294.00
801.6650, 13143.00
802.8040, 13139.00
803.9440, 13263.00
805.0840, 13292.00
806.2230, 13262.00
807.3630, 13283.00
808.5020, 13270.90
809.6410, 13162.00
810.7790, 13223.00
811.9180, 13094.00
813.0570, 13003.00
814.1950, 13021.00
815.3330, 12930.36
816.4710, 12970.00
817.6090, 12883.00
818.7470, 13001.00
819.8840, 13050.00
821.0220, 13064.00
822.1590, 13003.00
823.2960, 12992.00
824.4330, 12893.00
825.5690, 12998.00
826.7060, 13014.00
827.8420, 12980.00
828.9790, 13045.00
830.1150, 13022.00
831.2510, 13081.00
832.3860, 13065.00
833.5220, 13021.00
834.6570, 13085.00
835.7930, 13007.00
836.9280, 13059.00
838.0630, 13001.00
839.1980, 13162.00
840.3320, 12994.00
841.4670, 13091.00
842.6010, 13076.00
843.7350, 13044.80
844.8690, 13220.00
846.0030, 13055.00
847.1370, 13170.00
848.2700, 13209.00
849.4040, 13081.00
850.5370, 13249.00
851.6700, 13104.00
852.8030, 13222.00
853.9360, 13277.00
855.0680, 13368.00
856.2000, 13309.00
857.3330, 13389.54
858.4650, 13572.00
859.5970, 13386.00
860.7290, 13579.00
861.8600, 13430.00
862.9920, 13467.00
864.1230, 13584.00
865.2540, 13329.00
866.3850, 13446.00
867.5160, 13312.00
868.6460, 13363.00
869.7770, 13412.00
870.9070, 13477.00
872.0370, 13330.00
873.1670, 13357.00
874.2970, 13377.00
875.4270, 13488.00
876.5570, 13477.00
877.6860, 13719.00
878.8150, 13344.00
879.9440, 13595.00
881.0730, 13450.00
882.2020, 13511.00
883.3300, 13548.00
884.4590, 13617.00
885.5870, 13443.00
886.7150, 13660.00
887.8430, 13551.00
888.9710, 13625.00
890.0990, 13644.00
891.2260, 13654.75
892.3530, 13776.00
893.4810, 13680.00
894.6080, 13749.00
895.7340, 13632.00
896.8610, 13722.58
897.9880, 13798.00
899.1140, 13834.00
900.2400, 13903.00
901.3660, 13856.00
902.4920, 13948.00
903.6180, 13952.00
904.7430, 13900.00
905.8690, 13992.00
906.9940, 13994.00
908.1190, 14141.00
909.2440, 14005.00
910.3690, 14032.00
911.4930, 14127.00
912.6180, 14324.00
913.7420, 14410.00
914.8660, 14105.00
915.9900, 14293.00
917.1140, 14324.00
918.2380, 14394.00
919.3610, 14539.00
920.4850, 14551.00
921.6080, 14478.00
922.7310, 14550.00
923.8540, 14363.00
924.9760, 14664.00
926.0990, 14503.00
927.2210, 14626.00
928.3440, 14928.00
929.4660, 14797.00
930.5880, 14849.00
931.7090, 14842.00
932.8310, 14734.00
933.9520, 14957.00
935.0740, 15059.00
936.1950, 15084.00
937.3160, 14998.00
938.4360, 15073.00
939.5570, 15089.00
940.6780, 15290.00
941.7980, 15242.00
942.9180, 15288.00
944.0380, 15493.00
945.1580, 15564.00
946.2780, 15651.00
947.3970, 15607.00
948.5170, 15688.00
949.6360, 15835.00
950.7550, 15948.00
951.8740, 16037.00
952.9930, 16199.00
954.1110, 16423.00
955.2300, 16650.00
956.3480, 16905.00
957.4660, 16977.00
958.5840, 17452.00
959.7020, 17744.00
960.8190, 18517.00
961.9370, 19091.00
963.0540, 20153.00
964.1710, 21413.00
965.2880, 23076.00
966.4050, 24570.00
967.5220, 26853.00
968.6380, 29071.00
969.7550, 31351.00
970.8710, 33753.00
971.9870, 35640.00
973.1030, 37159.00
974.2190, 38384.00
975.3340, 39500.00
976.4500, 40016.00
977.5650, 40709.00
978.6800, 41917.00
979.7950, 43195.00
980.9100, 45188.00
982.0250, 47214.00
983.1390, 49823.00
984.2530, 52579.00
985.3680, 54899.00
986.4820, 57076.00
987.5950, 58383.00
988.7090, 58804.00
989.8230, 58707.00
990.9360, 58084.00
992.0490, 56227.00
993.1620, 54624.00
994.2750, 53254.00
995.3880, 51201.00
996.5010, 48977.00
997.6130, 47248.00
998.7250, 45603.00
999.8370, 43526.00
1000.949, 41872.00
1002.061, 39939.00
1003.173, 38359.00
1004.284, 36785.00
1005.396, 35779.00
1006.507, 34612.00
1007.618, 33462.00
1008.729, 32275.00
1009.839, 31683.00
1010.950, 30889.00
1012.060, 29952.00
1013.171, 29123.00
1014.281, 28223.00
1015.391, 27419.00
1016.500, 26506.00
1017.610, 25858.00
1018.719, 24887.00
1019.829, 24508.00
1020.938, 23598.00
1022.047, 23386.00
1023.156, 23215.00
1024.264, 22568.00
1025.373, 22618.00
1026.481, 22469.00
1027.589, 22428.00
1028.697, 22380.00
1029.805, 22333.97
1030.913, 22338.00
1032.020, 22324.00
1033.128, 22484.00
1034.235, 22529.00
1035.342, 22637.00
1036.449, 22736.00
1037.556, 22920.00
1038.663, 22978.00
1039.769, 23173.62
1040.875, 23486.00
1041.981, 23503.00
1043.087, 23821.00
1044.193, 23937.00
1045.299, 23910.00
1046.404, 23984.00
1047.510, 23914.00
1048.615, 24075.00
1049.720, 23998.00
1050.825, 23879.00
1051.930, 23768.00
1053.034, 24880.00
1054.139, 23998.85
1055.243, 24881.00
1056.347, 23090.00
1057.451, 23362.00
1058.555, 23270.00
1059.658, 23368.00
1060.762, 23606.00
1061.865, 23812.00
1062.968, 23973.00
1064.071, 24048.00
1065.174, 24262.00
1066.277, 24624.00
1067.380, 24894.00
1068.482, 25291.00
1069.584, 25858.00
1070.686, 26211.00
1071.788, 26834.00
1072.890, 27389.00
1073.992, 27985.00
1075.093, 28646.00
1076.194, 29247.00
1077.295, 29920.00
1078.396, 30536.00
1079.497, 31293.00
1080.598, 31845.00
1081.698, 32833.00
1082.799, 33530.00
1083.899, 33806.00
1084.999, 34357.00
1086.099, 34743.00
1087.199, 34897.00
1088.298, 34853.00
1089.398, 34850.00
1090.497, 34770.00
1091.596, 34475.00
1092.695, 34319.00
1093.794, 33472.00
1094.892, 32904.00
1095.991, 32067.00
1097.089, 31491.00
1098.187, 30850.00
1099.285, 30073.47
1100.383, 29585.58
1101.481, 28677.00
1102.579, 28446.00
1103.676, 27965.00
1104.773, 27274.00
1105.870, 27132.00
1106.967, 27070.00
1108.064, 26797.00
1109.161, 26650.00
1110.257, 26631.00
1111.353, 26543.00
1112.449, 26424.00
1113.545, 26493.00
1114.641, 26496.00
1115.737, 26540.00
1116.832, 26457.00
1117.928, 26671.00
1119.023, 26588.00
1120.118, 26533.00
1121.213, 26286.00
1122.308, 26283.00
1123.402, 26227.00
1124.497, 25983.59
1125.591, 25689.00
1126.685, 25524.00
1127.779, 25271.00
1128.873, 24962.00
1129.967, 24769.00
1131.060, 24736.00
1132.153, 24635.00
1133.247, 24580.00
1134.340, 24351.00
1135.433, 24228.00
1136.525, 23978.00
1137.618, 24007.00
1138.710, 23903.20
1139.802, 24054.00
1140.895, 23879.00
1141.987, 23956.00
1143.078, 24005.00
1144.170, 23991.00
1145.261, 24031.88
1146.353, 23936.00
1147.444, 24029.00
1148.535, 24042.00
1149.626, 24004.00
1150.716, 24219.00
1151.807, 24112.00
1152.897, 23989.00
1153.988, 24193.00
1155.078, 24048.00
1156.168, 24165.00
1157.257, 24159.00
1158.347, 24038.00
1159.436, 24006.00
1160.526, 24157.00
1161.615, 24014.00
1162.704, 23998.00
1163.793, 24014.00
1164.881, 23869.00
1165.970, 23866.00
1167.058, 23917.00
1168.147, 23901.00
1169.235, 23878.00
1170.323, 23677.00
1171.410, 23622.00
1172.498, 23506.00
1173.585, 23885.00
1174.673, 23490.00
1175.760, 23489.00
1176.847, 23529.00
1177.934, 23179.00
1179.020, 23436.00
1180.107, 23439.00
1181.193, 23292.00
1182.279, 23106.00
1183.365, 22832.00
1184.451, 23029.00
1185.537, 22862.00
1186.623, 22599.00
1187.708, 22775.00
1188.793, 22633.00
1189.878, 22502.00
1190.963, 22339.00
1192.048, 22306.00
1193.133, 22292.00
1194.217, 22383.00
1195.302, 22143.00
1196.386, 22281.00
1197.470, 22142.00
1198.554, 22296.00
1199.638, 22293.00
1200.721, 22278.00
1201.805, 22051.00
1202.888, 22091.00
1203.971, 21941.00
1205.054, 22066.00
1206.137, 22065.78
1207.219, 22009.00
1208.302, 22160.00
1209.384, 22134.00
1210.466, 22131.00
1211.548, 22299.00
1212.630, 22208.00
1213.712, 22063.00
1214.794, 22166.00
1215.875, 22252.00
1216.956, 22159.00
1218.037, 22255.71
1219.118, 22378.00
1220.199, 22287.00
1221.280, 22188.00
1222.360, 22148.00
1223.441, 22118.54
1224.521, 22138.00
1225.601, 22185.00
1226.681, 22220.00
1227.760, 22405.00
1228.840, 22365.00
1229.919, 22354.00
1230.999, 22306.00
1232.078, 22593.00
1233.157, 22277.00
1234.236, 22347.00
1235.314, 22614.00
1236.393, 22597.00
1237.471, 22444.00
1238.549, 22479.00
1239.627, 22514.00
1240.705, 22326.00
1241.783, 22599.00
1242.860, 22620.00
1243.938, 22648.00
1245.015, 22543.00
1246.092, 22700.00
1247.169, 22609.00
1248.246, 22758.00
1249.323, 22674.00
1250.399, 22774.00
1251.475, 22813.00
1252.552, 22913.00
1253.628, 22773.00
1254.703, 22816.00
1255.779, 22858.00
1256.855, 22868.00
1257.930, 22909.19
1259.005, 22940.70
1260.080, 22953.00
1261.155, 23019.00
1262.230, 23014.00
1263.305, 23067.00
1264.379, 23096.00
1265.454, 23058.00
1266.528, 23127.00
1267.602, 23371.00
1268.676, 23132.00
1269.750, 23213.00
1270.823, 23541.00
1271.897, 23461.00
1272.970, 23463.00
1274.043, 23664.00
1275.116, 23782.00
1276.189, 24001.00
1277.261, 24015.00
1278.334, 23996.00
1279.406, 23983.78
1280.478, 23765.00
1281.550, 23783.00
1282.622, 23555.00
1283.694, 23425.00
1284.766, 23605.00
1285.837, 23653.00
1286.908, 23736.00
1287.979, 23857.00
1289.050, 23744.00
1290.121, 23834.00
1291.192, 23817.00
1292.262, 23977.00
1293.333, 24025.00
1294.403, 24035.00
1295.473, 24118.03
1296.543, 24097.00
1297.613, 24183.00
1298.682, 24206.00
1299.752, 24222.00
1300.821, 24211.00
1301.890, 24158.00
1302.959, 24159.00
1304.028, 24322.00
1305.096, 24253.00
1306.165, 24316.00
1307.233, 24555.00
1308.301, 24517.00
1309.370, 24603.00
1310.437, 24728.00
1311.505, 24662.00
1312.573, 24833.00
1313.640, 24905.00
1314.708, 24799.00
1315.775, 24797.00
1316.842, 24931.00
1317.908, 25017.00
1318.975, 25087.00
1320.042, 25147.08
1321.108, 25205.29
1322.174, 25190.00
1323.240, 25332.00
1324.306, 25305.00
1325.372, 25429.00
1326.438, 25396.00
1327.503, 25535.00
1328.568, 25721.00
1329.634, 25654.00
1330.699, 25730.00
1331.763, 25657.00
1332.828, 25932.00
1333.893, 25826.00
1334.957, 25822.00
1336.021, 26055.00
1337.085, 25830.00
1338.149, 26144.00
1339.213, 26017.00
1340.277, 26160.00
1341.340, 26460.00
1342.404, 26344.00
1343.467, 26353.00
1344.530, 26311.00
1345.593, 26421.00
1346.655, 26419.00
1347.718, 26301.00
1348.780, 26550.00
1349.843, 26608.00
1350.905, 26584.00
1351.967, 26795.00
1353.028, 26846.00
1354.090, 26811.00
1355.152, 26713.00
1356.213, 26801.00
1357.274, 26793.00
1358.335, 26657.00
1359.396, 26752.00
1360.457, 26752.82
1361.517, 26937.00
1362.578, 26881.00
1363.638, 26913.00
1364.698, 26988.00
1365.758, 26891.00
1366.818, 26837.00
1367.878, 26853.00
1368.937, 26940.00
1369.997, 26962.00
1371.056, 27009.00
1372.115, 27258.00
1373.174, 27236.00
1374.232, 27384.00
1375.291, 27437.00
1376.350, 27488.00
1377.408, 27748.00
1378.466, 28170.00
1379.524, 28552.00
1380.582, 28514.00
1381.640, 28272.00
1382.697, 27968.00
1383.754, 27942.00
1384.812, 27523.00
1385.869, 27109.00
1386.926, 27266.00
1387.983, 27423.00
1389.039, 27485.00
1390.096, 27252.00
1391.152, 27409.00
1392.208, 27449.00
1393.264, 27520.00
1394.320, 27641.00
1395.376, 27603.17
1396.431, 27568.00
1397.487, 27569.00
1398.542, 27532.00
1399.597, 27538.00
1400.652, 27526.00
1401.707, 27530.58
1402.762, 27664.00
1403.816, 27520.00
1404.871, 27588.00
1405.925, 27513.00
1406.979, 27486.70
1408.033, 27524.74
1409.086, 27479.00
1410.140, 27561.00
1411.194, 27637.00
1412.247, 27640.00
1413.300, 27705.74
1414.353, 27683.00
1415.406, 27803.00
1416.458, 27920.00
1417.511, 28032.00
1418.563, 27920.00
1419.616, 28105.00
1420.668, 27915.00
1421.720, 27976.00
1422.772, 27883.00
1423.823, 28108.00
1424.875, 28018.00
1425.926, 28165.00
1426.977, 28268.00
1428.028, 28340.00
1429.079, 28345.00
1430.130, 28331.00
1431.180, 28478.00
1432.231, 28575.00
1433.281, 28495.00
1434.331, 28523.00
1435.381, 28584.00
1436.431, 28721.00
1437.481, 28774.00
1438.530, 28665.00
1439.580, 28657.00
1440.629, 28754.00
1441.678, 29073.00
1442.727, 28860.00
1443.776, 29010.00
1444.824, 28914.00
1445.873, 29194.00
1446.921, 29203.00
1447.969, 29100.00
1449.017, 29138.00
1450.065, 29253.00
1451.113, 29356.00
1452.160, 29474.00
1453.208, 29415.00
1454.255, 29437.00
1455.302, 29440.53
1456.349, 29345.00
1457.396, 29420.00
1458.443, 29343.00
1459.489, 29359.00
1460.535, 29676.00
1461.582, 29525.00
1462.628, 29646.00
1463.674, 29778.00
1464.719, 29442.00
1465.765, 29497.00
1466.810, 29612.00
1467.856, 29690.00
1468.901, 29675.00
1469.946, 29700.00
1470.991, 29846.00
1472.035, 29699.00
1473.080, 29880.00
1474.124, 29853.00
1475.169, 29667.00
1476.213, 29913.00
1477.257, 29916.00
1478.300, 30008.00
1479.344, 30057.00
1480.388, 29902.00
1481.431, 30024.00
1482.474, 30292.00
1483.517, 30199.00
1484.560, 30101.00
1485.603, 30281.00
1486.645, 30119.00
1487.688, 30177.00
1488.730, 30101.00
1489.772, 30175.00
1490.814, 30360.00
1491.856, 30282.00
1492.898, 30473.00
1493.939, 30097.00
1494.981, 30403.00
1496.022, 30312.00
1497.063, 30352.00
1498.104, 30397.00
1499.145, 30430.00
1500.186, 30463.40
1501.226, 30534.72
1502.266, 30523.00
1503.307, 30653.00
1504.347, 30694.00
1505.387, 30694.00
1506.426, 30835.00
1507.466, 30818.05
1508.505, 30818.00
1509.545, 30872.00
1510.584, 30936.00
1511.623, 30999.01
1512.662, 30924.00
1513.700, 31068.00
1514.739, 31153.00
1515.777, 31212.00
1516.815, 31088.00
1517.854, 31471.00
1518.892, 31283.00
1519.929, 31463.00
1520.967, 31432.00
1522.004, 31523.00
1523.042, 31440.00
1524.079, 31460.00
1525.116, 31748.00
1526.153, 31537.00
1527.190, 31809.00
1528.226, 31823.00
1529.263, 31679.00
1530.299, 31765.00
1531.335, 31726.00
1532.371, 31881.00
1533.407, 31826.00
1534.443, 31879.00
1535.478, 31892.00
1536.514, 31931.00
1537.549, 31963.00
1538.584, 32009.23
1539.619, 32051.75
1540.654, 32115.00
1541.689, 32128.00
1542.723, 32176.00
1543.757, 32177.00
1544.792, 32241.82
1545.826, 32235.00
1546.860, 32339.00
1547.893, 32360.00
1548.927, 32351.00
1549.960, 32470.00
1550.994, 32678.00
1552.027, 32516.00
1553.060, 32704.00
1554.093, 32721.00
1555.126, 32973.00
1556.158, 32829.00
1557.191, 32826.00
1558.223, 32917.00
1559.255, 32797.00
1560.287, 33089.00
1561.319, 33064.00
1562.350, 33070.00
##END=



