##NAMES=Hauyne
##RRUFFID=R050606
##IDEAL CHEMISTRY=Na_3_Ca(Si_3_Al_3_)O_12_(S^6+^O_4_)
##LOCALITY=Ariccia, near Rome, Italy
##OWNER=RRUFF
##SOURCE=University of Arizona Mineral Museum
##DESCRIPTION=Blue crystal embedded in calcite
##STATUS=The identification of this mineral has been confirmed only by X-ray diffraction
##URL=rruff.info/R050606
##PIN_ID=M01913
##ORIENTATION=Laser parallel to c* (0 0 1). Fiducial mark perpendicular to laser is parallel to a [1 0 0]
235.6830, 11738.00
236.9020, 11608.00
238.1200, 11540.00
239.3390, 11634.00
240.5570, 11366.00
241.7750, 11656.00
242.9930, 11474.00
244.2110, 11417.00
245.4290, 11421.00
246.6460, 11310.00
247.8630, 11590.00
249.0810, 11485.00
250.2980, 11415.00
251.5140, 11207.00
252.7310, 11231.00
253.9470, 11223.00
255.1640, 11191.00
256.3800, 11275.00
257.5960, 11172.00
258.8120, 11212.00
260.0270, 11326.00
261.2430, 11256.00
262.4580, 11212.00
263.6730, 11049.00
264.8880, 11088.00
266.1030, 10941.00
267.3170, 11035.00
268.5320, 11007.00
269.7460, 10938.00
270.9600, 10845.00
272.1740, 10813.00
273.3880, 10931.00
274.6010, 10842.00
275.8150, 10870.00
277.0280, 11019.00
278.2410, 10918.00
279.4540, 10927.00
280.6670, 10803.00
281.8790, 10832.00
283.0920, 10992.00
284.3040, 10939.00
285.5160, 10839.00
286.7280, 10961.00
287.9400, 10906.00
289.1510, 10881.00
290.3630, 10856.00
291.5740, 10869.66
292.7850, 10968.00
293.9960, 10875.00
295.2070, 11001.00
296.4170, 10901.00
297.6280, 10918.00
298.8380, 10896.00
300.0480, 10903.00
301.2580, 10927.00
302.4680, 11040.00
303.6770, 10929.00
304.8870, 11007.00
306.0960, 10876.00
307.3050, 11007.00
308.5140, 11113.00
309.7230, 11193.00
310.9310, 11153.00
312.1400, 11227.00
313.3480, 11368.00
314.5560, 11358.00
315.7640, 11448.00
316.9720, 11467.00
318.1790, 11597.00
319.3870, 11530.00
320.5940, 11560.00
321.8010, 11564.00
323.0080, 11419.00
324.2150, 11425.00
325.4210, 11354.00
326.6280, 11240.00
327.8340, 11253.00
329.0400, 11258.00
330.2460, 11089.00
331.4510, 11245.00
332.6570, 11078.00
333.8620, 11078.00
335.0680, 11103.00
336.2730, 11133.00
337.4780, 11154.71
338.6820, 11172.00
339.8870, 11197.00
341.0910, 11159.00
342.2950, 11130.00
343.5000, 11170.00
344.7030, 11284.00
345.9070, 11440.00
347.1110, 11363.00
348.3140, 11327.00
349.5170, 11469.00
350.7200, 11303.00
351.9230, 11595.00
353.1260, 11493.00
354.3290, 11662.00
355.5310, 11643.00
356.7330, 11825.00
357.9350, 11719.00
359.1370, 11822.00
360.3390, 11807.00
361.5400, 11921.00
362.7420, 11992.00
363.9430, 12110.00
365.1440, 12021.00
366.3450, 12203.00
367.5460, 12126.00
368.7460, 12219.00
369.9470, 12362.00
371.1470, 12267.00
372.3470, 12255.00
373.5470, 12320.00
374.7460, 12365.00
375.9460, 12429.71
377.1450, 12532.00
378.3450, 12609.00
379.5440, 12696.00
380.7430, 12814.70
381.9410, 12918.00
383.1400, 12970.00
384.3380, 12872.00
385.5370, 12859.00
386.7350, 12886.00
387.9320, 13041.00
389.1300, 13145.00
390.3280, 13053.00
391.5250, 12870.00
392.7220, 13080.00
393.9190, 13078.00
395.1160, 13096.00
396.3130, 13200.00
397.5100, 13075.00
398.7060, 13175.00
399.9020, 13273.00
401.0980, 13383.00
402.2940, 13578.00
403.4900, 13817.00
404.6860, 13951.25
405.8810, 14101.00
407.0760, 14298.00
408.2710, 14472.00
409.4660, 14655.00
410.6610, 15061.00
411.8550, 15104.00
413.0500, 15606.00
414.2440, 15878.00
415.4380, 16292.00
416.6320, 16865.00
417.8260, 17303.00
419.0190, 17643.00
420.2130, 18443.00
421.4060, 19032.00
422.5990, 19899.00
423.7920, 20773.00
424.9850, 21877.00
426.1770, 23017.00
427.3700, 24151.00
428.5620, 25542.00
429.7540, 26423.00
430.9460, 27669.00
432.1380, 28476.00
433.3290, 29075.00
434.5210, 28845.00
435.7120, 28902.00
436.9030, 28098.00
438.0940, 27296.00
439.2850, 26134.00
440.4750, 25095.00
441.6660, 23779.00
442.8560, 22966.00
444.0460, 22039.00
445.2360, 20956.00
446.4260, 20495.00
447.6160, 19764.00
448.8050, 19325.00
449.9940, 18733.00
451.1830, 18226.00
452.3720, 17883.00
453.5610, 18008.00
454.7500, 17468.00
455.9380, 17410.00
457.1260, 17054.00
458.3150, 16888.00
459.5020, 16793.00
460.6900, 16565.00
461.8780, 16493.00
463.0650, 16249.00
464.2530, 16182.00
465.4400, 16086.00
466.6270, 15957.00
467.8130, 15887.44
469.0000, 15858.00
470.1870, 15697.00
471.3730, 15606.00
472.5590, 15480.00
473.7450, 15342.00
474.9310, 15269.00
476.1160, 15234.00
477.3020, 15108.00
478.4870, 15108.00
479.6720, 15048.00
480.8570, 15013.66
482.0420, 14897.00
483.2270, 14972.00
484.4110, 14991.00
485.5960, 14965.00
486.7800, 14836.00
487.9640, 14856.00
489.1480, 14785.00
490.3310, 14717.00
491.5150, 14840.00
492.6980, 14667.00
493.8810, 14837.00
495.0640, 14709.00
496.2470, 14579.00
497.4300, 14621.00
498.6120, 14595.00
499.7950, 14674.00
500.9770, 14589.00
502.1590, 14676.00
503.3410, 14708.00
504.5220, 14710.00
505.7040, 14672.00
506.8850, 14697.00
508.0660, 14614.00
509.2470, 14612.00
510.4280, 14676.00
511.6090, 14747.00
512.7890, 14898.00
513.9700, 14598.00
515.1500, 14717.00
516.3300, 14817.00
517.5100, 14693.00
518.6900, 14929.00
519.8690, 14744.00
521.0490, 14904.00
522.2280, 14936.00
523.4070, 15107.00
524.5860, 15177.00
525.7640, 15271.00
526.9430, 15260.00
528.1210, 15270.00
529.3000, 15607.00
530.4780, 15536.00
531.6560, 15611.00
532.8330, 16136.00
534.0110, 16153.00
535.1880, 16627.00
536.3650, 16961.00
537.5430, 17102.00
538.7190, 17505.00
539.8960, 18072.00
541.0730, 18674.00
542.2490, 19109.00
543.4250, 19764.00
544.6020, 19917.00
545.7780, 20409.00
546.9530, 20446.00
548.1290, 20377.00
549.3040, 20006.00
550.4800, 19404.00
551.6550, 18523.00
552.8300, 17915.00
554.0040, 17421.45
555.1790, 16845.00
556.3540, 16641.00
557.5280, 16372.00
558.7020, 16194.00
559.8760, 16099.00
561.0500, 15984.00
562.2230, 15963.00
563.3970, 16021.00
564.5700, 16021.00
565.7430, 15949.00
566.9160, 15918.00
568.0890, 15885.00
569.2620, 16115.00
570.4340, 16071.00
571.6070, 16116.00
572.7790, 16176.00
573.9510, 16232.00
575.1230, 16236.00
576.2940, 16329.64
577.4660, 16388.56
578.6370, 16498.00
579.8080, 16572.00
580.9790, 16683.00
582.1500, 16820.00
583.3210, 16849.00
584.4910, 16930.98
585.6620, 16809.00
586.8320, 17022.00
588.0020, 17005.00
589.1720, 17053.00
590.3410, 17160.00
591.5110, 17238.00
592.6800, 17357.07
593.8500, 17419.00
595.0190, 17673.00
596.1880, 17830.00
597.3560, 18112.00
598.5250, 18508.00
599.6930, 18646.00
600.8620, 19064.00
602.0300, 19374.00
603.1970, 19717.00
604.3650, 20007.00
605.5330, 20420.00
606.7000, 20725.00
607.8680, 20875.00
609.0350, 20650.00
610.2020, 21122.00
611.3680, 20710.00
612.5350, 20586.00
613.7010, 20671.00
614.8680, 20533.00
616.0340, 20303.00
617.2000, 20169.00
618.3660, 19959.00
619.5310, 19547.00
620.6970, 19708.00
621.8620, 19132.00
623.0270, 18951.00
624.1920, 18839.00
625.3570, 18504.00
626.5220, 18190.00
627.6860, 18021.00
628.8500, 17759.00
630.0140, 17745.00
631.1780, 17676.00
632.3420, 17561.00
633.5060, 17567.00
634.6700, 17483.00
635.8330, 17540.00
636.9960, 17600.00
638.1590, 17537.00
639.3220, 17567.00
640.4850, 17773.00
641.6470, 17794.00
642.8100, 17629.00
643.9720, 17798.00
645.1340, 17682.00
646.2960, 17772.00
647.4570, 17735.00
648.6190, 17799.00
649.7800, 17692.00
650.9420, 17696.00
652.1030, 17755.00
653.2640, 17656.00
654.4240, 17710.00
655.5850, 17735.00
656.7450, 17612.00
657.9060, 17627.00
659.0660, 17679.00
660.2260, 17683.00
661.3850, 17596.00
662.5450, 17684.00
663.7040, 17636.00
664.8640, 17759.00
666.0230, 17746.00
667.1820, 17792.00
668.3410, 17768.00
669.4990, 17777.00
670.6580, 17659.00
671.8160, 17888.00
672.9740, 17763.00
674.1320, 17877.00
675.2900, 18101.00
676.4480, 17908.00
677.6050, 18075.00
678.7630, 18003.00
679.9200, 18086.00
681.0770, 18087.00
682.2340, 18204.00
683.3900, 17988.00
684.5470, 18287.00
685.7030, 18221.00
686.8590, 18079.00
688.0150, 18423.00
689.1710, 18217.00
690.3270, 18366.00
691.4830, 18355.00
692.6380, 18357.00
693.7930, 18350.00
694.9480, 18353.12
696.1030, 18362.00
697.2580, 18349.00
698.4130, 18498.00
699.5670, 18481.00
700.7210, 18508.00
701.8750, 18769.00
703.0290, 18569.00
704.1830, 18861.00
705.3370, 18755.00
706.4900, 18880.00
707.6430, 18872.00
708.7970, 19007.00
709.9490, 18941.00
711.1020, 19050.00
712.2550, 19043.00
713.4070, 19085.00
714.5600, 18973.00
715.7120, 18837.00
716.8640, 19145.00
718.0160, 19220.00
719.1670, 19069.00
720.3190, 19233.00
721.4700, 19260.00
722.6210, 19344.00
723.7720, 19402.00
724.9230, 19314.00
726.0740, 19451.00
727.2250, 19339.00
728.3750, 19455.00
729.5250, 19634.00
730.6750, 19423.00
731.8250, 19680.00
732.9750, 19771.00
734.1240, 19704.00
735.2740, 19660.00
736.4230, 19721.00
737.5720, 19636.00
738.7210, 19870.00
739.8700, 19767.00
741.0190, 20037.00
742.1670, 19921.00
743.3150, 19982.00
744.4630, 19941.00
745.6110, 19892.00
746.7590, 19993.00
747.9070, 20003.00
749.0540, 20006.77
750.2020, 20160.00
751.3490, 20021.00
752.4960, 20062.00
753.6430, 20069.00
754.7890, 20275.00
755.9360, 20270.00
757.0820, 20090.00
758.2280, 20384.00
759.3740, 20248.00
760.5200, 20402.00
761.6660, 20513.00
762.8120, 20382.00
763.9570, 20436.00
765.1020, 20447.00
766.2470, 20536.00
767.3920, 20547.00
768.5370, 20673.00
769.6810, 20637.00
770.8260, 20809.00
771.9700, 20891.00
773.1140, 20693.00
774.2580, 20879.00
775.4020, 20878.00
776.5460, 21063.00
777.6890, 20804.00
778.8320, 20905.00
779.9750, 20934.00
781.1180, 21023.00
782.2610, 20973.00
783.4040, 21067.00
784.5460, 21076.00
785.6890, 21243.00
786.8310, 21045.00
787.9730, 21314.00
789.1150, 21247.00
790.2560, 21333.00
791.3980, 21337.00
792.5390, 21252.00
793.6810, 21492.00
794.8220, 21741.00
795.9630, 21614.00
797.1030, 21541.00
798.2440, 21450.00
799.3840, 21466.07
800.5240, 21635.00
801.6650, 21660.00
802.8040, 21811.00
803.9440, 21852.56
805.0840, 21892.00
806.2230, 21904.00
807.3630, 21947.79
808.5020, 22009.00
809.6410, 21997.00
810.7790, 22083.00
811.9180, 22074.00
813.0570, 22181.00
814.1950, 22203.00
815.3330, 22210.00
816.4710, 22371.00
817.6090, 22239.00
818.7470, 22362.00
819.8840, 22503.00
821.0220, 22374.00
822.1590, 22495.00
823.2960, 22600.00
824.4330, 22444.00
825.5690, 22561.00
826.7060, 22587.00
827.8420, 22454.00
828.9790, 22746.00
830.1150, 22699.00
831.2510, 22681.00
832.3860, 22873.00
833.5220, 22772.00
834.6570, 22885.00
835.7930, 22795.00
836.9280, 22966.00
838.0630, 22945.00
839.1980, 23073.00
840.3320, 22986.00
841.4670, 23221.00
842.6010, 23143.00
843.7350, 23344.00
844.8690, 23196.00
846.0030, 23214.00
847.1370, 23092.00
848.2700, 23416.00
849.4040, 23332.00
850.5370, 23528.00
851.6700, 23309.00
852.8030, 23422.00
853.9360, 23478.00
855.0680, 23562.00
856.2000, 23427.00
857.3330, 23654.00
858.4650, 23545.00
859.5970, 23616.64
860.7290, 23624.00
861.8600, 23715.00
862.9920, 23753.00
864.1230, 23805.00
865.2540, 24007.00
866.3850, 24068.00
867.5160, 24065.00
868.6460, 24155.00
869.7770, 24156.88
870.9070, 23962.00
872.0370, 24182.00
873.1670, 24131.00
874.2970, 24125.00
875.4270, 24328.00
876.5570, 24416.00
877.6860, 24495.00
878.8150, 24571.00
879.9440, 24442.00
881.0730, 24593.00
882.2020, 24501.00
883.3300, 24500.00
884.4590, 24852.00
885.5870, 24781.00
886.7150, 24559.00
887.8430, 24694.00
888.9710, 24580.00
890.0990, 24902.00
891.2260, 24829.00
892.3530, 24831.00
893.4810, 25009.00
894.6080, 25131.00
895.7340, 24703.00
896.8610, 24803.00
897.9880, 25147.00
899.1140, 24887.00
900.2400, 25174.00
901.3660, 25205.00
902.4920, 25241.00
903.6180, 25135.00
904.7430, 25365.00
905.8690, 25161.00
906.9940, 25390.00
908.1190, 25291.00
909.2440, 25535.00
910.3690, 25555.00
911.4930, 25479.00
912.6180, 25593.00
913.7420, 25588.00
914.8660, 25579.00
915.9900, 25633.24
917.1140, 25609.00
918.2380, 25815.00
919.3610, 25814.00
920.4850, 26204.00
921.6080, 25832.00
922.7310, 26050.00
923.8540, 26312.00
924.9760, 26325.00
926.0990, 26093.00
927.2210, 26135.00
928.3440, 26226.00
929.4660, 26417.00
930.5880, 26388.00
931.7090, 26313.00
932.8310, 26430.00
933.9520, 26466.00
935.0740, 26686.00
936.1950, 26598.00
937.3160, 26850.00
938.4360, 26915.00
939.5570, 26908.00
940.6780, 26933.00
941.7980, 27128.00
942.9180, 27034.00
944.0380, 27237.00
945.1580, 27233.00
946.2780, 27140.00
947.3970, 27500.00
948.5170, 27643.00
949.6360, 27591.00
950.7550, 27725.00
951.8740, 27774.00
952.9930, 28145.00
954.1110, 28091.00
955.2300, 28190.00
956.3480, 28666.00
957.4660, 28751.00
958.5840, 29236.00
959.7020, 29352.00
960.8190, 29904.00
961.9370, 30511.00
963.0540, 31069.00
964.1710, 31982.00
965.2880, 33020.00
966.4050, 34273.00
967.5220, 36063.00
968.6380, 38237.00
969.7550, 40233.00
970.8710, 42614.00
971.9870, 45043.00
973.1030, 47016.00
974.2190, 49463.00
975.3340, 51221.00
976.4500, 52929.00
977.5650, 53049.00
978.6800, 53229.00
979.7950, 52283.00
980.9100, 51305.00
982.0250, 51372.00
983.1390, 51139.00
984.2530, 51367.00
985.3680, 52194.00
986.4820, 52510.00
987.5950, 52971.00
988.7090, 52639.00
989.8230, 52702.00
990.9360, 52031.00
992.0490, 51391.00
993.1620, 50694.00
994.2750, 49900.00
995.3880, 49445.07
996.5010, 48807.00
997.6130, 48600.00
998.7250, 48500.00
999.8370, 48352.00
1000.949, 48441.00
1002.061, 48469.00
1003.173, 48150.00
1004.284, 47610.00
1005.396, 46493.00
1006.507, 45599.00
1007.618, 44225.00
1008.729, 43262.00
1009.839, 42169.00
1010.950, 40914.00
1012.060, 40119.00
1013.171, 38999.00
1014.281, 38077.00
1015.391, 37387.00
1016.500, 36515.00
1017.610, 35904.00
1018.719, 35590.00
1019.829, 34958.00
1020.938, 34820.00
1022.047, 34526.00
1023.156, 34469.00
1024.264, 34408.00
1025.373, 34510.00
1026.481, 34531.00
1027.589, 34437.00
1028.697, 34318.00
1029.805, 34510.00
1030.913, 34663.00
1032.020, 34606.00
1033.128, 34708.72
1034.235, 34615.00
1035.342, 34669.00
1036.449, 34629.00
1037.556, 34496.00
1038.663, 34460.00
1039.769, 34420.75
1040.875, 34308.00
1041.981, 34378.00
1043.087, 34399.00
1044.193, 34386.00
1045.299, 34266.00
1046.404, 34107.00
1047.510, 34072.49
1048.615, 33967.00
1049.720, 33986.00
1050.825, 33930.00
1051.930, 34019.00
1053.034, 33929.00
1054.139, 33961.00
1055.243, 33745.00
1056.347, 33693.00
1057.451, 33827.00
1058.555, 34138.00
1059.658, 34303.00
1060.762, 34136.00
1061.865, 34118.00
1062.968, 34071.00
1064.071, 34416.00
1065.174, 34325.00
1066.277, 34310.00
1067.380, 34722.00
1068.482, 34443.00
1069.584, 34738.00
1070.686, 34840.00
1071.788, 34946.00
1072.890, 35116.00
1073.992, 35082.00
1075.093, 35191.00
1076.194, 35267.00
1077.295, 35566.00
1078.396, 35587.00
1079.497, 35680.00
1080.598, 35775.00
1081.698, 35863.00
1082.799, 35925.51
1083.899, 36114.00
1084.999, 36050.00
1086.099, 36179.00
1087.199, 36272.00
1088.298, 36491.00
1089.398, 36784.00
1090.497, 36850.00
1091.596, 36822.00
1092.695, 36959.00
1093.794, 36711.00
1094.892, 36933.00
1095.991, 36661.00
1097.089, 37106.00
1098.187, 36858.00
1099.285, 36535.00
1100.383, 36654.00
1101.481, 36585.00
1102.579, 36543.00
1103.676, 36515.00
1104.773, 36484.00
1105.870, 36358.00
1106.967, 36173.00
1108.064, 36621.00
1109.161, 36364.00
1110.257, 36293.00
1111.353, 36544.00
1112.449, 36484.00
1113.545, 36355.00
1114.641, 36770.00
1115.737, 36787.00
1116.832, 36700.00
1117.928, 36948.00
1119.023, 36991.00
1120.118, 36755.00
1121.213, 36904.00
1122.308, 37015.00
1123.402, 37153.00
1124.497, 37153.00
1125.591, 37248.00
1126.685, 37262.00
1127.779, 37359.00
1128.873, 37186.00
1129.967, 37467.00
1131.060, 37203.00
1132.153, 37395.00
1133.247, 37595.00
1134.340, 37612.00
1135.433, 37750.73
1136.525, 37690.00
1137.618, 37888.00
1138.710, 37727.00
1139.802, 37788.00
1140.895, 37942.00
1141.987, 38068.00
1143.078, 38183.00
1144.170, 38246.27
1145.261, 38271.00
1146.353, 38399.00
1147.444, 38408.00
1148.535, 38629.00
1149.626, 38733.00
1150.716, 38459.00
1151.807, 38699.00
1152.897, 38457.00
1153.988, 38616.00
1155.078, 38771.00
1156.168, 38935.00
1157.257, 39125.00
1158.347, 38994.00
1159.436, 38934.00
1160.526, 39034.00
1161.615, 39127.00
1162.704, 39189.00
1163.793, 38986.00
1164.881, 38914.00
1165.970, 39118.00
1167.058, 39450.00
1168.147, 39058.00
1169.235, 39215.00
1170.323, 38865.00
1171.410, 39156.00
1172.498, 39245.00
1173.585, 38983.00
1174.673, 39102.00
1175.760, 38825.00
1176.847, 38840.00
1177.934, 38813.00
1179.020, 38955.00
1180.107, 39024.00
1181.193, 38795.00
1182.279, 38947.00
1183.365, 38948.00
1184.451, 38842.00
1185.537, 38896.91
1186.623, 38919.00
1187.708, 38838.00
1188.793, 38643.00
1189.878, 38594.00
1190.963, 38842.00
1192.048, 38594.00
1193.133, 38806.00
1194.217, 38887.00
1195.302, 38988.00
1196.386, 39104.00
1197.470, 38984.00
1198.554, 39047.00
1199.638, 38849.00
1200.721, 38849.00
1201.805, 38890.00
1202.888, 39088.00
1203.971, 39183.00
1205.054, 39100.00
1206.137, 39423.00
1207.219, 39299.00
1208.302, 39546.00
1209.384, 39212.00
1210.466, 39361.00
1211.548, 39413.00
1212.630, 39524.00
1213.712, 39563.00
1214.794, 39593.00
1215.875, 39734.00
1216.956, 39971.00
1218.037, 39739.00
1219.118, 39663.00
1220.199, 40008.00
1221.280, 39427.00
1222.360, 40055.00
1223.441, 39944.00
1224.521, 39752.00
1225.601, 39915.00
1226.681, 39993.00
1227.760, 39969.00
1228.840, 39899.00
1229.919, 40271.00
1230.999, 40193.00
1232.078, 40464.00
1233.157, 40220.00
1234.236, 40325.00
1235.314, 40534.00
1236.393, 40522.00
1237.471, 40236.00
1238.549, 40343.00
1239.627, 40474.00
1240.705, 40689.00
1241.783, 40739.00
1242.860, 40776.00
1243.938, 40605.00
1245.015, 40581.00
1246.092, 40647.00
1247.169, 40488.00
1248.246, 40514.00
1249.323, 40739.00
1250.399, 40529.00
1251.475, 40990.00
1252.552, 41101.00
1253.628, 41323.00
1254.703, 41037.00
1255.779, 41175.00
1256.855, 41365.00
1257.930, 41508.00
1259.005, 41409.00
1260.080, 41580.00
1261.155, 41367.00
1262.230, 41379.00
1263.305, 41430.00
1264.379, 41859.00
1265.454, 41758.00
1266.528, 41828.00
1267.602, 41829.00
1268.676, 41896.00
1269.750, 41764.00
1270.823, 41869.00
1271.897, 41865.00
1272.970, 41944.00
1274.043, 42084.00
1275.116, 41884.00
1276.189, 42331.00
1277.261, 42231.00
1278.334, 42418.00
1279.406, 42282.00
1280.478, 42309.00
1281.550, 42339.00
1282.622, 42372.00
1283.694, 42556.00
1284.766, 42441.00
1285.837, 42546.00
1286.908, 42801.00
1287.979, 42426.00
1289.050, 42624.00
1290.121, 42940.00
1291.192, 43045.00
1292.262, 43099.00
1293.333, 43036.00
1294.403, 43304.00
1295.473, 43221.00
1296.543, 43480.00
1297.613, 43407.00
1298.682, 43756.00
1299.752, 43599.00
1300.821, 43347.00
1301.890, 43739.00
1302.959, 43765.00
1304.028, 43940.00
1305.096, 43886.00
1306.165, 44054.00
1307.233, 43865.00
1308.301, 44261.00
1309.370, 44232.00
1310.437, 44270.00
1311.505, 44417.00
1312.573, 44569.00
1313.640, 45526.00
1314.708, 45172.95
1315.775, 45880.00
1316.842, 44953.00
1317.908, 44755.00
1318.975, 44670.00
1320.042, 44827.00
1321.108, 44922.00
1322.174, 45048.00
1323.240, 45226.00
1324.306, 45034.00
1325.372, 44891.00
1326.438, 45280.00
1327.503, 45289.00
1328.568, 45504.00
1329.634, 45584.00
1330.699, 45632.00
1331.763, 45615.00
1332.828, 45647.00
1333.893, 45738.00
1334.957, 45891.00
1336.021, 45900.00
1337.085, 45887.00
1338.149, 46066.00
1339.213, 46090.32
1340.277, 46133.00
1341.340, 46237.00
1342.404, 46400.00
1343.467, 46396.00
1344.530, 46213.00
1345.593, 46497.00
1346.655, 46783.00
1347.718, 46561.00
1348.780, 46596.00
1349.843, 46635.00
1350.905, 46856.00
1351.967, 46697.00
1353.028, 46719.00
1354.090, 46858.00
1355.152, 47242.00
1356.213, 47119.00
1357.274, 47112.00
1358.335, 47362.00
1359.396, 46943.00
1360.457, 47269.00
1361.517, 47201.00
1362.578, 47221.00
1363.638, 47262.00
1364.698, 47364.00
1365.758, 47330.00
1366.818, 47573.00
1367.878, 47876.00
1368.937, 47606.00
1369.997, 47767.00
1371.056, 47658.00
1372.115, 47788.00
1373.174, 48089.00
1374.232, 47831.00
1375.291, 47690.00
1376.350, 48205.00
1377.408, 48229.00
1378.466, 48225.00
1379.524, 48015.00
1380.582, 48420.00
1381.640, 48173.00
1382.697, 48635.00
1383.754, 48276.00
1384.812, 48742.00
1385.869, 48605.00
1386.926, 48284.00
1387.983, 48695.00
1389.039, 48766.00
1390.096, 48428.00
1391.152, 48689.00
1392.208, 48962.00
1393.264, 48807.00
1394.320, 48803.00
1395.376, 49114.00
1396.431, 48978.00
1397.487, 48816.00
1398.542, 49215.00
1399.597, 49225.00
1400.652, 49070.00
1401.707, 49305.00
1402.762, 49491.00
1403.816, 49382.00
1404.871, 49334.00
1405.925, 49384.00
1406.979, 49458.00
1408.033, 49948.00
1409.086, 49444.00
1410.140, 49665.00
1411.194, 49834.00
1412.247, 49595.00
1413.300, 49783.00
1414.353, 50049.00
1415.406, 50145.00
1416.458, 49936.00
1417.511, 50210.00
1418.563, 50132.00
1419.616, 50490.00
1420.668, 50502.00
1421.720, 50418.00
1422.772, 50416.00
1423.823, 50626.00
1424.875, 50622.00
1425.926, 50870.00
1426.977, 50825.00
1428.028, 50641.00
1429.079, 51045.00
1430.130, 50827.00
1431.180, 51137.00
1432.231, 51185.00
1433.281, 51074.00
1434.331, 51310.00
1435.381, 51226.00
1436.431, 50988.00
1437.481, 51515.00
1438.530, 51638.00
1439.580, 51232.00
1440.629, 51875.00
1441.678, 51799.00
1442.727, 51629.00
1443.776, 51887.00
1444.824, 52006.00
1445.873, 52011.00
1446.921, 52220.00
1447.969, 51797.00
1449.017, 52231.00
1450.065, 51899.00
1451.113, 52455.00
1452.160, 52461.00
1453.208, 52245.00
1454.255, 52625.00
1455.302, 52553.00
1456.349, 52396.00
1457.396, 52637.00
1458.443, 52767.00
1459.489, 52907.00
1460.535, 52644.00
1461.582, 53199.00
1462.628, 52800.00
1463.674, 53027.00
1464.719, 52848.00
1465.765, 53121.00
1466.810, 53306.00
1467.856, 53385.00
1468.901, 53490.69
1469.946, 53517.02
1470.991, 53559.00
1472.035, 53500.00
1473.080, 53557.00
1474.124, 53542.00
1475.169, 53607.19
1476.213, 53692.48
1477.257, 53747.00
1478.300, 53848.00
1479.344, 53884.00
1480.388, 53845.00
1481.431, 54180.00
1482.474, 53793.00
1483.517, 54028.00
1484.560, 54275.00
1485.603, 54369.00
1486.645, 54345.00
1487.688, 54215.00
1488.730, 54052.00
1489.772, 54212.00
1490.814, 54660.00
1491.856, 54795.00
1492.898, 54548.00
1493.939, 54991.00
1494.981, 55000.00
1496.022, 55342.00
1497.063, 55425.88
1498.104, 55140.00
1499.145, 55409.00
1500.186, 55335.00
1501.226, 54970.00
1502.266, 55477.00
1503.307, 55326.00
1504.347, 55724.00
1505.387, 55514.00
1506.426, 55739.00
1507.466, 55662.00
1508.505, 55903.00
1509.545, 55785.00
1510.584, 55797.00
1511.623, 55788.00
1512.662, 56193.00
1513.700, 56132.00
1514.739, 56313.00
1515.777, 56382.00
1516.815, 56436.00
1517.854, 56557.00
1518.892, 56494.00
1519.929, 56226.00
1520.967, 56850.00
1522.004, 56520.00
1523.042, 57092.00
1524.079, 56629.00
1525.116, 56993.00
1526.153, 56965.00
1527.190, 57092.00
1528.226, 57058.00
1529.263, 57087.00
1530.299, 57200.00
1531.335, 57257.71
1532.371, 57367.90
1533.407, 57495.00
1534.443, 57575.00
1535.478, 57713.00
1536.514, 57759.00
1537.549, 57924.00
1538.584, 57844.00
1539.619, 57875.00
1540.654, 58034.00
1541.689, 57953.00
1542.723, 57977.00
1543.757, 57864.00
1544.792, 58152.00
1545.826, 58176.00
1546.860, 58655.00
1547.893, 58888.00
1548.927, 58740.00
1549.960, 58667.00
1550.994, 58928.00
1552.027, 59045.00
1553.060, 58793.00
1554.093, 58887.00
1555.126, 59056.00
1556.158, 59015.00
1557.191, 59078.00
1558.223, 59291.00
1559.255, 59292.00
1560.287, 59187.00
1561.319, 59263.00
1562.350, 60113.00
##END=



