##NAMES=Hauyne
##RRUFFID=R070121
##IDEAL CHEMISTRY=Na_3_Ca(Si_3_Al_3_)O_12_(S^6+^O_4_)
##LOCALITY=Hesse, Germany
##OWNER=RRUFF
##SOURCE=Michael Scott
##DESCRIPTION=Blue cut gemstones
##STATUS=The identification of this mineral has been confirmed by single-crystal X-ray diffraction.
##URL=rruff.info/R070121
##PIN_ID=M01514
##ORIENTATION=Laser parallel to a* (1 0 0). Fiducial mark perpendicular to laser is parallel to c [0 0 1]
224.7060, 13341.00
225.9260, 13395.00
227.1470, 13242.00
228.3670, 13243.00
229.5860, 13325.00
230.8060, 13295.00
232.0260, 13363.00
233.2450, 13391.00
234.4640, 13406.87
235.6830, 13438.30
236.9020, 13481.00
238.1200, 13478.00
239.3390, 13555.00
240.5570, 13605.00
241.7750, 13692.00
242.9930, 13717.00
244.2110, 14058.00
245.4290, 14134.00
246.6460, 14269.00
247.8630, 14309.00
249.0810, 14564.00
250.2980, 14583.00
251.5140, 14834.00
252.7310, 14834.00
253.9470, 14905.00
255.1640, 15040.00
256.3800, 15054.00
257.5960, 14979.00
258.8120, 15200.00
260.0270, 15309.00
261.2430, 14806.00
262.4580, 14387.00
263.6730, 14165.00
264.8880, 14037.00
266.1030, 13667.00
267.3170, 13555.00
268.5320, 13548.00
269.7460, 13343.00
270.9600, 13160.00
272.1740, 12985.00
273.3880, 12823.00
274.6010, 12896.00
275.8150, 12882.00
277.0280, 12757.00
278.2410, 12661.00
279.4540, 12632.00
280.6670, 12707.00
281.8790, 12404.00
283.0920, 12595.00
284.3040, 12444.00
285.5160, 12420.00
286.7280, 12353.00
287.9400, 12275.00
289.1510, 12222.00
290.3630, 12288.00
291.5740, 12109.00
292.7850, 12201.00
293.9960, 12176.00
295.2070, 12133.00
296.4170, 12121.00
297.6280, 11990.00
298.8380, 11979.40
300.0480, 11890.00
301.2580, 11887.00
302.4680, 11761.00
303.6770, 11699.00
304.8870, 11742.00
306.0960, 11660.00
307.3050, 11705.00
308.5140, 11635.00
309.7230, 11806.00
310.9310, 11827.00
312.1400, 12092.00
313.3480, 11700.00
314.5560, 11911.00
315.7640, 11607.00
316.9720, 11822.00
318.1790, 11798.00
319.3870, 11719.00
320.5940, 11719.00
321.8010, 11758.00
323.0080, 11633.00
324.2150, 11649.00
325.4210, 11709.00
326.6280, 11735.00
327.8340, 11869.51
329.0400, 11770.67
330.2460, 11802.47
331.4510, 11610.00
332.6570, 11688.00
333.8620, 11645.00
335.0680, 11476.00
336.2730, 11632.00
337.4780, 11556.00
338.6820, 11558.00
339.8870, 11643.00
341.0910, 11675.00
342.2950, 11648.00
343.5000, 11648.00
344.7030, 11709.00
345.9070, 11803.00
347.1110, 11967.00
348.3140, 11901.00
349.5170, 11979.00
350.7200, 11960.00
351.9230, 12035.00
353.1260, 12056.00
354.3290, 12238.00
355.5310, 12213.00
356.7330, 12237.00
357.9350, 12320.00
359.1370, 12286.00
360.3390, 12463.00
361.5400, 12362.00
362.7420, 12274.00
363.9430, 12365.00
365.1440, 12608.00
366.3450, 12579.00
367.5460, 12490.00
368.7460, 12663.00
369.9470, 12577.00
371.1470, 12622.00
372.3470, 12669.00
373.5470, 12743.00
374.7460, 12671.00
375.9460, 12740.00
377.1450, 12702.00
378.3450, 12897.00
379.5440, 12732.00
380.7430, 13001.00
381.9410, 12891.00
383.1400, 13093.00
384.3380, 13071.00
385.5370, 12871.00
386.7350, 13093.00
387.9320, 13156.00
389.1300, 13098.00
390.3280, 13145.00
391.5250, 13324.00
392.7220, 13146.00
393.9190, 13251.00
395.1160, 13348.00
396.3130, 13338.00
397.5100, 13163.00
398.7060, 13455.00
399.9020, 13350.00
401.0980, 13531.00
402.2940, 13758.00
403.4900, 13819.00
404.6860, 13991.83
405.8810, 13929.00
407.0760, 14164.00
408.2710, 14410.00
409.4660, 14362.00
410.6610, 14541.00
411.8550, 14886.00
413.0500, 15169.00
414.2440, 15369.00
415.4380, 15679.00
416.6320, 15955.00
417.8260, 16234.68
419.0190, 16692.00
420.2130, 16887.00
421.4060, 17371.00
422.5990, 17825.00
423.7920, 18329.00
424.9850, 18973.00
426.1770, 19357.00
427.3700, 20036.00
428.5620, 20761.00
429.7540, 21430.00
430.9460, 22338.00
432.1380, 23131.00
433.3290, 23761.00
434.5210, 24643.00
435.7120, 25126.00
436.9030, 25965.00
438.0940, 25924.00
439.2850, 26464.00
440.4750, 26789.00
441.6660, 26732.00
442.8560, 26596.00
444.0460, 26507.00
445.2360, 26393.00
446.4260, 26208.00
447.6160, 25939.00
448.8050, 25427.00
449.9940, 24944.00
451.1830, 24474.00
452.3720, 23819.00
453.5610, 23457.00
454.7500, 23058.00
455.9380, 22493.00
457.1260, 22286.00
458.3150, 21670.00
459.5020, 21277.00
460.6900, 20742.00
461.8780, 20169.00
463.0650, 19792.00
464.2530, 19313.00
465.4400, 19038.00
466.6270, 18724.00
467.8130, 18464.00
469.0000, 18021.00
470.1870, 17806.00
471.3730, 17389.00
472.5590, 17131.00
473.7450, 16881.00
474.9310, 16685.00
476.1160, 16513.45
477.3020, 16345.38
478.4870, 16257.00
479.6720, 16109.00
480.8570, 16026.00
482.0420, 15995.00
483.2270, 15841.00
484.4110, 15779.00
485.5960, 15815.00
486.7800, 15582.00
487.9640, 15504.00
489.1480, 15406.00
490.3310, 15403.00
491.5150, 15272.00
492.6980, 15275.00
493.8810, 15132.00
495.0640, 15122.00
496.2470, 15063.00
497.4300, 15104.00
498.6120, 15105.00
499.7950, 15154.00
500.9770, 15171.19
502.1590, 15183.00
503.3410, 15207.00
504.5220, 15229.00
505.7040, 15222.07
506.8850, 15351.00
508.0660, 15298.00
509.2470, 15397.00
510.4280, 15492.00
511.6090, 15543.82
512.7890, 15659.16
513.9700, 15741.00
515.1500, 15874.00
516.3300, 15991.00
517.5100, 16129.00
518.6900, 16360.00
519.8690, 16632.00
521.0490, 16955.00
522.2280, 17338.00
523.4070, 17973.00
524.5860, 18440.00
525.7640, 19239.00
526.9430, 20027.00
528.1210, 21149.00
529.3000, 22258.00
530.4780, 23821.00
531.6560, 25717.00
532.8330, 27776.00
534.0110, 30681.00
535.1880, 33605.00
536.3650, 37055.00
537.5430, 40520.00
538.7190, 44197.00
539.8960, 48033.00
541.0730, 50628.00
542.2490, 53288.00
543.4250, 54576.00
544.6020, 55054.00
545.7780, 53318.00
546.9530, 50798.00
548.1290, 47044.00
549.3040, 42720.00
550.4800, 37528.00
551.6550, 33172.00
552.8300, 29103.00
554.0040, 25875.00
555.1790, 23454.00
556.3540, 21614.00
557.5280, 20481.00
558.7020, 19651.00
559.8760, 18820.00
561.0500, 18511.00
562.2230, 18195.00
563.3970, 18030.00
564.5700, 17916.00
565.7430, 17775.00
566.9160, 17991.00
568.0890, 17824.00
569.2620, 17961.00
570.4340, 18082.00
571.6070, 18155.00
572.7790, 18328.00
573.9510, 18605.00
575.1230, 18726.60
576.2940, 18928.12
577.4660, 19078.00
578.6370, 19245.00
579.8080, 19371.00
580.9790, 19480.00
582.1500, 19354.00
583.3210, 19359.00
584.4910, 19214.00
585.6620, 18971.00
586.8320, 19039.00
588.0020, 18729.64
589.1720, 18339.00
590.3410, 18380.00
591.5110, 18129.00
592.6800, 18212.00
593.8500, 17956.00
595.0190, 17777.00
596.1880, 17765.00
597.3560, 17739.00
598.5250, 17771.00
599.6930, 18057.00
600.8620, 18350.00
602.0300, 18512.00
603.1970, 18742.00
604.3650, 19199.00
605.5330, 19358.00
606.7000, 19763.00
607.8680, 19891.00
609.0350, 20025.00
610.2020, 20120.00
611.3680, 19967.00
612.5350, 20027.00
613.7010, 19829.00
614.8680, 19581.00
616.0340, 19539.00
617.2000, 19285.00
618.3660, 19072.00
619.5310, 18865.00
620.6970, 18873.00
621.8620, 18547.00
623.0270, 18399.00
624.1920, 18015.00
625.3570, 17889.00
626.5220, 17663.00
627.6860, 17468.00
628.8500, 17239.00
630.0140, 17135.00
631.1780, 16982.00
632.3420, 16751.00
633.5060, 16687.00
634.6700, 16657.00
635.8330, 16694.00
636.9960, 16716.00
638.1590, 16623.00
639.3220, 16583.00
640.4850, 16563.00
641.6470, 16643.00
642.8100, 16673.00
643.9720, 16744.00
645.1340, 16525.00
646.2960, 16435.00
647.4570, 16384.00
648.6190, 16408.00
649.7800, 16354.00
650.9420, 16332.00
652.1030, 16276.00
653.2640, 16257.00
654.4240, 16205.52
655.5850, 16145.00
656.7450, 16070.00
657.9060, 15975.00
659.0660, 15821.00
660.2260, 15956.00
661.3850, 15807.00
662.5450, 15892.00
663.7040, 15739.00
664.8640, 15791.00
666.0230, 15845.00
667.1820, 15941.00
668.3410, 15752.00
669.4990, 15761.00
670.6580, 15895.00
671.8160, 15998.00
672.9740, 16028.00
674.1320, 16038.00
675.2900, 16050.11
676.4480, 15994.00
677.6050, 15975.00
678.7630, 15985.00
679.9200, 15883.00
681.0770, 15711.00
682.2340, 16058.00
683.3900, 16098.00
684.5470, 15917.00
685.7030, 16555.00
686.8590, 16088.00
688.0150, 16160.00
689.1710, 16045.00
690.3270, 16075.00
691.4830, 16022.00
692.6380, 16134.00
693.7930, 15989.00
694.9480, 16126.00
696.1030, 16314.00
697.2580, 16180.00
698.4130, 16206.00
699.5670, 16175.00
700.7210, 16155.00
701.8750, 16300.00
703.0290, 16234.00
704.1830, 16119.00
705.3370, 16153.00
706.4900, 16343.00
707.6430, 16407.00
708.7970, 16457.82
709.9490, 16215.00
711.1020, 16545.00
712.2550, 16406.00
713.4070, 16456.00
714.5600, 16549.00
715.7120, 16500.00
716.8640, 16598.00
718.0160, 16701.00
719.1670, 16554.00
720.3190, 16544.00
721.4700, 16605.00
722.6210, 16531.00
723.7720, 16772.00
724.9230, 16556.00
726.0740, 16733.00
727.2250, 16605.00
728.3750, 16763.00
729.5250, 16688.00
730.6750, 16821.00
731.8250, 16837.00
732.9750, 16754.00
734.1240, 16772.00
735.2740, 16939.00
736.4230, 16849.00
737.5720, 16834.00
738.7210, 16967.00
739.8700, 16943.00
741.0190, 16963.00
742.1670, 16873.00
743.3150, 17028.00
744.4630, 16990.00
745.6110, 16999.00
746.7590, 17049.00
747.9070, 17119.00
749.0540, 17179.00
750.2020, 17069.00
751.3490, 16935.00
752.4960, 17109.00
753.6430, 17022.00
754.7890, 17165.00
755.9360, 17185.00
757.0820, 17133.00
758.2280, 17276.00
759.3740, 17229.00
760.5200, 17436.00
761.6660, 17168.00
762.8120, 17345.00
763.9570, 17278.00
765.1020, 17289.00
766.2470, 17266.00
767.3920, 17291.31
768.5370, 17393.00
769.6810, 17379.00
770.8260, 17444.00
771.9700, 17504.00
773.1140, 17546.00
774.2580, 17628.00
775.4020, 17739.00
776.5460, 17756.89
777.6890, 17703.00
778.8320, 17756.00
779.9750, 17936.00
781.1180, 17801.00
782.2610, 18070.00
783.4040, 18085.00
784.5460, 18173.00
785.6890, 18184.00
786.8310, 18160.00
787.9730, 18183.00
789.1150, 18211.00
790.2560, 18363.00
791.3980, 18502.00
792.5390, 18542.00
793.6810, 18618.00
794.8220, 18716.00
795.9630, 18892.00
797.1030, 18864.00
798.2440, 19012.00
799.3840, 19049.00
800.5240, 19109.00
801.6650, 19020.00
802.8040, 19109.42
803.9440, 19175.00
805.0840, 19161.00
806.2230, 19238.00
807.3630, 19181.25
808.5020, 19228.00
809.6410, 19182.00
810.7790, 19170.00
811.9180, 19109.00
813.0570, 19123.54
814.1950, 19101.00
815.3330, 19142.00
816.4710, 19139.00
817.6090, 19139.00
818.7470, 19211.00
819.8840, 19091.00
821.0220, 19029.00
822.1590, 19058.00
823.2960, 19101.00
824.4330, 19065.00
825.5690, 19154.00
826.7060, 19284.00
827.8420, 19251.00
828.9790, 19382.00
830.1150, 19398.38
831.2510, 19257.00
832.3860, 19411.00
833.5220, 19296.00
834.6570, 19193.00
835.7930, 19212.00
836.9280, 19200.00
838.0630, 19370.00
839.1980, 19537.00
840.3320, 19311.00
841.4670, 19388.00
842.6010, 19315.00
843.7350, 19264.00
844.8690, 19318.00
846.0030, 19433.00
847.1370, 19557.00
848.2700, 19503.00
849.4040, 19550.00
850.5370, 19461.00
851.6700, 19550.00
852.8030, 19632.00
853.9360, 19816.00
855.0680, 19797.00
856.2000, 19860.61
857.3330, 19628.00
858.4650, 19919.00
859.5970, 19711.00
860.7290, 19816.00
861.8600, 19682.00
862.9920, 19798.00
864.1230, 19717.00
865.2540, 19776.00
866.3850, 19785.00
867.5160, 19797.00
868.6460, 19897.00
869.7770, 20014.00
870.9070, 19738.00
872.0370, 19822.00
873.1670, 19894.00
874.2970, 19872.00
875.4270, 20084.00
876.5570, 19984.00
877.6860, 20019.00
878.8150, 19982.00
879.9440, 19922.00
881.0730, 20073.00
882.2020, 20056.00
883.3300, 19925.00
884.4590, 20067.00
885.5870, 20208.00
886.7150, 20041.00
887.8430, 20038.00
888.9710, 20124.00
890.0990, 20234.00
891.2260, 20154.00
892.3530, 20207.00
893.4810, 20273.00
894.6080, 20026.00
895.7340, 20378.00
896.8610, 20380.00
897.9880, 20390.00
899.1140, 20628.60
900.2400, 20532.04
901.3660, 20564.67
902.4920, 20462.00
903.6180, 20504.00
904.7430, 20422.00
905.8690, 20435.00
906.9940, 20561.00
908.1190, 20673.00
909.2440, 20668.00
910.3690, 20859.00
911.4930, 20685.00
912.6180, 20852.00
913.7420, 20968.00
914.8660, 20932.00
915.9900, 20963.74
917.1140, 21030.00
918.2380, 20909.00
919.3610, 20930.00
920.4850, 21015.00
921.6080, 21155.00
922.7310, 21201.00
923.8540, 21249.00
924.9760, 21176.00
926.0990, 21173.00
927.2210, 21097.00
928.3440, 21159.00
929.4660, 21204.00
930.5880, 21276.00
931.7090, 21330.00
932.8310, 21435.75
933.9520, 21622.00
935.0740, 21679.00
936.1950, 21599.00
937.3160, 21744.00
938.4360, 21618.00
939.5570, 21857.00
940.6780, 21978.00
941.7980, 21743.00
942.9180, 21778.00
944.0380, 21886.00
945.1580, 21971.00
946.2780, 21952.00
947.3970, 22173.00
948.5170, 22157.00
949.6360, 22207.00
950.7550, 22474.00
951.8740, 22496.00
952.9930, 22570.00
954.1110, 22747.00
955.2300, 22860.00
956.3480, 22982.00
957.4660, 23299.00
958.5840, 23523.00
959.7020, 23767.00
960.8190, 24398.00
961.9370, 25038.00
963.0540, 25589.00
964.1710, 26510.00
965.2880, 27674.00
966.4050, 28825.00
967.5220, 30509.00
968.6380, 32102.00
969.7550, 33980.00
970.8710, 35454.00
971.9870, 36857.00
973.1030, 37880.00
974.2190, 39420.00
975.3340, 39834.00
976.4500, 40579.00
977.5650, 41096.00
978.6800, 41943.00
979.7950, 42901.00
980.9100, 44151.00
982.0250, 45967.00
983.1390, 47514.00
984.2530, 49625.00
985.3680, 51108.00
986.4820, 52975.00
987.5950, 53757.00
988.7090, 54194.00
989.8230, 54099.00
990.9360, 53347.00
992.0490, 52749.00
993.1620, 51660.00
994.2750, 50454.00
995.3880, 48753.00
996.5010, 47614.00
997.6130, 45732.00
998.7250, 44420.00
999.8370, 43084.00
1000.949, 42137.00
1002.061, 40794.00
1003.173, 39821.00
1004.284, 38740.00
1005.396, 37717.00
1006.507, 36843.39
1007.618, 36006.59
1008.729, 35264.00
1009.839, 34586.00
1010.950, 34121.00
1012.060, 33555.00
1013.171, 32592.00
1014.281, 32163.00
1015.391, 31497.00
1016.500, 31039.00
1017.610, 30252.00
1018.719, 29894.00
1019.829, 29463.00
1020.938, 28881.00
1022.047, 28738.00
1023.156, 28318.00
1024.264, 28040.00
1025.373, 27912.00
1026.481, 27789.25
1027.589, 27688.00
1028.697, 27865.00
1029.805, 27839.00
1030.913, 28038.00
1032.020, 27996.00
1033.128, 28031.00
1034.235, 28255.00
1035.342, 28429.00
1036.449, 28582.00
1037.556, 28575.00
1038.663, 28733.18
1039.769, 28708.00
1040.875, 28919.00
1041.981, 29094.00
1043.087, 29195.00
1044.193, 29259.00
1045.299, 29448.00
1046.404, 29217.00
1047.510, 29413.00
1048.615, 29557.00
1049.720, 29124.00
1050.825, 29318.00
1051.930, 29411.00
1053.034, 29309.00
1054.139, 29133.00
1055.243, 29052.00
1056.347, 29162.00
1057.451, 29157.00
1058.555, 29214.00
1059.658, 29320.38
1060.762, 29410.00
1061.865, 29533.00
1062.968, 29715.00
1064.071, 29833.00
1065.174, 30069.00
1066.277, 30245.17
1067.380, 30375.00
1068.482, 30693.00
1069.584, 31004.00
1070.686, 31314.00
1071.788, 31952.00
1072.890, 32329.00
1073.992, 32780.00
1075.093, 33197.00
1076.194, 33758.00
1077.295, 34342.00
1078.396, 34930.00
1079.497, 35355.00
1080.598, 36019.00
1081.698, 36502.00
1082.799, 37036.00
1083.899, 37395.28
1084.999, 37757.00
1086.099, 37950.00
1087.199, 38133.00
1088.298, 38294.00
1089.398, 38221.00
1090.497, 38270.00
1091.596, 38058.00
1092.695, 37626.00
1093.794, 37376.00
1094.892, 37019.00
1095.991, 36305.00
1097.089, 35980.00
1098.187, 35295.00
1099.285, 34761.00
1100.383, 34193.00
1101.481, 33527.00
1102.579, 33198.00
1103.676, 32973.00
1104.773, 32904.00
1105.870, 32357.00
1106.967, 32300.00
1108.064, 32116.00
1109.161, 32249.00
1110.257, 32053.00
1111.353, 32157.00
1112.449, 31811.00
1113.545, 31894.00
1114.641, 32018.00
1115.737, 32070.00
1116.832, 32161.00
1117.928, 31930.00
1119.023, 32200.00
1120.118, 32228.00
1121.213, 31930.00
1122.308, 32289.00
1123.402, 31663.00
1124.497, 31883.00
1125.591, 31553.00
1126.685, 31695.00
1127.779, 31266.00
1128.873, 31371.00
1129.967, 30941.00
1131.060, 30881.00
1132.153, 30900.00
1133.247, 30576.00
1134.340, 31171.00
1135.433, 30761.00
1136.525, 30573.00
1137.618, 31074.00
1138.710, 30290.00
1139.802, 30447.00
1140.895, 30351.00
1141.987, 30166.00
1143.078, 30324.00
1144.170, 30425.00
1145.261, 30363.52
1146.353, 30416.00
1147.444, 30393.00
1148.535, 30566.00
1149.626, 30641.00
1150.716, 30467.00
1151.807, 30430.00
1152.897, 30156.00
1153.988, 30282.00
1155.078, 30530.00
1156.168, 30436.00
1157.257, 30588.00
1158.347, 30322.00
1159.436, 30729.00
1160.526, 30759.00
1161.615, 30478.00
1162.704, 30613.00
1163.793, 30502.00
1164.881, 30492.00
1165.970, 30648.00
1167.058, 30635.00
1168.147, 30426.00
1169.235, 30569.00
1170.323, 30535.00
1171.410, 30256.00
1172.498, 30520.00
1173.585, 30380.00
1174.673, 30213.00
1175.760, 30194.00
1176.847, 30128.00
1177.934, 30069.00
1179.020, 30033.60
1180.107, 30148.00
1181.193, 29916.00
1182.279, 29974.00
1183.365, 29863.00
1184.451, 29558.00
1185.537, 29830.00
1186.623, 29804.00
1187.708, 29593.00
1188.793, 29801.00
1189.878, 29297.00
1190.963, 29475.00
1192.048, 29461.00
1193.133, 29451.00
1194.217, 29547.00
1195.302, 29606.00
1196.386, 29448.00
1197.470, 29376.00
1198.554, 29440.00
1199.638, 29321.00
1200.721, 29385.00
1201.805, 29383.00
1202.888, 29336.30
1203.971, 29474.00
1205.054, 29359.00
1206.137, 29367.00
1207.219, 29533.00
1208.302, 29495.00
1209.384, 29400.00
1210.466, 29637.00
1211.548, 29563.00
1212.630, 29414.00
1213.712, 29645.00
1214.794, 29338.00
1215.875, 29697.00
1216.956, 29729.00
1218.037, 29772.00
1219.118, 29511.00
1220.199, 29662.00
1221.280, 29582.00
1222.360, 29662.00
1223.441, 29732.00
1224.521, 29718.00
1225.601, 29854.00
1226.681, 30105.00
1227.760, 29819.00
1228.840, 29937.00
1229.919, 30136.00
1230.999, 29727.00
1232.078, 30091.00
1233.157, 30049.00
1234.236, 30110.00
1235.314, 30075.00
1236.393, 30092.00
1237.471, 29936.00
1238.549, 30120.00
1239.627, 30076.00
1240.705, 30211.00
1241.783, 30218.00
1242.860, 30197.00
1243.938, 30114.00
1245.015, 30170.00
1246.092, 30150.64
1247.169, 30301.00
1248.246, 30227.00
1249.323, 30326.00
1250.399, 30451.00
1251.475, 30407.00
1252.552, 30509.00
1253.628, 30286.00
1254.703, 30577.00
1255.779, 30518.00
1256.855, 30701.00
1257.930, 30761.00
1259.005, 30824.00
1260.080, 30603.00
1261.155, 30816.00
1262.230, 30953.00
1263.305, 30642.00
1264.379, 30843.00
1265.454, 30808.00
1266.528, 31084.00
1267.602, 30845.00
1268.676, 31091.00
1269.750, 30990.00
1270.823, 31027.00
1271.897, 31278.00
1272.970, 31565.00
1274.043, 31463.00
1275.116, 31770.00
1276.189, 31699.00
1277.261, 31712.00
1278.334, 31787.00
1279.406, 31614.00
1280.478, 31624.00
1281.550, 31574.00
1282.622, 31310.00
1283.694, 31541.00
1284.766, 31808.00
1285.837, 31573.00
1286.908, 31759.00
1287.979, 31654.00
1289.050, 31813.00
1290.121, 32028.00
1291.192, 31911.00
1292.262, 31842.00
1293.333, 32012.00
1294.403, 32088.00
1295.473, 32161.00
1296.543, 32306.00
1297.613, 32197.00
1298.682, 32416.00
1299.752, 32404.00
1300.821, 32185.00
1301.890, 32554.00
1302.959, 32463.00
1304.028, 32489.00
1305.096, 32390.00
1306.165, 32703.00
1307.233, 32572.00
1308.301, 32675.00
1309.370, 32768.00
1310.437, 32765.00
1311.505, 32811.00
1312.573, 32849.00
1313.640, 32941.00
1314.708, 33027.00
1315.775, 33047.00
1316.842, 32836.00
1317.908, 33104.00
1318.975, 33295.00
1320.042, 33008.00
1321.108, 33338.00
1322.174, 33290.00
1323.240, 33417.00
1324.306, 33458.00
1325.372, 33402.00
1326.438, 33310.00
1327.503, 33594.00
1328.568, 33551.00
1329.634, 33345.00
1330.699, 33750.00
1331.763, 33875.00
1332.828, 33936.18
1333.893, 33850.00
1334.957, 34236.00
1336.021, 34002.00
1337.085, 34260.00
1338.149, 34183.00
1339.213, 34259.00
1340.277, 34310.00
1341.340, 34310.00
1342.404, 34444.00
1343.467, 34476.00
1344.530, 34528.00
1345.593, 34377.00
1346.655, 34559.00
1347.718, 34634.00
1348.780, 34462.00
1349.843, 34600.00
1350.905, 34704.00
1351.967, 34559.00
1353.028, 34979.00
1354.090, 34670.00
1355.152, 34442.00
1356.213, 34539.00
1357.274, 34684.00
1358.335, 34856.00
1359.396, 34754.00
1360.457, 34859.00
1361.517, 34858.00
1362.578, 34792.00
1363.638, 34748.00
1364.698, 34880.00
1365.758, 35048.00
1366.818, 35094.00
1367.878, 35202.00
1368.937, 35139.00
1369.997, 35005.00
1371.056, 35069.00
1372.115, 35164.00
1373.174, 35430.00
1374.232, 35577.00
1375.291, 35254.00
1376.350, 35677.00
1377.408, 35565.00
1378.466, 35889.00
1379.524, 36164.00
1380.582, 36149.00
1381.640, 36007.00
1382.697, 36060.00
1383.754, 35787.00
1384.812, 35640.00
1385.869, 35359.00
1386.926, 35249.77
1387.983, 35391.00
1389.039, 35134.00
1390.096, 35319.00
1391.152, 35518.00
1392.208, 35344.00
1393.264, 35391.00
1394.320, 35672.00
1395.376, 35652.00
1396.431, 35488.00
1397.487, 35716.00
1398.542, 35731.00
1399.597, 35869.00
1400.652, 35799.00
1401.707, 35746.00
1402.762, 35694.00
1403.816, 35763.00
1404.871, 35663.00
1405.925, 35940.00
1406.979, 35757.00
1408.033, 35854.00
1409.086, 36030.00
1410.140, 36063.00
1411.194, 35890.00
1412.247, 36066.00
1413.300, 36044.00
1414.353, 36236.00
1415.406, 36391.00
1416.458, 36256.00
1417.511, 35988.00
1418.563, 36359.00
1419.616, 36499.00
1420.668, 36176.00
1421.720, 36420.00
1422.772, 36339.00
1423.823, 36384.00
1424.875, 36343.00
1425.926, 36510.00
1426.977, 36698.00
1428.028, 36848.00
1429.079, 36782.00
1430.130, 36783.00
1431.180, 36815.00
1432.231, 37052.00
1433.281, 37114.00
1434.331, 37137.00
1435.381, 37194.00
1436.431, 37264.00
1437.481, 37195.00
1438.530, 37236.00
1439.580, 37322.00
1440.629, 37371.00
1441.678, 37651.00
1442.727, 37507.00
1443.776, 37782.00
1444.824, 37467.00
1445.873, 37579.00
1446.921, 37708.00
1447.969, 37392.00
1449.017, 37819.00
1450.065, 37707.00
1451.113, 37503.00
1452.160, 37710.00
1453.208, 37858.00
1454.255, 37799.00
1455.302, 37778.00
1456.349, 38019.00
1457.396, 38051.00
1458.443, 37871.00
1459.489, 38127.00
1460.535, 37764.00
1461.582, 38097.00
1462.628, 37893.00
1463.674, 37891.00
1464.719, 38062.00
1465.765, 38049.00
1466.810, 37977.00
1467.856, 38070.00
1468.901, 38001.34
1469.946, 38112.00
1470.991, 38036.00
1472.035, 38063.00
1473.080, 38274.00
1474.124, 38333.00
1475.169, 38317.96
1476.213, 38353.45
1477.257, 38251.00
1478.300, 38281.00
1479.344, 38275.00
1480.388, 38282.00
1481.431, 38484.00
1482.474, 38456.00
1483.517, 38477.00
1484.560, 38463.00
1485.603, 38435.00
1486.645, 38565.00
1487.688, 38617.00
1488.730, 38524.00
1489.772, 38568.00
1490.814, 38698.00
1491.856, 38340.00
1492.898, 38820.00
1493.939, 38858.00
1494.981, 39058.00
1496.022, 38770.00
1497.063, 38900.00
1498.104, 38787.00
1499.145, 38928.00
1500.186, 39015.00
1501.226, 38882.00
1502.266, 38927.00
1503.307, 39072.00
1504.347, 39093.00
1505.387, 39099.00
1506.426, 39098.00
1507.466, 39360.00
1508.505, 39265.00
1509.545, 39461.00
1510.584, 39230.00
1511.623, 39443.00
1512.662, 39641.00
1513.700, 39593.00
1514.739, 39691.00
1515.777, 39594.00
1516.815, 39772.00
1517.854, 39562.00
1518.892, 40089.00
1519.929, 39940.00
1520.967, 39943.00
1522.004, 39841.00
1523.042, 40083.00
1524.079, 40007.00
1525.116, 39919.00
1526.153, 40314.00
1527.190, 40425.00
1528.226, 40149.00
1529.263, 40269.00
1530.299, 40140.00
1531.335, 40275.00
1532.371, 40213.00
1533.407, 40172.00
1534.443, 40501.00
1535.478, 40511.00
1536.514, 40544.00
1537.549, 40426.00
1538.584, 40766.00
1539.619, 40524.00
1540.654, 40916.00
1541.689, 40848.00
1542.723, 40997.00
1543.757, 40975.00
1544.792, 40828.00
1545.826, 41012.00
1546.860, 41251.00
1547.893, 41304.00
1548.927, 41147.00
1549.960, 41058.00
1550.994, 41181.00
1552.027, 41194.55
1553.060, 41357.00
1554.093, 41496.00
1555.126, 41665.00
1556.158, 41680.49
1557.191, 41423.00
1558.223, 41709.00
1559.255, 41584.00
1560.287, 41635.00
1561.319, 41721.00
1562.350, 42154.00
##END=



