##NAMES=Hauyne
##RRUFFID=R050606
##IDEAL CHEMISTRY=Na_3_Ca(Si_3_Al_3_)O_12_(S^6+^O_4_)
##LOCALITY=Ariccia, near Rome, Italy
##OWNER=RRUFF
##SOURCE=University of Arizona Mineral Museum
##DESCRIPTION=Blue crystal embedded in calcite
##STATUS=The identification of this mineral has been confirmed only by X-ray diffraction
##URL=rruff.info/R050606
##PIN_ID=M01913
##ORIENTATION=Laser parallel to c* (0 0 1). Fiducial mark perpendicular to laser is parallel to a [1 0 0]
235.6830, 12481.00
236.9020, 12493.00
238.1200, 12373.00
239.3390, 12454.00
240.5570, 12350.00
241.7750, 12475.00
242.9930, 12091.00
244.2110, 12299.00
245.4290, 12216.00
246.6460, 12314.00
247.8630, 12282.00
249.0810, 12275.74
250.2980, 12158.00
251.5140, 12266.00
252.7310, 12090.00
253.9470, 12081.00
255.1640, 12023.00
256.3800, 12173.00
257.5960, 11981.00
258.8120, 12146.00
260.0270, 12238.00
261.2430, 12118.00
262.4580, 11915.00
263.6730, 12034.00
264.8880, 11872.00
266.1030, 11871.00
267.3170, 11848.00
268.5320, 11770.00
269.7460, 11817.00
270.9600, 11775.00
272.1740, 11717.00
273.3880, 11764.00
274.6010, 11807.00
275.8150, 11792.25
277.0280, 11821.13
278.2410, 11790.00
279.4540, 11847.00
280.6670, 11798.00
281.8790, 11843.00
283.0920, 11832.00
284.3040, 11856.00
285.5160, 11785.00
286.7280, 11767.00
287.9400, 11811.00
289.1510, 11763.00
290.3630, 11649.00
291.5740, 11738.00
292.7850, 11727.00
293.9960, 11749.00
295.2070, 11836.00
296.4170, 11730.00
297.6280, 11804.00
298.8380, 11703.00
300.0480, 11596.00
301.2580, 11628.00
302.4680, 11649.00
303.6770, 11753.00
304.8870, 11712.00
306.0960, 11716.00
307.3050, 11736.00
308.5140, 11670.00
309.7230, 11831.00
310.9310, 11761.00
312.1400, 11791.00
313.3480, 11899.00
314.5560, 11961.00
315.7640, 11914.00
316.9720, 11935.00
318.1790, 12040.00
319.3870, 12113.00
320.5940, 12038.00
321.8010, 11935.00
323.0080, 11928.00
324.2150, 11896.00
325.4210, 11851.57
326.6280, 11867.00
327.8340, 11801.00
329.0400, 11747.00
330.2460, 11724.20
331.4510, 11831.00
332.6570, 11766.00
333.8620, 11883.00
335.0680, 11930.00
336.2730, 11925.00
337.4780, 11973.73
338.6820, 11993.40
339.8870, 12004.00
341.0910, 12037.00
342.2950, 12091.86
343.5000, 12101.00
344.7030, 12122.00
345.9070, 12146.00
347.1110, 12184.68
348.3140, 12148.00
349.5170, 12270.00
350.7200, 12284.29
351.9230, 12310.00
353.1260, 12427.00
354.3290, 12516.00
355.5310, 12595.00
356.7330, 12552.00
357.9350, 12567.00
359.1370, 12559.00
360.3390, 12765.00
361.5400, 12784.00
362.7420, 12880.00
363.9430, 12898.00
365.1440, 13067.00
366.3450, 13083.00
367.5460, 13021.00
368.7460, 13124.00
369.9470, 13283.00
371.1470, 13125.00
372.3470, 13260.00
373.5470, 13241.00
374.7460, 13395.00
375.9460, 13315.00
377.1450, 13369.00
378.3450, 13530.00
379.5440, 13573.00
380.7430, 13626.00
381.9410, 13536.00
383.1400, 13652.00
384.3380, 13663.00
385.5370, 13855.00
386.7350, 13714.00
387.9320, 13713.00
389.1300, 13813.00
390.3280, 13786.00
391.5250, 13722.00
392.7220, 13964.00
393.9190, 13722.00
395.1160, 13983.00
396.3130, 13834.00
397.5100, 13965.00
398.7060, 14084.00
399.9020, 14450.00
401.0980, 14215.00
402.2940, 14404.00
403.4900, 14434.00
404.6860, 14836.00
405.8810, 14958.00
407.0760, 15103.00
408.2710, 15399.00
409.4660, 15493.00
410.6610, 15731.00
411.8550, 16134.00
413.0500, 16480.00
414.2440, 16782.00
415.4380, 17440.00
416.6320, 17548.00
417.8260, 18166.00
419.0190, 18703.00
420.2130, 19378.00
421.4060, 20081.37
422.5990, 20784.00
423.7920, 21657.00
424.9850, 22664.00
426.1770, 23642.00
427.3700, 24970.00
428.5620, 26130.00
429.7540, 27661.00
430.9460, 28777.00
432.1380, 29358.00
433.3290, 30142.00
434.5210, 30384.00
435.7120, 30193.00
436.9030, 29886.00
438.0940, 29311.00
439.2850, 28114.00
440.4750, 27115.00
441.6660, 26213.00
442.8560, 25043.00
444.0460, 24131.00
445.2360, 23130.00
446.4260, 22461.00
447.6160, 21722.00
448.8050, 21098.00
449.9940, 20719.00
451.1830, 20307.00
452.3720, 19755.00
453.5610, 19329.00
454.7500, 19272.00
455.9380, 19047.00
457.1260, 18762.00
458.3150, 18502.00
459.5020, 18287.00
460.6900, 18059.40
461.8780, 17876.96
463.0650, 17676.00
464.2530, 17555.00
465.4400, 17399.00
466.6270, 17269.00
467.8130, 17259.00
469.0000, 16944.00
470.1870, 17016.00
471.3730, 16966.00
472.5590, 16764.00
473.7450, 16833.00
474.9310, 16482.00
476.1160, 16717.00
477.3020, 16497.48
478.4870, 16424.39
479.6720, 16246.00
480.8570, 16363.00
482.0420, 16259.00
483.2270, 16459.00
484.4110, 16174.00
485.5960, 16266.00
486.7800, 16050.00
487.9640, 16162.00
489.1480, 16194.00
490.3310, 16037.00
491.5150, 16021.00
492.6980, 15810.00
493.8810, 15817.00
495.0640, 15749.00
496.2470, 15594.00
497.4300, 15875.00
498.6120, 15690.00
499.7950, 15806.00
500.9770, 15725.00
502.1590, 15731.00
503.3410, 15658.00
504.5220, 15674.00
505.7040, 15700.00
506.8850, 15689.00
508.0660, 15633.00
509.2470, 15750.00
510.4280, 15757.00
511.6090, 15668.00
512.7890, 15871.00
513.9700, 15989.00
515.1500, 15749.00
516.3300, 15906.00
517.5100, 15844.00
518.6900, 15857.00
519.8690, 16042.00
521.0490, 16024.46
522.2280, 16060.00
523.4070, 16121.00
524.5860, 16164.55
525.7640, 16233.00
526.9430, 16334.00
528.1210, 16434.00
529.3000, 16577.00
530.4780, 16572.00
531.6560, 16992.00
532.8330, 16910.00
534.0110, 17162.00
535.1880, 17594.00
536.3650, 17796.00
537.5430, 18215.00
538.7190, 18654.00
539.8960, 19147.00
541.0730, 19632.00
542.2490, 20252.00
543.4250, 20782.00
544.6020, 21183.00
545.7780, 21448.00
546.9530, 22053.00
548.1290, 21837.00
549.3040, 21521.00
550.4800, 20908.00
551.6550, 19981.00
552.8300, 19309.00
554.0040, 18789.00
555.1790, 18252.00
556.3540, 17983.00
557.5280, 17761.00
558.7020, 17349.00
559.8760, 17265.00
561.0500, 17001.00
562.2230, 16961.00
563.3970, 16911.00
564.5700, 16994.00
565.7430, 16941.00
566.9160, 16943.00
568.0890, 16953.00
569.2620, 16983.00
570.4340, 17041.00
571.6070, 17130.00
572.7790, 17247.00
573.9510, 17383.00
575.1230, 17364.00
576.2940, 17421.00
577.4660, 17563.00
578.6370, 17515.00
579.8080, 17521.00
580.9790, 17550.00
582.1500, 17756.00
583.3210, 17698.00
584.4910, 17968.00
585.6620, 17908.00
586.8320, 17924.00
588.0020, 18128.00
589.1720, 17940.00
590.3410, 18101.00
591.5110, 18277.00
592.6800, 18249.00
593.8500, 18098.00
595.0190, 18333.00
596.1880, 18468.00
597.3560, 18762.00
598.5250, 18839.00
599.6930, 18954.00
600.8620, 19242.00
602.0300, 19433.00
603.1970, 19586.00
604.3650, 19789.00
605.5330, 19962.00
606.7000, 20328.00
607.8680, 20599.00
609.0350, 20605.00
610.2020, 20598.00
611.3680, 20724.00
612.5350, 20597.00
613.7010, 20547.00
614.8680, 20531.00
616.0340, 20577.00
617.2000, 20403.00
618.3660, 20147.00
619.5310, 20209.00
620.6970, 20142.00
621.8620, 19941.00
623.0270, 19596.00
624.1920, 19652.00
625.3570, 19453.00
626.5220, 19415.00
627.6860, 19188.00
628.8500, 19056.00
630.0140, 19160.00
631.1780, 18979.00
632.3420, 19105.00
633.5060, 18827.00
634.6700, 19177.00
635.8330, 19237.00
636.9960, 19015.00
638.1590, 19037.00
639.3220, 19077.00
640.4850, 19142.00
641.6470, 19288.00
642.8100, 19312.90
643.9720, 19298.00
645.1340, 19440.00
646.2960, 19419.00
647.4570, 19499.00
648.6190, 19427.00
649.7800, 19358.00
650.9420, 19509.00
652.1030, 19191.00
653.2640, 19381.00
654.4240, 19222.00
655.5850, 19227.00
656.7450, 19096.00
657.9060, 19181.00
659.0660, 19195.00
660.2260, 19191.00
661.3850, 18940.00
662.5450, 19282.00
663.7040, 19060.00
664.8640, 19211.00
666.0230, 19023.00
667.1820, 19063.00
668.3410, 18953.00
669.4990, 19173.00
670.6580, 19220.00
671.8160, 19267.00
672.9740, 19301.00
674.1320, 19357.00
675.2900, 19324.71
676.4480, 19261.00
677.6050, 19321.00
678.7630, 19319.00
679.9200, 19470.00
681.0770, 19422.00
682.2340, 19320.00
683.3900, 19218.00
684.5470, 19591.00
685.7030, 19485.00
686.8590, 19510.00
688.0150, 19467.00
689.1710, 19511.28
690.3270, 19369.00
691.4830, 19633.00
692.6380, 19590.00
693.7930, 19623.00
694.9480, 19878.00
696.1030, 19792.00
697.2580, 19761.00
698.4130, 19926.00
699.5670, 19915.00
700.7210, 19858.00
701.8750, 19931.00
703.0290, 19907.00
704.1830, 20015.00
705.3370, 20154.00
706.4900, 20052.00
707.6430, 20119.00
708.7970, 20092.00
709.9490, 20103.00
711.1020, 20176.04
712.2550, 20209.65
713.4070, 20321.00
714.5600, 20356.00
715.7120, 20443.00
716.8640, 20522.00
718.0160, 20382.00
719.1670, 20762.00
720.3190, 20461.00
721.4700, 20698.00
722.6210, 20566.00
723.7720, 20681.00
724.9230, 20791.00
726.0740, 20774.00
727.2250, 20969.00
728.3750, 20781.00
729.5250, 20848.00
730.6750, 20694.00
731.8250, 20912.00
732.9750, 20895.00
734.1240, 20867.00
735.2740, 20938.00
736.4230, 20952.00
737.5720, 21016.00
738.7210, 21121.00
739.8700, 20926.00
741.0190, 20904.00
742.1670, 21083.00
743.3150, 21305.00
744.4630, 21082.00
745.6110, 21190.00
746.7590, 21287.00
747.9070, 21229.00
749.0540, 21414.00
750.2020, 21571.00
751.3490, 21524.00
752.4960, 21570.00
753.6430, 21591.14
754.7890, 21478.00
755.9360, 21533.00
757.0820, 21568.00
758.2280, 21434.00
759.3740, 21813.00
760.5200, 21687.00
761.6660, 21776.00
762.8120, 21664.00
763.9570, 21880.00
765.1020, 21754.00
766.2470, 21959.00
767.3920, 21990.00
768.5370, 21913.00
769.6810, 21949.00
770.8260, 21902.00
771.9700, 22015.00
773.1140, 22033.00
774.2580, 22247.00
775.4020, 21978.00
776.5460, 22250.00
777.6890, 22162.00
778.8320, 22259.00
779.9750, 22430.00
781.1180, 22357.00
782.2610, 22436.00
783.4040, 22335.00
784.5460, 22472.00
785.6890, 22516.00
786.8310, 22594.00
787.9730, 22537.00
789.1150, 22554.00
790.2560, 22708.00
791.3980, 22540.00
792.5390, 22837.00
793.6810, 22750.00
794.8220, 23060.00
795.9630, 22933.00
797.1030, 23020.00
798.2440, 23096.00
799.3840, 23025.00
800.5240, 23130.00
801.6650, 23118.00
802.8040, 23160.00
803.9440, 23151.00
805.0840, 23236.00
806.2230, 23272.73
807.3630, 23378.00
808.5020, 23350.00
809.6410, 23448.24
810.7790, 23397.24
811.9180, 23582.00
813.0570, 23440.00
814.1950, 23613.00
815.3330, 23689.00
816.4710, 23745.00
817.6090, 23747.00
818.7470, 23831.00
819.8840, 23848.19
821.0220, 23835.00
822.1590, 23864.00
823.2960, 23860.00
824.4330, 23904.22
825.5690, 23913.00
826.7060, 24036.00
827.8420, 24055.00
828.9790, 24195.00
830.1150, 23949.00
831.2510, 24211.00
832.3860, 24279.00
833.5220, 24184.00
834.6570, 24342.00
835.7930, 24388.00
836.9280, 24282.00
838.0630, 24283.00
839.1980, 24486.00
840.3320, 24465.00
841.4670, 24613.00
842.6010, 24572.00
843.7350, 24355.00
844.8690, 24807.00
846.0030, 24897.00
847.1370, 24706.00
848.2700, 24667.00
849.4040, 24758.00
850.5370, 24919.00
851.6700, 24832.00
852.8030, 24776.00
853.9360, 25035.00
855.0680, 25151.00
856.2000, 24849.00
857.3330, 25218.00
858.4650, 25385.00
859.5970, 25170.00
860.7290, 25175.00
861.8600, 25165.00
862.9920, 25368.00
864.1230, 25378.00
865.2540, 25475.00
866.3850, 25494.00
867.5160, 25382.00
868.6460, 25553.00
869.7770, 25513.00
870.9070, 25585.00
872.0370, 25756.00
873.1670, 25746.00
874.2970, 25627.00
875.4270, 25616.00
876.5570, 25885.00
877.6860, 25850.00
878.8150, 25962.00
879.9440, 25914.00
881.0730, 25920.00
882.2020, 26022.00
883.3300, 26124.00
884.4590, 26116.00
885.5870, 26038.00
886.7150, 26091.00
887.8430, 26148.00
888.9710, 26310.00
890.0990, 26308.00
891.2260, 26210.00
892.3530, 26170.00
893.4810, 26111.00
894.6080, 26146.59
895.7340, 26356.00
896.8610, 26226.00
897.9880, 26442.00
899.1140, 26419.00
900.2400, 26689.00
901.3660, 26725.00
902.4920, 26703.00
903.6180, 26675.00
904.7430, 26825.00
905.8690, 26754.00
906.9940, 26813.00
908.1190, 27038.00
909.2440, 26798.00
910.3690, 27220.00
911.4930, 27072.00
912.6180, 27047.00
913.7420, 27059.00
914.8660, 26940.00
915.9900, 27265.00
917.1140, 27321.00
918.2380, 27107.00
919.3610, 27519.00
920.4850, 27500.00
921.6080, 27584.00
922.7310, 27375.00
923.8540, 27595.00
924.9760, 27688.00
926.0990, 27681.00
927.2210, 27829.00
928.3440, 28112.00
929.4660, 27806.00
930.5880, 27655.00
931.7090, 28002.00
932.8310, 28073.00
933.9520, 28068.00
935.0740, 28220.00
936.1950, 28286.00
937.3160, 28157.00
938.4360, 28415.00
939.5570, 28307.00
940.6780, 28315.00
941.7980, 28571.00
942.9180, 28491.00
944.0380, 28536.00
945.1580, 28646.00
946.2780, 28760.00
947.3970, 28765.00
948.5170, 28747.00
949.6360, 29100.00
950.7550, 28958.00
951.8740, 29211.00
952.9930, 29527.00
954.1110, 29400.00
955.2300, 29826.00
956.3480, 29904.00
957.4660, 30241.00
958.5840, 30522.00
959.7020, 30720.00
960.8190, 31122.00
961.9370, 31791.00
963.0540, 32396.00
964.1710, 33344.00
965.2880, 34300.00
966.4050, 35658.93
967.5220, 37246.00
968.6380, 38974.00
969.7550, 41057.00
970.8710, 43315.00
971.9870, 45558.00
973.1030, 48075.00
974.2190, 50388.00
975.3340, 52222.00
976.4500, 54051.00
977.5650, 54767.00
978.6800, 55007.00
979.7950, 54390.00
980.9100, 54045.00
982.0250, 53280.00
983.1390, 52959.00
984.2530, 53118.00
985.3680, 53781.00
986.4820, 54052.00
987.5950, 54779.00
988.7090, 54703.00
989.8230, 54756.00
990.9360, 54081.00
992.0490, 53596.00
993.1620, 52619.00
994.2750, 51629.00
995.3880, 50969.00
996.5010, 50448.59
997.6130, 50651.00
998.7250, 49982.00
999.8370, 50157.00
1000.949, 50438.00
1002.061, 50336.00
1003.173, 50052.18
1004.284, 49659.00
1005.396, 49042.00
1006.507, 47739.00
1007.618, 46977.00
1008.729, 45457.00
1009.839, 44487.00
1010.950, 43088.00
1012.060, 42015.00
1013.171, 41219.00
1014.281, 40337.00
1015.391, 39189.00
1016.500, 38665.00
1017.610, 37792.00
1018.719, 37469.00
1019.829, 36644.00
1020.938, 36497.00
1022.047, 36313.00
1023.156, 36170.00
1024.264, 36060.00
1025.373, 35892.00
1026.481, 36265.00
1027.589, 35990.00
1028.697, 36029.00
1029.805, 36246.00
1030.913, 36166.00
1032.020, 36097.00
1033.128, 36222.00
1034.235, 36031.00
1035.342, 36170.00
1036.449, 36229.00
1037.556, 36228.00
1038.663, 36021.00
1039.769, 36090.00
1040.875, 36123.00
1041.981, 35918.00
1043.087, 35937.00
1044.193, 35647.00
1045.299, 35869.00
1046.404, 35794.00
1047.510, 35574.00
1048.615, 35375.00
1049.720, 35587.00
1050.825, 35596.00
1051.930, 35484.00
1053.034, 35504.00
1054.139, 35303.00
1055.243, 35375.00
1056.347, 35519.00
1057.451, 35388.00
1058.555, 35581.00
1059.658, 35531.00
1060.762, 35304.00
1061.865, 35573.00
1062.968, 35389.00
1064.071, 35520.00
1065.174, 35409.00
1066.277, 35497.00
1067.380, 35515.00
1068.482, 36030.00
1069.584, 35855.00
1070.686, 35999.00
1071.788, 36421.00
1072.890, 36238.00
1073.992, 36341.00
1075.093, 36223.00
1076.194, 36535.00
1077.295, 36800.00
1078.396, 36843.00
1079.497, 36937.00
1080.598, 36819.00
1081.698, 37167.00
1082.799, 37367.00
1083.899, 37270.00
1084.999, 37598.00
1086.099, 37763.00
1087.199, 37716.00
1088.298, 37926.00
1089.398, 37838.00
1090.497, 38086.00
1091.596, 38032.00
1092.695, 38149.00
1093.794, 38098.00
1094.892, 38134.30
1095.991, 38317.00
1097.089, 38151.00
1098.187, 38214.00
1099.285, 38172.00
1100.383, 38142.00
1101.481, 38060.00
1102.579, 38128.00
1103.676, 37796.00
1104.773, 37955.00
1105.870, 37708.00
1106.967, 38004.00
1108.064, 37749.00
1109.161, 37672.00
1110.257, 37944.00
1111.353, 37844.00
1112.449, 37784.00
1113.545, 38019.00
1114.641, 38023.00
1115.737, 38065.00
1116.832, 37986.00
1117.928, 38129.00
1119.023, 38312.00
1120.118, 38510.00
1121.213, 38395.00
1122.308, 38565.82
1123.402, 38710.00
1124.497, 38616.00
1125.591, 38693.00
1126.685, 38585.00
1127.779, 38664.00
1128.873, 38837.00
1129.967, 38660.00
1131.060, 38912.00
1132.153, 38881.00
1133.247, 38883.00
1134.340, 39006.00
1135.433, 38901.00
1136.525, 39044.00
1137.618, 39093.00
1138.710, 39167.00
1139.802, 39308.00
1140.895, 39378.00
1141.987, 39428.00
1143.078, 39525.00
1144.170, 39603.00
1145.261, 39557.00
1146.353, 39747.00
1147.444, 39648.00
1148.535, 39945.00
1149.626, 40077.00
1150.716, 39925.00
1151.807, 39979.00
1152.897, 40003.10
1153.988, 40160.00
1155.078, 40065.00
1156.168, 40191.00
1157.257, 40243.00
1158.347, 40113.00
1159.436, 40179.00
1160.526, 40215.77
1161.615, 40222.76
1162.704, 40360.00
1163.793, 40368.00
1164.881, 40445.00
1165.970, 40599.00
1167.058, 40228.00
1168.147, 40676.00
1169.235, 40480.00
1170.323, 40251.00
1171.410, 40384.00
1172.498, 40478.00
1173.585, 40189.00
1174.673, 40457.00
1175.760, 40495.00
1176.847, 40332.00
1177.934, 40226.00
1179.020, 40345.00
1180.107, 40298.00
1181.193, 40054.00
1182.279, 40307.00
1183.365, 40178.00
1184.451, 40392.00
1185.537, 40404.00
1186.623, 40316.00
1187.708, 40124.00
1188.793, 40282.00
1189.878, 40345.00
1190.963, 40518.00
1192.048, 40398.00
1193.133, 40481.00
1194.217, 40222.00
1195.302, 40563.00
1196.386, 40633.00
1197.470, 40295.00
1198.554, 40493.00
1199.638, 40556.00
1200.721, 40899.00
1201.805, 40784.00
1202.888, 40901.00
1203.971, 40683.00
1205.054, 40691.00
1206.137, 40700.00
1207.219, 40757.00
1208.302, 40985.00
1209.384, 40859.00
1210.466, 41210.00
1211.548, 41028.00
1212.630, 41295.00
1213.712, 41092.00
1214.794, 41173.00
1215.875, 41345.00
1216.956, 41169.00
1218.037, 41289.00
1219.118, 41161.00
1220.199, 41212.00
1221.280, 41518.00
1222.360, 41705.00
1223.441, 41500.00
1224.521, 41268.00
1225.601, 41794.00
1226.681, 41431.00
1227.760, 41594.00
1228.840, 41914.00
1229.919, 41677.00
1230.999, 41932.00
1232.078, 41570.00
1233.157, 41957.00
1234.236, 41953.00
1235.314, 41970.00
1236.393, 41948.00
1237.471, 42093.00
1238.549, 42159.00
1239.627, 42167.00
1240.705, 42330.00
1241.783, 42352.00
1242.860, 42334.00
1243.938, 42320.00
1245.015, 42383.00
1246.092, 42124.00
1247.169, 42186.00
1248.246, 42499.00
1249.323, 42527.00
1250.399, 42233.00
1251.475, 42726.00
1252.552, 42468.00
1253.628, 42588.00
1254.703, 43030.00
1255.779, 43018.00
1256.855, 42737.00
1257.930, 43103.00
1259.005, 43083.00
1260.080, 43013.00
1261.155, 43139.00
1262.230, 43151.00
1263.305, 42755.00
1264.379, 43513.00
1265.454, 43451.00
1266.528, 43050.00
1267.602, 43624.00
1268.676, 43684.00
1269.750, 43486.00
1270.823, 43664.00
1271.897, 43395.00
1272.970, 43697.00
1274.043, 43788.00
1275.116, 43951.00
1276.189, 43982.00
1277.261, 44075.09
1278.334, 44066.00
1279.406, 44140.00
1280.478, 44152.00
1281.550, 44065.00
1282.622, 44138.00
1283.694, 43929.00
1284.766, 44282.00
1285.837, 44124.00
1286.908, 44441.00
1287.979, 44359.00
1289.050, 44506.00
1290.121, 44599.00
1291.192, 44699.00
1292.262, 44674.00
1293.333, 44644.00
1294.403, 44787.00
1295.473, 44813.00
1296.543, 45013.00
1297.613, 44984.00
1298.682, 45059.00
1299.752, 45337.00
1300.821, 45348.00
1301.890, 45453.00
1302.959, 45548.00
1304.028, 45306.00
1305.096, 45226.00
1306.165, 45466.00
1307.233, 45845.00
1308.301, 45839.00
1309.370, 45885.00
1310.437, 46017.00
1311.505, 46130.00
1312.573, 46171.00
1313.640, 46315.00
1314.708, 46359.98
1315.775, 46446.57
1316.842, 46421.00
1317.908, 46565.00
1318.975, 46478.00
1320.042, 46447.00
1321.108, 46644.00
1322.174, 46593.00
1323.240, 46824.00
1324.306, 46627.00
1325.372, 46428.00
1326.438, 47086.00
1327.503, 46864.00
1328.568, 46995.00
1329.634, 47037.00
1330.699, 47087.00
1331.763, 47021.00
1332.828, 47056.00
1333.893, 47108.05
1334.957, 47142.00
1336.021, 47230.00
1337.085, 47321.00
1338.149, 47363.75
1339.213, 47553.00
1340.277, 47597.00
1341.340, 47729.00
1342.404, 47913.00
1343.467, 47807.00
1344.530, 47767.00
1345.593, 47701.00
1346.655, 48042.00
1347.718, 47880.00
1348.780, 48365.00
1349.843, 48252.00
1350.905, 48385.00
1351.967, 48391.00
1353.028, 48704.00
1354.090, 48493.00
1355.152, 48501.00
1356.213, 48932.00
1357.274, 48798.00
1358.335, 49001.00
1359.396, 48876.00
1360.457, 48750.00
1361.517, 48682.00
1362.578, 49101.00
1363.638, 49144.00
1364.698, 48942.00
1365.758, 48723.00
1366.818, 49220.00
1367.878, 48863.00
1368.937, 49057.00
1369.997, 49175.00
1371.056, 49432.00
1372.115, 49186.00
1373.174, 49336.00
1374.232, 49555.00
1375.291, 49426.00
1376.350, 49649.00
1377.408, 49610.00
1378.466, 49655.00
1379.524, 49608.00
1380.582, 49836.00
1381.640, 50115.00
1382.697, 49878.00
1383.754, 49873.00
1384.812, 50024.00
1385.869, 49635.00
1386.926, 50019.00
1387.983, 50144.00
1389.039, 49953.00
1390.096, 50006.00
1391.152, 50299.00
1392.208, 50404.00
1393.264, 50260.00
1394.320, 50350.00
1395.376, 50287.00
1396.431, 50551.55
1397.487, 50583.59
1398.542, 50942.00
1399.597, 50871.00
1400.652, 50551.00
1401.707, 50784.00
1402.762, 50887.00
1403.816, 50792.00
1404.871, 50998.00
1405.925, 51110.00
1406.979, 50970.00
1408.033, 51157.00
1409.086, 51122.00
1410.140, 51157.00
1411.194, 51422.00
1412.247, 51587.00
1413.300, 51174.00
1414.353, 51314.00
1415.406, 51482.00
1416.458, 51506.00
1417.511, 51984.00
1418.563, 51640.00
1419.616, 51593.00
1420.668, 51993.00
1421.720, 51721.00
1422.772, 52208.00
1423.823, 51898.00
1424.875, 52059.00
1425.926, 52196.00
1426.977, 52288.00
1428.028, 52573.00
1429.079, 52296.00
1430.130, 52338.00
1431.180, 52515.00
1432.231, 52213.00
1433.281, 52272.00
1434.331, 52806.00
1435.381, 52791.00
1436.431, 52897.00
1437.481, 52829.00
1438.530, 52903.00
1439.580, 53010.00
1440.629, 53007.00
1441.678, 53166.00
1442.727, 53298.00
1443.776, 53211.00
1444.824, 53109.00
1445.873, 53499.00
1446.921, 53228.00
1447.969, 53479.00
1449.017, 53484.00
1450.065, 53541.00
1451.113, 53953.00
1452.160, 53602.00
1453.208, 53546.00
1454.255, 53962.00
1455.302, 54281.00
1456.349, 54026.00
1457.396, 54091.00
1458.443, 54458.00
1459.489, 53978.00
1460.535, 54469.00
1461.582, 54520.00
1462.628, 54228.00
1463.674, 54505.00
1464.719, 54389.00
1465.765, 54751.00
1466.810, 54817.00
1467.856, 55030.00
1468.901, 54647.00
1469.946, 54790.00
1470.991, 54763.00
1472.035, 54890.00
1473.080, 54610.00
1474.124, 54780.00
1475.169, 54921.00
1476.213, 54959.00
1477.257, 55309.00
1478.300, 55135.00
1479.344, 55313.00
1480.388, 55202.00
1481.431, 55217.00
1482.474, 55635.00
1483.517, 55565.00
1484.560, 55635.00
1485.603, 55431.00
1486.645, 55531.28
1487.688, 55770.00
1488.730, 55722.00
1489.772, 55805.00
1490.814, 56100.00
1491.856, 56056.00
1492.898, 55957.00
1493.939, 56107.00
1494.981, 56119.05
1496.022, 56216.00
1497.063, 56347.00
1498.104, 56422.00
1499.145, 56594.00
1500.186, 56864.00
1501.226, 56917.00
1502.266, 56462.00
1503.307, 56857.00
1504.347, 56881.00
1505.387, 56984.00
1506.426, 57281.00
1507.466, 57326.00
1508.505, 57001.00
1509.545, 57238.00
1510.584, 57121.00
1511.623, 57057.00
1512.662, 57651.00
1513.700, 57695.00
1514.739, 57429.00
1515.777, 57762.00
1516.815, 57792.00
1517.854, 57858.00
1518.892, 57899.00
1519.929, 58144.00
1520.967, 58139.75
1522.004, 58247.29
1523.042, 58300.00
1524.079, 58378.00
1525.116, 58558.00
1526.153, 58630.55
1527.190, 58638.85
1528.226, 58652.00
1529.263, 58526.00
1530.299, 58447.00
1531.335, 58226.00
1532.371, 58571.00
1533.407, 59092.00
1534.443, 58999.00
1535.478, 58946.00
1536.514, 58833.00
1537.549, 59146.00
1538.584, 59324.00
1539.619, 59323.00
1540.654, 59273.00
1541.689, 59191.00
1542.723, 59469.00
1543.757, 59304.00
1544.792, 59481.00
1545.826, 59461.00
1546.860, 59689.00
1547.893, 59903.00
1548.927, 59945.00
1549.960, 60108.00
1550.994, 60136.00
1552.027, 60101.00
1553.060, 59846.00
1554.093, 60401.00
1555.126, 60053.00
1556.158, 60309.00
1557.191, 60554.00
1558.223, 60252.00
1559.255, 60824.00
1560.287, 60556.00
1561.319, 60599.00
1562.350, 61202.00
##END=



