##NAMES=Hauyne
##RRUFFID=R070121
##IDEAL CHEMISTRY=Na_3_Ca(Si_3_Al_3_)O_12_(S^6+^O_4_)
##LOCALITY=Hesse, Germany
##OWNER=RRUFF
##SOURCE=Michael Scott
##DESCRIPTION=Blue cut gemstones
##STATUS=The identification of this mineral has been confirmed by single-crystal X-ray diffraction.
##URL=rruff.info/R070121
##PIN_ID=M01514
##ORIENTATION=Laser parallel to a* (1 0 0). Fiducial mark perpendicular to laser is parallel to c [0 0 1]
224.7060, 9615.000
225.9260, 9660.000
227.1470, 9674.000
228.3670, 9565.000
229.5860, 9671.000
230.8060, 9748.000
232.0260, 9657.000
233.2450, 9791.000
234.4640, 9709.000
235.6830, 9785.000
236.9020, 9903.000
238.1200, 9821.000
239.3390, 9975.000
240.5570, 10098.00
241.7750, 10089.00
242.9930, 10313.00
244.2110, 10510.00
245.4290, 10763.00
246.6460, 11130.00
247.8630, 11189.00
249.0810, 11542.00
250.2980, 11608.00
251.5140, 11857.00
252.7310, 12004.00
253.9470, 12082.00
255.1640, 12219.00
256.3800, 11940.00
257.5960, 11880.00
258.8120, 11855.00
260.0270, 11817.00
261.2430, 11411.00
262.4580, 11101.00
263.6730, 10728.00
264.8880, 10582.00
266.1030, 10311.00
267.3170, 10035.00
268.5320, 9684.000
269.7460, 9684.000
270.9600, 9458.000
272.1740, 9143.000
273.3880, 9187.000
274.6010, 9009.000
275.8150, 8938.000
277.0280, 8857.000
278.2410, 8774.000
279.4540, 8550.000
280.6670, 8638.000
281.8790, 8712.000
283.0920, 8515.000
284.3040, 8381.000
285.5160, 8383.000
286.7280, 8374.000
287.9400, 8232.000
289.1510, 8228.000
290.3630, 7975.000
291.5740, 8070.000
292.7850, 7937.000
293.9960, 7902.000
295.2070, 7706.000
296.4170, 7627.000
297.6280, 7530.000
298.8380, 7537.000
300.0480, 7496.000
301.2580, 7406.000
302.4680, 7346.000
303.6770, 7304.087
304.8870, 7275.000
306.0960, 7248.000
307.3050, 7187.000
308.5140, 7213.000
309.7230, 7109.000
310.9310, 7145.000
312.1400, 7069.000
313.3480, 6992.000
314.5560, 7066.000
315.7640, 6910.000
316.9720, 6968.000
318.1790, 7002.000
319.3870, 6824.000
320.5940, 6831.000
321.8010, 6842.000
323.0080, 6877.000
324.2150, 6886.000
325.4210, 6894.065
326.6280, 6809.000
327.8340, 6884.000
329.0400, 6823.000
330.2460, 6778.000
331.4510, 6854.000
332.6570, 6828.000
333.8620, 6870.000
335.0680, 6803.000
336.2730, 6867.000
337.4780, 6834.000
338.6820, 6809.000
339.8870, 7004.000
341.0910, 6945.000
342.2950, 6920.000
343.5000, 7110.000
344.7030, 7075.000
345.9070, 7217.000
347.1110, 7310.000
348.3140, 7296.000
349.5170, 7545.000
350.7200, 7493.000
351.9230, 7616.000
353.1260, 7632.000
354.3290, 7765.000
355.5310, 7638.000
356.7330, 7743.000
357.9350, 7751.000
359.1370, 7942.000
360.3390, 7876.000
361.5400, 7939.000
362.7420, 8025.000
363.9430, 7931.000
365.1440, 7982.000
366.3450, 8038.000
367.5460, 8008.000
368.7460, 8144.000
369.9470, 8155.000
371.1470, 8169.000
372.3470, 8206.000
373.5470, 8205.000
374.7460, 8237.000
375.9460, 8323.000
377.1450, 8421.000
378.3450, 8406.000
379.5440, 8329.000
380.7430, 8418.000
381.9410, 8355.000
383.1400, 8418.000
384.3380, 8497.000
385.5370, 8478.000
386.7350, 8562.000
387.9320, 8478.000
389.1300, 8515.000
390.3280, 8590.000
391.5250, 8530.000
392.7220, 8581.023
393.9190, 8563.000
395.1160, 8634.000
396.3130, 8691.000
397.5100, 8789.000
398.7060, 8842.000
399.9020, 8991.000
401.0980, 9063.000
402.2940, 9275.000
403.4900, 9379.000
404.6860, 9584.000
405.8810, 9779.000
407.0760, 9925.000
408.2710, 10203.00
409.4660, 10346.00
410.6610, 10724.00
411.8550, 10948.00
413.0500, 11311.00
414.2440, 11768.00
415.4380, 12000.00
416.6320, 12481.00
417.8260, 13060.00
419.0190, 13524.00
420.2130, 14028.00
421.4060, 14465.00
422.5990, 15251.00
423.7920, 15783.00
424.9850, 16763.00
426.1770, 17300.00
427.3700, 18274.00
428.5620, 19295.00
429.7540, 20069.00
430.9460, 21288.00
432.1380, 22358.00
433.3290, 23304.00
434.5210, 24246.39
435.7120, 25287.00
436.9030, 25829.00
438.0940, 26392.00
439.2850, 26992.00
440.4750, 27211.00
441.6660, 27349.00
442.8560, 27360.00
444.0460, 27208.00
445.2360, 26860.00
446.4260, 26570.00
447.6160, 25843.00
448.8050, 25298.00
449.9940, 24762.00
451.1830, 24021.00
452.3720, 23326.00
453.5610, 22716.00
454.7500, 21965.00
455.9380, 21418.00
457.1260, 20664.00
458.3150, 19888.00
459.5020, 19410.00
460.6900, 18829.00
461.8780, 18122.00
463.0650, 17416.00
464.2530, 16833.00
465.4400, 16345.00
466.6270, 15835.00
467.8130, 15254.00
469.0000, 14860.00
470.1870, 14421.00
471.3730, 14076.00
472.5590, 13810.00
473.7450, 13435.19
474.9310, 13043.00
476.1160, 12865.00
477.3020, 12572.00
478.4870, 12430.00
479.6720, 12114.00
480.8570, 11935.00
482.0420, 11888.00
483.2270, 11635.00
484.4110, 11522.00
485.5960, 11329.00
486.7800, 11244.00
487.9640, 11107.00
489.1480, 11065.00
490.3310, 10902.00
491.5150, 10817.00
492.6980, 10601.00
493.8810, 10655.00
495.0640, 10488.00
496.2470, 10389.00
497.4300, 10390.00
498.6120, 10292.57
499.7950, 10252.00
500.9770, 10249.00
502.1590, 10333.00
503.3410, 10389.00
504.5220, 10385.00
505.7040, 10246.00
506.8850, 10549.00
508.0660, 10507.00
509.2470, 10480.00
510.4280, 10760.00
511.6090, 10704.00
512.7890, 10790.00
513.9700, 11089.00
515.1500, 11167.00
516.3300, 11403.00
517.5100, 11539.00
518.6900, 11869.00
519.8690, 12267.00
521.0490, 12699.00
522.2280, 13183.00
523.4070, 13693.00
524.5860, 14764.00
525.7640, 15722.00
526.9430, 16972.00
528.1210, 18434.00
529.3000, 20292.00
530.4780, 22435.00
531.6560, 25257.00
532.8330, 28580.00
534.0110, 32423.00
535.1880, 36582.00
536.3650, 41252.00
537.5430, 46536.00
538.7190, 51869.00
539.8960, 56569.00
541.0730, 60969.00
542.2490, 63926.00
543.4250, 65291.00
544.6020, 64929.00
545.7780, 62280.00
546.9530, 58116.00
548.1290, 51909.00
549.3040, 45108.00
550.4800, 38141.00
551.6550, 31740.00
552.8300, 26773.00
554.0040, 22793.00
555.1790, 19899.00
556.3540, 17882.00
557.5280, 16420.00
558.7020, 15495.00
559.8760, 14798.00
561.0500, 14178.00
562.2230, 13769.00
563.3970, 13532.00
564.5700, 13436.00
565.7430, 13289.00
566.9160, 13327.00
568.0890, 13452.00
569.2620, 13407.00
570.4340, 13697.00
571.6070, 13985.00
572.7790, 14240.00
573.9510, 14555.00
575.1230, 14807.00
576.2940, 15036.00
577.4660, 15262.00
578.6370, 15305.00
579.8080, 15393.00
580.9790, 15457.00
582.1500, 15278.00
583.3210, 15067.00
584.4910, 15027.00
585.6620, 14737.00
586.8320, 14499.00
588.0020, 14120.00
589.1720, 13996.00
590.3410, 13487.00
591.5110, 13383.00
592.6800, 13038.00
593.8500, 12777.00
595.0190, 12656.00
596.1880, 12525.00
597.3560, 12394.00
598.5250, 12371.00
599.6930, 12278.00
600.8620, 12403.00
602.0300, 12375.00
603.1970, 12624.00
604.3650, 12680.00
605.5330, 12853.00
606.7000, 12954.00
607.8680, 13133.00
609.0350, 13179.00
610.2020, 13097.00
611.3680, 13292.00
612.5350, 13191.00
613.7010, 13074.00
614.8680, 13104.00
616.0340, 13213.00
617.2000, 13257.00
618.3660, 13234.70
619.5310, 13199.66
620.6970, 13144.00
621.8620, 13021.00
623.0270, 12931.00
624.1920, 12850.00
625.3570, 12759.00
626.5220, 12500.00
627.6860, 12592.00
628.8500, 12350.00
630.0140, 12320.00
631.1780, 12154.00
632.3420, 12121.48
633.5060, 12219.00
634.6700, 12128.00
635.8330, 12154.00
636.9960, 12228.00
638.1590, 12206.00
639.3220, 12163.00
640.4850, 12150.00
641.6470, 12143.00
642.8100, 12039.00
643.9720, 12044.00
645.1340, 11916.00
646.2960, 11895.00
647.4570, 11770.00
648.6190, 11664.00
649.7800, 11683.00
650.9420, 11526.00
652.1030, 11346.00
653.2640, 11408.00
654.4240, 11113.00
655.5850, 10967.00
656.7450, 10889.00
657.9060, 10792.00
659.0660, 10700.00
660.2260, 10629.00
661.3850, 10563.59
662.5450, 10484.00
663.7040, 10489.00
664.8640, 10469.00
666.0230, 10500.00
667.1820, 10525.00
668.3410, 10397.00
669.4990, 10596.00
670.6580, 10407.00
671.8160, 10402.00
672.9740, 10406.00
674.1320, 10389.00
675.2900, 10394.00
676.4480, 10282.00
677.6050, 10537.00
678.7630, 10361.00
679.9200, 10297.00
681.0770, 10353.00
682.2340, 10603.00
683.3900, 10387.00
684.5470, 10475.00
685.7030, 10427.00
686.8590, 10431.00
688.0150, 10323.00
689.1710, 10375.00
690.3270, 10332.22
691.4830, 10419.00
692.6380, 10340.00
693.7930, 10319.00
694.9480, 10393.00
696.1030, 10399.00
697.2580, 10399.00
698.4130, 10435.00
699.5670, 10411.00
700.7210, 10459.00
701.8750, 10549.00
703.0290, 10574.00
704.1830, 10550.00
705.3370, 10673.00
706.4900, 10526.00
707.6430, 10643.00
708.7970, 10613.00
709.9490, 10714.00
711.1020, 10759.00
712.2550, 10881.00
713.4070, 10791.00
714.5600, 10739.00
715.7120, 10899.00
716.8640, 10847.00
718.0160, 11022.00
719.1670, 11033.00
720.3190, 11056.00
721.4700, 11005.00
722.6210, 11077.00
723.7720, 11149.00
724.9230, 11174.00
726.0740, 11079.00
727.2250, 11122.00
728.3750, 11167.00
729.5250, 11087.00
730.6750, 11336.00
731.8250, 11223.00
732.9750, 11302.00
734.1240, 11173.00
735.2740, 11210.00
736.4230, 11304.00
737.5720, 11187.00
738.7210, 11340.00
739.8700, 11308.00
741.0190, 11157.00
742.1670, 11325.00
743.3150, 11388.00
744.4630, 11428.00
745.6110, 11289.00
746.7590, 11211.00
747.9070, 11244.00
749.0540, 11301.00
750.2020, 11315.00
751.3490, 11320.00
752.4960, 11304.00
753.6430, 11377.00
754.7890, 11258.00
755.9360, 11247.00
757.0820, 11349.00
758.2280, 11511.00
759.3740, 11365.00
760.5200, 11507.00
761.6660, 11407.00
762.8120, 11515.00
763.9570, 11559.00
765.1020, 11515.00
766.2470, 11592.00
767.3920, 11539.00
768.5370, 11606.00
769.6810, 11727.00
770.8260, 11659.00
771.9700, 11824.00
773.1140, 11711.00
774.2580, 11822.00
775.4020, 11915.00
776.5460, 11822.00
777.6890, 11996.00
778.8320, 11953.00
779.9750, 11965.00
781.1180, 12212.00
782.2610, 12196.00
783.4040, 12280.00
784.5460, 12263.00
785.6890, 12519.00
786.8310, 12646.00
787.9730, 12717.00
789.1150, 12674.00
790.2560, 12876.00
791.3980, 13054.00
792.5390, 13020.00
793.6810, 13150.00
794.8220, 13256.00
795.9630, 13396.00
797.1030, 13380.00
798.2440, 13486.00
799.3840, 13595.00
800.5240, 13464.00
801.6650, 13673.00
802.8040, 13651.00
803.9440, 13647.00
805.0840, 13566.00
806.2230, 13593.00
807.3630, 13582.00
808.5020, 13613.00
809.6410, 13519.00
810.7790, 13359.00
811.9180, 13698.00
813.0570, 13435.00
814.1950, 13291.00
815.3330, 13419.00
816.4710, 13232.00
817.6090, 13320.00
818.7470, 13346.00
819.8840, 13358.00
821.0220, 13436.46
822.1590, 13286.00
823.2960, 13462.00
824.4330, 13312.00
825.5690, 13108.00
826.7060, 13296.00
827.8420, 13344.00
828.9790, 13224.00
830.1150, 13509.00
831.2510, 13422.00
832.3860, 13244.00
833.5220, 13351.00
834.6570, 13429.00
835.7930, 13554.00
836.9280, 13469.00
838.0630, 13499.00
839.1980, 13342.00
840.3320, 13559.00
841.4670, 13384.00
842.6010, 13477.00
843.7350, 13505.00
844.8690, 13548.00
846.0030, 13543.86
847.1370, 13374.00
848.2700, 13514.00
849.4040, 13451.00
850.5370, 13473.00
851.6700, 13593.00
852.8030, 13590.00
853.9360, 13543.00
855.0680, 13709.00
856.2000, 13759.00
857.3330, 13638.00
858.4650, 13753.00
859.5970, 13780.00
860.7290, 13703.00
861.8600, 13670.00
862.9920, 13641.00
864.1230, 13713.00
865.2540, 13637.00
866.3850, 13716.00
867.5160, 13620.00
868.6460, 13666.00
869.7770, 13668.00
870.9070, 13666.23
872.0370, 13729.00
873.1670, 13690.00
874.2970, 13746.00
875.4270, 13712.00
876.5570, 13676.00
877.6860, 13905.00
878.8150, 13765.00
879.9440, 13778.00
881.0730, 13882.00
882.2020, 13812.00
883.3300, 13821.00
884.4590, 13840.00
885.5870, 13910.00
886.7150, 13936.00
887.8430, 13906.00
888.9710, 13926.00
890.0990, 13916.00
891.2260, 13932.53
892.3530, 13930.00
893.4810, 13970.00
894.6080, 13992.00
895.7340, 13998.23
896.8610, 14036.00
897.9880, 14062.00
899.1140, 14086.62
900.2400, 14139.26
901.3660, 14143.00
902.4920, 14241.00
903.6180, 14271.00
904.7430, 14317.00
905.8690, 14302.00
906.9940, 14382.00
908.1190, 14324.00
909.2440, 14411.00
910.3690, 14556.00
911.4930, 14469.00
912.6180, 14608.00
913.7420, 14648.00
914.8660, 14655.00
915.9900, 14627.00
917.1140, 14712.00
918.2380, 14799.00
919.3610, 14860.00
920.4850, 14738.00
921.6080, 14626.00
922.7310, 14932.00
923.8540, 14800.00
924.9760, 14911.00
926.0990, 14810.00
927.2210, 15144.00
928.3440, 15155.00
929.4660, 15169.00
930.5880, 15137.00
931.7090, 15269.00
932.8310, 15326.00
933.9520, 15281.00
935.0740, 15345.00
936.1950, 15485.00
937.3160, 15437.00
938.4360, 15598.00
939.5570, 15525.00
940.6780, 15516.00
941.7980, 15635.00
942.9180, 15662.00
944.0380, 15819.00
945.1580, 15849.00
946.2780, 15898.00
947.3970, 16032.00
948.5170, 15880.00
949.6360, 16294.00
950.7550, 16263.00
951.8740, 16630.00
952.9930, 16570.00
954.1110, 16679.00
955.2300, 16908.00
956.3480, 17114.00
957.4660, 17305.00
958.5840, 17695.00
959.7020, 18333.00
960.8190, 18720.00
961.9370, 19664.00
963.0540, 20638.00
964.1710, 21820.00
965.2880, 23238.00
966.4050, 24974.00
967.5220, 27272.00
968.6380, 29415.00
969.7550, 31888.00
970.8710, 33981.00
971.9870, 35873.00
973.1030, 37175.00
974.2190, 38466.00
975.3340, 39197.00
976.4500, 39526.00
977.5650, 40530.00
978.6800, 41687.00
979.7950, 43131.00
980.9100, 44847.00
982.0250, 47380.00
983.1390, 49690.00
984.2530, 52187.00
985.3680, 54405.00
986.4820, 56492.00
987.5950, 57684.00
988.7090, 57620.00
989.8230, 57418.00
990.9360, 56442.00
992.0490, 55185.00
993.1620, 53565.00
994.2750, 51908.00
995.3880, 50578.00
996.5010, 48027.00
997.6130, 46048.00
998.7250, 44102.00
999.8370, 42276.00
1000.949, 40716.00
1002.061, 39049.00
1003.173, 37545.00
1004.284, 36022.00
1005.396, 35008.00
1006.507, 33897.00
1007.618, 33009.00
1008.729, 32180.00
1009.839, 31370.00
1010.950, 30576.33
1012.060, 29669.00
1013.171, 28958.00
1014.281, 28220.00
1015.391, 27213.00
1016.500, 26329.00
1017.610, 25548.00
1018.719, 24969.00
1019.829, 24303.40
1020.938, 23932.00
1022.047, 23345.00
1023.156, 23001.00
1024.264, 22807.00
1025.373, 22777.00
1026.481, 22445.00
1027.589, 22466.00
1028.697, 22284.00
1029.805, 22499.00
1030.913, 22385.00
1032.020, 22678.00
1033.128, 22353.00
1034.235, 22640.00
1035.342, 22661.00
1036.449, 22795.00
1037.556, 23034.00
1038.663, 22989.00
1039.769, 23242.00
1040.875, 23563.00
1041.981, 23687.00
1043.087, 23798.00
1044.193, 23867.00
1045.299, 23844.00
1046.404, 23868.15
1047.510, 23833.00
1048.615, 23800.00
1049.720, 23835.00
1050.825, 23787.00
1051.930, 23722.05
1053.034, 23622.00
1054.139, 23551.00
1055.243, 23276.00
1056.347, 23175.00
1057.451, 23208.00
1058.555, 23299.00
1059.658, 23352.00
1060.762, 23336.00
1061.865, 23626.00
1062.968, 23787.00
1064.071, 23983.00
1065.174, 24028.00
1066.277, 24498.00
1067.380, 24768.00
1068.482, 25217.00
1069.584, 25693.00
1070.686, 26035.00
1071.788, 26682.00
1072.890, 27379.00
1073.992, 27694.00
1075.093, 28539.00
1076.194, 29116.00
1077.295, 29743.00
1078.396, 30327.00
1079.497, 30860.00
1080.598, 31824.00
1081.698, 32325.00
1082.799, 33122.00
1083.899, 33599.00
1084.999, 34142.00
1086.099, 34614.00
1087.199, 34622.00
1088.298, 34451.00
1089.398, 34639.00
1090.497, 34205.00
1091.596, 34024.00
1092.695, 33672.00
1093.794, 32820.00
1094.892, 32543.00
1095.991, 31726.00
1097.089, 30945.00
1098.187, 30156.00
1099.285, 29467.00
1100.383, 29119.00
1101.481, 28324.00
1102.579, 27997.00
1103.676, 27532.00
1104.773, 27122.00
1105.870, 26813.00
1106.967, 26675.00
1108.064, 26543.00
1109.161, 26408.95
1110.257, 26334.46
1111.353, 26272.00
1112.449, 26286.00
1113.545, 26250.00
1114.641, 26407.00
1115.737, 26459.00
1116.832, 26268.00
1117.928, 26177.00
1119.023, 26066.00
1120.118, 26244.00
1121.213, 26114.00
1122.308, 25978.00
1123.402, 25766.00
1124.497, 25600.73
1125.591, 25381.00
1126.685, 25216.00
1127.779, 24988.00
1128.873, 24822.00
1129.967, 24511.00
1131.060, 24444.00
1132.153, 24351.00
1133.247, 24076.00
1134.340, 24108.00
1135.433, 23798.00
1136.525, 23887.00
1137.618, 23791.00
1138.710, 23735.00
1139.802, 23653.00
1140.895, 23553.00
1141.987, 23765.00
1143.078, 23750.00
1144.170, 23777.00
1145.261, 23749.00
1146.353, 23646.00
1147.444, 23593.00
1148.535, 23876.00
1149.626, 23805.00
1150.716, 23741.00
1151.807, 24013.00
1152.897, 23774.00
1153.988, 23661.00
1155.078, 24079.00
1156.168, 24034.00
1157.257, 24071.00
1158.347, 24032.00
1159.436, 23967.00
1160.526, 23968.00
1161.615, 23980.00
1162.704, 23945.00
1163.793, 24008.46
1164.881, 24002.18
1165.970, 24152.00
1167.058, 23921.00
1168.147, 24035.00
1169.235, 23751.00
1170.323, 23871.00
1171.410, 23733.00
1172.498, 23569.00
1173.585, 23759.00
1174.673, 23631.00
1175.760, 23511.00
1176.847, 23684.00
1177.934, 23407.00
1179.020, 23529.00
1180.107, 23241.00
1181.193, 23287.00
1182.279, 23244.00
1183.365, 23079.00
1184.451, 22934.00
1185.537, 22924.28
1186.623, 22839.00
1187.708, 22890.00
1188.793, 22709.00
1189.878, 22705.00
1190.963, 22625.00
1192.048, 22463.00
1193.133, 22597.00
1194.217, 22503.00
1195.302, 22496.00
1196.386, 22304.00
1197.470, 22304.42
1198.554, 22380.00
1199.638, 22270.00
1200.721, 22253.00
1201.805, 22327.00
1202.888, 22288.00
1203.971, 22289.00
1205.054, 22334.00
1206.137, 22287.72
1207.219, 22242.81
1208.302, 22221.00
1209.384, 22190.00
1210.466, 22200.05
1211.548, 22293.00
1212.630, 22262.00
1213.712, 22246.00
1214.794, 22328.00
1215.875, 22301.32
1216.956, 22531.00
1218.037, 22362.00
1219.118, 22357.00
1220.199, 22459.00
1221.280, 22339.00
1222.360, 22466.00
1223.441, 22377.00
1224.521, 22457.00
1225.601, 22380.00
1226.681, 22549.00
1227.760, 22463.00
1228.840, 22298.00
1229.919, 22513.00
1230.999, 22551.00
1232.078, 22477.00
1233.157, 22420.00
1234.236, 22466.00
1235.314, 22567.00
1236.393, 22518.00
1237.471, 22588.00
1238.549, 22530.00
1239.627, 22451.00
1240.705, 22434.00
1241.783, 22440.41
1242.860, 22608.00
1243.938, 22513.00
1245.015, 22669.00
1246.092, 22729.00
1247.169, 22658.00
1248.246, 22770.00
1249.323, 22705.00
1250.399, 22776.00
1251.475, 22767.00
1252.552, 22885.00
1253.628, 22942.10
1254.703, 22896.00
1255.779, 23083.00
1256.855, 23113.00
1257.930, 23113.00
1259.005, 23057.00
1260.080, 23079.41
1261.155, 23047.00
1262.230, 23054.00
1263.305, 23128.00
1264.379, 23091.00
1265.454, 23120.00
1266.528, 23264.00
1267.602, 23348.00
1268.676, 23252.00
1269.750, 23191.00
1270.823, 23350.00
1271.897, 23393.00
1272.970, 23491.00
1274.043, 23696.00
1275.116, 24093.00
1276.189, 23930.00
1277.261, 24025.00
1278.334, 23728.00
1279.406, 23648.00
1280.478, 23712.00
1281.550, 23736.00
1282.622, 23625.00
1283.694, 23759.00
1284.766, 23557.00
1285.837, 23697.00
1286.908, 23765.00
1287.979, 23899.00
1289.050, 23894.00
1290.121, 24112.00
1291.192, 24094.42
1292.262, 24158.00
1293.333, 24078.00
1294.403, 24181.00
1295.473, 24072.00
1296.543, 24204.00
1297.613, 24255.00
1298.682, 24398.00
1299.752, 24404.84
1300.821, 24459.00
1301.890, 24430.00
1302.959, 24487.00
1304.028, 24522.00
1305.096, 24458.00
1306.165, 24464.00
1307.233, 24552.00
1308.301, 24744.00
1309.370, 24677.00
1310.437, 24519.00
1311.505, 24882.00
1312.573, 24732.00
1313.640, 24727.00
1314.708, 24814.00
1315.775, 24772.32
1316.842, 24819.00
1317.908, 24872.00
1318.975, 25052.00
1320.042, 25173.00
1321.108, 25278.00
1322.174, 25192.00
1323.240, 25298.00
1324.306, 25333.00
1325.372, 25504.00
1326.438, 25533.00
1327.503, 25569.00
1328.568, 25644.00
1329.634, 25574.00
1330.699, 25540.00
1331.763, 25673.00
1332.828, 25690.00
1333.893, 25844.00
1334.957, 26115.00
1336.021, 26017.00
1337.085, 26191.00
1338.149, 26002.00
1339.213, 26342.00
1340.277, 26175.00
1341.340, 26380.00
1342.404, 26291.00
1343.467, 26387.00
1344.530, 26427.00
1345.593, 26452.00
1346.655, 26338.00
1347.718, 26548.00
1348.780, 26542.00
1349.843, 26797.00
1350.905, 26558.00
1351.967, 26749.00
1353.028, 26715.00
1354.090, 26545.00
1355.152, 26591.00
1356.213, 26750.00
1357.274, 26728.00
1358.335, 26510.00
1359.396, 26834.00
1360.457, 26816.00
1361.517, 27075.00
1362.578, 27115.26
1363.638, 27137.00
1364.698, 27076.00
1365.758, 27095.00
1366.818, 26835.00
1367.878, 27142.00
1368.937, 26858.00
1369.997, 27160.00
1371.056, 27267.00
1372.115, 27350.00
1373.174, 27320.00
1374.232, 27311.00
1375.291, 27369.00
1376.350, 27640.00
1377.408, 27986.00
1378.466, 28288.00
1379.524, 28462.00
1380.582, 28625.00
1381.640, 28038.00
1382.697, 28225.00
1383.754, 27731.00
1384.812, 27407.00
1385.869, 27592.00
1386.926, 27359.00
1387.983, 27685.00
1389.039, 27524.00
1390.096, 27373.00
1391.152, 27328.00
1392.208, 27260.39
1393.264, 27371.00
1394.320, 27262.00
1395.376, 27309.49
1396.431, 27381.00
1397.487, 27351.00
1398.542, 27507.00
1399.597, 27617.00
1400.652, 27605.00
1401.707, 27647.00
1402.762, 27669.00
1403.816, 27656.00
1404.871, 27729.00
1405.925, 27522.00
1406.979, 27680.00
1408.033, 27879.00
1409.086, 27773.00
1410.140, 27678.00
1411.194, 27726.00
1412.247, 27890.00
1413.300, 27785.00
1414.353, 27851.17
1415.406, 27836.00
1416.458, 27858.00
1417.511, 27882.00
1418.563, 27933.00
1419.616, 27917.00
1420.668, 28040.00
1421.720, 28109.00
1422.772, 28062.00
1423.823, 28175.00
1424.875, 28069.00
1425.926, 28061.00
1426.977, 28359.00
1428.028, 28172.00
1429.079, 28378.00
1430.130, 28167.00
1431.180, 28066.00
1432.231, 28275.00
1433.281, 28345.00
1434.331, 28392.00
1435.381, 28512.00
1436.431, 28535.00
1437.481, 28568.27
1438.530, 28627.88
1439.580, 28583.00
1440.629, 28702.00
1441.678, 28704.00
1442.727, 28744.00
1443.776, 29015.00
1444.824, 28697.00
1445.873, 29039.00
1446.921, 28989.00
1447.969, 28950.00
1449.017, 28964.00
1450.065, 28839.00
1451.113, 29071.00
1452.160, 29215.00
1453.208, 29230.00
1454.255, 29221.00
1455.302, 29224.00
1456.349, 29308.00
1457.396, 29317.00
1458.443, 29155.00
1459.489, 29202.00
1460.535, 29299.00
1461.582, 29227.83
1462.628, 29316.00
1463.674, 29233.00
1464.719, 29450.00
1465.765, 29473.00
1466.810, 29407.00
1467.856, 29311.00
1468.901, 29531.00
1469.946, 29255.00
1470.991, 29652.00
1472.035, 29804.00
1473.080, 29799.00
1474.124, 29520.00
1475.169, 29532.00
1476.213, 29786.00
1477.257, 29538.00
1478.300, 29621.00
1479.344, 29971.00
1480.388, 29796.00
1481.431, 29977.00
1482.474, 30132.00
1483.517, 30003.00
1484.560, 29979.00
1485.603, 30332.00
1486.645, 29906.00
1487.688, 30095.00
1488.730, 30125.00
1489.772, 29940.00
1490.814, 30104.00
1491.856, 30208.00
1492.898, 30187.00
1493.939, 30189.00
1494.981, 30379.00
1496.022, 30333.00
1497.063, 30234.00
1498.104, 30483.00
1499.145, 30379.00
1500.186, 30314.00
1501.226, 30361.00
1502.266, 30626.00
1503.307, 30573.00
1504.347, 30637.00
1505.387, 30651.00
1506.426, 30775.00
1507.466, 30796.00
1508.505, 30823.88
1509.545, 30921.00
1510.584, 30828.00
1511.623, 30835.00
1512.662, 30784.14
1513.700, 30900.00
1514.739, 30889.00
1515.777, 31213.00
1516.815, 31422.00
1517.854, 31212.00
1518.892, 31333.00
1519.929, 31309.00
1520.967, 31529.00
1522.004, 31567.00
1523.042, 31694.00
1524.079, 31653.00
1525.116, 31506.00
1526.153, 31606.00
1527.190, 31455.00
1528.226, 31796.00
1529.263, 31671.00
1530.299, 31692.00
1531.335, 31650.00
1532.371, 31597.00
1533.407, 31718.00
1534.443, 31749.00
1535.478, 31747.00
1536.514, 31981.00
1537.549, 31874.00
1538.584, 32153.00
1539.619, 32076.00
1540.654, 32016.00
1541.689, 32236.00
1542.723, 32213.00
1543.757, 32014.00
1544.792, 32296.00
1545.826, 32285.00
1546.860, 32199.00
1547.893, 32053.00
1548.927, 32482.00
1549.960, 32235.00
1550.994, 32425.00
1552.027, 32833.00
1553.060, 32372.00
1554.093, 32667.00
1555.126, 32819.00
1556.158, 32918.00
1557.191, 32621.00
1558.223, 32629.00
1559.255, 32599.00
1560.287, 32713.00
1561.319, 32897.00
1562.350, 33057.00
##END=



