##NAMES=Hedenbergite
##RRUFFID=R060040
##IDEAL CHEMISTRY=CaFe^2+^Si_2_O_6_
##LOCALITY=Rio Marina, Elba, Italy
##OWNER=RRUFF
##SOURCE=University of Arizona Mineral Museum
##DESCRIPTION=Radial aggregate of green thin bladed crystals
##STATUS=The identification of this mineral has been confirmed by X-ray diffraction and chemical analysis
##URL=rruff.info/R060040
##MEASURED CHEMISTRY=Ca_1.00_(Fe^2+^_0.89_Mg_0.09_Mn_0.02_)_Î£=1_Si_2.00_O_6_
##PIN_ID=M01289
##ORIENTATION=Laser parallel to a* (1 0 0). Fiducial mark perpendicular to laser is parallel to b [0 1 0]
262.4900, 8704.000
263.7050, 8724.000
264.9210, 8746.000
266.1360, 8630.000
267.3520, 8643.000
268.5670, 8699.000
269.7820, 8570.000
270.9960, 8668.000
272.2110, 8708.000
273.4250, 8785.000
274.6400, 8816.000
275.8540, 8748.000
277.0680, 8675.000
278.2810, 8748.000
279.4950, 8865.000
280.7090, 8834.000
281.9220, 8980.000
283.1350, 8900.000
284.3480, 8949.000
285.5610, 9112.000
286.7730, 9046.000
287.9860, 9166.000
289.1980, 9299.000
290.4100, 9338.000
291.6220, 9205.000
292.8340, 9384.000
294.0460, 9397.000
295.2570, 9436.000
296.4690, 9596.000
297.6800, 9805.000
298.8910, 9968.000
300.1020, 10255.00
301.3120, 10373.00
302.5230, 10539.00
303.7330, 10734.00
304.9440, 10731.00
306.1540, 11143.00
307.3630, 11174.00
308.5730, 11324.00
309.7830, 11066.00
310.9920, 10953.00
312.2010, 10792.00
313.4100, 10386.00
314.6190, 10047.00
315.8280, 10107.00
317.0370, 9764.000
318.2450, 9675.000
319.4530, 9634.000
320.6610, 9555.000
321.8690, 9503.000
323.0770, 9554.000
324.2850, 9445.000
325.4920, 9500.000
326.6990, 9684.000
327.9060, 9536.000
329.1130, 9676.000
330.3200, 9727.000
331.5270, 9634.000
332.7330, 9794.000
333.9390, 9883.000
335.1450, 10024.00
336.3510, 10215.00
337.5570, 10323.00
338.7630, 10452.00
339.9680, 10374.00
341.1740, 10637.00
342.3790, 10388.00
343.5840, 10387.00
344.7890, 9967.000
345.9930, 9912.000
347.1980, 9791.000
348.4020, 9579.000
349.6060, 9793.000
350.8100, 9907.000
352.0140, 9607.000
353.2180, 9443.000
354.4210, 9379.000
355.6250, 9557.000
356.8280, 9564.000
358.0310, 9488.000
359.2340, 9724.000
360.4360, 9842.000
361.6390, 9893.000
362.8410, 10078.00
364.0430, 10261.00
365.2450, 10508.00
366.4470, 10896.00
367.6490, 11304.00
368.8510, 11757.00
370.0520, 12230.00
371.2530, 12646.00
372.4540, 13258.00
373.6550, 13636.00
374.8560, 13960.00
376.0560, 13928.00
377.2570, 13810.00
378.4570, 13311.00
379.6570, 12844.00
380.8570, 12140.00
382.0570, 11612.00
383.2560, 11180.00
384.4560, 10749.00
385.6550, 10117.00
386.8540, 9849.000
388.0530, 9681.000
389.2520, 9466.000
390.4510, 9403.000
391.6490, 9227.000
392.8470, 9132.000
394.0450, 8892.000
395.2430, 8978.000
396.4410, 8851.000
397.6390, 8731.000
398.8360, 8743.000
400.0340, 8638.000
401.2310, 8657.000
402.4280, 8789.000
403.6250, 8770.000
404.8210, 8645.000
406.0180, 8684.000
407.2140, 8600.000
408.4100, 8630.000
409.6060, 8660.000
410.8020, 8645.000
411.9980, 8721.000
413.1930, 8653.000
414.3890, 8552.000
415.5840, 8502.000
416.7790, 8607.000
417.9740, 8648.000
419.1680, 8521.000
420.3630, 8592.000
421.5570, 8587.000
422.7510, 8641.000
423.9450, 8589.000
425.1390, 8581.000
426.3330, 8648.000
427.5270, 8586.000
428.7200, 8549.000
429.9130, 8646.000
431.1060, 8569.000
432.2990, 8682.000
433.4920, 8593.000
434.6840, 8623.000
435.8770, 8611.000
437.0690, 8603.000
438.2610, 8708.000
439.4530, 8605.000
440.6450, 8568.000
441.8360, 8632.000
443.0280, 8648.000
444.2190, 8712.000
445.4100, 8667.000
446.6010, 8528.000
447.7920, 8579.000
448.9820, 8659.000
450.1730, 8688.000
451.3630, 8721.000
452.5530, 8658.000
453.7430, 8769.000
454.9330, 8694.000
456.1230, 8834.000
457.3120, 8840.000
458.5010, 8642.000
459.6910, 8795.000
460.8800, 8645.000
462.0680, 8902.000
463.2570, 8780.000
464.4460, 8808.000
465.6340, 8625.000
466.8220, 8755.000
468.0100, 8730.000
469.1980, 8746.000
470.3860, 8681.000
471.5730, 8695.000
472.7600, 8768.000
473.9480, 8889.000
475.1350, 8771.000
476.3210, 8789.000
477.5080, 8864.000
478.6950, 8926.000
479.8810, 8656.637
481.0670, 8826.888
482.2530, 8935.064
483.4390, 8984.503
484.6250, 8799.274
485.8100, 8917.045
486.9960, 8913.401
488.1810, 8904.755
489.3660, 9065.175
490.5510, 8914.053
491.7360, 9071.791
492.9200, 9189.000
494.1050, 9291.000
495.2890, 9325.000
496.4730, 9444.000
497.6570, 9262.000
498.8400, 9438.000
500.0240, 9336.000
501.2070, 9432.000
502.3910, 9204.000
503.5740, 9254.000
504.7570, 9297.000
505.9400, 9285.000
507.1220, 9306.000
508.3050, 9271.000
509.4870, 9243.000
510.6690, 9367.000
511.8510, 9345.000
513.0330, 9277.000
514.2140, 9300.000
515.3960, 9401.000
516.5770, 9430.000
517.7580, 9617.000
518.9390, 9452.000
520.1200, 9542.000
521.3010, 9745.000
522.4810, 9690.000
523.6610, 9550.000
524.8420, 9557.000
526.0220, 9497.000
527.2010, 9439.000
528.3810, 9419.000
529.5610, 9411.000
530.7400, 9471.000
531.9190, 9470.000
533.0980, 9434.000
534.2770, 9442.000
535.4560, 9430.000
536.6340, 9367.000
537.8120, 9451.000
538.9910, 9355.000
540.1690, 9376.000
541.3460, 9550.000
542.5240, 9485.000
543.7020, 9590.000
544.8790, 9556.000
546.0560, 9581.000
547.2330, 9546.000
548.4100, 9681.000
549.5870, 9577.000
550.7630, 9588.000
551.9400, 9653.000
553.1160, 9627.000
554.2920, 9638.000
555.4680, 9684.000
556.6440, 9640.000
557.8190, 9579.000
558.9950, 9553.000
560.1700, 9599.000
561.3450, 9495.000
562.5200, 9573.000
563.6950, 9394.000
564.8690, 9571.000
566.0440, 9537.000
567.2180, 9448.000
568.3920, 9462.000
569.5660, 9579.000
570.7400, 9547.000
571.9130, 9574.000
573.0870, 9540.000
574.2600, 9446.000
575.4330, 9447.000
576.6060, 9279.000
577.7790, 9318.000
578.9520, 9398.000
580.1240, 9335.000
581.2960, 9341.000
582.4690, 9264.000
583.6410, 9363.000
584.8120, 9283.000
585.9840, 9237.000
587.1560, 9320.000
588.3270, 9261.000
589.4980, 9373.000
590.6690, 9253.000
591.8400, 9246.000
593.0110, 9216.000
594.1810, 9372.000
595.3510, 9381.000
596.5220, 9247.000
597.6920, 9374.000
598.8610, 9325.000
600.0310, 9396.000
601.2010, 9376.000
602.3700, 9281.000
603.5390, 9391.000
604.7080, 9475.000
605.8770, 9483.000
607.0460, 9478.000
608.2140, 9318.000
609.3830, 9331.000
610.5510, 9401.000
611.7190, 9493.000
612.8870, 9462.000
614.0550, 9472.000
615.2220, 9585.000
616.3900, 9551.000
617.5570, 9505.000
618.7240, 9619.000
619.8910, 9466.000
621.0580, 9617.000
622.2240, 9697.000
623.3910, 9723.000
624.5570, 9508.000
625.7230, 9762.000
626.8890, 9681.000
628.0550, 9575.000
629.2200, 9846.000
630.3860, 9749.000
631.5510, 9778.000
632.7160, 9841.000
633.8810, 9948.000
635.0460, 9917.000
636.2100, 9954.000
637.3750, 10031.00
638.5390, 10057.00
639.7030, 10310.00
640.8670, 10267.00
642.0310, 10403.00
643.1950, 10535.00
644.3580, 10531.00
645.5210, 10913.00
646.6850, 11006.00
647.8480, 11134.93
649.0100, 11644.03
650.1730, 12091.36
651.3350, 12310.00
652.4980, 12954.00
653.6600, 13901.00
654.8220, 15068.00
655.9840, 15370.00
657.1450, 16437.00
658.3070, 17358.00
659.4680, 18277.00
660.6300, 18433.00
661.7910, 18500.00
662.9510, 17790.00
664.1120, 16786.00
665.2730, 15808.00
666.4330, 14810.00
667.5930, 13937.00
668.7530, 13107.00
669.9130, 12654.00
671.0730, 11980.00
672.2320, 11692.00
673.3920, 11391.00
674.5510, 11090.00
675.7100, 10940.00
676.8690, 10867.00
678.0280, 10666.00
679.1860, 10610.00
680.3450, 10514.00
681.5030, 10421.00
682.6610, 10510.00
683.8190, 10455.00
684.9770, 10338.00
686.1340, 10294.00
687.2920, 10316.00
688.4490, 10223.00
689.6060, 10192.00
690.7630, 10276.00
691.9200, 10170.00
693.0760, 10283.00
694.2330, 10219.00
695.3890, 10178.00
696.5450, 10240.00
697.7010, 10304.00
698.8570, 10193.00
700.0130, 10157.00
701.1680, 10226.00
702.3230, 10254.00
703.4780, 10298.00
704.6330, 10182.00
705.7880, 10305.00
706.9430, 10304.00
708.0970, 10298.00
709.2520, 10199.00
710.4060, 10198.00
711.5600, 10177.00
712.7140, 10186.00
713.8670, 10218.00
715.0210, 10177.00
716.1740, 10299.00
717.3270, 10260.00
718.4800, 10241.00
719.6330, 10177.00
720.7860, 10217.00
721.9380, 10204.00
723.0910, 10278.00
724.2430, 10153.00
725.3950, 10198.00
726.5470, 10268.00
727.6980, 10240.00
728.8500, 10275.00
730.0010, 10213.00
731.1530, 10168.00
732.3040, 10408.00
733.4550, 10095.00
734.6050, 10382.00
735.7560, 10327.00
736.9060, 10316.00
738.0560, 10234.00
739.2060, 10289.00
740.3560, 10326.00
741.5060, 10418.00
742.6560, 10300.00
743.8050, 10346.00
744.9540, 10402.00
746.1030, 10383.00
747.2520, 10448.00
748.4010, 10389.00
749.5500, 10408.00
750.6980, 10400.00
751.8460, 10424.00
752.9950, 10501.00
754.1420, 10472.00
755.2900, 10516.00
756.4380, 10480.00
757.5850, 10357.00
758.7330, 10583.00
759.8800, 10557.00
761.0270, 10628.00
762.1730, 10479.00
763.3200, 10425.00
764.4670, 10445.00
765.6130, 10385.00
766.7590, 10525.00
767.9050, 10516.00
769.0510, 10591.00
770.1960, 10478.00
771.3420, 10570.00
772.4870, 10463.00
773.6320, 10506.00
774.7770, 10563.00
775.9220, 10609.00
777.0670, 10539.00
778.2110, 10553.00
779.3560, 10572.00
780.5000, 10563.00
781.6440, 10579.00
782.7880, 10582.00
783.9320, 10606.00
785.0750, 10569.00
786.2180, 10722.00
787.3620, 10542.00
788.5050, 10724.00
789.6480, 10651.00
790.7900, 10563.00
791.9330, 10725.00
793.0750, 10636.00
794.2170, 10485.00
795.3590, 10657.00
796.5010, 10675.00
797.6430, 10630.00
798.7850, 10537.00
799.9260, 10623.00
801.0670, 10721.00
802.2080, 10768.00
803.3490, 10695.00
804.4900, 10848.00
805.6310, 10676.00
806.7710, 10658.00
807.9110, 10695.00
809.0510, 10861.00
810.1910, 10847.00
811.3310, 10796.00
812.4710, 10808.00
813.6100, 10807.00
814.7490, 10793.00
815.8880, 10870.00
817.0270, 10874.00
818.1660, 10732.00
819.3050, 10746.00
820.4430, 10823.00
821.5820, 10862.00
822.7200, 10864.00
823.8580, 10881.00
824.9950, 10768.00
826.1330, 10996.00
827.2710, 10954.00
828.4080, 10862.00
829.5450, 10896.00
830.6820, 10957.00
831.8190, 10983.00
832.9560, 10987.00
834.0920, 10886.00
835.2280, 11119.00
836.3650, 11027.00
837.5010, 10999.00
838.6360, 11064.00
839.7720, 10976.00
840.9080, 10958.00
842.0430, 10994.00
843.1780, 11137.00
844.3130, 11178.00
845.4480, 11233.00
846.5830, 11192.00
847.7170, 11328.00
848.8520, 11402.00
849.9860, 11524.00
851.1200, 11345.71
852.2540, 11514.56
853.3870, 11605.82
854.5210, 11623.65
855.6540, 11348.15
856.7880, 11451.43
857.9210, 11402.92
859.0540, 11348.18
860.1860, 11504.78
861.3190, 11271.95
862.4510, 11425.20
863.5840, 11424.33
864.7160, 11494.00
865.8480, 11410.94
866.9790, 11375.06
868.1110, 11491.95
869.2420, 11524.26
870.3740, 11423.61
871.5050, 11507.00
872.6360, 11377.00
873.7660, 11437.00
874.8970, 11499.00
876.0280, 11538.00
877.1580, 11603.00
878.2880, 11365.00
879.4180, 11479.00
880.5480, 11661.00
881.6770, 11563.00
882.8070, 11552.00
883.9360, 11623.00
885.0650, 11629.00
886.1940, 11695.00
887.3230, 11698.00
888.4520, 11582.00
889.5800, 11736.00
890.7090, 11674.00
891.8370, 11632.00
892.9650, 11664.00
894.0930, 11718.00
895.2200, 11654.00
896.3480, 11688.00
897.4750, 11569.00
898.6020, 11691.00
899.7290, 11590.00
900.8560, 11615.00
901.9830, 11706.00
903.1090, 11687.00
904.2360, 11725.00
905.3620, 11638.00
906.4880, 11740.00
907.6140, 11660.00
908.7400, 11584.00
909.8650, 11684.00
910.9900, 11700.00
912.1160, 11717.00
913.2410, 11743.00
914.3660, 11722.00
915.4900, 11816.00
916.6150, 11679.00
917.7390, 11857.00
918.8640, 11853.00
919.9880, 11762.00
921.1120, 11855.00
922.2350, 11750.00
923.3590, 11810.00
924.4820, 11866.00
925.6060, 11997.00
926.7290, 11783.00
927.8520, 11869.00
928.9740, 11927.00
930.0970, 11810.00
931.2190, 11857.00
932.3420, 11802.00
933.4640, 11854.00
934.5860, 11819.00
935.7080, 11924.00
936.8290, 11830.00
937.9510, 11976.00
939.0720, 11716.00
940.1930, 11880.00
941.3140, 11878.00
942.4350, 11990.00
943.5560, 11871.00
944.6760, 11887.00
945.7960, 11993.00
946.9170, 12047.00
948.0370, 11943.00
949.1560, 12010.00
950.2760, 11891.00
951.3960, 12121.00
952.5150, 11989.00
953.6340, 12047.00
954.7530, 12054.00
955.8720, 12144.00
956.9910, 12127.00
958.1090, 12190.00
959.2280, 12090.00
960.3460, 12129.00
961.4640, 12057.00
962.5820, 11966.00
963.6990, 12235.00
964.8170, 12189.00
965.9340, 12165.00
967.0510, 12300.00
968.1690, 12193.00
969.2850, 12310.00
970.4020, 12199.00
971.5190, 12286.00
972.6350, 12241.00
973.7510, 12177.00
974.8670, 12185.00
975.9830, 12411.00
977.0990, 12366.00
978.2150, 12480.00
979.3300, 12340.00
980.4450, 12283.00
981.5600, 12560.00
982.6750, 12606.00
983.7900, 12551.00
984.9050, 12670.00
986.0190, 12535.00
987.1340, 12738.00
988.2480, 12578.00
989.3620, 12753.00
990.4750, 12737.00
991.5890, 12988.00
992.7020, 13128.00
993.8160, 13222.00
994.9290, 13166.00
996.0420, 13547.00
997.1550, 13672.00
998.2670, 13936.00
999.3800, 14183.00
1000.492, 14637.00
1001.604, 15275.00
1002.716, 15963.00
1003.828, 16719.00
1004.940, 17541.00
1006.051, 19185.00
1007.163, 21008.00
1008.274, 22821.00
1009.385, 25280.00
1010.496, 27737.00
1011.606, 29633.00
1012.717, 30365.00
1013.827, 29160.00
1014.937, 27010.00
1016.047, 24506.00
1017.157, 22187.00
1018.267, 19934.00
1019.377, 18663.00
1020.486, 17588.00
1021.595, 16611.00
1022.704, 15923.00
1023.813, 15627.00
1024.922, 15243.00
1026.030, 15026.00
1027.139, 14856.00
1028.247, 14684.00
1029.355, 14730.00
1030.463, 14737.00
1031.571, 14280.00
1032.678, 14373.00
1033.786, 14184.00
1034.893, 13950.00
1036.000, 14029.00
1037.107, 13977.00
1038.214, 13776.00
1039.321, 13734.00
1040.427, 13624.00
1041.533, 13501.00
1042.639, 13566.00
1043.745, 13551.00
1044.851, 13535.00
1045.957, 13428.00
1047.062, 13364.00
1048.168, 13437.00
1049.273, 13162.00
1050.378, 13294.00
1051.482, 13313.00
1052.587, 13448.00
1053.692, 13211.00
1054.796, 13192.00
1055.900, 13344.00
1057.004, 13214.00
1058.108, 13244.00
1059.212, 13265.00
1060.315, 13162.00
1061.418, 13321.00
1062.522, 13296.00
1063.625, 13239.00
1064.728, 13255.00
1065.830, 13175.00
1066.933, 13302.00
1068.035, 13196.00
1069.137, 13324.00
1070.239, 13281.00
1071.341, 13250.00
1072.443, 13181.00
1073.545, 13034.00
1074.646, 13325.00
1075.747, 13245.00
1076.848, 13000.00
1077.949, 13240.00
1079.050, 13343.00
1080.150, 13341.00
1081.251, 13193.00
1082.351, 13188.00
1083.451, 13231.00
1084.551, 13251.00
1085.651, 13325.00
1086.750, 13196.00
1087.850, 13149.00
1088.949, 13233.00
1090.048, 13253.00
1091.147, 13238.00
1092.246, 13288.00
1093.345, 13229.00
1094.443, 13208.00
1095.541, 13386.00
1096.639, 13303.00
1097.737, 13366.00
1098.835, 13205.00
1099.933, 13245.00
1101.030, 13402.00
1102.128, 13265.00
1103.225, 13434.00
1104.322, 13253.00
1105.419, 13252.00
1106.515, 13291.00
1107.612, 13318.00
1108.708, 13424.00
1109.804, 13478.00
1110.900, 13354.00
1111.996, 13418.00
1113.092, 13226.00
1114.187, 13402.00
1115.283, 13398.00
1116.378, 13393.00
1117.473, 13429.00
1118.568, 13332.00
1119.662, 13347.00
1120.757, 13430.00
1121.851, 13338.00
1122.946, 13535.00
1124.040, 13358.00
1125.134, 13370.00
1126.227, 13372.00
1127.321, 13503.00
1128.414, 13559.00
1129.508, 13373.00
1130.601, 13464.00
1131.693, 13574.00
1132.786, 13411.00
1133.879, 13483.00
1134.971, 13465.00
1136.064, 13489.00
1137.156, 13438.44
1138.248, 13531.77
1139.339, 13580.77
1140.431, 13587.81
1141.522, 13427.24
1142.614, 13483.10
1143.705, 13452.23
1144.796, 13417.80
1145.887, 13504.14
1146.977, 13367.95
1148.068, 13452.37
1149.158, 13580.00
1150.248, 13465.00
1151.338, 13531.00
1152.428, 13532.00
1153.518, 13582.00
1154.607, 13494.00
1155.696, 13586.00
1156.785, 13559.00
1157.874, 13758.00
1158.963, 13426.00
1160.052, 13582.00
1161.141, 13559.00
1162.229, 13507.00
1163.317, 13616.00
1164.405, 13651.00
1165.493, 13643.00
1166.581, 13497.00
1167.668, 13370.00
1168.756, 13678.00
1169.843, 13780.00
1170.930, 13624.00
1172.017, 13619.00
1173.103, 13604.00
1174.190, 13661.00
1175.276, 13599.00
1176.363, 13616.00
1177.449, 13801.00
1178.535, 13722.00
1179.620, 13869.00
1180.706, 13714.00
1181.791, 13700.00
1182.877, 13905.00
1183.962, 13720.00
1185.047, 13761.00
1186.131, 13783.00
1187.216, 13715.00
1188.300, 13786.00
1189.385, 13908.00
1190.469, 13890.00
1191.553, 13983.00
1192.637, 13968.00
1193.720, 13790.00
1194.804, 13915.00
1195.887, 13856.00
1196.970, 13925.00
1198.053, 13911.00
1199.136, 13929.00
1200.219, 13945.00
1201.301, 13927.00
1202.383, 14033.00
1203.465, 13889.00
1204.547, 13894.00
1205.629, 13885.00
1206.711, 14001.00
1207.792, 14127.00
1208.874, 13989.00
1209.955, 13990.00
1211.036, 14122.00
1212.117, 13975.00
1213.198, 13981.00
1214.278, 14066.00
1215.359, 14025.00
1216.439, 14086.00
1217.519, 14040.00
1218.599, 14170.00
1219.678, 14164.00
1220.758, 14179.00
1221.837, 14210.00
1222.917, 14073.00
1223.996, 14003.00
1225.075, 14044.00
1226.153, 14159.00
1227.232, 14350.00
1228.310, 14165.00
1229.389, 14140.00
1230.467, 14161.00
1231.545, 14201.00
1232.622, 14392.00
1233.700, 14330.00
1234.777, 14206.00
1235.855, 14281.00
1236.932, 14273.00
1238.009, 14163.00
1239.086, 14232.00
1240.162, 14303.00
1241.239, 14365.00
1242.315, 14331.00
1243.391, 14320.00
1244.467, 14278.00
1245.543, 14360.00
1246.619, 14400.00
1247.694, 14287.00
1248.769, 14415.00
1249.844, 14290.00
1250.919, 14309.00
1251.994, 14289.00
1253.069, 14481.00
1254.144, 14380.00
1255.218, 14498.00
1256.292, 14383.00
1257.366, 14439.00
1258.440, 14583.00
1259.514, 14613.00
1260.587, 14471.00
1261.661, 14360.00
1262.734, 14485.00
1263.807, 14460.00
1264.880, 14474.00
1265.952, 14491.00
1267.025, 14642.00
1268.097, 14468.00
1269.170, 14588.00
1270.242, 14596.00
1271.314, 14525.00
1272.385, 14580.00
1273.457, 14551.00
1274.528, 14690.00
1275.600, 14659.00
1276.671, 14668.00
1277.742, 14654.00
1278.812, 14477.00
1279.883, 14655.00
1280.954, 14696.00
1282.024, 14709.00
1283.094, 14645.00
1284.164, 14836.00
1285.234, 14820.00
1286.303, 14717.00
1287.373, 14660.00
1288.442, 14714.00
1289.511, 14903.00
1290.580, 14711.00
1291.649, 14625.00
1292.718, 14681.00
1293.786, 14776.00
1294.855, 14590.00
1295.923, 14721.00
1296.991, 14716.00
1298.059, 14767.00
1299.126, 14612.00
1300.194, 14609.00
1301.261, 14728.00
1302.328, 14628.00
1303.395, 14974.00
1304.462, 14759.00
1305.529, 14694.00
1306.596, 14916.00
1307.662, 14859.00
1308.728, 14765.00
1309.794, 15005.00
1310.860, 14939.00
1311.926, 14941.00
1312.991, 14937.00
1314.057, 14973.00
1315.122, 14938.00
1316.187, 14948.00
1317.252, 15027.00
1318.317, 14955.00
1319.381, 15089.00
1320.446, 14965.00
1321.510, 15028.00
1322.574, 15002.00
1323.638, 14919.00
1324.702, 15004.00
1325.766, 15165.00
1326.829, 15223.00
1327.892, 15012.00
1328.956, 15145.00
1330.019, 15279.00
1331.081, 15115.00
1332.144, 15131.00
1333.206, 15229.00
1334.269, 15193.00
1335.331, 15199.00
1336.393, 15200.00
1337.455, 15116.00
1338.516, 15573.00
1339.578, 15186.00
1340.639, 15393.00
1341.701, 15264.00
1342.762, 15139.00
1343.822, 15256.00
1344.883, 15145.00
1345.944, 15125.00
1347.004, 15473.00
1348.064, 15356.00
1349.124, 15250.00
1350.184, 15341.00
1351.244, 15093.00
1352.304, 15288.00
1353.363, 15445.00
1354.422, 15377.00
1355.481, 15349.00
1356.540, 15331.00
1357.599, 15254.00
1358.657, 15322.00
1359.716, 15489.00
1360.774, 15479.00
1361.832, 15495.00
1362.890, 15408.00
1363.948, 15223.00
1365.006, 15448.00
1366.063, 15468.00
1367.120, 15367.00
1368.178, 15479.00
1369.234, 15406.00
1370.291, 15384.00
1371.348, 15488.00
1372.404, 15510.00
1373.461, 15390.00
1374.517, 15537.00
1375.573, 15469.00
1376.629, 15603.00
1377.684, 15714.00
1378.740, 15560.00
1379.795, 15613.00
1380.850, 15496.00
1381.905, 15577.00
1382.960, 15513.00
1384.015, 15682.00
1385.070, 15604.00
1386.124, 15654.00
1387.178, 15649.00
1388.232, 15613.00
1389.286, 15587.00
1390.340, 15566.00
1391.393, 15679.00
1392.447, 15576.00
1393.500, 15564.00
1394.553, 15630.00
1395.606, 15861.00
1396.659, 15743.00
1397.711, 15661.00
1398.764, 15760.00
1399.816, 15700.00
1400.868, 15767.00
1401.920, 15641.00
1402.972, 15747.00
1404.023, 15699.00
1405.075, 15680.00
1406.126, 15606.00
1407.177, 15810.00
1408.228, 15704.00
1409.279, 15604.00
1410.330, 15730.00
1411.380, 15757.00
1412.431, 15817.00
1413.481, 15739.00
1414.531, 15776.00
1415.580, 16012.00
1416.630, 15779.00
1417.680, 15861.00
1418.729, 15967.00
1419.778, 15761.00
1420.827, 15712.00
1421.876, 15908.00
1422.925, 15904.00
1423.973, 15862.00
1425.022, 15902.00
1426.070, 16010.00
1427.118, 16002.00
1428.166, 16009.00
1429.214, 15735.00
1430.261, 15990.00
1431.309, 16019.00
1432.356, 15932.00
1433.403, 15999.00
1434.450, 15967.00
1435.497, 15956.00
1436.543, 16084.00
1437.590, 16018.00
1438.636, 15945.00
1439.682, 15964.00
1440.728, 16062.00
1441.774, 16080.00
1442.819, 16153.00
1443.865, 16031.00
1444.910, 16050.00
1445.955, 16086.00
1447.000, 16259.00
1448.045, 15898.00
1449.090, 16154.00
1450.134, 16085.00
1451.178, 16166.00
1452.223, 16065.00
1453.267, 16289.00
1454.310, 16278.00
1455.354, 16175.00
1456.398, 16233.00
1457.441, 16270.00
1458.484, 16252.00
1459.527, 16077.00
1460.570, 16143.00
1461.613, 16344.00
1462.655, 16213.00
1463.698, 16378.00
1464.740, 16080.00
1465.782, 16184.00
1466.824, 16239.00
1467.866, 16294.00
1468.907, 16367.00
1469.948, 16307.00
1470.990, 16357.00
1472.031, 16192.00
1473.072, 16275.00
1474.112, 16386.00
1475.153, 16310.00
1476.194, 16415.00
1477.234, 16247.00
1478.274, 16429.00
1479.314, 16295.00
1480.354, 16299.00
1481.393, 16291.00
1482.433, 16418.00
1483.472, 16493.00
1484.511, 16459.00
1485.550, 16474.00
1486.589, 16335.00
1487.628, 16495.00
1488.666, 16452.00
1489.704, 16347.00
1490.743, 16570.00
1491.781, 16411.00
1492.819, 16616.00
1493.856, 16612.00
1494.894, 16495.00
1495.931, 16758.00
1496.968, 16477.00
1498.005, 16523.00
1499.042, 16489.00
1500.079, 16570.00
1501.115, 16515.00
1502.152, 16654.00
1503.188, 16432.00
1504.224, 16454.00
1505.260, 16554.00
1506.296, 16683.00
1507.331, 16802.00
1508.367, 16584.00
1509.402, 16669.00
1510.437, 16649.00
1511.472, 16575.00
1512.507, 16708.00
1513.541, 16802.00
1514.576, 16577.00
1515.610, 16673.00
1516.644, 16700.00
1517.678, 16601.00
1518.712, 16670.00
1519.746, 16660.00
1520.779, 16742.00
1521.813, 16711.00
1522.846, 16738.00
1523.879, 16759.00
1524.912, 16689.00
1525.944, 16648.00
1526.977, 16855.00
1528.009, 16797.00
1529.041, 16800.00
1530.073, 16842.00
1531.105, 16966.00
1532.137, 16934.00
1533.168, 16858.00
1534.200, 16971.00
1535.231, 16705.00
1536.262, 16894.00
1537.293, 17071.00
1538.324, 17039.00
1539.354, 16927.00
1540.385, 16853.00
1541.415, 16915.00
1542.445, 16951.00
1543.475, 17053.00
1544.505, 16928.00
1545.534, 16929.00
1546.564, 16935.00
1547.593, 16907.00
1548.622, 16833.00
1549.651, 17005.00
1550.680, 17171.00
1551.708, 16942.00
1552.737, 16973.00
1553.765, 17208.00
1554.793, 17275.00
1555.821, 17172.00
1556.849, 17139.00
1557.877, 17032.00
1558.904, 17009.00
1559.932, 17065.00
1560.959, 17112.00
1561.986, 17217.00
1563.013, 17072.00
1564.039, 17073.00
1565.066, 17016.00
1566.092, 17167.00
1567.119, 17051.00
1568.145, 17191.00
1569.170, 17197.00
1570.196, 17015.00
1571.222, 17004.00
1572.247, 17071.00
1573.272, 17162.00
1574.297, 17058.00
1575.322, 17399.00
##END=



