##NAMES=Hedenbergite
##RRUFFID=R060040
##IDEAL CHEMISTRY=CaFe^2+^Si_2_O_6_
##LOCALITY=Rio Marina, Elba, Italy
##OWNER=RRUFF
##SOURCE=University of Arizona Mineral Museum
##DESCRIPTION=Radial aggregate of green thin bladed crystals
##STATUS=The identification of this mineral has been confirmed by X-ray diffraction and chemical analysis
##URL=rruff.info/R060040
##MEASURED CHEMISTRY=Ca_1.00_(Fe^2+^_0.89_Mg_0.09_Mn_0.02_)_Î£=1_Si_2.00_O_6_
##PIN_ID=M00548
##ORIENTATION=Laser parallel to c* (0 0 1). Fiducial mark perpendicular to laser is parallel to a [1 0 0]
262.4900, 15707.00
263.7050, 15785.00
264.9210, 15788.00
266.1360, 15882.00
267.3520, 15866.00
268.5670, 15737.00
269.7820, 15877.00
270.9960, 15865.00
272.2110, 15903.00
273.4250, 15909.00
274.6400, 15923.00
275.8540, 15681.00
277.0680, 15979.00
278.2810, 15981.00
279.4950, 15971.00
280.7090, 15968.00
281.9220, 16053.00
283.1350, 15980.00
284.3480, 15991.00
285.5610, 16063.00
286.7730, 16307.00
287.9860, 16359.00
289.1980, 16279.00
290.4100, 16373.00
291.6220, 16257.00
292.8340, 16336.00
294.0460, 16676.00
295.2570, 16628.00
296.4690, 16796.00
297.6800, 16824.00
298.8910, 17160.00
300.1020, 17089.00
301.3120, 17280.00
302.5230, 17363.00
303.7330, 17507.00
304.9440, 17543.00
306.1540, 17669.00
307.3630, 17651.00
308.5730, 17561.00
309.7830, 17671.00
310.9920, 17578.00
312.2010, 17452.00
313.4100, 17275.00
314.6190, 17080.00
315.8280, 17015.00
317.0370, 16971.00
318.2450, 16880.00
319.4530, 16920.00
320.6610, 16690.00
321.8690, 16821.00
323.0770, 17065.00
324.2850, 17008.00
325.4920, 16960.00
326.6990, 16936.00
327.9060, 17150.00
329.1130, 17169.00
330.3200, 17168.00
331.5270, 17255.00
332.7330, 17521.00
333.9390, 17346.00
335.1450, 17477.00
336.3510, 17605.00
337.5570, 17746.00
338.7630, 17814.00
339.9680, 17756.00
341.1740, 17646.00
342.3790, 17753.00
343.5840, 17730.00
344.7890, 17597.00
345.9930, 17389.00
347.1980, 17426.00
348.4020, 17317.00
349.6060, 17248.00
350.8100, 17002.00
352.0140, 17390.00
353.2180, 17215.00
354.4210, 17343.00
355.6250, 17329.00
356.8280, 17505.00
358.0310, 17509.00
359.2340, 17562.00
360.4360, 17794.00
361.6390, 17936.00
362.8410, 18232.00
364.0430, 18400.00
365.2450, 18849.00
366.4470, 19199.00
367.6490, 19791.00
368.8510, 20005.00
370.0520, 20753.00
371.2530, 20808.00
372.4540, 21366.00
373.6550, 21510.00
374.8560, 21591.00
376.0560, 21389.00
377.2570, 21025.00
378.4570, 20456.00
379.6570, 20007.00
380.8570, 19688.00
382.0570, 19056.00
383.2560, 18504.00
384.4560, 18184.00
385.6550, 17876.00
386.8540, 17448.00
388.0530, 17434.00
389.2520, 17367.00
390.4510, 16927.18
391.6490, 16971.08
392.8470, 16976.37
394.0450, 16945.12
395.2430, 16767.89
396.4410, 16779.16
397.6390, 16714.89
398.8360, 16647.56
400.0340, 16679.00
401.2310, 16684.00
402.4280, 16650.00
403.6250, 16625.00
404.8210, 16821.00
406.0180, 16665.00
407.2140, 16574.00
408.4100, 16740.00
409.6060, 16729.00
410.8020, 16803.00
411.9980, 16625.00
413.1930, 16611.00
414.3890, 16785.00
415.5840, 16907.00
416.7790, 16779.00
417.9740, 16782.00
419.1680, 16804.00
420.3630, 16828.00
421.5570, 16800.00
422.7510, 16861.00
423.9450, 16995.00
425.1390, 17042.00
426.3330, 17029.00
427.5270, 17103.00
428.7200, 17142.00
429.9130, 17113.00
431.1060, 17040.00
432.2990, 17130.00
433.4920, 17095.00
434.6840, 17294.00
435.8770, 17344.00
437.0690, 17313.00
438.2610, 17477.00
439.4530, 17350.00
440.6450, 17318.00
441.8360, 17428.00
443.0280, 17400.00
444.2190, 17366.00
445.4100, 17440.00
446.6010, 17275.00
447.7920, 17319.00
448.9820, 17576.00
450.1730, 17461.00
451.3630, 17521.00
452.5530, 17491.00
453.7430, 17538.00
454.9330, 17467.00
456.1230, 17625.00
457.3120, 17581.00
458.5010, 17822.00
459.6910, 17559.00
460.8800, 17578.00
462.0680, 17626.00
463.2570, 17563.00
464.4460, 17651.00
465.6340, 17475.00
466.8220, 17600.00
468.0100, 17444.00
469.1980, 17636.00
470.3860, 17654.00
471.5730, 17504.00
472.7600, 17720.00
473.9480, 17633.00
475.1350, 17673.00
476.3210, 17546.00
477.5080, 17863.00
478.6950, 17653.00
479.8810, 17495.00
481.0670, 17564.00
482.2530, 17642.00
483.4390, 17615.00
484.6250, 17836.00
485.8100, 17836.00
486.9960, 17752.00
488.1810, 17745.00
489.3660, 17733.00
490.5510, 17738.00
491.7360, 17869.00
492.9200, 17974.00
494.1050, 18186.00
495.2890, 17904.00
496.4730, 18209.00
497.6570, 18281.00
498.8400, 18052.00
500.0240, 18047.00
501.2070, 18088.00
502.3910, 18133.00
503.5740, 18107.00
504.7570, 18043.00
505.9400, 18275.00
507.1220, 18220.00
508.3050, 18452.00
509.4870, 18378.00
510.6690, 18276.00
511.8510, 18362.00
513.0330, 18544.00
514.2140, 18637.00
515.3960, 18424.00
516.5770, 18672.00
517.7580, 18824.00
518.9390, 18847.00
520.1200, 18756.00
521.3010, 18691.00
522.4810, 18966.00
523.6610, 18891.00
524.8420, 18701.00
526.0220, 18771.00
527.2010, 18702.00
528.3810, 18673.00
529.5610, 18792.00
530.7400, 18578.00
531.9190, 18864.00
533.0980, 18557.00
534.2770, 18686.00
535.4560, 18656.00
536.6340, 18391.00
537.8120, 18787.00
538.9910, 18886.00
540.1690, 18818.00
541.3460, 18896.00
542.5240, 18815.00
543.7020, 18999.00
544.8790, 18814.00
546.0560, 19108.00
547.2330, 19238.00
548.4100, 19309.00
549.5870, 19322.00
550.7630, 19424.00
551.9400, 19456.00
553.1160, 19323.00
554.2920, 19455.00
555.4680, 19210.00
556.6440, 19256.00
557.8190, 19220.00
558.9950, 19127.00
560.1700, 19137.00
561.3450, 19104.00
562.5200, 19244.00
563.6950, 19184.00
564.8690, 19162.00
566.0440, 19311.00
567.2180, 19202.00
568.3920, 19174.00
569.5660, 19352.00
570.7400, 19286.00
571.9130, 19380.00
573.0870, 19251.00
574.2600, 19394.00
575.4330, 19433.00
576.6060, 19221.00
577.7790, 19453.00
578.9520, 19388.00
580.1240, 19582.00
581.2960, 19373.00
582.4690, 19480.00
583.6410, 19547.00
584.8120, 19591.00
585.9840, 19611.00
587.1560, 19507.00
588.3270, 19653.00
589.4980, 19545.00
590.6690, 19603.00
591.8400, 19657.00
593.0110, 19746.00
594.1810, 19854.00
595.3510, 19655.70
596.5220, 19753.91
597.6920, 19821.21
598.8610, 19859.25
600.0310, 19780.53
601.2010, 19852.61
602.3700, 19864.24
603.5390, 19873.38
604.7080, 19966.67
605.8770, 19904.91
607.0460, 20100.00
608.2140, 20007.00
609.3830, 20147.00
610.5510, 20132.00
611.7190, 20356.00
612.8870, 20381.00
614.0550, 20368.00
615.2220, 20407.00
616.3900, 20549.00
617.5570, 20452.00
618.7240, 20314.00
619.8910, 20599.00
621.0580, 20507.00
622.2240, 20602.00
623.3910, 20686.00
624.5570, 20638.00
625.7230, 20741.00
626.8890, 20625.00
628.0550, 20737.00
629.2200, 20711.00
630.3860, 20720.00
631.5510, 20742.00
632.7160, 21042.00
633.8810, 20952.00
635.0460, 20922.00
636.2100, 21069.00
637.3750, 20933.00
638.5390, 21312.00
639.7030, 21280.00
640.8670, 21213.00
642.0310, 21411.00
643.1950, 21356.00
644.3580, 21605.00
645.5210, 21445.00
646.6850, 22089.00
647.8480, 22229.00
649.0100, 22338.00
650.1730, 22564.00
651.3350, 23696.00
652.4980, 23688.00
653.6600, 23902.00
654.8220, 24357.00
655.9840, 24979.00
657.1450, 25464.00
658.3070, 25697.00
659.4680, 25971.00
660.6300, 25970.00
661.7910, 25629.00
662.9510, 25171.00
664.1120, 24640.00
665.2730, 24097.00
666.4330, 23784.00
667.5930, 23263.00
668.7530, 23127.00
669.9130, 22679.00
671.0730, 22201.00
672.2320, 22144.00
673.3920, 22048.00
674.5510, 21962.00
675.7100, 21892.00
676.8690, 21801.00
678.0280, 21624.00
679.1860, 21645.00
680.3450, 21642.00
681.5030, 21662.00
682.6610, 21468.00
683.8190, 21474.00
684.9770, 21455.00
686.1340, 21468.00
687.2920, 21482.00
688.4490, 21427.00
689.6060, 21483.00
690.7630, 21328.00
691.9200, 21723.00
693.0760, 21542.00
694.2330, 21504.00
695.3890, 21565.00
696.5450, 21572.00
697.7010, 21644.00
698.8570, 21525.00
700.0130, 21430.00
701.1680, 21582.00
702.3230, 21454.00
703.4780, 21545.00
704.6330, 21552.00
705.7880, 21677.00
706.9430, 21519.00
708.0970, 21492.00
709.2520, 21707.00
710.4060, 21544.00
711.5600, 21732.00
712.7140, 21757.00
713.8670, 21686.00
715.0210, 21592.00
716.1740, 21679.00
717.3270, 21622.00
718.4800, 21585.00
719.6330, 21582.00
720.7860, 21809.00
721.9380, 21743.00
723.0910, 21646.00
724.2430, 21720.00
725.3950, 21816.00
726.5470, 21672.00
727.6980, 21854.00
728.8500, 21903.00
730.0010, 21853.00
731.1530, 21734.00
732.3040, 21854.00
733.4550, 21966.00
734.6050, 21748.00
735.7560, 21815.00
736.9060, 21966.00
738.0560, 22024.00
739.2060, 21808.00
740.3560, 21973.00
741.5060, 21909.00
742.6560, 21958.00
743.8050, 22076.00
744.9540, 22062.00
746.1030, 22197.00
747.2520, 22043.00
748.4010, 22267.00
749.5500, 22130.00
750.6980, 22197.00
751.8460, 22104.00
752.9950, 22272.00
754.1420, 22124.00
755.2900, 22276.00
756.4380, 22182.00
757.5850, 22113.00
758.7330, 22298.00
759.8800, 22148.00
761.0270, 22109.00
762.1730, 22288.00
763.3200, 22323.00
764.4670, 22069.00
765.6130, 22168.42
766.7590, 22246.29
767.9050, 22293.26
769.0510, 22311.00
770.1960, 22211.96
771.3420, 22263.71
772.4870, 22255.03
773.6320, 22243.87
774.7770, 22297.00
775.9220, 22281.00
777.0670, 22542.00
778.2110, 22488.00
779.3560, 22357.00
780.5000, 22388.00
781.6440, 22348.00
782.7880, 22577.00
783.9320, 22622.00
785.0750, 22444.00
786.2180, 22459.00
787.3620, 22590.00
788.5050, 22474.00
789.6480, 22643.00
790.7900, 22580.00
791.9330, 22467.00
793.0750, 22568.00
794.2170, 22601.00
795.3590, 22565.00
796.5010, 22638.00
797.6430, 22641.00
798.7850, 22639.00
799.9260, 22783.00
801.0670, 22787.00
802.2080, 22725.00
803.3490, 22782.00
804.4900, 22655.00
805.6310, 22700.00
806.7710, 22934.00
807.9110, 22823.00
809.0510, 22769.00
810.1910, 22732.00
811.3310, 22872.00
812.4710, 22811.00
813.6100, 22937.00
814.7490, 22961.00
815.8880, 22952.00
817.0270, 22976.00
818.1660, 22968.00
819.3050, 22857.00
820.4430, 22941.00
821.5820, 22926.00
822.7200, 23091.00
823.8580, 23149.00
824.9950, 23310.00
826.1330, 23150.00
827.2710, 23185.00
828.4080, 23289.00
829.5450, 23276.00
830.6820, 23254.00
831.8190, 23247.00
832.9560, 23313.00
834.0920, 23421.00
835.2280, 23173.00
836.3650, 23359.00
837.5010, 23408.00
838.6360, 23446.00
839.7720, 23612.00
840.9080, 23453.00
842.0430, 23576.00
843.1780, 23636.00
844.3130, 23726.36
845.4480, 23807.57
846.5830, 23864.40
847.7170, 23898.13
848.8520, 23839.69
849.9860, 23900.28
851.1200, 23796.00
852.2540, 23961.00
853.3870, 24126.00
854.5210, 24059.00
855.6540, 23896.00
856.7880, 24094.00
857.9210, 24020.00
859.0540, 24076.00
860.1860, 24177.00
861.3190, 23881.00
862.4510, 23977.00
863.5840, 24200.00
864.7160, 23777.00
865.8480, 24043.00
866.9790, 24054.00
868.1110, 24039.00
869.2420, 24007.00
870.3740, 24321.00
871.5050, 24317.00
872.6360, 24287.00
873.7660, 24290.00
874.8970, 24120.00
876.0280, 24229.00
877.1580, 24437.00
878.2880, 24446.00
879.4180, 24236.00
880.5480, 24403.00
881.6770, 24468.00
882.8070, 24474.00
883.9360, 24445.00
885.0650, 24564.00
886.1940, 24661.00
887.3230, 24495.00
888.4520, 24583.00
889.5800, 24673.00
890.7090, 24523.00
891.8370, 24398.00
892.9650, 24645.00
894.0930, 24823.00
895.2200, 24759.00
896.3480, 24851.00
897.4750, 24818.00
898.6020, 24968.00
899.7290, 24760.00
900.8560, 24793.00
901.9830, 25049.00
903.1090, 25080.00
904.2360, 25016.00
905.3620, 24846.00
906.4880, 25113.00
907.6140, 25012.00
908.7400, 25152.00
909.8650, 24997.00
910.9900, 24939.00
912.1160, 25120.00
913.2410, 25282.00
914.3660, 25175.00
915.4900, 25190.00
916.6150, 25018.00
917.7390, 25077.00
918.8640, 25175.00
919.9880, 25124.00
921.1120, 24982.00
922.2350, 25122.00
923.3590, 25238.00
924.4820, 25218.00
925.6060, 25231.00
926.7290, 25404.00
927.8520, 25228.00
928.9740, 25409.00
930.0970, 25357.00
931.2190, 25392.00
932.3420, 25278.00
933.4640, 25380.00
934.5860, 25348.00
935.7080, 25423.00
936.8290, 25465.00
937.9510, 25430.00
939.0720, 25431.00
940.1930, 25663.00
941.3140, 25385.00
942.4350, 25701.00
943.5560, 25675.00
944.6760, 25540.00
945.7960, 25598.00
946.9170, 25710.00
948.0370, 25713.00
949.1560, 25523.00
950.2760, 25810.00
951.3960, 25793.00
952.5150, 25620.00
953.6340, 25960.00
954.7530, 25916.00
955.8720, 26100.00
956.9910, 25925.00
958.1090, 26213.00
959.2280, 26035.00
960.3460, 26143.00
961.4640, 26342.00
962.5820, 26054.00
963.6990, 26397.00
964.8170, 26293.00
965.9340, 26186.00
967.0510, 26235.00
968.1690, 26344.00
969.2850, 26497.00
970.4020, 26536.00
971.5190, 26372.00
972.6350, 26108.00
973.7510, 26352.00
974.8670, 26549.00
975.9830, 26472.00
977.0990, 26712.00
978.2150, 26544.00
979.3300, 26830.00
980.4450, 26723.00
981.5600, 26851.00
982.6750, 26832.00
983.7900, 26884.00
984.9050, 26977.00
986.0190, 27017.00
987.1340, 27191.00
988.2480, 27243.00
989.3620, 27289.00
990.4750, 27744.00
991.5890, 27588.00
992.7020, 27807.00
993.8160, 28010.00
994.9290, 28259.00
996.0420, 28457.00
997.1550, 28430.00
998.2670, 28957.00
999.3800, 29034.00
1000.492, 29956.00
1001.604, 30481.00
1002.716, 31259.00
1003.828, 32451.00
1004.940, 33745.00
1006.051, 35724.00
1007.163, 37527.00
1008.274, 40016.00
1009.385, 42005.00
1010.496, 43317.00
1011.606, 43201.00
1012.717, 42471.00
1013.827, 40992.00
1014.937, 38661.00
1016.047, 36404.00
1017.157, 34632.00
1018.267, 33055.00
1019.377, 32205.00
1020.486, 31446.00
1021.595, 30739.00
1022.704, 30536.00
1023.813, 30175.00
1024.922, 29905.00
1026.030, 29804.00
1027.139, 29718.00
1028.247, 29756.00
1029.355, 29625.00
1030.463, 29455.00
1031.571, 29394.00
1032.678, 29196.00
1033.786, 28927.00
1034.893, 28876.00
1036.000, 28783.00
1037.107, 28831.00
1038.214, 28628.00
1039.321, 28400.00
1040.427, 28721.00
1041.533, 28388.00
1042.639, 28338.00
1043.745, 28300.00
1044.851, 28512.00
1045.957, 28449.00
1047.062, 28337.00
1048.168, 28506.00
1049.273, 28200.00
1050.378, 28385.00
1051.482, 28397.00
1052.587, 28366.00
1053.692, 28452.00
1054.796, 28361.00
1055.900, 28415.00
1057.004, 28200.00
1058.108, 28362.77
1059.212, 28487.70
1060.315, 28566.27
1061.418, 28600.99
1062.522, 28460.56
1063.625, 28546.31
1064.728, 28541.41
1065.830, 28532.78
1066.933, 28650.36
1068.035, 28535.38
1069.137, 28650.94
1070.239, 28674.48
1071.341, 28740.13
1072.443, 28714.58
1073.545, 28717.20
1074.646, 28850.00
1075.747, 28855.00
1076.848, 28867.00
1077.949, 28764.00
1079.050, 28883.00
1080.150, 28938.00
1081.251, 29109.00
1082.351, 29163.00
1083.451, 29200.00
1084.551, 29465.00
1085.651, 29326.00
1086.750, 29339.00
1087.850, 29594.00
1088.949, 29516.00
1090.048, 29272.00
1091.147, 29309.00
1092.246, 29065.00
1093.345, 29048.00
1094.443, 29080.00
1095.541, 29039.00
1096.639, 29086.00
1097.737, 29110.00
1098.835, 29360.00
1099.933, 29155.00
1101.030, 29183.00
1102.128, 29315.00
1103.225, 29333.00
1104.322, 29255.00
1105.419, 29292.00
1106.515, 29437.00
1107.612, 29300.00
1108.708, 29284.00
1109.804, 29308.00
1110.900, 29470.00
1111.996, 29446.00
1113.092, 29568.00
1114.187, 29466.00
1115.283, 29395.00
1116.378, 29404.00
1117.473, 29564.00
1118.568, 29618.00
1119.662, 29588.00
1120.757, 29781.00
1121.851, 29682.00
1122.946, 29558.00
1124.040, 29860.00
1125.134, 29710.00
1126.227, 29593.00
1127.321, 29880.00
1128.414, 29770.00
1129.508, 29934.00
1130.601, 29694.00
1131.693, 29786.00
1132.786, 30075.00
1133.879, 29718.00
1134.971, 29921.00
1136.064, 29920.00
1137.156, 30041.00
1138.248, 29978.00
1139.339, 30062.00
1140.431, 30277.00
1141.522, 30280.00
1142.614, 30066.00
1143.705, 30062.00
1144.796, 30257.00
1145.887, 30191.00
1146.977, 30354.00
1148.068, 30223.00
1149.158, 30260.00
1150.248, 30200.00
1151.338, 30441.00
1152.428, 30305.00
1153.518, 30474.00
1154.607, 30616.00
1155.696, 30431.00
1156.785, 30603.00
1157.874, 30288.00
1158.963, 30471.00
1160.052, 30496.00
1161.141, 30480.00
1162.229, 30601.00
1163.317, 30560.00
1164.405, 30568.00
1165.493, 30605.00
1166.581, 30683.00
1167.668, 30723.00
1168.756, 30773.00
1169.843, 30660.00
1170.930, 30825.00
1172.017, 30985.00
1173.103, 30828.00
1174.190, 31060.00
1175.276, 30777.00
1176.363, 30851.00
1177.449, 30747.00
1178.535, 30986.00
1179.620, 30909.00
1180.706, 30781.00
1181.791, 31259.00
1182.877, 31220.00
1183.962, 31300.00
1185.047, 31082.00
1186.131, 30863.00
1187.216, 31258.00
1188.300, 31179.00
1189.385, 31191.00
1190.469, 31301.00
1191.553, 31292.00
1192.637, 31225.00
1193.720, 31298.00
1194.804, 31421.00
1195.887, 31364.00
1196.970, 31631.00
1198.053, 31626.00
1199.136, 31598.00
1200.219, 31487.00
1201.301, 31395.00
1202.383, 31712.00
1203.465, 31566.00
1204.547, 31751.00
1205.629, 31683.00
1206.711, 31736.00
1207.792, 31801.00
1208.874, 31800.00
1209.955, 31787.00
1211.036, 31807.00
1212.117, 31797.00
1213.198, 31953.00
1214.278, 32018.00
1215.359, 31877.00
1216.439, 32104.00
1217.519, 31828.00
1218.599, 32143.00
1219.678, 32016.00
1220.758, 31946.00
1221.837, 32046.00
1222.917, 31928.00
1223.996, 32268.00
1225.075, 32193.00
1226.153, 32427.00
1227.232, 32337.00
1228.310, 32251.00
1229.389, 32351.00
1230.467, 32557.00
1231.545, 32503.00
1232.622, 32508.00
1233.700, 32456.00
1234.777, 32498.00
1235.855, 32316.00
1236.932, 32608.00
1238.009, 32388.00
1239.086, 32453.00
1240.162, 32584.00
1241.239, 32415.00
1242.315, 32578.00
1243.391, 32685.00
1244.467, 32602.00
1245.543, 32755.00
1246.619, 33084.00
1247.694, 32673.00
1248.769, 32646.00
1249.844, 32969.00
1250.919, 32819.00
1251.994, 32941.00
1253.069, 32809.00
1254.144, 33062.00
1255.218, 32702.00
1256.292, 33115.00
1257.366, 32815.00
1258.440, 32929.00
1259.514, 32990.00
1260.587, 33033.00
1261.661, 33060.00
1262.734, 33154.00
1263.807, 33121.00
1264.880, 33261.00
1265.952, 33066.00
1267.025, 33389.00
1268.097, 33093.00
1269.170, 33370.00
1270.242, 33347.00
1271.314, 33388.00
1272.385, 33648.00
1273.457, 33478.00
1274.528, 33707.00
1275.600, 33456.00
1276.671, 33364.00
1277.742, 33667.00
1278.812, 33662.00
1279.883, 33617.00
1280.954, 33829.00
1282.024, 33521.00
1283.094, 33765.00
1284.164, 33802.00
1285.234, 33544.00
1286.303, 33841.00
1287.373, 34086.00
1288.442, 33660.00
1289.511, 33715.00
1290.580, 33778.00
1291.649, 33976.00
1292.718, 33848.00
1293.786, 33834.00
1294.855, 33980.00
1295.923, 33978.00
1296.991, 34065.00
1298.059, 33972.38
1299.126, 34121.21
1300.194, 34223.74
1301.261, 34282.38
1302.328, 34165.86
1303.395, 34275.53
1304.462, 34294.55
1305.529, 34309.86
1306.596, 34451.36
1307.662, 34562.00
1308.728, 34292.00
1309.794, 34599.00
1310.860, 34541.00
1311.926, 34429.00
1312.991, 34353.00
1314.057, 34384.00
1315.122, 34536.00
1316.187, 34784.00
1317.252, 34373.00
1318.317, 34927.00
1319.381, 34628.00
1320.446, 34659.00
1321.510, 34754.00
1322.574, 34982.00
1323.638, 34774.00
1324.702, 34819.00
1325.766, 34776.00
1326.829, 34905.00
1327.892, 34905.00
1328.956, 35035.00
1330.019, 35113.00
1331.081, 35251.00
1332.144, 35254.00
1333.206, 35299.00
1334.269, 35285.00
1335.331, 34876.00
1336.393, 35164.00
1337.455, 35471.00
1338.516, 35309.00
1339.578, 35427.00
1340.639, 35229.00
1341.701, 35712.00
1342.762, 35423.00
1343.822, 35470.00
1344.883, 35761.00
1345.944, 35391.00
1347.004, 35548.00
1348.064, 35566.00
1349.124, 35525.00
1350.184, 35693.00
1351.244, 35727.00
1352.304, 35745.00
1353.363, 35507.00
1354.422, 35805.00
1355.481, 35921.00
1356.540, 35669.00
1357.599, 35880.00
1358.657, 35701.00
1359.716, 35839.00
1360.774, 35769.00
1361.832, 35839.00
1362.890, 35769.00
1363.948, 35755.00
1365.006, 36139.00
1366.063, 36230.00
1367.120, 35962.00
1368.178, 36008.00
1369.234, 36073.00
1370.291, 36008.00
1371.348, 36291.00
1372.404, 36126.00
1373.461, 36140.00
1374.517, 36123.00
1375.573, 36175.00
1376.629, 36195.00
1377.684, 36339.00
1378.740, 36313.00
1379.795, 36167.00
1380.850, 36465.00
1381.905, 36485.00
1382.960, 36238.28
1384.015, 36365.69
1385.070, 36446.77
1386.124, 36483.98
1387.178, 36346.02
1388.232, 36434.26
1389.286, 36431.85
1390.340, 36425.72
1391.393, 36545.77
1392.447, 36433.29
1393.500, 36551.34
1394.553, 36577.36
1395.606, 36776.00
1396.659, 36444.00
1397.711, 36759.00
1398.764, 36781.00
1399.816, 36905.00
1400.868, 36736.00
1401.920, 36823.00
1402.972, 36855.00
1404.023, 36966.00
1405.075, 36636.00
1406.126, 36783.00
1407.177, 36755.00
1408.228, 37006.00
1409.279, 36917.00
1410.330, 36753.00
1411.380, 36809.00
1412.431, 37152.00
1413.481, 37128.00
1414.531, 37163.00
1415.580, 37064.00
1416.630, 36976.00
1417.680, 37086.00
1418.729, 37161.00
1419.778, 37324.00
1420.827, 37431.00
1421.876, 37263.00
1422.925, 37398.00
1423.973, 37498.00
1425.022, 37213.00
1426.070, 37321.00
1427.118, 37549.00
1428.166, 37529.00
1429.214, 37485.00
1430.261, 37290.00
1431.309, 37834.00
1432.356, 37600.00
1433.403, 37577.00
1434.450, 37755.00
1435.497, 38029.00
1436.543, 37837.00
1437.590, 37607.00
1438.636, 37872.00
1439.682, 38054.00
1440.728, 38060.00
1441.774, 37877.00
1442.819, 37896.00
1443.865, 37965.00
1444.910, 38011.00
1445.955, 38067.00
1447.000, 37906.00
1448.045, 38162.00
1449.090, 38133.00
1450.134, 38025.00
1451.178, 38370.00
1452.223, 38287.00
1453.267, 38229.00
1454.310, 38107.00
1455.354, 38061.00
1456.398, 37980.00
1457.441, 38496.00
1458.484, 38298.00
1459.527, 38454.00
1460.570, 38506.00
1461.613, 38272.00
1462.655, 38462.00
1463.698, 38323.00
1464.740, 38443.00
1465.782, 38549.00
1466.824, 38576.00
1467.866, 38545.00
1468.907, 38790.00
1469.948, 38401.00
1470.990, 38445.00
1472.031, 38734.00
1473.072, 38622.00
1474.112, 38569.00
1475.153, 38891.00
1476.194, 38945.00
1477.234, 38785.00
1478.274, 38899.00
1479.314, 38770.00
1480.354, 38704.00
1481.393, 38791.00
1482.433, 38915.00
1483.472, 39072.00
1484.511, 38900.00
1485.550, 39070.00
1486.589, 39186.00
1487.628, 39348.00
1488.666, 39238.00
1489.704, 39113.00
1490.743, 39257.00
1491.781, 39279.00
1492.819, 39270.00
1493.856, 39305.00
1494.894, 39288.00
1495.931, 39285.00
1496.968, 39261.00
1498.005, 39360.00
1499.042, 39182.00
1500.079, 39471.00
1501.115, 39326.00
1502.152, 39605.00
1503.188, 39602.00
1504.224, 39844.00
1505.260, 39448.00
1506.296, 39714.00
1507.331, 39638.00
1508.367, 39619.00
1509.402, 39704.00
1510.437, 39717.00
1511.472, 39610.00
1512.507, 39935.00
1513.541, 40049.00
1514.576, 40089.00
1515.610, 40140.00
1516.644, 39794.00
1517.678, 39935.00
1518.712, 40105.00
1519.746, 40060.00
1520.779, 40208.00
1521.813, 40124.00
1522.846, 40073.00
1523.879, 40103.00
1524.912, 40323.00
1525.944, 40555.00
1526.977, 40467.00
1528.009, 40394.00
1529.041, 40327.00
1530.073, 40417.00
1531.105, 40196.00
1532.137, 40246.00
1533.168, 40578.00
1534.200, 40408.00
1535.231, 40607.00
1536.262, 40762.00
1537.293, 40373.00
1538.324, 40484.00
1539.354, 40749.00
1540.385, 40868.00
1541.415, 40655.00
1542.445, 40757.00
1543.475, 40736.00
1544.505, 40686.00
1545.534, 40966.00
1546.564, 40576.00
1547.593, 40804.00
1548.622, 40825.00
1549.651, 41018.00
1550.680, 40998.00
1551.708, 41123.00
1552.737, 40939.00
1553.765, 41136.00
1554.793, 41004.00
1555.821, 41177.00
1556.849, 41234.00
1557.877, 41244.00
1558.904, 41045.00
1559.932, 41116.00
1560.959, 40960.00
1561.986, 41202.00
1563.013, 40887.00
1564.039, 41263.00
1565.066, 41492.00
1566.092, 41266.00
1567.119, 41337.00
1568.145, 41396.00
1569.170, 41317.00
1570.196, 41693.00
1571.222, 41374.00
1572.247, 41311.00
1573.272, 41523.00
1574.297, 41503.00
1575.322, 41626.00
##END=



