##NAMES=Hedenbergite
##RRUFFID=R060040
##IDEAL CHEMISTRY=CaFe^2+^Si_2_O_6_
##LOCALITY=Rio Marina, Elba, Italy
##OWNER=RRUFF
##SOURCE=University of Arizona Mineral Museum
##DESCRIPTION=Radial aggregate of green thin bladed crystals
##STATUS=The identification of this mineral has been confirmed by X-ray diffraction and chemical analysis
##URL=rruff.info/R060040
##MEASURED CHEMISTRY=Ca_1.00_(Fe^2+^_0.89_Mg_0.09_Mn_0.02_)_Î£=1_Si_2.00_O_6_
##PIN_ID=M00548
##ORIENTATION=Laser parallel to c* (0 0 1). Fiducial mark perpendicular to laser is parallel to a [1 0 0]
262.4900, 11955.00
263.7050, 12108.00
264.9210, 12246.00
266.1360, 12304.00
267.3520, 12333.00
268.5670, 12466.00
269.7820, 12501.00
270.9960, 12736.00
272.2110, 12926.00
273.4250, 12999.38
274.6400, 13062.61
275.8540, 13102.60
277.0680, 13120.61
278.2810, 13050.81
279.4950, 13094.40
280.7090, 13092.55
281.9220, 13139.00
283.1350, 13206.00
284.3480, 13289.00
285.5610, 13156.00
286.7730, 13301.00
287.9860, 13353.00
289.1980, 13442.00
290.4100, 13332.00
291.6220, 13689.00
292.8340, 13644.00
294.0460, 13844.00
295.2570, 13948.00
296.4690, 13987.00
297.6800, 14135.00
298.8910, 14420.00
300.1020, 14309.00
301.3120, 14524.00
302.5230, 14775.00
303.7330, 14914.00
304.9440, 15082.00
306.1540, 15154.00
307.3630, 15290.00
308.5730, 15265.00
309.7830, 15137.00
310.9920, 14984.00
312.2010, 15031.00
313.4100, 14638.00
314.6190, 14582.00
315.8280, 14266.00
317.0370, 14303.00
318.2450, 14468.00
319.4530, 14248.00
320.6610, 14426.00
321.8690, 14522.00
323.0770, 14637.00
324.2850, 14597.00
325.4920, 14851.00
326.6990, 15009.00
327.9060, 15233.00
329.1130, 15221.00
330.3200, 15435.00
331.5270, 15808.00
332.7330, 15892.00
333.9390, 16050.00
335.1450, 15933.00
336.3510, 16216.00
337.5570, 16158.00
338.7630, 16480.00
339.9680, 16169.00
341.1740, 16083.00
342.3790, 15955.00
343.5840, 15334.00
344.7890, 15276.00
345.9930, 15048.00
347.1980, 14685.00
348.4020, 14380.00
349.6060, 14259.00
350.8100, 14179.00
352.0140, 13994.00
353.2180, 13921.00
354.4210, 14054.00
355.6250, 13856.00
356.8280, 13894.00
358.0310, 13891.00
359.2340, 14062.00
360.4360, 14123.00
361.6390, 14087.00
362.8410, 14357.00
364.0430, 14592.00
365.2450, 14844.00
366.4470, 15152.00
367.6490, 15499.00
368.8510, 15721.00
370.0520, 16155.00
371.2530, 16523.00
372.4540, 16900.00
373.6550, 17068.00
374.8560, 17240.00
376.0560, 17191.00
377.2570, 17092.00
378.4570, 16592.00
379.6570, 16438.00
380.8570, 15700.00
382.0570, 15552.00
383.2560, 15087.00
384.4560, 14809.00
385.6550, 14654.00
386.8540, 14339.00
388.0530, 14259.00
389.2520, 14037.00
390.4510, 14016.00
391.6490, 13872.00
392.8470, 13754.00
394.0450, 13852.00
395.2430, 13764.00
396.4410, 13644.00
397.6390, 13721.00
398.8360, 13765.00
400.0340, 13745.00
401.2310, 13768.00
402.4280, 13744.00
403.6250, 13574.00
404.8210, 13709.00
406.0180, 13765.00
407.2140, 13725.00
408.4100, 13665.00
409.6060, 13631.00
410.8020, 13661.00
411.9980, 13650.00
413.1930, 13650.00
414.3890, 13812.00
415.5840, 13585.00
416.7790, 13419.00
417.9740, 13761.75
419.1680, 13802.49
420.3630, 13819.98
421.5570, 13815.51
422.7510, 13723.23
423.9450, 13744.33
425.1390, 13885.00
426.3330, 13799.00
427.5270, 13799.00
428.7200, 13969.00
429.9130, 13905.00
431.1060, 13976.00
432.2990, 14127.00
433.4920, 14184.00
434.6840, 13927.00
435.8770, 14065.00
437.0690, 14222.00
438.2610, 14167.00
439.4530, 14201.00
440.6450, 14216.00
441.8360, 14233.00
443.0280, 14159.00
444.2190, 14265.00
445.4100, 14202.00
446.6010, 14241.00
447.7920, 14041.00
448.9820, 14156.00
450.1730, 14227.00
451.3630, 14202.00
452.5530, 14225.00
453.7430, 14274.00
454.9330, 14158.00
456.1230, 14324.00
457.3120, 14040.00
458.5010, 14346.00
459.6910, 14243.00
460.8800, 14271.00
462.0680, 14198.00
463.2570, 14357.00
464.4460, 14090.00
465.6340, 14232.00
466.8220, 14161.00
468.0100, 14299.00
469.1980, 14188.00
470.3860, 14423.00
471.5730, 14497.00
472.7600, 14323.00
473.9480, 14384.00
475.1350, 14399.00
476.3210, 14584.00
477.5080, 14538.00
478.6950, 14555.00
479.8810, 14599.00
481.0670, 14647.00
482.2530, 14607.00
483.4390, 14585.00
484.6250, 14608.00
485.8100, 14687.00
486.9960, 14723.00
488.1810, 14853.00
489.3660, 14816.00
490.5510, 15077.00
491.7360, 15030.00
492.9200, 14988.00
494.1050, 15127.00
495.2890, 15142.00
496.4730, 15066.00
497.6570, 15124.00
498.8400, 15176.00
500.0240, 15034.00
501.2070, 15041.00
502.3910, 14995.00
503.5740, 15073.00
504.7570, 15024.00
505.9400, 14953.00
507.1220, 14981.00
508.3050, 15070.00
509.4870, 15175.00
510.6690, 15050.00
511.8510, 15164.00
513.0330, 15338.00
514.2140, 15116.00
515.3960, 15335.00
516.5770, 15290.00
517.7580, 15306.00
518.9390, 15467.00
520.1200, 15392.00
521.3010, 15224.00
522.4810, 15582.00
523.6610, 15383.00
524.8420, 15457.00
526.0220, 15374.00
527.2010, 15436.00
528.3810, 15467.00
529.5610, 15537.00
530.7400, 15382.00
531.9190, 15531.00
533.0980, 15587.00
534.2770, 15497.00
535.4560, 15633.00
536.6340, 15707.00
537.8120, 15581.00
538.9910, 15663.00
540.1690, 15659.00
541.3460, 15823.00
542.5240, 15774.00
543.7020, 16053.00
544.8790, 15992.00
546.0560, 16249.00
547.2330, 16353.00
548.4100, 16510.00
549.5870, 16737.00
550.7630, 16871.00
551.9400, 17052.00
553.1160, 16898.00
554.2920, 16904.00
555.4680, 16884.00
556.6440, 16602.00
557.8190, 16319.00
558.9950, 16319.00
560.1700, 16164.00
561.3450, 16161.00
562.5200, 16081.00
563.6950, 16031.00
564.8690, 15949.00
566.0440, 16161.00
567.2180, 16082.00
568.3920, 15932.00
569.5660, 16037.00
570.7400, 15975.00
571.9130, 16009.00
573.0870, 16020.00
574.2600, 16035.00
575.4330, 16196.00
576.6060, 16060.00
577.7790, 16013.00
578.9520, 15994.00
580.1240, 16081.00
581.2960, 16058.00
582.4690, 16063.00
583.6410, 16238.00
584.8120, 16197.00
585.9840, 16274.00
587.1560, 16062.00
588.3270, 16190.00
589.4980, 16294.00
590.6690, 16315.00
591.8400, 16349.00
593.0110, 16310.00
594.1810, 16470.00
595.3510, 16332.00
596.5220, 16475.00
597.6920, 16518.00
598.8610, 16570.00
600.0310, 16613.00
601.2010, 16611.00
602.3700, 16579.00
603.5390, 16756.00
604.7080, 16586.00
605.8770, 16627.00
607.0460, 16700.00
608.2140, 16747.00
609.3830, 16841.00
610.5510, 16892.00
611.7190, 17042.00
612.8870, 16811.00
614.0550, 16997.00
615.2220, 17045.00
616.3900, 17021.00
617.5570, 17171.00
618.7240, 16964.00
619.8910, 17139.00
621.0580, 17103.00
622.2240, 17344.00
623.3910, 17247.00
624.5570, 17300.00
625.7230, 17609.00
626.8890, 17550.00
628.0550, 17442.00
629.2200, 17700.00
630.3860, 17831.00
631.5510, 17789.00
632.7160, 17852.00
633.8810, 18203.00
635.0460, 18178.00
636.2100, 18146.00
637.3750, 18176.00
638.5390, 18784.00
639.7030, 18683.00
640.8670, 18817.00
642.0310, 19163.00
643.1950, 19466.00
644.3580, 19602.00
645.5210, 20228.00
646.6850, 20752.00
647.8480, 21255.00
649.0100, 21995.00
650.1730, 22763.00
651.3350, 23956.00
652.4980, 25372.00
653.6600, 26805.00
654.8220, 28711.00
655.9840, 30641.00
657.1450, 32646.00
658.3070, 34382.00
659.4680, 35393.00
660.6300, 35285.00
661.7910, 34516.00
662.9510, 32747.00
664.1120, 30268.00
665.2730, 28199.00
666.4330, 26203.00
667.5930, 24608.00
668.7530, 23118.00
669.9130, 21970.00
671.0730, 21010.00
672.2320, 20492.00
673.3920, 20024.00
674.5510, 19464.00
675.7100, 19275.00
676.8690, 19093.00
678.0280, 18820.00
679.1860, 18629.00
680.3450, 18575.00
681.5030, 18553.00
682.6610, 18319.00
683.8190, 18161.00
684.9770, 18094.00
686.1340, 18189.00
687.2920, 18186.00
688.4490, 18121.00
689.6060, 17958.00
690.7630, 18080.00
691.9200, 17862.00
693.0760, 18081.00
694.2330, 17949.00
695.3890, 18052.00
696.5450, 18000.00
697.7010, 17996.00
698.8570, 18088.00
700.0130, 18152.00
701.1680, 18213.00
702.3230, 17972.00
703.4780, 18158.00
704.6330, 18105.00
705.7880, 18187.00
706.9430, 18265.00
708.0970, 18109.00
709.2520, 18169.00
710.4060, 18114.00
711.5600, 18301.00
712.7140, 18380.00
713.8670, 18197.00
715.0210, 18074.00
716.1740, 18256.00
717.3270, 18320.00
718.4800, 18247.00
719.6330, 18243.00
720.7860, 18224.00
721.9380, 18343.00
723.0910, 18391.00
724.2430, 18393.00
725.3950, 18417.00
726.5470, 18491.00
727.6980, 18320.00
728.8500, 18412.00
730.0010, 18390.00
731.1530, 18495.00
732.3040, 18436.00
733.4550, 18453.00
734.6050, 18517.00
735.7560, 18619.00
736.9060, 18648.00
738.0560, 18587.00
739.2060, 18608.00
740.3560, 18607.00
741.5060, 18694.00
742.6560, 18818.00
743.8050, 18839.00
744.9540, 18918.00
746.1030, 18666.00
747.2520, 19033.00
748.4010, 18832.00
749.5500, 19116.00
750.6980, 18975.00
751.8460, 18985.00
752.9950, 19152.00
754.1420, 19168.00
755.2900, 19305.00
756.4380, 19034.00
757.5850, 19180.00
758.7330, 19149.00
759.8800, 19229.00
761.0270, 19259.00
762.1730, 19247.00
763.3200, 19143.00
764.4670, 19167.00
765.6130, 19141.00
766.7590, 19272.00
767.9050, 19263.00
769.0510, 19184.00
770.1960, 19304.00
771.3420, 19413.00
772.4870, 19110.00
773.6320, 19195.00
774.7770, 19175.00
775.9220, 19365.00
777.0670, 19364.00
778.2110, 19356.00
779.3560, 19288.00
780.5000, 19362.00
781.6440, 19392.00
782.7880, 19302.00
783.9320, 19511.00
785.0750, 19493.00
786.2180, 19289.00
787.3620, 19382.00
788.5050, 19331.00
789.6480, 19327.00
790.7900, 19546.00
791.9330, 19438.00
793.0750, 19317.00
794.2170, 19631.00
795.3590, 19630.00
796.5010, 19688.00
797.6430, 19685.00
798.7850, 19714.00
799.9260, 19776.00
801.0670, 19634.00
802.2080, 19717.00
803.3490, 19629.00
804.4900, 19760.00
805.6310, 19782.00
806.7710, 19800.00
807.9110, 19751.00
809.0510, 19822.00
810.1910, 19987.00
811.3310, 19971.00
812.4710, 19944.00
813.6100, 20088.00
814.7490, 19902.00
815.8880, 19855.00
817.0270, 19911.00
818.1660, 20142.00
819.3050, 20025.00
820.4430, 20196.00
821.5820, 20148.00
822.7200, 20205.00
823.8580, 20319.00
824.9950, 20372.00
826.1330, 20133.00
827.2710, 20388.00
828.4080, 20411.00
829.5450, 20264.00
830.6820, 20282.00
831.8190, 20444.00
832.9560, 20393.00
834.0920, 20750.00
835.2280, 20516.00
836.3650, 20368.00
837.5010, 20797.00
838.6360, 20753.00
839.7720, 20544.00
840.9080, 20721.00
842.0430, 20745.00
843.1780, 21060.00
844.3130, 21122.00
845.4480, 21166.00
846.5830, 21285.00
847.7170, 21590.00
848.8520, 21549.00
849.9860, 22004.00
851.1200, 21865.00
852.2540, 22096.00
853.3870, 22414.00
854.5210, 22241.00
855.6540, 22200.00
856.7880, 21969.00
857.9210, 21913.00
859.0540, 21901.00
860.1860, 21772.82
861.3190, 21734.11
862.4510, 21686.10
863.5840, 21629.92
864.7160, 21499.83
865.8480, 21496.98
866.9790, 21462.56
868.1110, 21314.02
869.2420, 21481.49
870.3740, 21588.59
871.5050, 21638.53
872.6360, 21460.15
873.7660, 21576.56
874.8970, 21574.86
876.0280, 21568.30
877.1580, 21726.21
878.2880, 21581.01
879.4180, 21736.31
880.5480, 21771.65
881.6770, 21861.87
882.8070, 21833.24
883.9360, 21841.30
885.0650, 21968.27
886.1940, 22029.40
887.3230, 22014.00
888.4520, 21952.00
889.5800, 22043.00
890.7090, 21991.00
891.8370, 21999.00
892.9650, 22062.00
894.0930, 22021.00
895.2200, 22035.00
896.3480, 22232.00
897.4750, 22153.00
898.6020, 22233.00
899.7290, 22395.00
900.8560, 22352.00
901.9830, 22340.00
903.1090, 22298.00
904.2360, 22412.00
905.3620, 22430.00
906.4880, 22585.00
907.6140, 22359.00
908.7400, 22500.00
909.8650, 22368.00
910.9900, 22393.00
912.1160, 22566.00
913.2410, 22505.00
914.3660, 22530.00
915.4900, 22571.00
916.6150, 22456.00
917.7390, 22324.00
918.8640, 22548.00
919.9880, 22507.00
921.1120, 22567.00
922.2350, 22577.00
923.3590, 22590.00
924.4820, 22613.00
925.6060, 22715.00
926.7290, 22665.00
927.8520, 22546.00
928.9740, 22451.00
930.0970, 22467.00
931.2190, 22549.00
932.3420, 22509.00
933.4640, 22548.00
934.5860, 22694.00
935.7080, 22532.00
936.8290, 22552.00
937.9510, 22700.00
939.0720, 22461.00
940.1930, 22887.00
941.3140, 22655.00
942.4350, 22821.00
943.5560, 22708.00
944.6760, 22822.00
945.7960, 22795.00
946.9170, 22858.00
948.0370, 22837.00
949.1560, 22861.00
950.2760, 23108.00
951.3960, 22953.00
952.5150, 22925.00
953.6340, 23030.00
954.7530, 23410.00
955.8720, 23295.00
956.9910, 23291.00
958.1090, 23406.00
959.2280, 23426.00
960.3460, 23294.00
961.4640, 23396.00
962.5820, 23629.00
963.6990, 23398.00
964.8170, 23673.00
965.9340, 23564.00
967.0510, 23665.00
968.1690, 23853.00
969.2850, 23576.00
970.4020, 23628.00
971.5190, 23719.00
972.6350, 23881.00
973.7510, 23920.00
974.8670, 23828.00
975.9830, 23876.00
977.0990, 24017.00
978.2150, 24177.00
979.3300, 24215.00
980.4450, 24398.00
981.5600, 24344.00
982.6750, 24493.00
983.7900, 24491.00
984.9050, 24633.00
986.0190, 24649.00
987.1340, 24951.00
988.2480, 24971.00
989.3620, 25283.00
990.4750, 25373.00
991.5890, 25607.00
992.7020, 25887.00
993.8160, 26195.00
994.9290, 26521.00
996.0420, 26770.00
997.1550, 27349.00
998.2670, 28135.00
999.3800, 28788.00
1000.492, 29781.00
1001.604, 31012.00
1002.716, 32458.00
1003.828, 34323.00
1004.940, 37090.00
1006.051, 40226.00
1007.163, 43808.00
1008.274, 48807.00
1009.385, 53562.00
1010.496, 57815.00
1011.606, 59941.00
1012.717, 59304.00
1013.827, 55966.00
1014.937, 51146.00
1016.047, 45979.00
1017.157, 41294.00
1018.267, 37350.00
1019.377, 34865.00
1020.486, 32785.00
1021.595, 31559.00
1022.704, 30545.00
1023.813, 29782.00
1024.922, 29548.00
1026.030, 29099.00
1027.139, 28920.00
1028.247, 28599.00
1029.355, 28478.00
1030.463, 28260.00
1031.571, 27980.00
1032.678, 27954.00
1033.786, 27652.00
1034.893, 27184.00
1036.000, 26847.00
1037.107, 26631.00
1038.214, 26686.00
1039.321, 26525.00
1040.427, 26231.00
1041.533, 26029.00
1042.639, 25926.00
1043.745, 25806.00
1044.851, 25586.00
1045.957, 25457.00
1047.062, 25840.00
1048.168, 25627.00
1049.273, 25469.00
1050.378, 25447.00
1051.482, 25536.00
1052.587, 25433.00
1053.692, 25507.00
1054.796, 25377.00
1055.900, 25341.00
1057.004, 25517.00
1058.108, 25342.00
1059.212, 25706.00
1060.315, 25458.00
1061.418, 25623.00
1062.522, 25452.00
1063.625, 25464.00
1064.728, 25566.00
1065.830, 25580.00
1066.933, 25505.00
1068.035, 25479.00
1069.137, 25590.00
1070.239, 25510.00
1071.341, 25424.00
1072.443, 25506.00
1073.545, 25668.00
1074.646, 25617.00
1075.747, 25889.00
1076.848, 25662.00
1077.949, 25686.00
1079.050, 25655.00
1080.150, 25914.00
1081.251, 25914.00
1082.351, 26047.00
1083.451, 25931.00
1084.551, 26315.00
1085.651, 26489.00
1086.750, 26724.00
1087.850, 26562.00
1088.949, 26292.00
1090.048, 26108.00
1091.147, 26198.00
1092.246, 26026.00
1093.345, 25978.00
1094.443, 26145.00
1095.541, 25967.00
1096.639, 25931.00
1097.737, 25818.00
1098.835, 26065.00
1099.933, 25840.00
1101.030, 25944.00
1102.128, 26114.00
1103.225, 26101.00
1104.322, 26123.00
1105.419, 26060.00
1106.515, 26081.00
1107.612, 26131.00
1108.708, 26385.00
1109.804, 26234.00
1110.900, 26029.00
1111.996, 26160.00
1113.092, 26228.00
1114.187, 26262.00
1115.283, 26215.00
1116.378, 26351.00
1117.473, 26310.00
1118.568, 26563.00
1119.662, 26298.00
1120.757, 26286.00
1121.851, 26474.00
1122.946, 26314.00
1124.040, 26389.00
1125.134, 26293.00
1126.227, 26295.00
1127.321, 26439.00
1128.414, 27027.00
1129.508, 26547.00
1130.601, 26264.00
1131.693, 26585.00
1132.786, 26613.00
1133.879, 26697.00
1134.971, 26488.00
1136.064, 26533.00
1137.156, 26540.00
1138.248, 26603.00
1139.339, 26706.00
1140.431, 26628.00
1141.522, 26421.00
1142.614, 26636.00
1143.705, 26542.00
1144.796, 26735.00
1145.887, 26716.00
1146.977, 26825.00
1148.068, 26969.00
1149.158, 26706.00
1150.248, 26962.00
1151.338, 26803.00
1152.428, 26774.00
1153.518, 26814.00
1154.607, 26937.00
1155.696, 26677.00
1156.785, 26962.00
1157.874, 26899.00
1158.963, 26894.00
1160.052, 26948.00
1161.141, 27023.00
1162.229, 26855.00
1163.317, 27052.00
1164.405, 26987.00
1165.493, 26951.03
1166.581, 27120.20
1167.668, 27228.94
1168.756, 27280.57
1169.843, 27103.87
1170.930, 27221.98
1172.017, 27221.93
1173.103, 27217.02
1174.190, 27376.61
1175.276, 27233.09
1176.363, 27443.00
1177.449, 27283.00
1178.535, 27426.00
1179.620, 27486.00
1180.706, 27432.00
1181.791, 27161.00
1182.877, 27371.00
1183.962, 27399.00
1185.047, 27513.00
1186.131, 27431.00
1187.216, 27479.00
1188.300, 27539.00
1189.385, 27598.00
1190.469, 27653.00
1191.553, 27596.00
1192.637, 27680.00
1193.720, 27810.00
1194.804, 27693.00
1195.887, 27830.00
1196.970, 27849.00
1198.053, 27773.00
1199.136, 27811.00
1200.219, 27732.00
1201.301, 27892.00
1202.383, 28038.00
1203.465, 27954.00
1204.547, 28012.00
1205.629, 28022.00
1206.711, 27897.00
1207.792, 27904.00
1208.874, 28085.00
1209.955, 28137.00
1211.036, 28156.00
1212.117, 28209.00
1213.198, 28146.00
1214.278, 28024.00
1215.359, 28453.00
1216.439, 28003.00
1217.519, 28171.00
1218.599, 28343.00
1219.678, 28310.00
1220.758, 28116.00
1221.837, 28434.00
1222.917, 28360.00
1223.996, 28466.00
1225.075, 28372.00
1226.153, 28613.00
1227.232, 28447.00
1228.310, 28582.00
1229.389, 28600.00
1230.467, 28566.00
1231.545, 28691.00
1232.622, 28593.00
1233.700, 28489.00
1234.777, 28756.00
1235.855, 28719.00
1236.932, 28378.00
1238.009, 28629.00
1239.086, 28537.00
1240.162, 28909.00
1241.239, 28963.00
1242.315, 28769.00
1243.391, 28823.00
1244.467, 28879.00
1245.543, 28822.00
1246.619, 28954.00
1247.694, 28976.00
1248.769, 28879.00
1249.844, 29087.00
1250.919, 29002.00
1251.994, 29081.00
1253.069, 29112.00
1254.144, 29225.00
1255.218, 29383.00
1256.292, 29122.00
1257.366, 29196.00
1258.440, 29277.00
1259.514, 29294.00
1260.587, 29145.00
1261.661, 29229.00
1262.734, 29246.00
1263.807, 29187.00
1264.880, 29334.00
1265.952, 29211.00
1267.025, 29419.00
1268.097, 29243.00
1269.170, 29480.00
1270.242, 29431.00
1271.314, 29551.00
1272.385, 29572.00
1273.457, 29668.00
1274.528, 29557.00
1275.600, 29600.00
1276.671, 29709.00
1277.742, 29891.00
1278.812, 29882.00
1279.883, 29586.00
1280.954, 29809.00
1282.024, 29748.00
1283.094, 29559.00
1284.164, 29750.00
1285.234, 30014.00
1286.303, 29707.00
1287.373, 29816.00
1288.442, 29960.00
1289.511, 30015.00
1290.580, 30308.00
1291.649, 29769.00
1292.718, 30023.00
1293.786, 30087.00
1294.855, 30242.00
1295.923, 30157.00
1296.991, 30257.00
1298.059, 30092.00
1299.126, 30001.00
1300.194, 30294.00
1301.261, 30267.00
1302.328, 30363.00
1303.395, 30419.00
1304.462, 30544.00
1305.529, 30334.00
1306.596, 30407.00
1307.662, 30590.00
1308.728, 30440.00
1309.794, 30513.00
1310.860, 30305.00
1311.926, 30433.00
1312.991, 30457.00
1314.057, 30614.00
1315.122, 30684.00
1316.187, 30731.00
1317.252, 30934.00
1318.317, 30653.00
1319.381, 30614.00
1320.446, 30804.00
1321.510, 30781.00
1322.574, 30768.00
1323.638, 30900.00
1324.702, 31103.00
1325.766, 31027.00
1326.829, 30678.00
1327.892, 30818.00
1328.956, 30766.00
1330.019, 30939.00
1331.081, 31171.00
1332.144, 30993.00
1333.206, 31098.00
1334.269, 31171.00
1335.331, 31193.00
1336.393, 31277.00
1337.455, 31401.00
1338.516, 31254.00
1339.578, 31171.00
1340.639, 31319.00
1341.701, 31366.00
1342.762, 31501.00
1343.822, 31392.00
1344.883, 31359.00
1345.944, 31216.00
1347.004, 31427.00
1348.064, 31311.00
1349.124, 31394.00
1350.184, 31419.00
1351.244, 31544.00
1352.304, 31569.00
1353.363, 31523.00
1354.422, 31717.00
1355.481, 31795.00
1356.540, 31707.00
1357.599, 31549.00
1358.657, 31703.00
1359.716, 31545.00
1360.774, 31687.00
1361.832, 31749.00
1362.890, 31917.00
1363.948, 31810.00
1365.006, 31732.00
1366.063, 31819.00
1367.120, 31851.00
1368.178, 31950.00
1369.234, 31652.00
1370.291, 32016.00
1371.348, 31727.00
1372.404, 31984.00
1373.461, 31744.00
1374.517, 32072.00
1375.573, 32174.00
1376.629, 31995.00
1377.684, 32281.00
1378.740, 32095.00
1379.795, 32053.00
1380.850, 32020.00
1381.905, 32135.00
1382.960, 32168.00
1384.015, 31977.00
1385.070, 32104.00
1386.124, 32102.00
1387.178, 32222.00
1388.232, 32236.00
1389.286, 32339.00
1390.340, 31932.00
1391.393, 32307.00
1392.447, 32245.00
1393.500, 32300.00
1394.553, 32437.00
1395.606, 32510.00
1396.659, 32474.00
1397.711, 32668.00
1398.764, 32532.00
1399.816, 32277.00
1400.868, 32408.00
1401.920, 32459.00
1402.972, 32818.00
1404.023, 32553.00
1405.075, 32693.00
1406.126, 32658.00
1407.177, 32715.00
1408.228, 32733.00
1409.279, 32545.00
1410.330, 32586.00
1411.380, 32833.00
1412.431, 32874.00
1413.481, 32594.00
1414.531, 32940.00
1415.580, 32855.00
1416.630, 32893.00
1417.680, 32991.00
1418.729, 32919.00
1419.778, 32956.00
1420.827, 33131.00
1421.876, 32901.00
1422.925, 33267.00
1423.973, 32885.00
1425.022, 33033.00
1426.070, 33190.00
1427.118, 33042.00
1428.166, 33191.00
1429.214, 33293.00
1430.261, 33374.00
1431.309, 33413.00
1432.356, 33586.00
1433.403, 33571.00
1434.450, 33516.00
1435.497, 33537.00
1436.543, 33628.00
1437.590, 33664.00
1438.636, 33737.00
1439.682, 33754.00
1440.728, 33817.00
1441.774, 33958.00
1442.819, 33673.00
1443.865, 33914.00
1444.910, 33871.00
1445.955, 33908.00
1447.000, 33837.00
1448.045, 33944.00
1449.090, 33849.00
1450.134, 33877.00
1451.178, 33908.00
1452.223, 33914.00
1453.267, 33792.00
1454.310, 34056.00
1455.354, 34004.00
1456.398, 34032.00
1457.441, 34085.00
1458.484, 34091.00
1459.527, 34131.00
1460.570, 34222.00
1461.613, 34055.00
1462.655, 34169.00
1463.698, 34099.00
1464.740, 34150.00
1465.782, 34119.00
1466.824, 34084.00
1467.866, 34211.00
1468.907, 34508.00
1469.948, 33998.00
1470.990, 34009.00
1472.031, 34408.00
1473.072, 34164.00
1474.112, 34506.00
1475.153, 34027.00
1476.194, 34514.00
1477.234, 34513.00
1478.274, 34527.00
1479.314, 34404.00
1480.354, 34548.00
1481.393, 34503.00
1482.433, 34371.00
1483.472, 34436.00
1484.511, 34513.00
1485.550, 34484.00
1486.589, 34527.00
1487.628, 34663.00
1488.666, 34656.00
1489.704, 34694.00
1490.743, 34910.00
1491.781, 34718.00
1492.819, 34667.00
1493.856, 34669.00
1494.894, 34889.00
1495.931, 34713.00
1496.968, 34888.00
1498.005, 34950.00
1499.042, 34897.00
1500.079, 34783.00
1501.115, 34926.00
1502.152, 34983.00
1503.188, 34893.00
1504.224, 35155.00
1505.260, 35148.00
1506.296, 35040.00
1507.331, 35043.00
1508.367, 35039.00
1509.402, 34978.00
1510.437, 34818.00
1511.472, 35152.00
1512.507, 35216.00
1513.541, 35106.00
1514.576, 35254.00
1515.610, 35277.00
1516.644, 34986.00
1517.678, 35316.00
1518.712, 35383.00
1519.746, 35092.00
1520.779, 35479.00
1521.813, 35315.00
1522.846, 35321.00
1523.879, 35565.00
1524.912, 35385.00
1525.944, 35530.00
1526.977, 35520.00
1528.009, 35481.00
1529.041, 35666.00
1530.073, 35360.00
1531.105, 35503.00
1532.137, 35546.00
1533.168, 35750.00
1534.200, 35614.00
1535.231, 35840.00
1536.262, 35622.00
1537.293, 35634.00
1538.324, 35540.00
1539.354, 35639.00
1540.385, 35637.00
1541.415, 35863.00
1542.445, 35776.00
1543.475, 35965.00
1544.505, 35751.00
1545.534, 35913.00
1546.564, 35867.00
1547.593, 35980.00
1548.622, 35679.00
1549.651, 35893.00
1550.680, 35778.00
1551.708, 36064.00
1552.737, 36143.00
1553.765, 36342.00
1554.793, 36168.00
1555.821, 36312.00
1556.849, 36179.00
1557.877, 36042.00
1558.904, 36223.00
1559.932, 36339.00
1560.959, 36180.00
1561.986, 36282.00
1563.013, 36237.00
1564.039, 36217.00
1565.066, 36082.00
1566.092, 36201.00
1567.119, 36193.00
1568.145, 36122.00
1569.170, 36353.00
1570.196, 36247.00
1571.222, 36302.00
1572.247, 36688.00
1573.272, 36524.00
1574.297, 36539.00
1575.322, 36515.00
##END=



