##NAMES=Hedenbergite
##RRUFFID=R060040
##IDEAL CHEMISTRY=CaFe^2+^Si_2_O_6_
##LOCALITY=Rio Marina, Elba, Italy
##OWNER=RRUFF
##SOURCE=University of Arizona Mineral Museum
##DESCRIPTION=Radial aggregate of green thin bladed crystals
##STATUS=The identification of this mineral has been confirmed by X-ray diffraction and chemical analysis
##URL=rruff.info/R060040
##MEASURED CHEMISTRY=Ca_1.00_(Fe^2+^_0.89_Mg_0.09_Mn_0.02_)_Î£=1_Si_2.00_O_6_
##PIN_ID=M01578
##ORIENTATION=Laser parallel to (-1 0 -1). Fiducial mark perpendicular to laser is parallel to -b [0 -1 0]
262.4900, 12976.00
263.7050, 12911.00
264.9210, 13073.00
266.1360, 13003.00
267.3520, 13029.00
268.5670, 13323.00
269.7820, 13153.00
270.9960, 13240.00
272.2110, 13390.00
273.4250, 13411.00
274.6400, 13426.00
275.8540, 13505.00
277.0680, 13522.00
278.2810, 13610.00
279.4950, 13729.00
280.7090, 13662.00
281.9220, 13724.00
283.1350, 13847.00
284.3480, 13728.00
285.5610, 13810.00
286.7730, 13882.00
287.9860, 13903.00
289.1980, 13990.00
290.4100, 13997.00
291.6220, 14047.00
292.8340, 14060.00
294.0460, 14339.00
295.2570, 14138.00
296.4690, 14480.00
297.6800, 14467.00
298.8910, 14408.00
300.1020, 14587.00
301.3120, 14591.00
302.5230, 14778.00
303.7330, 14767.00
304.9440, 14759.00
306.1540, 15092.00
307.3630, 15160.00
308.5730, 15034.00
309.7830, 15062.00
310.9920, 15009.00
312.2010, 14904.00
313.4100, 14923.00
314.6190, 14781.00
315.8280, 14741.00
317.0370, 14897.00
318.2450, 14907.00
319.4530, 14818.00
320.6610, 15012.00
321.8690, 15110.00
323.0770, 15207.00
324.2850, 15240.00
325.4920, 15552.00
326.6990, 15649.00
327.9060, 15664.00
329.1130, 16056.00
330.3200, 15960.00
331.5270, 16158.00
332.7330, 16284.00
333.9390, 16537.00
335.1450, 16661.00
336.3510, 16873.00
337.5570, 16706.00
338.7630, 16935.00
339.9680, 16849.00
341.1740, 17049.00
342.3790, 16543.00
343.5840, 16445.00
344.7890, 16085.00
345.9930, 15906.00
347.1980, 15666.00
348.4020, 15511.00
349.6060, 15144.00
350.8100, 14960.00
352.0140, 15097.00
353.2180, 14952.00
354.4210, 15064.00
355.6250, 14830.00
356.8280, 14842.00
358.0310, 14961.00
359.2340, 14982.00
360.4360, 15080.00
361.6390, 15293.00
362.8410, 15400.00
364.0430, 15433.00
365.2450, 15806.00
366.4470, 15858.00
367.6490, 16021.00
368.8510, 16476.00
370.0520, 16770.00
371.2530, 17270.00
372.4540, 17625.00
373.6550, 17868.00
374.8560, 18024.00
376.0560, 18449.00
377.2570, 18039.00
378.4570, 18070.00
379.6570, 17380.00
380.8570, 17206.00
382.0570, 16874.00
383.2560, 16456.00
384.4560, 16001.00
385.6550, 15730.00
386.8540, 15731.00
388.0530, 15378.00
389.2520, 15287.00
390.4510, 15285.00
391.6490, 15197.00
392.8470, 15052.00
394.0450, 15052.00
395.2430, 14836.00
396.4410, 14954.00
397.6390, 14934.00
398.8360, 14714.00
400.0340, 14909.00
401.2310, 14941.00
402.4280, 15013.00
403.6250, 14787.00
404.8210, 15016.00
406.0180, 14840.00
407.2140, 14832.00
408.4100, 14922.00
409.6060, 14963.00
410.8020, 14878.00
411.9980, 14915.00
413.1930, 14926.00
414.3890, 14970.00
415.5840, 15011.00
416.7790, 15009.00
417.9740, 14879.00
419.1680, 15101.00
420.3630, 15048.00
421.5570, 14770.00
422.7510, 15142.00
423.9450, 15052.00
425.1390, 15235.00
426.3330, 15228.00
427.5270, 15137.00
428.7200, 15161.00
429.9130, 15279.00
431.1060, 15168.00
432.2990, 15146.00
433.4920, 15235.00
434.6840, 15331.00
435.8770, 15298.00
437.0690, 15444.00
438.2610, 15281.00
439.4530, 15354.00
440.6450, 15338.00
441.8360, 15360.00
443.0280, 15470.00
444.2190, 15209.00
445.4100, 15304.00
446.6010, 15472.00
447.7920, 15691.00
448.9820, 15555.00
450.1730, 15451.00
451.3630, 15422.00
452.5530, 15425.00
453.7430, 15506.00
454.9330, 15555.00
456.1230, 15544.00
457.3120, 15429.00
458.5010, 15677.00
459.6910, 15535.00
460.8800, 15433.00
462.0680, 15669.00
463.2570, 15508.00
464.4460, 15621.00
465.6340, 15552.00
466.8220, 15736.00
468.0100, 15609.00
469.1980, 15629.00
470.3860, 15787.00
471.5730, 15534.00
472.7600, 15785.00
473.9480, 15743.00
475.1350, 15613.00
476.3210, 15785.00
477.5080, 15995.00
478.6950, 15933.00
479.8810, 15977.00
481.0670, 15887.00
482.2530, 16085.00
483.4390, 15861.00
484.6250, 15986.00
485.8100, 16093.00
486.9960, 16138.00
488.1810, 16168.00
489.3660, 16094.69
490.5510, 16198.67
491.7360, 16264.04
492.9200, 16292.88
494.1050, 16175.81
495.2890, 16247.15
496.4730, 16242.98
497.6570, 16235.72
498.8400, 16333.56
500.0240, 16237.71
501.2070, 16333.89
502.3910, 16353.42
503.5740, 16408.02
504.7570, 16386.65
505.9400, 16388.74
507.1220, 16466.82
508.3050, 16502.84
509.4870, 16472.70
510.6690, 16529.52
511.8510, 16430.98
513.0330, 16468.78
514.2140, 16565.37
515.3960, 16539.06
516.5770, 16597.26
517.7580, 16623.26
518.9390, 16502.97
520.1200, 16637.10
521.3010, 16599.09
522.4810, 16702.64
523.6610, 16767.59
524.8420, 16796.03
526.0220, 16678.54
527.2010, 16749.45
528.3810, 16744.87
529.5610, 16737.20
530.7400, 16834.63
531.9190, 16738.35
533.0980, 16890.00
534.2770, 16868.00
535.4560, 16973.00
536.6340, 16946.00
537.8120, 16970.00
538.9910, 16885.00
540.1690, 17199.00
541.3460, 17121.00
542.5240, 17064.00
543.7020, 17235.00
544.8790, 17340.00
546.0560, 17492.00
547.2330, 17490.00
548.4100, 17734.00
549.5870, 17786.00
550.7630, 17976.00
551.9400, 17982.00
553.1160, 17998.00
554.2920, 17974.00
555.4680, 17876.00
556.6440, 17682.00
557.8190, 17702.00
558.9950, 17664.00
560.1700, 17587.00
561.3450, 17428.00
562.5200, 17613.00
563.6950, 17371.00
564.8690, 17466.00
566.0440, 17520.00
567.2180, 17427.00
568.3920, 17330.00
569.5660, 17414.00
570.7400, 17477.00
571.9130, 17552.00
573.0870, 17508.00
574.2600, 17415.00
575.4330, 17538.00
576.6060, 17592.00
577.7790, 17497.00
578.9520, 17353.00
580.1240, 17559.00
581.2960, 17360.00
582.4690, 17505.00
583.6410, 17610.00
584.8120, 17562.00
585.9840, 17455.12
587.1560, 17563.45
588.3270, 17633.17
589.4980, 17666.36
590.6690, 17553.62
591.8400, 17629.32
593.0110, 17629.50
594.1810, 17626.57
595.3510, 17728.76
596.5220, 17637.25
597.6920, 17737.78
598.8610, 17761.63
600.0310, 17820.58
601.2010, 17803.55
602.3700, 17809.98
603.5390, 17892.40
604.7080, 18010.00
605.8770, 18171.00
607.0460, 18067.00
608.2140, 17957.00
609.3830, 18033.00
610.5510, 18071.00
611.7190, 18172.00
612.8870, 18146.21
614.0550, 18251.90
615.2220, 18318.97
616.3900, 18349.54
617.5570, 18234.17
618.7240, 18307.23
619.8910, 18304.77
621.0580, 18299.22
622.2240, 18398.78
623.3910, 18304.64
624.5570, 18402.53
625.7230, 18519.00
626.8890, 18447.00
628.0550, 18680.00
629.2200, 18690.00
630.3860, 18857.00
631.5510, 18825.00
632.7160, 18963.00
633.8810, 18900.00
635.0460, 18981.00
636.2100, 19106.00
637.3750, 19211.00
638.5390, 19369.00
639.7030, 19355.00
640.8670, 19519.00
642.0310, 19615.00
643.1950, 19955.00
644.3580, 20140.00
645.5210, 19946.00
646.6850, 20447.00
647.8480, 20788.00
649.0100, 21222.00
650.1730, 21632.00
651.3350, 22063.00
652.4980, 22802.00
653.6600, 23639.00
654.8220, 24752.00
655.9840, 25633.00
657.1450, 27024.00
658.3070, 27810.00
659.4680, 28879.00
660.6300, 29069.00
661.7910, 28659.00
662.9510, 27806.00
664.1120, 26640.00
665.2730, 25177.00
666.4330, 24002.00
667.5930, 23211.00
668.7530, 22177.00
669.9130, 21570.00
671.0730, 21238.00
672.2320, 20819.00
673.3920, 20731.00
674.5510, 20509.00
675.7100, 20232.00
676.8690, 19934.00
678.0280, 20027.00
679.1860, 19821.00
680.3450, 19806.00
681.5030, 19771.00
682.6610, 19725.00
683.8190, 19637.00
684.9770, 19631.00
686.1340, 19655.00
687.2920, 19601.00
688.4490, 19722.00
689.6060, 19451.00
690.7630, 19665.00
691.9200, 19315.00
693.0760, 19516.00
694.2330, 19521.00
695.3890, 19534.00
696.5450, 19404.00
697.7010, 19553.00
698.8570, 19691.00
700.0130, 19539.00
701.1680, 19640.00
702.3230, 19738.00
703.4780, 19833.00
704.6330, 19645.00
705.7880, 19805.00
706.9430, 19827.00
708.0970, 19686.00
709.2520, 19734.00
710.4060, 19865.00
711.5600, 19860.00
712.7140, 19757.00
713.8670, 19879.00
715.0210, 19771.00
716.1740, 19860.00
717.3270, 19734.00
718.4800, 19909.00
719.6330, 19932.00
720.7860, 19822.00
721.9380, 20007.00
723.0910, 19972.00
724.2430, 19888.00
725.3950, 20220.00
726.5470, 20022.00
727.6980, 20023.00
728.8500, 19966.00
730.0010, 20017.00
731.1530, 20256.00
732.3040, 20173.00
733.4550, 20239.00
734.6050, 20151.00
735.7560, 20171.00
736.9060, 20015.00
738.0560, 20174.00
739.2060, 20191.00
740.3560, 20051.00
741.5060, 20285.00
742.6560, 20414.00
743.8050, 20327.00
744.9540, 20376.00
746.1030, 20388.00
747.2520, 20550.00
748.4010, 20562.00
749.5500, 20571.00
750.6980, 20595.00
751.8460, 20543.00
752.9950, 20607.00
754.1420, 20799.00
755.2900, 20440.00
756.4380, 20848.00
757.5850, 20794.00
758.7330, 20630.00
759.8800, 20644.00
761.0270, 20781.00
762.1730, 20770.00
763.3200, 20707.00
764.4670, 20691.00
765.6130, 20667.00
766.7590, 20736.00
767.9050, 20831.00
769.0510, 20716.00
770.1960, 20760.00
771.3420, 20893.00
772.4870, 21110.00
773.6320, 20977.00
774.7770, 20989.00
775.9220, 21139.00
777.0670, 20995.00
778.2110, 21110.00
779.3560, 20956.00
780.5000, 20889.00
781.6440, 21105.00
782.7880, 21228.00
783.9320, 21008.00
785.0750, 20966.00
786.2180, 21079.00
787.3620, 21115.00
788.5050, 21107.00
789.6480, 21116.00
790.7900, 21060.00
791.9330, 21361.00
793.0750, 21393.00
794.2170, 21027.00
795.3590, 21294.00
796.5010, 21419.00
797.6430, 21187.00
798.7850, 21513.00
799.9260, 21375.00
801.0670, 21306.00
802.2080, 21306.00
803.3490, 21423.00
804.4900, 21512.00
805.6310, 21295.00
806.7710, 21636.00
807.9110, 21572.00
809.0510, 21607.00
810.1910, 21648.00
811.3310, 21629.00
812.4710, 21574.00
813.6100, 21493.00
814.7490, 21603.00
815.8880, 21691.00
817.0270, 21666.00
818.1660, 21669.00
819.3050, 21783.00
820.4430, 21759.00
821.5820, 21769.00
822.7200, 21685.00
823.8580, 21689.00
824.9950, 21956.00
826.1330, 21774.00
827.2710, 21948.00
828.4080, 21923.00
829.5450, 22093.00
830.6820, 22131.00
831.8190, 22016.00
832.9560, 21955.00
834.0920, 21907.00
835.2280, 22130.00
836.3650, 22138.00
837.5010, 22088.00
838.6360, 22084.00
839.7720, 22125.00
840.9080, 22310.00
842.0430, 22363.00
843.1780, 22349.00
844.3130, 22566.00
845.4480, 22734.00
846.5830, 22725.00
847.7170, 22981.00
848.8520, 23186.00
849.9860, 23303.00
851.1200, 23608.00
852.2540, 23873.00
853.3870, 23985.00
854.5210, 23947.00
855.6540, 23768.00
856.7880, 23541.00
857.9210, 23389.00
859.0540, 23167.00
860.1860, 23264.00
861.3190, 22956.00
862.4510, 23128.00
863.5840, 23127.00
864.7160, 23105.00
865.8480, 23049.00
866.9790, 23045.00
868.1110, 22697.00
869.2420, 22995.00
870.3740, 23049.00
871.5050, 22905.00
872.6360, 23117.00
873.7660, 23053.00
874.8970, 23009.00
876.0280, 23269.00
877.1580, 23251.00
878.2880, 23237.00
879.4180, 23322.00
880.5480, 23205.00
881.6770, 23498.00
882.8070, 23271.00
883.9360, 23309.00
885.0650, 23334.00
886.1940, 23450.00
887.3230, 23475.00
888.4520, 23501.00
889.5800, 23553.00
890.7090, 23617.00
891.8370, 23646.00
892.9650, 23504.00
894.0930, 23508.00
895.2200, 23582.00
896.3480, 23554.00
897.4750, 23566.00
898.6020, 23734.00
899.7290, 23810.00
900.8560, 23771.00
901.9830, 23670.00
903.1090, 23718.00
904.2360, 23948.00
905.3620, 23744.00
906.4880, 23923.00
907.6140, 24054.00
908.7400, 23999.00
909.8650, 23863.00
910.9900, 24122.00
912.1160, 23923.00
913.2410, 24047.00
914.3660, 23928.00
915.4900, 24081.00
916.6150, 24081.00
917.7390, 23973.00
918.8640, 24126.00
919.9880, 24050.00
921.1120, 24141.00
922.2350, 24170.00
923.3590, 23981.00
924.4820, 24288.00
925.6060, 24126.00
926.7290, 23933.00
927.8520, 24114.00
928.9740, 24155.00
930.0970, 24148.00
931.2190, 24156.00
932.3420, 24379.00
933.4640, 24301.00
934.5860, 24224.00
935.7080, 24474.00
936.8290, 24285.00
937.9510, 24354.00
939.0720, 24311.00
940.1930, 24396.00
941.3140, 24336.00
942.4350, 24261.00
943.5560, 24445.00
944.6760, 24529.00
945.7960, 24561.00
946.9170, 24382.00
948.0370, 24496.00
949.1560, 24503.00
950.2760, 24553.00
951.3960, 24765.00
952.5150, 24717.00
953.6340, 24803.00
954.7530, 24727.00
955.8720, 24871.00
956.9910, 24827.00
958.1090, 24815.00
959.2280, 25044.00
960.3460, 24757.00
961.4640, 25078.00
962.5820, 24873.00
963.6990, 24970.00
964.8170, 25135.00
965.9340, 25361.00
967.0510, 25149.00
968.1690, 25110.00
969.2850, 25077.00
970.4020, 25232.00
971.5190, 25215.00
972.6350, 25259.00
973.7510, 25005.00
974.8670, 25135.00
975.9830, 25405.00
977.0990, 25374.00
978.2150, 25518.00
979.3300, 25429.00
980.4450, 25665.00
981.5600, 25580.00
982.6750, 25715.00
983.7900, 25687.00
984.9050, 25647.00
986.0190, 25808.00
987.1340, 25962.00
988.2480, 26112.00
989.3620, 26159.00
990.4750, 26249.00
991.5890, 26291.00
992.7020, 26502.00
993.8160, 26578.00
994.9290, 26718.00
996.0420, 26928.00
997.1550, 27179.00
998.2670, 27368.00
999.3800, 27919.00
1000.492, 28244.00
1001.604, 28705.00
1002.716, 29460.00
1003.828, 30477.00
1004.940, 31607.00
1006.051, 33184.00
1007.163, 35133.00
1008.274, 37416.00
1009.385, 40255.00
1010.496, 42991.00
1011.606, 44854.00
1012.717, 45111.00
1013.827, 43650.00
1014.937, 41238.00
1016.047, 38157.00
1017.157, 35435.00
1018.267, 33488.00
1019.377, 32185.00
1020.486, 30859.00
1021.595, 30145.00
1022.704, 29700.00
1023.813, 29220.00
1024.922, 29062.00
1026.030, 28996.00
1027.139, 28676.00
1028.247, 28521.00
1029.355, 28744.00
1030.463, 28440.00
1031.571, 28222.00
1032.678, 28109.00
1033.786, 28303.00
1034.893, 28532.00
1036.000, 28574.00
1037.107, 27670.00
1038.214, 27580.00
1039.321, 27823.00
1040.427, 27354.00
1041.533, 27165.00
1042.639, 27455.00
1043.745, 27281.00
1044.851, 27244.00
1045.957, 27208.00
1047.062, 27234.00
1048.168, 27276.00
1049.273, 27022.00
1050.378, 27208.00
1051.482, 27185.00
1052.587, 27322.00
1053.692, 27192.00
1054.796, 27223.00
1055.900, 26960.00
1057.004, 26970.00
1058.108, 26990.00
1059.212, 27159.00
1060.315, 27114.00
1061.418, 27226.00
1062.522, 27283.00
1063.625, 27236.00
1064.728, 27243.00
1065.830, 27290.00
1066.933, 27358.00
1068.035, 27205.00
1069.137, 27314.00
1070.239, 27422.00
1071.341, 27556.00
1072.443, 27277.00
1073.545, 27300.00
1074.646, 27290.00
1075.747, 27358.00
1076.848, 27542.00
1077.949, 27548.00
1079.050, 27388.00
1080.150, 27547.00
1081.251, 27441.00
1082.351, 27678.00
1083.451, 27729.00
1084.551, 27674.00
1085.651, 27865.00
1086.750, 27873.00
1087.850, 27738.00
1088.949, 27814.00
1090.048, 27870.00
1091.147, 27839.00
1092.246, 27596.00
1093.345, 27706.00
1094.443, 27770.00
1095.541, 27900.00
1096.639, 27890.00
1097.737, 27798.00
1098.835, 27822.00
1099.933, 27805.00
1101.030, 28033.00
1102.128, 27837.00
1103.225, 27825.00
1104.322, 28069.00
1105.419, 27980.00
1106.515, 27980.00
1107.612, 27894.00
1108.708, 28173.00
1109.804, 27909.00
1110.900, 28070.00
1111.996, 28197.00
1113.092, 28148.00
1114.187, 28428.00
1115.283, 28207.00
1116.378, 28487.00
1117.473, 28233.00
1118.568, 28245.00
1119.662, 28261.00
1120.757, 28341.00
1121.851, 28476.00
1122.946, 28436.00
1124.040, 28561.00
1125.134, 28375.00
1126.227, 28441.00
1127.321, 28318.00
1128.414, 28299.00
1129.508, 28371.00
1130.601, 28473.00
1131.693, 28542.00
1132.786, 28514.00
1133.879, 28587.00
1134.971, 28402.00
1136.064, 28570.00
1137.156, 28660.00
1138.248, 28496.00
1139.339, 28524.00
1140.431, 28677.00
1141.522, 28734.00
1142.614, 28826.00
1143.705, 28449.00
1144.796, 28593.00
1145.887, 28655.00
1146.977, 28720.00
1148.068, 28600.00
1149.158, 28850.00
1150.248, 28905.00
1151.338, 29035.00
1152.428, 28994.00
1153.518, 28898.00
1154.607, 28902.00
1155.696, 28925.00
1156.785, 28903.00
1157.874, 28829.00
1158.963, 29020.00
1160.052, 29048.00
1161.141, 29142.00
1162.229, 28987.00
1163.317, 29175.00
1164.405, 29073.00
1165.493, 28846.00
1166.581, 29097.00
1167.668, 29232.00
1168.756, 29421.00
1169.843, 29192.00
1170.930, 29123.13
1172.017, 29333.55
1173.103, 29460.33
1174.190, 29507.98
1175.276, 29239.45
1176.363, 29379.20
1177.449, 29355.31
1178.535, 29324.73
1179.620, 29521.90
1180.706, 29299.36
1181.791, 29492.91
1182.877, 29520.38
1183.962, 29623.86
1185.047, 29562.71
1186.131, 29552.39
1187.216, 29706.77
1188.300, 29769.94
1189.385, 29689.84
1190.469, 29798.13
1191.553, 29569.80
1192.637, 29636.86
1193.720, 29831.35
1194.804, 29805.00
1195.887, 30000.00
1196.970, 29758.00
1198.053, 29934.00
1199.136, 29784.00
1200.219, 29874.00
1201.301, 29660.00
1202.383, 30063.00
1203.465, 30262.00
1204.547, 29980.00
1205.629, 30013.00
1206.711, 30071.00
1207.792, 30267.00
1208.874, 30303.00
1209.955, 30121.00
1211.036, 30291.00
1212.117, 30340.00
1213.198, 30130.00
1214.278, 30065.00
1215.359, 30096.00
1216.439, 30307.00
1217.519, 30379.00
1218.599, 30580.00
1219.678, 30516.00
1220.758, 30488.00
1221.837, 30455.00
1222.917, 30348.00
1223.996, 30640.00
1225.075, 30684.00
1226.153, 30355.00
1227.232, 30779.00
1228.310, 30663.00
1229.389, 30564.00
1230.467, 30682.00
1231.545, 30726.00
1232.622, 30798.00
1233.700, 30797.00
1234.777, 30659.00
1235.855, 30592.00
1236.932, 30939.00
1238.009, 30867.00
1239.086, 31142.00
1240.162, 30946.00
1241.239, 31058.00
1242.315, 30929.00
1243.391, 30916.00
1244.467, 31201.00
1245.543, 30980.00
1246.619, 31000.00
1247.694, 30992.00
1248.769, 31003.00
1249.844, 31264.00
1250.919, 31299.00
1251.994, 31098.00
1253.069, 31186.00
1254.144, 31312.00
1255.218, 31245.00
1256.292, 31545.00
1257.366, 31282.00
1258.440, 31408.00
1259.514, 31337.00
1260.587, 31542.00
1261.661, 31484.00
1262.734, 31533.00
1263.807, 31362.00
1264.880, 31747.00
1265.952, 31520.00
1267.025, 31626.00
1268.097, 31658.00
1269.170, 31714.00
1270.242, 31966.00
1271.314, 31552.00
1272.385, 31768.00
1273.457, 31742.00
1274.528, 31647.00
1275.600, 31816.00
1276.671, 32018.00
1277.742, 32013.00
1278.812, 31876.00
1279.883, 31830.00
1280.954, 31742.00
1282.024, 31876.00
1283.094, 32002.00
1284.164, 31965.00
1285.234, 32029.00
1286.303, 32030.00
1287.373, 32048.00
1288.442, 32041.00
1289.511, 32090.00
1290.580, 32407.00
1291.649, 32130.00
1292.718, 32130.00
1293.786, 31945.00
1294.855, 32251.00
1295.923, 32203.00
1296.991, 32281.00
1298.059, 32312.00
1299.126, 32369.00
1300.194, 32395.00
1301.261, 32270.00
1302.328, 32313.00
1303.395, 32229.00
1304.462, 32402.00
1305.529, 32343.00
1306.596, 32593.00
1307.662, 32637.00
1308.728, 32360.00
1309.794, 32606.00
1310.860, 32701.00
1311.926, 32848.00
1312.991, 32715.00
1314.057, 32727.00
1315.122, 32724.00
1316.187, 32601.00
1317.252, 33069.00
1318.317, 33100.00
1319.381, 32820.00
1320.446, 32962.00
1321.510, 32998.00
1322.574, 32797.00
1323.638, 33078.00
1324.702, 33092.00
1325.766, 32905.00
1326.829, 32935.00
1327.892, 32998.00
1328.956, 33409.00
1330.019, 33250.00
1331.081, 33197.00
1332.144, 33239.00
1333.206, 33244.00
1334.269, 33147.00
1335.331, 33273.00
1336.393, 33269.00
1337.455, 33310.00
1338.516, 33217.00
1339.578, 33308.00
1340.639, 33436.00
1341.701, 33462.00
1342.762, 33430.00
1343.822, 33521.00
1344.883, 33801.00
1345.944, 33731.00
1347.004, 33597.00
1348.064, 33592.00
1349.124, 33337.00
1350.184, 33620.00
1351.244, 33752.00
1352.304, 33655.00
1353.363, 33627.00
1354.422, 33539.25
1355.481, 33753.99
1356.540, 33885.10
1357.599, 33937.08
1358.657, 33672.87
1359.716, 33816.94
1360.774, 33797.38
1361.832, 33771.11
1362.890, 33972.62
1363.948, 33754.40
1365.006, 33952.30
1366.063, 33984.06
1367.120, 34091.86
1368.178, 34035.05
1369.234, 34029.04
1370.291, 34187.73
1371.348, 34255.24
1372.404, 34179.44
1373.461, 34292.07
1374.517, 34068.05
1375.573, 34139.42
1376.629, 34338.24
1377.684, 34270.69
1378.740, 34386.30
1379.795, 34322.00
1380.850, 34355.00
1381.905, 34449.00
1382.960, 34507.00
1384.015, 34550.00
1385.070, 34316.00
1386.124, 34549.00
1387.178, 34364.00
1388.232, 34549.00
1389.286, 34408.00
1390.340, 34406.00
1391.393, 34534.00
1392.447, 34709.00
1393.500, 34471.00
1394.553, 34576.00
1395.606, 34666.00
1396.659, 34778.00
1397.711, 34679.00
1398.764, 34790.00
1399.816, 34927.00
1400.868, 34477.00
1401.920, 34843.00
1402.972, 34787.00
1404.023, 34922.00
1405.075, 35115.00
1406.126, 34843.00
1407.177, 35131.00
1408.228, 34830.00
1409.279, 35078.00
1410.330, 34852.00
1411.380, 35261.00
1412.431, 35175.00
1413.481, 34928.00
1414.531, 35099.00
1415.580, 35243.00
1416.630, 35258.00
1417.680, 35213.00
1418.729, 35196.00
1419.778, 35368.00
1420.827, 35410.00
1421.876, 35346.00
1422.925, 35342.00
1423.973, 35351.00
1425.022, 35425.00
1426.070, 35210.00
1427.118, 35359.00
1428.166, 35355.00
1429.214, 35237.00
1430.261, 35563.00
1431.309, 35489.00
1432.356, 35510.00
1433.403, 35665.00
1434.450, 35608.00
1435.497, 35746.00
1436.543, 35782.00
1437.590, 35826.00
1438.636, 35705.00
1439.682, 35736.00
1440.728, 35722.00
1441.774, 35874.00
1442.819, 35707.00
1443.865, 36033.00
1444.910, 36148.00
1445.955, 35857.00
1447.000, 35921.00
1448.045, 35964.00
1449.090, 36098.00
1450.134, 35786.00
1451.178, 36001.00
1452.223, 36011.00
1453.267, 36169.00
1454.310, 35814.00
1455.354, 36052.00
1456.398, 36010.00
1457.441, 36219.00
1458.484, 36149.00
1459.527, 36265.00
1460.570, 36241.00
1461.613, 36390.00
1462.655, 36211.00
1463.698, 36679.00
1464.740, 36318.00
1465.782, 36352.00
1466.824, 36377.00
1467.866, 36401.00
1468.907, 36378.00
1469.948, 36488.00
1470.990, 36575.00
1472.031, 36414.00
1473.072, 36663.00
1474.112, 36437.00
1475.153, 36612.00
1476.194, 36617.00
1477.234, 36583.00
1478.274, 36785.00
1479.314, 36682.00
1480.354, 36862.00
1481.393, 36836.00
1482.433, 36787.00
1483.472, 36934.00
1484.511, 36928.00
1485.550, 36934.00
1486.589, 36708.00
1487.628, 36976.00
1488.666, 36844.00
1489.704, 36973.00
1490.743, 37054.00
1491.781, 36764.00
1492.819, 36970.00
1493.856, 37133.00
1494.894, 36985.00
1495.931, 37175.00
1496.968, 37089.00
1498.005, 37103.00
1499.042, 37093.00
1500.079, 37379.00
1501.115, 37339.00
1502.152, 37344.00
1503.188, 37340.00
1504.224, 37430.00
1505.260, 37397.00
1506.296, 37157.00
1507.331, 37503.00
1508.367, 37284.00
1509.402, 37468.00
1510.437, 37338.00
1511.472, 37480.00
1512.507, 37569.00
1513.541, 37511.00
1514.576, 37765.00
1515.610, 37518.00
1516.644, 37676.00
1517.678, 37732.00
1518.712, 37623.00
1519.746, 37577.00
1520.779, 37779.00
1521.813, 38314.00
1522.846, 37846.00
1523.879, 37701.00
1524.912, 37781.00
1525.944, 37923.00
1526.977, 37985.00
1528.009, 38220.00
1529.041, 37993.00
1530.073, 38175.00
1531.105, 37885.00
1532.137, 38272.00
1533.168, 38002.00
1534.200, 38221.00
1535.231, 38159.00
1536.262, 38107.00
1537.293, 38222.00
1538.324, 38171.00
1539.354, 38096.00
1540.385, 38213.00
1541.415, 38140.00
1542.445, 38104.00
1543.475, 38301.00
1544.505, 38225.00
1545.534, 38206.00
1546.564, 38282.00
1547.593, 38531.00
1548.622, 38558.00
1549.651, 38417.00
1550.680, 38573.00
1551.708, 38653.00
1552.737, 38486.00
1553.765, 38502.00
1554.793, 38538.00
1555.821, 38383.00
1556.849, 38713.00
1557.877, 38654.00
1558.904, 38982.00
1559.932, 38397.00
1560.959, 38376.00
1561.986, 38571.00
1563.013, 38688.00
1564.039, 38658.00
1565.066, 38346.00
1566.092, 38796.00
1567.119, 38702.00
1568.145, 38645.00
1569.170, 38837.00
1570.196, 38682.00
1571.222, 38723.00
1572.247, 38832.00
1573.272, 38746.00
1574.297, 38905.00
##END=



