##NAMES=Hedenbergite
##RRUFFID=R060040
##IDEAL CHEMISTRY=CaFe^2+^Si_2_O_6_
##LOCALITY=Rio Marina, Elba, Italy
##OWNER=RRUFF
##SOURCE=University of Arizona Mineral Museum
##DESCRIPTION=Radial aggregate of green thin bladed crystals
##STATUS=The identification of this mineral has been confirmed by X-ray diffraction and chemical analysis
##URL=rruff.info/R060040
##MEASURED CHEMISTRY=Ca_1.00_(Fe^2+^_0.89_Mg_0.09_Mn_0.02_)_Î£=1_Si_2.00_O_6_
##PIN_ID=M01578
##ORIENTATION=Laser parallel to (-1 0 -1). Fiducial mark perpendicular to laser is parallel to -b [0 -1 0]
262.4900, 13973.00
263.7050, 14038.00
264.9210, 14145.00
266.1360, 14082.00
267.3520, 14128.00
268.5670, 14100.00
269.7820, 14141.00
270.9960, 14418.00
272.2110, 14253.00
273.4250, 14485.00
274.6400, 14505.00
275.8540, 14608.00
277.0680, 14562.00
278.2810, 14543.00
279.4950, 14701.00
280.7090, 14705.00
281.9220, 14689.00
283.1350, 14755.00
284.3480, 14742.00
285.5610, 14815.00
286.7730, 14831.00
287.9860, 14969.00
289.1980, 14945.00
290.4100, 14994.00
291.6220, 15286.00
292.8340, 15104.00
294.0460, 15122.00
295.2570, 15375.00
296.4690, 15312.00
297.6800, 15352.00
298.8910, 15360.00
300.1020, 15436.00
301.3120, 15664.00
302.5230, 15601.00
303.7330, 15908.00
304.9440, 15880.00
306.1540, 15805.00
307.3630, 16020.00
308.5730, 15809.00
309.7830, 15855.00
310.9920, 15826.00
312.2010, 15710.00
313.4100, 15553.00
314.6190, 15481.00
315.8280, 15479.00
317.0370, 15434.00
318.2450, 15449.00
319.4530, 15397.00
320.6610, 15574.00
321.8690, 15549.00
323.0770, 15673.00
324.2850, 15596.00
325.4920, 15818.00
326.6990, 15950.00
327.9060, 15826.00
329.1130, 16154.00
330.3200, 16168.00
331.5270, 16356.00
332.7330, 16426.00
333.9390, 16637.00
335.1450, 16947.00
336.3510, 16944.00
337.5570, 17137.00
338.7630, 17171.00
339.9680, 17180.00
341.1740, 17305.00
342.3790, 17098.00
343.5840, 16850.00
344.7890, 16855.00
345.9930, 16567.00
347.1980, 16480.00
348.4020, 16164.00
349.6060, 16121.00
350.8100, 16000.00
352.0140, 15893.00
353.2180, 15983.00
354.4210, 16006.00
355.6250, 15999.00
356.8280, 16026.00
358.0310, 16074.00
359.2340, 16119.00
360.4360, 16290.00
361.6390, 16458.00
362.8410, 16703.00
364.0430, 16692.00
365.2450, 16917.00
366.4470, 17140.00
367.6490, 17333.00
368.8510, 17445.00
370.0520, 17996.00
371.2530, 18216.00
372.4540, 18415.00
373.6550, 18569.00
374.8560, 18865.00
376.0560, 18809.00
377.2570, 18860.00
378.4570, 18534.00
379.6570, 18073.00
380.8570, 17839.00
382.0570, 17625.00
383.2560, 17319.00
384.4560, 17116.00
385.6550, 16836.00
386.8540, 16680.00
388.0530, 16553.00
389.2520, 16482.00
390.4510, 16211.00
391.6490, 16450.00
392.8470, 16300.00
394.0450, 16355.00
395.2430, 16272.00
396.4410, 16077.00
397.6390, 16284.00
398.8360, 16059.00
400.0340, 16211.00
401.2310, 16090.00
402.4280, 16240.00
403.6250, 16039.00
404.8210, 16246.00
406.0180, 16079.00
407.2140, 16133.00
408.4100, 16086.00
409.6060, 16108.00
410.8020, 16215.00
411.9980, 16145.00
413.1930, 16201.00
414.3890, 16377.00
415.5840, 16217.00
416.7790, 16362.00
417.9740, 16442.00
419.1680, 16293.00
420.3630, 16360.00
421.5570, 16269.00
422.7510, 16312.00
423.9450, 16394.00
425.1390, 16292.00
426.3330, 16337.00
427.5270, 16481.00
428.7200, 16639.00
429.9130, 16454.00
431.1060, 16674.00
432.2990, 16576.00
433.4920, 16345.00
434.6840, 16566.00
435.8770, 16718.00
437.0690, 16633.00
438.2610, 16728.00
439.4530, 16804.00
440.6450, 16727.00
441.8360, 16607.00
443.0280, 16734.00
444.2190, 16698.00
445.4100, 16622.00
446.6010, 16651.00
447.7920, 16902.00
448.9820, 16786.00
450.1730, 16892.00
451.3630, 16928.00
452.5530, 16824.00
453.7430, 16684.00
454.9330, 16714.00
456.1230, 16851.00
457.3120, 16854.00
458.5010, 16825.00
459.6910, 16970.00
460.8800, 16823.00
462.0680, 17074.00
463.2570, 16957.00
464.4460, 17019.00
465.6340, 17009.00
466.8220, 17189.00
468.0100, 17027.00
469.1980, 16978.00
470.3860, 16968.00
471.5730, 17091.00
472.7600, 17123.00
473.9480, 17202.00
475.1350, 17202.00
476.3210, 17171.00
477.5080, 17301.00
478.6950, 17076.00
479.8810, 17372.00
481.0670, 17235.56
482.2530, 17346.11
483.4390, 17419.42
484.6250, 17457.49
485.8100, 17354.78
486.9960, 17433.86
488.1810, 17440.07
489.3660, 17443.30
490.5510, 17547.94
491.7360, 17465.70
492.9200, 17568.71
494.1050, 17597.79
495.2890, 17660.69
496.4730, 17650.30
497.6570, 17662.54
498.8400, 17748.09
500.0240, 17793.06
501.2070, 17774.21
502.3910, 17839.26
503.5740, 17754.42
504.7570, 17801.09
505.9400, 17904.51
507.1220, 17889.33
508.3050, 17911.00
509.4870, 17970.00
510.6690, 18098.00
511.8510, 18083.00
513.0330, 18028.00
514.2140, 18136.00
515.3960, 18116.00
516.5770, 18347.00
517.7580, 18180.00
518.9390, 18262.00
520.1200, 18431.00
521.3010, 18272.00
522.4810, 18447.00
523.6610, 18351.00
524.8420, 18290.00
526.0220, 18229.00
527.2010, 18237.00
528.3810, 18210.00
529.5610, 18289.00
530.7400, 18452.00
531.9190, 18291.00
533.0980, 18208.00
534.2770, 18310.00
535.4560, 18315.00
536.6340, 18269.00
537.8120, 18326.00
538.9910, 18401.00
540.1690, 18434.00
541.3460, 18632.00
542.5240, 18617.00
543.7020, 18710.00
544.8790, 18796.00
546.0560, 18800.00
547.2330, 18858.00
548.4100, 18939.00
549.5870, 19195.00
550.7630, 19354.00
551.9400, 19130.00
553.1160, 19304.00
554.2920, 19095.00
555.4680, 19138.00
556.6440, 18991.00
557.8190, 18885.00
558.9950, 19072.00
560.1700, 18928.00
561.3450, 18944.00
562.5200, 18960.00
563.6950, 18886.00
564.8690, 19023.00
566.0440, 18972.00
567.2180, 18815.00
568.3920, 18937.00
569.5660, 18937.00
570.7400, 18841.00
571.9130, 19142.00
573.0870, 18895.00
574.2600, 18899.00
575.4330, 19051.00
576.6060, 19077.00
577.7790, 18986.00
578.9520, 19034.00
580.1240, 19023.00
581.2960, 19091.00
582.4690, 19030.00
583.6410, 19165.00
584.8120, 19114.00
585.9840, 19186.00
587.1560, 19233.00
588.3270, 19185.00
589.4980, 19113.00
590.6690, 19223.00
591.8400, 19184.00
593.0110, 19280.00
594.1810, 19368.00
595.3510, 19225.00
596.5220, 19176.00
597.6920, 19419.00
598.8610, 19555.00
600.0310, 19527.00
601.2010, 19343.00
602.3700, 19560.00
603.5390, 19507.00
604.7080, 19667.00
605.8770, 19807.00
607.0460, 19665.00
608.2140, 19780.00
609.3830, 19796.00
610.5510, 19753.00
611.7190, 19607.00
612.8870, 19674.00
614.0550, 19832.00
615.2220, 19882.00
616.3900, 19861.00
617.5570, 19872.00
618.7240, 19932.00
619.8910, 20058.00
621.0580, 19922.00
622.2240, 19926.00
623.3910, 19870.00
624.5570, 20087.00
625.7230, 20250.00
626.8890, 20024.00
628.0550, 20076.00
629.2200, 20350.00
630.3860, 20256.00
631.5510, 20380.00
632.7160, 20536.00
633.8810, 20462.00
635.0460, 20459.00
636.2100, 20546.00
637.3750, 20726.00
638.5390, 20786.00
639.7030, 20694.00
640.8670, 20730.00
642.0310, 20957.00
643.1950, 21008.00
644.3580, 21197.00
645.5210, 21149.00
646.6850, 21383.00
647.8480, 21322.00
649.0100, 21722.00
650.1730, 21859.00
651.3350, 22478.00
652.4980, 22903.00
653.6600, 23029.00
654.8220, 23451.00
655.9840, 23962.00
657.1450, 24629.00
658.3070, 25198.00
659.4680, 25411.00
660.6300, 25190.00
661.7910, 25352.00
662.9510, 24976.00
664.1120, 24469.00
665.2730, 23927.00
666.4330, 23310.00
667.5930, 22789.00
668.7530, 22439.00
669.9130, 22344.00
671.0730, 21925.00
672.2320, 21734.00
673.3920, 21626.00
674.5510, 21430.00
675.7100, 21423.00
676.8690, 21484.00
678.0280, 21318.00
679.1860, 21411.00
680.3450, 21141.00
681.5030, 21176.00
682.6610, 21134.00
683.8190, 20975.32
684.9770, 21074.38
686.1340, 21136.20
687.2920, 21162.79
688.4490, 21048.60
689.6060, 21116.18
690.7630, 21110.92
691.9200, 21102.68
693.0760, 21195.83
694.2330, 21102.12
695.3890, 21193.67
696.5450, 21211.26
697.7010, 21227.00
698.8570, 21251.00
700.0130, 21535.00
701.1680, 21316.00
702.3230, 21451.00
703.4780, 21473.00
704.6330, 21483.00
705.7880, 21502.00
706.9430, 21532.00
708.0970, 21333.00
709.2520, 21499.00
710.4060, 21458.00
711.5600, 21719.00
712.7140, 21643.00
713.8670, 21633.00
715.0210, 21642.00
716.1740, 21581.00
717.3270, 21515.93
718.4800, 21624.62
719.6330, 21696.08
720.7860, 21732.30
721.9380, 21627.74
723.0910, 21704.96
724.2430, 21709.32
725.3950, 21710.70
726.5470, 21813.49
727.6980, 21729.38
728.8500, 21830.56
730.0010, 21857.77
731.1530, 21918.84
732.3040, 21906.60
733.4550, 21938.00
734.6050, 22024.00
735.7560, 21923.00
736.9060, 21950.00
738.0560, 22049.00
739.2060, 21943.00
740.3560, 22217.00
741.5060, 22132.00
742.6560, 22059.00
743.8050, 22191.00
744.9540, 22318.00
746.1030, 22226.00
747.2520, 22298.00
748.4010, 22304.00
749.5500, 22446.00
750.6980, 22403.00
751.8460, 22290.00
752.9950, 22583.00
754.1420, 22390.00
755.2900, 22417.00
756.4380, 22580.00
757.5850, 22606.00
758.7330, 22402.00
759.8800, 22563.00
761.0270, 22575.00
762.1730, 22509.00
763.3200, 22530.00
764.4670, 22555.00
765.6130, 22605.00
766.7590, 22627.00
767.9050, 22548.00
769.0510, 22564.00
770.1960, 22630.00
771.3420, 22680.00
772.4870, 22775.00
773.6320, 22806.00
774.7770, 22713.00
775.9220, 22891.00
777.0670, 22733.00
778.2110, 22842.00
779.3560, 22769.00
780.5000, 22894.00
781.6440, 22894.00
782.7880, 22962.00
783.9320, 22742.00
785.0750, 23008.00
786.2180, 22919.00
787.3620, 22847.00
788.5050, 22994.00
789.6480, 22995.00
790.7900, 23046.00
791.9330, 23090.00
793.0750, 23127.00
794.2170, 23051.00
795.3590, 23160.00
796.5010, 23103.00
797.6430, 23330.00
798.7850, 23323.00
799.9260, 23206.00
801.0670, 23180.00
802.2080, 23398.00
803.3490, 23208.00
804.4900, 23321.00
805.6310, 23232.00
806.7710, 23336.00
807.9110, 23353.00
809.0510, 23271.00
810.1910, 23420.00
811.3310, 23693.00
812.4710, 23551.00
813.6100, 23456.00
814.7490, 23721.00
815.8880, 23444.00
817.0270, 23728.00
818.1660, 23515.00
819.3050, 23554.00
820.4430, 23791.00
821.5820, 23609.00
822.7200, 23703.00
823.8580, 23679.00
824.9950, 23618.00
826.1330, 23926.00
827.2710, 23795.00
828.4080, 23910.00
829.5450, 23885.00
830.6820, 24001.00
831.8190, 23877.00
832.9560, 24115.00
834.0920, 24036.00
835.2280, 24063.00
836.3650, 24060.00
837.5010, 24020.00
838.6360, 24092.00
839.7720, 24188.00
840.9080, 24258.00
842.0430, 24284.00
843.1780, 24355.00
844.3130, 24370.00
845.4480, 24422.00
846.5830, 24483.00
847.7170, 24646.00
848.8520, 24650.00
849.9860, 24847.00
851.1200, 24983.00
852.2540, 24934.00
853.3870, 25130.00
854.5210, 24965.00
855.6540, 25120.00
856.7880, 24930.00
857.9210, 24946.00
859.0540, 24890.00
860.1860, 24661.00
861.3190, 25098.00
862.4510, 24838.00
863.5840, 24786.00
864.7160, 25021.00
865.8480, 24791.00
866.9790, 24820.00
868.1110, 25022.00
869.2420, 24852.00
870.3740, 24913.00
871.5050, 25063.00
872.6360, 25046.00
873.7660, 24945.00
874.8970, 25098.00
876.0280, 25036.00
877.1580, 25245.00
878.2880, 25320.00
879.4180, 25315.00
880.5480, 25197.00
881.6770, 25340.00
882.8070, 25374.00
883.9360, 25466.00
885.0650, 25500.00
886.1940, 25308.00
887.3230, 25457.00
888.4520, 25652.00
889.5800, 25342.00
890.7090, 25546.00
891.8370, 25439.00
892.9650, 25409.00
894.0930, 25839.00
895.2200, 25626.00
896.3480, 25545.00
897.4750, 25556.00
898.6020, 25681.00
899.7290, 25694.00
900.8560, 25874.00
901.9830, 25767.00
903.1090, 25848.00
904.2360, 25773.00
905.3620, 25806.00
906.4880, 25786.00
907.6140, 25815.00
908.7400, 25943.00
909.8650, 26035.00
910.9900, 26063.00
912.1160, 25936.00
913.2410, 26055.00
914.3660, 25963.00
915.4900, 26157.00
916.6150, 25941.00
917.7390, 26026.00
918.8640, 26115.00
919.9880, 26104.00
921.1120, 26061.00
922.2350, 26170.00
923.3590, 26124.00
924.4820, 26093.00
925.6060, 26165.00
926.7290, 26197.00
927.8520, 26317.00
928.9740, 26192.00
930.0970, 26225.00
931.2190, 26362.00
932.3420, 26505.00
933.4640, 26240.00
934.5860, 26396.00
935.7080, 26351.00
936.8290, 26355.00
937.9510, 26634.00
939.0720, 26340.00
940.1930, 26580.00
941.3140, 26479.00
942.4350, 26583.00
943.5560, 26586.00
944.6760, 26560.00
945.7960, 26658.00
946.9170, 26499.00
948.0370, 26630.00
949.1560, 26814.00
950.2760, 26726.00
951.3960, 26771.00
952.5150, 26594.00
953.6340, 26743.00
954.7530, 26789.00
955.8720, 26756.00
956.9910, 27128.00
958.1090, 27018.00
959.2280, 27151.00
960.3460, 26988.00
961.4640, 27240.00
962.5820, 27149.00
963.6990, 27173.00
964.8170, 27350.00
965.9340, 27118.00
967.0510, 27263.00
968.1690, 27465.00
969.2850, 27421.00
970.4020, 27189.00
971.5190, 27300.00
972.6350, 27410.00
973.7510, 27404.00
974.8670, 27315.00
975.9830, 27639.00
977.0990, 27542.00
978.2150, 27425.00
979.3300, 27686.00
980.4450, 27712.00
981.5600, 27604.00
982.6750, 27855.00
983.7900, 28052.00
984.9050, 27875.00
986.0190, 27821.00
987.1340, 27843.00
988.2480, 28190.00
989.3620, 28151.00
990.4750, 28283.00
991.5890, 28257.00
992.7020, 28366.00
993.8160, 28509.00
994.9290, 28469.00
996.0420, 28694.00
997.1550, 28829.00
998.2670, 29057.00
999.3800, 29331.00
1000.492, 29713.00
1001.604, 30296.00
1002.716, 30725.00
1003.828, 31350.00
1004.940, 32082.00
1006.051, 33338.00
1007.163, 34485.00
1008.274, 35567.00
1009.385, 37761.32
1010.496, 39216.21
1011.606, 39932.50
1012.717, 39860.68
1013.827, 39155.61
1014.937, 37695.44
1016.047, 35513.69
1017.157, 34481.00
1018.267, 33031.00
1019.377, 32325.00
1020.486, 31522.00
1021.595, 31130.00
1022.704, 30900.00
1023.813, 30538.00
1024.922, 30322.00
1026.030, 30315.21
1027.139, 30263.82
1028.247, 30184.86
1029.355, 30080.16
1030.463, 29844.22
1031.571, 29799.56
1032.678, 29691.67
1033.786, 29590.21
1034.893, 29599.75
1036.000, 29431.90
1037.107, 29458.83
1038.214, 29421.31
1039.321, 29427.13
1040.427, 29369.18
1041.533, 29343.35
1042.639, 29400.32
1043.745, 29426.18
1044.851, 29397.73
1045.957, 29532.00
1047.062, 29506.00
1048.168, 29211.00
1049.273, 29398.00
1050.378, 29541.00
1051.482, 29361.00
1052.587, 29576.00
1053.692, 29560.00
1054.796, 29333.00
1055.900, 29458.00
1057.004, 29356.00
1058.108, 29644.00
1059.212, 29564.00
1060.315, 29695.00
1061.418, 29372.00
1062.522, 29654.00
1063.625, 29571.00
1064.728, 29761.00
1065.830, 29610.00
1066.933, 29619.00
1068.035, 29770.00
1069.137, 29811.00
1070.239, 29548.00
1071.341, 29741.00
1072.443, 29864.00
1073.545, 29954.00
1074.646, 29928.00
1075.747, 29551.00
1076.848, 29896.00
1077.949, 29864.00
1079.050, 30118.00
1080.150, 29955.00
1081.251, 29914.00
1082.351, 30166.00
1083.451, 30499.00
1084.551, 30623.00
1085.651, 30451.00
1086.750, 30786.00
1087.850, 30648.00
1088.949, 30376.00
1090.048, 30425.00
1091.147, 30367.00
1092.246, 30391.00
1093.345, 30160.00
1094.443, 30249.00
1095.541, 30394.00
1096.639, 30320.00
1097.737, 30415.00
1098.835, 30359.00
1099.933, 30589.00
1101.030, 30308.00
1102.128, 30346.00
1103.225, 30442.00
1104.322, 30278.00
1105.419, 30547.00
1106.515, 30695.00
1107.612, 30642.00
1108.708, 30667.00
1109.804, 30932.00
1110.900, 30554.00
1111.996, 30707.00
1113.092, 30733.00
1114.187, 30845.00
1115.283, 30721.00
1116.378, 30981.00
1117.473, 30661.00
1118.568, 30929.00
1119.662, 31061.00
1120.757, 31183.00
1121.851, 31258.00
1122.946, 31102.00
1124.040, 30935.00
1125.134, 31039.00
1126.227, 31057.00
1127.321, 31312.00
1128.414, 30929.00
1129.508, 30988.00
1130.601, 31112.00
1131.693, 31293.00
1132.786, 31128.00
1133.879, 31150.00
1134.971, 31278.00
1136.064, 31245.00
1137.156, 31416.00
1138.248, 31324.00
1139.339, 31352.00
1140.431, 31577.00
1141.522, 31328.00
1142.614, 31470.00
1143.705, 31385.00
1144.796, 31527.00
1145.887, 31455.00
1146.977, 31572.00
1148.068, 31534.00
1149.158, 31408.00
1150.248, 31537.00
1151.338, 31431.00
1152.428, 31401.00
1153.518, 31771.00
1154.607, 31702.00
1155.696, 31864.00
1156.785, 31716.00
1157.874, 31689.00
1158.963, 31931.00
1160.052, 31949.00
1161.141, 31985.00
1162.229, 31885.00
1163.317, 31871.00
1164.405, 32068.00
1165.493, 31936.00
1166.581, 31934.00
1167.668, 32136.00
1168.756, 32005.00
1169.843, 32121.00
1170.930, 31920.00
1172.017, 32109.00
1173.103, 32155.00
1174.190, 32290.00
1175.276, 32171.00
1176.363, 32153.00
1177.449, 32416.00
1178.535, 32215.00
1179.620, 32224.00
1180.706, 32036.00
1181.791, 32392.00
1182.877, 32406.00
1183.962, 32355.00
1185.047, 32737.00
1186.131, 32505.00
1187.216, 32521.00
1188.300, 32593.00
1189.385, 32609.00
1190.469, 32506.00
1191.553, 32626.00
1192.637, 32643.00
1193.720, 32662.00
1194.804, 32903.00
1195.887, 32837.00
1196.970, 32771.00
1198.053, 32786.00
1199.136, 32727.00
1200.219, 32846.00
1201.301, 32991.00
1202.383, 33145.00
1203.465, 32919.00
1204.547, 32923.00
1205.629, 33145.00
1206.711, 33163.00
1207.792, 33090.00
1208.874, 33239.00
1209.955, 32879.00
1211.036, 33272.00
1212.117, 33270.00
1213.198, 33180.00
1214.278, 33142.00
1215.359, 33275.00
1216.439, 33586.00
1217.519, 33534.00
1218.599, 33447.00
1219.678, 33347.00
1220.758, 33443.00
1221.837, 33481.00
1222.917, 33448.00
1223.996, 33658.00
1225.075, 33446.00
1226.153, 33672.00
1227.232, 33729.00
1228.310, 33569.00
1229.389, 33786.00
1230.467, 33706.00
1231.545, 33792.00
1232.622, 34059.00
1233.700, 33825.00
1234.777, 33755.00
1235.855, 33703.00
1236.932, 33699.00
1238.009, 33954.00
1239.086, 34089.00
1240.162, 34026.00
1241.239, 33841.00
1242.315, 34114.00
1243.391, 33972.00
1244.467, 34070.00
1245.543, 34116.00
1246.619, 34107.00
1247.694, 34152.00
1248.769, 34287.00
1249.844, 34423.00
1250.919, 34337.00
1251.994, 34243.00
1253.069, 34307.00
1254.144, 34321.00
1255.218, 34387.00
1256.292, 34491.00
1257.366, 34263.00
1258.440, 34598.00
1259.514, 34368.00
1260.587, 34479.00
1261.661, 34458.00
1262.734, 34444.00
1263.807, 34297.00
1264.880, 34465.00
1265.952, 34637.00
1267.025, 34682.00
1268.097, 34743.00
1269.170, 34708.00
1270.242, 34647.00
1271.314, 34764.00
1272.385, 34821.00
1273.457, 34977.00
1274.528, 34789.00
1275.600, 34892.00
1276.671, 35020.00
1277.742, 34674.00
1278.812, 34823.00
1279.883, 35040.00
1280.954, 35088.00
1282.024, 34970.00
1283.094, 35219.00
1284.164, 35081.00
1285.234, 35172.00
1286.303, 35081.00
1287.373, 35092.00
1288.442, 35251.00
1289.511, 35342.00
1290.580, 35618.00
1291.649, 35353.00
1292.718, 35445.00
1293.786, 35568.00
1294.855, 35342.00
1295.923, 35261.00
1296.991, 35566.00
1298.059, 35407.00
1299.126, 35226.00
1300.194, 35482.00
1301.261, 35559.00
1302.328, 35544.00
1303.395, 35536.00
1304.462, 35607.00
1305.529, 35700.00
1306.596, 35652.00
1307.662, 35769.00
1308.728, 35733.00
1309.794, 35634.00
1310.860, 36126.00
1311.926, 35811.00
1312.991, 35789.00
1314.057, 35968.00
1315.122, 35825.00
1316.187, 35675.00
1317.252, 35877.00
1318.317, 36124.00
1319.381, 36112.00
1320.446, 36294.00
1321.510, 36016.00
1322.574, 36405.00
1323.638, 36142.00
1324.702, 36469.00
1325.766, 36340.00
1326.829, 36261.00
1327.892, 36451.00
1328.956, 36635.00
1330.019, 36248.00
1331.081, 36599.00
1332.144, 36677.00
1333.206, 36624.00
1334.269, 36509.00
1335.331, 36694.00
1336.393, 37028.00
1337.455, 36572.00
1338.516, 36779.00
1339.578, 36689.00
1340.639, 36794.00
1341.701, 36563.00
1342.762, 36803.00
1343.822, 36758.00
1344.883, 36727.00
1345.944, 36860.00
1347.004, 36820.00
1348.064, 36854.00
1349.124, 37004.00
1350.184, 36919.00
1351.244, 36897.00
1352.304, 37076.00
1353.363, 37131.00
1354.422, 37139.00
1355.481, 36986.00
1356.540, 37097.00
1357.599, 37022.00
1358.657, 37022.00
1359.716, 37346.00
1360.774, 37240.00
1361.832, 37227.00
1362.890, 37405.00
1363.948, 36909.00
1365.006, 37593.00
1366.063, 37423.00
1367.120, 37289.00
1368.178, 37576.00
1369.234, 37409.00
1370.291, 37471.00
1371.348, 37406.00
1372.404, 37670.00
1373.461, 37495.00
1374.517, 37571.00
1375.573, 37588.00
1376.629, 37435.00
1377.684, 37672.00
1378.740, 37777.00
1379.795, 37815.00
1380.850, 37790.00
1381.905, 37783.00
1382.960, 37619.00
1384.015, 37805.00
1385.070, 37762.00
1386.124, 37853.00
1387.178, 38246.00
1388.232, 38019.00
1389.286, 37942.00
1390.340, 37969.00
1391.393, 37917.00
1392.447, 38147.00
1393.500, 38053.00
1394.553, 38102.00
1395.606, 38198.00
1396.659, 38069.00
1397.711, 38126.00
1398.764, 38265.00
1399.816, 38300.00
1400.868, 38217.00
1401.920, 38260.00
1402.972, 38257.00
1404.023, 38308.00
1405.075, 38261.00
1406.126, 38440.00
1407.177, 38566.00
1408.228, 38389.00
1409.279, 38576.00
1410.330, 38462.00
1411.380, 38486.00
1412.431, 38578.00
1413.481, 38733.00
1414.531, 38874.00
1415.580, 38741.00
1416.630, 38585.00
1417.680, 38905.00
1418.729, 38757.00
1419.778, 38743.00
1420.827, 39037.00
1421.876, 38876.00
1422.925, 38854.00
1423.973, 38934.00
1425.022, 38943.00
1426.070, 38914.00
1427.118, 38986.00
1428.166, 39099.00
1429.214, 38850.00
1430.261, 38955.00
1431.309, 39320.00
1432.356, 39240.00
1433.403, 39201.00
1434.450, 39152.00
1435.497, 39167.00
1436.543, 39066.00
1437.590, 39182.00
1438.636, 39562.00
1439.682, 39511.00
1440.728, 39532.00
1441.774, 39518.00
1442.819, 39531.00
1443.865, 39780.00
1444.910, 39626.00
1445.955, 39329.00
1447.000, 39842.00
1448.045, 39605.00
1449.090, 39652.00
1450.134, 39593.00
1451.178, 39871.00
1452.223, 40084.00
1453.267, 40011.00
1454.310, 39854.00
1455.354, 39762.00
1456.398, 40109.00
1457.441, 40035.00
1458.484, 39780.00
1459.527, 39773.00
1460.570, 39910.00
1461.613, 39974.00
1462.655, 39779.00
1463.698, 40193.00
1464.740, 39854.00
1465.782, 40013.00
1466.824, 39980.00
1467.866, 40285.00
1468.907, 40073.00
1469.948, 39980.00
1470.990, 40433.00
1472.031, 40118.00
1473.072, 40222.00
1474.112, 40262.00
1475.153, 40193.00
1476.194, 40246.00
1477.234, 40458.00
1478.274, 40439.00
1479.314, 40499.00
1480.354, 40557.00
1481.393, 40471.00
1482.433, 40749.00
1483.472, 40612.00
1484.511, 40393.00
1485.550, 40829.00
1486.589, 40400.00
1487.628, 40623.00
1488.666, 40563.00
1489.704, 40827.00
1490.743, 40949.00
1491.781, 40843.00
1492.819, 40920.00
1493.856, 40834.00
1494.894, 40919.00
1495.931, 40968.00
1496.968, 40837.00
1498.005, 40698.00
1499.042, 41043.00
1500.079, 41141.00
1501.115, 41003.00
1502.152, 41155.00
1503.188, 40879.00
1504.224, 41142.00
1505.260, 41419.00
1506.296, 41086.00
1507.331, 41132.00
1508.367, 41085.00
1509.402, 41091.00
1510.437, 41044.00
1511.472, 41477.00
1512.507, 41488.00
1513.541, 41534.00
1514.576, 41433.00
1515.610, 41318.00
1516.644, 41493.00
1517.678, 41633.00
1518.712, 41388.00
1519.746, 41466.00
1520.779, 41457.00
1521.813, 41565.00
1522.846, 41703.00
1523.879, 41789.00
1524.912, 41626.00
1525.944, 41707.00
1526.977, 41647.00
1528.009, 41619.00
1529.041, 41659.00
1530.073, 41909.00
1531.105, 42006.00
1532.137, 41868.00
1533.168, 41645.00
1534.200, 41914.00
1535.231, 42211.00
1536.262, 42162.00
1537.293, 42190.00
1538.324, 42225.00
1539.354, 41923.00
1540.385, 42040.00
1541.415, 42287.00
1542.445, 42074.00
1543.475, 42018.00
1544.505, 42017.00
1545.534, 42153.00
1546.564, 42039.00
1547.593, 42343.00
1548.622, 42257.00
1549.651, 42236.00
1550.680, 42205.00
1551.708, 42298.00
1552.737, 42483.00
1553.765, 42265.00
1554.793, 42545.00
1555.821, 42368.00
1556.849, 42401.00
1557.877, 42285.00
1558.904, 42443.00
1559.932, 42503.00
1560.959, 42417.00
1561.986, 42480.00
1563.013, 42543.00
1564.039, 42541.00
1565.066, 42603.00
1566.092, 42566.00
1567.119, 42736.00
1568.145, 42646.00
1569.170, 42611.00
1570.196, 42698.00
1571.222, 42662.00
1572.247, 42829.00
1573.272, 42775.00
1574.297, 42789.00
1575.322, 42759.00
##END=



