##NAMES=Hedenbergite
##RRUFFID=R060040
##IDEAL CHEMISTRY=CaFe^2+^Si_2_O_6_
##LOCALITY=Rio Marina, Elba, Italy
##OWNER=RRUFF
##SOURCE=University of Arizona Mineral Museum
##DESCRIPTION=Radial aggregate of green thin bladed crystals
##STATUS=The identification of this mineral has been confirmed by X-ray diffraction and chemical analysis
##URL=rruff.info/R060040
##MEASURED CHEMISTRY=Ca_1.00_(Fe^2+^_0.89_Mg_0.09_Mn_0.02_)_Î£=1_Si_2.00_O_6_
##PIN_ID=M01578
##ORIENTATION=Laser parallel to (-1 0 -1). Fiducial mark perpendicular to laser is parallel to -b [0 -1 0]
262.4900, 16111.00
263.7050, 16176.00
264.9210, 15984.00
266.1360, 16305.00
267.3520, 16315.00
268.5670, 16196.00
269.7820, 16386.00
270.9960, 16372.00
272.2110, 16593.00
273.4250, 16394.00
274.6400, 16595.00
275.8540, 16600.00
277.0680, 16643.00
278.2810, 16767.00
279.4950, 16900.00
280.7090, 16948.00
281.9220, 16957.00
283.1350, 17091.00
284.3480, 17042.00
285.5610, 17019.00
286.7730, 17033.00
287.9860, 17364.00
289.1980, 17251.00
290.4100, 17300.00
291.6220, 17396.00
292.8340, 17311.00
294.0460, 17364.00
295.2570, 17591.00
296.4690, 17728.00
297.6800, 17663.00
298.8910, 17779.00
300.1020, 17877.00
301.3120, 17809.00
302.5230, 18003.00
303.7330, 18097.00
304.9440, 18105.00
306.1540, 18412.00
307.3630, 18472.00
308.5730, 18377.00
309.7830, 18295.00
310.9920, 18466.00
312.2010, 18230.00
313.4100, 18189.00
314.6190, 18017.00
315.8280, 18033.00
317.0370, 17897.00
318.2450, 18069.00
319.4530, 18002.00
320.6610, 17961.00
321.8690, 18041.00
323.0770, 18108.00
324.2850, 18041.00
325.4920, 18259.00
326.6990, 18428.00
327.9060, 18420.00
329.1130, 18715.00
330.3200, 18484.00
331.5270, 18769.00
332.7330, 18792.00
333.9390, 18984.00
335.1450, 19173.00
336.3510, 19152.00
337.5570, 19360.00
338.7630, 19447.00
339.9680, 19619.00
341.1740, 19476.00
342.3790, 19448.00
343.5840, 19357.00
344.7890, 19113.00
345.9930, 18782.00
347.1980, 18773.00
348.4020, 18475.00
349.6060, 18462.00
350.8100, 18355.00
352.0140, 18607.00
353.2180, 18405.00
354.4210, 18540.00
355.6250, 18452.00
356.8280, 18546.00
358.0310, 18573.00
359.2340, 18615.00
360.4360, 18686.00
361.6390, 18781.00
362.8410, 19036.00
364.0430, 19044.00
365.2450, 19453.00
366.4470, 19719.00
367.6490, 20025.00
368.8510, 20265.00
370.0520, 20521.00
371.2530, 21055.00
372.4540, 21380.00
373.6550, 21655.00
374.8560, 22097.00
376.0560, 21922.00
377.2570, 21727.00
378.4570, 21599.00
379.6570, 21218.00
380.8570, 20764.00
382.0570, 20414.00
383.2560, 20040.00
384.4560, 19547.00
385.6550, 19399.00
386.8540, 19461.00
388.0530, 18906.00
389.2520, 19065.00
390.4510, 18853.00
391.6490, 18826.00
392.8470, 18711.00
394.0450, 18764.00
395.2430, 18665.00
396.4410, 18585.00
397.6390, 18557.00
398.8360, 18634.00
400.0340, 18831.00
401.2310, 18621.00
402.4280, 18581.00
403.6250, 18765.00
404.8210, 18621.00
406.0180, 18709.00
407.2140, 18666.00
408.4100, 18663.00
409.6060, 18516.00
410.8020, 18717.00
411.9980, 18728.00
413.1930, 18735.00
414.3890, 18591.00
415.5840, 18865.00
416.7790, 18585.00
417.9740, 18923.00
419.1680, 18682.00
420.3630, 18971.00
421.5570, 18847.00
422.7510, 18908.00
423.9450, 18933.00
425.1390, 18836.00
426.3330, 19047.00
427.5270, 18948.00
428.7200, 19030.00
429.9130, 19054.00
431.1060, 19229.00
432.2990, 19094.00
433.4920, 19134.00
434.6840, 19181.00
435.8770, 19258.00
437.0690, 19026.00
438.2610, 19257.00
439.4530, 19226.00
440.6450, 19165.00
441.8360, 19309.00
443.0280, 19273.00
444.2190, 19363.00
445.4100, 19323.00
446.6010, 19388.00
447.7920, 19353.00
448.9820, 19456.00
450.1730, 19359.00
451.3630, 19411.00
452.5530, 19460.00
453.7430, 19564.00
454.9330, 19604.00
456.1230, 19419.00
457.3120, 19693.00
458.5010, 19359.00
459.6910, 19360.00
460.8800, 19627.00
462.0680, 19502.00
463.2570, 19842.00
464.4460, 19634.00
465.6340, 19748.00
466.8220, 19717.00
468.0100, 19612.00
469.1980, 19522.00
470.3860, 19691.00
471.5730, 19793.00
472.7600, 19559.00
473.9480, 19928.00
475.1350, 19767.00
476.3210, 19872.00
477.5080, 19839.00
478.6950, 20014.00
479.8810, 20011.00
481.0670, 20110.00
482.2530, 20206.00
483.4390, 20002.00
484.6250, 20041.00
485.8100, 20184.00
486.9960, 20189.00
488.1810, 20270.00
489.3660, 20288.00
490.5510, 20400.00
491.7360, 20385.00
492.9200, 20261.00
494.1050, 20540.00
495.2890, 20550.00
496.4730, 20634.00
497.6570, 20544.00
498.8400, 20468.00
500.0240, 20564.00
501.2070, 20442.00
502.3910, 20650.00
503.5740, 20739.00
504.7570, 20676.00
505.9400, 20509.00
507.1220, 20672.00
508.3050, 20686.00
509.4870, 20712.00
510.6690, 20814.00
511.8510, 20772.00
513.0330, 20821.00
514.2140, 20916.00
515.3960, 20826.00
516.5770, 20919.00
517.7580, 21095.00
518.9390, 21239.00
520.1200, 21214.00
521.3010, 21224.00
522.4810, 21276.00
523.6610, 21296.00
524.8420, 21299.00
526.0220, 21059.00
527.2010, 21330.00
528.3810, 21274.00
529.5610, 21119.00
530.7400, 21209.00
531.9190, 21063.00
533.0980, 21120.00
534.2770, 20994.00
535.4560, 21372.00
536.6340, 21349.00
537.8120, 21271.00
538.9910, 21387.00
540.1690, 21341.00
541.3460, 21446.00
542.5240, 21564.00
543.7020, 21577.00
544.8790, 21672.00
546.0560, 21622.00
547.2330, 21835.00
548.4100, 21950.00
549.5870, 21949.00
550.7630, 22048.00
551.9400, 22187.00
553.1160, 22277.00
554.2920, 22208.00
555.4680, 22000.00
556.6440, 22081.00
557.8190, 22141.00
558.9950, 22062.00
560.1700, 21846.00
561.3450, 21850.00
562.5200, 21675.00
563.6950, 21840.00
564.8690, 21992.00
566.0440, 22018.00
567.2180, 21843.00
568.3920, 21793.00
569.5660, 21869.00
570.7400, 21946.00
571.9130, 21791.00
573.0870, 21985.00
574.2600, 21990.00
575.4330, 21935.00
576.6060, 22063.00
577.7790, 22000.00
578.9520, 22152.00
580.1240, 22122.00
581.2960, 21915.00
582.4690, 22033.00
583.6410, 21963.00
584.8120, 22149.00
585.9840, 22040.00
587.1560, 21998.00
588.3270, 22026.00
589.4980, 22222.00
590.6690, 22212.00
591.8400, 22411.00
593.0110, 22285.00
594.1810, 22304.00
595.3510, 22262.00
596.5220, 22123.00
597.6920, 22569.00
598.8610, 22457.00
600.0310, 22500.00
601.2010, 22470.00
602.3700, 22450.00
603.5390, 22568.00
604.7080, 22411.00
605.8770, 22566.00
607.0460, 22676.00
608.2140, 22631.00
609.3830, 22669.00
610.5510, 22707.00
611.7190, 22859.00
612.8870, 22619.00
614.0550, 22663.00
615.2220, 22896.00
616.3900, 22950.00
617.5570, 22841.00
618.7240, 22888.00
619.8910, 22798.00
621.0580, 22950.00
622.2240, 22984.00
623.3910, 22956.00
624.5570, 23322.00
625.7230, 23097.00
626.8890, 23268.00
628.0550, 23254.00
629.2200, 23287.00
630.3860, 23402.00
631.5510, 23404.00
632.7160, 23431.00
633.8810, 23695.00
635.0460, 23711.00
636.2100, 23751.00
637.3750, 23783.00
638.5390, 23829.00
639.7030, 23699.00
640.8670, 23895.00
642.0310, 24185.00
643.1950, 24326.00
644.3580, 24161.00
645.5210, 24360.00
646.6850, 24672.00
647.8480, 24767.00
649.0100, 25128.00
650.1730, 25462.00
651.3350, 25805.00
652.4980, 26417.00
653.6600, 26823.00
654.8220, 27647.00
655.9840, 28174.00
657.1450, 29012.00
658.3070, 29705.00
659.4680, 30296.00
660.6300, 30303.00
661.7910, 30192.00
662.9510, 29875.00
664.1120, 28906.00
665.2730, 28077.00
666.4330, 27263.00
667.5930, 26822.00
668.7530, 26183.00
669.9130, 25705.00
671.0730, 25460.00
672.2320, 25135.00
673.3920, 25112.00
674.5510, 25159.00
675.7100, 24724.00
676.8690, 24727.00
678.0280, 24733.00
679.1860, 24542.00
680.3450, 24372.00
681.5030, 24555.00
682.6610, 24643.00
683.8190, 24480.00
684.9770, 24429.00
686.1340, 24667.00
687.2920, 24323.00
688.4490, 24444.00
689.6060, 24516.00
690.7630, 24486.00
691.9200, 24598.00
693.0760, 24512.00
694.2330, 24739.00
695.3890, 24629.00
696.5450, 24856.00
697.7010, 24703.00
698.8570, 24781.00
700.0130, 24669.00
701.1680, 24650.00
702.3230, 24773.00
703.4780, 24772.00
704.6330, 24869.00
705.7880, 24642.00
706.9430, 24809.00
708.0970, 24699.00
709.2520, 25063.00
710.4060, 24889.00
711.5600, 24849.00
712.7140, 25002.00
713.8670, 24962.00
715.0210, 25044.00
716.1740, 25094.00
717.3270, 24982.00
718.4800, 25148.00
719.6330, 24789.00
720.7860, 25041.00
721.9380, 25029.00
723.0910, 25125.00
724.2430, 25016.00
725.3950, 25214.00
726.5470, 25063.00
727.6980, 25233.00
728.8500, 25295.00
730.0010, 25060.00
731.1530, 25091.00
732.3040, 25302.00
733.4550, 25310.00
734.6050, 25247.00
735.7560, 25318.00
736.9060, 25710.00
738.0560, 25440.00
739.2060, 25484.00
740.3560, 25540.00
741.5060, 25554.00
742.6560, 25656.00
743.8050, 25681.00
744.9540, 25617.00
746.1030, 25779.00
747.2520, 25627.00
748.4010, 25783.00
749.5500, 25663.00
750.6980, 25838.00
751.8460, 25820.00
752.9950, 26012.00
754.1420, 25947.00
755.2900, 26006.00
756.4380, 25929.00
757.5850, 25886.00
758.7330, 25890.00
759.8800, 26074.00
761.0270, 25941.00
762.1730, 26149.00
763.3200, 26010.00
764.4670, 26200.00
765.6130, 26115.00
766.7590, 26245.00
767.9050, 26145.00
769.0510, 26015.00
770.1960, 26121.00
771.3420, 26137.00
772.4870, 26340.00
773.6320, 26043.00
774.7770, 26132.00
775.9220, 26457.00
777.0670, 26183.00
778.2110, 26480.00
779.3560, 26320.00
780.5000, 26287.00
781.6440, 26387.00
782.7880, 26458.00
783.9320, 26702.00
785.0750, 26663.00
786.2180, 26515.00
787.3620, 26799.00
788.5050, 26524.00
789.6480, 26639.00
790.7900, 26689.00
791.9330, 26638.00
793.0750, 26656.00
794.2170, 26731.00
795.3590, 26735.00
796.5010, 26787.00
797.6430, 26684.00
798.7850, 26840.00
799.9260, 26771.00
801.0670, 26930.00
802.2080, 26884.00
803.3490, 26752.00
804.4900, 26983.00
805.6310, 26953.00
806.7710, 27075.00
807.9110, 26986.00
809.0510, 27174.00
810.1910, 26909.00
811.3310, 27195.00
812.4710, 27155.00
813.6100, 27277.00
814.7490, 27315.00
815.8880, 27092.00
817.0270, 27164.00
818.1660, 27357.00
819.3050, 27613.00
820.4430, 27442.00
821.5820, 27322.00
822.7200, 27560.00
823.8580, 27425.00
824.9950, 27497.00
826.1330, 27494.00
827.2710, 27437.00
828.4080, 27691.00
829.5450, 27545.00
830.6820, 27562.00
831.8190, 27612.00
832.9560, 27636.00
834.0920, 27708.00
835.2280, 27787.00
836.3650, 27704.00
837.5010, 27855.00
838.6360, 27933.00
839.7720, 27820.00
840.9080, 27734.00
842.0430, 27963.00
843.1780, 28183.00
844.3130, 28201.00
845.4480, 28188.00
846.5830, 28208.42
847.7170, 28328.22
848.8520, 28431.00
849.9860, 28517.52
851.1200, 28539.37
852.2540, 28644.73
853.3870, 28942.00
854.5210, 28814.00
855.6540, 28966.00
856.7880, 28779.00
857.9210, 28651.00
859.0540, 28744.00
860.1860, 28706.00
861.3190, 28661.00
862.4510, 28624.00
863.5840, 28597.00
864.7160, 28682.00
865.8480, 28489.00
866.9790, 28713.00
868.1110, 28600.00
869.2420, 28686.00
870.3740, 28731.00
871.5050, 28726.00
872.6360, 28944.00
873.7660, 28853.00
874.8970, 28985.00
876.0280, 28944.00
877.1580, 28844.00
878.2880, 28815.00
879.4180, 29054.00
880.5480, 29126.00
881.6770, 28902.00
882.8070, 29098.00
883.9360, 28973.00
885.0650, 29057.00
886.1940, 29305.00
887.3230, 29303.00
888.4520, 29300.00
889.5800, 29465.00
890.7090, 29259.00
891.8370, 29683.00
892.9650, 29447.00
894.0930, 29532.00
895.2200, 29617.00
896.3480, 29412.00
897.4750, 29317.00
898.6020, 29571.00
899.7290, 29772.00
900.8560, 29474.00
901.9830, 29815.00
903.1090, 29733.00
904.2360, 29526.00
905.3620, 29816.00
906.4880, 29711.00
907.6140, 29932.00
908.7400, 29845.00
909.8650, 29942.00
910.9900, 29825.00
912.1160, 29906.00
913.2410, 29864.00
914.3660, 29870.00
915.4900, 30141.00
916.6150, 30011.00
917.7390, 29862.00
918.8640, 30030.00
919.9880, 30145.00
921.1120, 29870.00
922.2350, 29977.00
923.3590, 30149.00
924.4820, 30237.00
925.6060, 30008.00
926.7290, 30175.00
927.8520, 30506.00
928.9740, 30236.00
930.0970, 30334.00
931.2190, 30218.00
932.3420, 30330.00
933.4640, 30367.00
934.5860, 30410.00
935.7080, 30438.00
936.8290, 30318.00
937.9510, 30587.00
939.0720, 30484.00
940.1930, 30280.00
941.3140, 30202.00
942.4350, 30512.00
943.5560, 30551.00
944.6760, 30651.00
945.7960, 30444.00
946.9170, 30935.00
948.0370, 30952.00
949.1560, 30834.00
950.2760, 30733.00
951.3960, 30733.00
952.5150, 30705.00
953.6340, 30917.00
954.7530, 30826.00
955.8720, 30914.00
956.9910, 30980.00
958.1090, 30953.00
959.2280, 31305.00
960.3460, 31017.00
961.4640, 31531.00
962.5820, 31147.00
963.6990, 31109.00
964.8170, 31161.00
965.9340, 31238.00
967.0510, 31414.00
968.1690, 31543.00
969.2850, 31404.00
970.4020, 31377.00
971.5190, 31544.00
972.6350, 31630.00
973.7510, 31441.00
974.8670, 31532.00
975.9830, 31343.00
977.0990, 31591.00
978.2150, 31778.00
979.3300, 31732.00
980.4450, 31682.00
981.5600, 31845.00
982.6750, 31848.00
983.7900, 32119.00
984.9050, 32093.00
986.0190, 32227.00
987.1340, 32037.00
988.2480, 32381.00
989.3620, 32566.00
990.4750, 32389.00
991.5890, 32519.00
992.7020, 32710.00
993.8160, 32893.00
994.9290, 32861.00
996.0420, 33201.00
997.1550, 33348.00
998.2670, 33700.00
999.3800, 33959.00
1000.492, 34378.00
1001.604, 34650.00
1002.716, 35324.00
1003.828, 36067.00
1004.940, 37148.00
1006.051, 38486.00
1007.163, 40077.00
1008.274, 42003.00
1009.385, 44094.00
1010.496, 46008.00
1011.606, 47383.00
1012.717, 47739.00
1013.827, 46924.00
1014.937, 44984.00
1016.047, 42495.00
1017.157, 40718.00
1018.267, 38726.00
1019.377, 37356.00
1020.486, 36646.00
1021.595, 35948.00
1022.704, 35488.00
1023.813, 35194.00
1024.922, 35545.00
1026.030, 35048.00
1027.139, 35292.00
1028.247, 35080.00
1029.355, 34859.00
1030.463, 34897.00
1031.571, 34694.00
1032.678, 34468.00
1033.786, 34365.00
1034.893, 34091.00
1036.000, 34343.00
1037.107, 34082.00
1038.214, 34223.00
1039.321, 33834.00
1040.427, 33871.00
1041.533, 34170.00
1042.639, 33679.00
1043.745, 33906.00
1044.851, 33755.00
1045.957, 33812.00
1047.062, 33748.00
1048.168, 33595.00
1049.273, 33899.00
1050.378, 33662.00
1051.482, 33876.00
1052.587, 33868.00
1053.692, 33981.00
1054.796, 33891.00
1055.900, 33623.00
1057.004, 33846.00
1058.108, 33852.00
1059.212, 33857.00
1060.315, 33990.00
1061.418, 33904.00
1062.522, 33799.00
1063.625, 34016.00
1064.728, 34024.00
1065.830, 33993.00
1066.933, 34033.00
1068.035, 34027.00
1069.137, 34087.00
1070.239, 34328.00
1071.341, 34066.00
1072.443, 34260.00
1073.545, 34300.00
1074.646, 34042.00
1075.747, 34367.00
1076.848, 34270.00
1077.949, 34361.00
1079.050, 34444.00
1080.150, 34535.00
1081.251, 34459.00
1082.351, 34763.00
1083.451, 34683.00
1084.551, 34945.00
1085.651, 35070.00
1086.750, 35071.00
1087.850, 35006.00
1088.949, 34948.00
1090.048, 34804.00
1091.147, 34679.00
1092.246, 34670.00
1093.345, 34621.00
1094.443, 34847.00
1095.541, 34602.00
1096.639, 34837.00
1097.737, 34768.00
1098.835, 34921.00
1099.933, 34654.00
1101.030, 34781.00
1102.128, 34828.00
1103.225, 35109.00
1104.322, 35070.00
1105.419, 34900.00
1106.515, 34985.00
1107.612, 35174.00
1108.708, 35018.00
1109.804, 35315.00
1110.900, 35257.00
1111.996, 35378.00
1113.092, 35246.00
1114.187, 35188.00
1115.283, 35240.00
1116.378, 35309.00
1117.473, 35381.00
1118.568, 35400.00
1119.662, 35175.00
1120.757, 35396.00
1121.851, 35831.00
1122.946, 35764.00
1124.040, 35595.00
1125.134, 35660.00
1126.227, 35936.00
1127.321, 35716.00
1128.414, 35306.00
1129.508, 35604.00
1130.601, 35538.00
1131.693, 35782.00
1132.786, 35839.00
1133.879, 35804.00
1134.971, 35821.00
1136.064, 35651.00
1137.156, 35839.00
1138.248, 35907.00
1139.339, 35911.00
1140.431, 35788.00
1141.522, 35823.00
1142.614, 35877.00
1143.705, 36127.00
1144.796, 35860.00
1145.887, 35965.00
1146.977, 36111.00
1148.068, 36085.00
1149.158, 36183.00
1150.248, 36235.00
1151.338, 36305.00
1152.428, 36055.00
1153.518, 36149.04
1154.607, 36382.81
1155.696, 36528.21
1156.785, 36589.98
1157.874, 36317.67
1158.963, 36476.76
1160.052, 36462.96
1161.141, 36442.08
1162.229, 36661.86
1163.317, 36438.11
1164.405, 36654.07
1165.493, 36694.51
1166.581, 36815.29
1167.668, 36595.00
1168.756, 36834.00
1169.843, 36524.00
1170.930, 36697.00
1172.017, 36894.00
1173.103, 36783.00
1174.190, 36869.00
1175.276, 36792.00
1176.363, 36895.00
1177.449, 36645.00
1178.535, 36791.00
1179.620, 36832.00
1180.706, 37061.00
1181.791, 37175.00
1182.877, 36986.00
1183.962, 37091.00
1185.047, 37079.00
1186.131, 37188.00
1187.216, 37286.00
1188.300, 37115.00
1189.385, 37298.00
1190.469, 37190.00
1191.553, 37257.00
1192.637, 37454.00
1193.720, 37443.00
1194.804, 37328.00
1195.887, 37414.00
1196.970, 37255.00
1198.053, 37721.00
1199.136, 37717.00
1200.219, 37767.00
1201.301, 37655.00
1202.383, 37472.00
1203.465, 37722.00
1204.547, 37655.00
1205.629, 37714.00
1206.711, 37852.00
1207.792, 37744.00
1208.874, 37841.00
1209.955, 37961.00
1211.036, 37985.00
1212.117, 37819.00
1213.198, 37904.00
1214.278, 38061.00
1215.359, 38079.00
1216.439, 38013.00
1217.519, 38067.00
1218.599, 38228.00
1219.678, 37991.00
1220.758, 38251.00
1221.837, 38120.00
1222.917, 38378.00
1223.996, 38089.00
1225.075, 38269.00
1226.153, 38250.00
1227.232, 38491.00
1228.310, 38383.00
1229.389, 38825.00
1230.467, 38371.00
1231.545, 38781.00
1232.622, 38709.00
1233.700, 38536.00
1234.777, 38689.00
1235.855, 38612.00
1236.932, 38879.00
1238.009, 38609.00
1239.086, 38834.00
1240.162, 38799.00
1241.239, 38668.00
1242.315, 38715.00
1243.391, 39004.00
1244.467, 38762.00
1245.543, 39038.00
1246.619, 39033.00
1247.694, 39020.00
1248.769, 38912.00
1249.844, 39114.00
1250.919, 38975.00
1251.994, 39372.00
1253.069, 39134.00
1254.144, 39164.00
1255.218, 38968.66
1256.292, 39203.29
1257.366, 39349.55
1258.440, 39412.18
1259.514, 39140.73
1260.587, 39300.65
1261.661, 39287.71
1262.734, 39267.66
1263.807, 39488.30
1264.880, 39265.40
1265.952, 39482.20
1267.025, 39523.49
1268.097, 39645.09
1269.170, 39592.77
1270.242, 39594.14
1271.314, 39769.53
1272.385, 39848.53
1273.457, 39776.15
1274.528, 39902.82
1275.600, 39673.82
1276.671, 39756.93
1277.742, 39974.71
1278.812, 39911.02
1279.883, 40040.88
1280.954, 40097.03
1282.024, 39818.20
1283.094, 40121.89
1284.164, 40173.65
1285.234, 39966.75
1286.303, 40250.45
1287.373, 40079.21
1288.442, 40070.34
1289.511, 40183.68
1290.580, 40169.61
1291.649, 40356.41
1292.718, 40349.71
1293.786, 40216.00
1294.855, 40289.00
1295.923, 40259.00
1296.991, 40742.00
1298.059, 40093.00
1299.126, 40367.00
1300.194, 40763.00
1301.261, 40655.00
1302.328, 40523.00
1303.395, 40671.00
1304.462, 40611.00
1305.529, 40821.00
1306.596, 40369.00
1307.662, 40592.00
1308.728, 40600.00
1309.794, 41011.00
1310.860, 40665.00
1311.926, 40612.00
1312.991, 41008.00
1314.057, 40640.00
1315.122, 40915.00
1316.187, 41001.00
1317.252, 40998.00
1318.317, 41117.00
1319.381, 41166.00
1320.446, 41294.00
1321.510, 41333.00
1322.574, 41320.00
1323.638, 41296.00
1324.702, 41403.00
1325.766, 41277.00
1326.829, 41222.00
1327.892, 41501.00
1328.956, 41397.00
1330.019, 41422.00
1331.081, 41442.00
1332.144, 41640.00
1333.206, 41498.00
1334.269, 41570.00
1335.331, 41572.00
1336.393, 41676.00
1337.455, 41534.00
1338.516, 41871.00
1339.578, 41802.00
1340.639, 41785.00
1341.701, 41830.00
1342.762, 41731.00
1343.822, 41755.00
1344.883, 42021.00
1345.944, 41569.00
1347.004, 42011.00
1348.064, 41978.00
1349.124, 42155.00
1350.184, 42066.00
1351.244, 42042.00
1352.304, 42162.00
1353.363, 42053.00
1354.422, 42074.00
1355.481, 42076.00
1356.540, 42397.00
1357.599, 42370.00
1358.657, 42437.00
1359.716, 42324.00
1360.774, 42404.00
1361.832, 42500.00
1362.890, 42306.00
1363.948, 42588.00
1365.006, 42600.00
1366.063, 42601.00
1367.120, 42537.00
1368.178, 42575.00
1369.234, 42795.00
1370.291, 42633.00
1371.348, 42701.00
1372.404, 42526.00
1373.461, 42726.00
1374.517, 43056.00
1375.573, 42907.00
1376.629, 42760.00
1377.684, 42888.00
1378.740, 42789.00
1379.795, 42794.00
1380.850, 42988.00
1381.905, 43072.00
1382.960, 43114.00
1384.015, 43359.00
1385.070, 43012.00
1386.124, 43005.00
1387.178, 43083.00
1388.232, 43170.00
1389.286, 43241.00
1390.340, 43136.00
1391.393, 43347.00
1392.447, 43279.00
1393.500, 43215.00
1394.553, 43243.00
1395.606, 43418.00
1396.659, 43211.00
1397.711, 43337.00
1398.764, 43562.00
1399.816, 43769.00
1400.868, 43384.00
1401.920, 43407.00
1402.972, 43496.00
1404.023, 43407.00
1405.075, 43713.00
1406.126, 43989.00
1407.177, 43588.00
1408.228, 43615.00
1409.279, 44102.00
1410.330, 43800.00
1411.380, 43814.00
1412.431, 43970.00
1413.481, 43724.00
1414.531, 43742.00
1415.580, 44145.00
1416.630, 44017.00
1417.680, 44084.00
1418.729, 44099.00
1419.778, 44168.00
1420.827, 44147.00
1421.876, 44061.00
1422.925, 44122.00
1423.973, 43797.00
1425.022, 44335.00
1426.070, 44395.00
1427.118, 44066.00
1428.166, 44194.00
1429.214, 44401.00
1430.261, 44119.00
1431.309, 44781.00
1432.356, 44236.00
1433.403, 44552.00
1434.450, 44499.00
1435.497, 44532.00
1436.543, 44597.00
1437.590, 44550.00
1438.636, 44735.00
1439.682, 44748.00
1440.728, 44669.00
1441.774, 44753.00
1442.819, 44601.00
1443.865, 44874.00
1444.910, 44740.00
1445.955, 44870.00
1447.000, 44888.00
1448.045, 44879.00
1449.090, 45210.00
1450.134, 45172.00
1451.178, 44890.00
1452.223, 45167.00
1453.267, 44977.00
1454.310, 45205.00
1455.354, 45212.00
1456.398, 45345.00
1457.441, 45304.00
1458.484, 45301.00
1459.527, 45310.00
1460.570, 45353.00
1461.613, 45754.00
1462.655, 45354.00
1463.698, 45565.00
1464.740, 45281.00
1465.782, 45229.00
1466.824, 45146.00
1467.866, 45518.00
1468.907, 45631.00
1469.948, 45534.00
1470.990, 45491.00
1472.031, 45564.00
1473.072, 45648.00
1474.112, 45593.00
1475.153, 45855.00
1476.194, 45706.00
1477.234, 46076.00
1478.274, 46072.00
1479.314, 45831.00
1480.354, 45777.00
1481.393, 45963.00
1482.433, 45808.00
1483.472, 46137.00
1484.511, 46034.00
1485.550, 46072.00
1486.589, 46220.00
1487.628, 46173.00
1488.666, 46222.00
1489.704, 46164.00
1490.743, 46248.00
1491.781, 46238.00
1492.819, 46134.00
1493.856, 46302.00
1494.894, 46628.00
1495.931, 46196.00
1496.968, 46448.00
1498.005, 46493.00
1499.042, 46429.00
1500.079, 46530.00
1501.115, 46729.00
1502.152, 46490.00
1503.188, 46503.00
1504.224, 46586.00
1505.260, 46552.00
1506.296, 46594.00
1507.331, 46680.00
1508.367, 46887.00
1509.402, 46730.00
1510.437, 46709.00
1511.472, 47072.00
1512.507, 46845.00
1513.541, 47031.00
1514.576, 46896.00
1515.610, 47098.00
1516.644, 46903.00
1517.678, 46997.00
1518.712, 46911.00
1519.746, 47080.00
1520.779, 46916.00
1521.813, 47159.00
1522.846, 46965.00
1523.879, 47267.00
1524.912, 47340.00
1525.944, 47231.00
1526.977, 47477.00
1528.009, 47232.00
1529.041, 47286.00
1530.073, 47175.00
1531.105, 47635.00
1532.137, 47265.00
1533.168, 47718.00
1534.200, 47569.00
1535.231, 47647.00
1536.262, 47691.00
1537.293, 47681.00
1538.324, 47446.00
1539.354, 47684.00
1540.385, 47715.00
1541.415, 47753.00
1542.445, 47914.00
1543.475, 47610.00
1544.505, 47952.00
1545.534, 47783.00
1546.564, 47934.00
1547.593, 48220.00
1548.622, 47874.00
1549.651, 47980.00
1550.680, 47929.00
1551.708, 47633.00
1552.737, 47908.00
1553.765, 48043.00
1554.793, 48072.00
1555.821, 48087.00
1556.849, 48141.00
1557.877, 48027.00
1558.904, 48137.00
1559.932, 48359.00
1560.959, 48166.00
1561.986, 48383.00
1563.013, 47949.00
1564.039, 48304.00
1565.066, 48141.00
1566.092, 48459.00
1567.119, 48492.00
1568.145, 48283.00
1569.170, 48366.00
1570.196, 48352.00
1571.222, 48290.00
1572.247, 48532.00
1573.272, 48289.00
1574.297, 48504.00
1575.322, 48520.00
##END=



