##NAMES=Hedenbergite
##RRUFFID=R060040
##IDEAL CHEMISTRY=CaFe^2+^Si_2_O_6_
##LOCALITY=Rio Marina, Elba, Italy
##OWNER=RRUFF
##SOURCE=University of Arizona Mineral Museum
##DESCRIPTION=Radial aggregate of green thin bladed crystals
##STATUS=The identification of this mineral has been confirmed by X-ray diffraction and chemical analysis
##URL=rruff.info/R060040
##MEASURED CHEMISTRY=Ca_1.00_(Fe^2+^_0.89_Mg_0.09_Mn_0.02_)_Î£=1_Si_2.00_O_6_
##PIN_ID=M01289
##ORIENTATION=Laser parallel to a* (1 0 0). Fiducial mark perpendicular to laser is parallel to b [0 1 0]
262.4900, 18438.00
263.7050, 18479.00
264.9210, 18477.00
266.1360, 18492.00
267.3520, 18538.00
268.5670, 18477.00
269.7820, 18852.00
270.9960, 18775.00
272.2110, 18747.00
273.4250, 18845.00
274.6400, 18874.00
275.8540, 18847.00
277.0680, 18852.00
278.2810, 19101.00
279.4950, 19049.00
280.7090, 19332.00
281.9220, 19279.00
283.1350, 19100.00
284.3480, 19405.00
285.5610, 19460.00
286.7730, 19565.00
287.9860, 19661.00
289.1980, 19803.00
290.4100, 19977.00
291.6220, 19920.00
292.8340, 20066.00
294.0460, 20191.00
295.2570, 20213.00
296.4690, 20441.00
297.6800, 20650.00
298.8910, 20989.00
300.1020, 21082.00
301.3120, 21418.00
302.5230, 21679.00
303.7330, 21941.00
304.9440, 22353.00
306.1540, 22329.00
307.3630, 22739.00
308.5730, 22645.00
309.7830, 22482.00
310.9920, 22206.00
312.2010, 22101.00
313.4100, 21815.00
314.6190, 21608.00
315.8280, 21090.00
317.0370, 21116.00
318.2450, 20881.00
319.4530, 20793.00
320.6610, 20724.00
321.8690, 20803.00
323.0770, 20624.00
324.2850, 20569.00
325.4920, 20699.00
326.6990, 20855.00
327.9060, 20777.00
329.1130, 21062.00
330.3200, 20875.00
331.5270, 21001.00
332.7330, 21169.00
333.9390, 21220.00
335.1450, 21506.00
336.3510, 21606.00
337.5570, 21909.58
338.7630, 22071.53
339.9680, 22130.91
341.1740, 22088.32
342.3790, 21916.10
343.5840, 21639.00
344.7890, 21674.00
345.9930, 21476.00
347.1980, 21195.00
348.4020, 21081.00
349.6060, 21317.00
350.8100, 21055.00
352.0140, 21088.00
353.2180, 20971.00
354.4210, 21132.00
355.6250, 21197.00
356.8280, 21184.00
358.0310, 21442.00
359.2340, 21393.00
360.4360, 21893.00
361.6390, 21825.00
362.8410, 22034.00
364.0430, 22392.00
365.2450, 22995.00
366.4470, 23375.00
367.6490, 23927.00
368.8510, 24299.00
370.0520, 25172.00
371.2530, 26026.00
372.4540, 26935.00
373.6550, 26976.00
374.8560, 27619.00
376.0560, 27988.00
377.2570, 27574.00
378.4570, 27157.00
379.6570, 26495.00
380.8570, 25563.00
382.0570, 24711.00
383.2560, 24065.00
384.4560, 23469.00
385.6550, 22905.00
386.8540, 22610.00
388.0530, 22166.00
389.2520, 21820.00
390.4510, 21604.00
391.6490, 21441.00
392.8470, 21464.00
394.0450, 21378.00
395.2430, 21256.00
396.4410, 21103.00
397.6390, 21203.00
398.8360, 21051.00
400.0340, 20932.00
401.2310, 21039.00
402.4280, 21072.00
403.6250, 20899.00
404.8210, 20899.00
406.0180, 20945.00
407.2140, 20948.00
408.4100, 20747.00
409.6060, 20889.00
410.8020, 20870.00
411.9980, 20997.00
413.1930, 20871.00
414.3890, 20913.00
415.5840, 20917.00
416.7790, 20982.00
417.9740, 20881.00
419.1680, 21194.00
420.3630, 20976.00
421.5570, 21096.00
422.7510, 21156.00
423.9450, 21031.00
425.1390, 21008.00
426.3330, 21227.00
427.5270, 21257.00
428.7200, 21400.00
429.9130, 21239.00
431.1060, 21347.00
432.2990, 21099.00
433.4920, 21285.00
434.6840, 21444.00
435.8770, 21416.00
437.0690, 21353.00
438.2610, 21341.00
439.4530, 21458.00
440.6450, 21524.00
441.8360, 21443.00
443.0280, 21403.00
444.2190, 21525.00
445.4100, 21501.00
446.6010, 21482.00
447.7920, 21500.00
448.9820, 21646.00
450.1730, 21425.00
451.3630, 21596.00
452.5530, 21513.00
453.7430, 21536.00
454.9330, 21721.00
456.1230, 21663.00
457.3120, 21636.00
458.5010, 21641.00
459.6910, 21862.00
460.8800, 21744.00
462.0680, 21776.00
463.2570, 21899.00
464.4460, 21847.00
465.6340, 21873.00
466.8220, 21824.00
468.0100, 21861.00
469.1980, 21821.00
470.3860, 22013.00
471.5730, 21770.00
472.7600, 21929.00
473.9480, 21854.00
475.1350, 22038.00
476.3210, 21985.00
477.5080, 22000.00
478.6950, 21990.00
479.8810, 22088.00
481.0670, 22088.00
482.2530, 22225.00
483.4390, 22248.00
484.6250, 22467.00
485.8100, 22270.00
486.9960, 22294.00
488.1810, 22663.00
489.3660, 22464.00
490.5510, 22707.00
491.7360, 22764.00
492.9200, 22763.00
494.1050, 22927.00
495.2890, 22770.00
496.4730, 23075.00
497.6570, 23039.00
498.8400, 22964.00
500.0240, 22923.00
501.2070, 22934.00
502.3910, 23130.00
503.5740, 22950.00
504.7570, 23039.00
505.9400, 23005.00
507.1220, 23006.00
508.3050, 22905.00
509.4870, 23112.00
510.6690, 22981.00
511.8510, 23044.00
513.0330, 23218.00
514.2140, 23132.00
515.3960, 23364.00
516.5770, 23309.00
517.7580, 23770.00
518.9390, 23635.00
520.1200, 23748.00
521.3010, 23879.00
522.4810, 23829.00
523.6610, 23722.00
524.8420, 23697.00
526.0220, 23760.00
527.2010, 23648.00
528.3810, 23563.00
529.5610, 23530.00
530.7400, 23418.00
531.9190, 23358.00
533.0980, 23297.00
534.2770, 23278.00
535.4560, 23642.00
536.6340, 23555.00
537.8120, 23433.00
538.9910, 23644.00
540.1690, 23491.00
541.3460, 23599.00
542.5240, 23478.00
543.7020, 23841.00
544.8790, 23599.00
546.0560, 23780.00
547.2330, 23923.00
548.4100, 23979.00
549.5870, 23897.00
550.7630, 24057.00
551.9400, 23979.00
553.1160, 23988.00
554.2920, 24323.00
555.4680, 24129.00
556.6440, 23804.00
557.8190, 23882.00
558.9950, 24034.00
560.1700, 24110.00
561.3450, 23971.00
562.5200, 23893.00
563.6950, 23845.00
564.8690, 23806.00
566.0440, 23836.00
567.2180, 23965.00
568.3920, 24168.00
569.5660, 24091.00
570.7400, 23954.00
571.9130, 23889.00
573.0870, 24020.00
574.2600, 24236.00
575.4330, 24017.00
576.6060, 23838.00
577.7790, 24117.00
578.9520, 23854.00
580.1240, 24041.00
581.2960, 23864.00
582.4690, 23980.00
583.6410, 24014.00
584.8120, 24120.00
585.9840, 24029.00
587.1560, 24099.00
588.3270, 23950.00
589.4980, 23970.00
590.6690, 24191.00
591.8400, 24170.00
593.0110, 24183.00
594.1810, 24120.00
595.3510, 24044.00
596.5220, 24292.00
597.6920, 24235.00
598.8610, 24436.00
600.0310, 24424.00
601.2010, 24413.00
602.3700, 24385.00
603.5390, 24344.00
604.7080, 24422.00
605.8770, 24493.00
607.0460, 24449.00
608.2140, 24407.00
609.3830, 24500.00
610.5510, 24686.00
611.7190, 24821.00
612.8870, 24412.00
614.0550, 24704.00
615.2220, 24444.00
616.3900, 24623.00
617.5570, 24775.00
618.7240, 24849.00
619.8910, 24948.00
621.0580, 24926.00
622.2240, 24904.00
623.3910, 24825.00
624.5570, 24958.00
625.7230, 25166.00
626.8890, 24838.00
628.0550, 25272.00
629.2200, 25172.00
630.3860, 25228.00
631.5510, 25093.00
632.7160, 25275.00
633.8810, 25324.00
635.0460, 25496.00
636.2100, 25540.00
637.3750, 25554.00
638.5390, 25803.00
639.7030, 25669.00
640.8670, 25961.00
642.0310, 25889.00
643.1950, 26097.00
644.3580, 26569.00
645.5210, 26425.00
646.6850, 26801.00
647.8480, 27179.00
649.0100, 27537.00
650.1730, 28009.00
651.3350, 28617.00
652.4980, 29384.00
653.6600, 30000.00
654.8220, 31072.00
655.9840, 32314.00
657.1450, 33493.00
658.3070, 34510.00
659.4680, 35646.00
660.6300, 36133.00
661.7910, 36147.00
662.9510, 35270.00
664.1120, 34121.00
665.2730, 32857.00
666.4330, 31608.00
667.5930, 30637.00
668.7530, 29751.00
669.9130, 29036.00
671.0730, 28310.00
672.2320, 28103.00
673.3920, 27675.00
674.5510, 27350.00
675.7100, 27162.00
676.8690, 27059.00
678.0280, 26894.00
679.1860, 26845.00
680.3450, 26872.00
681.5030, 26690.00
682.6610, 26721.00
683.8190, 26427.00
684.9770, 26390.00
686.1340, 26530.00
687.2920, 26404.00
688.4490, 26674.00
689.6060, 26380.00
690.7630, 26445.00
691.9200, 26426.00
693.0760, 26603.00
694.2330, 26389.00
695.3890, 26353.00
696.5450, 26342.00
697.7010, 26629.00
698.8570, 26599.00
700.0130, 26334.00
701.1680, 26586.00
702.3230, 26424.00
703.4780, 26704.00
704.6330, 26671.00
705.7880, 26465.00
706.9430, 26499.00
708.0970, 26760.00
709.2520, 26700.00
710.4060, 26720.00
711.5600, 26832.00
712.7140, 26568.00
713.8670, 26736.00
715.0210, 26500.00
716.1740, 26600.00
717.3270, 27005.00
718.4800, 26434.00
719.6330, 26534.00
720.7860, 26781.00
721.9380, 26919.00
723.0910, 26862.00
724.2430, 26876.00
725.3950, 26694.00
726.5470, 26854.00
727.6980, 26971.00
728.8500, 26788.00
730.0010, 27144.00
731.1530, 26959.00
732.3040, 26918.00
733.4550, 27188.00
734.6050, 26846.00
735.7560, 27010.00
736.9060, 27337.00
738.0560, 27156.00
739.2060, 27260.00
740.3560, 27160.00
741.5060, 27209.00
742.6560, 27158.00
743.8050, 27273.00
744.9540, 27298.00
746.1030, 27173.00
747.2520, 27107.00
748.4010, 27492.00
749.5500, 27189.00
750.6980, 27351.00
751.8460, 27476.00
752.9950, 27476.00
754.1420, 27537.00
755.2900, 27570.00
756.4380, 27790.00
757.5850, 27523.00
758.7330, 27688.00
759.8800, 27742.00
761.0270, 27831.00
762.1730, 27696.00
763.3200, 27704.00
764.4670, 27543.00
765.6130, 27677.00
766.7590, 27792.00
767.9050, 27731.00
769.0510, 27727.00
770.1960, 27699.00
771.3420, 27560.39
772.4870, 27707.65
773.6320, 27797.96
774.7770, 27834.39
775.9220, 27655.55
777.0670, 27754.69
778.2110, 27742.41
779.3560, 27725.58
780.5000, 27863.82
781.6440, 27716.29
782.7880, 27852.07
783.9320, 27999.00
785.0750, 27947.00
786.2180, 28286.00
787.3620, 28193.00
788.5050, 28166.00
789.6480, 28083.00
790.7900, 28186.00
791.9330, 28218.00
793.0750, 28222.00
794.2170, 28234.00
795.3590, 28328.00
796.5010, 28284.00
797.6430, 28189.00
798.7850, 28450.00
799.9260, 28302.00
801.0670, 28460.00
802.2080, 28540.00
803.3490, 28402.00
804.4900, 28655.00
805.6310, 28293.00
806.7710, 28428.00
807.9110, 28381.00
809.0510, 28562.00
810.1910, 28612.00
811.3310, 28511.00
812.4710, 28744.00
813.6100, 28569.00
814.7490, 28588.00
815.8880, 28658.00
817.0270, 28852.00
818.1660, 28561.00
819.3050, 28911.00
820.4430, 28932.00
821.5820, 28597.00
822.7200, 28855.00
823.8580, 28638.00
824.9950, 28739.00
826.1330, 28971.00
827.2710, 28926.00
828.4080, 28877.00
829.5450, 28719.00
830.6820, 28991.00
831.8190, 28956.00
832.9560, 29313.00
834.0920, 29183.00
835.2280, 28909.00
836.3650, 29126.00
837.5010, 28926.00
838.6360, 29158.00
839.7720, 29036.00
840.9080, 29112.00
842.0430, 29311.00
843.1780, 29280.00
844.3130, 29349.00
845.4480, 29668.00
846.5830, 29442.00
847.7170, 29614.00
848.8520, 29767.00
849.9860, 29759.00
851.1200, 29801.00
852.2540, 30320.00
853.3870, 30185.00
854.5210, 30103.00
855.6540, 30282.00
856.7880, 30022.00
857.9210, 30104.00
859.0540, 29879.00
860.1860, 29833.00
861.3190, 29952.00
862.4510, 30035.00
863.5840, 29740.00
864.7160, 30185.00
865.8480, 30097.00
866.9790, 30064.00
868.1110, 30007.00
869.2420, 30180.00
870.3740, 30111.00
871.5050, 29933.00
872.6360, 30269.00
873.7660, 30006.00
874.8970, 29939.00
876.0280, 30113.00
877.1580, 30289.00
878.2880, 30196.00
879.4180, 30108.00
880.5480, 30637.00
881.6770, 30409.00
882.8070, 30620.00
883.9360, 30361.00
885.0650, 30370.00
886.1940, 30353.00
887.3230, 30382.00
888.4520, 30458.00
889.5800, 30339.00
890.7090, 30765.00
891.8370, 30615.00
892.9650, 30650.00
894.0930, 30505.00
895.2200, 30592.00
896.3480, 30774.00
897.4750, 30773.00
898.6020, 30788.00
899.7290, 30897.00
900.8560, 30799.00
901.9830, 30817.00
903.1090, 30931.00
904.2360, 30887.00
905.3620, 30969.00
906.4880, 30882.00
907.6140, 30896.00
908.7400, 30597.86
909.8650, 30835.10
910.9900, 30988.81
912.1160, 31062.09
913.2410, 30893.44
914.3660, 30976.16
915.4900, 30920.93
916.6150, 30834.53
917.7390, 30876.70
918.8640, 31233.00
919.9880, 31257.00
921.1120, 31440.00
922.2350, 31124.00
923.3590, 31338.00
924.4820, 31443.00
925.6060, 31415.00
926.7290, 31315.00
927.8520, 31337.00
928.9740, 31110.00
930.0970, 31313.00
931.2190, 31519.00
932.3420, 31622.00
933.4640, 31440.00
934.5860, 31507.00
935.7080, 31505.00
936.8290, 31497.00
937.9510, 31526.00
939.0720, 31490.00
940.1930, 31400.00
941.3140, 31528.00
942.4350, 31430.00
943.5560, 31476.00
944.6760, 31633.00
945.7960, 31503.00
946.9170, 31362.00
948.0370, 31912.00
949.1560, 31696.00
950.2760, 31611.00
951.3960, 31996.00
952.5150, 31796.00
953.6340, 32009.00
954.7530, 31920.00
955.8720, 31734.00
956.9910, 31880.00
958.1090, 32088.00
959.2280, 32039.00
960.3460, 32111.00
961.4640, 32131.00
962.5820, 32188.00
963.6990, 32155.00
964.8170, 32262.00
965.9340, 32221.00
967.0510, 32249.00
968.1690, 32115.00
969.2850, 32358.00
970.4020, 32351.00
971.5190, 32493.00
972.6350, 32298.00
973.7510, 32372.00
974.8670, 32220.00
975.9830, 32385.00
977.0990, 32605.00
978.2150, 32683.00
979.3300, 33014.00
980.4450, 32787.00
981.5600, 32897.00
982.6750, 32787.00
983.7900, 32979.00
984.9050, 32944.00
986.0190, 33152.00
987.1340, 33100.00
988.2480, 33312.00
989.3620, 33290.00
990.4750, 33662.00
991.5890, 33673.00
992.7020, 34008.00
993.8160, 33836.00
994.9290, 34234.00
996.0420, 34623.00
997.1550, 34342.00
998.2670, 35222.00
999.3800, 35325.00
1000.492, 36057.00
1001.604, 36566.00
1002.716, 37533.00
1003.828, 38255.00
1004.940, 39806.00
1006.051, 41692.00
1007.163, 44054.00
1008.274, 46760.00
1009.385, 49624.00
1010.496, 53285.00
1011.606, 55307.00
1012.717, 56385.00
1013.827, 55057.00
1014.937, 52327.00
1016.047, 48857.00
1017.157, 45908.00
1018.267, 42800.00
1019.377, 41273.00
1020.486, 39680.00
1021.595, 38691.00
1022.704, 37919.00
1023.813, 37333.00
1024.922, 37167.00
1026.030, 36645.00
1027.139, 36708.00
1028.247, 36521.00
1029.355, 36575.00
1030.463, 36204.00
1031.571, 36056.00
1032.678, 35855.00
1033.786, 35672.00
1034.893, 35570.00
1036.000, 35298.00
1037.107, 35874.00
1038.214, 35070.00
1039.321, 35173.00
1040.427, 35351.00
1041.533, 35080.00
1042.639, 34873.00
1043.745, 35037.00
1044.851, 34799.00
1045.957, 34535.00
1047.062, 34624.00
1048.168, 34882.00
1049.273, 34638.00
1050.378, 34449.00
1051.482, 34730.00
1052.587, 34795.00
1053.692, 34771.00
1054.796, 34630.00
1055.900, 34834.00
1057.004, 34654.00
1058.108, 34585.00
1059.212, 34809.00
1060.315, 34761.00
1061.418, 34645.00
1062.522, 34847.00
1063.625, 34759.00
1064.728, 34782.00
1065.830, 34730.00
1066.933, 34800.00
1068.035, 34940.00
1069.137, 34825.00
1070.239, 34685.00
1071.341, 34807.00
1072.443, 34926.00
1073.545, 34985.00
1074.646, 34892.00
1075.747, 34766.00
1076.848, 35036.00
1077.949, 34942.00
1079.050, 35023.00
1080.150, 35021.00
1081.251, 34891.00
1082.351, 35054.00
1083.451, 34960.00
1084.551, 34964.00
1085.651, 35142.00
1086.750, 35161.00
1087.850, 35209.00
1088.949, 35316.00
1090.048, 35109.00
1091.147, 35272.00
1092.246, 35020.00
1093.345, 35291.00
1094.443, 35127.00
1095.541, 35037.00
1096.639, 35168.00
1097.737, 35426.00
1098.835, 35339.00
1099.933, 35337.00
1101.030, 35093.00
1102.128, 35158.00
1103.225, 35337.00
1104.322, 35636.00
1105.419, 35476.00
1106.515, 35744.00
1107.612, 35471.00
1108.708, 35405.00
1109.804, 35815.00
1110.900, 35747.00
1111.996, 35556.00
1113.092, 35610.00
1114.187, 35572.00
1115.283, 35754.00
1116.378, 35993.00
1117.473, 35745.00
1118.568, 35719.00
1119.662, 35714.00
1120.757, 35650.00
1121.851, 36035.00
1122.946, 35816.00
1124.040, 36065.00
1125.134, 35765.00
1126.227, 35850.00
1127.321, 36001.00
1128.414, 36189.00
1129.508, 35821.00
1130.601, 35899.00
1131.693, 35871.00
1132.786, 35967.00
1133.879, 36101.00
1134.971, 35949.00
1136.064, 36134.00
1137.156, 36173.00
1138.248, 36319.00
1139.339, 36181.00
1140.431, 36149.00
1141.522, 35949.00
1142.614, 36275.00
1143.705, 35989.00
1144.796, 36175.00
1145.887, 36066.00
1146.977, 36365.00
1148.068, 36537.00
1149.158, 36472.00
1150.248, 36612.00
1151.338, 36523.00
1152.428, 36694.00
1153.518, 36386.00
1154.607, 36295.00
1155.696, 36473.00
1156.785, 36730.00
1157.874, 36888.00
1158.963, 36836.00
1160.052, 36471.00
1161.141, 36658.00
1162.229, 36507.00
1163.317, 36947.00
1164.405, 36728.00
1165.493, 36610.00
1166.581, 36772.00
1167.668, 36503.00
1168.756, 36442.00
1169.843, 36874.00
1170.930, 36692.00
1172.017, 36951.00
1173.103, 36791.00
1174.190, 36901.00
1175.276, 36664.00
1176.363, 37176.00
1177.449, 36801.00
1178.535, 36929.00
1179.620, 37080.00
1180.706, 36831.00
1181.791, 37027.00
1182.877, 36992.00
1183.962, 37049.00
1185.047, 36943.00
1186.131, 37236.00
1187.216, 37260.00
1188.300, 37374.00
1189.385, 37353.00
1190.469, 37341.00
1191.553, 37373.00
1192.637, 37439.00
1193.720, 37354.00
1194.804, 37554.00
1195.887, 37386.00
1196.970, 37537.00
1198.053, 37408.00
1199.136, 37553.00
1200.219, 37804.00
1201.301, 37701.00
1202.383, 37653.00
1203.465, 37634.00
1204.547, 37589.00
1205.629, 37893.00
1206.711, 37833.00
1207.792, 37555.00
1208.874, 37905.00
1209.955, 37622.00
1211.036, 37887.00
1212.117, 38133.00
1213.198, 37962.00
1214.278, 37954.00
1215.359, 37938.00
1216.439, 38052.00
1217.519, 37946.00
1218.599, 37921.00
1219.678, 38278.00
1220.758, 38084.00
1221.837, 38064.00
1222.917, 38113.00
1223.996, 38446.00
1225.075, 38108.00
1226.153, 38197.00
1227.232, 38375.00
1228.310, 38419.00
1229.389, 38262.00
1230.467, 38256.00
1231.545, 38441.00
1232.622, 38236.00
1233.700, 38368.00
1234.777, 38540.00
1235.855, 38362.00
1236.932, 38464.00
1238.009, 38418.00
1239.086, 38410.00
1240.162, 38729.00
1241.239, 38707.00
1242.315, 38843.00
1243.391, 38606.00
1244.467, 38484.00
1245.543, 38677.00
1246.619, 38664.00
1247.694, 38831.00
1248.769, 38433.00
1249.844, 38891.00
1250.919, 38727.00
1251.994, 38874.00
1253.069, 39014.00
1254.144, 38698.00
1255.218, 39092.00
1256.292, 38900.00
1257.366, 38812.00
1258.440, 39013.00
1259.514, 38936.00
1260.587, 39144.00
1261.661, 38966.00
1262.734, 39113.00
1263.807, 39327.00
1264.880, 39379.00
1265.952, 39170.00
1267.025, 39111.00
1268.097, 39198.00
1269.170, 39480.00
1270.242, 39413.00
1271.314, 39510.00
1272.385, 39901.00
1273.457, 39562.00
1274.528, 39357.00
1275.600, 39783.00
1276.671, 39575.00
1277.742, 39514.00
1278.812, 39583.00
1279.883, 39378.00
1280.954, 39733.00
1282.024, 39835.00
1283.094, 39834.00
1284.164, 39756.00
1285.234, 39580.00
1286.303, 39672.00
1287.373, 39921.00
1288.442, 39977.00
1289.511, 40018.00
1290.580, 39638.00
1291.649, 39865.00
1292.718, 39616.00
1293.786, 39664.00
1294.855, 39625.00
1295.923, 39773.00
1296.991, 39518.00
1298.059, 39699.00
1299.126, 39775.00
1300.194, 39645.00
1301.261, 39957.00
1302.328, 39961.00
1303.395, 40070.00
1304.462, 40051.00
1305.529, 39906.00
1306.596, 40148.00
1307.662, 39980.00
1308.728, 40336.00
1309.794, 40287.00
1310.860, 40607.00
1311.926, 40377.00
1312.991, 40355.00
1314.057, 40693.00
1315.122, 40521.00
1316.187, 40567.00
1317.252, 40307.00
1318.317, 40708.00
1319.381, 40360.00
1320.446, 40683.00
1321.510, 40486.00
1322.574, 40644.00
1323.638, 40505.00
1324.702, 40623.00
1325.766, 40895.00
1326.829, 40577.00
1327.892, 40902.00
1328.956, 40954.00
1330.019, 40930.00
1331.081, 40936.00
1332.144, 40936.00
1333.206, 41025.00
1334.269, 41217.00
1335.331, 40946.00
1336.393, 40876.00
1337.455, 41252.00
1338.516, 41198.00
1339.578, 41005.00
1340.639, 41253.00
1341.701, 41143.00
1342.762, 41125.00
1343.822, 41201.00
1344.883, 41190.00
1345.944, 41249.00
1347.004, 41281.00
1348.064, 41120.00
1349.124, 41146.00
1350.184, 41518.00
1351.244, 41349.00
1352.304, 41483.00
1353.363, 41275.00
1354.422, 41233.00
1355.481, 41729.00
1356.540, 41401.00
1357.599, 41592.00
1358.657, 41726.00
1359.716, 41624.00
1360.774, 41352.19
1361.832, 41584.82
1362.890, 41737.43
1363.948, 41812.58
1365.006, 41673.73
1366.063, 41738.25
1367.120, 41676.71
1368.178, 41579.44
1369.234, 41581.75
1370.291, 41819.00
1371.348, 42258.00
1372.404, 41799.00
1373.461, 41980.00
1374.517, 41956.00
1375.573, 42063.00
1376.629, 41959.00
1377.684, 42056.00
1378.740, 42154.00
1379.795, 42083.00
1380.850, 42387.00
1381.905, 42174.00
1382.960, 42228.00
1384.015, 42135.00
1385.070, 42278.00
1386.124, 42181.00
1387.178, 42227.00
1388.232, 42318.00
1389.286, 42164.00
1390.340, 42413.00
1391.393, 42450.00
1392.447, 42467.00
1393.500, 42511.00
1394.553, 42547.00
1395.606, 42147.00
1396.659, 42330.00
1397.711, 42482.00
1398.764, 42372.00
1399.816, 42499.00
1400.868, 42468.00
1401.920, 42828.00
1402.972, 42395.00
1404.023, 42582.00
1405.075, 42806.00
1406.126, 42611.00
1407.177, 42763.00
1408.228, 42645.00
1409.279, 42634.00
1410.330, 42686.00
1411.380, 42834.00
1412.431, 42850.00
1413.481, 43195.00
1414.531, 42645.00
1415.580, 43043.00
1416.630, 42943.00
1417.680, 42590.70
1418.729, 42716.74
1419.778, 42794.59
1420.827, 42826.85
1421.876, 42676.96
1422.925, 43114.00
1423.973, 42969.00
1425.022, 43087.00
1426.070, 43265.00
1427.118, 43184.00
1428.166, 42901.00
1429.214, 43340.00
1430.261, 43337.00
1431.309, 43268.00
1432.356, 43225.00
1433.403, 43209.00
1434.450, 43323.00
1435.497, 43261.00
1436.543, 43423.00
1437.590, 43144.00
1438.636, 43488.00
1439.682, 43249.00
1440.728, 43450.00
1441.774, 43328.00
1442.819, 43528.00
1443.865, 43349.00
1444.910, 43502.00
1445.955, 43925.00
1447.000, 43408.00
1448.045, 43471.00
1449.090, 43792.00
1450.134, 43775.00
1451.178, 43725.00
1452.223, 44031.00
1453.267, 43810.00
1454.310, 43900.00
1455.354, 43750.00
1456.398, 43690.00
1457.441, 43836.00
1458.484, 43831.00
1459.527, 43706.00
1460.570, 44022.00
1461.613, 43885.00
1462.655, 43930.00
1463.698, 43909.00
1464.740, 43746.00
1465.782, 44069.00
1466.824, 44278.00
1467.866, 44011.00
1468.907, 44142.00
1469.948, 44268.00
1470.990, 44109.00
1472.031, 44251.00
1473.072, 44165.00
1474.112, 44329.00
1475.153, 44287.00
1476.194, 44450.00
1477.234, 44465.00
1478.274, 44319.00
1479.314, 44527.00
1480.354, 44174.00
1481.393, 44880.00
1482.433, 44509.00
1483.472, 44916.00
1484.511, 44650.00
1485.550, 44628.00
1486.589, 44635.00
1487.628, 44460.00
1488.666, 44537.00
1489.704, 44474.00
1490.743, 44867.00
1491.781, 44826.00
1492.819, 44554.00
1493.856, 45049.00
1494.894, 44763.00
1495.931, 45061.00
1496.968, 44828.00
1498.005, 44920.00
1499.042, 44863.00
1500.079, 44970.00
1501.115, 45125.00
1502.152, 44904.00
1503.188, 45033.00
1504.224, 44944.00
1505.260, 45217.00
1506.296, 45199.00
1507.331, 45123.00
1508.367, 45158.00
1509.402, 45011.00
1510.437, 45116.00
1511.472, 45326.00
1512.507, 45011.00
1513.541, 45263.00
1514.576, 45059.00
1515.610, 44991.00
1516.644, 45622.00
1517.678, 45162.00
1518.712, 45379.00
1519.746, 45443.00
1520.779, 45329.00
1521.813, 45562.00
1522.846, 45360.00
1523.879, 45773.00
1524.912, 45568.00
1525.944, 45795.00
1526.977, 45484.00
1528.009, 45452.00
1529.041, 45727.00
1530.073, 45684.00
1531.105, 45766.00
1532.137, 45813.00
1533.168, 45832.00
1534.200, 45913.00
1535.231, 45836.00
1536.262, 45798.00
1537.293, 46283.00
1538.324, 45732.00
1539.354, 45825.00
1540.385, 46144.00
1541.415, 45704.00
1542.445, 46307.00
1543.475, 46128.00
1544.505, 45605.00
1545.534, 45791.00
1546.564, 46021.00
1547.593, 46140.00
1548.622, 46027.00
1549.651, 45893.00
1550.680, 46303.00
1551.708, 46272.00
1552.737, 46116.00
1553.765, 46346.00
1554.793, 46478.00
1555.821, 46260.00
1556.849, 46411.00
1557.877, 46336.00
1558.904, 46290.00
1559.932, 46275.00
1560.959, 46378.00
1561.986, 46055.00
1563.013, 46392.00
1564.039, 46305.00
1565.066, 46150.00
1566.092, 46391.00
1567.119, 46462.00
1568.145, 46624.00
1569.170, 46489.00
1570.196, 46585.00
1571.222, 46552.00
1572.247, 46631.00
1573.272, 46338.00
1574.297, 46593.00
1575.322, 46647.00
1576.347, 46695.00
##END=



