##NAMES=Hedenbergite
##RRUFFID=R060040
##IDEAL CHEMISTRY=CaFe^2+^Si_2_O_6_
##LOCALITY=Rio Marina, Elba, Italy
##OWNER=RRUFF
##SOURCE=University of Arizona Mineral Museum
##DESCRIPTION=Radial aggregate of green thin bladed crystals
##STATUS=The identification of this mineral has been confirmed by X-ray diffraction and chemical analysis
##URL=rruff.info/R060040
##MEASURED CHEMISTRY=Ca_1.00_(Fe^2+^_0.89_Mg_0.09_Mn_0.02_)_Î£=1_Si_2.00_O_6_
##PIN_ID=M00921
##ORIENTATION=Laser parallel to -b* (0 -1 0). Fiducial mark perpendicular to laser is parallel to c [0 0 1]
262.4900, 21896.00
263.7050, 22015.00
264.9210, 21899.00
266.1360, 22006.00
267.3520, 22010.00
268.5670, 22146.00
269.7820, 22301.00
270.9960, 22277.00
272.2110, 22200.00
273.4250, 22494.00
274.6400, 22358.00
275.8540, 22543.00
277.0680, 22440.00
278.2810, 22618.00
279.4950, 22546.00
280.7090, 22658.00
281.9220, 22498.00
283.1350, 22588.00
284.3480, 22586.00
285.5610, 22634.00
286.7730, 22861.00
287.9860, 22758.00
289.1980, 22888.00
290.4100, 22924.00
291.6220, 22718.00
292.8340, 23078.00
294.0460, 23287.00
295.2570, 23474.00
296.4690, 23523.00
297.6800, 23474.00
298.8910, 23431.00
300.1020, 23657.00
301.3120, 23761.00
302.5230, 23811.00
303.7330, 23999.00
304.9440, 24051.00
306.1540, 23992.00
307.3630, 24157.00
308.5730, 23959.00
309.7830, 24278.00
310.9920, 24301.00
312.2010, 24066.00
313.4100, 23893.00
314.6190, 24074.00
315.8280, 23981.00
317.0370, 24003.00
318.2450, 23761.00
319.4530, 23748.00
320.6610, 23881.00
321.8690, 23909.00
323.0770, 23926.00
324.2850, 24137.00
325.4920, 23980.00
326.6990, 24098.00
327.9060, 24308.00
329.1130, 24147.00
330.3200, 24011.00
331.5270, 24269.00
332.7330, 24480.00
333.9390, 24582.00
335.1450, 24693.00
336.3510, 24554.00
337.5570, 24363.00
338.7630, 24474.00
339.9680, 24471.00
341.1740, 24547.00
342.3790, 24260.00
343.5840, 24435.00
344.7890, 24385.00
345.9930, 24496.00
347.1980, 24292.00
348.4020, 24215.00
349.6060, 24353.00
350.8100, 24476.00
352.0140, 24567.00
353.2180, 24276.00
354.4210, 24491.00
355.6250, 24445.00
356.8280, 24326.00
358.0310, 24495.00
359.2340, 24738.00
360.4360, 24680.00
361.6390, 24920.00
362.8410, 24856.00
364.0430, 24743.00
365.2450, 24839.00
366.4470, 24928.00
367.6490, 25126.00
368.8510, 25126.00
370.0520, 25199.00
371.2530, 25427.00
372.4540, 25547.00
373.6550, 25553.00
374.8560, 25410.00
376.0560, 25801.00
377.2570, 25468.00
378.4570, 25551.00
379.6570, 25502.00
380.8570, 25286.00
382.0570, 25252.00
383.2560, 25559.00
384.4560, 25213.00
385.6550, 25259.00
386.8540, 24978.00
388.0530, 25137.00
389.2520, 25200.00
390.4510, 25214.00
391.6490, 25049.00
392.8470, 25089.00
394.0450, 25306.00
395.2430, 25135.00
396.4410, 25180.00
397.6390, 25330.00
398.8360, 25300.00
400.0340, 25384.00
401.2310, 25397.00
402.4280, 25645.00
403.6250, 25411.00
404.8210, 25348.00
406.0180, 25348.00
407.2140, 25467.00
408.4100, 25757.00
409.6060, 25606.00
410.8020, 25547.00
411.9980, 25655.00
413.1930, 25561.00
414.3890, 25689.00
415.5840, 25653.00
416.7790, 25819.00
417.9740, 25780.00
419.1680, 25947.00
420.3630, 25761.00
421.5570, 25506.00
422.7510, 25934.00
423.9450, 25805.00
425.1390, 26035.00
426.3330, 26112.00
427.5270, 26098.00
428.7200, 25864.00
429.9130, 26192.00
431.1060, 26154.00
432.2990, 26195.00
433.4920, 26354.00
434.6840, 25965.00
435.8770, 26429.00
437.0690, 26173.00
438.2610, 26318.00
439.4530, 26275.00
440.6450, 26415.00
441.8360, 26366.00
443.0280, 26382.00
444.2190, 26552.00
445.4100, 26404.00
446.6010, 26345.00
447.7920, 26561.00
448.9820, 26514.00
450.1730, 26610.00
451.3630, 26654.00
452.5530, 26588.00
453.7430, 26732.00
454.9330, 26789.00
456.1230, 26701.00
457.3120, 26832.00
458.5010, 26688.00
459.6910, 26871.00
460.8800, 26755.00
462.0680, 26917.00
463.2570, 26996.00
464.4460, 26866.00
465.6340, 26892.00
466.8220, 26885.00
468.0100, 27026.00
469.1980, 27025.00
470.3860, 27268.00
471.5730, 27150.00
472.7600, 27052.00
473.9480, 27110.00
475.1350, 27136.00
476.3210, 27394.00
477.5080, 27263.00
478.6950, 27461.00
479.8810, 27355.00
481.0670, 27613.00
482.2530, 27462.00
483.4390, 27385.00
484.6250, 27365.00
485.8100, 27580.00
486.9960, 27386.00
488.1810, 27636.00
489.3660, 27817.00
490.5510, 27924.00
491.7360, 27678.00
492.9200, 27889.00
494.1050, 27991.00
495.2890, 27924.00
496.4730, 28017.00
497.6570, 28063.00
498.8400, 28117.00
500.0240, 28101.00
501.2070, 28015.00
502.3910, 28102.00
503.5740, 28067.00
504.7570, 28308.00
505.9400, 28082.00
507.1220, 28184.00
508.3050, 27961.00
509.4870, 28215.00
510.6690, 28278.00
511.8510, 28490.00
513.0330, 28204.00
514.2140, 28183.00
515.3960, 28285.00
516.5770, 28421.00
517.7580, 28392.00
518.9390, 28527.00
520.1200, 28442.00
521.3010, 28446.00
522.4810, 28444.00
523.6610, 28557.00
524.8420, 28605.00
526.0220, 28686.00
527.2010, 28639.00
528.3810, 28371.00
529.5610, 28533.00
530.7400, 28715.00
531.9190, 28806.00
533.0980, 28729.00
534.2770, 28658.00
535.4560, 28913.00
536.6340, 28718.00
537.8120, 28649.00
538.9910, 28865.00
540.1690, 29100.00
541.3460, 28970.00
542.5240, 28844.00
543.7020, 29052.00
544.8790, 29138.00
546.0560, 29195.00
547.2330, 29222.00
548.4100, 29310.00
549.5870, 29284.00
550.7630, 29400.00
551.9400, 29429.00
553.1160, 29300.00
554.2920, 29478.00
555.4680, 29584.00
556.6440, 29447.00
557.8190, 29771.00
558.9950, 29664.00
560.1700, 29652.00
561.3450, 29600.00
562.5200, 29432.00
563.6950, 29755.00
564.8690, 29685.00
566.0440, 29469.00
567.2180, 29682.00
568.3920, 29678.00
569.5660, 29692.00
570.7400, 29633.00
571.9130, 29831.00
573.0870, 29865.00
574.2600, 29985.00
575.4330, 29718.00
576.6060, 29773.00
577.7790, 29906.00
578.9520, 30035.00
580.1240, 29969.00
581.2960, 29989.00
582.4690, 29921.00
583.6410, 30118.00
584.8120, 30151.00
585.9840, 30213.00
587.1560, 30259.00
588.3270, 30363.00
589.4980, 30250.00
590.6690, 30330.00
591.8400, 30243.00
593.0110, 30258.07
594.1810, 30307.95
595.3510, 30345.11
596.5220, 30370.26
597.6920, 30347.36
598.8610, 30386.47
600.0310, 30400.75
601.2010, 30432.00
602.3700, 30489.00
603.5390, 30905.00
604.7080, 30557.00
605.8770, 30656.00
607.0460, 30858.00
608.2140, 30766.00
609.3830, 30753.00
610.5510, 30687.00
611.7190, 30814.00
612.8870, 30874.00
614.0550, 30918.00
615.2220, 31079.00
616.3900, 31050.00
617.5570, 31050.00
618.7240, 31101.00
619.8910, 31244.00
621.0580, 31208.00
622.2240, 31258.00
623.3910, 31160.00
624.5570, 31323.00
625.7230, 31379.00
626.8890, 31512.00
628.0550, 31531.00
629.2200, 31659.00
630.3860, 31458.00
631.5510, 31548.00
632.7160, 31831.00
633.8810, 31659.00
635.0460, 31587.00
636.2100, 31785.00
637.3750, 31764.00
638.5390, 31878.00
639.7030, 32160.00
640.8670, 32262.00
642.0310, 32182.00
643.1950, 32502.00
644.3580, 32416.00
645.5210, 32622.00
646.6850, 32900.00
647.8480, 33011.00
649.0100, 33452.00
650.1730, 33857.00
651.3350, 34142.00
652.4980, 34388.00
653.6600, 34861.00
654.8220, 35488.00
655.9840, 35859.00
657.1450, 35990.00
658.3070, 36553.00
659.4680, 36730.00
660.6300, 36482.00
661.7910, 36340.00
662.9510, 35965.00
664.1120, 35392.00
665.2730, 35042.00
666.4330, 34364.00
667.5930, 34352.00
668.7530, 33780.00
669.9130, 33586.00
671.0730, 33639.00
672.2320, 33254.00
673.3920, 33167.00
674.5510, 33204.00
675.7100, 33008.00
676.8690, 33065.00
678.0280, 32928.00
679.1860, 32829.00
680.3450, 33139.00
681.5030, 32735.00
682.6610, 33144.00
683.8190, 33132.00
684.9770, 33009.00
686.1340, 32974.00
687.2920, 33103.00
688.4490, 33094.00
689.6060, 32975.00
690.7630, 33063.00
691.9200, 32858.00
693.0760, 33161.00
694.2330, 33129.00
695.3890, 33030.00
696.5450, 33355.00
697.7010, 33299.00
698.8570, 33096.00
700.0130, 33320.00
701.1680, 33218.00
702.3230, 33489.00
703.4780, 33173.00
704.6330, 33672.00
705.7880, 33624.00
706.9430, 33429.00
708.0970, 33586.00
709.2520, 33597.00
710.4060, 33545.00
711.5600, 33606.00
712.7140, 33533.00
713.8670, 33542.00
715.0210, 33415.00
716.1740, 33403.00
717.3270, 33655.00
718.4800, 33539.00
719.6330, 33610.00
720.7860, 33704.00
721.9380, 33798.00
723.0910, 33849.00
724.2430, 33706.00
725.3950, 33876.00
726.5470, 34002.00
727.6980, 33923.00
728.8500, 33844.00
730.0010, 34045.00
731.1530, 34107.00
732.3040, 34066.00
733.4550, 34086.00
734.6050, 33935.00
735.7560, 34141.00
736.9060, 34277.00
738.0560, 34288.00
739.2060, 34246.00
740.3560, 34038.00
741.5060, 34453.00
742.6560, 34354.00
743.8050, 34366.00
744.9540, 34387.00
746.1030, 34530.00
747.2520, 34590.00
748.4010, 34462.00
749.5500, 34803.00
750.6980, 34656.00
751.8460, 34588.00
752.9950, 34841.00
754.1420, 35104.00
755.2900, 34701.00
756.4380, 35031.00
757.5850, 34835.00
758.7330, 34882.00
759.8800, 34847.00
761.0270, 34845.00
762.1730, 34829.00
763.3200, 35051.00
764.4670, 35243.00
765.6130, 35087.00
766.7590, 35028.00
767.9050, 35145.00
769.0510, 35276.00
770.1960, 34909.00
771.3420, 35374.00
772.4870, 35570.00
773.6320, 35322.00
774.7770, 35377.00
775.9220, 35496.00
777.0670, 35375.00
778.2110, 35489.00
779.3560, 35439.00
780.5000, 35420.00
781.6440, 35593.00
782.7880, 35566.00
783.9320, 35605.00
785.0750, 35718.00
786.2180, 35651.00
787.3620, 35740.00
788.5050, 35789.00
789.6480, 35799.00
790.7900, 35828.00
791.9330, 36013.00
793.0750, 35953.00
794.2170, 35926.00
795.3590, 36120.00
796.5010, 35959.00
797.6430, 36113.00
798.7850, 36096.00
799.9260, 35997.00
801.0670, 36282.00
802.2080, 36370.00
803.3490, 36250.00
804.4900, 36580.00
805.6310, 36353.00
806.7710, 36285.00
807.9110, 36236.00
809.0510, 36385.00
810.1910, 36406.00
811.3310, 36554.00
812.4710, 36447.00
813.6100, 36532.00
814.7490, 36504.00
815.8880, 36595.00
817.0270, 36584.00
818.1660, 36576.00
819.3050, 36816.00
820.4430, 36831.00
821.5820, 36831.00
822.7200, 36909.00
823.8580, 36961.00
824.9950, 36887.00
826.1330, 37124.00
827.2710, 37032.00
828.4080, 37250.00
829.5450, 37252.00
830.6820, 37052.00
831.8190, 37157.00
832.9560, 37410.00
834.0920, 37267.00
835.2280, 37061.00
836.3650, 37286.00
837.5010, 37148.00
838.6360, 37026.00
839.7720, 37544.00
840.9080, 37126.00
842.0430, 37235.00
843.1780, 37531.00
844.3130, 37714.00
845.4480, 37634.00
846.5830, 37701.00
847.7170, 37909.00
848.8520, 37803.00
849.9860, 38010.00
851.1200, 37958.00
852.2540, 38156.00
853.3870, 38213.00
854.5210, 38049.00
855.6540, 38221.00
856.7880, 38115.00
857.9210, 38250.00
859.0540, 38510.00
860.1860, 38121.00
861.3190, 38411.00
862.4510, 38104.00
863.5840, 37952.00
864.7160, 38159.00
865.8480, 38154.00
866.9790, 38414.00
868.1110, 38358.00
869.2420, 38439.00
870.3740, 38400.00
871.5050, 38453.00
872.6360, 38691.00
873.7660, 38770.00
874.8970, 38593.00
876.0280, 38539.00
877.1580, 38762.00
878.2880, 38730.00
879.4180, 38858.00
880.5480, 38779.00
881.6770, 38549.00
882.8070, 39069.00
883.9360, 38695.00
885.0650, 38972.00
886.1940, 38915.00
887.3230, 39056.00
888.4520, 39174.00
889.5800, 38942.00
890.7090, 39373.00
891.8370, 39125.00
892.9650, 39240.00
894.0930, 39273.00
895.2200, 39089.00
896.3480, 39197.00
897.4750, 39376.00
898.6020, 39017.00
899.7290, 39531.00
900.8560, 39533.00
901.9830, 39439.00
903.1090, 39480.00
904.2360, 39519.00
905.3620, 39674.00
906.4880, 39723.00
907.6140, 39814.00
908.7400, 39751.00
909.8650, 39791.00
910.9900, 39771.00
912.1160, 39773.00
913.2410, 39915.00
914.3660, 39838.00
915.4900, 39672.00
916.6150, 40033.00
917.7390, 40093.00
918.8640, 39925.00
919.9880, 40294.00
921.1120, 39879.00
922.2350, 40319.00
923.3590, 40046.00
924.4820, 40251.00
925.6060, 40172.00
926.7290, 40235.00
927.8520, 40301.00
928.9740, 40189.00
930.0970, 40454.00
931.2190, 40447.00
932.3420, 40222.00
933.4640, 40529.00
934.5860, 40418.00
935.7080, 40228.00
936.8290, 40441.00
937.9510, 40649.00
939.0720, 40822.00
940.1930, 40496.00
941.3140, 40794.00
942.4350, 40687.00
943.5560, 40957.00
944.6760, 40872.00
945.7960, 40685.00
946.9170, 40683.00
948.0370, 40636.00
949.1560, 40947.00
950.2760, 40909.00
951.3960, 41167.00
952.5150, 41103.00
953.6340, 41184.00
954.7530, 41263.00
955.8720, 40903.00
956.9910, 41235.00
958.1090, 41419.00
959.2280, 41228.00
960.3460, 41192.00
961.4640, 41569.00
962.5820, 41363.00
963.6990, 41594.00
964.8170, 41691.00
965.9340, 41573.00
967.0510, 41513.00
968.1690, 41549.00
969.2850, 41836.00
970.4020, 41605.00
971.5190, 41597.00
972.6350, 41588.00
973.7510, 41523.00
974.8670, 41519.00
975.9830, 42027.00
977.0990, 41815.00
978.2150, 41997.00
979.3300, 42004.00
980.4450, 41927.00
981.5600, 41968.00
982.6750, 42277.00
983.7900, 42271.00
984.9050, 42396.00
986.0190, 42357.00
987.1340, 42475.00
988.2480, 42667.00
989.3620, 42487.00
990.4750, 42351.00
991.5890, 42852.00
992.7020, 42868.00
993.8160, 43130.00
994.9290, 42988.00
996.0420, 43377.00
997.1550, 43201.00
998.2670, 43437.00
999.3800, 43557.00
1000.492, 44054.00
1001.604, 44568.00
1002.716, 44987.00
1003.828, 45767.00
1004.940, 46279.00
1006.051, 47460.00
1007.163, 48531.00
1008.274, 49138.00
1009.385, 49812.00
1010.496, 50600.00
1011.606, 50747.00
1012.717, 50335.00
1013.827, 50103.00
1014.937, 48679.00
1016.047, 47995.00
1017.157, 47104.00
1018.267, 46275.00
1019.377, 45808.00
1020.486, 45359.00
1021.595, 45245.00
1022.704, 44785.00
1023.813, 44482.00
1024.922, 44585.00
1026.030, 44652.00
1027.139, 44553.00
1028.247, 44329.00
1029.355, 44339.00
1030.463, 44559.00
1031.571, 44411.00
1032.678, 44468.00
1033.786, 44464.00
1034.893, 44191.00
1036.000, 44516.00
1037.107, 44381.00
1038.214, 44520.00
1039.321, 44393.00
1040.427, 44164.00
1041.533, 44217.00
1042.639, 44487.00
1043.745, 44290.00
1044.851, 44230.00
1045.957, 44062.00
1047.062, 44297.00
1048.168, 44447.00
1049.273, 44409.00
1050.378, 44448.00
1051.482, 44529.00
1052.587, 44336.00
1053.692, 44431.00
1054.796, 44495.00
1055.900, 44631.00
1057.004, 44753.00
1058.108, 44854.00
1059.212, 45013.00
1060.315, 45032.00
1061.418, 44858.00
1062.522, 44820.00
1063.625, 44819.00
1064.728, 44914.00
1065.830, 44863.00
1066.933, 45207.00
1068.035, 45233.00
1069.137, 45279.00
1070.239, 45220.00
1071.341, 45269.00
1072.443, 45420.00
1073.545, 45355.00
1074.646, 45529.00
1075.747, 45069.00
1076.848, 45215.00
1077.949, 45236.00
1079.050, 45192.00
1080.150, 45388.00
1081.251, 45503.00
1082.351, 45493.00
1083.451, 45656.00
1084.551, 45533.00
1085.651, 45602.00
1086.750, 45861.00
1087.850, 45767.00
1088.949, 45889.00
1090.048, 45869.00
1091.147, 45741.00
1092.246, 45869.00
1093.345, 45861.00
1094.443, 45833.00
1095.541, 45760.00
1096.639, 45702.00
1097.737, 45962.00
1098.835, 45913.00
1099.933, 46463.00
1101.030, 46212.00
1102.128, 46433.00
1103.225, 46367.00
1104.322, 46207.00
1105.419, 46412.00
1106.515, 46195.00
1107.612, 46361.00
1108.708, 46465.00
1109.804, 46429.00
1110.900, 46706.00
1111.996, 46553.00
1113.092, 46538.00
1114.187, 46554.00
1115.283, 46439.00
1116.378, 46649.00
1117.473, 46656.00
1118.568, 46816.00
1119.662, 46771.00
1120.757, 46900.00
1121.851, 46834.00
1122.946, 46707.00
1124.040, 47033.00
1125.134, 47023.00
1126.227, 46953.00
1127.321, 46919.00
1128.414, 47241.00
1129.508, 47124.00
1130.601, 46951.00
1131.693, 47023.00
1132.786, 47117.00
1133.879, 46993.00
1134.971, 47012.00
1136.064, 47189.00
1137.156, 47441.00
1138.248, 47129.00
1139.339, 47447.00
1140.431, 47710.00
1141.522, 47599.00
1142.614, 47507.00
1143.705, 47691.00
1144.796, 47731.00
1145.887, 47687.00
1146.977, 47780.00
1148.068, 47810.00
1149.158, 47751.00
1150.248, 47886.00
1151.338, 48196.00
1152.428, 47857.00
1153.518, 47945.00
1154.607, 48062.00
1155.696, 48096.00
1156.785, 48013.00
1157.874, 48224.00
1158.963, 47933.00
1160.052, 48161.00
1161.141, 48124.00
1162.229, 48224.00
1163.317, 48365.00
1164.405, 48186.00
1165.493, 48548.00
1166.581, 48311.00
1167.668, 48087.00
1168.756, 48707.00
1169.843, 48346.00
1170.930, 48763.00
1172.017, 48386.00
1173.103, 48643.00
1174.190, 48776.00
1175.276, 48854.00
1176.363, 48511.00
1177.449, 48756.00
1178.535, 48485.00
1179.620, 48716.00
1180.706, 48880.00
1181.791, 49228.00
1182.877, 48838.00
1183.962, 48975.00
1185.047, 48980.00
1186.131, 49090.00
1187.216, 49230.00
1188.300, 48946.00
1189.385, 49485.00
1190.469, 49637.00
1191.553, 49418.00
1192.637, 49413.00
1193.720, 49363.00
1194.804, 49541.00
1195.887, 49297.00
1196.970, 49472.00
1198.053, 49401.00
1199.136, 49679.00
1200.219, 49762.00
1201.301, 49882.00
1202.383, 49643.00
1203.465, 49923.00
1204.547, 50015.00
1205.629, 49756.00
1206.711, 49636.00
1207.792, 49999.00
1208.874, 49831.00
1209.955, 49936.00
1211.036, 49902.00
1212.117, 50310.00
1213.198, 49923.00
1214.278, 50070.00
1215.359, 50169.00
1216.439, 50175.00
1217.519, 50333.00
1218.599, 50462.00
1219.678, 50481.00
1220.758, 50542.00
1221.837, 50349.00
1222.917, 50609.00
1223.996, 50538.00
1225.075, 50466.00
1226.153, 50349.00
1227.232, 50695.00
1228.310, 50540.00
1229.389, 50858.00
1230.467, 50784.00
1231.545, 50842.00
1232.622, 51087.00
1233.700, 50901.00
1234.777, 51299.00
1235.855, 51147.00
1236.932, 51098.00
1238.009, 51163.00
1239.086, 51375.00
1240.162, 51011.00
1241.239, 51340.00
1242.315, 51313.00
1243.391, 50995.00
1244.467, 51326.00
1245.543, 51201.00
1246.619, 51399.00
1247.694, 51526.00
1248.769, 51392.00
1249.844, 51714.00
1250.919, 51559.00
1251.994, 51444.00
1253.069, 51719.00
1254.144, 51498.00
1255.218, 51871.00
1256.292, 51700.00
1257.366, 51691.00
1258.440, 51975.00
1259.514, 52041.00
1260.587, 51977.00
1261.661, 51999.00
1262.734, 51847.00
1263.807, 51972.00
1264.880, 51791.00
1265.952, 52001.00
1267.025, 52140.00
1268.097, 51963.00
1269.170, 52191.00
1270.242, 52305.00
1271.314, 52310.00
1272.385, 52200.00
1273.457, 52345.00
1274.528, 52578.00
1275.600, 52471.00
1276.671, 52464.00
1277.742, 52423.00
1278.812, 52743.00
1279.883, 52308.00
1280.954, 52785.00
1282.024, 52534.00
1283.094, 52605.00
1284.164, 52797.00
1285.234, 52812.00
1286.303, 52908.00
1287.373, 53035.00
1288.442, 52768.00
1289.511, 52976.00
1290.580, 52715.00
1291.649, 53190.00
1292.718, 53002.00
1293.786, 52992.00
1294.855, 53185.00
1295.923, 53066.00
1296.991, 53337.00
1298.059, 53347.00
1299.126, 53458.00
1300.194, 53261.00
1301.261, 53721.00
1302.328, 53183.00
1303.395, 53310.00
1304.462, 53435.00
1305.529, 53628.00
1306.596, 53346.00
1307.662, 53487.00
1308.728, 53597.00
1309.794, 53772.00
1310.860, 53765.00
1311.926, 53883.00
1312.991, 53854.00
1314.057, 54057.00
1315.122, 54240.00
1316.187, 54295.00
1317.252, 54032.00
1318.317, 53957.00
1319.381, 54192.00
1320.446, 54264.00
1321.510, 54287.00
1322.574, 54338.00
1323.638, 54700.00
1324.702, 54627.00
1325.766, 54431.00
1326.829, 54884.00
1327.892, 54574.00
1328.956, 54607.00
1330.019, 54397.00
1331.081, 54591.00
1332.144, 54530.00
1333.206, 54434.00
1334.269, 54752.00
1335.331, 54664.00
1336.393, 54743.00
1337.455, 55104.00
1338.516, 54711.00
1339.578, 54919.00
1340.639, 55072.00
1341.701, 54973.00
1342.762, 54896.00
1343.822, 54807.00
1344.883, 55185.00
1345.944, 54951.00
1347.004, 55082.00
1348.064, 55625.00
1349.124, 55249.00
1350.184, 55289.00
1351.244, 55584.00
1352.304, 55600.00
1353.363, 55238.00
1354.422, 55515.00
1355.481, 55593.00
1356.540, 55665.00
1357.599, 55500.00
1358.657, 55548.00
1359.716, 55600.00
1360.774, 55324.00
1361.832, 55732.00
1362.890, 55350.00
1363.948, 55513.00
1365.006, 55907.00
1366.063, 56185.00
1367.120, 56227.00
1368.178, 56154.00
1369.234, 55979.00
1370.291, 56294.00
1371.348, 55875.00
1372.404, 56135.00
1373.461, 56047.00
1374.517, 56306.00
1375.573, 56249.00
1376.629, 56261.00
1377.684, 56174.00
1378.740, 56592.00
1379.795, 56271.00
1380.850, 56675.00
1381.905, 56312.00
1382.960, 56517.00
1384.015, 56662.00
1385.070, 56808.00
1386.124, 56521.00
1387.178, 56643.00
1388.232, 56526.00
1389.286, 56635.00
1390.340, 56664.00
1391.393, 56822.00
1392.447, 56643.00
1393.500, 56688.00
1394.553, 56743.00
1395.606, 56727.00
1396.659, 56870.00
1397.711, 56942.00
1398.764, 56917.00
1399.816, 56856.00
1400.868, 56842.00
1401.920, 57344.00
1402.972, 57156.00
1404.023, 57237.00
1405.075, 57271.00
1406.126, 56944.00
1407.177, 57118.00
1408.228, 57299.00
1409.279, 57282.00
1410.330, 57226.00
1411.380, 57205.00
1412.431, 57360.00
1413.481, 57176.00
1414.531, 57360.00
1415.580, 57415.00
1416.630, 57323.00
1417.680, 57494.00
1418.729, 57585.00
1419.778, 57767.00
1420.827, 57653.00
1421.876, 57968.00
1422.925, 57761.00
1423.973, 57839.00
1425.022, 57774.00
1426.070, 57873.00
1427.118, 57913.00
1428.166, 58116.00
1429.214, 58022.00
1430.261, 57955.00
1431.309, 58108.00
1432.356, 58034.00
1433.403, 58161.00
1434.450, 58027.00
1435.497, 58219.00
1436.543, 58505.00
1437.590, 58168.00
1438.636, 58468.00
1439.682, 58213.00
1440.728, 58287.00
1441.774, 58391.00
1442.819, 58625.00
1443.865, 58915.00
1444.910, 58763.00
1445.955, 58785.00
1447.000, 59035.00
1448.045, 58777.00
1449.090, 58755.00
1450.134, 59070.00
1451.178, 59018.00
1452.223, 58691.00
1453.267, 58825.00
1454.310, 58826.00
1455.354, 58910.00
1456.398, 58937.00
1457.441, 58959.00
1458.484, 59157.00
1459.527, 59195.00
1460.570, 59509.00
1461.613, 59453.00
1462.655, 59074.00
1463.698, 59436.00
1464.740, 59467.00
1465.782, 59211.00
1466.824, 59764.00
1467.866, 59380.00
1468.907, 59432.00
1469.948, 59544.00
1470.990, 59466.00
1472.031, 59765.00
1473.072, 59623.00
1474.112, 59625.00
1475.153, 59322.00
1476.194, 59534.00
1477.234, 59673.00
1478.274, 59656.00
1479.314, 59804.00
1480.354, 59737.00
1481.393, 59526.00
1482.433, 59612.00
1483.472, 59895.00
1484.511, 59986.00
1485.550, 60080.00
1486.589, 60340.00
1487.628, 59892.00
1488.666, 60219.00
1489.704, 60251.00
1490.743, 60140.00
1491.781, 60220.00
1492.819, 60342.00
1493.856, 60315.00
1494.894, 60355.00
1495.931, 60482.00
1496.968, 60655.00
1498.005, 60769.00
1499.042, 60524.00
1500.079, 60481.00
1501.115, 60320.00
1502.152, 60989.00
1503.188, 60665.00
1504.224, 60709.00
1505.260, 60702.00
1506.296, 60570.00
1507.331, 60892.00
1508.367, 60996.00
1509.402, 60955.00
1510.437, 60827.00
1511.472, 61277.00
1512.507, 61009.00
1513.541, 61164.00
1514.576, 61060.00
1515.610, 61078.00
1516.644, 61301.00
1517.678, 60984.00
1518.712, 61222.00
1519.746, 61146.00
1520.779, 61033.00
1521.813, 61436.00
1522.846, 61473.00
1523.879, 61384.00
1524.912, 61406.00
1525.944, 61619.00
1526.977, 61561.00
1528.009, 61671.00
1529.041, 61671.00
1530.073, 61755.00
1531.105, 61486.00
1532.137, 61586.00
1533.168, 61730.00
1534.200, 61708.00
1535.231, 61825.00
1536.262, 61966.00
1537.293, 61894.00
1538.324, 62158.00
1539.354, 61923.00
1540.385, 61977.00
1541.415, 62112.00
1542.445, 62060.00
1543.475, 61993.00
1544.505, 61860.00
1545.534, 61787.00
1546.564, 62158.00
1547.593, 62160.00
1548.622, 62616.00
1549.651, 62322.00
1550.680, 62073.00
1551.708, 62261.00
1552.737, 61871.00
1553.765, 62580.00
1554.793, 62594.00
1555.821, 62371.00
1556.849, 62365.00
1557.877, 62272.00
1558.904, 62499.00
1559.932, 62327.00
1560.959, 62252.00
1561.986, 62279.00
1563.013, 62709.00
1564.039, 63158.00
1565.066, 62621.00
1566.092, 62446.00
1567.119, 62449.00
1568.145, 62597.00
1569.170, 62640.00
1570.196, 62786.00
1571.222, 62447.00
1572.247, 62754.00
1573.272, 62842.00
1574.297, 62743.00
1575.322, 63030.00
##END=



