##NAMES=Helvine
##RRUFFID=R060059
##IDEAL CHEMISTRY=Mn^2+^_4_(BeSiO_4_)_3_S^2-^
##LOCALITY=Schwarzenberg, Saxony, Germany
##OWNER=RRUFF
##SOURCE=University of Arizona Mineral Museum
##DESCRIPTION=Yellow-tan colored tetrahedra
##STATUS=The identification of this mineral has been confirmed by X-ray diffraction and chemical analysis
##URL=rruff.info/R060059
##MEASURED CHEMISTRY=(Mn^2+^_2.93_Fe^2+^_0.48_Zn_0.35_Ca_0.15_Fe^3+^_0.09_)_Σ=4_Be_3.00_((Si_0.97_Al_0.03_)_Σ=1_O_4_)_3_S_1.00_; BeO assumed by stoichiometry
##PIN_ID=M00669
##ORIENTATION=Laser parallel to -a* (-1 0 0). Fiducial mark perpendicular to laser is parallel to -c [0 0 -1]
93.28600, 30241.00
94.52300, 30437.00
95.75900, 29971.00
96.99500, 29840.00
98.23100, 30034.00
99.46700, 30424.01
100.7030, 31177.00
101.9390, 31913.00
103.1740, 33373.00
104.4090, 34425.00
105.6440, 34926.00
106.8790, 34688.00
108.1140, 34867.00
109.3490, 34909.00
110.5830, 35449.00
111.8180, 36077.00
113.0520, 36079.00
114.2860, 37370.00
115.5200, 39059.00
116.7530, 39786.00
117.9870, 40601.00
119.2200, 41403.00
120.4530, 41981.00
121.6860, 42027.00
122.9190, 42374.00
124.1520, 43473.00
125.3850, 44631.00
126.6170, 45950.00
127.8490, 46626.00
129.0810, 47331.00
130.3130, 46690.00
131.5450, 45865.00
132.7770, 44610.00
134.0080, 43303.00
135.2390, 41755.00
136.4710, 40429.00
137.7020, 39208.00
138.9320, 38365.00
140.1630, 37721.00
141.3930, 37224.00
142.6240, 36513.00
143.8540, 35955.00
145.0840, 35186.00
146.3140, 35100.00
147.5440, 35389.00
148.7730, 35564.00
150.0020, 36078.00
151.2320, 36589.00
152.4610, 37683.00
153.6900, 38465.00
154.9180, 39797.00
156.1470, 41433.00
157.3750, 42654.00
158.6040, 44873.00
159.8320, 46988.00
161.0600, 49754.00
162.2870, 53294.00
163.5150, 57490.00
164.7420, 62112.00
165.9700, 67881.00
167.1970, 74373.00
168.4240, 81730.00
169.6510, 88784.00
170.8770, 94979.00
172.1040, 99530.00
173.3300, 102420.0
174.5560, 102609.0
175.7820, 99737.00
177.0080, 94741.00
178.2340, 86544.00
179.4590, 76632.00
180.6850, 65908.00
181.9100, 56770.00
183.1350, 49136.00
184.3600, 43271.00
185.5850, 39942.00
186.8090, 37161.00
188.0340, 35341.00
189.2580, 34053.00
190.4820, 33236.00
191.7060, 32847.00
192.9300, 32351.00
194.1530, 32041.00
195.3770, 31333.00
196.6000, 30905.00
197.8230, 29866.00
199.0460, 28873.00
200.2690, 28081.00
201.4910, 26701.00
202.7140, 25764.00
203.9360, 24877.00
205.1580, 24105.00
206.3800, 23507.00
207.6020, 23047.00
208.8240, 22653.00
210.0450, 22127.00
211.2670, 21525.00
212.4880, 21578.00
213.7090, 21510.00
214.9300, 21476.00
216.1510, 21677.00
217.3710, 21680.00
218.5920, 21549.00
219.8120, 21467.00
221.0320, 21452.00
222.2520, 21655.00
223.4720, 21671.00
224.6910, 22033.00
225.9110, 22216.00
227.1300, 22572.00
228.3490, 23011.00
229.5680, 23246.00
230.7870, 23688.00
232.0050, 24245.00
233.2240, 24868.00
234.4420, 25263.00
235.6600, 25662.00
236.8780, 25812.00
238.0960, 26101.00
239.3140, 26140.00
240.5310, 26080.00
241.7490, 26320.00
242.9660, 25967.00
244.1830, 25668.00
245.4000, 24989.00
246.6160, 24617.00
247.8330, 24170.00
249.0490, 23449.00
250.2660, 23342.00
251.4820, 22836.00
252.6980, 22156.00
253.9130, 22126.00
255.1290, 22125.00
256.3440, 22201.00
257.5600, 21673.00
258.7750, 21525.00
259.9900, 21586.00
261.2040, 21903.00
262.4190, 21783.00
263.6330, 22058.00
264.8480, 22576.00
266.0620, 22547.00
267.2760, 22712.00
268.4900, 23028.00
269.7030, 23105.00
270.9170, 23452.00
272.1300, 23825.00
273.3430, 24141.00
274.5560, 24274.00
275.7690, 24504.00
276.9820, 24730.00
278.1940, 25132.00
279.4070, 25763.00
280.6190, 26044.00
281.8310, 26339.00
283.0430, 26878.00
284.2550, 26853.00
285.4660, 27212.00
286.6770, 27512.00
287.8890, 27804.00
289.1000, 28003.00
290.3110, 28056.00
291.5210, 28164.00
292.7320, 28330.43
293.9420, 28501.00
295.1530, 28596.00
296.3630, 29016.00
297.5730, 29087.00
298.7830, 29437.68
299.9920, 29909.00
301.2020, 29946.00
302.4110, 30404.00
303.6200, 30383.00
304.8290, 30311.00
306.0380, 29560.00
307.2470, 29299.00
308.4550, 28307.00
309.6630, 27506.00
310.8720, 26314.00
312.0800, 25361.00
313.2880, 24810.00
314.4950, 23808.00
315.7030, 23177.00
316.9100, 22598.00
318.1170, 22225.00
319.3240, 21752.00
320.5310, 21340.00
321.7380, 21041.81
322.9450, 20759.51
324.1510, 20504.00
325.3570, 20374.00
326.5630, 20195.00
327.7690, 20050.00
328.9750, 19871.00
330.1810, 19688.00
331.3860, 19624.00
332.5910, 19527.00
333.7960, 19328.00
335.0010, 19425.00
336.2060, 19394.79
337.4110, 19298.98
338.6150, 19484.00
339.8200, 19207.00
341.0240, 19128.00
342.2280, 19178.00
343.4320, 19165.00
344.6350, 19001.00
345.8390, 18950.00
347.0420, 19102.00
348.2450, 18985.00
349.4480, 18997.00
350.6510, 18770.00
351.8540, 19095.00
353.0560, 18890.00
354.2590, 19232.00
355.4610, 19258.00
356.6630, 19281.00
357.8650, 19498.00
359.0670, 19457.00
360.2680, 19623.00
361.4700, 19471.00
362.6710, 19516.00
363.8720, 19341.00
365.0730, 19260.00
366.2740, 19255.00
367.4740, 19017.00
368.6750, 19069.00
369.8750, 19120.00
371.0750, 18909.00
372.2750, 18783.00
373.4750, 18742.00
374.6740, 18887.00
375.8740, 18559.00
377.0730, 18573.00
378.2720, 18641.00
379.4710, 18403.00
380.6700, 18643.00
381.8690, 18452.00
383.0670, 18528.00
384.2660, 18503.00
385.4640, 18493.00
386.6620, 18669.00
387.8600, 18377.00
389.0570, 18350.00
390.2550, 18525.00
391.4520, 18545.00
392.6490, 18516.00
393.8460, 18469.00
395.0430, 18361.00
396.2400, 18487.00
397.4370, 18465.00
398.6330, 18673.00
399.8290, 18464.00
401.0250, 18481.00
402.2210, 18489.00
403.4170, 18609.00
404.6130, 18681.00
405.8080, 18691.00
407.0030, 18795.00
408.1980, 18681.00
409.3930, 18693.00
410.5880, 18538.00
411.7830, 18458.00
412.9770, 18494.00
414.1720, 18387.00
415.3660, 18472.00
416.5600, 18498.00
417.7530, 18539.00
418.9470, 18487.78
420.1410, 18584.00
421.3340, 18396.00
422.5270, 18283.00
423.7200, 18359.00
424.9130, 18550.00
426.1060, 18730.00
427.2980, 18736.00
428.4900, 18938.00
429.6830, 19085.00
430.8750, 19595.00
432.0670, 19867.00
433.2580, 20362.00
434.4500, 20787.00
435.6410, 21498.00
436.8320, 22194.00
438.0240, 22799.00
439.2140, 23842.00
440.4050, 24721.00
441.5960, 24950.00
442.7860, 25411.00
443.9760, 25391.00
445.1670, 24923.00
446.3560, 24047.00
447.5460, 23196.00
448.7360, 21793.00
449.9250, 20914.00
451.1150, 20013.00
452.3040, 19384.00
453.4930, 18788.00
454.6810, 18716.00
455.8700, 18254.00
457.0590, 18248.00
458.2470, 18116.00
459.4350, 17917.00
460.6230, 17846.00
461.8110, 17670.00
462.9980, 17736.00
464.1860, 17527.00
465.3730, 17661.00
466.5600, 17601.00
467.7470, 17412.00
468.9340, 17570.00
470.1210, 17378.00
471.3080, 17138.00
472.4940, 17300.00
473.6800, 17268.00
474.8660, 17387.00
476.0520, 17380.00
477.2380, 17433.00
478.4230, 17482.00
479.6090, 17343.00
480.7940, 17449.00
481.9790, 17369.00
483.1640, 17458.00
484.3490, 17446.00
485.5330, 17495.00
486.7180, 17477.00
487.9020, 17366.00
489.0860, 17540.00
490.2700, 17615.00
491.4540, 17580.00
492.6370, 17445.00
493.8210, 17595.00
495.0040, 17567.00
496.1870, 17666.00
497.3700, 17817.00
498.5530, 17929.00
499.7360, 17811.00
500.9180, 18051.00
502.1000, 18166.00
503.2830, 18065.00
504.4650, 18170.00
505.6460, 18254.00
506.8280, 18210.00
508.0100, 18335.00
509.1910, 18524.00
510.3720, 18656.00
511.5530, 18916.00
512.7340, 18791.00
513.9150, 19009.00
515.0950, 19290.00
516.2760, 19569.00
517.4560, 19930.00
518.6360, 20221.00
519.8160, 20581.15
520.9950, 20807.00
522.1750, 21327.00
523.3540, 21666.00
524.5340, 22086.00
525.7130, 22615.00
526.8920, 22949.00
528.0700, 23258.00
529.2490, 23618.00
530.4270, 24160.00
531.6060, 24256.00
532.7840, 24587.00
533.9620, 24537.00
535.1390, 24458.00
536.3170, 24246.00
537.4940, 24128.00
538.6720, 23839.00
539.8490, 23638.00
541.0260, 23467.00
542.2030, 23167.00
543.3790, 23087.00
544.5560, 22943.00
545.7320, 22962.00
546.9080, 22846.00
548.0840, 23280.00
549.2600, 23284.00
550.4360, 23376.00
551.6110, 24127.00
552.7860, 24259.00
553.9620, 24910.00
555.1370, 25280.00
556.3110, 25438.00
557.4860, 26166.00
558.6610, 26492.00
559.8350, 27207.00
561.0090, 27854.00
562.1830, 28129.00
563.3570, 28598.00
564.5310, 28661.00
565.7040, 28623.00
566.8780, 28622.00
568.0510, 28552.00
569.2240, 28011.00
570.3970, 27713.00
571.5700, 27647.00
572.7420, 27083.00
573.9150, 27147.00
575.0870, 26658.00
576.2590, 26470.00
577.4310, 26059.00
578.6030, 25839.00
579.7740, 25618.00
580.9460, 25149.00
582.1170, 24727.00
583.2880, 24193.00
584.4590, 23690.00
585.6300, 23276.00
586.8010, 22730.00
587.9710, 22326.00
589.1410, 22158.00
590.3110, 21649.00
591.4810, 21322.00
592.6510, 21268.00
593.8210, 21270.00
594.9900, 21096.00
596.1600, 20955.00
597.3290, 20975.00
598.4980, 20691.00
599.6670, 20896.00
600.8350, 20978.00
602.0040, 20838.00
603.1720, 20982.00
604.3400, 20827.19
605.5080, 20665.00
606.6760, 20530.00
607.8440, 20442.00
609.0120, 20198.00
610.1790, 20101.00
611.3460, 20203.00
612.5130, 19919.00
613.6800, 19761.00
614.8470, 19647.00
616.0130, 19857.00
617.1800, 19598.43
618.3460, 19547.00
619.5120, 19308.00
620.6780, 19281.00
621.8440, 19133.00
623.0090, 19019.00
624.1750, 19049.00
625.3400, 19033.00
626.5050, 18811.00
627.6700, 18701.33
628.8350, 18786.00
629.9990, 18236.00
631.1640, 17923.00
632.3280, 17598.00
633.4920, 17518.00
634.6560, 17336.00
635.8200, 17259.00
636.9840, 17195.00
638.1470, 17086.00
639.3100, 16891.00
640.4730, 16859.00
641.6360, 16831.00
642.7990, 16769.00
643.9620, 16848.00
645.1240, 16775.00
646.2870, 16807.00
647.4490, 16977.00
648.6110, 17054.00
649.7730, 17054.00
650.9340, 17117.00
652.0960, 17212.00
653.2570, 17381.00
654.4180, 17649.00
655.5790, 17845.00
656.7400, 18032.44
657.9010, 18142.00
659.0620, 18388.00
660.2220, 18526.00
661.3820, 18675.00
662.5420, 18892.00
663.7020, 19443.00
664.8620, 19528.45
666.0210, 19732.80
667.1810, 19956.00
668.3400, 20109.00
669.4990, 20312.00
670.6580, 20888.00
671.8170, 21317.00
672.9750, 21840.00
674.1340, 22301.00
675.2920, 22623.00
676.4500, 22814.00
677.6080, 22576.00
678.7660, 22514.00
679.9230, 22161.00
681.0810, 21806.00
682.2380, 20898.00
683.3950, 20423.00
684.5520, 20120.00
685.7090, 19587.00
686.8660, 19203.00
688.0220, 18787.00
689.1780, 18764.00
690.3340, 18317.00
691.4900, 18326.00
692.6460, 18213.00
693.8020, 18111.00
694.9570, 17914.00
696.1130, 17910.00
697.2680, 17955.00
698.4230, 17695.00
699.5780, 17831.00
700.7320, 17748.00
701.8870, 17762.00
703.0410, 17658.00
704.1950, 17836.00
705.3490, 17770.00
706.5030, 17570.00
707.6570, 17817.00
708.8110, 17805.00
709.9640, 17736.00
711.1170, 17857.00
712.2700, 17895.00
713.4230, 17767.00
714.5760, 17746.00
715.7280, 17911.00
716.8810, 17844.00
718.0330, 17843.00
719.1850, 17886.00
720.3370, 17951.00
721.4890, 17899.00
722.6400, 17871.00
723.7920, 17726.00
724.9430, 17647.00
726.0940, 17754.00
727.2450, 17704.00
728.3960, 17742.00
729.5460, 17677.00
730.6970, 17543.00
731.8470, 17490.00
732.9970, 17866.00
734.1470, 17738.00
735.2970, 17775.00
736.4460, 17794.00
737.5960, 17673.00
738.7450, 17628.00
739.8940, 17865.00
741.0430, 17793.00
742.1920, 17866.00
743.3410, 17859.00
744.4890, 17864.00
745.6370, 17841.00
746.7850, 17882.00
747.9330, 17837.61
749.0810, 17931.00
750.2290, 17787.00
751.3760, 17795.00
752.5240, 17805.00
753.6710, 17643.00
754.8180, 17689.00
755.9650, 17568.00
757.1110, 17628.00
758.2580, 17584.00
759.4040, 17514.00
760.5510, 17683.00
761.6970, 17727.00
762.8420, 17490.00
763.9880, 17660.00
765.1340, 17791.00
766.2790, 17521.00
767.4240, 17668.00
768.5690, 17744.00
769.7140, 17557.00
770.8590, 17539.00
772.0030, 17604.00
773.1480, 17349.00
774.2920, 17508.00
775.4360, 17553.00
776.5800, 17629.00
777.7240, 17489.00
778.8670, 17536.00
780.0110, 17547.00
781.1540, 17489.00
782.2970, 17616.00
783.4400, 17434.00
784.5830, 17548.00
785.7250, 17466.00
786.8680, 17386.00
788.0100, 17427.00
789.1520, 17600.00
790.2940, 17387.00
791.4360, 17715.00
792.5780, 17648.00
793.7190, 17533.00
794.8600, 17485.00
796.0010, 17605.00
797.1420, 17544.00
798.2830, 17605.00
799.4240, 17584.00
800.5640, 17552.00
801.7050, 17633.00
802.8450, 17694.00
803.9850, 17716.00
805.1250, 17596.00
806.2640, 17609.00
807.4040, 17584.00
808.5430, 17680.00
809.6820, 17726.00
810.8210, 17656.00
811.9600, 17673.00
813.0990, 17674.43
814.2370, 17695.00
815.3760, 17720.00
816.5140, 17745.00
817.6520, 17850.00
818.7900, 17952.00
819.9270, 17968.00
821.0650, 18100.00
822.2020, 17815.00
823.3390, 18071.00
824.4760, 18108.00
825.6130, 18116.00
826.7500, 18390.00
827.8870, 18251.00
829.0230, 18393.00
830.1590, 18238.00
831.2950, 18202.00
832.4310, 18697.00
833.5670, 18694.00
834.7030, 18836.00
835.8380, 18742.00
836.9730, 18877.00
838.1080, 18968.95
839.2430, 19034.07
840.3780, 19153.00
841.5130, 19340.00
842.6470, 19311.00
843.7810, 19607.00
844.9150, 19592.00
846.0490, 19816.00
847.1830, 19907.00
848.3170, 20055.14
849.4500, 20303.00
850.5830, 20427.00
851.7160, 20662.00
852.8490, 20926.00
853.9820, 21206.00
855.1150, 21474.00
856.2470, 21776.00
857.3800, 22227.00
858.5120, 22336.00
859.6440, 23057.00
860.7760, 23360.00
861.9070, 23703.00
863.0390, 24400.00
864.1700, 25129.00
865.3010, 25879.00
866.4320, 26619.00
867.5630, 27742.00
868.6940, 28761.00
869.8240, 30177.00
870.9540, 31768.00
872.0850, 33498.00
873.2150, 35750.00
874.3450, 38433.00
875.4740, 41933.00
876.6040, 45428.00
877.7330, 50157.00
878.8620, 55913.00
879.9910, 63100.00
881.1200, 71301.00
882.2490, 81311.00
883.3770, 92796.00
884.5060, 105628.0
885.6340, 119838.0
886.7620, 134601.0
887.8900, 149030.0
889.0180, 161511.0
890.1450, 172220.0
891.2730, 178749.0
892.4000, 180718.0
893.5270, 179148.0
894.6540, 173678.0
895.7810, 165240.0
896.9070, 155150.0
898.0340, 143965.0
899.1600, 131777.0
900.2860, 120729.0
901.4120, 110455.0
902.5380, 99880.00
903.6630, 91085.00
904.7890, 83144.00
905.9140, 75901.00
907.0390, 69850.00
908.1640, 64315.00
909.2890, 59580.00
910.4130, 55660.00
911.5380, 52140.00
912.6620, 49024.00
913.7860, 46082.00
914.9100, 43569.00
916.0340, 41433.00
917.1580, 39235.00
918.2810, 37584.00
919.4040, 36008.00
920.5280, 34646.00
921.6510, 33269.00
922.7730, 32167.00
923.8960, 31598.00
925.0180, 30600.00
926.1410, 29807.00
927.2630, 29015.00
928.3850, 28245.00
929.5070, 28042.00
930.6280, 27745.00
931.7500, 27095.00
932.8710, 26629.00
933.9920, 26537.00
935.1130, 26413.00
936.2340, 25897.00
937.3550, 25847.00
938.4760, 25911.00
939.5960, 25745.00
940.7160, 25525.00
941.8360, 25323.00
942.9560, 25059.00
944.0760, 24773.00
945.1950, 24264.00
946.3150, 23983.00
947.4340, 23554.00
948.5530, 23359.00
949.6720, 22832.00
950.7900, 22392.00
951.9090, 22367.00
953.0270, 22126.00
954.1460, 21891.00
955.2640, 21863.00
956.3820, 21676.00
957.4990, 21400.00
958.6170, 21320.00
959.7340, 21259.00
960.8520, 21186.00
961.9690, 21087.00
963.0860, 21027.00
964.2020, 21050.00
965.3190, 20919.00
966.4350, 21056.00
967.5520, 21103.00
968.6680, 21275.00
969.7840, 21486.00
970.8990, 21485.00
972.0150, 21728.00
973.1310, 21771.00
974.2460, 21764.00
975.3610, 21686.00
976.4760, 21415.00
977.5910, 21349.00
978.7050, 21085.00
979.8200, 21081.00
980.9340, 20678.00
982.0480, 20688.00
983.1620, 20546.00
984.2760, 20501.00
985.3900, 20702.00
986.5030, 20707.00
987.6160, 20829.00
988.7300, 20700.00
989.8430, 20717.00
990.9550, 20794.00
992.0680, 20786.00
993.1810, 20841.63
994.2930, 20913.00
995.4050, 20943.00
996.5170, 20806.00
997.6290, 20881.00
998.7410, 20948.00
999.8520, 21087.00
1000.964, 21167.00
1002.075, 21258.00
1003.186, 21367.92
1004.297, 21319.00
1005.407, 21548.00
1006.518, 21688.00
1007.628, 21747.00
1008.738, 22006.00
1009.848, 22276.00
1010.958, 22526.00
1012.068, 22755.00
1013.178, 23047.00
1014.287, 23231.99
1015.396, 23460.00
1016.505, 23587.00
1017.614, 23695.00
1018.723, 23787.00
1019.831, 23845.00
1020.940, 23657.00
1022.048, 23441.00
1023.156, 23242.00
1024.264, 22868.00
1025.372, 22747.00
1026.479, 22375.00
1027.587, 22158.00
1028.694, 21854.00
1029.801, 21570.00
1030.908, 21248.00
1032.015, 21092.00
1033.121, 21040.00
1034.228, 20704.00
1035.334, 20652.00
1036.440, 20518.00
1037.546, 20420.00
1038.652, 20220.00
1039.758, 20287.00
1040.863, 20057.00
1041.968, 20192.00
1043.074, 20004.00
1044.178, 19948.00
1045.283, 20012.00
1046.388, 19874.00
1047.492, 19858.00
1048.597, 19613.00
1049.701, 19587.00
1050.805, 19643.00
1051.909, 19660.00
1053.012, 19504.00
1054.116, 19446.00
1055.219, 19287.00
1056.322, 19242.00
1057.425, 19226.00
1058.528, 19163.00
1059.631, 19111.00
1060.733, 19071.00
1061.836, 19103.00
1062.938, 19088.00
1064.040, 19121.00
1065.142, 19110.00
1066.243, 18997.00
1067.345, 18988.00
1068.446, 18944.00
1069.547, 18912.00
1070.648, 18844.00
1071.749, 18797.00
1072.850, 18600.00
1073.951, 18723.00
1075.051, 18612.00
1076.151, 18723.00
1077.251, 18814.00
1078.351, 18732.00
1079.451, 18764.70
1080.550, 18694.00
1081.650, 18670.00
1082.749, 18659.00
1083.848, 18606.00
1084.947, 18470.00
1086.046, 18498.00
1087.144, 18408.00
1088.243, 18392.00
1089.341, 18457.00
1090.439, 18359.00
1091.537, 18211.00
1092.635, 18420.00
1093.732, 18297.00
1094.830, 18202.00
1095.927, 18308.00
1097.024, 18273.00
1098.121, 18447.00
1099.218, 18243.00
1100.314, 18401.00
1101.411, 18264.00
1102.507, 18258.00
1103.603, 18327.00
1104.699, 18475.00
1105.795, 18293.00
1106.890, 18393.00
1107.986, 18577.00
1109.081, 18437.00
1110.176, 18350.00
1111.271, 18425.00
1112.366, 18435.00
1113.461, 18486.00
1114.555, 18543.00
1115.649, 18464.00
1116.744, 18531.00
1117.838, 18460.00
1118.931, 18534.00
1120.025, 18594.00
1121.119, 18708.00
1122.212, 18683.00
1123.305, 18516.00
1124.398, 18678.00
1125.491, 18613.00
1126.584, 18727.00
1127.676, 18442.00
1128.768, 18576.00
1129.861, 18541.00
1130.953, 18527.00
1132.044, 18547.00
1133.136, 18485.00
1134.228, 18464.00
1135.319, 18556.00
1136.410, 18573.00
1137.501, 18673.00
1138.592, 18449.00
1139.683, 18534.00
1140.773, 18530.00
1141.864, 18462.00
1142.954, 18469.00
1144.044, 18439.00
1145.134, 18493.00
1146.224, 18541.00
1147.313, 18455.00
1148.402, 18360.00
1149.492, 18510.00
1150.581, 18575.00
1151.670, 18523.00
1152.758, 18558.00
1153.847, 18534.46
1154.935, 18515.22
1156.024, 18482.00
1157.112, 18480.00
1158.200, 18458.00
1159.287, 18445.00
1160.375, 18422.00
1161.462, 18357.00
1162.550, 18439.00
1163.637, 18642.00
1164.724, 18527.00
1165.810, 18504.00
1166.897, 18330.00
1167.983, 18479.00
1169.070, 18653.00
1170.156, 18551.00
1171.242, 18800.00
1172.327, 18749.00
1173.413, 18846.00
1174.499, 18713.00
1175.584, 18738.00
1176.669, 18727.00
1177.754, 18701.00
1178.839, 18742.00
1179.923, 18719.00
1181.008, 18706.00
1182.092, 18817.00
1183.176, 18726.00
1184.260, 18725.00
1185.344, 18926.00
1186.428, 18692.00
1187.511, 18630.00
1188.595, 18894.00
1189.678, 18899.00
1190.761, 18811.00
1191.843, 18990.00
1192.926, 18717.00
1194.009, 18691.00
1195.091, 19174.00
1196.173, 18698.00
1197.255, 18960.00
1198.337, 18759.00
1199.419, 18851.00
1200.500, 19008.00
1201.582, 19110.00
1202.663, 19017.00
1203.744, 18981.00
1204.825, 19009.00
1205.905, 18953.00
1206.986, 19025.00
1208.066, 18955.00
1209.146, 18927.00
1210.226, 19164.00
1211.306, 19064.00
1212.386, 18973.00
1213.466, 19026.00
1214.545, 18880.00
1215.624, 19144.00
1216.703, 18959.00
1217.782, 18944.00
1218.861, 18859.00
1219.939, 19031.00
1221.018, 18942.00
1222.096, 19058.00
1223.174, 19052.00
1224.252, 19264.00
1225.330, 19178.25
1226.407, 18910.00
1227.485, 19071.00
1228.562, 19136.00
1229.639, 19102.00
1230.716, 19263.00
1231.793, 19092.00
1232.869, 19138.00
1233.946, 19222.00
1235.022, 19274.00
1236.098, 19193.00
1237.174, 19061.00
1238.250, 18944.00
1239.325, 19256.00
1240.401, 19099.00
1241.476, 19047.00
1242.551, 19208.00
1243.626, 19090.83
1244.701, 19096.07
1245.776, 19087.00
1246.850, 19022.00
1247.924, 19057.00
1248.999, 19067.00
1250.073, 18977.00
1251.146, 18963.00
1252.220, 19075.00
1253.293, 19091.00
1254.367, 19076.00
1255.440, 18954.00
1256.513, 19239.00
1257.586, 19053.00
1258.658, 19050.00
1259.731, 18800.00
1260.803, 18959.00
1261.875, 19042.00
1262.947, 18897.00
1264.019, 19004.00
1265.091, 18990.00
1266.162, 19024.00
1267.234, 18919.00
1268.305, 18974.82
1269.376, 19070.00
1270.447, 18979.00
1271.517, 19098.00
1272.588, 19018.00
1273.658, 19030.00
1274.729, 19121.00
1275.799, 19069.00
1276.868, 19028.00
1277.938, 19141.00
1279.008, 19082.00
1280.077, 18995.00
1281.146, 19104.00
1282.215, 19023.00
1283.284, 19214.00
1284.353, 19236.00
1285.421, 19012.00
1286.490, 19358.00
1287.558, 19156.00
1288.626, 19245.00
1289.694, 19084.00
1290.762, 19214.00
1291.829, 19161.00
1292.897, 19173.57
1293.964, 19390.67
1295.031, 19515.71
1296.098, 19553.64
1297.165, 19243.57
1298.231, 19382.87
1299.298, 19342.09
1300.364, 19293.91
1301.430, 19496.46
1302.496, 19237.00
1303.562, 19435.57
1304.627, 19451.30
1305.693, 19550.71
1306.758, 19468.92
1307.823, 19443.09
1308.888, 19598.52
1309.953, 19653.59
1311.018, 19550.94
1312.082, 19655.66
1313.146, 19389.86
1314.210, 19449.19
1315.274, 19648.81
1316.338, 19555.26
1317.402, 19663.29
1318.465, 19694.55
1319.529, 19376.90
1320.592, 19666.03
1321.655, 19692.75
1322.718, 19450.02
1323.780, 19379.00
1324.843, 19511.00
1325.905, 19496.00
1326.967, 19423.00
1328.029, 19517.00
1329.091, 19540.00
1330.153, 19502.52
1331.214, 19524.00
1332.275, 19461.00
1333.337, 19422.00
1334.398, 19417.00
1335.458, 19795.00
1336.519, 19572.43
1337.580, 19795.83
1338.640, 19927.17
1339.700, 19971.40
1340.760, 19667.62
1341.820, 19813.23
1342.880, 19778.74
1343.939, 19736.85
1344.999, 19945.70
1346.058, 19692.53
1347.117, 19897.39
1348.176, 19919.41
1349.235, 20025.12
1350.293, 19949.60
1351.351, 19930.06
1352.410, 20091.79
1353.468, 20153.14
1354.526, 20056.77
1355.583, 20167.77
1356.641, 19908.25
1357.698, 19973.87
1358.756, 20179.77
1359.813, 20092.50
1360.869, 20206.80
1361.926, 20244.34
1362.983, 19932.97
1364.039, 20228.37
1365.095, 20261.36
1366.152, 20024.91
1367.207, 20299.51
1368.263, 20100.20
1369.319, 20070.05
1370.374, 20167.20
1371.430, 20131.64
1372.485, 20305.31
1373.540, 20277.40
1374.594, 20231.48
1375.649, 20264.16
1376.703, 20074.12
1377.758, 20297.26
1378.812, 20238.16
1379.866, 19992.00
1380.920, 20032.00
1381.973, 20377.00
1383.027, 20181.00
1384.080, 20252.00
1385.133, 20299.00
1386.186, 20261.00
1387.239, 20153.00
1388.291, 20275.00
1389.344, 20264.00
1390.396, 20337.00
1391.448, 20316.00
1392.500, 20318.00
1393.552, 20343.00
1394.604, 20189.00
1395.655, 20349.00
1396.707, 20405.00
1397.758, 20323.00
1398.809, 20565.00
1399.860, 20374.00
1400.910, 20702.00
1401.961, 20481.00
1403.011, 20367.00
1404.061, 20704.00
1405.111, 20582.00
1406.161, 20521.00
1407.211, 20699.00
1408.260, 20650.00
1409.310, 20741.88
1410.359, 20810.00
1411.408, 20876.00
1412.457, 20840.17
1413.506, 20832.22
1414.554, 20711.00
1415.603, 20738.00
1416.651, 20651.00
1417.699, 20638.00
1418.747, 20690.61
1419.794, 20888.00
1420.842, 20802.00
1421.889, 20866.00
1422.937, 20905.00
1423.984, 20773.00
1425.031, 20747.00
1426.077, 20950.00
1427.124, 20951.00
1428.170, 20864.00
1429.217, 21076.00
1430.263, 20988.00
1431.309, 20873.00
1432.354, 20859.00
1433.400, 20796.00
1434.445, 20752.00
1435.491, 20767.00
1436.536, 20746.00
1437.581, 20913.00
1438.625, 20855.00
1439.670, 20833.00
1440.714, 21038.00
1441.759, 21014.00
1442.803, 21008.00
1443.847, 20957.00
1444.890, 21017.00
1445.934, 21011.00
1446.978, 20777.00
1448.021, 20852.00
1449.064, 21234.00
1450.107, 21072.00
1451.150, 21108.00
1452.192, 20899.00
1453.235, 21051.00
1454.277, 21036.00
1455.319, 21034.00
1456.361, 20947.00
1457.403, 20989.00
1458.445, 21005.00
1459.486, 21041.00
1460.528, 21109.00
1461.569, 21066.00
1462.610, 20970.00
1463.651, 20988.00
1464.691, 21139.00
1465.732, 21029.00
1466.772, 20942.00
1467.812, 21144.00
1468.852, 21032.00
1469.892, 21011.00
1470.932, 21016.00
1471.971, 21069.00
1473.011, 21023.00
1474.050, 20972.00
1475.089, 21203.00
1476.128, 21195.00
1477.166, 21236.23
1478.205, 21129.00
1479.243, 21235.00
1480.282, 21113.00
1481.320, 21000.00
1482.357, 21171.00
1483.395, 21088.00
1484.433, 21258.00
1485.470, 21233.00
1486.507, 21262.00
1487.544, 21224.00
1488.581, 21062.00
1489.618, 21122.00
1490.655, 21068.00
1491.691, 21105.00
1492.727, 21161.00
1493.763, 21131.13
1494.799, 21145.00
1495.835, 21182.00
1496.871, 21211.00
1497.906, 21176.33
1498.941, 21184.00
1499.976, 21129.00
1501.011, 21174.00
1502.046, 21223.00
1503.081, 21318.00
1504.115, 21375.00
1505.149, 21403.50
1506.183, 21339.00
1507.217, 21407.00
1508.251, 21384.00
1509.285, 21298.00
1510.318, 21370.39
1511.352, 21615.00
1512.385, 21447.00
1513.418, 21450.00
1514.450, 21518.00
1515.483, 21436.00
1516.516, 21326.00
1517.548, 21572.00
1518.580, 21306.00
1519.612, 21448.00
1520.644, 21403.00
1521.675, 21465.00
1522.707, 21349.00
1523.738, 21555.00
1524.769, 21644.00
1525.800, 21507.00
1526.831, 21509.00
1527.862, 21547.00
1528.892, 21571.00
1529.923, 21568.00
1530.953, 21756.00
1531.983, 21791.00
1533.013, 21682.00
1534.042, 21456.00
1535.072, 21692.00
1536.101, 21692.00
1537.131, 21817.00
1538.160, 21856.18
1539.188, 21536.32
1540.217, 21752.53
1541.246, 21876.69
1542.274, 21913.74
1543.302, 21602.77
1544.330, 21741.19
1545.358, 21699.52
1546.386, 21650.46
1547.413, 21852.11
1548.441, 21591.77
1549.468, 21789.45
1550.495, 21804.29
1551.522, 21902.82
1552.549, 21820.14
1553.575, 21793.42
1554.602, 21947.97
1555.628, 22002.15
1556.654, 21898.61
1557.680, 22002.45
1558.706, 21735.76
1559.731, 21794.21
1560.757, 21992.94
1561.782, 21898.51
1562.807, 22005.65
1563.832, 22036.02
1564.857, 21717.49
1565.881, 22005.73
1566.906, 22031.56
1567.930, 21787.95
1568.954, 22055.40
1569.978, 21848.93
1571.002, 21811.62
1572.025, 21901.61
1573.049, 21858.90
1574.072, 22025.41
1575.095, 21990.35
1576.118, 21937.29
1577.141, 21962.81
1578.164, 22060.00
##END=



