##NAMES=Helvine
##RRUFFID=R060059
##IDEAL CHEMISTRY=Mn^2+^_4_(BeSiO_4_)_3_S^2-^
##LOCALITY=Schwarzenberg, Saxony, Germany
##OWNER=RRUFF
##SOURCE=University of Arizona Mineral Museum
##DESCRIPTION=Yellow-tan colored tetrahedra
##STATUS=The identification of this mineral has been confirmed by X-ray diffraction and chemical analysis
##URL=rruff.info/R060059
##MEASURED CHEMISTRY=(Mn^2+^_2.93_Fe^2+^_0.48_Zn_0.35_Ca_0.15_Fe^3+^_0.09_)_Σ=4_Be_3.00_((Si_0.97_Al_0.03_)_Σ=1_O_4_)_3_S_1.00_; BeO assumed by stoichiometry
##PIN_ID=M00669
##ORIENTATION=Laser parallel to -a* (-1 0 0). Fiducial mark perpendicular to laser is parallel to -c [0 0 -1]
83.38800, 28913.00
84.62600, 28581.00
85.86300, 28656.00
87.10100, 28502.00
88.33800, 28371.00
89.57500, 28693.00
90.81200, 29202.00
92.04900, 29406.00
93.28600, 29221.00
94.52300, 29418.00
95.75900, 29274.00
96.99500, 29296.00
98.23100, 29626.00
99.46700, 30333.00
100.7030, 30964.00
101.9390, 31603.00
103.1740, 32824.00
104.4090, 33517.00
105.6440, 33956.00
106.8790, 34136.00
108.1140, 33866.00
109.3490, 33760.00
110.5830, 34150.00
111.8180, 34430.00
113.0520, 35295.00
114.2860, 37021.00
115.5200, 37164.00
116.7530, 38321.00
117.9870, 39121.00
119.2200, 39885.00
120.4530, 40235.00
121.6860, 41277.63
122.9190, 41784.00
124.1520, 43172.00
125.3850, 44466.00
126.6170, 45593.00
127.8490, 46080.00
129.0810, 46267.00
130.3130, 46332.00
131.5450, 45342.00
132.7770, 43841.00
134.0080, 41767.00
135.2390, 40582.00
136.4710, 39329.00
137.7020, 38318.00
138.9320, 37752.00
140.1630, 36815.00
141.3930, 36350.00
142.6240, 35743.00
143.8540, 35269.00
145.0840, 34886.00
146.3140, 34872.00
147.5440, 35158.00
148.7730, 35599.00
150.0020, 36155.00
151.2320, 36959.00
152.4610, 37833.00
153.6900, 39030.55
154.9180, 40316.00
156.1470, 41903.00
157.3750, 43508.00
158.6040, 45309.00
159.8320, 47463.00
161.0600, 50474.00
162.2870, 53974.00
163.5150, 58014.00
164.7420, 63180.00
165.9700, 69522.00
167.1970, 76606.00
168.4240, 84119.00
169.6510, 92150.00
170.8770, 99149.00
172.1040, 104076.0
173.3300, 106998.0
174.5560, 106562.0
175.7820, 102413.0
177.0080, 94839.00
178.2340, 85531.00
179.4590, 74361.00
180.6850, 63403.00
181.9100, 54809.00
183.1350, 47730.00
184.3600, 42578.00
185.5850, 39223.00
186.8090, 36928.00
188.0340, 35351.00
189.2580, 34453.00
190.4820, 33923.00
191.7060, 33277.00
192.9300, 33098.00
194.1530, 33220.00
195.3770, 32501.00
196.6000, 31443.00
197.8230, 30403.00
199.0460, 29276.00
200.2690, 28369.00
201.4910, 27043.00
202.7140, 26409.00
203.9360, 25423.73
205.1580, 24483.00
206.3800, 23956.00
207.6020, 23361.00
208.8240, 23040.00
210.0450, 22921.00
211.2670, 22744.00
212.4880, 22487.00
213.7090, 21995.00
214.9300, 22283.00
216.1510, 22190.00
217.3710, 22585.00
218.5920, 22253.00
219.8120, 22264.00
221.0320, 22530.00
222.2520, 22605.00
223.4720, 22760.00
224.6910, 22971.00
225.9110, 23256.86
227.1300, 23542.00
228.3490, 24019.00
229.5680, 24406.00
230.7870, 24924.00
232.0050, 25398.00
233.2240, 25937.00
234.4420, 26159.00
235.6600, 26588.00
236.8780, 26880.00
238.0960, 27175.00
239.3140, 27053.00
240.5310, 27294.00
241.7490, 26945.00
242.9660, 26780.00
244.1830, 26359.00
245.4000, 26131.00
246.6160, 25585.00
247.8330, 24981.00
249.0490, 24534.00
250.2660, 23991.00
251.4820, 23473.00
252.6980, 23207.00
253.9130, 23110.00
255.1290, 23058.00
256.3440, 23300.00
257.5600, 22945.00
258.7750, 23042.00
259.9900, 22685.00
261.2040, 22967.00
262.4190, 23002.00
263.6330, 23115.00
264.8480, 23451.00
266.0620, 23596.00
267.2760, 23945.00
268.4900, 24183.12
269.7030, 24375.00
270.9170, 24759.00
272.1300, 25031.00
273.3430, 25432.00
274.5560, 25809.00
275.7690, 26219.00
276.9820, 26448.00
278.1940, 26929.00
279.4070, 26931.00
280.6190, 27436.00
281.8310, 27832.00
283.0430, 28012.00
284.2550, 28444.00
285.4660, 28463.00
286.6770, 28885.00
287.8890, 29026.00
289.1000, 29088.00
290.3110, 29358.00
291.5210, 29335.00
292.7320, 29300.00
293.9420, 29637.00
295.1530, 29646.00
296.3630, 30012.00
297.5730, 30200.00
298.7830, 30638.00
299.9920, 31054.00
301.2020, 31539.00
302.4110, 31900.00
303.6200, 32080.00
304.8290, 31934.00
306.0380, 31740.00
307.2470, 31221.00
308.4550, 30368.00
309.6630, 29261.00
310.8720, 28287.00
312.0800, 27330.00
313.2880, 26375.00
314.4950, 25580.00
315.7030, 25195.00
316.9100, 24456.00
318.1170, 23908.00
319.3240, 23660.00
320.5310, 23198.00
321.7380, 22820.00
322.9450, 22636.00
324.1510, 22316.00
325.3570, 22144.00
326.5630, 22099.00
327.7690, 21685.00
328.9750, 21716.00
330.1810, 21563.00
331.3860, 21530.00
332.5910, 21312.00
333.7960, 21418.00
335.0010, 21282.00
336.2060, 21162.00
337.4110, 21330.00
338.6150, 21149.00
339.8200, 21171.00
341.0240, 21040.00
342.2280, 21127.00
343.4320, 21049.00
344.6350, 20892.00
345.8390, 21096.00
347.0420, 20963.00
348.2450, 20958.00
349.4480, 20849.00
350.6510, 20921.00
351.8540, 20811.00
353.0560, 20866.00
354.2590, 21068.00
355.4610, 21060.00
356.6630, 21341.00
357.8650, 21394.00
359.0670, 21359.00
360.2680, 21604.00
361.4700, 21473.00
362.6710, 21420.00
363.8720, 21673.00
365.0730, 21449.00
366.2740, 21240.00
367.4740, 21086.00
368.6750, 21111.00
369.8750, 21033.00
371.0750, 20888.00
372.2750, 20900.00
373.4750, 20826.98
374.6740, 20696.00
375.8740, 20770.00
377.0730, 20789.00
378.2720, 20763.00
379.4710, 20731.00
380.6700, 20759.21
381.8690, 20840.00
383.0670, 20820.00
384.2660, 20790.00
385.4640, 20870.00
386.6620, 20646.00
387.8600, 20736.00
389.0570, 20909.00
390.2550, 20774.00
391.4520, 20792.00
392.6490, 20763.00
393.8460, 20861.00
395.0430, 20688.00
396.2400, 20782.00
397.4370, 20752.00
398.6330, 21031.00
399.8290, 20926.00
401.0250, 21009.00
402.2210, 21103.00
403.4170, 20974.00
404.6130, 20989.00
405.8080, 21027.00
407.0030, 20880.00
408.1980, 21031.00
409.3930, 20928.00
410.5880, 21016.00
411.7830, 20858.00
412.9770, 20965.00
414.1720, 20996.00
415.3660, 20791.00
416.5600, 20843.00
417.7530, 20832.00
418.9470, 20855.00
420.1410, 20928.65
421.3340, 20960.00
422.5270, 21002.00
423.7200, 21013.00
424.9130, 20876.00
426.1060, 20974.00
427.2980, 21208.00
428.4900, 21184.00
429.6830, 21411.00
430.8750, 21662.00
432.0670, 22247.00
433.2580, 22529.00
434.4500, 23172.00
435.6410, 23764.00
436.8320, 25199.00
438.0240, 25754.85
439.2140, 26531.95
440.4050, 27248.00
441.5960, 27623.00
442.7860, 27903.00
443.9760, 27972.00
445.1670, 27477.00
446.3560, 26905.00
447.5460, 25583.00
448.7360, 24558.00
449.9250, 23421.00
451.1150, 22592.00
452.3040, 22054.00
453.4930, 21547.00
454.6810, 21166.00
455.8700, 20963.00
457.0590, 21033.00
458.2470, 20798.35
459.4350, 20805.00
460.6230, 20688.00
461.8110, 20505.00
462.9980, 20540.00
464.1860, 20357.00
465.3730, 20197.00
466.5600, 20296.00
467.7470, 20259.00
468.9340, 20195.61
470.1210, 20223.00
471.3080, 20111.00
472.4940, 20066.00
473.6800, 20048.00
474.8660, 20145.00
476.0520, 20176.00
477.2380, 20214.00
478.4230, 20158.00
479.6090, 20165.00
480.7940, 20360.00
481.9790, 20285.00
483.1640, 20269.00
484.3490, 20143.00
485.5330, 20225.00
486.7180, 20382.00
487.9020, 20426.00
489.0860, 20453.00
490.2700, 20435.00
491.4540, 20302.00
492.6370, 20697.00
493.8210, 20702.00
495.0040, 20715.00
496.1870, 20584.00
497.3700, 20704.00
498.5530, 20607.00
499.7360, 20716.00
500.9180, 20863.00
502.1000, 20885.00
503.2830, 20797.00
504.4650, 21028.00
505.6460, 21326.00
506.8280, 20957.00
508.0100, 21334.00
509.1910, 21304.00
510.3720, 21533.00
511.5530, 21669.00
512.7340, 21933.00
513.9150, 22058.00
515.0950, 22171.00
516.2760, 22386.00
517.4560, 22698.00
518.6360, 23109.00
519.8160, 23258.00
520.9950, 23548.00
522.1750, 23999.00
523.3540, 24324.66
524.5340, 24676.00
525.7130, 25219.00
526.8920, 25789.00
528.0700, 26292.00
529.2490, 27032.00
530.4270, 27394.00
531.6060, 27329.00
532.7840, 27836.00
533.9620, 27628.00
535.1390, 27771.00
536.3170, 27680.00
537.4940, 27325.00
538.6720, 26892.00
539.8490, 26740.00
541.0260, 26429.00
542.2030, 26111.00
543.3790, 25704.00
544.5560, 25831.00
545.7320, 25570.00
546.9080, 25244.00
548.0840, 25490.00
549.2600, 25845.00
550.4360, 25956.00
551.6110, 26204.00
552.7860, 26508.00
553.9620, 26803.00
555.1370, 27298.00
556.3110, 27654.00
557.4860, 28320.00
558.6610, 28807.00
559.8350, 29140.00
561.0090, 29458.00
562.1830, 29838.00
563.3570, 30067.00
564.5310, 30280.00
565.7040, 30349.00
566.8780, 30255.00
568.0510, 30147.00
569.2240, 29855.00
570.3970, 29841.00
571.5700, 29661.00
572.7420, 29408.00
573.9150, 29336.00
575.0870, 29054.00
576.2590, 28707.00
577.4310, 28638.00
578.6030, 28309.00
579.7740, 28063.00
580.9460, 27694.00
582.1170, 27460.00
583.2880, 27228.00
584.4590, 26645.00
585.6300, 26043.00
586.8010, 25874.00
587.9710, 25311.00
589.1410, 25063.00
590.3110, 24831.00
591.4810, 24446.00
592.6510, 24286.00
593.8210, 24129.20
594.9900, 23941.00
596.1600, 23949.00
597.3290, 23964.00
598.4980, 23907.00
599.6670, 23959.00
600.8350, 23676.00
602.0040, 23953.00
603.1720, 23766.00
604.3400, 23684.00
605.5080, 24029.00
606.6760, 23723.00
607.8440, 23505.00
609.0120, 23619.00
610.1790, 23542.00
611.3460, 23358.00
612.5130, 23013.00
613.6800, 22991.00
614.8470, 22964.00
616.0130, 23003.00
617.1800, 22885.70
618.3460, 22804.00
619.5120, 22685.00
620.6780, 22547.00
621.8440, 22468.00
623.0090, 22468.00
624.1750, 22400.00
625.3400, 22257.00
626.5050, 22122.31
627.6700, 21945.00
628.8350, 21701.00
629.9990, 21554.00
631.1640, 21274.00
632.3280, 20905.00
633.4920, 20930.00
634.6560, 20866.00
635.8200, 20612.00
636.9840, 20319.00
638.1470, 20497.00
639.3100, 20233.00
640.4730, 20103.00
641.6360, 20286.00
642.7990, 20189.00
643.9620, 20462.00
645.1240, 20107.00
646.2870, 20102.00
647.4490, 20371.00
648.6110, 20269.00
649.7730, 20408.00
650.9340, 20436.00
652.0960, 20701.00
653.2570, 20553.00
654.4180, 20732.00
655.5790, 20889.00
656.7400, 20886.00
657.9010, 21067.00
659.0620, 21256.00
660.2220, 21794.00
661.3820, 22011.00
662.5420, 22151.00
663.7020, 22358.00
664.8620, 22646.85
666.0210, 22766.00
667.1810, 23269.00
668.3400, 23371.00
669.4990, 23683.00
670.6580, 24260.00
671.8170, 24946.00
672.9750, 25557.00
674.1340, 25872.00
675.2920, 26238.06
676.4500, 26541.00
677.6080, 26453.00
678.7660, 26323.00
679.9230, 26004.00
681.0810, 25311.00
682.2380, 24544.00
683.3950, 24048.00
684.5520, 23543.00
685.7090, 23103.00
686.8660, 22632.00
688.0220, 22564.00
689.1780, 22256.00
690.3340, 21857.00
691.4900, 21846.00
692.6460, 21536.00
693.8020, 21502.00
694.9570, 21448.00
696.1130, 21495.00
697.2680, 21511.00
698.4230, 21408.00
699.5780, 21246.00
700.7320, 21390.00
701.8870, 21249.00
703.0410, 21553.00
704.1950, 21314.00
705.3490, 21469.00
706.5030, 21420.00
707.6570, 21711.00
708.8110, 21515.00
709.9640, 21668.00
711.1170, 21692.00
712.2700, 21691.00
713.4230, 21765.00
714.5760, 21756.45
715.7280, 21781.00
716.8810, 21750.00
718.0330, 21802.00
719.1850, 21746.00
720.3370, 21764.98
721.4890, 21643.00
722.6400, 21738.00
723.7920, 21753.00
724.9430, 21672.00
726.0940, 21725.00
727.2450, 21483.00
728.3960, 21674.00
729.5460, 21703.00
730.6970, 21528.00
731.8470, 21581.00
732.9970, 21553.00
734.1470, 21412.00
735.2970, 21578.00
736.4460, 21560.00
737.5960, 21641.00
738.7450, 21501.00
739.8940, 21814.00
741.0430, 21614.00
742.1920, 21718.00
743.3410, 21824.00
744.4890, 21463.00
745.6370, 21651.00
746.7850, 21939.00
747.9330, 21561.00
749.0810, 21683.00
750.2290, 21743.00
751.3760, 21588.00
752.5240, 21840.00
753.6710, 21572.00
754.8180, 21502.00
755.9650, 21581.00
757.1110, 21699.00
758.2580, 21782.00
759.4040, 21804.00
760.5510, 21564.00
761.6970, 21643.00
762.8420, 21653.00
763.9880, 21679.00
765.1340, 21814.00
766.2790, 21571.00
767.4240, 21710.00
768.5690, 21732.00
769.7140, 21628.00
770.8590, 21347.00
772.0030, 21457.00
773.1480, 21662.00
774.2920, 21328.00
775.4360, 21392.00
776.5800, 21661.00
777.7240, 21473.00
778.8670, 21662.00
780.0110, 21574.00
781.1540, 21714.00
782.2970, 21469.00
783.4400, 21424.00
784.5830, 21584.00
785.7250, 21652.00
786.8680, 21551.00
788.0100, 21648.00
789.1520, 21658.00
790.2940, 21770.00
791.4360, 21762.38
792.5780, 21802.63
793.7190, 21767.00
794.8600, 21838.00
796.0010, 21861.00
797.1420, 21865.00
798.2830, 21663.00
799.4240, 21859.00
800.5640, 21807.00
801.7050, 22113.00
802.8450, 21848.00
803.9850, 21804.00
805.1250, 21823.00
806.2640, 21725.00
807.4040, 21873.00
808.5430, 21912.00
809.6820, 21940.00
810.8210, 21898.00
811.9600, 21829.00
813.0990, 21831.00
814.2370, 21788.00
815.3760, 21976.00
816.5140, 22106.00
817.6520, 22182.00
818.7900, 22183.00
819.9270, 22382.00
821.0650, 22397.00
822.2020, 22362.00
823.3390, 22491.00
824.4760, 22622.00
825.6130, 22539.00
826.7500, 22708.00
827.8870, 22858.00
829.0230, 22831.00
830.1590, 22913.00
831.2950, 22824.00
832.4310, 23004.00
833.5670, 22948.00
834.7030, 23092.00
835.8380, 23159.00
836.9730, 23299.00
838.1080, 23507.00
839.2430, 23474.00
840.3780, 23435.00
841.5130, 23618.00
842.6470, 24058.00
843.7810, 23995.00
844.9150, 24275.00
846.0490, 24452.00
847.1830, 24416.00
848.3170, 24524.00
849.4500, 24927.00
850.5830, 25193.00
851.7160, 25220.00
852.8490, 25563.00
853.9820, 25984.00
855.1150, 26200.00
856.2470, 26310.00
857.3800, 26695.00
858.5120, 27001.00
859.6440, 27550.00
860.7760, 27793.00
861.9070, 28274.00
863.0390, 29075.00
864.1700, 29568.00
865.3010, 30541.00
866.4320, 31444.00
867.5630, 32367.00
868.6940, 33563.00
869.8240, 34760.00
870.9540, 36744.00
872.0850, 38365.00
873.2150, 40742.00
874.3450, 43663.00
875.4740, 46786.00
876.6040, 50997.00
877.7330, 55954.00
878.8620, 62393.00
879.9910, 69431.00
881.1200, 78086.00
882.2490, 88558.00
883.3770, 100600.0
884.5060, 114465.0
885.6340, 128953.0
886.7620, 144290.0
887.8900, 158345.0
889.0180, 171637.0
890.1450, 179321.0
891.2730, 183873.0
892.4000, 184525.0
893.5270, 181226.0
894.6540, 174270.0
895.7810, 164752.0
896.9070, 154411.0
898.0340, 142981.0
899.1600, 131109.0
900.2860, 120327.0
901.4120, 110330.0
902.5380, 101050.0
903.6630, 92789.50
904.7890, 85383.00
905.9140, 78615.00
907.0390, 72642.00
908.1640, 67511.00
909.2890, 63501.00
910.4130, 59048.00
911.5380, 55986.00
912.6620, 52786.00
913.7860, 50059.00
914.9100, 47691.00
916.0340, 45837.00
917.1580, 44004.00
918.2810, 41980.00
919.4040, 40671.00
920.5280, 39279.00
921.6510, 38374.00
922.7730, 36982.00
923.8960, 36010.00
925.0180, 35161.00
926.1410, 34623.00
927.2630, 33835.00
928.3850, 33176.00
929.5070, 32966.00
930.6280, 32482.00
931.7500, 31890.00
932.8710, 31755.00
933.9920, 31487.00
935.1130, 31346.00
936.2340, 31130.30
937.3550, 30905.00
938.4760, 30729.00
939.5960, 30536.00
940.7160, 30361.11
941.8360, 30161.16
942.9560, 29892.00
944.0760, 29699.00
945.1950, 29406.00
946.3150, 29033.00
947.4340, 28472.00
948.5530, 28246.00
949.6720, 27666.00
950.7900, 27405.00
951.9090, 27423.00
953.0270, 27011.00
954.1460, 26872.00
955.2640, 26607.00
956.3820, 26471.00
957.4990, 26251.00
958.6170, 26117.00
959.7340, 25959.00
960.8520, 25757.00
961.9690, 25931.00
963.0860, 26006.00
964.2020, 25727.00
965.3190, 25763.00
966.4350, 26163.00
967.5520, 26053.00
968.6680, 26352.00
969.7840, 26436.00
970.8990, 26541.00
972.0150, 26580.00
973.1310, 26419.00
974.2460, 26681.00
975.3610, 26399.00
976.4760, 26319.00
977.5910, 26379.00
978.7050, 26109.26
979.8200, 26256.00
980.9340, 25815.00
982.0480, 25646.00
983.1620, 25617.00
984.2760, 25633.00
985.3900, 25699.00
986.5030, 25677.00
987.6160, 25522.00
988.7300, 25624.00
989.8430, 25600.00
990.9550, 25881.00
992.0680, 25704.00
993.1810, 25761.00
994.2930, 25981.00
995.4050, 25772.00
996.5170, 26031.00
997.6290, 26487.00
998.7410, 26031.00
999.8520, 26177.00
1000.964, 26064.00
1002.075, 26042.00
1003.186, 26190.00
1004.297, 26245.00
1005.407, 26368.00
1006.518, 26443.00
1007.628, 26737.00
1008.738, 26823.00
1009.848, 27046.00
1010.958, 27239.00
1012.068, 27467.00
1013.178, 27473.00
1014.287, 27959.00
1015.396, 28088.00
1016.505, 28061.00
1017.614, 28386.00
1018.723, 28267.00
1019.831, 28318.00
1020.940, 28342.00
1022.048, 28124.00
1023.156, 27940.00
1024.264, 27788.00
1025.372, 27321.00
1026.479, 27074.00
1027.587, 27012.00
1028.694, 26528.00
1029.801, 26540.00
1030.908, 26105.00
1032.015, 26105.00
1033.121, 25880.00
1034.228, 25680.00
1035.334, 25805.00
1036.440, 25579.00
1037.546, 25520.00
1038.652, 25504.00
1039.758, 25392.00
1040.863, 25250.00
1041.968, 25141.00
1043.074, 25083.94
1044.178, 25252.47
1045.283, 25333.15
1046.388, 25330.72
1047.492, 24996.31
1048.597, 25090.59
1049.701, 25013.09
1050.805, 24928.54
1051.909, 25083.20
1053.012, 24797.11
1054.116, 24947.97
1055.219, 24924.42
1056.322, 24980.71
1057.425, 24864.13
1058.528, 24800.94
1059.631, 24910.68
1060.733, 24924.70
1061.836, 24788.21
1062.938, 24849.61
1064.040, 24557.50
1065.142, 24575.60
1066.243, 24727.56
1067.345, 24599.80
1068.446, 24664.38
1069.547, 24655.72
1070.648, 24314.18
1071.749, 24551.55
1072.850, 24538.56
1073.951, 24268.51
1075.051, 24363.00
1076.151, 24427.00
1077.251, 24289.00
1078.351, 24330.00
1079.451, 24423.00
1080.550, 24357.00
1081.650, 24358.00
1082.749, 24206.00
1083.848, 24301.00
1084.947, 24211.00
1086.046, 24242.00
1087.144, 24054.00
1088.243, 24148.00
1089.341, 24091.45
1090.439, 24180.00
1091.537, 24122.00
1092.635, 24181.00
1093.732, 24304.00
1094.830, 24213.00
1095.927, 24293.00
1097.024, 24383.00
1098.121, 24046.00
1099.218, 24304.00
1100.314, 24111.00
1101.411, 23980.00
1102.507, 24216.00
1103.603, 24393.00
1104.699, 24335.00
1105.795, 24460.00
1106.890, 24164.00
1107.986, 24400.00
1109.081, 24177.00
1110.176, 24283.00
1111.271, 24464.00
1112.366, 24372.00
1113.461, 24558.00
1114.555, 24433.00
1115.649, 24409.00
1116.744, 24467.00
1117.838, 24505.00
1118.931, 24638.00
1120.025, 24680.00
1121.119, 24835.00
1122.212, 24624.00
1123.305, 24747.00
1124.398, 24656.00
1125.491, 24705.00
1126.584, 24919.00
1127.676, 24701.00
1128.768, 24742.00
1129.861, 24774.00
1130.953, 24717.00
1132.044, 24759.00
1133.136, 24723.00
1134.228, 24624.00
1135.319, 24630.00
1136.410, 24742.00
1137.501, 24670.00
1138.592, 24811.00
1139.683, 24970.00
1140.773, 24784.00
1141.864, 24981.00
1142.954, 24853.00
1144.044, 24902.00
1145.134, 24864.00
1146.224, 24862.47
1147.313, 24981.00
1148.402, 24905.00
1149.492, 24954.00
1150.581, 24988.00
1151.670, 24973.26
1152.758, 24868.00
1153.847, 24993.00
1154.935, 24910.00
1156.024, 24897.00
1157.112, 25060.00
1158.200, 24889.00
1159.287, 24963.00
1160.375, 25068.00
1161.462, 25142.00
1162.550, 25163.00
1163.637, 24992.00
1164.724, 24987.00
1165.810, 24858.00
1166.897, 25171.00
1167.983, 25258.00
1169.070, 25026.00
1170.156, 25206.00
1171.242, 25101.00
1172.327, 25151.00
1173.413, 25113.00
1174.499, 25193.00
1175.584, 25050.00
1176.669, 25355.00
1177.754, 25478.00
1178.839, 25370.00
1179.923, 25268.00
1181.008, 25236.00
1182.092, 25209.00
1183.176, 25181.42
1184.260, 25372.00
1185.344, 25274.00
1186.428, 25209.00
1187.511, 25456.00
1188.595, 25586.00
1189.678, 25316.00
1190.761, 25547.00
1191.843, 25525.00
1192.926, 25592.00
1194.009, 25690.00
1195.091, 25534.00
1196.173, 25678.00
1197.255, 25609.00
1198.337, 25731.00
1199.419, 25731.22
1200.500, 25759.90
1201.582, 25763.00
1202.663, 25786.00
1203.744, 25834.00
1204.825, 25879.61
1205.905, 25790.70
1206.986, 25994.89
1208.066, 26111.27
1209.146, 26144.53
1210.226, 25845.78
1211.306, 25975.76
1212.386, 25933.92
1213.466, 25885.04
1214.545, 26075.36
1215.624, 25824.89
1216.703, 26011.42
1217.782, 26023.50
1218.861, 26115.42
1219.939, 26034.47
1221.018, 26006.91
1222.096, 26152.28
1223.174, 26201.90
1224.252, 26101.04
1225.330, 26198.03
1226.407, 25941.52
1227.485, 25995.22
1228.562, 26182.75
1229.639, 26090.58
1230.716, 26190.73
1231.793, 26217.63
1232.869, 25911.66
1233.946, 26184.59
1235.022, 26207.17
1236.098, 25972.68
1237.174, 26225.77
1238.250, 26026.72
1239.325, 25989.06
1240.401, 26072.85
1241.476, 26030.03
1242.551, 26186.82
1243.626, 26151.31
1244.701, 26098.62
1245.776, 26120.91
1246.850, 26074.04
1247.924, 26134.72
1248.999, 26069.46
1250.073, 26138.03
1251.146, 26236.94
1252.220, 26103.57
1253.293, 26216.11
1254.367, 25947.29
1255.440, 26074.00
1256.513, 25912.00
1257.586, 25968.86
1258.658, 26208.00
1259.731, 26035.00
1260.803, 26162.00
1261.875, 26276.00
1262.947, 26343.00
1264.019, 26208.00
1265.091, 26353.00
1266.162, 26195.00
1267.234, 26155.00
1268.305, 26215.00
1269.376, 26356.00
1270.447, 26208.00
1271.517, 26273.00
1272.588, 26353.00
1273.658, 26233.00
1274.729, 26493.00
1275.799, 26451.00
1276.868, 26402.00
1277.938, 26632.00
1279.008, 26628.00
1280.077, 26521.00
1281.146, 26618.00
1282.215, 26686.00
1283.284, 26338.00
1284.353, 26596.00
1285.421, 26646.00
1286.490, 26471.00
1287.558, 26631.00
1288.626, 26736.00
1289.694, 26794.00
1290.762, 26840.00
1291.829, 26789.00
1292.897, 26813.60
1293.964, 26797.87
1295.031, 26798.00
1296.098, 26763.00
1297.165, 26797.44
1298.231, 26776.38
1299.298, 26892.00
1300.364, 26902.00
1301.430, 26904.00
1302.496, 27074.00
1303.562, 26809.00
1304.627, 26862.00
1305.693, 26837.00
1306.758, 26877.00
1307.823, 27040.00
1308.888, 26913.00
1309.953, 26910.00
1311.018, 27106.00
1312.082, 26791.00
1313.146, 26832.00
1314.210, 27039.00
1315.274, 27265.00
1316.338, 27067.00
1317.402, 27022.00
1318.465, 27350.00
1319.529, 27308.00
1320.592, 27132.00
1321.655, 27209.00
1322.718, 27027.00
1323.780, 27277.00
1324.843, 27157.00
1325.905, 27229.00
1326.967, 27385.00
1328.029, 27199.00
1329.091, 27086.00
1330.153, 27268.00
1331.214, 27447.00
1332.275, 27411.00
1333.337, 27416.00
1334.398, 27323.00
1335.458, 27381.00
1336.519, 27329.00
1337.580, 27455.00
1338.640, 27566.00
1339.700, 27403.00
1340.760, 27279.00
1341.820, 27684.00
1342.880, 27507.00
1343.939, 27574.00
1344.999, 27731.00
1346.058, 27747.00
1347.117, 27752.00
1348.176, 27614.00
1349.235, 27772.00
1350.293, 27657.00
1351.351, 27920.00
1352.410, 27916.00
1353.468, 27845.00
1354.526, 27820.00
1355.583, 27729.00
1356.641, 27909.00
1357.698, 27938.00
1358.756, 27897.00
1359.813, 28037.00
1360.869, 28011.00
1361.926, 28177.00
1362.983, 28124.00
1364.039, 28064.00
1365.095, 27939.00
1366.152, 27989.00
1367.207, 27978.00
1368.263, 27992.42
1369.319, 28029.12
1370.374, 28076.00
1371.430, 28109.00
1372.485, 28133.00
1373.540, 28207.00
1374.594, 28206.13
1375.649, 28129.00
1376.703, 28231.00
1377.758, 28273.00
1378.812, 28292.00
1379.866, 28552.00
1380.920, 28491.00
1381.973, 28514.95
1383.027, 28605.00
1384.080, 28373.00
1385.133, 28636.00
1386.186, 28477.00
1387.239, 28580.00
1388.291, 28568.00
1389.344, 28519.00
1390.396, 28489.00
1391.448, 28765.00
1392.500, 28443.00
1393.552, 28609.00
1394.604, 28836.00
1395.655, 28688.00
1396.707, 28662.00
1397.758, 29027.00
1398.809, 28708.00
1399.860, 28739.00
1400.910, 28757.00
1401.961, 28531.00
1403.011, 28965.00
1404.061, 28974.00
1405.111, 28838.00
1406.161, 28841.00
1407.211, 28932.00
1408.260, 29119.00
1409.310, 28925.00
1410.359, 29061.00
1411.408, 29073.00
1412.457, 29131.00
1413.506, 29142.00
1414.554, 29033.00
1415.603, 29236.00
1416.651, 29383.00
1417.699, 29335.00
1418.747, 29052.00
1419.794, 29329.00
1420.842, 29248.00
1421.889, 29233.00
1422.937, 29435.00
1423.984, 29321.00
1425.031, 29616.00
1426.077, 29647.00
1427.124, 29378.00
1428.170, 29324.00
1429.217, 29570.00
1430.263, 29626.00
1431.309, 29571.00
1432.354, 29749.00
1433.400, 29577.00
1434.445, 29587.00
1435.491, 29599.00
1436.536, 29846.00
1437.581, 29733.00
1438.625, 29692.00
1439.670, 29960.00
1440.714, 29700.00
1441.759, 29871.00
1442.803, 29769.00
1443.847, 29644.00
1444.890, 29649.00
1445.934, 29592.66
1446.978, 29596.43
1448.021, 29583.00
1449.064, 29643.00
1450.107, 29654.00
1451.150, 29672.00
1452.192, 29689.67
1453.235, 29816.00
1454.277, 29710.00
1455.319, 29843.00
1456.361, 29887.00
1457.403, 29780.00
1458.445, 30021.00
1459.486, 29880.00
1460.528, 29914.00
1461.569, 29899.00
1462.610, 29898.82
1463.651, 30063.00
1464.691, 29865.00
1465.732, 29868.00
1466.772, 29623.00
1467.812, 29792.00
1468.852, 29754.00
1469.892, 29951.00
1470.932, 29884.00
1471.971, 29998.00
1473.011, 30135.00
1474.050, 30056.00
1475.089, 29984.00
1476.128, 30084.00
1477.166, 30140.00
1478.205, 30106.00
1479.243, 29899.00
1480.282, 30204.00
1481.320, 30015.00
1482.357, 30070.00
1483.395, 30081.00
1484.433, 30022.00
1485.470, 30129.00
1486.507, 30086.00
1487.544, 29923.00
1488.581, 30165.00
1489.618, 30198.00
1490.655, 30369.00
1491.691, 30142.00
1492.727, 30026.00
1493.763, 30259.00
1494.799, 30271.00
1495.835, 30297.56
1496.871, 30396.00
1497.906, 30322.00
1498.941, 30266.00
1499.976, 30173.00
1501.011, 30326.00
1502.046, 30154.00
1503.081, 30624.00
1504.115, 30294.00
1505.149, 30411.00
1506.183, 30269.00
1507.217, 30465.00
1508.251, 30418.00
1509.285, 30419.00
1510.318, 30217.00
1511.352, 30113.00
1512.385, 30236.20
1513.418, 30215.06
1514.450, 30489.00
1515.483, 30465.00
1516.516, 30550.00
1517.548, 30754.00
1518.580, 30434.00
1519.612, 30640.00
1520.644, 30464.00
1521.675, 30488.00
1522.707, 30741.00
1523.738, 30576.00
1524.769, 30523.00
1525.800, 30769.00
1526.831, 30900.00
1527.862, 30826.00
1528.892, 30801.00
1529.923, 30821.00
1530.953, 30915.00
1531.983, 30842.00
1533.013, 30929.00
1534.042, 30844.00
1535.072, 30878.41
1536.101, 30972.00
1537.131, 30916.00
1538.160, 30951.00
1539.188, 30855.59
1540.217, 31077.05
1541.246, 31210.67
1542.274, 31261.17
1543.302, 30979.65
1544.330, 31126.87
1545.358, 31102.27
1546.386, 31070.62
1547.413, 31278.15
1548.441, 31044.93
1549.468, 31248.67
1550.495, 31277.97
1551.522, 31387.11
1552.549, 31323.38
1553.575, 31313.02
1554.602, 31475.61
1555.628, 31542.43
1556.654, 31458.77
1557.680, 31572.96
1558.706, 31333.66
1559.731, 31404.53
1560.757, 31609.26
1561.782, 31534.28
1562.807, 31651.61
1563.832, 31494.00
1564.857, 31291.00
1565.881, 31591.00
1566.906, 31299.00
1567.930, 31485.00
1568.954, 31510.00
1569.978, 31623.00
1571.002, 31366.00
1572.025, 31604.00
1573.049, 31387.00
1574.072, 31681.00
1575.095, 31790.00
1576.118, 31711.00
1577.141, 31567.00
1578.164, 31483.00
##END=



