##NAMES=Hematite
##RRUFFID=R040024
##IDEAL CHEMISTRY=Fe^3+^_2_O_3_
##LOCALITY=near Covered Wells, Papago Indian Reservation, Arizona, USA
##OWNER=RRUFF
##SOURCE=University of Arizona Mineral Museum
##DESCRIPTION=Reddish-black foliatated mass
##STATUS=The identification of this mineral has been confirmed by X-ray diffraction and chemical analysis
##URL=rruff.info/R040024
##MEASURED CHEMISTRY=(Fe_1.99_Al_0.01_)_Î£=2_O_3_
##PIN_ID=M00584
##ORIENTATION=Laser parallel to c* (0 0 1). Fiducial mark perpendicular to laser is parallel to b [0 1 0]
99.34400, 9620.000
100.5810, 9786.000
101.8190, 9743.000
103.0560, 9760.000
104.2930, 10113.00
105.5290, 10905.00
106.7660, 11680.00
108.0020, 12093.00
109.2390, 11661.00
110.4750, 11570.00
111.7110, 12244.00
112.9460, 14052.00
114.1820, 16446.00
115.4170, 18296.00
116.6530, 19716.00
117.8880, 20436.00
119.1230, 20857.00
120.3580, 19491.00
121.5920, 18443.00
122.8270, 16065.00
124.0610, 13509.00
125.2950, 12352.00
126.5290, 11902.00
127.7630, 11696.00
128.9970, 11526.95
130.2300, 11746.30
131.4640, 11855.40
132.6970, 11860.38
133.9300, 11439.93
135.1630, 11576.00
136.3950, 11493.45
137.6280, 11404.91
138.8600, 11628.26
140.0920, 11285.79
141.3240, 11510.50
142.5560, 11513.17
143.7880, 11622.01
145.0190, 11510.84
146.2510, 11471.70
147.4820, 11658.90
148.7130, 11725.63
149.9440, 11601.24
151.1750, 11735.35
152.4050, 11416.28
153.6360, 11500.74
154.8660, 11761.04
156.0960, 11663.44
157.3260, 11817.19
158.5560, 11879.51
159.7850, 11418.00
161.0150, 11616.00
162.2440, 11798.00
163.4730, 11741.00
164.7020, 11482.00
165.9310, 11515.00
167.1590, 11314.00
168.3880, 11312.00
169.6160, 11539.00
170.8440, 11452.00
172.0720, 11432.00
173.3000, 11352.00
174.5280, 11295.03
175.7550, 11304.00
176.9820, 11222.00
178.2100, 11284.00
179.4370, 11365.00
180.6630, 11332.00
181.8900, 11302.00
183.1170, 11338.00
184.3430, 11277.00
185.5690, 11312.00
186.7950, 11338.70
188.0210, 11622.00
189.2470, 11480.00
190.4720, 11644.00
191.6970, 11852.00
192.9230, 11755.00
194.1480, 11931.56
195.3730, 11977.00
196.5970, 12042.00
197.8220, 12081.90
199.0460, 12072.20
200.2700, 12093.00
201.4940, 12005.00
202.7180, 12015.00
203.9420, 11934.00
205.1660, 11816.00
206.3890, 11575.00
207.6120, 11598.00
208.8350, 11718.00
210.0580, 11749.00
211.2810, 11896.00
212.5040, 12094.00
213.7260, 12096.00
214.9480, 12308.00
216.1700, 12576.00
217.3920, 13058.00
218.6140, 13522.00
219.8360, 14690.00
221.0570, 15937.00
222.2790, 17377.00
223.5000, 18291.00
224.7210, 18874.00
225.9410, 18653.00
227.1620, 17847.00
228.3820, 16702.00
229.6030, 15508.00
230.8230, 14460.00
232.0430, 13745.00
233.2630, 12942.00
234.4820, 12676.46
235.7020, 12652.00
236.9210, 12756.00
238.1400, 12617.00
239.3590, 13384.00
240.5780, 13282.12
241.7970, 13524.00
243.0150, 13400.72
244.2340, 14153.77
245.4520, 14586.00
246.6700, 14703.97
247.8880, 14186.41
249.1060, 14015.25
250.3230, 13415.88
251.5400, 12920.00
252.7580, 12912.00
253.9750, 12345.00
255.1920, 12190.00
256.4080, 11951.00
257.6250, 11759.96
258.8410, 11654.77
260.0580, 11606.00
261.2740, 11458.00
262.4900, 11429.00
263.7050, 11337.00
264.9210, 11440.00
266.1360, 11358.00
267.3520, 11382.00
268.5670, 11402.00
269.7820, 11302.00
270.9960, 11354.00
272.2110, 11358.00
273.4250, 11513.00
274.6400, 11462.00
275.8540, 11542.00
277.0680, 11562.00
278.2810, 11523.00
279.4950, 11804.00
280.7090, 11931.00
281.9220, 11983.00
283.1350, 12117.00
284.3480, 12479.00
285.5610, 12742.00
286.7730, 12890.00
287.9860, 13336.00
289.1980, 13631.00
290.4100, 14111.00
291.6220, 14436.00
292.8340, 15121.00
294.0460, 15745.00
295.2570, 16155.00
296.4690, 16392.00
297.6800, 16330.00
298.8910, 16299.00
300.1020, 15990.00
301.3120, 15720.00
302.5230, 14981.00
303.7330, 14449.00
304.9440, 13746.00
306.1540, 13247.00
307.3630, 12974.00
308.5730, 12698.00
309.7830, 12287.00
310.9920, 12189.00
312.2010, 11935.00
313.4100, 11914.00
314.6190, 11758.00
315.8280, 11681.00
317.0370, 11465.00
318.2450, 11551.00
319.4530, 11387.00
320.6610, 11375.00
321.8690, 11295.00
323.0770, 11289.00
324.2850, 11259.22
325.4920, 11351.00
326.6990, 11201.00
327.9060, 11333.00
329.1130, 11272.00
330.3200, 11285.00
331.5270, 11375.00
332.7330, 11492.00
333.9390, 11220.00
335.1450, 11288.00
336.3510, 11155.00
337.5570, 11267.00
338.7630, 11229.00
339.9680, 11305.00
341.1740, 11295.00
342.3790, 11219.00
343.5840, 11113.00
344.7890, 11313.00
345.9930, 11223.00
347.1980, 11267.00
348.4020, 11206.00
349.6060, 11304.00
350.8100, 11383.00
352.0140, 11309.00
353.2180, 11242.00
354.4210, 11398.00
355.6250, 11299.00
356.8280, 11415.00
358.0310, 11357.00
359.2340, 11592.00
360.4360, 11571.00
361.6390, 11478.00
362.8410, 11336.00
364.0430, 11540.00
365.2450, 11509.00
366.4470, 11638.00
367.6490, 11651.00
368.8510, 11603.00
370.0520, 11708.00
371.2530, 12012.00
372.4540, 11911.94
373.6550, 11976.68
374.8560, 11935.00
376.0560, 11936.00
377.2570, 12003.00
378.4570, 12045.04
379.6570, 12149.00
380.8570, 12237.00
382.0570, 12368.00
383.2560, 12511.00
384.4560, 12487.55
385.6550, 12463.95
386.8540, 12506.98
388.0530, 12618.67
389.2520, 12691.93
390.4510, 13054.07
391.6490, 13548.00
392.8470, 13671.00
394.0450, 13948.00
395.2430, 14428.00
396.4410, 14870.29
397.6390, 15542.79
398.8360, 16243.00
400.0340, 17231.00
401.2310, 18365.00
402.4280, 19642.00
403.6250, 21145.00
404.8210, 22449.00
406.0180, 24350.00
407.2140, 25688.00
408.4100, 26700.29
409.6060, 27549.00
410.8020, 27676.00
411.9980, 27138.00
413.1930, 25781.00
414.3890, 24116.00
415.5840, 22412.00
416.7790, 20908.00
417.9740, 19401.00
419.1680, 18155.00
420.3630, 17024.00
421.5570, 16337.00
422.7510, 15456.00
423.9450, 15048.00
425.1390, 14644.00
426.3330, 14217.79
427.5270, 13975.85
428.7200, 13772.19
429.9130, 13610.09
431.1060, 13296.77
432.2990, 13421.41
433.4920, 13230.00
434.6840, 12991.00
435.8770, 13149.00
437.0690, 12967.00
438.2610, 12970.00
439.4530, 13062.00
440.6450, 12891.00
441.8360, 12688.00
443.0280, 12893.00
444.2190, 12841.00
445.4100, 12895.00
446.6010, 12904.00
447.7920, 12613.00
448.9820, 12934.00
450.1730, 12855.00
451.3630, 12694.00
452.5530, 12805.00
453.7430, 12771.00
454.9330, 12655.00
456.1230, 12795.00
457.3120, 12797.00
458.5010, 12982.00
459.6910, 12790.00
460.8800, 12899.00
462.0680, 12858.00
463.2570, 12870.00
464.4460, 12854.00
465.6340, 12781.00
466.8220, 12743.00
468.0100, 12964.00
469.1980, 12917.00
470.3860, 13157.00
471.5730, 12985.00
472.7600, 13016.00
473.9480, 13110.00
475.1350, 13093.00
476.3210, 13313.00
477.5080, 13329.00
478.6950, 13377.00
479.8810, 13399.00
481.0670, 13569.00
482.2530, 13656.00
483.4390, 13930.00
484.6250, 14008.00
485.8100, 14260.00
486.9960, 14456.00
488.1810, 14578.00
489.3660, 14764.00
490.5510, 15216.00
491.7360, 15409.00
492.9200, 15641.99
494.1050, 15928.00
495.2890, 15995.00
496.4730, 16193.00
497.6570, 16277.00
498.8400, 16640.00
500.0240, 16763.00
501.2070, 16612.00
502.3910, 16718.00
503.5740, 16548.08
504.7570, 16346.00
505.9400, 16253.00
507.1220, 16021.00
508.3050, 15958.00
509.4870, 15642.00
510.6690, 15676.00
511.8510, 15563.00
513.0330, 15208.00
514.2140, 15650.00
515.3960, 15162.00
516.5770, 14980.00
517.7580, 15221.00
518.9390, 15029.00
520.1200, 14839.00
521.3010, 15070.00
522.4810, 15058.00
523.6610, 15101.00
524.8420, 14991.00
526.0220, 14842.00
527.2010, 14940.00
528.3810, 14828.00
529.5610, 14824.00
530.7400, 14936.00
531.9190, 14955.00
533.0980, 14880.00
534.2770, 14764.00
535.4560, 14618.00
536.6340, 14560.00
537.8120, 14482.00
538.9910, 14673.00
540.1690, 14729.00
541.3460, 14789.00
542.5240, 14814.00
543.7020, 14846.00
544.8790, 14921.00
546.0560, 14958.00
547.2330, 14988.00
548.4100, 15059.00
549.5870, 15091.00
550.7630, 15130.00
551.9400, 15346.00
553.1160, 15242.00
554.2920, 15475.00
555.4680, 15389.00
556.6440, 15445.00
557.8190, 15570.00
558.9950, 15518.00
560.1700, 15502.00
561.3450, 15536.00
562.5200, 15723.00
563.6950, 15670.00
564.8690, 15618.00
566.0440, 15748.00
567.2180, 15693.00
568.3920, 15685.00
569.5660, 15867.00
570.7400, 15868.00
571.9130, 15932.00
573.0870, 16060.00
574.2600, 15652.00
575.4330, 15345.00
576.6060, 15279.00
577.7790, 15002.00
578.9520, 15052.00
580.1240, 15105.00
581.2960, 14587.00
582.4690, 14576.46
583.6410, 14321.19
584.8120, 14201.00
585.9840, 13990.00
587.1560, 13980.00
588.3270, 14085.00
589.4980, 13934.00
590.6690, 14070.00
591.8400, 14006.00
593.0110, 14152.00
594.1810, 14313.00
595.3510, 14551.00
596.5220, 14703.52
597.6920, 14890.66
598.8610, 15095.00
600.0310, 15316.00
601.2010, 15561.00
602.3700, 15942.00
603.5390, 16327.00
604.7080, 16611.00
605.8770, 16853.00
607.0460, 17229.55
608.2140, 17548.00
609.3830, 17677.00
610.5510, 17775.72
611.7190, 17700.21
612.8870, 17604.04
614.0550, 17455.00
615.2220, 17070.00
616.3900, 16637.00
617.5570, 16505.00
618.7240, 16156.00
619.8910, 15795.00
621.0580, 15489.00
622.2240, 15293.05
623.3910, 15194.00
624.5570, 14999.00
625.7230, 14947.00
626.8890, 14859.00
628.0550, 14785.00
629.2200, 14714.00
630.3860, 14584.00
631.5510, 14485.00
632.7160, 14510.00
633.8810, 14517.00
635.0460, 14702.00
636.2100, 14626.00
637.3750, 14680.00
638.5390, 14709.79
639.7030, 14710.00
640.8670, 14744.00
642.0310, 14760.00
643.1950, 14833.00
644.3580, 14770.00
645.5210, 14934.00
646.6850, 14999.00
647.8480, 15304.00
649.0100, 15256.00
650.1730, 15283.00
651.3350, 15239.00
652.4980, 15582.00
653.6600, 15505.00
654.8220, 15599.00
655.9840, 15825.00
657.1450, 15783.71
658.3070, 15845.72
659.4680, 15884.00
660.6300, 15769.00
661.7910, 15817.00
662.9510, 15678.00
664.1120, 15716.00
665.2730, 15509.00
666.4330, 15528.00
667.5930, 15410.00
668.7530, 15307.00
669.9130, 15075.00
671.0730, 15106.00
672.2320, 14904.00
673.3920, 14979.00
674.5510, 14768.00
675.7100, 14791.00
676.8690, 14561.00
678.0280, 14520.00
679.1860, 14449.00
680.3450, 14470.00
681.5030, 14264.04
682.6610, 14389.70
683.8190, 14434.39
684.9770, 14402.67
686.1340, 14053.64
687.2920, 14123.64
688.4490, 14031.40
689.6060, 13936.37
690.7630, 14076.96
691.9200, 13794.87
693.0760, 13939.89
694.2330, 13920.05
695.3890, 13981.56
696.5450, 13879.74
697.7010, 13833.64
698.8570, 13959.00
700.0130, 13995.68
701.1680, 13890.73
702.3230, 13981.34
703.4780, 13733.77
704.6330, 13700.00
705.7880, 13908.00
706.9430, 13742.00
708.0970, 13717.00
709.2520, 13534.00
710.4060, 13842.00
711.5600, 13603.00
712.7140, 13699.00
713.8670, 13523.00
715.0210, 13634.00
716.1740, 13542.00
717.3270, 13511.00
718.4800, 13480.00
719.6330, 13673.00
720.7860, 13510.00
721.9380, 13544.00
723.0910, 13320.00
724.2430, 13486.00
725.3950, 13367.00
726.5470, 13420.00
727.6980, 13511.00
728.8500, 13518.00
730.0010, 13605.00
731.1530, 13356.00
732.3040, 13416.00
733.4550, 13407.00
734.6050, 13307.00
735.7560, 13336.00
736.9060, 13276.00
738.0560, 13329.00
739.2060, 13323.00
740.3560, 13265.00
741.5060, 13354.00
742.6560, 13314.05
743.8050, 13276.00
744.9540, 13275.00
746.1030, 13424.00
747.2520, 13336.00
748.4010, 13613.00
749.5500, 13339.00
750.6980, 13280.00
751.8460, 13220.00
752.9950, 13338.00
754.1420, 13490.00
755.2900, 13450.00
756.4380, 13443.00
757.5850, 13400.00
758.7330, 13431.00
759.8800, 13409.00
761.0270, 13411.00
762.1730, 13360.00
763.3200, 13346.00
764.4670, 13353.00
765.6130, 13483.00
766.7590, 13426.00
767.9050, 13472.56
769.0510, 13624.00
770.1960, 13524.00
771.3420, 13396.00
772.4870, 13582.00
773.6320, 13353.00
774.7770, 13615.00
775.9220, 13574.76
777.0670, 13671.00
778.2110, 13615.00
779.3560, 13588.00
780.5000, 13574.00
781.6440, 13551.90
782.7880, 13535.20
783.9320, 13540.00
785.0750, 13586.00
786.2180, 13589.00
787.3620, 13632.26
788.5050, 13741.00
789.6480, 13694.00
790.7900, 13858.00
791.9330, 13857.00
793.0750, 13786.00
794.2170, 13803.00
795.3590, 13909.00
796.5010, 13919.00
797.6430, 14032.00
798.7850, 14069.00
799.9260, 13987.00
801.0670, 13969.00
802.2080, 14003.00
803.3490, 14139.00
804.4900, 14284.00
805.6310, 14308.00
806.7710, 14423.40
807.9110, 14212.00
809.0510, 14505.00
810.1910, 14347.00
811.3310, 14244.00
812.4710, 14443.00
813.6100, 14495.00
814.7490, 14506.00
815.8880, 14457.00
817.0270, 14467.00
818.1660, 14608.00
819.3050, 14573.00
820.4430, 14602.00
821.5820, 14473.00
822.7200, 14525.00
823.8580, 14505.00
824.9950, 14601.00
826.1330, 14437.00
827.2710, 14399.00
828.4080, 14408.00
829.5450, 14417.00
830.6820, 14410.00
831.8190, 14437.00
832.9560, 14369.00
834.0920, 14369.27
835.2280, 14242.00
836.3650, 14325.00
837.5010, 14341.00
838.6360, 14343.00
839.7720, 14437.00
840.9080, 14459.00
842.0430, 14471.09
843.1780, 14354.00
844.3130, 14434.00
845.4480, 14388.00
846.5830, 14261.00
847.7170, 14317.00
848.8520, 14371.00
849.9860, 14314.00
851.1200, 14326.00
852.2540, 14312.00
853.3870, 14183.00
854.5210, 14180.00
855.6540, 14372.00
856.7880, 14266.00
857.9210, 14265.00
859.0540, 14388.00
860.1860, 14173.00
861.3190, 14205.00
862.4510, 14237.00
863.5840, 14324.00
864.7160, 14314.00
865.8480, 14435.00
866.9790, 14302.00
868.1110, 14421.00
869.2420, 14173.00
870.3740, 14278.00
871.5050, 14218.00
872.6360, 14218.00
873.7660, 14343.00
874.8970, 14250.00
876.0280, 14380.00
877.1580, 14400.00
878.2880, 14570.00
879.4180, 14270.00
880.5480, 14355.00
881.6770, 14316.00
882.8070, 14341.00
883.9360, 14426.00
885.0650, 14399.00
886.1940, 14426.00
887.3230, 14395.00
888.4520, 14431.80
889.5800, 14484.00
890.7090, 14511.00
891.8370, 14534.00
892.9650, 14594.08
894.0930, 14569.00
895.2200, 14616.00
896.3480, 14577.00
897.4750, 14615.00
898.6020, 14572.00
899.7290, 14581.00
900.8560, 14619.00
901.9830, 14609.00
903.1090, 14725.00
904.2360, 14647.00
905.3620, 14673.00
906.4880, 14803.00
907.6140, 14761.00
908.7400, 14840.00
909.8650, 14820.00
910.9900, 14913.00
912.1160, 14738.00
913.2410, 14762.00
914.3660, 14854.00
915.4900, 14819.00
916.6150, 14877.64
917.7390, 14871.00
918.8640, 14945.00
919.9880, 14785.00
921.1120, 14818.00
922.2350, 14803.00
923.3590, 14744.00
924.4820, 14889.00
925.6060, 14868.00
926.7290, 14986.00
927.8520, 14906.00
928.9740, 14938.00
930.0970, 14940.92
931.2190, 14995.00
932.3420, 14990.00
933.4640, 14892.00
934.5860, 15062.00
935.7080, 15138.00
936.8290, 15041.00
937.9510, 15040.00
939.0720, 15095.00
940.1930, 15062.00
941.3140, 15040.00
942.4350, 15144.00
943.5560, 15232.00
944.6760, 15233.54
945.7960, 15357.00
946.9170, 15284.00
948.0370, 15348.00
949.1560, 15379.00
950.2760, 15158.00
951.3960, 15293.10
952.5150, 15231.00
953.6340, 15314.00
954.7530, 15327.00
955.8720, 15191.00
956.9910, 15044.71
958.1090, 15255.81
959.2280, 15381.90
960.3460, 15427.53
961.4640, 15151.73
962.5820, 15290.99
963.6990, 15263.89
964.8170, 15229.99
965.9340, 15427.64
967.0510, 15198.59
968.1690, 15392.58
969.2850, 15417.68
970.4020, 15520.07
971.5190, 15310.00
972.6350, 15440.00
973.7510, 15393.00
974.8670, 15545.00
975.9830, 15448.00
977.0990, 15358.00
978.2150, 15540.00
979.3300, 15606.00
980.4450, 15375.00
981.5600, 15394.00
982.6750, 15482.00
983.7900, 15645.00
984.9050, 15627.98
986.0190, 15448.00
987.1340, 15607.00
988.2480, 15687.00
989.3620, 15549.00
990.4750, 15675.00
991.5890, 15521.00
992.7020, 15659.00
993.8160, 15597.62
994.9290, 15811.79
996.0420, 15940.93
997.1550, 15989.61
998.2670, 15716.87
999.3800, 15859.18
1000.492, 15835.14
1001.604, 15804.29
1002.716, 16005.00
1003.828, 15779.00
1004.940, 15976.04
1006.051, 15960.18
1007.163, 15868.00
1008.274, 15945.00
1009.385, 15843.00
1010.496, 15898.07
1011.606, 15940.00
1012.717, 15994.00
1013.827, 16065.00
1014.937, 16139.00
1016.047, 16110.00
1017.157, 16242.00
1018.267, 16239.00
1019.377, 16169.00
1020.486, 16374.00
1021.595, 16234.00
1022.704, 16370.00
1023.813, 16366.00
1024.922, 16302.00
1026.030, 16570.00
1027.139, 16456.00
1028.247, 16490.00
1029.355, 16518.00
1030.463, 16757.00
1031.571, 16796.00
1032.678, 16771.00
1033.786, 16780.00
1034.893, 16889.00
1036.000, 17084.00
1037.107, 16902.00
1038.214, 17239.00
1039.321, 17039.00
1040.427, 17235.00
1041.533, 17215.00
1042.639, 17169.00
1043.745, 17218.00
1044.851, 17236.00
1045.957, 17197.00
1047.062, 17335.00
1048.168, 17398.00
1049.273, 17286.00
1050.378, 17325.00
1051.482, 17453.00
1052.587, 17415.00
1053.692, 17325.00
1054.796, 17570.00
1055.900, 17384.00
1057.004, 17420.83
1058.108, 17458.20
1059.212, 17421.00
1060.315, 17427.00
1061.418, 17591.00
1062.522, 17503.00
1063.625, 17545.00
1064.728, 17741.00
1065.830, 17678.00
1066.933, 17570.00
1068.035, 17541.00
1069.137, 17620.00
1070.239, 17637.53
1071.341, 17614.00
1072.443, 17773.00
1073.545, 17678.00
1074.646, 17636.00
1075.747, 17703.00
1076.848, 17636.00
1077.949, 17592.00
1079.050, 17670.00
1080.150, 17656.00
1081.251, 17609.00
1082.351, 17697.00
1083.451, 17640.43
1084.551, 17621.00
1085.651, 17616.00
1086.750, 17632.00
1087.850, 17651.00
1088.949, 17799.00
1090.048, 17747.00
1091.147, 17722.00
1092.246, 17779.86
1093.345, 17647.00
1094.443, 17805.00
1095.541, 17716.00
1096.639, 17709.00
1097.737, 17710.00
1098.835, 17793.00
1099.933, 17842.00
1101.030, 17713.00
1102.128, 17835.00
1103.225, 17859.00
1104.322, 17650.00
1105.419, 17758.00
1106.515, 17815.00
1107.612, 17689.00
1108.708, 17695.00
1109.804, 17754.00
1110.900, 17867.00
1111.996, 17671.00
1113.092, 17525.00
1114.187, 17636.00
1115.283, 17721.00
1116.378, 17601.00
1117.473, 17682.00
1118.568, 17646.00
1119.662, 17607.00
1120.757, 17700.00
1121.851, 17525.00
1122.946, 17674.00
1124.040, 17571.00
1125.134, 17529.00
1126.227, 17476.00
1127.321, 17547.00
1128.414, 17691.00
1129.508, 17400.00
1130.601, 17449.00
1131.693, 17539.10
1132.786, 17659.70
1133.879, 17710.34
1134.971, 17695.64
1136.064, 17374.55
1137.156, 17483.58
1138.248, 17441.32
1139.339, 17407.26
1140.431, 17619.83
1141.522, 17420.68
1142.614, 17483.95
1143.705, 17386.00
1144.796, 17497.00
1145.887, 17547.00
1146.977, 17529.00
1148.068, 17662.00
1149.158, 17632.00
1150.248, 17529.00
1151.338, 17507.00
1152.428, 17623.00
1153.518, 17603.00
1154.607, 17684.00
1155.696, 17818.00
1156.785, 17627.00
1157.874, 17798.00
1158.963, 17810.00
1160.052, 17913.00
1161.141, 17804.00
1162.229, 17953.00
1163.317, 17831.00
1164.405, 17883.00
1165.493, 18023.00
1166.581, 17923.00
1167.668, 18013.00
1168.756, 18033.00
1169.843, 18140.00
1170.930, 18264.00
1172.017, 18339.00
1173.103, 18223.00
1174.190, 18353.00
1175.276, 18273.00
1176.363, 18441.00
1177.449, 18483.00
1178.535, 18508.00
1179.620, 18515.00
1180.706, 18625.75
1181.791, 18686.12
1182.877, 18769.00
1183.962, 18874.00
1185.047, 18784.00
1186.131, 18838.00
1187.216, 18558.56
1188.300, 18803.66
1189.385, 18963.78
1190.469, 19043.40
1191.553, 18801.61
1192.637, 18974.86
1193.720, 18981.74
1194.804, 18981.84
1195.887, 19213.46
1196.970, 19018.37
1198.053, 19246.32
1199.136, 19305.40
1200.219, 19355.00
1201.301, 19326.00
1202.383, 19418.00
1203.465, 19452.00
1204.547, 19366.00
1205.629, 19399.00
1206.711, 19682.00
1207.792, 19526.00
1208.874, 19664.00
1209.955, 19651.00
1211.036, 19667.00
1212.117, 19896.00
1213.198, 20027.00
1214.278, 19824.00
1215.359, 19657.00
1216.439, 19811.00
1217.519, 19819.00
1218.599, 20082.00
1219.678, 20182.00
1220.758, 20192.00
1221.837, 20311.00
1222.917, 20356.00
1223.996, 20307.00
1225.075, 20546.00
1226.153, 20676.00
1227.232, 20501.00
1228.310, 20726.00
1229.389, 20662.00
1230.467, 20969.00
1231.545, 20930.00
1232.622, 20882.00
1233.700, 21251.00
1234.777, 21125.00
1235.855, 21116.00
1236.932, 21301.00
1238.009, 21341.00
1239.086, 21489.08
1240.162, 21938.00
1241.239, 21836.00
1242.315, 21979.00
1243.391, 22233.00
1244.467, 22103.00
1245.543, 22440.00
1246.619, 22633.00
1247.694, 22585.00
1248.769, 22618.00
1249.844, 22787.13
1250.919, 23197.00
1251.994, 23141.00
1253.069, 23343.00
1254.144, 23656.00
1255.218, 23631.00
1256.292, 23973.00
1257.366, 24186.00
1258.440, 24243.00
1259.514, 24448.00
1260.587, 24620.80
1261.661, 24745.00
1262.734, 24985.00
1263.807, 25160.00
1264.880, 25306.00
1265.952, 25664.00
1267.025, 25781.00
1268.097, 25955.00
1269.170, 26287.00
1270.242, 26416.32
1271.314, 26833.00
1272.385, 26879.00
1273.457, 26918.00
1274.528, 27265.00
1275.600, 27376.00
1276.671, 27445.00
1277.742, 27760.00
1278.812, 27925.00
1279.883, 28554.00
1280.954, 28764.00
1282.024, 28823.00
1283.094, 29268.00
1284.164, 29432.00
1285.234, 29706.00
1286.303, 29889.00
1287.373, 30085.00
1288.442, 30433.00
1289.511, 30768.00
1290.580, 31209.00
1291.649, 31347.00
1292.718, 31549.96
1293.786, 32109.60
1294.855, 32584.56
1295.923, 32978.72
1296.991, 33051.47
1298.059, 33539.26
1299.126, 33860.39
1300.194, 34684.00
1301.261, 35183.00
1302.328, 35298.00
1303.395, 35947.00
1304.462, 36258.00
1305.529, 36804.00
1306.596, 37211.00
1307.662, 37690.00
1308.728, 38047.00
1309.794, 38424.00
1310.860, 38676.05
1311.926, 39049.13
1312.991, 39337.81
1314.057, 39544.61
1315.122, 39562.03
1316.187, 39717.63
1317.252, 39752.98
1318.317, 39739.01
1319.381, 39781.71
1320.446, 39588.43
1321.510, 39537.02
1322.574, 39364.34
1323.638, 39173.00
1324.702, 38215.29
1325.766, 38267.54
1326.829, 38121.70
1327.892, 37779.85
1328.956, 37134.28
1330.019, 36513.37
1331.081, 36242.00
1332.144, 35791.00
1333.206, 35172.00
1334.269, 34691.00
1335.331, 34341.00
1336.393, 34072.00
1337.455, 33046.00
1338.516, 32731.00
1339.578, 32261.00
1340.639, 31620.00
1341.701, 31399.00
1342.762, 31033.00
1343.822, 30580.00
1344.883, 30239.00
1345.944, 29551.00
1347.004, 29004.00
1348.064, 28642.00
1349.124, 28303.00
1350.184, 27915.49
1351.244, 27858.00
1352.304, 27326.00
1353.363, 27222.00
1354.422, 27056.00
1355.481, 26616.00
1356.540, 26284.00
1357.599, 26129.00
1358.657, 25795.00
1359.716, 25305.00
1360.774, 25162.00
1361.832, 24882.00
1362.890, 24716.00
1363.948, 24508.00
1365.006, 24428.00
1366.063, 24233.00
1367.120, 24055.00
1368.178, 23767.00
1369.234, 23629.00
1370.291, 23466.00
1371.348, 23187.00
1372.404, 23046.00
1373.461, 22900.00
1374.517, 22885.00
1375.573, 22637.00
1376.629, 22520.00
1377.684, 22415.00
1378.740, 22276.00
1379.795, 22090.00
1380.850, 22112.00
1381.905, 21828.00
1382.960, 21778.00
1384.015, 21605.00
1385.070, 21595.00
1386.124, 21463.00
1387.178, 21354.00
1388.232, 21189.00
1389.286, 21122.05
1390.340, 21047.82
1391.393, 20980.00
1392.447, 20907.60
1393.500, 20881.00
1394.553, 20773.00
1395.606, 20704.00
1396.659, 20658.00
1397.711, 20649.00
1398.764, 20584.45
1399.816, 20579.00
1400.868, 20478.00
1401.920, 20375.00
1402.972, 20284.00
1404.023, 20472.00
1405.075, 20239.00
1406.126, 20144.00
1407.177, 20203.00
1408.228, 19949.00
1409.279, 20113.00
1410.330, 19996.00
1411.380, 20072.00
1412.431, 19939.00
1413.481, 20047.00
1414.531, 19884.00
1415.580, 19812.00
1416.630, 19926.00
1417.680, 19915.00
1418.729, 19693.00
1419.778, 19675.00
1420.827, 19772.00
1421.876, 19677.00
1422.925, 19497.00
1423.973, 19645.00
1425.022, 19568.00
1426.070, 19579.00
1427.118, 19618.00
1428.166, 19720.00
1429.214, 19770.00
1430.261, 19570.00
1431.309, 19510.00
1432.356, 19578.00
1433.403, 19472.00
1434.450, 19534.63
1435.497, 19653.00
1436.543, 19611.00
1437.590, 19599.00
1438.636, 19624.00
1439.682, 19630.90
1440.728, 19580.00
1441.774, 19655.00
1442.819, 19542.00
1443.865, 19452.00
1444.910, 19579.00
1445.955, 19531.00
1447.000, 19415.82
1448.045, 19530.00
1449.090, 19249.00
1450.134, 19437.00
1451.178, 19616.00
1452.223, 19378.00
1453.267, 19348.00
1454.310, 19504.00
1455.354, 19476.00
1456.398, 19330.00
1457.441, 19460.00
1458.484, 19366.00
1459.527, 19375.00
1460.570, 19197.00
1461.613, 19495.00
1462.655, 19342.00
1463.698, 19637.00
1464.740, 19385.00
1465.782, 19404.00
1466.824, 19331.00
1467.866, 19518.00
1468.907, 19397.00
1469.948, 19431.00
1470.990, 19536.00
1472.031, 19409.00
1473.072, 19539.00
1474.112, 19486.00
1475.153, 19469.00
1476.194, 19518.61
1477.234, 19469.81
1478.274, 19532.00
1479.314, 19459.00
1480.354, 19423.00
1481.393, 19462.00
1482.433, 19545.00
1483.472, 19594.00
1484.511, 19583.88
1485.550, 19587.00
1486.589, 19569.00
1487.628, 19555.95
1488.666, 19549.00
1489.704, 19525.00
1490.743, 19525.11
1491.781, 19524.11
1492.819, 19541.00
1493.856, 19507.00
1494.894, 19524.00
1495.931, 19529.00
1496.968, 19570.00
1498.005, 19593.00
1499.042, 19582.00
1500.079, 19539.00
1501.115, 19578.34
1502.152, 19554.00
1503.188, 19636.00
1504.224, 19579.00
1505.260, 19628.00
1506.296, 19516.00
1507.331, 19413.00
1508.367, 19484.00
1509.402, 19518.00
1510.437, 19442.00
1511.472, 19622.00
1512.507, 19466.00
1513.541, 19566.77
1514.576, 19572.00
1515.610, 19686.00
1516.644, 19738.99
1517.678, 19570.00
1518.712, 19791.00
1519.746, 19722.00
1520.779, 19559.00
1521.813, 19593.00
1522.846, 19696.00
1523.879, 19633.00
1524.912, 19581.00
1525.944, 19644.00
1526.977, 19661.00
1528.009, 19512.00
1529.041, 19714.00
1530.073, 19619.00
1531.105, 19679.00
1532.137, 19648.00
1533.168, 19747.00
1534.200, 19612.00
1535.231, 19429.00
1536.262, 19783.00
1537.293, 19639.00
1538.324, 19511.00
1539.354, 19621.00
1540.385, 19697.00
1541.415, 19437.00
1542.445, 19460.00
1543.475, 19482.15
1544.505, 19672.32
1545.534, 19777.47
1546.564, 19802.17
1547.593, 19505.46
1548.622, 19623.78
1549.651, 19575.78
1550.680, 19520.96
1551.708, 19697.70
1552.737, 19447.73
1553.765, 19620.81
1554.793, 19625.02
1555.821, 19706.51
1556.849, 19620.64
1557.877, 19586.47
1558.904, 19719.71
1559.932, 19760.25
1560.959, 19655.13
1561.986, 19741.54
1563.013, 19485.73
1564.039, 19644.00
1565.066, 19582.00
1566.092, 19671.00
1567.119, 19593.00
1568.145, 19740.00
1569.170, 19605.00
1570.196, 19546.00
1571.222, 19571.00
1572.247, 19616.00
1573.272, 19820.00
1574.297, 19505.00
1575.322, 19668.00
1576.347, 19796.00
1577.372, 19780.00
##END=



