##NAMES=Hematite
##RRUFFID=R040024
##IDEAL CHEMISTRY=Fe^3+^_2_O_3_
##LOCALITY=near Covered Wells, Papago Indian Reservation, Arizona, USA
##OWNER=RRUFF
##SOURCE=University of Arizona Mineral Museum
##DESCRIPTION=Reddish-black foliatated mass
##STATUS=The identification of this mineral has been confirmed by X-ray diffraction and chemical analysis
##URL=rruff.info/R040024
##MEASURED CHEMISTRY=(Fe_1.99_Al_0.01_)_Î£=2_O_3_
##PIN_ID=M00584
##ORIENTATION=Laser parallel to c* (0 0 1). Fiducial mark perpendicular to laser is parallel to b [0 1 0]
104.2930, 16333.04
105.5290, 16616.25
106.7660, 16959.16
108.0020, 17365.59
109.2390, 17614.13
110.4750, 18382.49
111.7110, 19135.39
112.9460, 21433.00
114.1820, 24503.00
115.4170, 26482.00
116.6530, 28946.00
117.8880, 30007.00
119.1230, 31466.00
120.3580, 30094.00
121.5920, 28050.00
122.8270, 23842.00
124.0610, 20425.00
125.2950, 19052.00
126.5290, 18713.00
127.7630, 18459.00
128.9970, 18091.71
130.2300, 18172.35
131.4640, 18204.01
132.6970, 18189.37
133.9300, 17989.64
135.1630, 18028.90
136.3950, 17972.42
137.6280, 17911.98
138.8600, 17984.91
140.0920, 17812.13
141.3240, 17882.94
142.5560, 17856.52
143.7880, 17874.60
145.0190, 17796.33
146.2510, 17698.83
147.4820, 17722.00
148.7130, 17719.05
149.9440, 17691.40
151.1750, 17565.04
152.4050, 17566.17
153.6360, 17516.19
154.8660, 17464.14
156.0960, 17483.21
157.3260, 17371.24
158.5560, 17364.79
159.7850, 17306.04
161.0150, 17380.61
162.2440, 17209.49
163.4730, 17281.96
164.7020, 17257.20
165.9310, 17228.59
167.1590, 17271.87
168.3880, 17289.02
169.6160, 17281.48
170.8440, 17175.22
172.0720, 17196.44
173.3000, 17166.56
174.5280, 17134.60
175.7550, 17173.76
176.9820, 17081.88
178.2100, 17119.90
179.4370, 17106.08
180.6630, 17116.00
181.8900, 17074.51
183.1170, 17048.90
184.3430, 17074.71
185.5690, 17021.77
186.7950, 17085.21
188.0210, 16996.74
189.2470, 16958.18
190.4720, 17076.15
191.6970, 17110.99
192.9230, 17013.90
194.1480, 17095.56
195.3730, 16864.21
196.5970, 16911.81
197.8220, 17081.06
199.0460, 17003.12
200.2700, 17098.99
201.4940, 17131.80
202.7180, 16870.00
203.9420, 17126.80
205.1660, 17162.58
206.3890, 16971.34
207.6120, 17217.26
208.8350, 17062.18
210.0580, 17053.31
211.2810, 17155.04
212.5040, 17146.12
213.7260, 17317.48
214.9480, 17188.00
216.1700, 17552.00
217.3920, 17910.00
218.6140, 18274.00
219.8360, 19347.00
221.0570, 20373.00
222.2790, 21712.00
223.5000, 22940.00
224.7210, 23552.00
225.9410, 23599.00
227.1620, 23503.00
228.3820, 21901.00
229.6030, 20496.00
230.8230, 18982.00
232.0430, 18266.00
233.2630, 17815.00
234.4820, 17391.15
235.7020, 17322.00
236.9210, 17401.00
238.1400, 17572.00
239.3590, 17712.00
240.5780, 17922.00
241.7970, 18422.00
243.0150, 19050.00
244.2340, 19353.00
245.4520, 19734.00
246.6700, 19657.00
247.8880, 19254.00
249.1060, 18838.00
250.3230, 18053.00
251.5400, 17381.00
252.7580, 17154.00
253.9750, 16820.00
255.1920, 16572.00
256.4080, 16444.00
257.6250, 16282.85
258.8410, 16164.00
260.0580, 16062.00
261.2740, 16083.00
262.4900, 15838.00
263.7050, 15822.00
264.9210, 15692.00
266.1360, 15827.00
267.3520, 15716.00
268.5670, 15761.00
269.7820, 15807.00
270.9960, 15816.00
272.2110, 15605.00
273.4250, 15772.00
274.6400, 15559.00
275.8540, 15549.00
277.0680, 15724.00
278.2810, 15792.00
279.4950, 15872.00
280.7090, 15920.00
281.9220, 15960.00
283.1350, 15931.00
284.3480, 16065.00
285.5610, 16286.00
286.7730, 16468.00
287.9860, 16447.00
289.1980, 16692.00
290.4100, 17103.00
291.6220, 17602.00
292.8340, 17956.11
294.0460, 18402.00
295.2570, 18802.00
296.4690, 19212.00
297.6800, 19582.00
298.8910, 19573.00
300.1020, 19201.00
301.3120, 18771.00
302.5230, 18215.21
303.7330, 17724.10
304.9440, 17267.61
306.1540, 16850.88
307.3630, 16251.62
308.5730, 16147.81
309.7830, 16004.12
310.9920, 15967.47
312.2010, 15850.00
313.4100, 15623.00
314.6190, 15651.00
315.8280, 15470.00
317.0370, 15282.00
318.2450, 15477.00
319.4530, 15280.00
320.6610, 15357.00
321.8690, 15251.00
323.0770, 15437.00
324.2850, 15178.00
325.4920, 15192.00
326.6990, 15260.00
327.9060, 15001.00
329.1130, 15207.00
330.3200, 15105.00
331.5270, 15071.00
332.7330, 15096.00
333.9390, 15059.00
335.1450, 15142.00
336.3510, 15197.00
337.5570, 15267.00
338.7630, 15104.00
339.9680, 15219.00
341.1740, 15161.00
342.3790, 15212.00
343.5840, 15218.00
344.7890, 15102.00
345.9930, 15129.00
347.1980, 15173.00
348.4020, 15071.00
349.6060, 14991.00
350.8100, 15032.16
352.0140, 15168.00
353.2180, 15087.00
354.4210, 15159.00
355.6250, 15228.00
356.8280, 15255.00
358.0310, 15335.00
359.2340, 15284.00
360.4360, 15366.00
361.6390, 15249.00
362.8410, 15276.00
364.0430, 15385.00
365.2450, 15373.00
366.4470, 15409.00
367.6490, 15456.45
368.8510, 15466.00
370.0520, 15480.00
371.2530, 15591.00
372.4540, 15521.00
373.6550, 15559.00
374.8560, 15433.00
376.0560, 15767.00
377.2570, 15603.00
378.4570, 15981.00
379.6570, 15807.00
380.8570, 15997.00
382.0570, 15962.00
383.2560, 16074.00
384.4560, 16177.00
385.6550, 16199.00
386.8540, 16321.25
388.0530, 16563.00
389.2520, 16561.00
390.4510, 16683.00
391.6490, 16926.00
392.8470, 17211.00
394.0450, 17475.00
395.2430, 17975.00
396.4410, 18784.00
397.6390, 19086.00
398.8360, 20117.00
400.0340, 20431.00
401.2310, 21415.00
402.4280, 22615.00
403.6250, 23897.00
404.8210, 25510.00
406.0180, 27300.00
407.2140, 28842.00
408.4100, 30238.00
409.6060, 31335.00
410.8020, 31967.00
411.9980, 32349.00
413.1930, 30642.00
414.3890, 28773.00
415.5840, 27164.00
416.7790, 25284.00
417.9740, 23548.00
419.1680, 22308.00
420.3630, 21160.00
421.5570, 20214.00
422.7510, 19598.00
423.9450, 18960.37
425.1390, 18697.00
426.3330, 18362.00
427.5270, 18347.00
428.7200, 18116.71
429.9130, 17915.00
431.1060, 17836.00
432.2990, 17605.00
433.4920, 17379.00
434.6840, 17451.00
435.8770, 17236.00
437.0690, 17351.00
438.2610, 17344.00
439.4530, 17352.00
440.6450, 17421.00
441.8360, 17354.00
443.0280, 17257.00
444.2190, 17425.00
445.4100, 17204.00
446.6010, 17219.00
447.7920, 17280.00
448.9820, 17264.00
450.1730, 17271.00
451.3630, 17092.00
452.5530, 17255.00
453.7430, 17057.00
454.9330, 17305.00
456.1230, 17137.00
457.3120, 17183.00
458.5010, 17083.00
459.6910, 17229.00
460.8800, 17289.00
462.0680, 17306.00
463.2570, 17496.00
464.4460, 17358.00
465.6340, 17469.00
466.8220, 17385.00
468.0100, 17374.00
469.1980, 17428.00
470.3860, 17598.00
471.5730, 17692.00
472.7600, 17930.00
473.9480, 17907.89
475.1350, 18030.00
476.3210, 17951.00
477.5080, 18170.00
478.6950, 18341.00
479.8810, 18344.00
481.0670, 18189.00
482.2530, 18447.00
483.4390, 18737.00
484.6250, 18957.00
485.8100, 19409.00
486.9960, 19503.00
488.1810, 20027.00
489.3660, 20231.00
490.5510, 20571.00
491.7360, 21015.00
492.9200, 21230.00
494.1050, 21686.00
495.2890, 22095.00
496.4730, 22283.00
497.6570, 22537.00
498.8400, 22585.83
500.0240, 22826.82
501.2070, 22959.29
502.3910, 22986.02
503.5740, 22768.21
504.7570, 22479.00
505.9400, 22267.00
507.1220, 21731.00
508.3050, 21534.00
509.4870, 21447.00
510.6690, 21065.00
511.8510, 21288.00
513.0330, 21480.00
514.2140, 21628.00
515.3960, 21682.89
516.5770, 21814.85
517.7580, 21710.00
518.9390, 21901.00
520.1200, 21941.00
521.3010, 21819.00
522.4810, 22060.00
523.6610, 21847.00
524.8420, 21732.00
526.0220, 21694.00
527.2010, 21698.00
528.3810, 21810.00
529.5610, 21953.00
530.7400, 22094.00
531.9190, 22017.00
533.0980, 21351.00
534.2770, 21386.00
535.4560, 20904.00
536.6340, 20825.00
537.8120, 20931.00
538.9910, 20968.00
540.1690, 21453.00
541.3460, 21768.00
542.5240, 21848.00
543.7020, 21594.00
544.8790, 21525.00
546.0560, 21453.00
547.2330, 21618.00
548.4100, 21874.00
549.5870, 21852.00
550.7630, 21949.00
551.9400, 22090.00
553.1160, 22068.00
554.2920, 22120.00
555.4680, 22482.00
556.6440, 22776.00
557.8190, 22719.89
558.9950, 23097.81
560.1700, 23364.46
561.3450, 23523.55
562.5200, 23390.10
563.6950, 23529.52
564.8690, 23495.48
566.0440, 23410.44
567.2180, 23457.51
568.3920, 23131.26
569.5660, 23208.00
570.7400, 23385.00
571.9130, 23290.00
573.0870, 23111.00
574.2600, 22923.00
575.4330, 22567.00
576.6060, 22034.00
577.7790, 21499.00
578.9520, 20867.00
580.1240, 20248.00
581.2960, 19687.00
582.4690, 19140.00
583.6410, 18523.00
584.8120, 18129.00
585.9840, 17751.78
587.1560, 17487.00
588.3270, 17258.00
589.4980, 17008.00
590.6690, 16939.00
591.8400, 16903.00
593.0110, 16995.00
594.1810, 17067.45
595.3510, 17281.00
596.5220, 17394.00
597.6920, 17557.00
598.8610, 17802.00
600.0310, 18007.83
601.2010, 18323.00
602.3700, 18627.00
603.5390, 18884.58
604.7080, 19261.72
605.8770, 19595.35
607.0460, 19887.79
608.2140, 20015.46
609.3830, 20355.82
610.5510, 20610.82
611.7190, 20770.00
612.8870, 20654.00
614.0550, 20403.00
615.2220, 20077.00
616.3900, 19782.00
617.5570, 19458.00
618.7240, 18953.00
619.8910, 18427.00
621.0580, 18305.00
622.2240, 18057.00
623.3910, 17995.00
624.5570, 17668.00
625.7230, 17602.00
626.8890, 17312.00
628.0550, 17467.00
629.2200, 17269.00
630.3860, 17114.00
631.5510, 17125.00
632.7160, 17052.00
633.8810, 17195.00
635.0460, 17167.00
636.2100, 17187.00
637.3750, 16999.63
638.5390, 17084.59
639.7030, 17138.98
640.8670, 17165.14
642.0310, 17039.74
643.1950, 17139.72
644.3580, 17167.47
645.5210, 17204.65
646.6850, 17373.37
647.8480, 17336.54
649.0100, 17529.07
650.1730, 17517.00
651.3350, 17593.00
652.4980, 17715.47
653.6600, 17727.89
654.8220, 17821.00
655.9840, 17821.11
657.1450, 17873.31
658.3070, 17900.26
659.4680, 17903.03
660.6300, 17825.06
661.7910, 17839.19
662.9510, 17809.00
664.1120, 17771.90
665.2730, 17699.26
666.4330, 17785.00
667.5930, 17292.00
668.7530, 17492.00
669.9130, 17353.00
671.0730, 17514.00
672.2320, 17252.00
673.3920, 17277.00
674.5510, 16973.00
675.7100, 16923.08
676.8690, 16978.36
678.0280, 16990.12
679.1860, 16960.73
680.3450, 16766.79
681.5030, 16785.32
682.6610, 16718.72
683.8190, 16648.63
684.9770, 16697.07
686.1340, 16527.13
687.2920, 16573.69
688.4490, 16533.85
689.6060, 16536.00
690.7630, 16427.00
691.9200, 16456.85
693.0760, 16423.69
694.2330, 16426.00
695.3890, 16340.00
696.5450, 16370.00
697.7010, 16336.23
698.8570, 16304.00
700.0130, 16307.00
701.1680, 16290.00
702.3230, 16271.00
703.4780, 16283.00
704.6330, 16195.00
705.7880, 16333.00
706.9430, 16194.00
708.0970, 16221.00
709.2520, 16129.00
710.4060, 16103.00
711.5600, 15952.00
712.7140, 16212.00
713.8670, 16209.00
715.0210, 16136.00
716.1740, 16163.00
717.3270, 16084.00
718.4800, 16201.00
719.6330, 16047.00
720.7860, 16156.00
721.9380, 16015.00
723.0910, 16065.00
724.2430, 16020.00
725.3950, 16093.00
726.5470, 16090.00
727.6980, 15962.00
728.8500, 16025.00
730.0010, 15997.00
731.1530, 16132.00
732.3040, 16045.00
733.4550, 16040.00
734.6050, 16137.00
735.7560, 15935.00
736.9060, 15956.00
738.0560, 15979.00
739.2060, 15996.00
740.3560, 15866.00
741.5060, 15973.00
742.6560, 15922.00
743.8050, 16012.00
744.9540, 16074.00
746.1030, 15930.75
747.2520, 16020.85
748.4010, 16069.06
749.5500, 16077.71
750.6980, 15923.47
751.8460, 15983.28
752.9950, 15959.57
754.1420, 15933.99
755.2900, 16028.55
756.4380, 15906.32
757.5850, 16002.23
758.7330, 16013.33
759.8800, 16065.60
761.0270, 16033.81
762.1730, 16030.09
763.3200, 16113.68
764.4670, 16151.44
765.6130, 16104.95
766.7590, 16071.00
767.9050, 16140.00
769.0510, 16129.00
770.1960, 16160.48
771.3420, 16034.00
772.4870, 16107.00
773.6320, 16099.00
774.7770, 16086.00
775.9220, 16105.00
777.0670, 16085.58
778.2110, 16252.73
779.3560, 16345.12
780.5000, 16366.98
781.6440, 16096.29
782.7880, 16211.57
783.9320, 16177.20
785.0750, 16140.11
786.2180, 16319.95
787.3620, 16110.23
788.5050, 16293.85
789.6480, 16325.45
790.7900, 16431.81
791.9330, 16387.58
793.0750, 16394.52
794.2170, 16559.27
795.3590, 16642.19
796.5010, 16594.46
797.6430, 16462.00
798.7850, 16522.00
799.9260, 16728.00
801.0670, 16654.00
802.2080, 16648.00
803.3490, 16549.00
804.4900, 16798.00
805.6310, 16731.00
806.7710, 16936.00
807.9110, 16854.00
809.0510, 17048.00
810.1910, 16997.40
811.3310, 16945.88
812.4710, 17053.00
813.6100, 17000.58
814.7490, 17077.00
815.8880, 17013.00
817.0270, 16987.00
818.1660, 16992.00
819.3050, 17000.00
820.4430, 16913.00
821.5820, 16969.00
822.7200, 17159.00
823.8580, 16934.00
824.9950, 17062.00
826.1330, 16704.00
827.2710, 16871.00
828.4080, 16904.00
829.5450, 17018.00
830.6820, 16922.00
831.8190, 17000.00
832.9560, 16816.00
834.0920, 16707.00
835.2280, 16845.00
836.3650, 16868.00
837.5010, 16785.00
838.6360, 16835.00
839.7720, 16804.21
840.9080, 16872.97
842.0430, 16732.00
843.1780, 16761.20
844.3130, 16841.00
845.4480, 16705.00
846.5830, 16742.00
847.7170, 16685.00
848.8520, 16540.00
849.9860, 16712.00
851.1200, 16646.00
852.2540, 16768.00
853.3870, 16564.00
854.5210, 16808.00
855.6540, 16789.00
856.7880, 16670.00
857.9210, 16790.57
859.0540, 16700.50
860.1860, 16769.00
861.3190, 16689.00
862.4510, 16566.00
863.5840, 16661.00
864.7160, 16518.00
865.8480, 16589.00
866.9790, 16688.00
868.1110, 16688.21
869.2420, 16669.00
870.3740, 16847.00
871.5050, 16624.00
872.6360, 16706.00
873.7660, 16705.00
874.8970, 16616.00
876.0280, 16786.00
877.1580, 16670.00
878.2880, 16701.00
879.4180, 16592.00
880.5480, 16740.00
881.6770, 16821.00
882.8070, 16652.00
883.9360, 16728.00
885.0650, 16918.00
886.1940, 16834.00
887.3230, 16906.91
888.4520, 16796.00
889.5800, 16899.00
890.7090, 16695.00
891.8370, 16680.00
892.9650, 16857.00
894.0930, 16846.00
895.2200, 16853.00
896.3480, 16832.00
897.4750, 16837.26
898.6020, 16776.00
899.7290, 16867.00
900.8560, 16967.00
901.9830, 17051.00
903.1090, 17024.00
904.2360, 16907.00
905.3620, 16895.00
906.4880, 16869.00
907.6140, 17033.00
908.7400, 17081.00
909.8650, 17014.00
910.9900, 16978.00
912.1160, 17078.00
913.2410, 17077.00
914.3660, 16909.00
915.4900, 17081.00
916.6150, 16998.00
917.7390, 17036.78
918.8640, 17155.80
919.9880, 17225.85
921.1120, 17249.58
922.2350, 17088.22
923.3590, 17165.86
924.4820, 17147.71
925.6060, 17125.64
926.7290, 17236.91
927.8520, 17015.00
928.9740, 17077.00
930.0970, 17214.00
931.2190, 17207.00
932.3420, 17158.00
933.4640, 17102.00
934.5860, 17332.00
935.7080, 17213.00
936.8290, 17437.00
937.9510, 17435.00
939.0720, 17186.00
940.1930, 17431.00
941.3140, 17470.00
942.4350, 17362.00
943.5560, 17182.00
944.6760, 17475.00
945.7960, 17531.00
946.9170, 17461.00
948.0370, 17486.00
949.1560, 17465.02
950.2760, 17495.00
951.3960, 17468.00
952.5150, 17323.00
953.6340, 17413.00
954.7530, 17597.00
955.8720, 17494.00
956.9910, 17282.00
958.1090, 17536.00
959.2280, 17332.00
960.3460, 17383.00
961.4640, 17510.00
962.5820, 17477.00
963.6990, 17319.00
964.8170, 17460.00
965.9340, 17451.00
967.0510, 17402.00
968.1690, 17596.00
969.2850, 17452.00
970.4020, 17489.00
971.5190, 17398.00
972.6350, 17486.00
973.7510, 17475.05
974.8670, 17540.69
975.9830, 17657.49
977.0990, 17725.34
978.2150, 17746.86
979.3300, 17583.29
980.4450, 17658.71
981.5600, 17638.36
982.6750, 17614.08
983.7900, 17723.14
984.9050, 17586.49
986.0190, 17693.43
987.1340, 17703.14
988.2480, 17757.35
989.3620, 17715.19
990.4750, 17702.79
991.5890, 17786.79
992.7020, 17817.41
993.8160, 17764.15
994.9290, 17821.19
996.0420, 17681.16
997.1550, 17714.05
998.2670, 17821.55
999.3800, 17773.14
1000.492, 17831.93
1001.604, 17849.89
1002.716, 17682.28
1003.828, 17837.39
1004.940, 17898.00
1006.051, 17706.00
1007.163, 17871.00
1008.274, 18071.00
1009.385, 17967.00
1010.496, 18019.00
1011.606, 18098.00
1012.717, 18004.00
1013.827, 17969.00
1014.937, 18015.00
1016.047, 18096.00
1017.157, 18060.00
1018.267, 18195.00
1019.377, 17967.82
1020.486, 18144.16
1021.595, 18271.54
1022.704, 18352.59
1023.813, 18248.56
1024.922, 18383.53
1026.030, 18422.66
1027.139, 18457.92
1028.247, 18626.46
1029.355, 18549.30
1030.463, 18715.73
1031.571, 18784.93
1032.678, 18812.00
1033.786, 18743.00
1034.893, 18855.00
1036.000, 18955.00
1037.107, 18896.00
1038.214, 19020.00
1039.321, 18898.00
1040.427, 19074.00
1041.533, 19069.00
1042.639, 19207.00
1043.745, 19102.00
1044.851, 19130.00
1045.957, 19196.00
1047.062, 19128.00
1048.168, 19141.00
1049.273, 19203.28
1050.378, 19142.00
1051.482, 19294.00
1052.587, 19344.00
1053.692, 19168.17
1054.796, 19323.44
1055.900, 19413.43
1057.004, 19441.66
1058.108, 19223.10
1059.212, 19323.21
1060.315, 19295.61
1061.418, 19262.77
1062.522, 19407.72
1063.625, 19225.06
1064.728, 19367.19
1065.830, 19379.66
1066.933, 19451.48
1068.035, 19394.80
1069.137, 19377.81
1070.239, 19506.00
1071.341, 19302.00
1072.443, 19513.00
1073.545, 19487.00
1074.646, 19305.00
1075.747, 19430.00
1076.848, 19384.00
1077.949, 19391.00
1079.050, 19236.00
1080.150, 19469.00
1081.251, 19319.00
1082.351, 19372.00
1083.451, 19446.00
1084.551, 19379.00
1085.651, 19347.00
1086.750, 19394.00
1087.850, 19423.00
1088.949, 19468.00
1090.048, 19446.00
1091.147, 19409.00
1092.246, 19529.00
1093.345, 19508.00
1094.443, 19441.00
1095.541, 19599.00
1096.639, 19536.00
1097.737, 19395.00
1098.835, 19448.00
1099.933, 19614.00
1101.030, 19521.00
1102.128, 19554.00
1103.225, 19423.00
1104.322, 19342.00
1105.419, 19399.00
1106.515, 19286.00
1107.612, 19614.00
1108.708, 19331.00
1109.804, 19513.00
1110.900, 19471.00
1111.996, 19386.73
1113.092, 19492.00
1114.187, 19360.00
1115.283, 19305.00
1116.378, 19430.00
1117.473, 19264.00
1118.568, 19376.00
1119.662, 19466.00
1120.757, 19170.00
1121.851, 19212.00
1122.946, 19244.00
1124.040, 19290.00
1125.134, 19026.00
1126.227, 19136.00
1127.321, 19146.00
1128.414, 19344.00
1129.508, 19304.00
1130.601, 19041.00
1131.693, 19192.00
1132.786, 19100.00
1133.879, 19091.00
1134.971, 19126.00
1136.064, 19059.00
1137.156, 18984.00
1138.248, 18992.00
1139.339, 18995.00
1140.431, 18941.00
1141.522, 19125.00
1142.614, 19015.00
1143.705, 19096.00
1144.796, 18908.00
1145.887, 18980.00
1146.977, 19018.00
1148.068, 19293.00
1149.158, 19199.00
1150.248, 19109.00
1151.338, 19104.00
1152.428, 18997.00
1153.518, 19231.00
1154.607, 19342.00
1155.696, 19167.00
1156.785, 19133.00
1157.874, 19213.00
1158.963, 19235.00
1160.052, 19225.00
1161.141, 19259.00
1162.229, 19467.00
1163.317, 19508.00
1164.405, 19258.00
1165.493, 19284.00
1166.581, 19545.00
1167.668, 19373.00
1168.756, 19508.00
1169.843, 19517.00
1170.930, 19504.00
1172.017, 19695.00
1173.103, 19662.00
1174.190, 19828.00
1175.276, 19888.00
1176.363, 19718.00
1177.449, 19849.00
1178.535, 19817.00
1179.620, 19776.00
1180.706, 20104.00
1181.791, 19881.00
1182.877, 20029.00
1183.962, 20006.00
1185.047, 20169.00
1186.131, 20130.00
1187.216, 20189.00
1188.300, 20256.00
1189.385, 20207.00
1190.469, 20185.00
1191.553, 20313.00
1192.637, 20278.00
1193.720, 20166.00
1194.804, 20535.00
1195.887, 20416.82
1196.970, 20632.00
1198.053, 20487.00
1199.136, 20503.00
1200.219, 20544.00
1201.301, 20622.00
1202.383, 20612.00
1203.465, 20564.00
1204.547, 20739.00
1205.629, 20719.00
1206.711, 20877.00
1207.792, 20871.83
1208.874, 20860.75
1209.955, 20867.00
1211.036, 20810.00
1212.117, 20803.00
1213.198, 20814.75
1214.278, 21014.00
1215.359, 21166.00
1216.439, 20954.00
1217.519, 21193.00
1218.599, 21090.00
1219.678, 21212.00
1220.758, 21342.00
1221.837, 21244.00
1222.917, 21373.00
1223.996, 21388.00
1225.075, 21385.00
1226.153, 21533.00
1227.232, 21556.79
1228.310, 21568.00
1229.389, 21627.00
1230.467, 21670.64
1231.545, 21721.00
1232.622, 21853.00
1233.700, 21874.84
1234.777, 22005.32
1235.855, 22102.62
1236.932, 22169.00
1238.009, 22081.17
1239.086, 22216.08
1240.162, 22276.07
1241.239, 22342.94
1242.315, 22538.53
1243.391, 22526.00
1244.467, 22740.29
1245.543, 22878.41
1246.619, 22843.03
1247.694, 23081.71
1248.769, 23250.85
1249.844, 23432.06
1250.919, 23747.37
1251.994, 23859.87
1253.069, 24204.46
1254.144, 24285.00
1255.218, 24369.00
1256.292, 24413.00
1257.366, 24605.48
1258.440, 24747.00
1259.514, 25025.00
1260.587, 25109.00
1261.661, 25362.00
1262.734, 25599.00
1263.807, 25694.00
1264.880, 26013.00
1265.952, 26128.00
1267.025, 26352.00
1268.097, 26377.00
1269.170, 26791.00
1270.242, 26803.00
1271.314, 26824.00
1272.385, 27045.00
1273.457, 27392.00
1274.528, 27514.55
1275.600, 27677.00
1276.671, 27987.00
1277.742, 28173.00
1278.812, 28461.00
1279.883, 28400.00
1280.954, 28759.00
1282.024, 28903.00
1283.094, 29004.03
1284.164, 29335.58
1285.234, 29623.84
1286.303, 29872.06
1287.373, 29895.68
1288.442, 30259.64
1289.511, 30517.82
1290.580, 30792.69
1291.649, 31267.31
1292.718, 31436.19
1293.786, 31951.44
1294.855, 32359.29
1295.923, 32848.01
1296.991, 32846.00
1298.059, 33635.00
1299.126, 33808.00
1300.194, 34213.00
1301.261, 34644.00
1302.328, 35138.00
1303.395, 35541.86
1304.462, 35987.62
1305.529, 36418.00
1306.596, 36812.00
1307.662, 37271.00
1308.728, 37621.00
1309.794, 38003.21
1310.860, 38427.00
1311.926, 38702.00
1312.991, 38909.00
1314.057, 39365.51
1315.122, 39615.71
1316.187, 39781.53
1317.252, 39865.60
1318.317, 39729.16
1319.381, 39796.32
1320.446, 39732.28
1321.510, 39628.98
1322.574, 39623.68
1323.638, 39337.30
1324.702, 38966.00
1325.766, 38428.00
1326.829, 38261.00
1327.892, 37747.00
1328.956, 37513.00
1330.019, 36959.00
1331.081, 36404.00
1332.144, 35720.00
1333.206, 35284.00
1334.269, 35105.00
1335.331, 34373.00
1336.393, 34025.00
1337.455, 33327.00
1338.516, 33057.00
1339.578, 32515.00
1340.639, 32131.00
1341.701, 31589.00
1342.762, 30984.00
1343.822, 30608.00
1344.883, 30062.00
1345.944, 29961.00
1347.004, 29386.00
1348.064, 29024.00
1349.124, 28712.00
1350.184, 28318.00
1351.244, 27860.00
1352.304, 27744.00
1353.363, 27467.00
1354.422, 27006.00
1355.481, 26774.00
1356.540, 26691.00
1357.599, 26311.00
1358.657, 26100.26
1359.716, 25931.00
1360.774, 25548.00
1361.832, 25249.00
1362.890, 25019.00
1363.948, 25029.00
1365.006, 24721.00
1366.063, 24602.00
1367.120, 24251.00
1368.178, 24183.00
1369.234, 23930.00
1370.291, 24019.00
1371.348, 23514.00
1372.404, 23493.00
1373.461, 23292.00
1374.517, 23346.00
1375.573, 22898.00
1376.629, 22995.00
1377.684, 22750.00
1378.740, 22797.00
1379.795, 22722.00
1380.850, 22475.00
1381.905, 22247.00
1382.960, 22026.91
1384.015, 22065.53
1385.070, 22060.64
1386.124, 22014.62
1387.178, 21804.09
1388.232, 21805.99
1389.286, 21722.77
1390.340, 21636.05
1391.393, 21667.92
1392.447, 21481.31
1393.500, 21511.29
1394.553, 21454.84
1395.606, 21437.95
1396.659, 21335.39
1397.711, 21259.36
1398.764, 21268.95
1399.816, 21231.16
1400.868, 21118.80
1401.920, 21104.48
1402.972, 20915.00
1404.023, 20879.29
1405.075, 20909.83
1406.126, 20735.22
1407.177, 20783.43
1408.228, 20775.00
1409.279, 20714.13
1410.330, 20378.83
1411.380, 20447.64
1412.431, 20384.84
1413.481, 20365.29
1414.531, 20296.12
1415.580, 20220.69
1416.630, 20358.59
1417.680, 20103.34
1418.729, 20237.88
1419.778, 20216.83
1420.827, 20266.99
1421.876, 20248.00
1422.925, 20138.00
1423.973, 20186.00
1425.022, 20122.00
1426.070, 20098.00
1427.118, 20131.00
1428.166, 20122.00
1429.214, 20115.53
1430.261, 20061.00
1431.309, 20086.00
1432.356, 19992.00
1433.403, 19941.00
1434.450, 19847.00
1435.497, 19892.00
1436.543, 20005.00
1437.590, 20017.00
1438.636, 19873.00
1439.682, 20140.00
1440.728, 19948.00
1441.774, 20043.00
1442.819, 19956.00
1443.865, 19924.00
1444.910, 20063.00
1445.955, 19857.00
1447.000, 19881.00
1448.045, 19968.00
1449.090, 19886.00
1450.134, 20018.00
1451.178, 19904.00
1452.223, 19883.00
1453.267, 19827.00
1454.310, 19875.00
1455.354, 19840.20
1456.398, 19830.20
1457.441, 19843.00
1458.484, 19813.00
1459.527, 19841.00
1460.570, 19856.00
1461.613, 19814.00
1462.655, 20048.00
1463.698, 19886.00
1464.740, 19988.00
1465.782, 19895.00
1466.824, 19795.00
1467.866, 19801.00
1468.907, 19851.00
1469.948, 19792.00
1470.990, 19878.00
1472.031, 19968.00
1473.072, 19802.00
1474.112, 19842.00
1475.153, 19829.00
1476.194, 19682.00
1477.234, 19909.00
1478.274, 19929.00
1479.314, 19745.00
1480.354, 19840.00
1481.393, 19845.00
1482.433, 19735.00
1483.472, 19913.00
1484.511, 19880.00
1485.550, 19689.00
1486.589, 19835.00
1487.628, 19855.00
1488.666, 19871.00
1489.704, 19772.00
1490.743, 19702.46
1491.781, 19876.25
1492.819, 19971.71
1493.856, 19993.05
1494.894, 19718.25
1495.931, 19825.86
1496.968, 19780.21
1498.005, 19728.29
1499.042, 19889.71
1500.079, 19657.99
1501.115, 19816.03
1502.152, 19818.49
1503.188, 19892.16
1504.224, 19811.63
1505.260, 19778.73
1506.296, 19900.07
1507.331, 19936.01
1508.367, 19837.74
1509.402, 19915.94
1510.437, 19678.84
1511.472, 19718.42
1512.507, 19902.00
1513.541, 19684.00
1514.576, 19679.00
1515.610, 19911.00
1516.644, 19587.00
1517.678, 19806.00
1518.712, 19933.00
1519.746, 19797.00
1520.779, 19893.00
1521.813, 19766.00
1522.846, 19811.00
1523.879, 19668.00
1524.912, 19766.00
1525.944, 19643.00
1526.977, 19931.00
1528.009, 19553.00
1529.041, 19775.00
1530.073, 19850.00
1531.105, 19748.42
1532.137, 20054.00
1533.168, 19784.00
1534.200, 19718.00
1535.231, 19793.00
1536.262, 19872.00
1537.293, 19665.00
1538.324, 19927.00
1539.354, 19812.77
1540.385, 19783.63
1541.415, 19874.71
1542.445, 19922.27
1543.475, 19928.65
1544.505, 19770.51
1545.534, 19824.82
1546.564, 19793.98
1547.593, 19759.67
1548.622, 19843.88
1549.651, 19709.68
1550.680, 19792.01
1551.708, 19787.91
1552.737, 19823.37
1553.765, 19773.17
1554.793, 19749.42
1555.821, 19811.37
1556.849, 19825.88
1557.877, 19765.81
1558.904, 19803.80
1559.932, 19666.61
1560.959, 19683.14
1561.986, 19765.99
1563.013, 19710.25
1564.039, 19749.81
1565.066, 19753.06
1566.092, 19591.38
1567.119, 19592.00
1568.145, 19569.00
1569.170, 19497.00
1570.196, 19602.00
1571.222, 19759.00
1572.247, 19762.76
1573.272, 19655.00
1574.297, 19791.00
1575.322, 19715.00
1576.347, 19481.00
1577.372, 20010.00
##END=



