##NAMES=Hematite
##RRUFFID=R040024
##IDEAL CHEMISTRY=Fe^3+^_2_O_3_
##LOCALITY=near Covered Wells, Papago Indian Reservation, Arizona, USA
##OWNER=RRUFF
##SOURCE=University of Arizona Mineral Museum
##DESCRIPTION=Reddish-black foliatated mass
##STATUS=The identification of this mineral has been confirmed by X-ray diffraction and chemical analysis
##URL=rruff.info/R040024
##MEASURED CHEMISTRY=(Fe_1.99_Al_0.01_)_Î£=2_O_3_
##PIN_ID=M00584
##ORIENTATION=Laser parallel to c* (0 0 1). Fiducial mark perpendicular to laser is parallel to b [0 1 0]
99.34400, 10251.00
100.5810, 10398.00
101.8190, 10387.00
103.0560, 10492.00
104.2930, 10713.00
105.5290, 11456.00
106.7660, 11539.83
108.0020, 12620.00
109.2390, 12251.00
110.4750, 12290.00
111.7110, 12869.00
112.9460, 14611.00
114.1820, 17090.00
115.4170, 18409.00
116.6530, 19819.00
117.8880, 20389.00
119.1230, 20256.00
120.3580, 18589.00
121.5920, 16936.00
122.8270, 15131.00
124.0610, 13514.00
125.2950, 12714.00
126.5290, 12241.00
127.7630, 12296.00
128.9970, 12246.00
130.2300, 12111.00
131.4640, 12180.00
132.6970, 11898.00
133.9300, 11772.00
135.1630, 11860.00
136.3950, 11869.00
137.6280, 11947.00
138.8600, 12013.61
140.0920, 12019.93
141.3240, 12103.00
142.5560, 11939.00
143.7880, 11842.00
145.0190, 11550.00
146.2510, 11791.00
147.4820, 11886.00
148.7130, 11626.00
149.9440, 11639.00
151.1750, 11528.00
152.4050, 11558.00
153.6360, 11618.00
154.8660, 11845.00
156.0960, 11867.00
157.3260, 11545.16
158.5560, 11748.02
159.7850, 11864.93
161.0150, 11900.53
162.2440, 11611.21
163.4730, 11741.44
164.7020, 11703.53
165.9310, 11658.73
167.1590, 11848.00
168.3880, 11605.94
169.6160, 11791.50
170.8440, 11806.36
172.0720, 11899.35
173.3000, 11823.16
174.5280, 11799.22
175.7550, 11944.51
176.9820, 11996.10
178.2100, 11900.43
179.4370, 11998.38
180.6630, 11750.39
181.8900, 11805.97
183.1170, 11992.51
184.3430, 11905.35
185.5690, 12006.38
186.7950, 12035.74
188.0210, 11739.35
189.2470, 12009.46
190.4720, 12034.58
191.6970, 11945.00
192.9230, 12052.00
194.1480, 12049.00
195.3730, 12123.00
196.5970, 12083.00
197.8220, 12140.00
199.0460, 12146.00
200.2700, 12190.00
201.4940, 12216.00
202.7180, 12205.00
203.9420, 12030.00
205.1660, 12010.00
206.3890, 11956.00
207.6120, 11912.00
208.8350, 12028.00
210.0580, 12066.00
211.2810, 12129.00
212.5040, 12259.00
213.7260, 12411.00
214.9480, 13075.00
216.1700, 13057.00
217.3920, 13599.00
218.6140, 14265.00
219.8360, 15483.00
221.0570, 17016.00
222.2790, 18126.00
223.5000, 19000.00
224.7210, 19211.00
225.9410, 18922.00
227.1620, 17628.00
228.3820, 16252.00
229.6030, 14799.00
230.8230, 13853.00
232.0430, 13170.00
233.2630, 12836.00
234.4820, 12695.00
235.7020, 12744.00
236.9210, 12715.00
238.1400, 12899.00
239.3590, 13061.00
240.5780, 13126.00
241.7970, 13469.00
243.0150, 13626.00
244.2340, 13850.00
245.4520, 13949.17
246.6700, 14017.09
247.8880, 13937.72
249.1060, 13713.33
250.3230, 13224.26
251.5400, 12759.40
252.7580, 12683.37
253.9750, 12574.26
255.1920, 12434.21
256.4080, 12143.33
257.6250, 12068.13
258.8410, 11919.31
260.0580, 11776.10
261.2740, 11757.41
262.4900, 11535.34
263.7050, 11533.09
264.9210, 11455.77
266.1360, 11426.10
267.3520, 11265.00
268.5670, 11268.00
269.7820, 11356.00
270.9960, 11328.00
272.2110, 11339.31
273.4250, 11312.00
274.6400, 11339.00
275.8540, 11281.00
277.0680, 11332.00
278.2810, 11347.00
279.4950, 11537.00
280.7090, 11573.00
281.9220, 11800.00
283.1350, 12021.00
284.3480, 12010.00
285.5610, 12136.00
286.7730, 12404.00
287.9860, 12635.09
289.1980, 12907.92
290.4100, 13389.00
291.6220, 13660.00
292.8340, 14178.00
294.0460, 14867.00
295.2570, 15309.00
296.4690, 15452.00
297.6800, 15708.00
298.8910, 15467.00
300.1020, 15095.00
301.3120, 14576.00
302.5230, 14219.00
303.7330, 13752.35
304.9440, 13322.50
306.1540, 12870.00
307.3630, 12544.00
308.5730, 12147.00
309.7830, 11916.00
310.9920, 11996.00
312.2010, 11705.00
313.4100, 11523.00
314.6190, 11548.00
315.8280, 11368.00
317.0370, 11347.00
318.2450, 11282.00
319.4530, 11239.00
320.6610, 11291.00
321.8690, 11158.00
323.0770, 11233.00
324.2850, 11033.00
325.4920, 11234.00
326.6990, 11043.00
327.9060, 11090.00
329.1130, 11016.00
330.3200, 11143.00
331.5270, 11034.00
332.7330, 11061.00
333.9390, 11026.00
335.1450, 11146.00
336.3510, 11186.00
337.5570, 11091.00
338.7630, 11056.00
339.9680, 11037.00
341.1740, 10983.91
342.3790, 11155.00
343.5840, 10858.00
344.7890, 11106.00
345.9930, 10923.00
347.1980, 11105.00
348.4020, 11078.00
349.6060, 11129.00
350.8100, 11043.00
352.0140, 11150.00
353.2180, 11273.00
354.4210, 11262.00
355.6250, 11312.36
356.8280, 11358.73
358.0310, 11302.00
359.2340, 11372.00
360.4360, 11364.00
361.6390, 11260.00
362.8410, 11207.00
364.0430, 11435.00
365.2450, 11341.00
366.4470, 11533.00
367.6490, 11483.00
368.8510, 11514.00
370.0520, 11669.00
371.2530, 11518.00
372.4540, 11740.00
373.6550, 11795.00
374.8560, 11759.00
376.0560, 11831.00
377.2570, 11901.00
378.4570, 11865.22
379.6570, 11987.96
380.8570, 12091.13
382.0570, 12177.02
383.2560, 12125.53
384.4560, 12303.55
385.6550, 12421.39
386.8540, 12558.57
388.0530, 12833.79
389.2520, 12919.26
390.4510, 13238.12
391.6490, 13495.40
392.8470, 13795.00
394.0450, 14234.00
395.2430, 14679.00
396.4410, 15330.00
397.6390, 16161.00
398.8360, 17283.00
400.0340, 18389.84
401.2310, 19786.45
402.4280, 21142.00
403.6250, 22790.00
404.8210, 24480.00
406.0180, 25906.00
407.2140, 27236.00
408.4100, 27942.00
409.6060, 28049.00
410.8020, 27784.00
411.9980, 26789.00
413.1930, 25394.00
414.3890, 23914.00
415.5840, 21944.00
416.7790, 20223.00
417.9740, 19008.00
419.1680, 17687.00
420.3630, 16619.00
421.5570, 15934.00
422.7510, 15352.00
423.9450, 14939.00
425.1390, 14452.00
426.3330, 14092.00
427.5270, 13959.00
428.7200, 13707.70
429.9130, 13389.00
431.1060, 13465.00
432.2990, 13135.00
433.4920, 12951.71
434.6840, 12915.99
435.8770, 12912.00
437.0690, 12767.00
438.2610, 12797.75
439.4530, 12858.20
440.6450, 12876.31
441.8360, 12854.39
443.0280, 12672.39
444.2190, 12697.09
445.4100, 12638.97
446.6010, 12577.45
447.7920, 12631.25
448.9820, 12730.00
450.1730, 12571.00
451.3630, 12624.00
452.5530, 12575.00
453.7430, 12532.00
454.9330, 12590.00
456.1230, 12560.00
457.3120, 12757.00
458.5010, 12649.47
459.6910, 12729.16
460.8800, 12545.00
462.0680, 12738.00
463.2570, 12752.00
464.4460, 12655.00
465.6340, 12917.00
466.8220, 12860.00
468.0100, 12841.00
469.1980, 12838.00
470.3860, 12806.00
471.5730, 13041.00
472.7600, 12935.00
473.9480, 13099.00
475.1350, 13163.00
476.3210, 13268.00
477.5080, 13076.00
478.6950, 13262.00
479.8810, 13374.00
481.0670, 13418.00
482.2530, 13798.00
483.4390, 13970.00
484.6250, 14120.00
485.8100, 14233.00
486.9960, 14523.00
488.1810, 14843.00
489.3660, 15640.93
490.5510, 15943.70
491.7360, 16204.14
492.9200, 16424.35
494.1050, 16484.68
495.2890, 16673.83
496.4730, 16992.61
497.6570, 17213.54
498.8400, 17338.81
500.0240, 17248.62
501.2070, 17309.62
502.3910, 17232.30
503.5740, 17096.18
504.7570, 17019.95
505.9400, 16675.80
507.1220, 16523.33
508.3050, 16026.58
509.4870, 15628.94
510.6690, 15636.00
511.8510, 15472.00
513.0330, 15417.00
514.2140, 15340.00
515.3960, 15084.00
516.5770, 15052.00
517.7580, 14958.00
518.9390, 14916.00
520.1200, 14872.00
521.3010, 14925.00
522.4810, 15157.00
523.6610, 14800.00
524.8420, 14974.00
526.0220, 15068.00
527.2010, 14901.00
528.3810, 15175.00
529.5610, 15980.00
530.7400, 15813.00
531.9190, 15998.60
533.0980, 15695.00
534.2770, 15830.00
535.4560, 15542.00
536.6340, 15402.00
537.8120, 15576.24
538.9910, 15657.00
540.1690, 15944.00
541.3460, 15843.00
542.5240, 16166.00
543.7020, 15677.00
544.8790, 15874.00
546.0560, 15764.00
547.2330, 15447.13
548.4100, 15183.00
549.5870, 15031.00
550.7630, 15230.00
551.9400, 15313.00
553.1160, 15343.00
554.2920, 15289.00
555.4680, 15473.00
556.6440, 15391.00
557.8190, 15388.00
558.9950, 15607.00
560.1700, 15524.00
561.3450, 15720.00
562.5200, 15788.00
563.6950, 15824.00
564.8690, 16055.00
566.0440, 16217.00
567.2180, 15915.00
568.3920, 15783.00
569.5660, 15950.00
570.7400, 16079.00
571.9130, 15960.00
573.0870, 15752.00
574.2600, 15601.00
575.4330, 15437.26
576.6060, 15354.00
577.7790, 15120.00
578.9520, 15072.00
580.1240, 14958.00
581.2960, 14727.00
582.4690, 14349.00
583.6410, 14296.00
584.8120, 14108.00
585.9840, 13857.00
587.1560, 13836.00
588.3270, 13930.00
589.4980, 13908.00
590.6690, 13870.00
591.8400, 13979.00
593.0110, 14117.00
594.1810, 14387.00
595.3510, 14489.00
596.5220, 14658.00
597.6920, 14986.00
598.8610, 15168.00
600.0310, 15608.00
601.2010, 16003.06
602.3700, 16344.03
603.5390, 16800.00
604.7080, 17090.00
605.8770, 17360.18
607.0460, 17412.00
608.2140, 17779.00
609.3830, 17852.00
610.5510, 17988.00
611.7190, 17804.00
612.8870, 17456.00
614.0550, 17126.00
615.2220, 16840.00
616.3900, 16469.00
617.5570, 16213.00
618.7240, 15888.00
619.8910, 15741.00
621.0580, 15382.21
622.2240, 15199.00
623.3910, 14845.00
624.5570, 14770.00
625.7230, 14743.00
626.8890, 14728.00
628.0550, 14623.29
629.2200, 14361.00
630.3860, 14440.00
631.5510, 14359.00
632.7160, 14279.00
633.8810, 14433.00
635.0460, 14367.00
636.2100, 14411.00
637.3750, 14377.00
638.5390, 14388.00
639.7030, 14425.89
640.8670, 14544.00
642.0310, 14513.00
643.1950, 14479.19
644.3580, 14645.75
645.5210, 14778.12
646.6850, 14878.64
647.8480, 14827.18
649.0100, 14990.45
650.1730, 15079.11
651.3350, 15172.42
652.4980, 15389.27
653.6600, 15401.66
654.8220, 15632.84
655.9840, 15589.00
657.1450, 15663.41
658.3070, 15683.00
659.4680, 15693.00
660.6300, 15659.00
661.7910, 15629.00
662.9510, 15499.00
664.1120, 15464.00
665.2730, 15363.00
666.4330, 15195.00
667.5930, 15169.00
668.7530, 15074.35
669.9130, 14975.01
671.0730, 14880.45
672.2320, 14792.14
673.3920, 14636.06
674.5510, 14497.00
675.7100, 14334.00
676.8690, 14223.00
678.0280, 14220.00
679.1860, 14082.00
680.3450, 14065.00
681.5030, 14011.00
682.6610, 13713.00
683.8190, 13798.00
684.9770, 13740.00
686.1340, 13786.00
687.2920, 13864.00
688.4490, 13748.00
689.6060, 13750.00
690.7630, 13629.00
691.9200, 13577.00
693.0760, 13635.00
694.2330, 13607.00
695.3890, 13605.71
696.5450, 13636.00
697.7010, 13621.00
698.8570, 13614.00
700.0130, 13671.00
701.1680, 13616.07
702.3230, 13475.00
703.4780, 13491.00
704.6330, 13563.00
705.7880, 13390.00
706.9430, 13417.00
708.0970, 13341.00
709.2520, 13282.25
710.4060, 13406.00
711.5600, 13252.00
712.7140, 13236.00
713.8670, 13334.00
715.0210, 13256.00
716.1740, 13262.00
717.3270, 13229.00
718.4800, 13189.00
719.6330, 13131.00
720.7860, 13064.00
721.9380, 13132.00
723.0910, 13104.48
724.2430, 13216.00
725.3950, 13140.00
726.5470, 13127.00
727.6980, 13113.00
728.8500, 13006.00
730.0010, 12990.00
731.1530, 12929.00
732.3040, 13034.00
733.4550, 12920.00
734.6050, 12904.00
735.7560, 13110.00
736.9060, 12921.00
738.0560, 12880.00
739.2060, 12835.00
740.3560, 12939.00
741.5060, 13007.00
742.6560, 12921.00
743.8050, 13005.00
744.9540, 13042.19
746.1030, 13013.00
747.2520, 13046.36
748.4010, 13026.00
749.5500, 13009.00
750.6980, 12936.00
751.8460, 12863.00
752.9950, 13012.00
754.1420, 12889.00
755.2900, 12943.00
756.4380, 13037.00
757.5850, 12933.00
758.7330, 12979.00
759.8800, 12834.00
761.0270, 12765.00
762.1730, 13064.00
763.3200, 12952.00
764.4670, 12840.00
765.6130, 13099.00
766.7590, 13026.00
767.9050, 13004.00
769.0510, 13018.00
770.1960, 13005.57
771.3420, 12972.00
772.4870, 13017.00
773.6320, 13008.72
774.7770, 13083.00
775.9220, 13037.00
777.0670, 13088.00
778.2110, 13093.00
779.3560, 12819.00
780.5000, 13248.00
781.6440, 13380.00
782.7880, 13151.00
783.9320, 13273.00
785.0750, 13256.00
786.2180, 13368.00
787.3620, 13365.00
788.5050, 13430.00
789.6480, 13515.00
790.7900, 13413.00
791.9330, 13493.00
793.0750, 13317.00
794.2170, 13536.00
795.3590, 13525.00
796.5010, 13517.27
797.6430, 13934.00
798.7850, 13589.00
799.9260, 13741.00
801.0670, 13899.00
802.2080, 13761.55
803.3490, 13607.00
804.4900, 13777.00
805.6310, 13779.00
806.7710, 13847.00
807.9110, 13986.00
809.0510, 14010.00
810.1910, 14175.00
811.3310, 14077.00
812.4710, 13996.00
813.6100, 13984.00
814.7490, 14093.00
815.8880, 14058.00
817.0270, 13941.67
818.1660, 14128.08
819.3050, 14229.80
820.4430, 14251.41
821.5820, 13952.90
822.7200, 14067.76
823.8580, 14016.96
824.9950, 13959.37
826.1330, 14132.40
827.2710, 13880.46
828.4080, 14049.84
829.5450, 14051.04
830.6820, 14129.21
831.8190, 14183.00
832.9560, 13913.00
834.0920, 13858.00
835.2280, 14071.00
836.3650, 13886.00
837.5010, 13900.00
838.6360, 14153.00
839.7720, 13957.00
840.9080, 13946.00
842.0430, 14002.00
843.1780, 13871.00
844.3130, 13832.00
845.4480, 13913.00
846.5830, 13783.00
847.7170, 13901.00
848.8520, 13791.00
849.9860, 13944.00
851.1200, 13669.00
852.2540, 13865.00
853.3870, 13706.93
854.5210, 13861.42
855.6540, 13946.08
856.7880, 13964.66
857.9210, 13719.28
859.0540, 13814.76
860.1860, 13773.65
861.3190, 13726.92
862.4510, 13870.38
863.5840, 13663.40
864.7160, 13803.84
865.8480, 13805.60
866.9790, 13870.84
868.1110, 13798.62
869.2420, 13768.87
870.3740, 13951.00
871.5050, 13715.00
872.6360, 13931.00
873.7660, 13931.00
874.8970, 13887.00
876.0280, 13935.00
877.1580, 13881.00
878.2880, 13869.00
879.4180, 13863.00
880.5480, 13784.00
881.6770, 13950.00
882.8070, 13813.00
883.9360, 13828.00
885.0650, 13981.00
886.1940, 13903.00
887.3230, 13993.68
888.4520, 14061.00
889.5800, 14047.00
890.7090, 14075.00
891.8370, 14029.00
892.9650, 14038.00
894.0930, 14098.00
895.2200, 14051.12
896.3480, 14086.19
897.4750, 14025.00
898.6020, 14118.00
899.7290, 14130.00
900.8560, 14174.10
901.9830, 14217.00
903.1090, 14214.00
904.2360, 14123.00
905.3620, 14170.00
906.4880, 14085.00
907.6140, 14138.00
908.7400, 14242.00
909.8650, 14186.00
910.9900, 14165.00
912.1160, 14262.00
913.2410, 14247.00
914.3660, 14373.00
915.4900, 14201.00
916.6150, 14233.00
917.7390, 14293.00
918.8640, 14341.00
919.9880, 14390.00
921.1120, 14307.00
922.2350, 14262.00
923.3590, 14241.00
924.4820, 14443.00
925.6060, 14454.00
926.7290, 14446.00
927.8520, 14320.00
928.9740, 14359.00
930.0970, 14459.00
931.2190, 14487.00
932.3420, 14484.00
933.4640, 14362.00
934.5860, 14681.00
935.7080, 14372.00
936.8290, 14584.00
937.9510, 14566.00
939.0720, 14617.00
940.1930, 14525.00
941.3140, 14592.00
942.4350, 14654.00
943.5560, 14631.00
944.6760, 14718.91
945.7960, 14726.54
946.9170, 14818.00
948.0370, 14734.00
949.1560, 14735.00
950.2760, 14649.00
951.3960, 14741.00
952.5150, 14758.00
953.6340, 14785.00
954.7530, 14761.00
955.8720, 14792.00
956.9910, 14634.00
958.1090, 14760.00
959.2280, 14856.00
960.3460, 14995.00
961.4640, 14898.00
962.5820, 14786.00
963.6990, 14829.00
964.8170, 14645.00
965.9340, 14866.00
967.0510, 14741.00
968.1690, 14799.16
969.2850, 14749.82
970.4020, 14975.00
971.5190, 14619.00
972.6350, 14859.00
973.7510, 14915.00
974.8670, 14830.00
975.9830, 14920.34
977.0990, 14836.00
978.2150, 14804.00
979.3300, 15019.00
980.4450, 14812.00
981.5600, 14908.00
982.6750, 14999.00
983.7900, 14963.00
984.9050, 14941.00
986.0190, 15065.00
987.1340, 15045.00
988.2480, 15049.00
989.3620, 15120.00
990.4750, 14945.00
991.5890, 15213.00
992.7020, 15053.00
993.8160, 15232.00
994.9290, 15082.00
996.0420, 15121.00
997.1550, 15192.00
998.2670, 15069.00
999.3800, 15335.00
1000.492, 15204.00
1001.604, 15244.00
1002.716, 15338.00
1003.828, 15364.00
1004.940, 15228.00
1006.051, 15366.00
1007.163, 15186.00
1008.274, 15338.00
1009.385, 15379.00
1010.496, 15385.00
1011.606, 15418.00
1012.717, 15580.00
1013.827, 15436.00
1014.937, 15571.00
1016.047, 15634.00
1017.157, 15563.00
1018.267, 15593.00
1019.377, 15679.00
1020.486, 15718.00
1021.595, 15832.00
1022.704, 15777.00
1023.813, 15925.00
1024.922, 15919.00
1026.030, 15968.00
1027.139, 15955.00
1028.247, 16075.00
1029.355, 16132.00
1030.463, 16135.00
1031.571, 16298.00
1032.678, 16302.68
1033.786, 16206.58
1034.893, 16423.87
1036.000, 16556.49
1037.107, 16608.98
1038.214, 16341.36
1039.321, 16487.10
1040.427, 16467.16
1041.533, 16440.43
1042.639, 16644.32
1043.745, 16423.24
1044.851, 16623.47
1045.957, 16655.53
1047.062, 16764.53
1048.168, 16706.88
1049.273, 16700.69
1050.378, 16861.23
1051.482, 16929.43
1052.587, 16852.57
1053.692, 16966.46
1054.796, 17010.00
1055.900, 16945.66
1057.004, 16966.00
1058.108, 17021.00
1059.212, 16922.00
1060.315, 16993.00
1061.418, 16956.00
1062.522, 16833.00
1063.625, 16986.00
1064.728, 16953.00
1065.830, 16856.00
1066.933, 16891.00
1068.035, 16993.00
1069.137, 16837.00
1070.239, 16926.00
1071.341, 16830.00
1072.443, 17053.00
1073.545, 16961.00
1074.646, 16917.00
1075.747, 16909.00
1076.848, 16845.00
1077.949, 16837.11
1079.050, 16897.00
1080.150, 16868.00
1081.251, 16891.00
1082.351, 17047.00
1083.451, 17026.00
1084.551, 16934.00
1085.651, 16832.00
1086.750, 17106.00
1087.850, 17058.00
1088.949, 17057.00
1090.048, 17077.45
1091.147, 17060.70
1092.246, 16983.00
1093.345, 17088.00
1094.443, 17113.00
1095.541, 17166.00
1096.639, 16996.00
1097.737, 17135.00
1098.835, 16950.00
1099.933, 17121.00
1101.030, 17047.00
1102.128, 17076.00
1103.225, 17168.00
1104.322, 17141.00
1105.419, 17156.62
1106.515, 17224.00
1107.612, 17094.00
1108.708, 17210.00
1109.804, 17129.00
1110.900, 17012.00
1111.996, 17079.00
1113.092, 16902.00
1114.187, 17111.00
1115.283, 17016.00
1116.378, 16842.00
1117.473, 17050.00
1118.568, 16896.00
1119.662, 17159.00
1120.757, 16931.00
1121.851, 16855.00
1122.946, 16872.00
1124.040, 16889.00
1125.134, 17053.00
1126.227, 16916.00
1127.321, 16764.00
1128.414, 16914.00
1129.508, 16871.00
1130.601, 16727.00
1131.693, 16795.00
1132.786, 16655.00
1133.879, 16755.00
1134.971, 16633.00
1136.064, 16625.00
1137.156, 16680.00
1138.248, 16812.00
1139.339, 16797.00
1140.431, 16767.00
1141.522, 16824.00
1142.614, 16674.00
1143.705, 16860.00
1144.796, 16637.00
1145.887, 16831.00
1146.977, 16831.00
1148.068, 16906.00
1149.158, 17002.00
1150.248, 16887.00
1151.338, 16851.00
1152.428, 17105.00
1153.518, 16896.00
1154.607, 17052.55
1155.696, 17134.00
1156.785, 17215.00
1157.874, 17010.00
1158.963, 17118.00
1160.052, 17332.00
1161.141, 17097.00
1162.229, 17304.00
1163.317, 17334.00
1164.405, 17443.00
1165.493, 17324.00
1166.581, 17488.00
1167.668, 17418.00
1168.756, 17398.00
1169.843, 17429.00
1170.930, 17429.86
1172.017, 17687.00
1173.103, 17506.00
1174.190, 17843.00
1175.276, 17902.00
1176.363, 17870.00
1177.449, 17817.00
1178.535, 17771.00
1179.620, 17972.00
1180.706, 18116.00
1181.791, 18082.00
1182.877, 17944.00
1183.962, 18131.00
1185.047, 18214.00
1186.131, 18184.00
1187.216, 18274.00
1188.300, 18360.00
1189.385, 18405.00
1190.469, 18447.84
1191.553, 18379.00
1192.637, 18480.00
1193.720, 18424.00
1194.804, 18413.00
1195.887, 18730.00
1196.970, 18561.00
1198.053, 18649.00
1199.136, 18864.00
1200.219, 18581.00
1201.301, 18694.00
1202.383, 18719.00
1203.465, 18797.00
1204.547, 18777.00
1205.629, 18938.00
1206.711, 18881.00
1207.792, 18904.00
1208.874, 19204.00
1209.955, 19043.00
1211.036, 18962.00
1212.117, 19310.00
1213.198, 19202.00
1214.278, 19361.00
1215.359, 19325.00
1216.439, 19341.00
1217.519, 19565.00
1218.599, 19666.00
1219.678, 19538.00
1220.758, 19695.00
1221.837, 19588.00
1222.917, 19674.00
1223.996, 19934.00
1225.075, 19956.00
1226.153, 19718.00
1227.232, 20007.00
1228.310, 20115.00
1229.389, 19987.00
1230.467, 20250.00
1231.545, 20305.00
1232.622, 20377.00
1233.700, 20596.00
1234.777, 20680.00
1235.855, 20805.00
1236.932, 20966.00
1238.009, 21030.00
1239.086, 21054.00
1240.162, 21378.00
1241.239, 21330.00
1242.315, 21388.00
1243.391, 21648.00
1244.467, 21670.99
1245.543, 22035.00
1246.619, 21942.00
1247.694, 22274.00
1248.769, 22456.00
1249.844, 22556.00
1250.919, 22731.00
1251.994, 23107.00
1253.069, 23166.00
1254.144, 23394.81
1255.218, 23493.00
1256.292, 23723.00
1257.366, 23846.00
1258.440, 24025.00
1259.514, 24229.00
1260.587, 24489.00
1261.661, 24724.00
1262.734, 24816.00
1263.807, 25154.00
1264.880, 25243.00
1265.952, 25371.00
1267.025, 25766.00
1268.097, 25669.00
1269.170, 26177.00
1270.242, 26726.00
1271.314, 26495.00
1272.385, 26703.00
1273.457, 27125.00
1274.528, 27044.00
1275.600, 27331.00
1276.671, 27500.00
1277.742, 27983.00
1278.812, 27730.00
1279.883, 28206.00
1280.954, 28486.00
1282.024, 28705.00
1283.094, 29011.00
1284.164, 29436.00
1285.234, 29454.00
1286.303, 29755.00
1287.373, 30184.00
1288.442, 30512.00
1289.511, 30900.00
1290.580, 31447.00
1291.649, 31723.00
1292.718, 32014.00
1293.786, 32569.00
1294.855, 33006.00
1295.923, 33164.00
1296.991, 33426.00
1298.059, 34139.00
1299.126, 34440.00
1300.194, 34993.00
1301.261, 35638.00
1302.328, 35435.00
1303.395, 36122.00
1304.462, 36876.00
1305.529, 36830.00
1306.596, 37364.00
1307.662, 37678.00
1308.728, 38049.00
1309.794, 38390.00
1310.860, 38649.38
1311.926, 38945.00
1312.991, 39053.00
1314.057, 39272.00
1315.122, 39251.00
1316.187, 39385.00
1317.252, 39316.00
1318.317, 39234.00
1319.381, 39042.00
1320.446, 38867.51
1321.510, 38674.00
1322.574, 38286.00
1323.638, 38170.00
1324.702, 37634.00
1325.766, 37381.00
1326.829, 36889.00
1327.892, 36247.00
1328.956, 36023.00
1330.019, 35677.00
1331.081, 35265.00
1332.144, 34603.00
1333.206, 34151.00
1334.269, 33642.00
1335.331, 33107.00
1336.393, 32614.00
1337.455, 31942.00
1338.516, 31603.00
1339.578, 31060.00
1340.639, 30734.00
1341.701, 30231.00
1342.762, 29669.00
1343.822, 29088.00
1344.883, 28865.00
1345.944, 28439.00
1347.004, 27991.00
1348.064, 27870.00
1349.124, 27321.00
1350.184, 27015.00
1351.244, 26756.00
1352.304, 26161.00
1353.363, 26036.00
1354.422, 25891.00
1355.481, 25404.00
1356.540, 25164.00
1357.599, 24970.00
1358.657, 24651.00
1359.716, 24489.00
1360.774, 24181.16
1361.832, 23824.00
1362.890, 23643.00
1363.948, 23300.00
1365.006, 23116.00
1366.063, 22987.00
1367.120, 22615.24
1368.178, 22654.79
1369.234, 22609.94
1370.291, 22484.83
1371.348, 22039.61
1372.404, 22007.88
1373.461, 21810.37
1374.517, 21606.21
1375.573, 21632.66
1376.629, 21234.14
1377.684, 21257.10
1378.740, 21111.71
1379.795, 21043.44
1380.850, 20808.51
1381.905, 20625.04
1382.960, 20608.33
1384.015, 20499.27
1385.070, 20245.15
1386.124, 20354.00
1387.178, 20065.00
1388.232, 19906.00
1389.286, 20035.00
1390.340, 20093.00
1391.393, 19712.00
1392.447, 19840.65
1393.500, 19726.43
1394.553, 19724.00
1395.606, 19608.00
1396.659, 19502.00
1397.711, 19347.00
1398.764, 19395.00
1399.816, 19315.00
1400.868, 19165.00
1401.920, 19201.00
1402.972, 19166.00
1404.023, 19150.88
1405.075, 18952.00
1406.126, 19187.00
1407.177, 18978.00
1408.228, 18994.00
1409.279, 19034.00
1410.330, 18916.00
1411.380, 18857.00
1412.431, 18785.00
1413.481, 18735.07
1414.531, 18697.34
1415.580, 18668.00
1416.630, 18657.00
1417.680, 18627.00
1418.729, 18647.00
1419.778, 18578.00
1420.827, 18605.00
1421.876, 18478.00
1422.925, 18597.00
1423.973, 18502.34
1425.022, 18376.00
1426.070, 18423.00
1427.118, 18459.00
1428.166, 18474.61
1429.214, 18502.62
1430.261, 18491.00
1431.309, 18403.00
1432.356, 18547.00
1433.403, 18227.00
1434.450, 18474.00
1435.497, 18302.00
1436.543, 18319.00
1437.590, 18317.00
1438.636, 18368.00
1439.682, 18291.00
1440.728, 18240.00
1441.774, 18470.00
1442.819, 18440.00
1443.865, 18404.00
1444.910, 18282.00
1445.955, 18287.25
1447.000, 18488.00
1448.045, 18384.00
1449.090, 18117.00
1450.134, 18452.00
1451.178, 18186.00
1452.223, 18119.00
1453.267, 18228.00
1454.310, 18255.00
1455.354, 18167.00
1456.398, 18181.00
1457.441, 18175.76
1458.484, 18187.00
1459.527, 18200.00
1460.570, 18215.00
1461.613, 18260.00
1462.655, 18174.00
1463.698, 18297.00
1464.740, 18282.00
1465.782, 18102.00
1466.824, 18260.00
1467.866, 18185.00
1468.907, 18256.00
1469.948, 18342.00
1470.990, 18095.00
1472.031, 18253.00
1473.072, 18200.00
1474.112, 18354.00
1475.153, 18077.00
1476.194, 18311.00
1477.234, 18240.47
1478.274, 18433.00
1479.314, 18260.00
1480.354, 18212.00
1481.393, 18255.00
1482.433, 18372.00
1483.472, 18153.00
1484.511, 18157.00
1485.550, 18105.00
1486.589, 18308.00
1487.628, 18158.00
1488.666, 18205.00
1489.704, 18136.00
1490.743, 18184.10
1491.781, 18352.00
1492.819, 18226.00
1493.856, 18396.00
1494.894, 18211.00
1495.931, 18172.00
1496.968, 18237.00
1498.005, 18020.00
1499.042, 18372.00
1500.079, 18187.00
1501.115, 18185.00
1502.152, 18127.00
1503.188, 18121.86
1504.224, 18138.64
1505.260, 18293.00
1506.296, 18064.00
1507.331, 18345.00
1508.367, 18053.00
1509.402, 18293.00
1510.437, 18036.00
1511.472, 18210.00
1512.507, 18342.00
1513.541, 18264.00
1514.576, 18190.00
1515.610, 18137.00
1516.644, 18234.00
1517.678, 18144.00
1518.712, 18318.00
1519.746, 18039.00
1520.779, 18132.18
1521.813, 18323.39
1522.846, 18429.93
1523.879, 18456.34
1524.912, 18162.64
1525.944, 18282.30
1526.977, 18236.31
1528.009, 18183.52
1529.041, 18361.36
1530.073, 18114.22
1531.105, 18288.40
1532.137, 18294.40
1533.168, 18377.38
1534.200, 18293.67
1535.231, 18261.45
1536.262, 18395.96
1537.293, 18438.15
1538.324, 18335.26
1539.354, 18423.12
1540.385, 18170.17
1541.415, 18216.29
1542.445, 18391.45
1543.475, 18296.95
1544.505, 18387.86
1545.534, 18408.16
1546.564, 18107.52
1547.593, 18365.02
1548.622, 18381.15
1549.651, 18149.43
1550.680, 18387.81
1551.708, 18190.26
1552.737, 18148.31
1553.765, 18223.46
1554.793, 18176.54
1555.821, 18322.08
1556.849, 18282.21
1557.877, 18225.78
1558.904, 18241.64
1559.932, 18052.64
1560.959, 18243.69
1561.986, 18175.14
1563.013, 18235.63
1564.039, 18325.37
1565.066, 18191.14
1566.092, 18294.03
1567.119, 18029.22
1568.145, 18130.00
1569.170, 18033.00
1570.196, 18130.00
1571.222, 18149.00
1572.247, 18061.00
1573.272, 18227.00
1574.297, 18292.00
1575.322, 18090.00
1576.347, 18015.00
1577.372, 18135.00
##END=



