##NAMES=Heulandite-Ca
##RRUFFID=R060465
##IDEAL CHEMISTRY=(Ca,Na,K)_5_(Si_27_Al_9_)O_72_&#183;26H_2_O
##LOCALITY=Garrawilla, near Gunnadah, New South Wales, Australia
##OWNER=RRUFF
##SOURCE=Michael Scott
##DESCRIPTION=Orange fan of platy crystals
##STATUS=The identification of this mineral has been confirmed by X-ray diffraction and chemical analysis
##URL=rruff.info/R060465
##MEASURED CHEMISTRY=(Ca_0.66_Na_0.24_K_0.10_)_5_(Si_0.77_Al_0.23_)_36_O_72_Â·24H_2_O
##PIN_ID=M01887
##ORIENTATION=Laser parallel to b* (0 1 0). Fiducial mark perpendicular to laser is parallel to -c [0 0 -1]
78.28300, 1105.000
79.52300, 1175.000
80.76300, 1364.000
82.00300, 1532.000
83.24300, 1707.000
84.48300, 2036.000
85.72200, 2270.000
86.96100, 2608.000
88.20000, 3013.000
89.43900, 3569.000
90.67800, 4073.000
91.91600, 4705.000
93.15500, 5250.000
94.39300, 6017.000
95.63100, 6642.000
96.86900, 7323.000
98.10600, 7983.000
99.34400, 8698.000
100.5810, 9219.000
101.8190, 9887.000
103.0560, 10545.19
104.2930, 11026.00
105.5290, 11886.00
106.7660, 12619.00
108.0020, 13317.00
109.2390, 13450.00
110.4750, 13626.00
111.7110, 13695.00
112.9460, 14181.00
114.1820, 14777.00
115.4170, 15022.00
116.6530, 15236.00
117.8880, 15480.00
119.1230, 15632.35
120.3580, 15844.50
121.5920, 15938.00
122.8270, 16143.00
124.0610, 16333.00
125.2950, 16528.86
126.5290, 16783.00
127.7630, 17004.00
128.9970, 17364.00
130.2300, 17661.00
131.4640, 18090.00
132.6970, 18513.00
133.9300, 18912.00
135.1630, 19355.00
136.3950, 20073.00
137.6280, 20871.00
138.8600, 21554.00
140.0920, 21791.00
141.3240, 21686.00
142.5560, 21523.00
143.7880, 20689.00
145.0190, 20151.00
146.2510, 19347.00
147.4820, 18347.00
148.7130, 17557.00
149.9440, 17095.00
151.1750, 16506.00
152.4050, 16058.00
153.6360, 15560.00
154.8660, 15231.00
156.0960, 14826.00
157.3260, 14492.00
158.5560, 14187.00
159.7850, 13830.00
161.0150, 13803.00
162.2440, 13377.00
163.4730, 13235.00
164.7020, 13048.00
165.9310, 12743.00
167.1590, 12664.00
168.3880, 12403.00
169.6160, 12177.00
170.8440, 12005.00
172.0720, 11751.00
173.3000, 11556.00
174.5280, 11437.00
175.7550, 11189.00
176.9820, 10940.00
178.2100, 10795.00
179.4370, 10741.00
180.6630, 10472.00
181.8900, 10448.00
183.1170, 10198.00
184.3430, 10115.00
185.5690, 9987.000
186.7950, 9856.000
188.0210, 9782.738
189.2470, 9757.000
190.4720, 9641.000
191.6970, 9669.000
192.9230, 9657.000
194.1480, 9649.000
195.3730, 9566.000
196.5970, 9615.000
197.8220, 9327.000
199.0460, 9462.000
200.2700, 9428.000
201.4940, 9525.000
202.7180, 9184.000
203.9420, 8980.000
205.1660, 8730.000
206.3890, 8639.630
207.6120, 8640.000
208.8350, 8587.000
210.0580, 8614.000
211.2810, 8584.211
212.5040, 8580.942
213.7260, 8549.000
214.9480, 8565.000
216.1700, 8539.000
217.3920, 8501.000
218.6140, 8561.000
219.8360, 8488.000
221.0570, 8502.000
222.2790, 8594.000
223.5000, 8625.000
224.7210, 8648.709
225.9410, 8644.000
227.1620, 8675.000
228.3820, 8750.000
229.6030, 8745.000
230.8230, 8795.000
232.0430, 8821.000
233.2630, 8910.175
234.4820, 8960.000
235.7020, 9108.000
236.9210, 9213.000
238.1400, 9292.000
239.3590, 9352.000
240.5780, 9502.000
241.7970, 9566.000
243.0150, 9654.352
244.2340, 9683.000
245.4520, 9772.000
246.6700, 9832.000
247.8880, 9804.000
249.1060, 9840.000
250.3230, 9843.000
251.5400, 9820.337
252.7580, 9819.291
253.9750, 9826.516
255.1920, 9807.671
256.4080, 9764.200
257.6250, 9622.128
258.8410, 9607.365
260.0580, 9541.557
261.2740, 9473.701
262.4900, 9476.851
263.7050, 9349.199
264.9210, 9351.223
266.1360, 9255.000
267.3520, 9180.000
268.5670, 9126.000
269.7820, 9024.000
270.9960, 9076.000
272.2110, 9043.000
273.4250, 8787.000
274.6400, 8838.000
275.8540, 8728.000
277.0680, 8621.000
278.2810, 8677.000
279.4950, 8640.000
280.7090, 8482.000
281.9220, 8543.888
283.1350, 8544.000
284.3480, 8526.000
285.5610, 8387.000
286.7730, 8334.000
287.9860, 8187.000
289.1980, 8347.000
290.4100, 8278.000
291.6220, 8418.000
292.8340, 8302.000
294.0460, 8253.000
295.2570, 8191.000
296.4690, 8164.000
297.6800, 8214.000
298.8910, 8250.000
300.1020, 8255.000
301.3120, 8263.000
302.5230, 8279.005
303.7330, 8297.000
304.9440, 8285.000
306.1540, 8248.000
307.3630, 8225.000
308.5730, 8314.000
309.7830, 8269.000
310.9920, 8291.000
312.2010, 8325.000
313.4100, 8219.000
314.6190, 8232.000
315.8280, 8278.000
317.0370, 8326.000
318.2450, 8332.000
319.4530, 8448.000
320.6610, 8489.000
321.8690, 8518.626
323.0770, 8563.153
324.2850, 8575.000
325.4920, 8583.000
326.6990, 8612.000
327.9060, 8598.000
329.1130, 8624.000
330.3200, 8632.000
331.5270, 8649.000
332.7330, 8723.000
333.9390, 8669.000
335.1450, 8718.000
336.3510, 8827.000
337.5570, 8808.000
338.7630, 8815.000
339.9680, 8734.000
341.1740, 8822.000
342.3790, 8772.000
343.5840, 8859.000
344.7890, 8898.000
345.9930, 8886.000
347.1980, 8932.000
348.4020, 9050.000
349.6060, 9086.000
350.8100, 9138.000
352.0140, 9029.000
353.2180, 9200.000
354.4210, 9168.000
355.6250, 9350.000
356.8280, 9455.000
358.0310, 9468.000
359.2340, 9636.000
360.4360, 9632.000
361.6390, 9794.000
362.8410, 9801.000
364.0430, 9889.000
365.2450, 10171.00
366.4470, 10335.00
367.6490, 10349.00
368.8510, 10502.00
370.0520, 10838.00
371.2530, 10842.00
372.4540, 11085.00
373.6550, 11140.00
374.8560, 11355.00
376.0560, 11618.00
377.2570, 11777.29
378.4570, 12030.00
379.6570, 12264.00
380.8570, 12569.00
382.0570, 12905.00
383.2560, 13143.00
384.4560, 13553.00
385.6550, 13807.00
386.8540, 14303.00
388.0530, 14787.00
389.2520, 15286.00
390.4510, 15835.00
391.6490, 16431.00
392.8470, 16725.00
394.0450, 17173.00
395.2430, 17973.00
396.4410, 18211.00
397.6390, 18670.00
398.8360, 18938.00
400.0340, 19301.00
401.2310, 19607.00
402.4280, 19558.00
403.6250, 19257.00
404.8210, 19241.00
406.0180, 19064.00
407.2140, 18659.00
408.4100, 18257.00
409.6060, 17826.87
410.8020, 17223.00
411.9980, 16782.00
413.1930, 16101.00
414.3890, 15503.00
415.5840, 15054.00
416.7790, 14524.00
417.9740, 13914.00
419.1680, 13556.00
420.3630, 13083.00
421.5570, 12554.00
422.7510, 12168.00
423.9450, 11816.00
425.1390, 11401.00
426.3330, 11170.00
427.5270, 10757.00
428.7200, 10467.00
429.9130, 10276.00
431.1060, 9881.000
432.2990, 9767.000
433.4920, 9584.000
434.6840, 9406.000
435.8770, 9250.000
437.0690, 9085.000
438.2610, 8946.000
439.4530, 8856.000
440.6450, 8779.000
441.8360, 8746.000
443.0280, 8679.972
444.2190, 8647.793
445.4100, 8603.000
446.6010, 8592.000
447.7920, 8580.000
448.9820, 8561.000
450.1730, 8602.000
451.3630, 8682.000
452.5530, 8773.000
453.7430, 9013.000
454.9330, 9096.000
456.1230, 9287.000
457.3120, 9467.000
458.5010, 9642.000
459.6910, 9994.000
460.8800, 10309.00
462.0680, 10474.00
463.2570, 10804.00
464.4460, 11013.00
465.6340, 11331.00
466.8220, 11638.00
468.0100, 11802.00
469.1980, 12160.00
470.3860, 12366.00
471.5730, 12685.00
472.7600, 13161.00
473.9480, 13735.00
475.1350, 14338.00
476.3210, 14944.00
477.5080, 15350.00
478.6950, 15767.00
479.8810, 15998.00
481.0670, 16230.00
482.2530, 16249.00
483.4390, 16174.00
484.6250, 15989.00
485.8100, 15445.00
486.9960, 14919.00
488.1810, 14165.00
489.3660, 13536.00
490.5510, 12781.00
491.7360, 12112.00
492.9200, 11434.00
494.1050, 10835.00
495.2890, 10406.00
496.4730, 9695.000
497.6570, 9436.000
498.8400, 9059.000
500.0240, 8850.000
501.2070, 8651.000
502.3910, 8348.000
503.5740, 8142.000
504.7570, 8206.000
505.9400, 8038.000
507.1220, 7870.000
508.3050, 7797.000
509.4870, 7738.000
510.6690, 7652.000
511.8510, 7650.000
513.0330, 7672.000
514.2140, 7687.000
515.3960, 7616.000
516.5770, 7492.000
517.7580, 7600.000
518.9390, 7464.000
520.1200, 7497.000
521.3010, 7423.000
522.4810, 7310.000
523.6610, 7380.000
524.8420, 7342.000
526.0220, 7288.000
527.2010, 7245.000
528.3810, 7140.000
529.5610, 7123.123
530.7400, 7077.737
531.9190, 7064.000
533.0980, 7049.000
534.2770, 7035.000
535.4560, 7071.000
536.6340, 7076.000
537.8120, 7056.000
538.9910, 7010.000
540.1690, 7085.000
541.3460, 7015.000
542.5240, 7091.000
543.7020, 6973.000
544.8790, 6950.000
546.0560, 6935.000
547.2330, 6874.000
548.4100, 6939.000
549.5870, 6955.000
550.7630, 6910.000
551.9400, 7035.000
553.1160, 6999.000
554.2920, 6931.000
555.4680, 6926.000
556.6440, 6963.000
557.8190, 6968.000
558.9950, 7016.000
560.1700, 6952.000
561.3450, 6943.000
562.5200, 6924.000
563.6950, 6972.000
564.8690, 6963.000
566.0440, 6935.000
567.2180, 7056.000
568.3920, 6944.000
569.5660, 7024.000
570.7400, 7032.000
571.9130, 7054.000
573.0870, 7088.451
574.2600, 7099.000
575.4330, 7098.000
576.6060, 7106.000
577.7790, 7049.000
578.9520, 7145.000
580.1240, 7070.000
581.2960, 7189.000
582.4690, 7230.000
583.6410, 7243.000
584.8120, 7280.000
585.9840, 7312.854
587.1560, 7334.263
588.3270, 7383.000
589.4980, 7421.000
590.6690, 7483.250
591.8400, 7576.000
593.0110, 7634.843
594.1810, 7655.656
595.3510, 7820.964
596.5220, 7960.291
597.6920, 8074.864
598.8610, 8090.787
600.0310, 8234.064
601.2010, 8326.340
602.3700, 8416.436
603.5390, 8577.537
604.7080, 8607.796
605.8770, 8767.771
607.0460, 8875.967
608.2140, 9007.767
609.3830, 8959.000
610.5510, 9136.000
611.7190, 9173.000
612.8870, 9085.000
614.0550, 8994.000
615.2220, 8969.000
616.3900, 8975.000
617.5570, 8714.000
618.7240, 8753.000
619.8910, 8696.000
621.0580, 8431.000
622.2240, 8472.000
623.3910, 8384.000
624.5570, 8298.000
625.7230, 8251.000
626.8890, 8175.535
628.0550, 8156.000
629.2200, 8063.000
630.3860, 8021.000
631.5510, 7978.000
632.7160, 7972.000
633.8810, 7894.846
635.0460, 7845.392
636.2100, 7766.000
637.3750, 7717.000
638.5390, 7670.000
639.7030, 7628.000
640.8670, 7605.000
642.0310, 7508.000
643.1950, 7393.000
644.3580, 7443.000
645.5210, 7327.000
646.6850, 7414.000
647.8480, 7322.000
649.0100, 7308.000
650.1730, 7261.000
651.3350, 7265.000
652.4980, 7112.000
653.6600, 7204.000
654.8220, 7043.000
655.9840, 6992.000
657.1450, 7001.000
658.3070, 7008.000
659.4680, 6897.000
660.6300, 6847.000
661.7910, 6903.000
662.9510, 6841.000
664.1120, 6854.000
665.2730, 6823.000
666.4330, 6752.000
667.5930, 6773.000
668.7530, 6931.000
669.9130, 6793.000
671.0730, 6865.000
672.2320, 6708.000
673.3920, 6775.000
674.5510, 6706.000
675.7100, 6748.000
676.8690, 6770.000
678.0280, 6700.000
679.1860, 6784.000
680.3450, 6769.000
681.5030, 6703.000
682.6610, 6735.000
683.8190, 6710.000
684.9770, 6828.000
686.1340, 6643.000
687.2920, 6718.000
688.4490, 6768.000
689.6060, 6714.000
690.7630, 6740.000
691.9200, 6691.000
693.0760, 6752.000
694.2330, 6768.000
695.3890, 6875.000
696.5450, 6793.000
697.7010, 6729.000
698.8570, 6863.000
700.0130, 6841.000
701.1680, 6857.000
702.3230, 6813.000
703.4780, 6802.149
704.6330, 6791.000
705.7880, 6789.000
706.9430, 6823.000
708.0970, 6821.315
709.2520, 6861.000
710.4060, 6857.000
711.5600, 6846.000
712.7140, 6875.000
713.8670, 6780.000
715.0210, 6935.000
716.1740, 6819.000
717.3270, 6844.000
718.4800, 6908.000
719.6330, 6975.000
720.7860, 6981.000
721.9380, 6940.000
723.0910, 7065.000
724.2430, 6933.000
725.3950, 6917.000
726.5470, 6937.000
727.6980, 6936.000
728.8500, 6992.000
730.0010, 7003.000
731.1530, 6872.000
732.3040, 7023.000
733.4550, 6870.000
734.6050, 6966.000
735.7560, 6892.000
736.9060, 6884.000
738.0560, 6925.000
739.2060, 7002.000
740.3560, 6894.000
741.5060, 6909.000
742.6560, 7002.000
743.8050, 6926.000
744.9540, 7012.000
746.1030, 7005.000
747.2520, 6999.000
748.4010, 6949.000
749.5500, 7070.000
750.6980, 6989.000
751.8460, 7100.000
752.9950, 7107.000
754.1420, 7104.000
755.2900, 7118.000
756.4380, 7153.000
757.5850, 7175.278
758.7330, 7159.000
759.8800, 7232.000
761.0270, 7300.000
762.1730, 7295.000
763.3200, 7280.000
764.4670, 7395.000
765.6130, 7377.000
766.7590, 7552.000
767.9050, 7479.000
769.0510, 7652.000
770.1960, 7666.000
771.3420, 7586.000
772.4870, 7665.000
773.6320, 7824.000
774.7770, 7919.000
775.9220, 7879.000
777.0670, 7914.000
778.2110, 8002.000
779.3560, 8040.000
780.5000, 8099.000
781.6440, 8112.000
782.7880, 8106.000
783.9320, 8198.000
785.0750, 8249.000
786.2180, 8233.000
787.3620, 8291.000
788.5050, 8166.000
789.6480, 8195.000
790.7900, 8338.000
791.9330, 8176.000
793.0750, 8320.000
794.2170, 8283.000
795.3590, 8186.000
796.5010, 8190.000
797.6430, 8145.788
798.7850, 8116.000
799.9260, 8091.000
801.0670, 8051.000
802.2080, 7990.924
803.3490, 8006.000
804.4900, 7917.000
805.6310, 7872.000
806.7710, 7746.000
807.9110, 7777.000
809.0510, 7776.000
810.1910, 7773.000
811.3310, 7818.000
812.4710, 7683.000
813.6100, 7843.000
814.7490, 7712.000
815.8880, 7844.000
817.0270, 7827.000
818.1660, 7705.000
819.3050, 7828.000
820.4430, 7798.000
821.5820, 7719.000
822.7200, 7597.000
823.8580, 7489.000
824.9950, 7508.000
826.1330, 7519.000
827.2710, 7441.000
828.4080, 7289.000
829.5450, 7312.000
830.6820, 7195.000
831.8190, 7247.000
832.9560, 7107.000
834.0920, 7276.000
835.2280, 7123.000
836.3650, 7191.000
837.5010, 7266.000
838.6360, 7262.000
839.7720, 7167.000
840.9080, 7129.000
842.0430, 7196.000
843.1780, 7233.000
844.3130, 7216.052
845.4480, 7265.000
846.5830, 7201.000
847.7170, 7257.000
848.8520, 7238.000
849.9860, 7203.000
851.1200, 7291.000
852.2540, 7209.000
853.3870, 7362.000
854.5210, 7276.000
855.6540, 7351.000
856.7880, 7408.000
857.9210, 7392.000
859.0540, 7474.000
860.1860, 7317.000
861.3190, 7306.000
862.4510, 7315.000
863.5840, 7411.000
864.7160, 7307.000
865.8480, 7351.000
866.9790, 7262.000
868.1110, 7217.000
869.2420, 7106.000
870.3740, 7300.000
871.5050, 7321.000
872.6360, 7228.000
873.7660, 7148.000
874.8970, 7115.000
876.0280, 7075.361
877.1580, 7073.956
878.2880, 7071.000
879.4180, 7102.000
880.5480, 7149.000
881.6770, 7158.000
882.8070, 7124.000
883.9360, 7232.000
885.0650, 7165.000
886.1940, 7092.000
887.3230, 7154.000
888.4520, 7215.000
889.5800, 7156.000
890.7090, 7217.000
891.8370, 7158.000
892.9650, 7154.000
894.0930, 7176.000
895.2200, 7156.000
896.3480, 7133.000
897.4750, 7155.994
898.6020, 7168.000
899.7290, 7215.000
900.8560, 7231.000
901.9830, 7262.038
903.1090, 7292.000
904.2360, 7312.000
905.3620, 7323.634
906.4880, 7329.000
907.6140, 7286.000
908.7400, 7250.000
909.8650, 7175.000
910.9900, 7310.000
912.1160, 7453.000
913.2410, 7271.000
914.3660, 7337.000
915.4900, 7296.000
916.6150, 7370.000
917.7390, 7310.000
918.8640, 7262.000
919.9880, 7408.000
921.1120, 7303.000
922.2350, 7362.000
923.3590, 7394.000
924.4820, 7382.000
925.6060, 7223.000
926.7290, 7308.000
927.8520, 7282.000
928.9740, 7350.000
930.0970, 7444.000
931.2190, 7418.000
932.3420, 7381.000
933.4640, 7372.000
934.5860, 7370.000
935.7080, 7396.000
936.8290, 7338.000
937.9510, 7385.000
939.0720, 7498.000
940.1930, 7377.000
941.3140, 7286.000
942.4350, 7391.000
943.5560, 7317.000
944.6760, 7407.000
945.7960, 7574.000
946.9170, 7515.000
948.0370, 7435.000
949.1560, 7420.000
950.2760, 7488.000
951.3960, 7469.000
952.5150, 7540.000
953.6340, 7580.000
954.7530, 7528.000
955.8720, 7574.000
956.9910, 7583.000
958.1090, 7494.000
959.2280, 7589.000
960.3460, 7604.000
961.4640, 7521.000
962.5820, 7471.000
963.6990, 7537.000
964.8170, 7590.000
965.9340, 7485.000
967.0510, 7569.000
968.1690, 7529.000
969.2850, 7610.000
970.4020, 7536.000
971.5190, 7558.000
972.6350, 7440.000
973.7510, 7585.000
974.8670, 7551.000
975.9830, 7538.000
977.0990, 7566.000
978.2150, 7487.000
979.3300, 7439.000
980.4450, 7612.000
981.5600, 7585.000
982.6750, 7624.000
983.7900, 7680.000
984.9050, 7602.000
986.0190, 7843.000
987.1340, 7806.000
988.2480, 7776.000
989.3620, 7764.000
990.4750, 7737.594
991.5890, 7802.000
992.7020, 7724.000
993.8160, 7841.000
994.9290, 7889.000
996.0420, 7903.000
997.1550, 7953.000
998.2670, 8015.000
999.3800, 8185.000
1000.492, 8111.000
1001.604, 8243.000
1002.716, 8247.000
1003.828, 8118.000
1004.940, 8072.000
1006.051, 8099.000
1007.163, 8062.000
1008.274, 8001.000
1009.385, 8008.000
1010.496, 8043.000
1011.606, 8110.000
1012.717, 8093.000
1013.827, 8182.000
1014.937, 8138.000
1016.047, 8194.000
1017.157, 8152.000
1018.267, 8242.000
1019.377, 8332.000
1020.486, 8383.000
1021.595, 8338.000
1022.704, 8424.000
1023.813, 8370.000
1024.922, 8413.000
1026.030, 8329.000
1027.139, 8434.000
1028.247, 8286.000
1029.355, 8349.000
1030.463, 8402.000
1031.571, 8324.000
1032.678, 8435.000
1033.786, 8408.000
1034.893, 8379.000
1036.000, 8470.000
1037.107, 8397.000
1038.214, 8358.000
1039.321, 8449.000
1040.427, 8397.000
1041.533, 8388.000
1042.639, 8428.000
1043.745, 8414.960
1044.851, 8439.643
1045.957, 8464.000
1047.062, 8465.000
1048.168, 8512.000
1049.273, 8498.000
1050.378, 8494.000
1051.482, 8449.000
1052.587, 8460.000
1053.692, 8475.000
1054.796, 8521.000
1055.900, 8490.000
1057.004, 8540.000
1058.108, 8535.000
1059.212, 8388.000
1060.315, 8417.000
1061.418, 8409.000
1062.522, 8486.000
1063.625, 8509.000
1064.728, 8482.000
1065.830, 8533.000
1066.933, 8604.000
1068.035, 8484.000
1069.137, 8615.000
1070.239, 8660.000
1071.341, 8730.000
1072.443, 8563.000
1073.545, 8721.000
1074.646, 8703.000
1075.747, 8663.000
1076.848, 8877.000
1077.949, 8918.000
1079.050, 8980.000
1080.150, 9045.000
1081.251, 9230.000
1082.351, 9204.000
1083.451, 9300.000
1084.551, 9334.000
1085.651, 9304.000
1086.750, 9325.000
1087.850, 9252.000
1088.949, 9304.000
1090.048, 9280.000
1091.147, 9303.000
1092.246, 9301.000
1093.345, 9286.000
1094.443, 9371.000
1095.541, 9208.000
1096.639, 9367.000
1097.737, 9464.000
1098.835, 9381.000
1099.933, 9345.000
1101.030, 9408.000
1102.128, 9392.000
1103.225, 9531.000
1104.322, 9454.000
1105.419, 9577.000
1106.515, 9439.000
1107.612, 9527.000
1108.708, 9566.000
1109.804, 9535.000
1110.900, 9598.000
1111.996, 9646.000
1113.092, 9591.000
1114.187, 9505.000
1115.283, 9530.000
1116.378, 9591.000
1117.473, 9590.000
1118.568, 9581.000
1119.662, 9522.000
1120.757, 9582.000
1121.851, 9562.675
1122.946, 9632.000
1124.040, 9607.000
1125.134, 9607.000
1126.227, 9667.000
1127.321, 9622.054
1128.414, 9695.000
1129.508, 9575.000
1130.601, 9605.000
1131.693, 9571.000
1132.786, 9572.000
1133.879, 9639.000
1134.971, 9573.000
1136.064, 9606.000
1137.156, 9636.000
1138.248, 9584.000
1139.339, 9603.000
1140.431, 9606.000
1141.522, 9613.000
1142.614, 9605.879
1143.705, 9592.639
1144.796, 9559.000
1145.887, 9551.000
1146.977, 9480.000
1148.068, 9450.000
1149.158, 9530.000
1150.248, 9586.000
1151.338, 9556.000
1152.428, 9523.000
1153.518, 9439.000
1154.607, 9565.000
1155.696, 9510.000
1156.785, 9594.000
1157.874, 9583.000
1158.963, 9434.000
1160.052, 9478.000
1161.141, 9538.000
1162.229, 9430.000
1163.317, 9439.000
1164.405, 9454.000
1165.493, 9392.000
1166.581, 9417.000
1167.668, 9492.000
1168.756, 9279.000
1169.843, 9435.000
1170.930, 9484.000
1172.017, 9421.000
1173.103, 9306.000
1174.190, 9260.000
1175.276, 9285.000
1176.363, 9349.000
1177.449, 9244.000
1178.535, 9257.000
1179.620, 9115.000
1180.706, 9163.000
1181.791, 9052.000
1182.877, 8989.000
1183.962, 8918.000
1185.047, 8883.593
1186.131, 8939.000
1187.216, 8857.000
1188.300, 8937.000
1189.385, 8951.000
1190.469, 8823.000
1191.553, 8829.000
1192.637, 8698.000
1193.720, 8782.000
1194.804, 8808.000
1195.887, 8743.000
1196.970, 8537.000
1198.053, 8550.000
1199.136, 8565.000
1200.219, 8784.000
1201.301, 8697.000
1202.383, 8651.000
1203.465, 8654.000
1204.547, 8554.000
1205.629, 8619.000
1206.711, 8585.000
1207.792, 8706.000
1208.874, 8678.342
1209.955, 8526.000
1211.036, 8661.000
1212.117, 8577.000
1213.198, 8535.000
1214.278, 8525.000
1215.359, 8569.000
1216.439, 8455.000
1217.519, 8574.000
1218.599, 8546.000
1219.678, 8471.000
1220.758, 8513.000
1221.837, 8505.000
1222.917, 8596.000
1223.996, 8533.000
1225.075, 8485.000
1226.153, 8438.000
1227.232, 8443.109
1228.310, 8470.000
1229.389, 8508.000
1230.467, 8576.000
1231.545, 8678.000
1232.622, 8672.000
1233.700, 8599.000
1234.777, 8658.000
1235.855, 8747.000
1236.932, 8695.000
1238.009, 8768.000
1239.086, 8743.000
1240.162, 8674.000
1241.239, 8762.000
1242.315, 8693.000
1243.391, 8776.000
1244.467, 8783.000
1245.543, 8717.000
1246.619, 8758.778
1247.694, 8768.000
1248.769, 8750.000
1249.844, 8694.000
1250.919, 8693.000
1251.994, 8886.000
1253.069, 8629.000
1254.144, 8808.000
1255.218, 8752.000
1256.292, 8669.000
1257.366, 8778.000
1258.440, 8840.000
1259.514, 8895.000
1260.587, 8741.000
1261.661, 8789.000
1262.734, 8888.000
1263.807, 8726.000
1264.880, 8914.000
1265.952, 8872.000
1267.025, 9028.000
1268.097, 9018.000
1269.170, 9070.000
1270.242, 9029.000
1271.314, 8955.000
1272.385, 8988.000
1273.457, 9038.000
1274.528, 8925.000
1275.600, 9111.000
1276.671, 9124.000
1277.742, 8886.000
1278.812, 8836.000
1279.883, 8935.000
1280.954, 8883.000
1282.024, 8921.000
1283.094, 8888.000
1284.164, 8906.000
1285.234, 8949.000
1286.303, 8937.297
1287.373, 8950.000
1288.442, 8988.000
1289.511, 9026.000
1290.580, 9116.000
1291.649, 9130.953
1292.718, 9180.091
1293.786, 9190.000
1294.855, 9174.000
1295.923, 9192.000
1296.991, 9162.479
1298.059, 9139.000
1299.126, 9125.000
1300.194, 9064.000
1301.261, 9079.000
1302.328, 9140.000
1303.395, 9048.000
1304.462, 9116.000
1305.529, 9269.000
1306.596, 9289.000
1307.662, 9212.000
1308.728, 9287.000
1309.794, 9168.000
1310.860, 9329.000
1311.926, 9361.000
1312.991, 9295.000
1314.057, 9288.000
1315.122, 9280.000
1316.187, 9271.658
1317.252, 9353.000
1318.317, 9301.000
1319.381, 9332.000
1320.446, 9365.000
1321.510, 9256.000
1322.574, 9233.000
1323.638, 9313.000
1324.702, 9343.000
1325.766, 9153.000
1326.829, 9207.000
1327.892, 9000.000
1328.956, 9148.000
1330.019, 9063.000
1331.081, 9062.000
1332.144, 9068.000
1333.206, 8970.000
1334.269, 9050.000
1335.331, 9045.000
1336.393, 9013.000
1337.455, 8943.000
1338.516, 8940.000
1339.578, 9144.000
1340.639, 9144.000
1341.701, 9110.000
1342.762, 9091.000
1343.822, 9037.000
1344.883, 9109.000
1345.944, 9162.000
1347.004, 9000.000
1348.064, 9051.000
1349.124, 9221.000
1350.184, 9017.000
1351.244, 9138.000
1352.304, 9127.000
1353.363, 9131.000
1354.422, 9048.000
1355.481, 9166.000
1356.540, 9050.000
1357.599, 9024.000
1358.657, 9062.000
1359.716, 9035.000
1360.774, 9028.000
1361.832, 9126.000
1362.890, 9151.000
1363.948, 9111.000
1365.006, 9143.000
1366.063, 9135.000
1367.120, 9135.413
1368.178, 9140.000
1369.234, 9143.000
1370.291, 9137.000
1371.348, 9132.000
1372.404, 9153.000
1373.461, 9180.000
1374.517, 9124.000
1375.573, 9146.000
1376.629, 9237.000
1377.684, 9096.000
1378.740, 9158.000
1379.795, 9229.000
1380.850, 9177.000
1381.905, 9250.000
1382.960, 9217.000
1384.015, 9297.000
1385.070, 9325.000
1386.124, 9245.000
1387.178, 9216.000
1388.232, 9177.000
1389.286, 9174.000
1390.340, 9193.000
1391.393, 9247.000
1392.447, 9110.000
1393.500, 9219.000
1394.553, 9075.000
1395.606, 9046.000
1396.659, 9178.000
1397.711, 9156.000
1398.764, 9170.000
1399.816, 9047.000
1400.868, 9140.000
1401.920, 9175.000
1402.972, 9222.000
1404.023, 9237.000
1405.075, 9197.000
1406.126, 9224.000
1407.177, 9216.000
1408.228, 9204.050
1409.279, 9213.000
1410.330, 9189.000
1411.380, 9213.000
1412.431, 9208.000
1413.481, 9259.000
1414.531, 9229.438
1415.580, 9237.580
1416.630, 9210.000
1417.680, 9186.000
1418.729, 9227.000
1419.778, 9131.000
1420.827, 9143.000
1421.876, 9201.000
1422.925, 9186.000
1423.973, 9267.000
1425.022, 9373.000
1426.070, 9338.000
1427.118, 9409.000
1428.166, 9298.000
1429.214, 9442.000
1430.261, 9348.000
1431.309, 9483.000
1432.356, 9494.000
1433.403, 9714.000
1434.450, 9771.000
1435.497, 9676.000
1436.543, 9894.000
1437.590, 9904.000
1438.636, 10118.00
1439.682, 10155.00
1440.728, 10297.00
1441.774, 10353.00
1442.819, 10447.00
1443.865, 10412.00
1444.910, 10621.00
1445.955, 10538.00
1447.000, 10581.00
1448.045, 10638.00
1449.090, 10745.00
1450.134, 10819.00
1451.178, 10859.00
1452.223, 10882.28
1453.267, 10854.00
1454.310, 10865.00
1455.354, 10845.59
1456.398, 10846.79
1457.441, 10786.00
1458.484, 10786.00
1459.527, 10720.00
1460.570, 10546.00
1461.613, 10392.00
1462.655, 10393.00
1463.698, 10167.00
1464.740, 10229.00
1465.782, 10125.00
1466.824, 10144.00
1467.866, 10073.00
1468.907, 9958.000
1469.948, 9964.000
1470.990, 9816.000
1472.031, 9914.000
1473.072, 9841.000
1474.112, 9780.000
1475.153, 9778.000
1476.194, 9732.000
1477.234, 9899.000
1478.274, 9736.000
1479.314, 9820.000
1480.354, 9793.371
1481.393, 9751.000
1482.433, 9675.000
1483.472, 9717.000
1484.511, 9530.000
1485.550, 9594.000
1486.589, 9556.000
1487.628, 9503.000
1488.666, 9453.000
1489.704, 9412.000
1490.743, 9374.000
1491.781, 9443.000
1492.819, 9466.000
1493.856, 9516.000
1494.894, 9339.000
1495.931, 9356.000
1496.968, 9356.000
1498.005, 9332.000
1499.042, 9333.981
1500.079, 9326.494
1501.115, 9327.000
1502.152, 9335.000
1503.188, 9371.000
1504.224, 9413.000
1505.260, 9324.000
1506.296, 9351.000
1507.331, 9450.000
1508.367, 9318.000
1509.402, 9307.000
1510.437, 9429.000
1511.472, 9373.000
1512.507, 9465.000
1513.541, 9363.000
1514.576, 9370.000
1515.610, 9427.000
1516.644, 9471.000
1517.678, 9435.000
1518.712, 9561.000
1519.746, 9391.000
1520.779, 9517.000
1521.813, 9366.000
1522.846, 9477.000
1523.879, 9510.000
1524.912, 9648.000
1525.944, 9632.422
1526.977, 9599.000
1528.009, 9639.000
1529.041, 9543.000
1530.073, 9591.000
1531.105, 9448.000
1532.137, 9597.000
1533.168, 9624.000
1534.200, 9719.000
1535.231, 9653.000
1536.262, 9642.000
1537.293, 9711.000
1538.324, 9641.000
1539.354, 9587.000
1540.385, 9595.000
1541.415, 9570.295
1542.445, 9581.000
1543.475, 9595.000
1544.505, 9649.000
1545.534, 9687.000
1546.564, 9494.000
1547.593, 9596.000
1548.622, 9820.000
1549.651, 9643.000
1550.680, 9757.000
1551.708, 9748.000
1552.737, 9810.000
1553.765, 9915.000
1554.793, 9790.000
1555.821, 9775.000
1556.849, 9603.000
1557.877, 9642.000
1558.904, 9738.000
1559.932, 9765.000
1560.959, 9760.000
1561.986, 9691.000
1563.013, 9793.000
##END=



