##NAMES=Heulandite-Ca
##RRUFFID=R060465
##IDEAL CHEMISTRY=(Ca,Na,K)_5_(Si_27_Al_9_)O_72_&#183;26H_2_O
##LOCALITY=Garrawilla, near Gunnadah, New South Wales, Australia
##OWNER=RRUFF
##SOURCE=Michael Scott
##DESCRIPTION=Orange fan of platy crystals
##STATUS=The identification of this mineral has been confirmed by X-ray diffraction and chemical analysis
##URL=rruff.info/R060465
##MEASURED CHEMISTRY=(Ca_0.66_Na_0.24_K_0.10_)_5_(Si_0.77_Al_0.23_)_36_O_72_Â·24H_2_O
##PIN_ID=M01415
##ORIENTATION=Laser parallel to a* (1 0 0). Fiducial mark perpendicular to laser is parallel to b [0 1 0]
221.4130, 18833.00
222.6400, 18737.00
223.8660, 18680.75
225.0920, 18535.00
226.3190, 18606.00
227.5450, 18600.00
228.7700, 18694.00
229.9960, 18624.00
231.2210, 18753.00
232.4460, 18944.00
233.6710, 18772.00
234.8960, 19163.00
236.1210, 19195.00
237.3450, 19275.00
238.5690, 19307.00
239.7930, 19698.00
241.0170, 19924.00
242.2410, 19996.00
243.4640, 20063.00
244.6870, 20201.00
245.9100, 20449.00
247.1330, 20474.10
248.3560, 20619.00
249.5780, 20586.00
250.8000, 20714.00
252.0230, 20692.00
253.2440, 20885.00
254.4660, 20694.00
255.6880, 20665.00
256.9090, 20683.00
258.1300, 20470.00
259.3510, 20807.00
260.5720, 20886.00
261.7920, 20369.00
263.0130, 19982.00
264.2330, 19550.00
265.4530, 19499.00
266.6730, 19494.00
267.8920, 19376.00
269.1120, 19170.00
270.3310, 19087.00
271.5500, 19069.00
272.7690, 18821.00
273.9880, 18913.00
275.2060, 18706.00
276.4240, 18823.00
277.6430, 18732.00
278.8600, 18676.00
280.0780, 18650.00
281.2960, 18512.00
282.5130, 18483.00
283.7300, 18449.59
284.9470, 18491.00
286.1640, 18418.00
287.3810, 18424.00
288.5970, 18416.00
289.8130, 18412.00
291.0290, 18418.82
292.2450, 18435.50
293.4610, 18433.00
294.6760, 18464.00
295.8910, 18480.00
297.1060, 18449.00
298.3210, 18423.00
299.5360, 18418.05
300.7510, 18408.05
301.9650, 18363.00
303.1790, 18397.00
304.3930, 18322.00
305.6070, 18280.00
306.8200, 18332.00
308.0340, 18610.00
309.2470, 18418.00
310.4600, 18712.00
311.6730, 18737.00
312.8850, 19007.00
314.0980, 19145.00
315.3100, 19269.00
316.5220, 19359.00
317.7340, 19667.00
318.9460, 19816.00
320.1570, 19998.00
321.3690, 20142.00
322.5800, 20366.00
323.7910, 20567.00
325.0010, 20766.00
326.2120, 20906.77
327.4220, 21081.73
328.6330, 21176.59
329.8430, 21334.00
331.0520, 21304.00
332.2620, 21314.00
333.4720, 21292.00
334.6810, 21413.00
335.8900, 21469.00
337.0990, 21567.00
338.3070, 21476.00
339.5160, 21668.00
340.7240, 21633.00
341.9320, 21813.00
343.1400, 21819.00
344.3480, 21924.00
345.5560, 21882.00
346.7630, 22236.00
347.9700, 22298.00
349.1770, 22507.00
350.3840, 22682.00
351.5910, 22965.53
352.7970, 23128.00
354.0040, 23575.00
355.2100, 24009.00
356.4160, 24217.00
357.6220, 24573.00
358.8270, 24990.00
360.0320, 25547.00
361.2380, 25920.00
362.4430, 26545.00
363.6470, 27066.00
364.8520, 27504.00
366.0560, 28154.00
367.2610, 28693.00
368.4650, 29245.00
369.6690, 30064.00
370.8720, 30621.00
372.0760, 31327.00
373.2790, 32263.00
374.4820, 32899.05
375.6850, 33604.00
376.8880, 34529.00
378.0910, 35340.00
379.2930, 36386.00
380.4950, 37661.00
381.6970, 38522.00
382.8990, 39923.00
384.1010, 40689.00
385.3020, 41975.00
386.5040, 43504.00
387.7050, 44761.00
388.9060, 46712.00
390.1060, 47691.00
391.3070, 49357.00
392.5070, 51175.00
393.7080, 52580.00
394.9080, 54408.00
396.1070, 55884.00
397.3070, 57389.00
398.5070, 58619.00
399.7060, 59548.00
400.9050, 60565.00
402.1040, 61044.00
403.3030, 61187.00
404.5010, 60784.00
405.7000, 60316.00
406.8980, 59574.00
408.0960, 57826.00
409.2940, 56935.00
410.4910, 55089.00
411.6890, 53421.00
412.8860, 51887.00
414.0830, 50190.00
415.2800, 48496.34
416.4770, 46921.00
417.6730, 45062.00
418.8690, 43337.00
420.0660, 41673.00
421.2620, 39834.00
422.4570, 38357.00
423.6530, 36803.00
424.8480, 34921.00
426.0440, 33629.00
427.2390, 32048.34
428.4340, 30586.04
429.6280, 29371.00
430.8230, 27991.00
432.0170, 27063.00
433.2110, 26218.00
434.4050, 25187.00
435.5990, 24452.00
436.7930, 23945.00
437.9860, 23275.00
439.1800, 22774.00
440.3730, 22449.00
441.5660, 22014.00
442.7580, 21767.00
443.9510, 21585.00
445.1430, 21404.64
446.3350, 21268.00
447.5270, 21326.00
448.7190, 21369.00
449.9110, 21537.00
451.1020, 21649.00
452.2930, 21804.00
453.4850, 22175.00
454.6750, 22771.00
455.8660, 23234.00
457.0570, 24090.00
458.2470, 24760.00
459.4370, 25735.00
460.6270, 26507.00
461.8170, 27462.58
463.0070, 28195.04
464.1960, 29217.00
465.3850, 29730.00
466.5750, 30129.00
467.7630, 31039.00
468.9520, 31658.00
470.1410, 32569.00
471.3290, 33612.31
472.5170, 34694.91
473.7050, 35857.00
474.8930, 37387.00
476.0810, 38606.00
477.2680, 40358.00
478.4560, 42330.00
479.6430, 43772.00
480.8300, 45444.00
482.0160, 46260.00
483.2030, 47351.00
484.3890, 47156.00
485.5760, 46535.00
486.7620, 45876.00
487.9480, 43947.00
489.1330, 41951.00
490.3190, 39405.00
491.5040, 37156.00
492.6890, 34759.00
493.8740, 32351.00
495.0590, 29936.00
496.2440, 28071.00
497.4280, 26276.00
498.6120, 24376.00
499.7960, 23196.00
500.9800, 21809.00
502.1640, 20911.00
503.3470, 20080.00
504.5310, 19319.00
505.7140, 18921.00
506.8970, 18473.00
508.0800, 17808.00
509.2620, 17627.00
510.4450, 17233.00
511.6270, 16939.97
512.8090, 16775.00
513.9910, 16535.00
515.1730, 16303.00
516.3550, 16195.00
517.5360, 16090.00
518.7170, 15869.00
519.8980, 15809.00
521.0790, 15857.00
522.2600, 15598.00
523.4400, 15509.00
524.6210, 15479.00
525.8010, 15286.00
526.9810, 15260.00
528.1610, 15270.00
529.3400, 15140.00
530.5200, 14890.00
531.6990, 15061.00
532.8780, 14935.00
534.0570, 14612.00
535.2360, 14991.00
536.4140, 14831.00
537.5930, 14589.00
538.7710, 14872.00
539.9490, 14782.00
541.1270, 14738.00
542.3040, 14745.00
543.4820, 14562.00
544.6590, 14726.00
545.8360, 14712.00
547.0130, 14639.00
548.1900, 14719.00
549.3670, 14516.00
550.5430, 14456.00
551.7190, 14548.00
552.8960, 14577.00
554.0710, 14566.00
555.2470, 14365.00
556.4230, 14503.00
557.5980, 14451.00
558.7730, 14602.00
559.9480, 14606.00
561.1230, 14464.00
562.2980, 14604.00
563.4720, 14555.00
564.6470, 14554.00
565.8210, 14642.00
566.9950, 14548.00
568.1690, 14589.00
569.3420, 14518.00
570.5160, 14621.00
571.6890, 14709.00
572.8620, 14685.00
574.0350, 14780.06
575.2080, 14751.00
576.3800, 14882.00
577.5530, 14918.00
578.7250, 14974.03
579.8970, 14969.00
581.0690, 15118.00
582.2410, 15124.00
583.4120, 15439.00
584.5830, 15468.00
585.7550, 15559.00
586.9260, 15436.00
588.0960, 15696.00
589.2670, 15924.00
590.4380, 16180.00
591.6080, 16082.00
592.7780, 16567.00
593.9480, 16775.00
595.1180, 17011.00
596.2870, 17412.00
597.4570, 17662.00
598.6260, 17943.00
599.7950, 18347.00
600.9640, 18832.00
602.1330, 18982.00
603.3010, 19562.00
604.4700, 19885.00
605.6380, 20277.00
606.8060, 20565.00
607.9740, 20659.00
609.1420, 20674.00
610.3090, 20962.00
611.4760, 20931.00
612.6440, 20967.00
613.8110, 20729.00
614.9770, 20441.00
616.1440, 20190.00
617.3110, 19867.00
618.4770, 19370.00
619.6430, 18938.00
620.8090, 18649.00
621.9750, 18274.00
623.1400, 17956.00
624.3060, 17716.00
625.4710, 17342.00
626.6360, 17095.71
627.8010, 16774.32
628.9660, 16620.00
630.1300, 16368.04
631.2950, 16102.00
632.4590, 15968.00
633.6230, 15759.00
634.7870, 15586.00
635.9510, 15479.00
637.1140, 15331.00
638.2780, 15208.47
639.4410, 15052.00
640.6040, 14998.00
641.7670, 14916.00
642.9290, 14867.04
644.0920, 14627.00
645.2540, 14713.00
646.4160, 14671.00
647.5780, 14463.00
648.7400, 14569.00
649.9020, 14177.00
651.0630, 14289.00
652.2250, 14294.00
653.3860, 14163.00
654.5470, 14124.00
655.7080, 14171.00
656.8680, 14080.00
658.0290, 14239.00
659.1890, 14012.00
660.3490, 13993.00
661.5090, 14006.00
662.6690, 14094.00
663.8280, 13953.00
664.9880, 13924.00
666.1470, 14025.00
667.3060, 13906.00
668.4650, 13816.00
669.6240, 13931.00
670.7820, 13813.00
671.9410, 14027.00
673.0990, 13940.00
674.2570, 13961.00
675.4150, 13983.00
676.5720, 13795.00
677.7300, 13981.00
678.8870, 13913.00
680.0450, 13993.00
681.2020, 14020.00
682.3590, 14046.24
683.5150, 14040.00
684.6720, 14146.00
685.8280, 14113.00
686.9840, 14159.00
688.1400, 14128.00
689.2960, 14185.00
690.4520, 14116.00
691.6070, 14090.00
692.7630, 14014.00
693.9180, 14107.00
695.0730, 14193.00
696.2280, 14304.00
697.3820, 14323.84
698.5370, 14231.00
699.6910, 14351.00
700.8450, 14275.00
701.9990, 14260.00
703.1530, 14342.00
704.3070, 14270.00
705.4600, 14357.00
706.6130, 14285.00
707.7660, 14310.00
708.9190, 14439.00
710.0720, 14505.00
711.2250, 14410.00
712.3770, 14648.00
713.5300, 14508.00
714.6820, 14458.00
715.8340, 14592.00
716.9850, 14400.00
718.1370, 14614.00
719.2880, 14566.00
720.4400, 14333.00
721.5910, 14389.00
722.7420, 14429.00
723.8930, 14321.00
725.0430, 14393.00
726.1940, 14444.00
727.3440, 14226.00
728.4940, 14456.00
729.6440, 14258.00
730.7940, 14341.00
731.9430, 14243.00
733.0930, 14192.00
734.2420, 14162.00
735.3910, 14270.00
736.5400, 14384.00
737.6890, 14257.00
738.8370, 14181.00
739.9860, 14423.00
741.1340, 14389.00
742.2820, 14319.00
743.4300, 14371.00
744.5780, 14358.00
745.7250, 14286.00
746.8730, 14393.00
748.0200, 14438.00
749.1670, 14583.00
750.3140, 14515.00
751.4610, 14427.00
752.6070, 14624.00
753.7540, 14607.00
754.9000, 14476.00
756.0460, 14701.00
757.1920, 14816.00
758.3380, 14708.00
759.4830, 14897.00
760.6280, 14822.00
761.7740, 14938.00
762.9190, 15284.00
764.0640, 15140.00
765.2080, 15343.00
766.3530, 15305.00
767.4970, 15614.00
768.6420, 15579.00
769.7860, 15821.00
770.9300, 15572.00
772.0730, 15668.00
773.2170, 15931.00
774.3600, 16156.00
775.5040, 16216.40
776.6470, 16126.00
777.7900, 16333.00
778.9320, 16493.00
780.0750, 16481.00
781.2170, 16811.00
782.3600, 16626.00
783.5020, 16860.00
784.6440, 16713.00
785.7850, 16594.00
786.9270, 16807.00
788.0680, 16593.00
789.2100, 16575.00
790.3510, 16534.00
791.4920, 16582.00
792.6320, 16364.00
793.7730, 16391.00
794.9130, 16299.00
796.0540, 16333.00
797.1940, 16295.00
798.3340, 16201.00
799.4730, 16200.00
800.6130, 16102.12
801.7520, 15947.00
802.8920, 15945.00
804.0310, 15770.00
805.1700, 15701.00
806.3090, 15550.00
807.4470, 15549.00
808.5860, 15446.00
809.7240, 15499.00
810.8620, 15620.00
812.0000, 15498.00
813.1380, 15425.00
814.2750, 15411.00
815.4130, 15607.00
816.5500, 15513.00
817.6870, 15602.00
818.8240, 15619.00
819.9610, 15647.00
821.0980, 15544.00
822.2340, 15337.00
823.3700, 15263.00
824.5070, 15168.00
825.6430, 15016.00
826.7780, 14844.00
827.9140, 14782.00
829.0500, 14619.80
830.1850, 14601.00
831.3200, 14401.00
832.4550, 14338.00
833.5900, 14309.00
834.7250, 14277.00
835.8590, 14293.00
836.9930, 14152.00
838.1280, 14238.00
839.2620, 14122.00
840.3950, 14043.00
841.5290, 14267.00
842.6630, 14206.00
843.7960, 14220.00
844.9290, 14015.00
846.0620, 14058.49
847.1950, 13999.00
848.3280, 14053.00
849.4600, 14053.00
850.5930, 14077.00
851.7250, 14085.00
852.8570, 14167.00
853.9890, 14200.00
855.1210, 14143.00
856.2520, 14081.00
857.3840, 14023.00
858.5150, 14139.00
859.6460, 13957.00
860.7770, 14030.00
861.9080, 14020.00
863.0380, 13862.00
864.1690, 14093.00
865.2990, 14206.00
866.4290, 13937.00
867.5590, 14187.00
868.6890, 14159.00
869.8190, 14100.00
870.9480, 14113.00
872.0770, 14081.66
873.2070, 14068.00
874.3360, 14060.00
875.4640, 14118.00
876.5930, 14116.00
877.7220, 14233.00
878.8500, 13927.00
879.9780, 14180.00
881.1060, 14126.00
882.2340, 13890.00
883.3620, 14173.00
884.4890, 14092.00
885.6170, 14250.00
886.7440, 14201.00
887.8710, 14187.00
888.9980, 14119.00
890.1240, 14126.00
891.2510, 14129.00
892.3770, 14222.00
893.5040, 14229.00
894.6300, 14166.00
895.7560, 14065.00
896.8810, 14202.00
898.0070, 14175.00
899.1330, 14220.00
900.2580, 14230.45
901.3830, 14240.00
902.5080, 14196.00
903.6330, 14243.00
904.7570, 14212.00
905.8820, 14464.00
907.0060, 14304.00
908.1300, 14431.00
909.2540, 14206.00
910.3780, 14259.00
911.5020, 14279.00
912.6250, 14307.00
913.7490, 14354.00
914.8720, 14484.00
915.9950, 14464.00
917.1180, 14423.00
918.2400, 14550.00
919.3630, 14328.00
920.4850, 14350.00
921.6080, 14547.00
922.7300, 14427.25
923.8520, 14458.00
924.9730, 14445.00
926.0950, 14573.00
927.2160, 14594.00
928.3380, 14842.00
929.4590, 14681.00
930.5800, 14657.00
931.7010, 14775.00
932.8210, 14594.00
933.9420, 14733.00
935.0620, 14762.00
936.1820, 14627.00
937.3020, 14571.00
938.4220, 14902.00
939.5420, 14657.00
940.6610, 14884.00
941.7810, 14856.00
942.9000, 14872.00
944.0190, 14867.00
945.1380, 14802.00
946.2570, 14891.00
947.3750, 14808.00
948.4940, 14986.00
949.6120, 14864.00
950.7300, 15034.00
951.8480, 15050.00
952.9660, 15006.00
954.0830, 14957.00
955.2010, 15265.00
956.3180, 15281.00
957.4350, 15236.00
958.5520, 15372.00
959.6690, 15247.00
960.7860, 15247.00
961.9020, 15412.00
963.0190, 15316.00
964.1350, 15318.00
965.2510, 15538.00
966.3670, 15445.00
967.4830, 15588.00
968.5980, 15612.00
969.7140, 15490.00
970.8290, 15679.00
971.9440, 15778.00
973.0590, 15703.00
974.1740, 15824.00
975.2880, 15928.00
976.4030, 15917.00
977.5170, 15968.00
978.6310, 16045.00
979.7450, 16057.23
980.8590, 16128.37
981.9730, 16105.00
983.0860, 16237.00
984.2000, 16210.00
985.3130, 16254.00
986.4260, 16367.00
987.5390, 16368.04
988.6520, 16353.00
989.7640, 16460.00
990.8770, 16458.00
991.9890, 16505.00
993.1010, 16645.00
994.2130, 16711.00
995.3250, 16732.00
996.4370, 16777.00
997.5480, 16828.00
998.6590, 16913.00
999.7710, 17009.00
1000.882, 17084.00
1001.993, 17186.96
1003.103, 17228.00
1004.214, 17369.00
1005.324, 17399.00
1006.434, 17446.77
1007.545, 17411.00
1008.655, 17442.00
1009.764, 17331.00
1010.874, 17375.00
1011.983, 17457.00
1013.093, 17419.00
1014.202, 17510.11
1015.311, 17480.00
1016.420, 17618.00
1017.528, 17729.00
1018.637, 17759.00
1019.745, 17775.00
1020.854, 17769.00
1021.962, 17694.00
1023.070, 17742.00
1024.177, 17781.27
1025.285, 17827.00
1026.392, 17946.00
1027.500, 18016.00
1028.607, 18124.00
1029.714, 18100.00
1030.821, 18112.00
1031.927, 18098.00
1033.034, 18188.00
1034.140, 18246.00
1035.246, 18219.00
1036.352, 18288.00
1037.458, 18295.00
1038.564, 18276.00
1039.670, 18337.00
1040.775, 18345.00
1041.880, 18374.00
1042.986, 18362.00
1044.090, 18404.98
1045.195, 18451.00
1046.300, 18481.00
1047.404, 18515.10
1048.509, 18549.44
1049.613, 18565.00
1050.717, 18566.00
1051.821, 18577.00
1052.925, 18486.00
1054.028, 18495.00
1055.132, 18429.00
1056.235, 18427.98
1057.338, 18506.34
1058.441, 18490.00
1059.544, 18651.00
1060.647, 18814.00
1061.749, 18792.00
1062.851, 18844.00
1063.954, 18894.52
1065.056, 18803.00
1066.158, 18931.00
1067.259, 18915.00
1068.361, 18899.00
1069.462, 18875.00
1070.564, 18792.00
1071.665, 19108.00
1072.766, 19068.00
1073.867, 19415.00
1074.967, 19313.00
1076.068, 19321.00
1077.168, 19615.00
1078.268, 19481.00
1079.368, 19595.00
1080.468, 19802.00
1081.568, 19937.00
1082.668, 20091.00
1083.767, 20275.00
1084.866, 20495.00
1085.966, 20799.00
1087.065, 20794.23
1088.163, 20935.00
1089.262, 20825.00
1090.361, 20788.00
1091.459, 20823.00
1092.557, 20973.00
1093.655, 20859.00
1094.753, 21097.00
1095.851, 21177.00
1096.949, 21118.00
1098.046, 21111.00
1099.143, 21266.00
1100.241, 21461.00
1101.338, 21665.00
1102.434, 21707.64
1103.531, 21779.00
1104.628, 21798.00
1105.724, 21800.00
1106.820, 21864.00
1107.916, 21978.00
1109.012, 22057.00
1110.108, 21932.00
1111.204, 22133.00
1112.299, 22315.00
1113.395, 22295.00
1114.490, 22150.00
1115.585, 22506.00
1116.680, 22439.00
1117.775, 22689.00
1118.869, 22845.00
1119.964, 22723.00
1121.058, 22980.00
1122.152, 23021.00
1123.246, 23001.00
1124.340, 22925.00
1125.434, 22910.00
1126.527, 22843.00
1127.620, 22769.00
1128.714, 23049.00
1129.807, 22974.00
1130.900, 22851.00
1131.992, 23016.00
1133.085, 22805.00
1134.178, 22924.00
1135.270, 22778.00
1136.362, 22883.00
1137.454, 22751.00
1138.546, 22970.00
1139.638, 22849.00
1140.729, 22969.00
1141.821, 22901.00
1142.912, 22813.00
1144.003, 23007.00
1145.094, 22860.00
1146.185, 22796.00
1147.276, 22924.00
1148.366, 22609.00
1149.456, 22589.00
1150.547, 22510.00
1151.637, 22697.00
1152.727, 22514.00
1153.816, 22503.00
1154.906, 22584.00
1155.995, 22546.00
1157.085, 22543.00
1158.174, 22738.00
1159.263, 22298.00
1160.352, 22238.00
1161.441, 22310.00
1162.529, 22263.00
1163.618, 22058.00
1164.706, 21944.00
1165.794, 21887.00
1166.882, 21870.00
1167.970, 21976.00
1169.058, 21679.00
1170.145, 21800.00
1171.232, 21644.00
1172.320, 21487.00
1173.407, 21433.00
1174.494, 21473.00
1175.580, 21279.00
1176.667, 21305.00
1177.754, 21063.00
1178.840, 20875.00
1179.926, 20860.00
1181.012, 20620.00
1182.098, 20878.00
1183.184, 20689.00
1184.269, 20671.00
1185.355, 20516.00
1186.440, 20367.00
1187.525, 20331.00
1188.610, 20164.62
1189.695, 19958.00
1190.780, 19933.00
1191.864, 19826.00
1192.949, 19750.00
1194.033, 19678.79
1195.117, 19554.00
1196.201, 19503.00
1197.285, 19502.00
1198.369, 19398.00
1199.452, 19359.00
1200.536, 19201.00
1201.619, 19093.00
1202.702, 19074.00
1203.785, 18948.00
1204.868, 18947.00
1205.950, 18825.00
1207.033, 18832.00
1208.115, 18910.00
1209.197, 18895.00
1210.279, 18725.00
1211.361, 18570.00
1212.443, 18694.00
1213.525, 18514.00
1214.606, 18630.00
1215.687, 18545.00
1216.769, 18541.00
1217.850, 18468.00
1218.930, 18441.47
1220.011, 18466.00
1221.092, 18403.00
1222.172, 18412.00
1223.252, 18433.00
1224.333, 18555.00
1225.413, 18491.32
1226.492, 18596.00
1227.572, 18430.00
1228.652, 18463.00
1229.731, 18448.00
1230.810, 18512.00
1231.889, 18297.00
1232.968, 18324.00
1234.047, 18378.00
1235.126, 18478.00
1236.204, 18545.00
1237.283, 18301.00
1238.361, 18461.00
1239.439, 18576.00
1240.517, 18323.00
1241.595, 18502.00
1242.673, 18443.00
1243.750, 18392.00
1244.827, 18432.00
1245.905, 18414.00
1246.982, 18618.00
1248.059, 18452.00
1249.135, 18358.00
1250.212, 18572.00
1251.288, 18580.00
1252.365, 18610.00
1253.441, 18509.00
1254.517, 18504.00
1255.593, 18532.00
1256.669, 18715.00
1257.744, 18724.00
1258.820, 18574.00
1259.895, 18747.00
1260.970, 18642.00
1262.045, 18555.00
1263.120, 18608.00
1264.195, 18781.00
1265.270, 18625.00
1266.344, 18916.00
1267.418, 18773.00
1268.492, 18832.00
1269.566, 18804.00
1270.640, 18810.00
1271.714, 18852.00
1272.788, 18924.00
1273.861, 18911.00
1274.934, 18752.00
1276.007, 18951.00
1277.080, 18769.00
1278.153, 19037.00
1279.226, 18933.00
1280.299, 18873.00
1281.371, 18972.00
1282.443, 18911.00
1283.515, 18968.00
1284.587, 19018.02
1285.659, 18910.00
1286.731, 19135.00
1287.802, 19076.56
1288.874, 19143.00
1289.945, 19200.00
1291.016, 19145.00
1292.087, 19239.00
1293.158, 19263.00
1294.229, 19155.00
1295.299, 19418.00
1296.370, 19321.00
1297.440, 19290.00
1298.510, 19586.00
1299.580, 19321.00
1300.650, 19496.00
1301.720, 19314.00
1302.789, 19479.00
1303.859, 19469.00
1304.928, 19540.00
1305.997, 19474.00
1307.066, 19561.00
1308.135, 19524.00
1309.203, 19561.00
1310.272, 19759.00
1311.340, 19679.00
1312.409, 19810.00
1313.477, 19663.00
1314.545, 19668.00
1315.612, 19565.00
1316.680, 19613.00
1317.748, 19733.00
1318.815, 19573.00
1319.882, 19577.00
1320.949, 19686.00
1322.016, 19722.00
1323.083, 19776.00
1324.150, 19816.70
1325.216, 19797.00
1326.283, 19861.00
1327.349, 19780.00
1328.415, 19787.00
1329.481, 19896.00
1330.547, 19874.00
1331.613, 20083.00
1332.678, 20003.00
1333.744, 19861.00
1334.809, 19991.00
1335.874, 19888.00
1336.939, 19967.00
1338.004, 19936.00
1339.068, 19979.69
1340.133, 19943.00
1341.197, 20102.00
1342.262, 20083.00
1343.326, 20146.00
1344.390, 20070.00
1345.453, 20121.00
1346.517, 20179.00
1347.581, 20056.00
1348.644, 20279.00
1349.707, 20261.00
1350.770, 20273.00
1351.833, 20224.00
1352.896, 20244.00
1353.959, 20260.44
1355.022, 20292.00
1356.084, 20280.00
1357.146, 20352.00
1358.208, 20279.00
1359.270, 20328.00
1360.332, 20178.00
1361.394, 20339.00
1362.455, 20447.00
1363.517, 20233.00
1364.578, 20429.00
1365.639, 20360.00
1366.700, 20436.00
1367.761, 20288.00
1368.822, 20319.00
1369.883, 20403.00
1370.943, 20608.00
1372.003, 20476.00
1373.063, 20600.00
1374.123, 20329.00
1375.183, 20594.00
1376.243, 20668.00
1377.303, 20829.00
1378.362, 20480.00
1379.421, 20511.00
1380.481, 20560.00
1381.540, 20605.00
1382.598, 20708.00
1383.657, 20668.00
1384.716, 20556.00
1385.774, 20624.00
1386.833, 20750.00
1387.891, 20658.00
1388.949, 20725.00
1390.007, 20799.00
1391.065, 20727.00
1392.122, 20536.00
1393.180, 20674.00
1394.237, 20685.00
1395.294, 20845.00
1396.351, 20835.00
1397.408, 20961.00
1398.465, 20946.00
1399.522, 20882.00
1400.578, 20990.00
1401.635, 20985.00
1402.691, 20935.00
1403.747, 20895.00
1404.803, 20951.44
1405.859, 20889.00
1406.914, 21071.00
1407.970, 21073.00
1409.025, 21133.00
1410.081, 21258.00
1411.136, 21029.00
1412.191, 20927.00
1413.245, 21281.00
1414.300, 20974.00
1415.355, 21173.00
1416.409, 21389.00
1417.463, 21151.00
1418.518, 21251.00
1419.572, 21149.00
1420.625, 21209.00
1421.679, 21344.00
1422.733, 21322.00
1423.786, 21209.00
1424.840, 21453.00
1425.893, 21297.00
1426.946, 21721.00
1427.999, 21530.00
1429.051, 21514.00
1430.104, 21533.00
1431.157, 21513.00
1432.209, 21747.00
1433.261, 21698.00
1434.313, 21610.00
1435.365, 22008.00
1436.417, 21901.00
1437.468, 21909.00
1438.520, 21966.00
1439.571, 21915.00
1440.623, 22001.00
1441.674, 21917.00
1442.725, 21897.00
1443.775, 21951.00
1444.826, 21978.00
1445.877, 21677.00
1446.927, 22075.00
1447.977, 21899.00
1449.028, 22357.00
1450.078, 22097.00
1451.127, 22095.00
1452.177, 21865.00
1453.227, 22220.00
1454.276, 22182.00
1455.325, 22078.00
1456.375, 22215.00
1457.424, 22079.00
1458.473, 22197.00
1459.521, 22186.00
1460.570, 22094.00
1461.618, 22186.00
1462.667, 22164.00
1463.715, 22140.00
1464.763, 22231.00
1465.811, 22265.00
1466.859, 22240.00
1467.906, 22390.00
1468.954, 22198.00
1470.001, 22344.00
1471.049, 22340.00
1472.096, 22320.00
1473.143, 22278.00
1474.190, 22293.04
1475.236, 22171.00
1476.283, 22300.00
1477.329, 22287.00
1478.376, 22278.00
1479.422, 22428.00
1480.468, 22347.00
1481.514, 22315.00
1482.559, 22325.00
1483.605, 22286.65
1484.650, 22427.00
1485.696, 22370.00
1486.741, 22407.00
1487.786, 22662.00
1488.831, 22563.00
1489.876, 22593.00
1490.920, 22483.00
1491.965, 22644.00
1493.009, 22634.00
1494.054, 22597.00
1495.098, 22721.00
1496.142, 22456.00
1497.185, 22765.00
1498.229, 22772.00
1499.273, 22535.00
1500.316, 22719.00
1501.359, 22736.00
1502.403, 22760.00
1503.446, 22824.40
1504.489, 22782.00
1505.531, 22847.00
1506.574, 22871.00
1507.616, 22857.00
1508.659, 22823.00
1509.701, 22877.44
1510.743, 22945.00
1511.785, 22930.00
1512.827, 23027.00
1513.868, 22986.00
1514.910, 23001.00
1515.951, 23070.00
1516.993, 23088.42
1518.034, 22989.00
1519.075, 23169.00
1520.116, 23339.00
1521.156, 23315.00
1522.197, 23062.00
1523.237, 23259.00
1524.278, 23290.00
1525.318, 23176.00
1526.358, 23445.00
1527.398, 23444.00
1528.438, 23396.00
1529.477, 23406.00
1530.517, 23414.00
1531.556, 23401.00
1532.596, 23518.00
1533.635, 23483.00
1534.674, 23638.00
1535.712, 23467.00
1536.751, 23448.00
1537.790, 23873.00
1538.828, 23575.00
1539.866, 23412.00
1540.905, 23765.00
1541.943, 23751.00
1542.981, 24260.00
1544.018, 24596.00
1545.056, 23814.00
1546.094, 24033.00
1547.131, 23671.00
1548.168, 23793.00
1549.205, 23882.00
1550.242, 23948.00
1551.279, 23919.00
1552.316, 23938.00
1553.352, 24153.69
1554.389, 24421.00
1555.425, 24489.00
1556.461, 24345.00
1557.497, 24202.00
1558.533, 23931.00
1559.569, 24215.00
1560.605, 24105.00
1561.640, 24130.00
1562.675, 24464.00
1563.711, 24273.00
##END=



