##NAMES=Heulandite-Ca
##RRUFFID=R050097
##IDEAL CHEMISTRY=(Ca,Na,K)_5_(Si_27_Al_9_)O_72_&#183;26H_2_O
##LOCALITY=Rat's Nest Claim, Custer County, Idaho, USA
##OWNER=RRUFF
##SOURCE=John Cornish
##DESCRIPTION=Pale pink coffin-shaped tabular single crystals
##STATUS=The identification of this mineral has been confirmed by X-ray diffraction and chemical analysis
##URL=rruff.info/R050097
##MEASURED CHEMISTRY=(Ca_0.66_Na_0.30_K_0.04_)_5_(Si_0.77_Al_0.23_)_36_O_72_Â·24H_2_O
##PIN_ID=L00100
##ORIENTATION=Laser parallel to a* (1 0 0). Fiducial mark perpendicular to laser is parallel to b [0 1 0]
120.5960, 18334.00
121.8270, 18338.00
123.0580, 18719.00
124.2880, 18685.00
125.5190, 18612.00
126.7490, 18858.00
127.9790, 18838.00
129.2090, 18992.00
130.4390, 19004.00
131.6680, 19039.00
132.8980, 19167.00
134.1270, 19249.00
135.3560, 19411.00
136.5850, 19510.09
137.8140, 19570.00
139.0430, 19705.00
140.2710, 19796.00
141.5000, 19814.00
142.7280, 19829.00
143.9560, 19717.00
145.1840, 19877.00
146.4120, 19752.00
147.6390, 19957.00
148.8670, 19913.00
150.0940, 19798.00
151.3210, 20043.00
152.5490, 19921.00
153.7750, 19806.00
155.0020, 19808.00
156.2290, 19730.00
157.4550, 19356.00
158.6810, 19487.00
159.9080, 19364.00
161.1340, 19197.00
162.3590, 19378.00
163.5850, 19407.00
164.8110, 19223.00
166.0360, 19159.00
167.2610, 19017.00
168.4860, 19018.50
169.7110, 18909.00
170.9360, 18816.86
172.1610, 18864.00
173.3850, 18633.00
174.6100, 18610.00
175.8340, 18547.00
177.0580, 18697.00
178.2820, 18739.00
179.5050, 18688.00
180.7290, 18627.00
181.9520, 18621.00
183.1760, 18625.00
184.3990, 18494.00
185.6220, 18416.00
186.8450, 18530.00
188.0670, 18695.00
189.2900, 18620.00
190.5120, 18589.00
191.7340, 18545.00
192.9560, 18520.00
194.1780, 18758.00
195.4000, 18700.00
196.6220, 18712.00
197.8430, 18581.00
199.0640, 18755.00
200.2860, 18740.00
201.5070, 18760.00
202.7270, 18710.00
203.9480, 18701.00
205.1690, 18857.00
206.3890, 18627.00
207.6090, 18608.00
208.8290, 18638.00
210.0490, 18408.00
211.2690, 18591.00
212.4890, 18535.00
213.7080, 18617.00
214.9280, 18448.00
216.1470, 18652.00
217.3660, 18604.00
218.5850, 18404.00
219.8030, 18581.00
221.0220, 18546.00
222.2400, 18751.00
223.4590, 18607.00
224.6770, 18673.00
225.8950, 18608.00
227.1120, 18647.29
228.3300, 18815.00
229.5480, 18763.00
230.7650, 18825.00
231.9820, 18885.00
233.1990, 19017.00
234.4160, 19102.00
235.6330, 19142.00
236.8490, 19109.00
238.0660, 19168.00
239.2820, 19245.00
240.4980, 19265.91
241.7140, 19317.00
242.9300, 19375.00
244.1460, 19413.00
245.3610, 19471.00
246.5770, 19482.00
247.7920, 19494.00
249.0070, 19536.47
250.2220, 19539.82
251.4370, 19609.00
252.6510, 19580.00
253.8660, 19633.00
255.0800, 19683.00
256.2940, 19717.00
257.5080, 19854.00
258.7220, 20091.00
259.9360, 20226.00
261.1490, 19955.00
262.3630, 19723.00
263.5760, 19892.00
264.7890, 19785.00
266.0020, 19704.00
267.2150, 19932.00
268.4270, 19807.00
269.6400, 19951.00
270.8520, 19766.00
272.0640, 20000.00
273.2760, 20048.00
274.4880, 20003.00
275.7000, 20086.00
276.9120, 19999.00
278.1230, 20011.00
279.3340, 19944.00
280.5450, 19947.00
281.7560, 19973.00
282.9670, 19982.00
284.1780, 20188.00
285.3880, 19894.00
286.5980, 20182.00
287.8090, 20110.00
289.0190, 20016.00
290.2290, 20102.00
291.4380, 20162.00
292.6480, 20216.00
293.8570, 20246.34
295.0670, 20383.00
296.2760, 20268.00
297.4850, 20332.00
298.6930, 20326.00
299.9020, 20247.00
301.1110, 20382.00
302.3190, 20232.00
303.5270, 20527.00
304.7350, 20604.00
305.9430, 20688.00
307.1510, 20798.00
308.3580, 20462.00
309.5660, 20327.00
310.7730, 20617.00
311.9800, 20526.00
313.1870, 20689.00
314.3940, 20879.00
315.6010, 20834.00
316.8070, 20809.00
318.0130, 20777.00
319.2200, 20802.00
320.4260, 20733.00
321.6310, 20973.00
322.8370, 20893.00
324.0430, 21190.00
325.2480, 21089.00
326.4540, 21071.00
327.6590, 21150.00
328.8640, 21124.00
330.0680, 21283.00
331.2730, 21347.00
332.4780, 21297.00
333.6820, 21325.00
334.8860, 21324.00
336.0900, 21483.00
337.2940, 21601.00
338.4980, 21583.00
339.7010, 21575.00
340.9050, 21612.00
342.1080, 21779.00
343.3110, 21803.00
344.5140, 21892.00
345.7170, 21949.00
346.9200, 21960.00
348.1220, 21908.00
349.3240, 21897.00
350.5270, 21884.00
351.7290, 22024.00
352.9310, 22125.88
354.1320, 22366.00
355.3340, 22462.00
356.5350, 22486.00
357.7370, 22623.00
358.9380, 22704.47
360.1390, 22738.00
361.3400, 22917.00
362.5400, 22906.00
363.7410, 23001.00
364.9410, 23114.00
366.1410, 23177.00
367.3410, 23167.00
368.5410, 23316.00
369.7410, 23461.00
370.9400, 23298.00
372.1400, 23624.00
373.3390, 23823.00
374.5380, 23820.00
375.7370, 24108.00
376.9360, 23959.00
378.1350, 24204.00
379.3330, 24547.00
380.5310, 24549.00
381.7300, 24576.00
382.9280, 24901.00
384.1260, 25007.00
385.3230, 25209.00
386.5210, 25404.00
387.7180, 25558.40
388.9160, 25768.00
390.1130, 25958.00
391.3100, 26171.00
392.5060, 26468.00
393.7030, 26677.00
394.9000, 27185.00
396.0960, 27393.00
397.2920, 27537.00
398.4880, 27535.00
399.6840, 27760.00
400.8800, 27993.00
402.0750, 28166.00
403.2710, 27922.00
404.4660, 27950.00
405.6610, 27928.00
406.8560, 27854.00
408.0510, 27664.00
409.2450, 27498.00
410.4400, 27160.00
411.6340, 26992.00
412.8280, 26697.00
414.0220, 26469.00
415.2160, 26325.00
416.4100, 26091.15
417.6030, 25934.00
418.7970, 25722.00
419.9900, 25484.00
421.1830, 25280.00
422.3760, 25198.00
423.5690, 25110.00
424.7610, 24853.00
425.9540, 24778.00
427.1460, 24487.00
428.3380, 24483.00
429.5300, 24416.00
430.7220, 24084.00
431.9140, 24189.00
433.1050, 24106.00
434.2970, 24016.00
435.4880, 24040.00
436.6790, 24037.00
437.8700, 24001.00
439.0610, 24040.00
440.2510, 23959.00
441.4420, 23972.00
442.6320, 24026.00
443.8220, 24029.00
445.0120, 23931.00
446.2020, 23969.00
447.3910, 23964.00
448.5810, 24071.00
449.7700, 24323.00
450.9600, 24131.00
452.1490, 24113.00
453.3370, 24317.00
454.5260, 24249.00
455.7150, 24470.00
456.9030, 24523.00
458.0910, 24782.00
459.2800, 24989.00
460.4670, 25089.00
461.6550, 25251.00
462.8430, 25387.76
464.0300, 25556.00
465.2180, 25627.00
466.4050, 25837.00
467.5920, 25924.58
468.7790, 25973.00
469.9650, 26268.00
471.1520, 26456.00
472.3380, 26636.00
473.5250, 27027.00
474.7110, 27218.00
475.8970, 27436.00
477.0820, 27814.00
478.2680, 27983.00
479.4540, 28051.00
480.6390, 28131.00
481.8240, 28212.00
483.0090, 28070.73
484.1940, 28003.00
485.3780, 27713.00
486.5630, 27296.00
487.7470, 27036.00
488.9320, 26824.00
490.1160, 26561.00
491.3000, 26365.53
492.4830, 26146.17
493.6670, 25962.00
494.8500, 25771.00
496.0340, 25546.00
497.2170, 25435.00
498.4000, 25401.00
499.5820, 25216.00
500.7650, 25124.00
501.9480, 25145.00
503.1300, 25063.00
504.3120, 24944.00
505.4940, 24933.76
506.6760, 25047.00
507.8580, 24882.00
509.0390, 24953.00
510.2210, 25037.00
511.4020, 24745.00
512.5830, 24839.00
513.7640, 25090.00
514.9450, 24871.00
516.1250, 24896.00
517.3060, 25080.00
518.4860, 25058.00
519.6660, 25043.00
520.8460, 25105.00
522.0260, 25326.00
523.2060, 25184.00
524.3850, 25053.00
525.5650, 25367.00
526.7440, 25111.00
527.9230, 25263.00
529.1020, 25198.00
530.2810, 25138.00
531.4590, 25175.00
532.6380, 25195.00
533.8160, 25212.00
534.9940, 25384.00
536.1720, 25230.00
537.3500, 25474.00
538.5270, 25438.00
539.7050, 25442.00
540.8820, 25462.00
542.0590, 25293.00
543.2360, 25414.00
544.4130, 25862.00
545.5900, 25783.00
546.7660, 25596.00
547.9430, 25408.00
549.1190, 25751.00
550.2950, 25880.00
551.4710, 25863.00
552.6470, 25868.00
553.8220, 25869.00
554.9980, 25786.00
556.1730, 25884.00
557.3480, 25989.00
558.5230, 25963.00
559.6980, 25922.00
560.8730, 26027.00
562.0470, 26149.00
563.2220, 26058.00
564.3960, 25956.00
565.5700, 25842.00
566.7440, 26314.00
567.9170, 26140.00
569.0910, 26222.00
570.2640, 26300.00
571.4380, 26084.00
572.6110, 26380.00
573.7840, 26225.00
574.9570, 26206.00
576.1290, 26561.00
577.3020, 26417.00
578.4740, 26721.00
579.6460, 26553.00
580.8180, 26577.00
581.9900, 26789.00
583.1620, 26669.00
584.3330, 26821.00
585.5040, 26710.00
586.6760, 26576.00
587.8470, 26824.00
589.0180, 26917.00
590.1880, 26873.00
591.3590, 27021.00
592.5290, 26946.00
593.7000, 27104.00
594.8700, 27214.00
596.0400, 27271.00
597.2090, 27376.90
598.3790, 27423.43
599.5490, 27501.00
600.7180, 27548.00
601.8870, 27575.00
603.0560, 27707.00
604.2250, 27893.00
605.3940, 27850.00
606.5620, 27903.00
607.7300, 28215.00
608.8990, 28020.00
610.0670, 28112.00
611.2350, 28045.00
612.4020, 28201.00
613.5700, 27893.00
614.7370, 28183.00
615.9050, 27916.00
617.0720, 28036.00
618.2390, 27899.00
619.4060, 28056.00
620.5720, 28084.00
621.7390, 28053.00
622.9050, 28097.00
624.0710, 28061.01
625.2370, 28028.79
626.4030, 27977.00
627.5690, 27934.00
628.7340, 27833.00
629.9000, 27777.00
631.0650, 27933.00
632.2300, 28042.00
633.3950, 27958.00
634.5600, 28158.00
635.7240, 28221.00
636.8890, 27997.00
638.0530, 28097.00
639.2170, 28060.00
640.3810, 28124.00
641.5450, 28262.00
642.7080, 28002.00
643.8720, 28181.00
645.0350, 28344.00
646.1980, 28027.00
647.3610, 28577.00
648.5240, 28146.00
649.6870, 28327.00
650.8490, 28256.00
652.0120, 28535.00
653.1740, 28294.00
654.3360, 28365.00
655.4980, 28415.00
656.6600, 28494.00
657.8210, 28502.00
658.9830, 28559.61
660.1440, 28479.00
661.3050, 28634.00
662.4660, 28596.00
663.6270, 28622.00
664.7870, 28793.00
665.9480, 28716.00
667.1080, 28532.00
668.2680, 28714.00
669.4280, 28784.00
670.5880, 28945.00
671.7480, 28885.00
672.9070, 28850.00
674.0670, 28852.00
675.2260, 28781.00
676.3850, 28830.00
677.5440, 29056.00
678.7030, 29099.00
679.8610, 28933.00
681.0200, 29333.00
682.1780, 28996.00
683.3360, 29109.00
684.4940, 29266.00
685.6520, 28994.00
686.8090, 29262.00
687.9670, 29320.00
689.1240, 29069.00
690.2810, 29307.00
691.4380, 29229.00
692.5950, 29331.00
693.7520, 29441.00
694.9080, 29304.00
696.0650, 29473.00
697.2210, 29518.00
698.3770, 29459.00
699.5330, 29610.00
700.6880, 29470.00
701.8440, 29448.00
702.9990, 29676.00
704.1550, 29811.00
705.3100, 29846.00
706.4650, 29990.00
707.6190, 29895.00
708.7740, 29895.00
709.9290, 29851.00
711.0830, 30038.00
712.2370, 29795.00
713.3910, 29789.00
714.5450, 30148.00
715.6980, 30232.00
716.8520, 30134.00
718.0050, 29968.00
719.1580, 30267.00
720.3110, 30190.00
721.4640, 30186.00
722.6170, 30542.00
723.7700, 30606.00
724.9220, 30416.00
726.0740, 30315.00
727.2260, 30382.00
728.3780, 30329.00
729.5300, 30398.31
730.6810, 30468.00
731.8330, 30582.00
732.9840, 30635.00
734.1350, 30770.00
735.2860, 30566.00
736.4370, 30845.00
737.5880, 30711.00
738.7380, 30477.00
739.8880, 30860.00
741.0390, 30842.00
742.1890, 30765.00
743.3380, 30949.00
744.4880, 30973.00
745.6380, 31126.00
746.7870, 31127.00
747.9360, 31121.00
749.0850, 31167.00
750.2340, 31076.00
751.3830, 31085.00
752.5310, 30979.00
753.6800, 31185.00
754.8280, 31269.00
755.9760, 31102.00
757.1240, 31461.00
758.2720, 31533.00
759.4190, 31458.00
760.5670, 31550.00
761.7140, 31573.19
762.8610, 31613.00
764.0080, 31699.00
765.1550, 31654.00
766.3020, 31771.00
767.4480, 31970.00
768.5950, 31747.00
769.7410, 31911.00
770.8870, 31786.00
772.0330, 31939.00
773.1780, 32113.00
774.3240, 31952.00
775.4690, 32137.00
776.6140, 32305.00
777.7590, 32387.00
778.9040, 32325.00
780.0490, 32396.39
781.1940, 32331.00
782.3380, 32317.00
783.4820, 32385.00
784.6260, 32233.00
785.7700, 32480.00
786.9140, 32609.00
788.0580, 32215.00
789.2010, 32374.00
790.3450, 32638.00
791.4880, 32639.00
792.6310, 32749.00
793.7730, 32785.16
794.9160, 32452.00
796.0590, 32733.00
797.2010, 32549.00
798.3430, 32425.00
799.4850, 32732.00
800.6270, 32813.00
801.7690, 32668.00
802.9100, 32781.00
804.0520, 32974.00
805.1930, 32809.00
806.3340, 32881.00
807.4750, 32983.00
808.6160, 32988.00
809.7560, 33103.00
810.8970, 32940.00
812.0370, 33200.00
813.1770, 33015.00
814.3170, 33112.00
815.4570, 33327.00
816.5960, 33023.00
817.7360, 33053.00
818.8750, 33224.00
820.0140, 33196.99
821.1530, 33296.83
822.2920, 33385.00
823.4310, 33445.00
824.5690, 33497.44
825.7070, 33486.00
826.8460, 33524.00
827.9840, 33520.00
829.1220, 33443.00
830.2590, 33366.00
831.3970, 33572.00
832.5340, 33680.00
833.6710, 33713.00
834.8080, 33557.00
835.9450, 33664.00
837.0820, 33744.00
838.2190, 33875.00
839.3550, 33748.00
840.4910, 34127.00
841.6270, 33745.00
842.7630, 34005.00
843.8990, 33737.00
845.0350, 33932.00
846.1700, 33806.00
847.3060, 34061.00
848.4410, 34139.00
849.5760, 34004.00
850.7100, 34278.00
851.8450, 34413.00
852.9800, 34333.00
854.1140, 34259.00
855.2480, 34502.00
856.3820, 34444.00
857.5160, 34293.00
858.6500, 34585.00
859.7830, 34493.00
860.9170, 34462.00
862.0500, 34772.00
863.1830, 34854.00
864.3160, 34617.00
865.4480, 34844.00
866.5810, 34704.00
867.7130, 34542.00
868.8460, 34517.00
869.9780, 34920.00
871.1100, 34962.00
872.2410, 34788.00
873.3730, 34992.00
874.5050, 34950.00
875.6360, 34710.00
876.7670, 34883.00
877.8980, 34851.00
879.0290, 35090.00
880.1590, 35182.00
881.2900, 35254.00
882.4200, 35260.00
883.5500, 35314.64
884.6800, 35268.00
885.8100, 35373.00
886.9400, 35446.00
888.0690, 35513.00
889.1990, 35286.00
890.3280, 35588.00
891.4570, 35334.00
892.5860, 35414.00
893.7140, 35553.00
894.8430, 35664.00
895.9710, 35729.00
897.1000, 35534.00
898.2280, 35579.00
899.3560, 35622.00
900.4830, 35695.00
901.6110, 35625.00
902.7380, 35832.00
903.8660, 36096.00
904.9930, 36028.00
906.1200, 36130.97
907.2460, 36065.00
908.3730, 36105.00
909.5000, 36174.00
910.6260, 36204.00
911.7520, 36278.75
912.8780, 36258.00
914.0040, 36422.00
915.1290, 36345.00
916.2550, 36408.00
917.3800, 36590.00
918.5050, 36590.00
919.6300, 36737.98
920.7550, 36573.00
921.8800, 36852.00
923.0040, 36917.00
924.1290, 36717.00
925.2530, 36516.00
926.3770, 36706.00
927.5010, 36587.00
928.6250, 36955.00
929.7480, 36851.00
930.8720, 36835.00
931.9950, 36761.00
933.1180, 36852.00
934.2410, 36897.00
935.3640, 37000.00
936.4860, 37015.79
937.6090, 36943.00
938.7310, 37082.00
939.8530, 37138.00
940.9750, 37238.00
942.0970, 37351.00
943.2180, 37176.00
944.3400, 37328.00
945.4610, 37298.75
946.5820, 37464.00
947.7030, 37354.00
948.8240, 37368.00
949.9450, 37453.00
951.0650, 37419.20
952.1860, 37495.00
953.3060, 37499.00
954.4260, 37623.00
955.5460, 37723.00
956.6650, 37744.12
957.7850, 37886.00
958.9040, 37801.00
960.0230, 37824.00
961.1420, 37804.73
962.2610, 38017.00
963.3800, 37924.00
964.4990, 38160.00
965.6170, 38390.00
966.7350, 38151.00
967.8530, 38244.00
968.9710, 38279.00
970.0890, 38506.00
971.2070, 38482.00
972.3240, 38555.00
973.4410, 38446.00
974.5580, 38530.77
975.6750, 38495.00
976.7920, 38567.00
977.9090, 38688.00
979.0250, 38570.00
980.1410, 38682.00
981.2580, 38849.00
982.3740, 38805.00
983.4890, 38989.00
984.6050, 38916.00
985.7200, 39194.00
986.8360, 39153.00
987.9510, 38981.00
989.0660, 39485.00
990.1810, 39268.00
991.2950, 39287.00
992.4100, 39607.00
993.5240, 39301.00
994.6390, 39548.00
995.7530, 39809.00
996.8660, 39662.00
997.9800, 39587.00
999.0940, 39931.00
1000.207, 39991.00
1001.320, 39885.00
1002.433, 39848.00
1003.546, 40059.00
1004.659, 39717.00
1005.772, 39893.00
1006.884, 40019.00
1007.996, 40019.00
1009.108, 40026.00
1010.220, 39950.00
1011.332, 40287.00
1012.444, 40128.00
1013.555, 40175.00
1014.666, 40582.00
1015.777, 40308.00
1016.888, 40295.00
1017.999, 40595.00
1019.110, 40473.00
1020.220, 40864.00
1021.331, 40536.00
1022.441, 40537.00
1023.551, 40542.00
1024.661, 40548.00
1025.770, 40902.00
1026.880, 40755.00
1027.989, 40943.00
1029.098, 40823.00
1030.207, 40893.00
1031.316, 41025.00
1032.425, 40883.00
1033.533, 41209.00
1034.642, 41373.00
1035.750, 41169.00
1036.858, 41154.00
1037.966, 41179.00
1039.073, 41157.00
1040.181, 41259.00
1041.288, 41357.00
1042.396, 41330.00
1043.503, 41469.00
1044.610, 41655.00
1045.716, 41648.00
1046.823, 41556.00
1047.929, 41612.00
1049.036, 41471.00
1050.142, 41870.00
1051.248, 41917.00
1052.353, 41851.00
1053.459, 41844.00
1054.564, 41900.00
1055.670, 41880.00
1056.775, 41919.13
1057.880, 41998.00
1058.985, 41983.00
1060.089, 42011.45
1061.194, 42052.00
1062.298, 42037.00
1063.402, 42209.00
1064.506, 42197.00
1065.610, 42273.00
1066.713, 42325.15
1067.817, 42577.00
1068.920, 42412.00
1070.023, 42628.00
1071.126, 42738.00
1072.229, 42704.00
1073.332, 42708.00
1074.435, 42860.00
1075.537, 42784.00
1076.639, 43083.00
1077.741, 43033.00
1078.843, 43328.00
1079.945, 42781.00
1081.046, 43283.00
1082.148, 42984.00
1083.249, 43079.00
1084.350, 43459.00
1085.451, 43444.00
1086.551, 43450.00
1087.652, 43419.00
1088.752, 43309.00
1089.853, 43309.00
1090.953, 43378.00
1092.053, 43669.00
1093.152, 43790.00
1094.252, 43426.00
1095.351, 43783.00
1096.451, 43477.00
1097.550, 43771.00
1098.649, 44024.00
1099.748, 43862.00
1100.846, 43928.00
1101.945, 44111.00
1103.043, 44062.00
1104.141, 43914.00
1105.239, 44220.00
1106.337, 43909.00
1107.434, 43833.00
1108.532, 44292.00
1109.629, 44390.00
1110.726, 44345.00
1111.823, 44339.00
1112.920, 44463.00
1114.017, 44615.00
1115.113, 44767.00
1116.210, 44828.00
1117.306, 44753.00
1118.402, 45008.00
1119.498, 45091.00
1120.593, 45394.00
1121.689, 45687.00
1122.784, 45703.00
1123.879, 45673.00
1124.974, 45547.00
1126.069, 45446.00
1127.164, 45331.00
1128.259, 45449.00
1129.353, 45211.00
1130.447, 45485.00
1131.541, 45079.00
1132.635, 45147.00
1133.729, 45333.00
1134.822, 45584.00
1135.916, 45349.00
1137.009, 45409.00
1138.102, 45152.00
1139.195, 45388.00
1140.288, 45501.00
1141.380, 45520.00
1142.473, 45441.00
1143.565, 45515.00
1144.657, 45487.00
1145.749, 45230.00
1146.841, 45730.00
1147.932, 45532.00
1149.024, 45996.00
1150.115, 45842.00
1151.206, 45943.00
1152.297, 45889.00
1153.388, 45960.00
1154.479, 46006.00
1155.569, 45993.78
1156.659, 46052.00
1157.750, 45983.02
1158.839, 46062.00
1159.929, 45998.00
1161.019, 46121.00
1162.108, 46044.00
1163.198, 46155.00
1164.287, 46151.00
1165.376, 46338.00
1166.465, 46344.00
1167.553, 45982.00
1168.642, 46251.00
1169.730, 46063.00
1170.818, 46499.00
1171.906, 46516.00
1172.994, 46405.00
1174.082, 46319.00
1175.170, 46511.00
1176.257, 46384.00
1177.344, 46454.00
1178.431, 46547.00
1179.518, 46519.00
1180.605, 46555.00
1181.691, 46473.30
1182.778, 46828.60
1183.864, 47048.50
1184.950, 47140.30
1186.036, 46720.34
1187.122, 46961.21
1188.207, 46937.21
1189.292, 46902.35
1190.378, 47236.23
1191.463, 46890.66
1192.548, 47218.65
1193.632, 46748.00
1194.717, 47115.00
1195.801, 46983.00
1196.886, 47181.00
1197.970, 47428.00
1199.054, 46992.00
1200.137, 47393.00
1201.221, 47733.00
1202.305, 47246.00
1203.388, 47487.00
1204.471, 47284.00
1205.554, 47349.00
1206.637, 47542.00
1207.719, 47613.00
1208.802, 47692.00
1209.884, 47492.00
1210.966, 47717.00
1212.048, 47825.00
1213.130, 48005.00
1214.212, 47815.00
1215.293, 47678.00
1216.374, 47780.51
1217.456, 47849.00
1218.536, 47911.00
1219.617, 47873.00
1220.698, 48058.00
1221.778, 48047.00
1222.859, 48227.00
1223.939, 48344.00
1225.019, 48139.00
1226.099, 48129.00
1227.178, 48389.00
1228.258, 48176.00
1229.337, 48403.00
1230.417, 48447.00
1231.496, 48498.00
1232.574, 48506.00
1233.653, 48618.00
1234.732, 48613.07
1235.810, 48703.00
1236.888, 48658.00
1237.966, 48826.00
1239.044, 48882.00
1240.122, 49054.00
1241.199, 48987.00
1242.277, 49031.00
1243.354, 49300.00
1244.431, 48922.00
1245.508, 49195.00
1246.585, 49341.00
1247.661, 49113.00
1248.738, 49153.00
1249.814, 49329.00
1250.890, 49297.00
1251.966, 49349.00
1253.042, 49606.00
1254.117, 49508.00
1255.193, 49588.00
1256.268, 49419.00
1257.343, 49307.00
1258.418, 49775.00
1259.493, 49692.00
1260.567, 49653.00
1261.642, 49898.00
1262.716, 49758.00
1263.790, 49683.00
1264.864, 49837.00
1265.938, 50145.00
1267.011, 49891.00
1268.085, 50305.00
1269.158, 50229.00
1270.231, 50221.00
1271.304, 50095.00
1272.377, 50183.28
1273.450, 50469.00
1274.522, 50373.00
1275.594, 50444.00
1276.666, 50604.00
1277.738, 50516.00
1278.810, 50589.00
1279.882, 50506.00
1280.953, 50669.00
1282.025, 50835.00
1283.096, 50325.00
1284.167, 51005.00
1285.238, 50776.00
1286.308, 50700.00
1287.379, 51014.00
1288.449, 50929.00
1289.519, 51136.00
1290.589, 51047.00
1291.659, 51233.00
1292.729, 51108.00
1293.798, 51079.00
1294.868, 51152.40
1295.937, 51097.00
1297.006, 51264.00
1298.075, 51228.00
1299.143, 51387.00
1300.212, 51530.00
1301.280, 51322.00
1302.348, 51476.00
1303.416, 51625.00
1304.484, 51883.00
1305.552, 51775.00
1306.620, 51845.00
1307.687, 51620.00
1308.754, 51822.00
1309.821, 51966.00
1310.888, 52078.00
1311.955, 52006.00
1313.021, 52150.00
1314.088, 52022.00
1315.154, 52271.00
1316.220, 52295.00
1317.286, 52613.00
1318.352, 52273.00
1319.417, 52421.00
1320.483, 52286.00
1321.548, 52871.00
1322.613, 52855.00
1323.678, 52719.00
1324.743, 52760.00
1325.807, 52674.00
1326.872, 52699.13
1327.936, 52680.00
1329.000, 52781.00
1330.064, 52796.00
1331.128, 52860.00
1332.191, 52902.04
1333.255, 53085.00
1334.318, 53034.00
1335.381, 52952.00
1336.444, 53141.00
1337.507, 53445.00
1338.569, 53610.00
1339.632, 53606.36
1340.694, 53343.00
1341.756, 53583.00
1342.818, 53425.00
1343.880, 53593.00
1344.941, 53544.00
1346.003, 53680.00
1347.064, 53840.00
1348.125, 53624.00
1349.186, 54249.00
1350.247, 54210.00
1351.308, 53681.00
1352.368, 54008.00
1353.428, 54172.00
1354.489, 53999.00
1355.549, 54010.00
1356.608, 54058.90
1357.668, 54137.00
1358.727, 54122.00
1359.787, 54115.00
1360.846, 54138.00
1361.905, 54330.00
1362.964, 54575.00
1364.022, 54404.00
1365.081, 54822.00
1366.139, 54663.00
1367.197, 54733.00
1368.255, 54482.00
1369.313, 54658.00
1370.371, 54857.00
1371.428, 54717.00
1372.486, 54844.36
1373.543, 54595.00
1374.600, 54840.00
1375.657, 54886.00
1376.713, 54876.00
1377.770, 55092.00
1378.826, 55074.74
1379.882, 54932.00
1380.938, 55177.00
1381.994, 55347.00
1383.050, 55427.00
1384.106, 55189.00
1385.161, 55680.00
1386.216, 55753.00
1387.271, 55559.00
1388.326, 55820.00
1389.381, 55780.00
1390.435, 55414.00
1391.490, 55436.00
1392.544, 55776.00
1393.598, 55667.00
1394.652, 55787.00
1395.705, 56162.00
1396.759, 55951.00
1397.812, 55754.00
1398.866, 56072.00
1399.919, 55955.00
1400.972, 55947.00
1402.024, 56197.00
1403.077, 56029.00
1404.129, 56258.00
1405.181, 56264.00
1406.233, 56296.00
1407.285, 56479.97
1408.337, 56688.00
1409.389, 56779.00
1410.440, 56678.00
1411.491, 56840.00
1412.542, 56767.00
1413.593, 56721.00
1414.644, 56852.00
1415.695, 57053.00
1416.745, 57031.00
1417.795, 57106.78
1418.845, 57166.00
1419.895, 57119.00
1420.945, 57179.00
1421.995, 57213.00
1423.044, 57267.00
1424.093, 57280.00
1425.142, 57544.00
1426.191, 57503.00
1427.240, 57562.00
1428.289, 57754.00
1429.337, 57652.00
1430.385, 57558.00
1431.433, 57782.00
1432.481, 57607.00
1433.529, 57986.00
1434.577, 57979.00
1435.624, 57925.00
1436.672, 57948.00
1437.719, 58142.00
1438.766, 58207.00
1439.812, 58151.00
1440.859, 58123.00
1441.905, 58409.00
1442.952, 58575.00
1443.998, 58602.00
1445.044, 58412.00
1446.090, 58464.00
1447.135, 58629.00
1448.181, 58688.00
1449.226, 58807.00
1450.271, 58916.00
1451.316, 58986.00
1452.361, 58791.00
1453.405, 58832.00
1454.450, 59216.00
1455.494, 58923.00
1456.538, 58935.00
1457.582, 59394.00
1458.626, 59256.00
1459.670, 59267.00
1460.713, 59392.00
1461.757, 59313.00
1462.800, 59532.00
1463.843, 59641.00
1464.886, 59420.00
1465.928, 59670.00
1466.971, 59692.00
1468.013, 59477.00
1469.055, 60006.00
1470.097, 59738.00
1471.139, 59665.00
1472.181, 59798.00
1473.222, 59480.00
1474.263, 60050.00
1475.305, 60060.00
1476.346, 60130.00
1477.386, 60338.00
1478.427, 60075.00
1479.468, 60307.00
1480.508, 60326.00
1481.548, 60371.00
1482.588, 60259.00
1483.628, 60570.00
1484.668, 60270.00
1485.707, 60474.00
1486.747, 60677.00
1487.786, 60570.00
1488.825, 60850.00
1489.864, 60538.00
1490.902, 60858.00
1491.941, 61228.00
1492.979, 61072.00
1494.017, 61061.00
1495.055, 61203.00
1496.093, 61195.00
1497.131, 61160.00
1498.168, 60970.00
1499.206, 61191.00
1500.243, 61344.00
1501.280, 61271.00
1502.317, 61753.00
1503.354, 61221.00
1504.390, 61661.00
1505.426, 61575.00
1506.463, 61612.00
1507.499, 61717.00
1508.535, 61817.00
1509.570, 61931.00
1510.606, 61788.00
1511.641, 62033.00
1512.676, 62118.00
1513.711, 61785.00
1514.746, 62090.00
1515.781, 62028.00
1516.816, 62068.00
1517.850, 62338.00
1518.884, 62205.00
1519.918, 62263.00
1520.952, 62451.00
1521.986, 62557.00
1523.019, 62447.00
1524.053, 62549.00
1525.086, 62688.00
1526.119, 62874.00
1527.152, 62843.00
1528.185, 62742.00
1529.217, 62862.00
1530.250, 63015.00
1531.282, 62887.00
1532.314, 62900.00
1533.346, 62926.00
1534.377, 63290.00
1535.409, 63071.00
1536.440, 63176.00
1537.472, 63059.00
1538.503, 63434.00
1539.534, 63446.00
1540.564, 63460.00
1541.595, 63319.00
1542.625, 63509.00
1543.656, 63656.00
1544.686, 63627.00
1545.716, 63811.00
1546.745, 63712.00
1547.775, 63656.00
1548.804, 64015.00
1549.834, 63966.00
1550.863, 63981.00
1551.892, 64154.00
1552.920, 64241.00
1553.949, 64195.00
1554.977, 64476.00
1556.006, 64470.00
1557.034, 64154.00
1558.062, 64475.00
1559.089, 64537.00
1560.117, 64369.00
1561.144, 64449.00
1562.172, 64514.53
1563.199, 64522.00
1564.226, 64737.00
1565.252, 64852.00
1566.279, 64968.00
1567.305, 65050.00
1568.332, 65023.00
1569.358, 65190.00
1570.384, 65176.00
1571.409, 65534.00
##END=



