##NAMES=Heulandite-Ca
##RRUFFID=R060465
##IDEAL CHEMISTRY=(Ca,Na,K)_5_(Si_27_Al_9_)O_72_&#183;26H_2_O
##LOCALITY=Garrawilla, near Gunnadah, New South Wales, Australia
##OWNER=RRUFF
##SOURCE=Michael Scott
##DESCRIPTION=Orange fan of platy crystals
##STATUS=The identification of this mineral has been confirmed by X-ray diffraction and chemical analysis
##URL=rruff.info/R060465
##MEASURED CHEMISTRY=(Ca_0.66_Na_0.24_K_0.10_)_5_(Si_0.77_Al_0.23_)_36_O_72_Â·24H_2_O
##PIN_ID=M01120
##ORIENTATION=Laser parallel to (1 0 1). Fiducial mark perpendicular to laser is parallel to b [0 1 0]
212.1010, 9661.000
213.3240, 9738.000
214.5470, 9762.000
215.7700, 9627.000
216.9930, 9585.000
218.2150, 9580.000
219.4380, 9632.000
220.6600, 9519.000
221.8820, 9573.000
223.1040, 9535.000
224.3260, 9699.000
225.5470, 9607.000
226.7680, 9669.000
227.9900, 9612.000
229.2110, 9620.000
230.4310, 9670.000
231.6520, 9575.000
232.8720, 9481.000
234.0930, 9629.000
235.3130, 9624.000
236.5330, 9619.000
237.7530, 9762.000
238.9720, 9631.000
240.1920, 9900.000
241.4110, 10032.00
242.6300, 9983.000
243.8490, 10180.00
245.0680, 10223.00
246.2860, 10322.00
247.5040, 10376.00
248.7230, 10526.00
249.9410, 10506.00
251.1590, 10576.00
252.3760, 10691.00
253.5940, 10696.00
254.8110, 10619.00
256.0280, 10573.00
257.2450, 10579.00
258.4620, 10634.00
259.6790, 10648.57
260.8950, 10607.37
262.1120, 10702.00
263.3280, 10526.00
264.5440, 10429.00
265.7600, 10433.00
266.9750, 10375.00
268.1910, 10284.00
269.4060, 10375.00
270.6210, 10308.00
271.8360, 10375.00
273.0510, 10361.00
274.2650, 10287.00
275.4800, 10428.00
276.6940, 10424.00
277.9080, 10492.00
279.1220, 10461.00
280.3360, 10526.00
281.5490, 10433.00
282.7630, 10573.00
283.9760, 10543.00
285.1890, 10505.00
286.4020, 10676.00
287.6150, 10697.00
288.8270, 10863.00
290.0400, 10810.00
291.2520, 10983.00
292.4640, 10824.00
293.6760, 10964.00
294.8870, 10787.00
296.0990, 11011.00
297.3100, 10997.00
298.5210, 10932.00
299.7320, 11031.00
300.9430, 10991.52
302.1540, 11038.00
303.3640, 11053.00
304.5750, 11090.00
305.7850, 11223.00
306.9950, 11143.00
308.2050, 11230.00
309.4140, 11425.00
310.6240, 11487.00
311.8330, 11701.00
313.0420, 11918.00
314.2510, 11911.00
315.4600, 12176.00
316.6680, 12230.00
317.8770, 12652.00
319.0850, 12768.00
320.2930, 13036.00
321.5010, 13160.00
322.7090, 13336.00
323.9160, 13447.00
325.1240, 13575.10
326.3310, 13841.00
327.5380, 13832.00
328.7450, 14105.00
329.9520, 14303.00
331.1580, 14136.00
332.3650, 14273.00
333.5710, 14420.00
334.7770, 14402.00
335.9830, 14532.00
337.1880, 14644.00
338.3940, 14613.00
339.5990, 14589.00
340.8040, 14872.00
342.0090, 14882.00
343.2140, 14887.00
344.4190, 15301.00
345.6230, 15317.00
346.8280, 15579.00
348.0320, 15774.00
349.2360, 15880.00
350.4400, 16371.00
351.6430, 16557.00
352.8470, 16816.00
354.0500, 17150.00
355.2530, 17611.00
356.4560, 18014.00
357.6590, 18360.00
358.8620, 18700.00
360.0640, 19133.25
361.2660, 19542.00
362.4680, 20029.00
363.6700, 20475.00
364.8720, 21031.00
366.0740, 21761.00
367.2750, 21906.00
368.4760, 22776.00
369.6770, 23164.00
370.8780, 23686.00
372.0790, 24283.00
373.2800, 24925.00
374.4800, 25619.74
375.6800, 26277.00
376.8800, 27216.00
378.0800, 28030.00
379.2800, 29045.00
380.4790, 29800.00
381.6790, 31015.00
382.8780, 32256.00
384.0770, 33171.00
385.2760, 34422.00
386.4750, 35761.00
387.6730, 37335.00
388.8720, 38706.00
390.0700, 40353.00
391.2680, 41924.00
392.4660, 43444.00
393.6630, 45021.00
394.8610, 46853.00
396.0580, 48619.00
397.2550, 49968.00
398.4520, 51534.00
399.6490, 52153.00
400.8460, 53045.00
402.0420, 53701.00
403.2390, 53527.00
404.4350, 53694.00
405.6310, 53371.00
406.8270, 52238.00
408.0220, 51214.00
409.2180, 49953.00
410.4130, 48446.00
411.6080, 47040.00
412.8030, 45226.00
413.9980, 43233.00
415.1920, 41681.00
416.3870, 39501.00
417.5810, 37732.00
418.7750, 36071.00
419.9690, 34026.00
421.1630, 32504.00
422.3570, 30870.00
423.5500, 29188.00
424.7430, 27658.00
425.9360, 26170.00
427.1290, 24735.00
428.3220, 23232.00
429.5150, 22138.00
430.7070, 20899.00
431.8990, 19677.00
433.0910, 18794.00
434.2830, 17891.00
435.4750, 17132.14
436.6670, 16543.00
437.8580, 15976.00
439.0490, 15485.00
440.2400, 15174.00
441.4310, 14888.00
442.6220, 14586.00
443.8130, 14543.00
445.0030, 14424.00
446.1930, 14378.00
447.3830, 14585.00
448.5730, 14780.00
449.7630, 14949.00
450.9520, 15444.00
452.1420, 15748.00
453.3310, 16191.00
454.5200, 16921.00
455.7090, 17674.00
456.8980, 18276.00
458.0860, 19038.00
459.2740, 19806.00
460.4630, 20852.00
461.6510, 21869.00
462.8380, 22592.00
464.0260, 23413.00
465.2140, 24325.00
466.4010, 24418.00
467.5880, 25123.00
468.7750, 25881.00
469.9620, 26514.00
471.1490, 26973.00
472.3350, 27351.00
473.5220, 28413.00
474.7080, 29324.00
475.8940, 30680.00
477.0800, 31932.00
478.2650, 32982.00
479.4510, 34000.00
480.6360, 34946.00
481.8210, 35625.00
483.0060, 36075.00
484.1910, 35639.00
485.3760, 35577.00
486.5600, 34433.00
487.7440, 33292.00
488.9290, 31137.00
490.1130, 29082.00
491.2960, 27074.00
492.4800, 24838.00
493.6630, 22794.00
494.8470, 20946.00
496.0300, 19101.00
497.2130, 17551.00
498.3960, 16154.13
499.5780, 14880.00
500.7610, 13843.00
501.9430, 12943.00
503.1250, 12134.00
504.3070, 11496.00
505.4890, 10996.00
506.6710, 10553.00
507.8520, 10137.00
509.0330, 9781.000
510.2140, 9572.000
511.3950, 9257.000
512.5760, 9074.000
513.7570, 8823.000
514.9370, 8788.000
516.1170, 8665.000
517.2980, 8487.000
518.4780, 8366.000
519.6570, 8220.000
520.8370, 8100.000
522.0160, 7993.765
523.1960, 7906.000
524.3750, 7803.000
525.5540, 7703.000
526.7320, 7627.000
527.9110, 7549.000
529.0890, 7490.000
530.2680, 7490.000
531.4460, 7370.000
532.6240, 7353.000
533.8010, 7256.000
534.9790, 7198.000
536.1560, 7244.000
537.3340, 7157.000
538.5110, 6974.000
539.6880, 7057.000
540.8650, 7021.000
542.0410, 6987.000
543.2180, 7039.000
544.3940, 6878.000
545.5700, 6893.000
546.7460, 6874.000
547.9220, 6815.000
549.0970, 6854.000
550.2730, 6801.986
551.4480, 6829.000
552.6230, 6755.000
553.7980, 6814.000
554.9730, 6818.000
556.1470, 6797.000
557.3210, 6866.000
558.4960, 6782.000
559.6700, 6849.000
560.8440, 6905.000
562.0170, 6819.000
563.1910, 6890.000
564.3640, 6862.000
565.5380, 6893.000
566.7110, 6825.000
567.8840, 6847.000
569.0560, 6887.000
570.2290, 6887.000
571.4010, 7014.000
572.5740, 7007.000
573.7460, 6937.000
574.9180, 7131.000
576.0890, 7109.000
577.2610, 7105.000
578.4320, 7188.000
579.6040, 7267.000
580.7750, 7183.000
581.9450, 7324.000
583.1160, 7497.000
584.2870, 7474.000
585.4570, 7633.000
586.6270, 7595.000
587.7980, 7707.000
588.9670, 7860.000
590.1370, 7992.000
591.3070, 8158.000
592.4760, 8333.397
593.6450, 8541.000
594.8140, 8743.000
595.9830, 8938.000
597.1520, 9222.000
598.3210, 9432.000
599.4890, 9853.000
600.6570, 10156.00
601.8250, 10585.00
602.9930, 10751.00
604.1610, 11114.00
605.3290, 11226.00
606.4960, 11605.00
607.6630, 11910.00
608.8300, 12054.00
609.9970, 12174.00
611.1640, 12253.00
612.3300, 12144.00
613.4970, 12146.00
614.6630, 11909.00
615.8290, 11746.00
616.9950, 11393.00
618.1610, 11136.00
619.3260, 10757.00
620.4920, 10498.00
621.6570, 10212.00
622.8220, 9828.000
623.9870, 9550.000
625.1520, 9190.000
626.3160, 9026.000
627.4810, 8764.000
628.6450, 8494.000
629.8090, 8375.000
630.9730, 8148.000
632.1370, 7934.000
633.3000, 7828.000
634.4640, 7752.000
635.6270, 7620.000
636.7900, 7490.000
637.9530, 7423.000
639.1160, 7290.000
640.2780, 7255.000
641.4410, 7161.000
642.6030, 7159.000
643.7650, 7082.000
644.9270, 7028.000
646.0890, 7087.000
647.2500, 7008.000
648.4120, 6915.000
649.5730, 6824.000
650.7340, 6829.000
651.8950, 6690.000
653.0560, 6763.000
654.2160, 6718.000
655.3770, 6626.000
656.5370, 6646.000
657.6970, 6594.000
658.8570, 6638.000
660.0170, 6542.000
661.1760, 6515.000
662.3360, 6466.000
663.4950, 6587.000
664.6540, 6521.000
665.8130, 6535.000
666.9720, 6486.000
668.1310, 6484.000
669.2890, 6450.000
670.4470, 6438.023
671.6050, 6421.007
672.7630, 6425.000
673.9210, 6409.000
675.0790, 6414.351
676.2360, 6459.000
677.3930, 6428.000
678.5510, 6471.000
679.7080, 6470.000
680.8640, 6467.000
682.0210, 6361.000
683.1770, 6452.000
684.3340, 6425.000
685.4900, 6551.000
686.6460, 6468.000
687.8020, 6365.000
688.9570, 6479.000
690.1130, 6470.000
691.2680, 6555.000
692.4230, 6504.000
693.5780, 6575.000
694.7330, 6532.000
695.8880, 6456.000
697.0420, 6468.000
698.1960, 6449.000
699.3510, 6442.000
700.5040, 6544.000
701.6580, 6433.000
702.8120, 6396.000
703.9650, 6506.000
705.1190, 6487.000
706.2720, 6538.000
707.4250, 6545.000
708.5780, 6426.000
709.7300, 6449.000
710.8830, 6390.000
712.0350, 6446.000
713.1870, 6460.000
714.3390, 6374.000
715.4910, 6404.000
716.6430, 6392.000
717.7940, 6401.000
718.9460, 6385.000
720.0970, 6398.000
721.2480, 6369.443
722.3990, 6369.472
723.5500, 6323.000
724.7000, 6329.000
725.8500, 6328.000
727.0010, 6253.000
728.1510, 6280.000
729.3010, 6227.000
730.4500, 6254.000
731.6000, 6232.000
732.7490, 6194.000
733.8980, 6256.000
735.0470, 6201.000
736.1960, 6158.000
737.3450, 6142.000
738.4940, 6102.000
739.6420, 6221.000
740.7900, 6196.000
741.9380, 6208.000
743.0860, 6207.000
744.2340, 6207.486
745.3810, 6225.000
746.5290, 6204.000
747.6760, 6202.000
748.8230, 6164.000
749.9700, 6350.000
751.1170, 6326.000
752.2630, 6405.000
753.4100, 6355.000
754.5560, 6389.000
755.7020, 6331.000
756.8480, 6331.000
757.9940, 6504.000
759.1390, 6387.000
760.2850, 6510.000
761.4300, 6519.000
762.5750, 6523.000
763.7200, 6495.000
764.8650, 6531.000
766.0100, 6592.000
767.1540, 6579.000
768.2980, 6513.000
769.4420, 6661.000
770.5860, 6773.000
771.7300, 6803.000
772.8740, 6679.000
774.0170, 6785.000
775.1610, 6666.000
776.3040, 6788.000
777.4470, 6707.000
778.5900, 6734.000
779.7320, 6823.000
780.8750, 6781.000
782.0170, 6678.000
783.1590, 6854.000
784.3010, 6688.000
785.4430, 6640.000
786.5850, 6644.000
787.7260, 6622.000
788.8680, 6573.233
790.0090, 6512.000
791.1500, 6460.000
792.2910, 6361.000
793.4310, 6262.000
794.5720, 6245.000
795.7120, 6279.000
796.8520, 6253.000
797.9920, 6187.719
799.1320, 6140.000
800.2720, 6078.000
801.4120, 6044.000
802.5510, 6114.000
803.6900, 6036.000
804.8290, 5947.000
805.9680, 6044.000
807.1070, 5893.000
808.2450, 5895.000
809.3840, 6010.000
810.5220, 5860.000
811.6600, 5969.000
812.7980, 5903.000
813.9360, 5944.000
815.0730, 5932.000
816.2110, 5922.000
817.3480, 5934.000
818.4850, 5843.000
819.6220, 5849.000
820.7590, 5787.000
821.8960, 5934.000
823.0320, 5813.000
824.1680, 5832.000
825.3040, 5753.000
826.4400, 5741.000
827.5760, 5705.000
828.7120, 5576.000
829.8470, 5745.000
830.9830, 5626.000
832.1180, 5497.000
833.2530, 5570.000
834.3880, 5514.000
835.5220, 5659.000
836.6570, 5661.000
837.7910, 5582.000
838.9250, 5643.000
840.0590, 5598.000
841.1930, 5597.000
842.3270, 5502.000
843.4600, 5514.000
844.5940, 5615.000
845.7270, 5464.000
846.8600, 5525.000
847.9930, 5539.000
849.1250, 5489.000
850.2580, 5565.000
851.3900, 5537.000
852.5230, 5544.000
853.6550, 5435.000
854.7870, 5584.000
855.9180, 5510.000
857.0500, 5577.000
858.1810, 5553.000
859.3130, 5605.000
860.4440, 5523.000
861.5750, 5506.000
862.7050, 5510.000
863.8360, 5554.000
864.9660, 5635.000
866.0970, 5509.000
867.2270, 5595.000
868.3570, 5490.000
869.4870, 5527.000
870.6160, 5452.000
871.7460, 5504.000
872.8750, 5518.000
874.0040, 5509.000
875.1330, 5523.000
876.2620, 5497.000
877.3910, 5499.926
878.5190, 5540.000
879.6470, 5478.000
880.7760, 5483.000
881.9040, 5450.000
883.0310, 5468.000
884.1590, 5559.000
885.2870, 5442.000
886.4140, 5501.000
887.5410, 5398.000
888.6680, 5521.000
889.7950, 5454.000
890.9220, 5506.000
892.0480, 5536.376
893.1750, 5514.229
894.3010, 5568.000
895.4270, 5505.000
896.5530, 5481.000
897.6790, 5454.000
898.8040, 5541.000
899.9300, 5497.000
901.0550, 5577.000
902.1800, 5531.000
903.3050, 5609.000
904.4300, 5521.000
905.5540, 5659.000
906.6790, 5587.000
907.8030, 5515.000
908.9270, 5611.000
910.0510, 5597.000
911.1750, 5512.000
912.2990, 5622.000
913.4220, 5699.000
914.5450, 5566.000
915.6690, 5552.000
916.7920, 5567.000
917.9140, 5711.000
919.0370, 5709.000
920.1600, 5719.000
921.2820, 5703.000
922.4040, 5706.000
923.5260, 5708.000
924.6480, 5668.000
925.7700, 5666.000
926.8910, 5729.000
928.0130, 5675.000
929.1340, 5731.000
930.2550, 5758.000
931.3760, 5750.000
932.4970, 5713.000
933.6170, 5746.000
934.7380, 5726.000
935.8580, 5792.000
936.9780, 5809.000
938.0980, 5833.000
939.2180, 5862.000
940.3370, 5825.000
941.4570, 5862.000
942.5760, 5911.000
943.6950, 5858.000
944.8140, 5902.000
945.9330, 5976.000
947.0520, 5991.000
948.1700, 5992.000
949.2890, 5975.000
950.4070, 6016.000
951.5250, 6001.000
952.6430, 6078.000
953.7600, 6008.000
954.8780, 6029.000
955.9950, 6110.000
957.1120, 6017.000
958.2290, 6194.000
959.3460, 6176.000
960.4630, 6147.000
961.5800, 6366.000
962.6960, 6204.000
963.8120, 6339.000
964.9280, 6316.000
966.0440, 6356.000
967.1600, 6481.000
968.2760, 6437.000
969.3910, 6442.000
970.5060, 6545.000
971.6210, 6483.000
972.7360, 6575.000
973.8510, 6603.000
974.9660, 6560.000
976.0800, 6589.000
977.1950, 6612.000
978.3090, 6658.000
979.4230, 6712.000
980.5370, 6664.000
981.6500, 6792.000
982.7640, 6725.000
983.8770, 6802.000
984.9900, 6788.000
986.1030, 6743.000
987.2160, 6908.000
988.3290, 6944.000
989.4420, 6856.000
990.5540, 7032.000
991.6660, 7030.000
992.7780, 7070.000
993.8900, 7091.000
995.0020, 7064.000
996.1140, 7131.000
997.2250, 7033.000
998.3360, 7159.000
999.4470, 7180.000
1000.558, 7132.000
1001.669, 7256.000
1002.780, 7399.000
1003.890, 7284.000
1005.001, 7330.000
1006.111, 7312.000
1007.221, 7378.000
1008.331, 7350.000
1009.440, 7421.000
1010.550, 7441.000
1011.659, 7435.000
1012.768, 7518.000
1013.877, 7558.000
1014.986, 7553.000
1016.095, 7669.000
1017.204, 7634.000
1018.312, 7627.000
1019.420, 7669.000
1020.528, 7689.000
1021.636, 7723.000
1022.744, 7726.000
1023.852, 7773.082
1024.959, 7708.000
1026.066, 7822.000
1027.173, 7833.000
1028.280, 7780.000
1029.387, 7706.000
1030.494, 7766.000
1031.600, 7837.000
1032.707, 7804.000
1033.813, 7896.000
1034.919, 7861.000
1036.025, 7921.000
1037.130, 7849.000
1038.236, 7853.000
1039.341, 7781.000
1040.446, 7726.000
1041.552, 7835.000
1042.656, 8032.000
1043.761, 8047.000
1044.866, 7993.000
1045.970, 7958.000
1047.074, 7973.000
1048.179, 7953.000
1049.282, 7943.000
1050.386, 7978.000
1051.490, 7953.000
1052.593, 7969.000
1053.697, 7900.000
1054.800, 7929.688
1055.903, 7943.787
1057.006, 7981.000
1058.108, 8005.000
1059.211, 8083.000
1060.313, 8108.000
1061.415, 8150.000
1062.517, 8130.000
1063.619, 8262.000
1064.721, 8148.000
1065.823, 8168.000
1066.924, 8262.620
1068.025, 8250.375
1069.126, 8401.000
1070.227, 8383.000
1071.328, 8360.000
1072.429, 8464.000
1073.529, 8534.000
1074.629, 8551.000
1075.729, 8607.000
1076.829, 8681.000
1077.929, 8592.000
1079.029, 8936.000
1080.128, 9000.000
1081.228, 8984.000
1082.327, 9206.000
1083.426, 9229.000
1084.525, 9337.000
1085.623, 9291.000
1086.722, 9536.000
1087.820, 9652.000
1088.919, 9697.000
1090.017, 9688.000
1091.115, 9768.000
1092.212, 9843.000
1093.310, 9988.000
1094.407, 9950.000
1095.505, 10056.00
1096.602, 10322.00
1097.699, 10242.00
1098.795, 10298.00
1099.892, 10440.00
1100.989, 10472.00
1102.085, 10584.00
1103.181, 10617.00
1104.277, 10673.00
1105.373, 10771.00
1106.469, 10804.41
1107.564, 10899.00
1108.660, 10926.00
1109.755, 10981.00
1110.850, 11072.00
1111.945, 11087.00
1113.040, 11296.00
1114.134, 11269.00
1115.229, 11486.00
1116.323, 11647.00
1117.417, 11624.00
1118.511, 11799.00
1119.605, 11918.00
1120.698, 12121.00
1121.792, 12243.00
1122.885, 12172.00
1123.978, 12215.00
1125.071, 11983.00
1126.164, 12124.00
1127.257, 11948.00
1128.349, 11941.00
1129.442, 11903.00
1130.534, 11847.00
1131.626, 11868.58
1132.718, 11899.00
1133.810, 11892.00
1134.901, 11953.00
1135.993, 11967.00
1137.084, 11822.00
1138.175, 12006.00
1139.266, 11875.00
1140.357, 11961.00
1141.448, 11907.00
1142.538, 11871.00
1143.628, 11893.00
1144.719, 11925.00
1145.809, 11815.00
1146.898, 11921.00
1147.988, 11781.00
1149.078, 11722.00
1150.167, 11819.00
1151.256, 11695.00
1152.345, 11522.00
1153.434, 11567.00
1154.523, 11548.00
1155.612, 11557.00
1156.700, 11434.00
1157.788, 11429.00
1158.877, 11342.00
1159.964, 11248.00
1161.052, 11199.00
1162.140, 11027.00
1163.227, 10973.00
1164.315, 10944.00
1165.402, 10853.00
1166.489, 10847.00
1167.576, 10802.00
1168.663, 10723.00
1169.749, 10543.00
1170.836, 10587.00
1171.922, 10455.00
1173.008, 10279.00
1174.094, 10228.00
1175.180, 10101.00
1176.265, 9957.000
1177.351, 9944.000
1178.436, 9914.000
1179.521, 10072.00
1180.606, 9844.747
1181.691, 9919.000
1182.776, 9459.000
1183.860, 9477.000
1184.944, 9282.000
1186.029, 9193.000
1187.113, 9082.000
1188.197, 8976.000
1189.280, 8948.000
1190.364, 8761.000
1191.447, 8612.000
1192.531, 8706.000
1193.614, 8514.000
1194.697, 8304.000
1195.779, 8463.000
1196.862, 8195.000
1197.945, 8113.000
1199.027, 8154.000
1200.109, 7959.000
1201.191, 7885.000
1202.273, 7873.000
1203.355, 7717.000
1204.436, 7750.000
1205.518, 7673.000
1206.599, 7602.000
1207.680, 7555.000
1208.761, 7422.000
1209.842, 7366.000
1210.922, 7336.000
1212.003, 7264.225
1213.083, 7300.000
1214.163, 7213.000
1215.243, 7216.000
1216.323, 7249.000
1217.402, 7179.000
1218.482, 7199.000
1219.561, 7159.909
1220.641, 7182.000
1221.720, 7071.000
1222.798, 7056.000
1223.877, 6978.000
1224.956, 7018.000
1226.034, 6994.000
1227.112, 6903.000
1228.191, 6975.000
1229.269, 6938.430
1230.346, 6924.689
1231.424, 6993.000
1232.501, 6888.000
1233.579, 6987.000
1234.656, 6944.000
1235.733, 6997.000
1236.810, 6954.000
1237.886, 6853.000
1238.963, 6915.000
1240.039, 6949.000
1241.116, 6972.000
1242.192, 6856.000
1243.268, 6914.000
1244.343, 6942.000
1245.419, 6849.000
1246.494, 6932.000
1247.570, 6910.000
1248.645, 6866.000
1249.720, 6912.000
1250.795, 6887.000
1251.869, 6899.000
1252.944, 6973.000
1254.018, 6918.000
1255.093, 6865.000
1256.167, 6906.000
1257.240, 6919.000
1258.314, 6936.000
1259.388, 6997.000
1260.461, 7030.000
1261.535, 6974.000
1262.608, 6934.000
1263.681, 6933.000
1264.753, 7041.000
1265.826, 6942.000
1266.899, 7011.000
1267.971, 7049.000
1269.043, 7032.000
1270.115, 7005.000
1271.187, 7086.000
1272.259, 7078.000
1273.330, 7037.000
1274.402, 7028.000
1275.473, 6985.000
1276.544, 7007.000
1277.615, 7017.393
1278.686, 7093.000
1279.756, 7066.000
1280.827, 7055.000
1281.897, 7052.000
1282.967, 7089.410
1284.037, 7206.000
1285.107, 7174.000
1286.177, 7226.000
1287.247, 7227.456
1288.316, 7238.106
1289.385, 7268.000
1290.454, 7288.000
1291.523, 7258.000
1292.592, 7323.000
1293.661, 7285.000
1294.729, 7357.000
1295.797, 7365.000
1296.866, 7380.636
1297.934, 7405.000
1299.001, 7401.000
1300.069, 7378.000
1301.137, 7336.000
1302.204, 7365.000
1303.271, 7419.000
1304.338, 7401.000
1305.405, 7520.000
1306.472, 7613.000
1307.539, 7477.000
1308.605, 7483.000
1309.671, 7584.000
1310.737, 7414.000
1311.803, 7564.000
1312.869, 7643.000
1313.935, 7637.000
1315.000, 7634.000
1316.066, 7624.000
1317.131, 7633.718
1318.196, 7637.790
1319.261, 7678.000
1320.326, 7673.000
1321.390, 7747.000
1322.455, 7799.000
1323.519, 7689.000
1324.583, 7670.000
1325.647, 7768.000
1326.711, 7697.000
1327.775, 7687.000
1328.838, 7762.000
1329.902, 7722.000
1330.965, 7707.000
1332.028, 7618.000
1333.091, 7790.000
1334.153, 7672.000
1335.216, 7696.000
1336.279, 7608.000
1337.341, 7627.000
1338.403, 7606.000
1339.465, 7584.000
1340.527, 7684.000
1341.588, 7556.000
1342.650, 7607.000
1343.711, 7594.000
1344.772, 7533.000
1345.834, 7576.000
1346.894, 7627.000
1347.955, 7567.000
1349.016, 7536.000
1350.076, 7621.000
1351.136, 7531.000
1352.197, 7622.000
1353.257, 7529.000
1354.316, 7520.000
1355.376, 7508.000
1356.436, 7475.000
1357.495, 7524.000
1358.554, 7477.000
1359.613, 7407.000
1360.672, 7457.000
1361.731, 7487.000
1362.789, 7445.000
1363.848, 7520.000
1364.906, 7390.000
1365.964, 7424.000
1367.022, 7419.000
1368.080, 7393.000
1369.138, 7398.000
1370.195, 7392.000
1371.253, 7421.000
1372.310, 7432.000
1373.367, 7379.000
1374.424, 7460.000
1375.480, 7338.000
1376.537, 7533.000
1377.593, 7450.000
1378.650, 7363.000
1379.706, 7332.000
1380.762, 7356.000
1381.818, 7366.000
1382.873, 7326.000
1383.929, 7390.000
1384.984, 7371.000
1386.039, 7447.000
1387.094, 7480.000
1388.149, 7499.000
1389.204, 7437.000
1390.259, 7463.000
1391.313, 7409.000
1392.367, 7443.000
1393.422, 7374.000
1394.476, 7362.000
1395.529, 7414.000
1396.583, 7372.089
1397.637, 7383.000
1398.690, 7353.000
1399.743, 7380.000
1400.796, 7345.000
1401.849, 7428.000
1402.902, 7442.138
1403.954, 7460.000
1405.007, 7462.000
1406.059, 7520.000
1407.111, 7388.000
1408.163, 7425.000
1409.215, 7322.000
1410.267, 7454.000
1411.318, 7499.000
1412.370, 7478.000
1413.421, 7549.000
1414.472, 7537.000
1415.523, 7501.000
1416.574, 7433.000
1417.624, 7483.000
1418.675, 7487.000
1419.725, 7491.000
1420.775, 7555.000
1421.825, 7645.000
1422.875, 7597.284
1423.925, 7460.000
1424.974, 7529.000
1426.024, 7548.000
1427.073, 7510.000
1428.122, 7554.000
1429.171, 7574.000
1430.220, 7624.000
1431.268, 7622.000
1432.317, 7617.000
1433.365, 7622.000
1434.413, 7642.000
1435.461, 7669.000
1436.509, 7684.000
1437.557, 7669.000
1438.605, 7682.861
1439.652, 7662.000
1440.699, 7706.000
1441.746, 7645.000
1442.793, 7707.000
1443.840, 7697.000
1444.887, 7767.000
1445.933, 7701.000
1446.980, 7638.000
1448.026, 7752.000
1449.072, 7756.000
1450.118, 7759.000
1451.163, 7770.000
1452.209, 7804.000
1453.254, 7847.000
1454.300, 7761.000
1455.345, 7786.000
1456.390, 7726.000
1457.435, 7717.000
1458.479, 7755.000
1459.524, 7813.000
1460.568, 7879.000
1461.612, 7767.000
1462.656, 7763.000
1463.700, 7751.000
1464.744, 7770.000
1465.788, 7785.000
1466.831, 7760.000
1467.874, 7870.000
1468.918, 7799.000
1469.961, 7877.000
1471.003, 7751.000
1472.046, 7927.000
1473.089, 7838.000
1474.131, 7879.000
1475.173, 7819.000
1476.215, 7840.000
1477.257, 7854.000
1478.299, 7837.931
1479.341, 7868.000
1480.382, 7839.000
1481.424, 7959.000
1482.465, 7956.000
1483.506, 7835.000
1484.547, 7914.000
1485.587, 7870.000
1486.628, 7803.000
1487.668, 7940.000
1488.709, 7929.000
1489.749, 7892.000
1490.789, 7843.000
1491.828, 7867.446
1492.868, 7878.128
1493.908, 7933.000
1494.947, 7949.000
1495.986, 8040.000
1497.025, 8054.000
1498.064, 7970.000
1499.103, 7924.000
1500.141, 8067.000
1501.180, 7937.000
1502.218, 7947.000
1503.256, 7897.000
1504.294, 7980.000
1505.332, 8054.000
1506.370, 8071.000
1507.407, 8093.000
1508.445, 8112.186
1509.482, 8076.000
1510.519, 8061.000
1511.556, 8124.000
1512.593, 7984.000
1513.629, 8118.000
1514.666, 8185.000
1515.702, 8097.000
1516.738, 8153.000
1517.774, 8065.000
1518.810, 8147.000
1519.846, 8125.000
1520.882, 8182.000
1521.917, 8204.000
1522.952, 8218.000
1523.987, 8261.083
1525.022, 8200.000
1526.057, 8315.000
1527.092, 8262.000
1528.126, 8264.000
1529.161, 8198.000
1530.195, 8244.000
1531.229, 8303.000
1532.263, 8209.000
1533.297, 8242.000
1534.330, 8198.000
1535.364, 8215.642
1536.397, 8231.212
1537.430, 8267.000
1538.463, 8283.000
1539.496, 8291.000
1540.529, 8340.000
1541.561, 8249.000
1542.594, 8298.000
1543.626, 8337.000
1544.658, 8418.000
1545.690, 8466.000
1546.722, 8414.000
1547.753, 8395.000
1548.785, 8389.000
1549.816, 8438.000
1550.847, 8521.000
1551.878, 8587.000
1552.909, 8668.000
1553.940, 8653.000
1554.971, 8632.000
1556.001, 8592.000
1557.031, 8520.000
1558.062, 8464.000
1559.092, 8352.000
1560.121, 8463.000
1561.151, 8671.000
1562.181, 8583.000
##END=



