##NAMES=Heulandite-Ca
##RRUFFID=R060465
##IDEAL CHEMISTRY=(Ca,Na,K)_5_(Si_27_Al_9_)O_72_&#183;26H_2_O
##LOCALITY=Garrawilla, near Gunnadah, New South Wales, Australia
##OWNER=RRUFF
##SOURCE=Michael Scott
##DESCRIPTION=Orange fan of platy crystals
##STATUS=The identification of this mineral has been confirmed by X-ray diffraction and chemical analysis
##URL=rruff.info/R060465
##MEASURED CHEMISTRY=(Ca_0.66_Na_0.24_K_0.10_)_5_(Si_0.77_Al_0.23_)_36_O_72_Â·24H_2_O
##PIN_ID=M01254
##ORIENTATION=Laser parallel to c* (0 0 1). Fiducial mark perpendicular to laser is parallel to a [1 0 0]
238.9720, 25613.80
240.1920, 25699.18
241.4110, 25822.00
242.6300, 25995.00
243.8490, 26129.36
245.0680, 26202.29
246.2860, 26305.00
247.5040, 26318.00
248.7230, 26237.00
249.9410, 26261.88
251.1590, 26462.00
252.3760, 26322.00
253.5940, 26604.00
254.8110, 26666.00
256.0280, 26755.00
257.2450, 26767.00
258.4620, 26716.00
259.6790, 26889.12
260.8950, 26988.57
262.1120, 27183.00
263.3280, 27171.00
264.5440, 27315.00
265.7600, 27021.00
266.9750, 27300.00
268.1910, 27097.00
269.4060, 27311.00
270.6210, 27573.00
271.8360, 27700.00
273.0510, 27663.00
274.2650, 27863.00
275.4800, 27906.00
276.6940, 27953.00
277.9080, 28103.00
279.1220, 28089.00
280.3360, 28203.00
281.5490, 28108.00
282.7630, 28201.00
283.9760, 27962.00
285.1890, 28063.00
286.4020, 28025.00
287.6150, 28130.00
288.8270, 28197.00
290.0400, 27969.00
291.2520, 28130.00
292.4640, 28012.00
293.6760, 27727.00
294.8870, 27774.00
296.0990, 27881.00
297.3100, 27744.00
298.5210, 27808.00
299.7320, 27670.00
300.9430, 27645.00
302.1540, 27520.00
303.3640, 27556.00
304.5750, 27469.00
305.7850, 27560.00
306.9950, 27231.00
308.2050, 27055.00
309.4140, 27392.00
310.6240, 27108.00
311.8330, 27143.00
313.0420, 27448.00
314.2510, 27302.00
315.4600, 27400.00
316.6680, 27599.00
317.8770, 27530.00
319.0850, 27463.00
320.2930, 27796.00
321.5010, 27747.00
322.7090, 27977.00
323.9160, 27820.00
325.1240, 27979.00
326.3310, 28181.00
327.5380, 28305.00
328.7450, 28432.00
329.9520, 28377.00
331.1580, 28458.00
332.3650, 28567.00
333.5710, 28647.00
334.7770, 28864.00
335.9830, 28647.00
337.1880, 28756.00
338.3940, 28652.00
339.5990, 28941.00
340.8040, 28665.00
342.0090, 29218.00
343.2140, 29187.00
344.4190, 29155.00
345.6230, 29199.00
346.8280, 29351.12
348.0320, 29840.00
349.2360, 29736.00
350.4400, 30114.00
351.6430, 30275.00
352.8470, 30428.00
354.0500, 31029.00
355.2530, 31127.44
356.4560, 31332.16
357.6590, 31695.00
358.8620, 31695.00
360.0640, 32082.00
361.2660, 32558.00
362.4680, 32904.00
363.6700, 33212.00
364.8720, 33798.00
366.0740, 33891.00
367.2750, 34441.00
368.4760, 34701.00
369.6770, 35251.00
370.8780, 35796.00
372.0790, 36352.00
373.2800, 36619.00
374.4800, 37185.00
375.6800, 37662.00
376.8800, 38381.00
378.0800, 38873.00
379.2800, 39557.00
380.4790, 40209.00
381.6790, 40807.00
382.8780, 41808.00
384.0770, 42824.00
385.2760, 43551.00
386.4750, 44405.00
387.6730, 45777.00
388.8720, 46569.00
390.0700, 47916.00
391.2680, 49090.00
392.4660, 50143.00
393.6630, 51584.00
394.8610, 52737.00
396.0580, 54390.00
397.2550, 55253.00
398.4520, 56431.00
399.6490, 57099.00
400.8460, 57622.00
402.0420, 58298.00
403.2390, 58283.00
404.4350, 58156.00
405.6310, 57837.00
406.8270, 57306.00
408.0220, 56329.00
409.2180, 54926.00
410.4130, 53878.00
411.6080, 52704.00
412.8030, 51797.00
413.9980, 50445.00
415.1920, 48962.00
416.3870, 47833.00
417.5810, 46319.00
418.7750, 45556.00
419.9690, 43824.00
421.1630, 42826.00
422.3570, 41859.00
423.5500, 40687.00
424.7430, 39536.00
425.9360, 38377.00
427.1290, 37518.00
428.3220, 36671.00
429.5150, 35784.52
430.7070, 35029.98
431.8990, 34200.00
433.0910, 33524.00
434.2830, 32712.00
435.4750, 31956.00
436.6670, 31971.00
437.8580, 31242.00
439.0490, 30978.00
440.2400, 30631.00
441.4310, 30462.00
442.6220, 30384.00
443.8130, 30173.00
445.0030, 30114.00
446.1930, 30175.00
447.3830, 30175.00
448.5730, 30371.00
449.7630, 30447.00
450.9520, 30746.86
452.1420, 31030.00
453.3310, 31460.00
454.5200, 31978.00
455.7090, 32447.00
456.8980, 33146.00
458.0860, 33693.00
459.2740, 34453.00
460.4630, 35303.00
461.6510, 36014.00
462.8380, 36752.00
464.0260, 37043.00
465.2140, 37911.00
466.4010, 37994.00
467.5880, 38450.00
468.7750, 38585.00
469.9620, 39032.00
471.1490, 39488.00
472.3350, 39825.00
473.5220, 40303.00
474.7080, 41160.00
475.8940, 41607.00
477.0800, 42722.00
478.2650, 43747.00
479.4510, 44455.00
480.6360, 45020.00
481.8210, 45864.00
483.0060, 45981.00
484.1910, 46093.00
485.3760, 45621.00
486.5600, 44644.00
487.7440, 43798.00
488.9290, 42172.00
490.1130, 40920.00
491.2960, 39584.00
492.4800, 37548.00
493.6630, 36428.00
494.8470, 34736.00
496.0300, 33704.00
497.2130, 32499.00
498.3960, 31702.00
499.5780, 30852.00
500.7610, 30160.00
501.9430, 29681.00
503.1250, 29086.00
504.3070, 28610.60
505.4890, 28352.00
506.6710, 27812.00
507.8520, 27610.00
509.0330, 27435.00
510.2140, 27289.00
511.3950, 27195.00
512.5760, 27067.00
513.7570, 27025.00
514.9370, 26801.00
516.1170, 26648.00
517.2980, 26580.00
518.4780, 26584.00
519.6570, 26525.32
520.8370, 26398.00
522.0160, 26518.00
523.1960, 26463.00
524.3750, 26450.00
525.5540, 26204.00
526.7320, 26106.00
527.9110, 26352.00
529.0890, 26089.00
530.2680, 26368.00
531.4460, 26020.00
532.6240, 26296.00
533.8010, 25947.00
534.9790, 26007.00
536.1560, 26002.00
537.3340, 25877.00
538.5110, 25922.00
539.6880, 25953.00
540.8650, 26055.00
542.0410, 26146.00
543.2180, 26116.12
544.3940, 26175.00
545.5700, 26113.00
546.7460, 26058.88
547.9220, 26047.92
549.0970, 25912.00
550.2730, 25960.00
551.4480, 25941.00
552.6230, 25890.00
553.7980, 26015.00
554.9730, 25988.17
556.1470, 25982.00
557.3210, 26050.00
558.4960, 26059.00
559.6700, 26089.00
560.8440, 26062.00
562.0170, 26245.00
563.1910, 26278.00
564.3640, 26350.00
565.5380, 26246.00
566.7110, 26385.00
567.8840, 26355.00
569.0560, 26440.00
570.2290, 26062.00
571.4010, 26246.00
572.5740, 26216.00
573.7460, 26321.00
574.9180, 26345.00
576.0890, 26543.00
577.2610, 26659.00
578.4320, 26729.00
579.6040, 26790.00
580.7750, 26678.00
581.9450, 26800.52
583.1160, 26895.00
584.2870, 26954.00
585.4570, 27085.00
586.6270, 27225.00
587.7980, 27368.00
588.9670, 27522.00
590.1370, 27498.00
591.3070, 27714.00
592.4760, 27940.00
593.6450, 28240.00
594.8140, 28312.00
595.9830, 28374.00
597.1520, 28673.00
598.3210, 28777.00
599.4890, 29073.00
600.6570, 29392.00
601.8250, 29516.00
602.9930, 30081.00
604.1610, 30337.00
605.3290, 30450.00
606.4960, 30546.00
607.6630, 30984.00
608.8300, 31127.00
609.9970, 31230.00
611.1640, 31291.77
612.3300, 31036.00
613.4970, 31077.00
614.6630, 30924.00
615.8290, 30613.00
616.9950, 30750.00
618.1610, 30333.00
619.3260, 30028.00
620.4920, 29948.00
621.6570, 29428.00
622.8220, 29340.00
623.9870, 29129.00
625.1520, 29064.00
626.3160, 28958.00
627.4810, 28669.00
628.6450, 28550.00
629.8090, 28496.00
630.9730, 28317.00
632.1370, 28242.42
633.3000, 28124.18
634.4640, 28070.93
635.6270, 27903.79
636.7900, 27881.08
637.9530, 27793.00
639.1160, 27753.00
640.2780, 27702.00
641.4410, 27656.00
642.6030, 27504.00
643.7650, 27710.00
644.9270, 27736.00
646.0890, 27647.00
647.2500, 27799.00
648.4120, 27506.00
649.5730, 27520.00
650.7340, 27368.00
651.8950, 27382.39
653.0560, 27355.17
654.2160, 27515.00
655.3770, 27438.00
656.5370, 27540.00
657.6970, 27790.00
658.8570, 27492.00
660.0170, 27482.00
661.1760, 27512.00
662.3360, 27649.00
663.4950, 27555.00
664.6540, 27470.00
665.8130, 27583.00
666.9720, 27433.00
668.1310, 27447.00
669.2890, 27496.00
670.4470, 27571.00
671.6050, 27398.00
672.7630, 27492.00
673.9210, 27349.00
675.0790, 27573.00
676.2360, 27845.00
677.3930, 27541.00
678.5510, 27778.00
679.7080, 27682.00
680.8640, 27434.00
682.0210, 27735.00
683.1770, 27581.00
684.3340, 27562.00
685.4900, 27575.00
686.6460, 27815.00
687.8020, 27572.00
688.9570, 27787.00
690.1130, 27587.00
691.2680, 27855.00
692.4230, 28062.00
693.5780, 27903.00
694.7330, 27669.00
695.8880, 27985.00
697.0420, 28121.00
698.1960, 27821.00
699.3510, 27966.00
700.5040, 28033.00
701.6580, 28208.00
702.8120, 28035.00
703.9650, 27932.00
705.1190, 27941.00
706.2720, 28060.00
707.4250, 28058.00
708.5780, 28318.00
709.7300, 27986.00
710.8830, 28062.00
712.0350, 28365.00
713.1870, 28382.00
714.3390, 27975.00
715.4910, 28325.00
716.6430, 28083.00
717.7940, 28337.00
718.9460, 28113.00
720.0970, 28138.00
721.2480, 28282.00
722.3990, 28179.00
723.5500, 28191.00
724.7000, 28296.00
725.8500, 28322.00
727.0010, 28392.00
728.1510, 28452.99
729.3010, 28485.95
730.4500, 28547.00
731.6000, 28518.00
732.7490, 28522.00
733.8980, 28434.00
735.0470, 28489.00
736.1960, 28457.00
737.3450, 28590.00
738.4940, 28632.00
739.6420, 28713.00
740.7900, 28782.00
741.9380, 28607.00
743.0860, 28735.00
744.2340, 28902.00
745.3810, 28522.00
746.5290, 28815.00
747.6760, 28754.00
748.8230, 28768.00
749.9700, 28870.00
751.1170, 28934.00
752.2630, 29033.00
753.4100, 28955.00
754.5560, 28911.00
755.7020, 29041.00
756.8480, 28990.00
757.9940, 29191.00
759.1390, 29304.00
760.2850, 29481.00
761.4300, 29589.00
762.5750, 29588.00
763.7200, 29491.00
764.8650, 29664.00
766.0100, 29694.00
767.1540, 29824.00
768.2980, 29761.00
769.4420, 29754.00
770.5860, 29871.00
771.7300, 29905.00
772.8740, 29951.00
774.0170, 29925.00
775.1610, 29890.00
776.3040, 30085.00
777.4470, 30120.00
778.5900, 30271.00
779.7320, 30157.00
780.8750, 30160.00
782.0170, 30240.00
783.1590, 30151.00
784.3010, 30205.00
785.4430, 30150.14
786.5850, 30186.00
787.7260, 30025.00
788.8680, 30013.00
790.0090, 29917.00
791.1500, 30062.00
792.2910, 30138.00
793.4310, 30258.00
794.5720, 29893.00
795.7120, 30163.00
796.8520, 29891.00
797.9920, 30121.00
799.1320, 29963.00
800.2720, 29847.00
801.4120, 29811.00
802.5510, 29903.00
803.6900, 30124.00
804.8290, 29960.00
805.9680, 30119.00
807.1070, 30032.00
808.2450, 30018.00
809.3840, 30141.00
810.5220, 30048.00
811.6600, 30000.00
812.7980, 30167.00
813.9360, 30045.00
815.0730, 30210.00
816.2110, 30147.00
817.3480, 30057.00
818.4850, 30175.00
819.6220, 30211.00
820.7590, 30161.28
821.8960, 30211.13
823.0320, 30097.00
824.1680, 30195.00
825.3040, 30173.00
826.4400, 30161.00
827.5760, 30282.00
828.7120, 30227.00
829.8470, 30172.00
830.9830, 29933.00
832.1180, 30093.71
833.2530, 30040.96
834.3880, 30208.00
835.5220, 30230.00
836.6570, 30010.00
837.7910, 30240.00
838.9250, 30243.00
840.0590, 30056.00
841.1930, 30195.00
842.3270, 30208.00
843.4600, 30244.00
844.5940, 30151.00
845.7270, 30316.00
846.8600, 30482.00
847.9930, 30311.00
849.1250, 30412.00
850.2580, 30307.00
851.3900, 30285.00
852.5230, 30443.00
853.6550, 30216.00
854.7870, 30366.00
855.9180, 30322.00
857.0500, 30418.00
858.1810, 30566.00
859.3130, 30516.00
860.4440, 30657.00
861.5750, 30715.00
862.7050, 30654.00
863.8360, 30834.00
864.9660, 30549.00
866.0970, 30598.00
867.2270, 30679.00
868.3570, 30713.00
869.4870, 30751.00
870.6160, 30786.00
871.7460, 30750.00
872.8750, 30983.00
874.0040, 30855.00
875.1330, 30886.00
876.2620, 30678.00
877.3910, 31031.00
878.5190, 31002.00
879.6470, 30852.00
880.7760, 31101.00
881.9040, 30908.00
883.0310, 31038.00
884.1590, 31125.00
885.2870, 31380.00
886.4140, 31150.00
887.5410, 31128.00
888.6680, 31067.00
889.7950, 31028.00
890.9220, 31084.00
892.0480, 31149.00
893.1750, 31173.34
894.3010, 31298.00
895.4270, 31284.00
896.5530, 31372.00
897.6790, 31430.00
898.8040, 31449.00
899.9300, 31497.41
901.0550, 31537.00
902.1800, 31514.00
903.3050, 31581.00
904.4300, 31531.00
905.5540, 31503.00
906.6790, 31567.00
907.8030, 31690.00
908.9270, 31831.00
910.0510, 31653.00
911.1750, 31966.00
912.2990, 31593.00
913.4220, 31727.00
914.5450, 31809.00
915.6690, 31784.00
916.7920, 31855.00
917.9140, 31736.00
919.0370, 31790.56
920.1600, 32070.00
921.2820, 31862.00
922.4040, 32102.00
923.5260, 32249.00
924.6480, 32110.00
925.7700, 32095.00
926.8910, 32197.00
928.0130, 32253.00
929.1340, 32359.00
930.2550, 32586.00
931.3760, 32736.00
932.4970, 32442.00
933.6170, 32310.00
934.7380, 32463.00
935.8580, 32443.00
936.9780, 32413.00
938.0980, 32541.00
939.2180, 32619.00
940.3370, 32609.00
941.4570, 32616.00
942.5760, 32820.00
943.6950, 32758.00
944.8140, 32586.00
945.9330, 32868.00
947.0520, 32745.00
948.1700, 32854.00
949.2890, 32946.00
950.4070, 32969.00
951.5250, 32894.00
952.6430, 33217.00
953.7600, 33042.09
954.8780, 33289.84
955.9950, 33424.00
957.1120, 33562.49
958.2290, 33547.21
959.3460, 33451.00
960.4630, 33319.00
961.5800, 33484.00
962.6960, 33664.00
963.8120, 33848.00
964.9280, 33673.00
966.0440, 33467.00
967.1600, 33621.00
968.2760, 33526.00
969.3910, 33922.00
970.5060, 33956.00
971.6210, 34130.00
972.7360, 33937.00
973.8510, 34149.00
974.9660, 34055.00
976.0800, 33971.00
977.1950, 34372.00
978.3090, 34233.00
979.4230, 34472.00
980.5370, 34530.00
981.6500, 34419.00
982.7640, 34346.00
983.8770, 34358.00
984.9900, 34695.00
986.1030, 34774.00
987.2160, 34858.00
988.3290, 34955.00
989.4420, 35132.00
990.5540, 34914.00
991.6660, 35001.00
992.7780, 35388.00
993.8900, 35256.00
995.0020, 35038.00
996.1140, 35394.00
997.2250, 35182.00
998.3360, 35494.00
999.4470, 35326.00
1000.558, 35675.00
1001.669, 35547.00
1002.780, 35745.00
1003.890, 35948.00
1005.001, 35821.00
1006.111, 35926.00
1007.221, 36166.00
1008.331, 36016.00
1009.440, 36031.00
1010.550, 36198.00
1011.659, 36273.00
1012.768, 36528.00
1013.877, 36221.00
1014.986, 36307.00
1016.095, 36315.00
1017.204, 36623.00
1018.312, 36779.00
1019.420, 36806.00
1020.528, 36562.00
1021.636, 36908.00
1022.744, 36518.00
1023.852, 36831.00
1024.959, 36853.00
1026.066, 36673.00
1027.173, 36735.00
1028.280, 36794.00
1029.387, 37000.00
1030.494, 36762.00
1031.600, 36978.00
1032.707, 36943.00
1033.813, 36998.00
1034.919, 37173.00
1036.025, 37114.67
1037.130, 37013.00
1038.236, 37118.00
1039.341, 37199.00
1040.446, 37207.00
1041.552, 37213.00
1042.656, 37251.45
1043.761, 37217.00
1044.866, 37239.00
1045.970, 37261.00
1047.074, 37154.65
1048.179, 37253.00
1049.282, 37124.00
1050.386, 37321.00
1051.490, 37479.00
1052.593, 37332.00
1053.697, 37321.00
1054.800, 37606.00
1055.903, 37312.00
1057.006, 37792.00
1058.108, 37476.00
1059.211, 37891.00
1060.313, 37837.00
1061.415, 37684.00
1062.517, 37831.00
1063.619, 37986.00
1064.721, 37794.00
1065.823, 37911.00
1066.924, 37837.00
1068.025, 38005.00
1069.126, 38045.00
1070.227, 38090.00
1071.328, 38160.00
1072.429, 38199.69
1073.529, 38294.00
1074.629, 38309.00
1075.729, 38384.00
1076.829, 38460.91
1077.929, 38579.00
1079.029, 38655.00
1080.128, 38724.00
1081.228, 38787.00
1082.327, 39126.00
1083.426, 39032.00
1084.525, 39132.00
1085.623, 39458.00
1086.722, 39480.00
1087.820, 39562.00
1088.919, 39752.00
1090.017, 39735.00
1091.115, 39835.00
1092.212, 39785.00
1093.310, 39880.19
1094.407, 40083.00
1095.505, 40079.00
1096.602, 40149.00
1097.699, 40339.00
1098.795, 40639.00
1099.892, 40533.00
1100.989, 40656.00
1102.085, 40747.00
1103.181, 40570.00
1104.277, 40576.00
1105.373, 40779.00
1106.469, 41007.00
1107.564, 40756.00
1108.660, 41132.00
1109.755, 41091.00
1110.850, 41364.00
1111.945, 41173.00
1113.040, 41324.00
1114.134, 41365.00
1115.229, 41651.00
1116.323, 41637.00
1117.417, 41802.00
1118.511, 41766.00
1119.605, 41843.00
1120.698, 41908.00
1121.792, 41931.00
1122.885, 42434.00
1123.978, 42314.00
1125.071, 42371.00
1126.164, 42031.00
1127.257, 42063.00
1128.349, 41911.00
1129.442, 42031.00
1130.534, 41909.00
1131.626, 41882.00
1132.718, 42010.00
1133.810, 42320.00
1134.901, 42496.00
1135.993, 42196.00
1137.084, 42351.00
1138.175, 42325.00
1139.266, 42265.00
1140.357, 42424.00
1141.448, 42473.00
1142.538, 42383.00
1143.628, 42145.00
1144.719, 42505.00
1145.809, 42560.00
1146.898, 42417.00
1147.988, 42568.00
1149.078, 42447.00
1150.167, 42451.00
1151.256, 42509.00
1152.345, 42691.00
1153.434, 42495.00
1154.523, 42742.00
1155.612, 42318.00
1156.700, 42466.00
1157.788, 42605.00
1158.877, 42504.00
1159.964, 42559.00
1161.052, 42427.00
1162.140, 42512.00
1163.227, 42421.00
1164.315, 42277.00
1165.402, 42480.00
1166.489, 42387.00
1167.576, 42426.00
1168.663, 42267.00
1169.749, 42307.00
1170.836, 42288.00
1171.922, 42209.05
1173.008, 42126.00
1174.094, 42079.00
1175.180, 42119.00
1176.265, 41995.00
1177.351, 41985.49
1178.436, 41875.00
1179.521, 41894.00
1180.606, 41876.00
1181.691, 41840.00
1182.776, 41440.00
1183.860, 41716.00
1184.944, 41597.00
1186.029, 41620.00
1187.113, 41852.00
1188.197, 41521.00
1189.280, 41585.00
1190.364, 41417.00
1191.447, 41500.00
1192.531, 41327.00
1193.614, 41406.00
1194.697, 41367.00
1195.779, 41397.00
1196.862, 41211.00
1197.945, 41055.00
1199.027, 40885.00
1200.109, 41046.00
1201.191, 40912.00
1202.273, 40673.00
1203.355, 40900.00
1204.436, 40942.00
1205.518, 40667.00
1206.599, 40921.00
1207.680, 40993.00
1208.761, 40760.00
1209.842, 40841.00
1210.922, 40806.00
1212.003, 40836.00
1213.083, 40622.00
1214.163, 40799.00
1215.243, 40600.00
1216.323, 40867.00
1217.402, 40702.00
1218.482, 40859.00
1219.561, 40621.00
1220.641, 40740.00
1221.720, 40786.00
1222.798, 40624.00
1223.877, 40745.00
1224.956, 40810.00
1226.034, 40853.00
1227.112, 40894.02
1228.191, 40896.00
1229.269, 40933.00
1230.346, 40955.21
1231.424, 40983.12
1232.501, 41004.00
1233.579, 41030.00
1234.656, 41053.00
1235.733, 41034.68
1236.810, 40993.00
1237.886, 41013.00
1238.963, 40928.00
1240.039, 40868.00
1241.116, 41332.00
1242.192, 41019.00
1243.268, 41183.00
1244.343, 40851.00
1245.419, 41271.00
1246.494, 41219.00
1247.570, 41081.00
1248.645, 41679.00
1249.720, 41463.00
1250.795, 41128.00
1251.869, 41571.00
1252.944, 41205.00
1254.018, 41276.00
1255.093, 41490.00
1256.167, 41764.00
1257.240, 41650.00
1258.314, 41698.00
1259.388, 41777.57
1260.461, 41480.00
1261.535, 41789.00
1262.608, 41734.00
1263.681, 41608.00
1264.753, 41729.00
1265.826, 41676.00
1266.899, 41907.00
1267.971, 42065.00
1269.043, 42052.00
1270.115, 42326.00
1271.187, 41956.00
1272.259, 42069.00
1273.330, 41842.00
1274.402, 42033.00
1275.473, 42212.00
1276.544, 42266.00
1277.615, 41971.00
1278.686, 41962.00
1279.756, 42294.00
1280.827, 42267.00
1281.897, 42418.00
1282.967, 42301.00
1284.037, 42532.00
1285.107, 42623.00
1286.177, 42418.00
1287.247, 42827.00
1288.316, 42774.00
1289.385, 42468.00
1290.454, 42765.00
1291.523, 42651.00
1292.592, 42721.00
1293.661, 42901.00
1294.729, 42857.00
1295.797, 42753.00
1296.866, 43005.00
1297.934, 43102.00
1299.001, 43172.00
1300.069, 43010.00
1301.137, 42843.00
1302.204, 43196.00
1303.271, 43380.00
1304.338, 43390.00
1305.405, 43359.00
1306.472, 43357.00
1307.539, 43366.16
1308.605, 43262.00
1309.671, 43377.00
1310.737, 43411.00
1311.803, 43393.00
1312.869, 43645.00
1313.935, 43431.00
1315.000, 43432.00
1316.066, 43402.00
1317.131, 43797.00
1318.196, 43858.00
1319.261, 43882.00
1320.326, 43828.00
1321.390, 43825.00
1322.455, 43805.16
1323.519, 43814.00
1324.583, 43825.00
1325.647, 43787.00
1326.711, 43935.00
1327.775, 43844.00
1328.838, 44009.00
1329.902, 44138.00
1330.965, 44123.00
1332.028, 44059.00
1333.091, 44069.00
1334.153, 44221.00
1335.216, 44054.00
1336.279, 44319.00
1337.341, 44005.00
1338.403, 44461.00
1339.465, 44367.00
1340.527, 44369.00
1341.588, 44489.00
1342.650, 44307.00
1343.711, 44365.00
1344.772, 44442.00
1345.834, 44439.00
1346.894, 44382.00
1347.955, 44424.00
1349.016, 44347.00
1350.076, 44672.00
1351.136, 44540.00
1352.197, 44685.00
1353.257, 44528.00
1354.316, 44671.00
1355.376, 44786.00
1356.436, 44662.00
1357.495, 44462.00
1358.554, 44705.00
1359.613, 44775.00
1360.672, 44802.00
1361.731, 44946.00
1362.789, 44965.00
1363.848, 45062.00
1364.906, 45049.00
1365.964, 45179.00
1367.022, 45209.00
1368.080, 45121.00
1369.138, 44997.00
1370.195, 44821.00
1371.253, 45115.00
1372.310, 45406.00
1373.367, 45152.00
1374.424, 45229.00
1375.480, 45036.00
1376.537, 45275.00
1377.593, 45333.00
1378.650, 45387.00
1379.706, 45295.00
1380.762, 45346.15
1381.818, 45215.00
1382.873, 45337.00
1383.929, 45388.00
1384.984, 45388.00
1386.039, 45343.00
1387.094, 45546.00
1388.149, 45641.00
1389.204, 45638.00
1390.259, 45790.82
1391.313, 45778.79
1392.367, 45937.00
1393.422, 45804.00
1394.476, 45795.00
1395.529, 45809.00
1396.583, 45773.74
1397.637, 45747.00
1398.690, 45830.00
1399.743, 45860.00
1400.796, 45961.85
1401.849, 46009.27
1402.902, 46092.00
1403.954, 46116.00
1405.007, 46130.00
1406.059, 46157.33
1407.111, 46163.82
1408.163, 46257.00
1409.215, 46207.00
1410.267, 46128.00
1411.318, 46204.00
1412.370, 46433.00
1413.421, 46350.00
1414.472, 46579.00
1415.523, 46483.00
1416.574, 46451.00
1417.624, 46244.00
1418.675, 46732.00
1419.725, 46670.00
1420.775, 46614.00
1421.825, 46465.00
1422.875, 46620.00
1423.925, 46643.00
1424.974, 47158.00
1426.024, 46808.00
1427.073, 46625.00
1428.122, 46926.00
1429.171, 46683.00
1430.220, 47114.00
1431.268, 47343.00
1432.317, 47086.00
1433.365, 47126.00
1434.413, 47226.00
1435.461, 47194.00
1436.509, 47272.66
1437.557, 47441.00
1438.605, 47373.00
1439.652, 47489.00
1440.699, 47558.00
1441.746, 47380.00
1442.793, 47777.00
1443.840, 47861.00
1444.887, 47879.00
1445.933, 47724.00
1446.980, 47819.00
1448.026, 47791.00
1449.072, 47730.00
1450.118, 48050.00
1451.163, 47903.00
1452.209, 48099.00
1453.254, 48028.00
1454.300, 48067.00
1455.345, 47962.00
1456.390, 47935.00
1457.435, 47850.00
1458.479, 47999.00
1459.524, 48063.00
1460.568, 48203.00
1461.612, 48187.00
1462.656, 48215.00
1463.700, 48013.00
1464.744, 48086.00
1465.788, 47885.00
1466.831, 48203.00
1467.874, 48449.00
1468.918, 48178.00
1469.961, 48136.00
1471.003, 48280.00
1472.046, 48465.00
1473.089, 48298.00
1474.131, 48551.00
1475.173, 48508.00
1476.215, 48381.00
1477.257, 48532.00
1478.299, 48398.00
1479.341, 48599.00
1480.382, 48641.00
1481.424, 48561.00
1482.465, 48777.00
1483.506, 48943.00
1484.547, 48426.00
1485.587, 48735.00
1486.628, 48720.00
1487.668, 48866.00
1488.709, 48666.00
1489.749, 48456.00
1490.789, 48806.00
1491.828, 49044.00
1492.868, 48948.00
1493.908, 48967.00
1494.947, 48916.00
1495.986, 49070.00
1497.025, 49248.00
1498.064, 49059.00
1499.103, 48913.00
1500.141, 49222.00
1501.180, 49337.00
1502.218, 49438.00
1503.256, 49292.00
1504.294, 49382.00
1505.332, 49445.00
1506.370, 49242.00
1507.407, 49207.00
1508.445, 49543.00
1509.482, 49403.00
1510.519, 49489.00
1511.556, 49593.00
1512.593, 49668.00
1513.629, 49731.25
1514.666, 49558.00
1515.702, 49744.00
1516.738, 49584.00
1517.774, 49371.00
1518.810, 49599.00
1519.846, 49863.00
1520.882, 49644.00
1521.917, 50065.00
1522.952, 49972.00
1523.987, 49670.00
1525.022, 50162.00
1526.057, 49789.00
1527.092, 50025.00
1528.126, 50059.00
1529.161, 50345.00
1530.195, 50158.00
1531.229, 50085.00
1532.263, 50174.00
1533.297, 50287.00
1534.330, 50465.00
1535.364, 50519.00
1536.397, 50400.00
1537.430, 50345.00
1538.463, 50224.00
1539.496, 50248.80
1540.529, 50249.85
1541.561, 50361.00
1542.594, 50393.00
1543.626, 50553.00
1544.658, 50733.00
1545.690, 50921.00
1546.722, 50864.00
1547.753, 50843.00
1548.785, 50917.00
1549.816, 50884.00
1550.847, 51009.00
1551.878, 51135.00
1552.909, 51177.00
1553.940, 51286.00
1554.971, 51157.00
1556.001, 51178.00
1557.031, 51149.11
1558.062, 51124.00
1559.092, 51105.00
1560.121, 51315.00
1561.151, 51391.00
1562.181, 51486.00
##END=



