##NAMES=Heulandite-Ca
##RRUFFID=R060465
##IDEAL CHEMISTRY=(Ca,Na,K)_5_(Si_27_Al_9_)O_72_&#183;26H_2_O
##LOCALITY=Garrawilla, near Gunnadah, New South Wales, Australia
##OWNER=RRUFF
##SOURCE=Michael Scott
##DESCRIPTION=Orange fan of platy crystals
##STATUS=The identification of this mineral has been confirmed by X-ray diffraction and chemical analysis
##URL=rruff.info/R060465
##MEASURED CHEMISTRY=(Ca_0.66_Na_0.24_K_0.10_)_5_(Si_0.77_Al_0.23_)_36_O_72_Â·24H_2_O
##PIN_ID=M01887
##ORIENTATION=Laser parallel to b* (0 1 0). Fiducial mark perpendicular to laser is parallel to -c [0 0 -1]
82.00300, 1297.000
83.24300, 1443.000
84.48300, 1683.000
85.72200, 1938.000
86.96100, 2254.000
88.20000, 2606.000
89.43900, 2998.000
90.67800, 3470.000
91.91600, 4029.000
93.15500, 4477.000
94.39300, 5188.000
95.63100, 5675.000
96.86900, 6306.000
98.10600, 6902.000
99.34400, 7662.000
100.5810, 8098.000
101.8190, 8643.000
103.0560, 9051.000
104.2930, 9650.000
105.5290, 10382.00
106.7660, 11024.00
108.0020, 11784.00
109.2390, 11993.00
110.4750, 11931.00
111.7110, 12173.00
112.9460, 12478.00
114.1820, 12962.00
115.4170, 13090.00
116.6530, 13399.00
117.8880, 13546.00
119.1230, 13883.00
120.3580, 13800.00
121.5920, 14051.00
122.8270, 14316.00
124.0610, 14443.00
125.2950, 14679.00
126.5290, 14765.00
127.7630, 15102.00
128.9970, 15263.00
130.2300, 15473.00
131.4640, 15627.00
132.6970, 15973.00
133.9300, 16116.00
135.1630, 16506.00
136.3950, 16648.00
137.6280, 16565.00
138.8600, 17084.00
140.0920, 17088.00
141.3240, 16962.00
142.5560, 17168.00
143.7880, 17073.00
145.0190, 16832.00
146.2510, 16615.00
147.4820, 16272.00
148.7130, 15973.00
149.9440, 15474.00
151.1750, 15124.00
152.4050, 14731.00
153.6360, 14495.00
154.8660, 14234.00
156.0960, 14105.00
157.3260, 13588.00
158.5560, 13600.00
159.7850, 13416.00
161.0150, 12998.00
162.2440, 13027.00
163.4730, 12869.00
164.7020, 12666.00
165.9310, 12528.00
167.1590, 12298.00
168.3880, 12169.00
169.6160, 12150.00
170.8440, 11902.00
172.0720, 11779.00
173.3000, 11735.00
174.5280, 11564.00
175.7550, 11609.00
176.9820, 11354.00
178.2100, 11298.00
179.4370, 11258.00
180.6630, 11192.00
181.8900, 10997.00
183.1170, 11022.00
184.3430, 10884.00
185.5690, 10771.00
186.7950, 10916.00
188.0210, 10953.00
189.2470, 10783.00
190.4720, 10794.00
191.6970, 10683.00
192.9230, 10723.00
194.1480, 10678.00
195.3730, 10763.00
196.5970, 10739.52
197.8220, 10731.00
199.0460, 10742.00
200.2700, 10744.00
201.4940, 10755.00
202.7180, 10598.00
203.9420, 10452.00
205.1660, 10372.00
206.3890, 10332.29
207.6120, 10178.00
208.8350, 10338.00
210.0580, 10302.00
211.2810, 10306.00
212.5040, 10231.00
213.7260, 10276.00
214.9480, 10157.00
216.1700, 10160.00
217.3920, 10061.00
218.6140, 10173.00
219.8360, 10150.00
221.0570, 10133.00
222.2790, 10240.00
223.5000, 10203.00
224.7210, 10210.00
225.9410, 10382.00
227.1620, 10529.00
228.3820, 10282.00
229.6030, 10465.00
230.8230, 10452.00
232.0430, 10557.00
233.2630, 10530.00
234.4820, 10505.00
235.7020, 10638.00
236.9210, 10797.00
238.1400, 10886.00
239.3590, 10978.88
240.5780, 11018.00
241.7970, 11084.00
243.0150, 11062.00
244.2340, 11044.00
245.4520, 11111.00
246.6700, 11219.00
247.8880, 11172.00
249.1060, 11233.00
250.3230, 11242.00
251.5400, 11144.00
252.7580, 11146.00
253.9750, 11026.00
255.1920, 11072.00
256.4080, 11030.00
257.6250, 11012.00
258.8410, 10991.30
260.0580, 11050.00
261.2740, 10902.00
262.4900, 10736.00
263.7050, 10654.00
264.9210, 10666.00
266.1360, 10664.00
267.3520, 10497.00
268.5670, 10407.00
269.7820, 10454.00
270.9960, 10374.00
272.2110, 10305.00
273.4250, 10171.00
274.6400, 10149.37
275.8540, 10129.00
277.0680, 10081.00
278.2810, 10085.00
279.4950, 10062.00
280.7090, 10019.00
281.9220, 9908.000
283.1350, 9967.000
284.3480, 9858.000
285.5610, 9799.000
286.7730, 9767.000
287.9860, 9863.000
289.1980, 9843.000
290.4100, 9833.000
291.6220, 9788.000
292.8340, 9708.000
294.0460, 9706.000
295.2570, 9666.286
296.4690, 9722.000
297.6800, 9648.000
298.8910, 9734.000
300.1020, 9769.000
301.3120, 9820.000
302.5230, 9813.369
303.7330, 9822.806
304.9440, 9775.000
306.1540, 9787.000
307.3630, 9787.000
308.5730, 9744.000
309.7830, 9664.000
310.9920, 9821.000
312.2010, 9821.000
313.4100, 9797.000
314.6190, 9903.000
315.8280, 9853.000
317.0370, 9821.000
318.2450, 9905.841
319.4530, 9885.000
320.6610, 10010.00
321.8690, 10033.00
323.0770, 10063.00
324.2850, 10081.58
325.4920, 9949.000
326.6990, 10026.00
327.9060, 10078.00
329.1130, 9994.000
330.3200, 10164.00
331.5270, 10105.00
332.7330, 10322.00
333.9390, 10229.00
335.1450, 10328.00
336.3510, 10164.00
337.5570, 10280.00
338.7630, 10344.00
339.9680, 10469.00
341.1740, 10517.00
342.3790, 10638.00
343.5840, 10618.00
344.7890, 10795.00
345.9930, 10736.00
347.1980, 10905.00
348.4020, 10871.00
349.6060, 10988.00
350.8100, 11085.00
352.0140, 11068.00
353.2180, 11080.00
354.4210, 11229.00
355.6250, 11387.00
356.8280, 11446.00
358.0310, 11622.00
359.2340, 11702.00
360.4360, 11745.00
361.6390, 11973.00
362.8410, 12023.00
364.0430, 12140.00
365.2450, 12370.00
366.4470, 12486.00
367.6490, 12712.00
368.8510, 12753.00
370.0520, 13072.00
371.2530, 13062.00
372.4540, 13294.00
373.6550, 13585.00
374.8560, 13687.00
376.0560, 13870.00
377.2570, 14187.00
378.4570, 14324.00
379.6570, 14567.00
380.8570, 14822.00
382.0570, 15015.00
383.2560, 15318.00
384.4560, 15699.00
385.6550, 16108.00
386.8540, 16480.35
388.0530, 16890.59
389.2520, 17326.00
390.4510, 17723.00
391.6490, 18210.00
392.8470, 18676.00
394.0450, 19022.00
395.2430, 19501.22
396.4410, 20032.00
397.6390, 20356.00
398.8360, 20734.00
400.0340, 21148.00
401.2310, 21303.00
402.4280, 21486.00
403.6250, 21512.00
404.8210, 21285.00
406.0180, 21087.00
407.2140, 20722.00
408.4100, 20298.00
409.6060, 19681.00
410.8020, 19205.00
411.9980, 18546.00
413.1930, 18161.00
414.3890, 17631.00
415.5840, 17033.00
416.7790, 16567.00
417.9740, 16043.39
419.1680, 15694.00
420.3630, 15153.00
421.5570, 14753.58
422.7510, 14298.00
423.9450, 13941.00
425.1390, 13542.00
426.3330, 13190.00
427.5270, 12962.00
428.7200, 12601.00
429.9130, 12253.00
431.1060, 12056.00
432.2990, 11896.00
433.4920, 11671.00
434.6840, 11516.00
435.8770, 11256.00
437.0690, 11007.00
438.2610, 11178.00
439.4530, 10950.00
440.6450, 10981.00
441.8360, 10744.00
443.0280, 10852.00
444.2190, 10717.00
445.4100, 10835.00
446.6010, 10730.00
447.7920, 10786.00
448.9820, 10804.00
450.1730, 10725.00
451.3630, 10893.00
452.5530, 10766.00
453.7430, 11068.00
454.9330, 11306.00
456.1230, 11370.00
457.3120, 11627.00
458.5010, 11852.00
459.6910, 11966.00
460.8800, 12248.00
462.0680, 12218.00
463.2570, 12694.00
464.4460, 12825.00
465.6340, 13138.00
466.8220, 13146.00
468.0100, 13364.00
469.1980, 13502.00
470.3860, 13695.00
471.5730, 13754.00
472.7600, 14137.00
473.9480, 14322.00
475.1350, 14710.00
476.3210, 15003.89
477.5080, 15337.00
478.6950, 15588.00
479.8810, 15951.00
481.0670, 16141.00
482.2530, 16169.00
483.4390, 15891.00
484.6250, 15824.00
485.8100, 15459.00
486.9960, 15205.00
488.1810, 14760.00
489.3660, 14355.00
490.5510, 13878.00
491.7360, 13289.00
492.9200, 12750.00
494.1050, 12378.00
495.2890, 11964.00
496.4730, 11609.00
497.6570, 11193.00
498.8400, 11071.00
500.0240, 10575.00
501.2070, 10564.00
502.3910, 10287.00
503.5740, 10314.00
504.7570, 10097.00
505.9400, 10164.00
507.1220, 9933.000
508.3050, 10062.00
509.4870, 9844.000
510.6690, 9661.000
511.8510, 9922.000
513.0330, 9715.000
514.2140, 9672.000
515.3960, 9679.000
516.5770, 9706.000
517.7580, 9721.000
518.9390, 9569.000
520.1200, 9677.000
521.3010, 9597.000
522.4810, 9717.000
523.6610, 9674.000
524.8420, 9492.000
526.0220, 9508.000
527.2010, 9534.000
528.3810, 9445.000
529.5610, 9319.000
530.7400, 9401.000
531.9190, 9396.000
533.0980, 9343.000
534.2770, 9369.000
535.4560, 9398.000
536.6340, 9363.000
537.8120, 9413.000
538.9910, 9347.000
540.1690, 9330.000
541.3460, 9353.000
542.5240, 9319.000
543.7020, 9378.000
544.8790, 9325.000
546.0560, 9167.000
547.2330, 9208.000
548.4100, 9374.000
549.5870, 9393.000
550.7630, 9134.000
551.9400, 9294.000
553.1160, 9192.000
554.2920, 9345.000
555.4680, 9285.000
556.6440, 9290.000
557.8190, 9242.000
558.9950, 9291.000
560.1700, 9319.000
561.3450, 9356.000
562.5200, 9350.000
563.6950, 9381.700
564.8690, 9295.000
566.0440, 9365.000
567.2180, 9368.000
568.3920, 9245.000
569.5660, 9330.000
570.7400, 9278.000
571.9130, 9373.000
573.0870, 9383.000
574.2600, 9422.000
575.4330, 9465.000
576.6060, 9459.987
577.7790, 9441.000
578.9520, 9498.000
580.1240, 9487.000
581.2960, 9584.000
582.4690, 9678.000
583.6410, 9746.000
584.8120, 9641.000
585.9840, 9671.000
587.1560, 9722.000
588.3270, 9734.948
589.4980, 9789.432
590.6690, 9882.000
591.8400, 9896.000
593.0110, 10008.00
594.1810, 10090.00
595.3510, 10006.00
596.5220, 10280.00
597.6920, 10261.00
598.8610, 10362.00
600.0310, 10555.00
601.2010, 10623.00
602.3700, 10702.00
603.5390, 10951.00
604.7080, 10978.00
605.8770, 11130.00
607.0460, 11140.00
608.2140, 11252.00
609.3830, 11405.00
610.5510, 11303.00
611.7190, 11237.00
612.8870, 11313.00
614.0550, 11402.00
615.2220, 11350.00
616.3900, 11320.00
617.5570, 11158.00
618.7240, 11118.00
619.8910, 11153.00
621.0580, 10996.00
622.2240, 10999.00
623.3910, 10842.00
624.5570, 10659.00
625.7230, 10430.87
626.8890, 10400.76
628.0550, 10362.60
629.2200, 10316.88
630.3860, 10240.69
631.5510, 10203.82
632.7160, 10151.21
633.8810, 10097.95
635.0460, 10066.61
636.2100, 9994.923
637.3750, 10042.00
638.5390, 9916.000
639.7030, 10047.00
640.8670, 10127.00
642.0310, 9990.000
643.1950, 9914.000
644.3580, 9892.000
645.5210, 9939.000
646.6850, 9846.000
647.8480, 9836.000
649.0100, 9781.000
650.1730, 9814.000
651.3350, 9822.000
652.4980, 9824.000
653.6600, 9708.000
654.8220, 9759.000
655.9840, 9604.000
657.1450, 9699.000
658.3070, 9684.000
659.4680, 9558.000
660.6300, 9591.000
661.7910, 9566.000
662.9510, 9603.000
664.1120, 9617.000
665.2730, 9598.000
666.4330, 9633.000
667.5930, 9580.000
668.7530, 9493.000
669.9130, 9551.000
671.0730, 9608.000
672.2320, 9495.000
673.3920, 9541.000
674.5510, 9652.000
675.7100, 9640.000
676.8690, 9561.000
678.0280, 9590.000
679.1860, 9509.000
680.3450, 9611.000
681.5030, 9505.000
682.6610, 9606.000
683.8190, 9602.000
684.9770, 9705.000
686.1340, 9676.000
687.2920, 9587.000
688.4490, 9574.000
689.6060, 9575.437
690.7630, 9564.000
691.9200, 9629.000
693.0760, 9656.000
694.2330, 9708.000
695.3890, 9736.827
696.5450, 9770.000
697.7010, 9756.000
698.8570, 9784.000
700.0130, 9725.000
701.1680, 9749.000
702.3230, 9649.000
703.4780, 9759.000
704.6330, 9773.000
705.7880, 9737.000
706.9430, 9672.000
708.0970, 9855.000
709.2520, 9886.000
710.4060, 9848.000
711.5600, 9788.000
712.7140, 10021.00
713.8670, 9825.000
715.0210, 9835.000
716.1740, 10081.00
717.3270, 9945.000
718.4800, 10006.00
719.6330, 10012.00
720.7860, 9887.000
721.9380, 9877.000
723.0910, 10005.00
724.2430, 10052.00
725.3950, 10057.13
726.5470, 10041.00
727.6980, 10048.00
728.8500, 10055.00
730.0010, 10007.00
731.1530, 10061.00
732.3040, 9984.000
733.4550, 10051.00
734.6050, 10115.00
735.7560, 10220.00
736.9060, 10016.00
738.0560, 10123.00
739.2060, 10066.00
740.3560, 10168.00
741.5060, 10144.00
742.6560, 10084.00
743.8050, 10142.00
744.9540, 10087.00
746.1030, 10205.00
747.2520, 10210.00
748.4010, 10070.00
749.5500, 10306.00
750.6980, 10260.00
751.8460, 10187.00
752.9950, 10281.00
754.1420, 10318.00
755.2900, 10413.00
756.4380, 10439.00
757.5850, 10367.00
758.7330, 10290.00
759.8800, 10431.00
761.0270, 10502.00
762.1730, 10689.00
763.3200, 10567.00
764.4670, 10725.00
765.6130, 10711.00
766.7590, 10809.00
767.9050, 10723.00
769.0510, 10816.00
770.1960, 10909.00
771.3420, 10962.00
772.4870, 10988.00
773.6320, 11027.00
774.7770, 11113.00
775.9220, 11098.00
777.0670, 11089.00
778.2110, 11184.00
779.3560, 11151.00
780.5000, 11093.00
781.6440, 11189.00
782.7880, 11314.00
783.9320, 11257.00
785.0750, 11297.00
786.2180, 11165.00
787.3620, 11278.00
788.5050, 11238.00
789.6480, 11254.00
790.7900, 11208.00
791.9330, 11141.00
793.0750, 11177.27
794.2170, 11371.00
795.3590, 11192.00
796.5010, 11201.00
797.6430, 11161.00
798.7850, 11067.00
799.9260, 11073.00
801.0670, 11036.82
802.2080, 11007.00
803.3490, 11048.00
804.4900, 11030.00
805.6310, 11101.00
806.7710, 11022.00
807.9110, 11075.00
809.0510, 11033.00
810.1910, 11078.00
811.3310, 11191.00
812.4710, 11278.00
813.6100, 11276.00
814.7490, 11326.00
815.8880, 11238.00
817.0270, 11346.00
818.1660, 11494.00
819.3050, 11419.00
820.4430, 11447.00
821.5820, 11372.00
822.7200, 11232.00
823.8580, 11195.00
824.9950, 11107.00
826.1330, 11074.00
827.2710, 11053.00
828.4080, 10988.16
829.5450, 10961.00
830.6820, 10885.00
831.8190, 10821.57
832.9560, 10745.04
834.0920, 10684.00
835.2280, 10661.00
836.3650, 10688.00
837.5010, 10714.00
838.6360, 10624.00
839.7720, 10774.00
840.9080, 10582.00
842.0430, 10594.00
843.1780, 10716.00
844.3130, 10659.00
845.4480, 10671.00
846.5830, 10812.00
847.7170, 10602.00
848.8520, 10755.00
849.9860, 10840.00
851.1200, 10761.00
852.2540, 10800.00
853.3870, 10774.00
854.5210, 10791.00
855.6540, 10882.00
856.7880, 10876.00
857.9210, 10900.00
859.0540, 10937.00
860.1860, 10972.00
861.3190, 10933.00
862.4510, 10839.00
863.5840, 11014.00
864.7160, 10924.00
865.8480, 10787.00
866.9790, 10856.00
868.1110, 10860.00
869.2420, 10851.00
870.3740, 10863.00
871.5050, 10821.00
872.6360, 10982.00
873.7660, 10723.00
874.8970, 10813.00
876.0280, 10711.00
877.1580, 10822.00
878.2880, 10721.00
879.4180, 10725.00
880.5480, 10680.00
881.6770, 10713.00
882.8070, 10709.00
883.9360, 10615.00
885.0650, 10654.00
886.1940, 10722.00
887.3230, 10737.00
888.4520, 10674.00
889.5800, 10790.00
890.7090, 10684.00
891.8370, 10827.00
892.9650, 10763.00
894.0930, 10702.00
895.2200, 10890.00
896.3480, 10806.00
897.4750, 10815.00
898.6020, 10877.00
899.7290, 10936.00
900.8560, 10916.00
901.9830, 10875.00
903.1090, 11050.00
904.2360, 10791.00
905.3620, 10850.00
906.4880, 11032.00
907.6140, 11005.00
908.7400, 10896.00
909.8650, 10957.00
910.9900, 10998.00
912.1160, 10945.00
913.2410, 10990.00
914.3660, 11039.00
915.4900, 10903.00
916.6150, 10936.00
917.7390, 10845.00
918.8640, 10936.00
919.9880, 10956.00
921.1120, 11031.00
922.2350, 11035.54
923.3590, 10956.00
924.4820, 11025.00
925.6060, 11009.00
926.7290, 10983.00
927.8520, 11055.00
928.9740, 10945.00
930.0970, 11022.00
931.2190, 11274.00
932.3420, 11087.00
933.4640, 11043.00
934.5860, 11175.00
935.7080, 11065.00
936.8290, 11191.00
937.9510, 10991.00
939.0720, 11039.00
940.1930, 11102.00
941.3140, 11051.00
942.4350, 11063.00
943.5560, 11066.00
944.6760, 11104.00
945.7960, 11072.00
946.9170, 11125.00
948.0370, 11189.00
949.1560, 11067.00
950.2760, 11130.00
951.3960, 11051.00
952.5150, 11204.00
953.6340, 11012.00
954.7530, 11214.00
955.8720, 11153.00
956.9910, 11154.00
958.1090, 11022.00
959.2280, 11073.00
960.3460, 11178.00
961.4640, 11106.00
962.5820, 11308.00
963.6990, 11431.00
964.8170, 11206.00
965.9340, 11133.00
967.0510, 11191.00
968.1690, 11160.00
969.2850, 11271.00
970.4020, 11416.00
971.5190, 11305.00
972.6350, 11216.00
973.7510, 11248.00
974.8670, 11410.00
975.9830, 11210.00
977.0990, 11351.00
978.2150, 11242.00
979.3300, 11325.00
980.4450, 11365.00
981.5600, 11353.00
982.6750, 11414.00
983.7900, 11484.00
984.9050, 11357.00
986.0190, 11494.00
987.1340, 11439.00
988.2480, 11477.00
989.3620, 11451.00
990.4750, 11602.00
991.5890, 11442.00
992.7020, 11527.00
993.8160, 11453.00
994.9290, 11462.00
996.0420, 11707.00
997.1550, 11775.00
998.2670, 11895.00
999.3800, 11964.00
1000.492, 11973.00
1001.604, 12047.00
1002.716, 12018.00
1003.828, 11971.00
1004.940, 12001.00
1006.051, 11948.00
1007.163, 11869.00
1008.274, 11719.00
1009.385, 11718.00
1010.496, 11852.00
1011.606, 11939.00
1012.717, 11969.00
1013.827, 12061.30
1014.937, 12043.00
1016.047, 12143.00
1017.157, 12128.00
1018.267, 12097.00
1019.377, 12139.00
1020.486, 12226.00
1021.595, 12248.00
1022.704, 12238.00
1023.813, 12067.00
1024.922, 12176.00
1026.030, 12082.00
1027.139, 12278.00
1028.247, 12222.00
1029.355, 12183.00
1030.463, 12041.00
1031.571, 12415.00
1032.678, 12336.00
1033.786, 12400.00
1034.893, 12157.00
1036.000, 12274.00
1037.107, 12301.00
1038.214, 12430.00
1039.321, 12425.37
1040.427, 12468.00
1041.533, 12371.00
1042.639, 12558.00
1043.745, 12434.00
1044.851, 12460.00
1045.957, 12510.00
1047.062, 12646.00
1048.168, 12482.00
1049.273, 12690.00
1050.378, 12362.00
1051.482, 12667.00
1052.587, 12384.00
1053.692, 12571.00
1054.796, 12433.00
1055.900, 12526.00
1057.004, 12436.00
1058.108, 12450.00
1059.212, 12432.00
1060.315, 12424.08
1061.418, 12428.00
1062.522, 12428.00
1063.625, 12530.00
1064.728, 12496.00
1065.830, 12540.08
1066.933, 12554.00
1068.035, 12586.00
1069.137, 12635.00
1070.239, 12671.25
1071.341, 12675.00
1072.443, 12728.00
1073.545, 12772.50
1074.646, 12813.69
1075.747, 12877.41
1076.848, 12924.82
1077.949, 12956.80
1079.050, 12927.13
1080.150, 12977.04
1081.251, 12995.08
1082.351, 13011.78
1083.451, 13072.90
1084.551, 13052.17
1085.651, 13112.58
1086.750, 13140.58
1087.850, 13183.43
1088.949, 13194.15
1090.048, 13214.79
1091.147, 13267.54
1092.246, 13302.51
1093.345, 13309.54
1094.443, 13353.28
1095.541, 13331.39
1096.639, 13367.09
1097.737, 13427.65
1098.835, 13436.26
1099.933, 13480.59
1101.030, 13511.30
1102.128, 13480.22
1103.225, 13556.61
1104.322, 13542.51
1105.419, 13516.00
1106.515, 13539.00
1107.612, 13536.00
1108.708, 13520.00
1109.804, 13566.83
1110.900, 13579.00
1111.996, 13610.00
1113.092, 13648.00
1114.187, 13666.95
1115.283, 13680.31
1116.378, 13703.00
1117.473, 13675.00
1118.568, 13653.00
1119.662, 13613.00
1120.757, 13656.00
1121.851, 13710.00
1122.946, 13712.84
1124.040, 13709.00
1125.134, 13752.00
1126.227, 13686.00
1127.321, 13655.00
1128.414, 13688.00
1129.508, 13818.00
1130.601, 13634.00
1131.693, 13743.00
1132.786, 13659.00
1133.879, 13788.00
1134.971, 13897.00
1136.064, 13584.00
1137.156, 13691.00
1138.248, 13563.00
1139.339, 13641.00
1140.431, 13787.00
1141.522, 13698.00
1142.614, 13737.00
1143.705, 13726.00
1144.796, 13720.00
1145.887, 13744.70
1146.977, 13728.00
1148.068, 13806.00
1149.158, 13759.00
1150.248, 13854.00
1151.338, 13619.00
1152.428, 13634.00
1153.518, 13755.00
1154.607, 13894.00
1155.696, 13693.00
1156.785, 13683.00
1157.874, 13791.00
1158.963, 13904.00
1160.052, 13849.00
1161.141, 13901.00
1162.229, 13817.00
1163.317, 13678.00
1164.405, 13671.00
1165.493, 13727.00
1166.581, 13797.00
1167.668, 13695.00
1168.756, 13603.00
1169.843, 13769.00
1170.930, 13653.00
1172.017, 13837.00
1173.103, 13600.00
1174.190, 13720.00
1175.276, 13612.00
1176.363, 13626.00
1177.449, 13532.00
1178.535, 13686.00
1179.620, 13628.00
1180.706, 13430.00
1181.791, 13602.00
1182.877, 13465.00
1183.962, 13466.00
1185.047, 13468.00
1186.131, 13330.00
1187.216, 13236.00
1188.300, 13383.00
1189.385, 13372.00
1190.469, 13281.00
1191.553, 13201.00
1192.637, 13178.52
1193.720, 13243.00
1194.804, 13131.00
1195.887, 13161.00
1196.970, 13197.00
1198.053, 13155.00
1199.136, 13118.00
1200.219, 13245.00
1201.301, 13148.00
1202.383, 13131.00
1203.465, 13195.00
1204.547, 13181.00
1205.629, 13049.00
1206.711, 13195.00
1207.792, 13104.00
1208.874, 13040.00
1209.955, 13069.00
1211.036, 13117.00
1212.117, 13082.00
1213.198, 13207.00
1214.278, 13219.00
1215.359, 13286.00
1216.439, 13181.00
1217.519, 13143.00
1218.599, 13277.00
1219.678, 13157.00
1220.758, 13172.00
1221.837, 13107.00
1222.917, 13176.00
1223.996, 13255.00
1225.075, 13118.00
1226.153, 13251.00
1227.232, 13285.00
1228.310, 13295.00
1229.389, 13237.00
1230.467, 13375.00
1231.545, 13203.00
1232.622, 13333.00
1233.700, 13501.00
1234.777, 13368.00
1235.855, 13346.00
1236.932, 13332.00
1238.009, 13430.00
1239.086, 13222.00
1240.162, 13427.00
1241.239, 13431.00
1242.315, 13585.00
1243.391, 13458.00
1244.467, 13563.00
1245.543, 13430.00
1246.619, 13571.00
1247.694, 13543.86
1248.769, 13545.02
1249.844, 13505.00
1250.919, 13612.00
1251.994, 13482.00
1253.069, 13593.00
1254.144, 13672.00
1255.218, 13611.00
1256.292, 13568.00
1257.366, 13513.00
1258.440, 13622.00
1259.514, 13696.00
1260.587, 13672.00
1261.661, 13662.00
1262.734, 13751.00
1263.807, 13807.00
1264.880, 13752.00
1265.952, 13931.00
1267.025, 13884.00
1268.097, 13792.00
1269.170, 13916.00
1270.242, 14081.00
1271.314, 14038.00
1272.385, 13978.00
1273.457, 13894.00
1274.528, 13860.00
1275.600, 13949.00
1276.671, 13945.00
1277.742, 13990.00
1278.812, 13929.00
1279.883, 13863.00
1280.954, 14037.00
1282.024, 13990.00
1283.094, 13907.00
1284.164, 13972.00
1285.234, 13946.86
1286.303, 14026.00
1287.373, 13997.00
1288.442, 13968.00
1289.511, 13989.00
1290.580, 14050.00
1291.649, 14310.00
1292.718, 14159.00
1293.786, 14110.00
1294.855, 14383.00
1295.923, 14216.00
1296.991, 14099.00
1298.059, 14157.00
1299.126, 14316.00
1300.194, 14127.00
1301.261, 14233.00
1302.328, 14241.00
1303.395, 14324.00
1304.462, 14307.00
1305.529, 14294.00
1306.596, 14422.00
1307.662, 14569.00
1308.728, 14443.00
1309.794, 14753.00
1310.860, 14553.00
1311.926, 14573.00
1312.991, 14554.00
1314.057, 14601.00
1315.122, 14661.00
1316.187, 14451.00
1317.252, 14593.00
1318.317, 14604.00
1319.381, 14723.00
1320.446, 14703.00
1321.510, 14605.00
1322.574, 14595.00
1323.638, 14636.00
1324.702, 14552.81
1325.766, 14561.00
1326.829, 14466.00
1327.892, 14420.00
1328.956, 14380.00
1330.019, 14526.00
1331.081, 14475.00
1332.144, 14353.00
1333.206, 14231.00
1334.269, 14419.00
1335.331, 14522.00
1336.393, 14396.00
1337.455, 14528.00
1338.516, 14467.00
1339.578, 14461.00
1340.639, 14458.00
1341.701, 14454.00
1342.762, 14529.00
1343.822, 14476.00
1344.883, 14342.00
1345.944, 14387.00
1347.004, 14488.00
1348.064, 14318.00
1349.124, 14406.00
1350.184, 14539.00
1351.244, 14503.00
1352.304, 14462.00
1353.363, 14476.00
1354.422, 14471.00
1355.481, 14322.00
1356.540, 14410.00
1357.599, 14363.00
1358.657, 14375.00
1359.716, 14457.00
1360.774, 14518.00
1361.832, 14599.00
1362.890, 14600.86
1363.948, 14587.59
1365.006, 14551.00
1366.063, 14514.00
1367.120, 14514.75
1368.178, 14407.00
1369.234, 14534.00
1370.291, 14493.00
1371.348, 14551.00
1372.404, 14658.00
1373.461, 14545.00
1374.517, 14639.00
1375.573, 14558.00
1376.629, 14561.00
1377.684, 14658.00
1378.740, 14728.00
1379.795, 14705.00
1380.850, 14791.00
1381.905, 14740.00
1382.960, 14765.00
1384.015, 14735.00
1385.070, 14652.00
1386.124, 14710.00
1387.178, 14627.00
1388.232, 14658.00
1389.286, 14610.00
1390.340, 14534.00
1391.393, 14614.00
1392.447, 14470.00
1393.500, 14572.00
1394.553, 14538.00
1395.606, 14698.00
1396.659, 14599.00
1397.711, 14588.00
1398.764, 14627.00
1399.816, 14612.00
1400.868, 14552.00
1401.920, 14581.00
1402.972, 14580.00
1404.023, 14659.00
1405.075, 14641.00
1406.126, 14747.00
1407.177, 14596.00
1408.228, 14447.00
1409.279, 14660.00
1410.330, 14680.00
1411.380, 14747.00
1412.431, 14632.00
1413.481, 14571.00
1414.531, 14737.00
1415.580, 14808.00
1416.630, 14615.00
1417.680, 14666.00
1418.729, 14684.00
1419.778, 14634.00
1420.827, 14695.17
1421.876, 14654.00
1422.925, 14791.00
1423.973, 14755.00
1425.022, 14872.00
1426.070, 14751.00
1427.118, 14796.00
1428.166, 14855.00
1429.214, 14806.00
1430.261, 15012.00
1431.309, 14815.00
1432.356, 15057.00
1433.403, 15172.00
1434.450, 15068.00
1435.497, 15173.00
1436.543, 15518.00
1437.590, 15577.00
1438.636, 15581.00
1439.682, 15658.00
1440.728, 15680.00
1441.774, 15732.85
1442.819, 15763.00
1443.865, 15832.00
1444.910, 15867.00
1445.955, 15897.00
1447.000, 16029.00
1448.045, 16122.00
1449.090, 16112.00
1450.134, 16089.00
1451.178, 16213.00
1452.223, 16209.00
1453.267, 16253.00
1454.310, 16278.00
1455.354, 16176.00
1456.398, 16091.00
1457.441, 16188.00
1458.484, 16336.00
1459.527, 16021.00
1460.570, 15915.00
1461.613, 15996.00
1462.655, 15804.00
1463.698, 15756.00
1464.740, 15698.00
1465.782, 15605.00
1466.824, 15629.00
1467.866, 15582.00
1468.907, 15457.00
1469.948, 15240.00
1470.990, 15522.00
1472.031, 15473.00
1473.072, 15295.00
1474.112, 15422.00
1475.153, 15472.00
1476.194, 15250.00
1477.234, 15476.00
1478.274, 15338.00
1479.314, 15182.00
1480.354, 15312.00
1481.393, 15297.00
1482.433, 15284.00
1483.472, 15230.00
1484.511, 15111.00
1485.550, 15042.00
1486.589, 15253.00
1487.628, 15178.00
1488.666, 15307.00
1489.704, 15023.00
1490.743, 15045.00
1491.781, 15029.00
1492.819, 15068.00
1493.856, 15059.99
1494.894, 15026.00
1495.931, 15033.00
1496.968, 15084.00
1498.005, 15014.00
1499.042, 15142.00
1500.079, 15081.00
1501.115, 15123.00
1502.152, 15050.00
1503.188, 15085.00
1504.224, 14997.00
1505.260, 15014.00
1506.296, 15034.88
1507.331, 15189.00
1508.367, 15102.00
1509.402, 15146.00
1510.437, 15185.00
1511.472, 15185.00
1512.507, 15250.00
1513.541, 15255.00
1514.576, 15281.10
1515.610, 15249.34
1516.644, 15315.00
1517.678, 15180.00
1518.712, 15168.00
1519.746, 15196.00
1520.779, 15447.00
1521.813, 15405.00
1522.846, 15225.00
1523.879, 15441.00
1524.912, 15332.00
1525.944, 15508.00
1526.977, 15461.00
1528.009, 15354.00
1529.041, 15427.00
1530.073, 15315.00
1531.105, 15480.00
1532.137, 15265.00
1533.168, 15553.00
1534.200, 15598.00
1535.231, 15427.00
1536.262, 15686.00
1537.293, 15469.00
1538.324, 15545.00
1539.354, 15498.00
1540.385, 15443.00
1541.415, 15581.00
1542.445, 15789.00
1543.475, 15698.00
1544.505, 15578.00
1545.534, 15572.00
1546.564, 15476.00
1547.593, 15577.00
1548.622, 15560.00
1549.651, 15515.00
1550.680, 15712.00
1551.708, 15885.00
1552.737, 15924.00
1553.765, 15757.00
1554.793, 15780.00
1555.821, 15616.00
1556.849, 15720.00
1557.877, 15802.00
1558.904, 15728.00
1559.932, 15725.00
1560.959, 15577.00
1561.986, 15830.00
1563.013, 15686.00
##END=



