##NAMES=Heulandite-Ca
##RRUFFID=R060465
##IDEAL CHEMISTRY=(Ca,Na,K)_5_(Si_27_Al_9_)O_72_&#183;26H_2_O
##LOCALITY=Garrawilla, near Gunnadah, New South Wales, Australia
##OWNER=RRUFF
##SOURCE=Michael Scott
##DESCRIPTION=Orange fan of platy crystals
##STATUS=The identification of this mineral has been confirmed by X-ray diffraction and chemical analysis
##URL=rruff.info/R060465
##MEASURED CHEMISTRY=(Ca_0.66_Na_0.24_K_0.10_)_5_(Si_0.77_Al_0.23_)_36_O_72_Â·24H_2_O
##PIN_ID=M01120
##ORIENTATION=Laser parallel to (1 0 1). Fiducial mark perpendicular to laser is parallel to b [0 1 0]
236.5330, 19725.00
237.7530, 19607.00
238.9720, 19713.00
240.1920, 19714.00
241.4110, 19733.00
242.6300, 19774.00
243.8490, 19963.00
245.0680, 20041.00
246.2860, 20069.00
247.5040, 20181.90
248.7230, 20095.09
249.9410, 20285.73
251.1590, 20416.29
252.3760, 20489.94
253.5940, 20336.45
254.8110, 20476.28
256.0280, 20498.54
257.2450, 20515.98
258.4620, 20697.09
259.6790, 20576.61
260.8950, 20755.07
262.1120, 20814.23
263.3280, 20927.97
264.5440, 20923.43
265.7600, 20955.42
266.9750, 21089.00
268.1910, 21160.00
269.4060, 21194.00
270.6210, 21311.00
271.8360, 21172.00
273.0510, 21505.00
274.2650, 21526.00
275.4800, 21713.00
276.6940, 21984.00
277.9080, 21823.00
279.1220, 21929.00
280.3360, 21908.00
281.5490, 22100.00
282.7630, 21994.00
283.9760, 21909.00
285.1890, 22147.00
286.4020, 22136.00
287.6150, 22023.00
288.8270, 21972.00
290.0400, 21976.00
291.2520, 21891.00
292.4640, 21915.00
293.6760, 21872.00
294.8870, 21753.00
296.0990, 21583.00
297.3100, 21565.00
298.5210, 21372.00
299.7320, 21165.00
300.9430, 21257.00
302.1540, 20907.00
303.3640, 20871.00
304.5750, 20425.00
305.7850, 20519.00
306.9950, 20667.00
308.2050, 20156.00
309.4140, 19835.00
310.6240, 19724.00
311.8330, 19769.00
313.0420, 19676.00
314.2510, 19638.76
315.4600, 19607.83
316.6680, 19588.00
317.8770, 19609.89
319.0850, 19621.00
320.2930, 19696.00
321.5010, 19786.82
322.7090, 19870.00
323.9160, 19964.00
325.1240, 20068.00
326.3310, 19975.00
327.5380, 20001.00
328.7450, 20097.00
329.9520, 20191.00
331.1580, 20029.00
332.3650, 20247.00
333.5710, 20310.00
334.7770, 20166.00
335.9830, 20349.00
337.1880, 20465.00
338.3940, 20527.00
339.5990, 20506.00
340.8040, 20677.00
342.0090, 20626.00
343.2140, 20835.00
344.4190, 20913.00
345.6230, 20944.00
346.8280, 21153.00
348.0320, 21407.00
349.2360, 21489.00
350.4400, 21663.00
351.6430, 21976.00
352.8470, 22203.00
354.0500, 22609.00
355.2530, 22999.00
356.4560, 23088.00
357.6590, 23503.00
358.8620, 23870.00
360.0640, 24258.00
361.2660, 24599.00
362.4680, 25175.00
363.6700, 25447.00
364.8720, 26082.00
366.0740, 26759.00
367.2750, 27168.00
368.4760, 27467.00
369.6770, 28218.00
370.8780, 28713.00
372.0790, 29299.00
373.2800, 29995.00
374.4800, 30630.97
375.6800, 31352.88
376.8800, 32020.00
378.0800, 32854.00
379.2800, 33657.35
380.4790, 34460.00
381.6790, 35432.00
382.8780, 36455.00
384.0770, 37381.00
385.2760, 38541.00
386.4750, 39879.00
387.6730, 41231.00
388.8720, 42516.00
390.0700, 43832.17
391.2680, 45361.00
392.4660, 46445.00
393.6630, 47936.00
394.8610, 49323.00
396.0580, 50469.00
397.2550, 51488.00
398.4520, 52779.00
399.6490, 53542.00
400.8460, 54230.00
402.0420, 54662.00
403.2390, 55117.00
404.4350, 54970.00
405.6310, 54495.00
406.8270, 54497.00
408.0220, 53171.00
409.2180, 52089.00
410.4130, 50707.00
411.6080, 49689.00
412.8030, 48494.00
413.9980, 46931.00
415.1920, 45331.00
416.3870, 43708.00
417.5810, 41806.00
418.7750, 40708.00
419.9690, 38807.00
421.1630, 37182.00
422.3570, 35974.00
423.5500, 34281.00
424.7430, 32992.00
425.9360, 31532.00
427.1290, 30380.00
428.3220, 29050.00
429.5150, 27980.00
430.7070, 26761.00
431.8990, 25980.00
433.0910, 25050.00
434.2830, 24212.00
435.4750, 23700.00
436.6670, 23008.00
437.8580, 22242.00
439.0490, 21900.00
440.2400, 21171.00
441.4310, 21211.00
442.6220, 20908.00
443.8130, 20666.97
445.0030, 20647.09
446.1930, 20551.00
447.3830, 20534.00
448.5730, 20869.00
449.7630, 20928.00
450.9520, 21254.00
452.1420, 21500.00
453.3310, 21995.00
454.5200, 22248.00
455.7090, 23037.00
456.8980, 23681.00
458.0860, 24170.00
459.2740, 25068.00
460.4630, 25588.00
461.6510, 26309.00
462.8380, 26969.00
464.0260, 27691.00
465.2140, 28270.00
466.4010, 28560.00
467.5880, 29504.00
468.7750, 29683.00
469.9620, 30324.00
471.1490, 31176.00
472.3350, 31635.00
473.5220, 32346.00
474.7080, 33199.00
475.8940, 34289.00
477.0800, 35382.00
478.2650, 36177.00
479.4510, 36998.00
480.6360, 37740.00
481.8210, 38201.00
483.0060, 38603.00
484.1910, 38438.00
485.3760, 38040.00
486.5600, 37249.00
487.7440, 36127.00
488.9290, 34668.00
490.1130, 33109.00
491.2960, 31176.00
492.4800, 29667.00
493.6630, 27831.00
494.8470, 26110.00
496.0300, 24570.00
497.2130, 23219.00
498.3960, 21894.95
499.5780, 20580.00
500.7610, 19810.00
501.9430, 18852.00
503.1250, 18358.00
504.3070, 17787.00
505.4890, 17240.00
506.6710, 16874.00
507.8520, 16557.00
509.0330, 16224.00
510.2140, 16075.00
511.3950, 15781.00
512.5760, 15569.00
513.7570, 15464.00
514.9370, 15460.00
516.1170, 14903.00
517.2980, 15076.00
518.4780, 14731.00
519.6570, 14684.00
520.8370, 14504.00
522.0160, 14360.00
523.1960, 14249.00
524.3750, 14009.00
525.5540, 13990.00
526.7320, 13875.00
527.9110, 13617.00
529.0890, 13930.00
530.2680, 13726.00
531.4460, 13510.00
532.6240, 13640.00
533.8010, 13373.00
534.9790, 13260.00
536.1560, 13358.00
537.3340, 13254.00
538.5110, 13052.00
539.6880, 13245.00
540.8650, 13065.00
542.0410, 13026.00
543.2180, 12998.00
544.3940, 13012.00
545.5700, 13005.00
546.7460, 12917.00
547.9220, 12898.00
549.0970, 12758.00
550.2730, 12814.00
551.4480, 12834.00
552.6230, 12745.00
553.7980, 12785.00
554.9730, 12860.00
556.1470, 12897.00
557.3210, 12827.00
558.4960, 12746.00
559.6700, 12830.00
560.8440, 12878.00
562.0170, 12803.00
563.1910, 12825.00
564.3640, 12847.00
565.5380, 12848.32
566.7110, 12853.00
567.8840, 12892.00
569.0560, 12897.14
570.2290, 12924.35
571.4010, 12946.00
572.5740, 12970.00
573.7460, 13018.00
574.9180, 13035.00
576.0890, 12990.00
577.2610, 12855.00
578.4320, 13152.00
579.6040, 13034.00
580.7750, 13273.00
581.9450, 13235.00
583.1160, 13318.00
584.2870, 13288.00
585.4570, 13606.00
586.6270, 13713.00
587.7980, 13842.00
588.9670, 13927.00
590.1370, 14146.00
591.3070, 14298.00
592.4760, 14423.00
593.6450, 14705.00
594.8140, 14773.00
595.9830, 15033.00
597.1520, 15466.00
598.3210, 15882.00
599.4890, 16153.00
600.6570, 16416.00
601.8250, 16910.00
602.9930, 17171.00
604.1610, 17553.00
605.3290, 17961.00
606.4960, 18228.00
607.6630, 18477.00
608.8300, 18531.00
609.9970, 18836.00
611.1640, 18741.00
612.3300, 18695.00
613.4970, 18781.00
614.6630, 18571.00
615.8290, 18299.00
616.9950, 18030.00
618.1610, 17793.00
619.3260, 17586.00
620.4920, 17077.00
621.6570, 16878.00
622.8220, 16472.00
623.9870, 16118.00
625.1520, 16062.00
626.3160, 15741.00
627.4810, 15580.00
628.6450, 15434.00
629.8090, 15276.00
630.9730, 15135.00
632.1370, 14995.00
633.3000, 14854.10
634.4640, 14632.00
635.6270, 14654.00
636.7900, 14579.00
637.9530, 14633.00
639.1160, 14516.00
640.2780, 14169.00
641.4410, 14010.00
642.6030, 14003.00
643.7650, 13867.00
644.9270, 13753.00
646.0890, 13549.00
647.2500, 13375.00
648.4120, 13329.52
649.5730, 13379.00
650.7340, 13173.00
651.8950, 13243.00
653.0560, 13029.00
654.2160, 12927.00
655.3770, 12881.00
656.5370, 12970.00
657.6970, 12838.00
658.8570, 12832.00
660.0170, 12719.00
661.1760, 12615.00
662.3360, 12759.00
663.4950, 12717.00
664.6540, 12645.00
665.8130, 12600.00
666.9720, 12578.24
668.1310, 12560.95
669.2890, 12573.00
670.4470, 12532.00
671.6050, 12582.00
672.7630, 12493.00
673.9210, 12505.00
675.0790, 12404.00
676.2360, 12352.00
677.3930, 12324.00
678.5510, 12209.00
679.7080, 12325.00
680.8640, 12366.00
682.0210, 12284.00
683.1770, 12208.00
684.3340, 12100.00
685.4900, 12223.00
686.6460, 12103.00
687.8020, 12075.00
688.9570, 11971.00
690.1130, 11979.00
691.2680, 11916.00
692.4230, 11969.00
693.5780, 11936.18
694.7330, 11891.00
695.8880, 11945.00
697.0420, 11805.00
698.1960, 11859.00
699.3510, 11894.00
700.5040, 11834.00
701.6580, 11755.00
702.8120, 11865.00
703.9650, 11836.00
705.1190, 11851.00
706.2720, 11887.00
707.4250, 11880.00
708.5780, 11791.00
709.7300, 11764.00
710.8830, 11906.00
712.0350, 11678.00
713.1870, 11605.00
714.3390, 11781.00
715.4910, 11673.00
716.6430, 11762.00
717.7940, 11700.00
718.9460, 11764.00
720.0970, 11811.00
721.2480, 11677.00
722.3990, 11694.00
723.5500, 11526.00
724.7000, 11791.00
725.8500, 11526.00
727.0010, 11594.00
728.1510, 11606.00
729.3010, 11561.00
730.4500, 11548.00
731.6000, 11677.00
732.7490, 11495.00
733.8980, 11492.00
735.0470, 11589.00
736.1960, 11519.97
737.3450, 11569.55
738.4940, 11612.00
739.6420, 11555.00
740.7900, 11709.00
741.9380, 11616.00
743.0860, 11647.00
744.2340, 11727.00
745.3810, 11691.00
746.5290, 11689.00
747.6760, 11766.00
748.8230, 11823.00
749.9700, 11872.32
751.1170, 11904.72
752.2630, 12005.00
753.4100, 11997.00
754.5560, 12064.00
755.7020, 12227.00
756.8480, 12025.00
757.9940, 12089.00
759.1390, 12264.00
760.2850, 12396.00
761.4300, 12337.00
762.5750, 12703.00
763.7200, 12632.00
764.8650, 12489.00
766.0100, 12645.00
767.1540, 12690.00
768.2980, 12636.00
769.4420, 12800.00
770.5860, 12629.00
771.7300, 12841.00
772.8740, 13019.00
774.0170, 12887.00
775.1610, 13041.92
776.3040, 13315.00
777.4470, 13009.00
778.5900, 13048.00
779.7320, 12851.00
780.8750, 12955.00
782.0170, 12848.00
783.1590, 12918.00
784.3010, 12882.00
785.4430, 12696.00
786.5850, 12621.00
787.7260, 12652.00
788.8680, 12586.00
790.0090, 12548.00
791.1500, 12533.00
792.2910, 12590.00
793.4310, 12182.00
794.5720, 12558.00
795.7120, 12332.00
796.8520, 12192.00
797.9920, 12284.00
799.1320, 12130.00
800.2720, 12126.00
801.4120, 12079.00
802.5510, 12091.00
803.6900, 12013.00
804.8290, 11852.00
805.9680, 11935.00
807.1070, 11834.00
808.2450, 11821.00
809.3840, 11801.00
810.5220, 11789.00
811.6600, 11739.00
812.7980, 11737.00
813.9360, 11827.00
815.0730, 11766.00
816.2110, 11870.00
817.3480, 11826.00
818.4850, 11783.00
819.6220, 11730.00
820.7590, 11562.00
821.8960, 11590.00
823.0320, 11730.00
824.1680, 11534.00
825.3040, 11628.00
826.4400, 11500.00
827.5760, 11529.00
828.7120, 11352.00
829.8470, 11262.00
830.9830, 11386.00
832.1180, 11360.00
833.2530, 11268.00
834.3880, 11312.00
835.5220, 11396.00
836.6570, 11387.00
837.7910, 11343.89
838.9250, 11352.00
840.0590, 11320.42
841.1930, 11237.00
842.3270, 11249.00
843.4600, 11264.00
844.5940, 11175.00
845.7270, 11327.00
846.8600, 11344.00
847.9930, 11392.00
849.1250, 11298.00
850.2580, 11368.00
851.3900, 11318.00
852.5230, 11390.00
853.6550, 11314.00
854.7870, 11339.00
855.9180, 11416.00
857.0500, 11375.29
858.1810, 11488.00
859.3130, 11339.00
860.4440, 11349.00
861.5750, 11237.00
862.7050, 11305.00
863.8360, 11381.00
864.9660, 11381.00
866.0970, 11402.21
867.2270, 11369.00
868.3570, 11388.00
869.4870, 11397.00
870.6160, 11409.00
871.7460, 11247.00
872.8750, 11340.00
874.0040, 11482.00
875.1330, 11254.00
876.2620, 11332.00
877.3910, 11320.00
878.5190, 11311.00
879.6470, 11278.00
880.7760, 11312.00
881.9040, 11345.00
883.0310, 11391.00
884.1590, 11282.00
885.2870, 11383.00
886.4140, 11343.00
887.5410, 11322.00
888.6680, 11416.00
889.7950, 11359.00
890.9220, 11364.00
892.0480, 11316.00
893.1750, 11506.00
894.3010, 11502.00
895.4270, 11400.00
896.5530, 11306.00
897.6790, 11332.00
898.8040, 11477.00
899.9300, 11466.00
901.0550, 11477.37
902.1800, 11619.00
903.3050, 11452.00
904.4300, 11499.00
905.5540, 11539.00
906.6790, 11645.00
907.8030, 11505.00
908.9270, 11445.00
910.0510, 11591.00
911.1750, 11474.00
912.2990, 11479.00
913.4220, 11631.00
914.5450, 11761.00
915.6690, 11546.00
916.7920, 11542.00
917.9140, 11638.00
919.0370, 11666.00
920.1600, 11732.00
921.2820, 11711.00
922.4040, 11608.00
923.5260, 11777.00
924.6480, 11734.00
925.7700, 11735.00
926.8910, 11574.00
928.0130, 11754.00
929.1340, 11712.00
930.2550, 11803.00
931.3760, 11980.00
932.4970, 11938.00
933.6170, 12010.00
934.7380, 11910.00
935.8580, 11964.00
936.9780, 11923.00
938.0980, 11941.00
939.2180, 12068.00
940.3370, 12026.00
941.4570, 12156.00
942.5760, 12054.00
943.6950, 12028.00
944.8140, 12078.00
945.9330, 12016.00
947.0520, 12057.00
948.1700, 12281.00
949.2890, 12244.00
950.4070, 12354.00
951.5250, 12121.00
952.6430, 12151.00
953.7600, 12247.00
954.8780, 12256.00
955.9950, 12226.00
957.1120, 12258.00
958.2290, 12529.00
959.3460, 12491.15
960.4630, 12379.00
961.5800, 12595.00
962.6960, 12516.00
963.8120, 12511.00
964.9280, 12440.00
966.0440, 12590.00
967.1600, 12588.00
968.2760, 12604.00
969.3910, 12666.00
970.5060, 12671.00
971.6210, 12719.63
972.7360, 12887.00
973.8510, 12803.00
974.9660, 12917.00
976.0800, 12967.00
977.1950, 12962.00
978.3090, 13110.00
979.4230, 13081.00
980.5370, 13219.00
981.6500, 13276.00
982.7640, 13207.00
983.8770, 13286.00
984.9900, 13238.00
986.1030, 13152.00
987.2160, 13396.00
988.3290, 13655.00
989.4420, 13473.00
990.5540, 13378.00
991.6660, 13625.00
992.7780, 13657.00
993.8900, 13852.00
995.0020, 13718.00
996.1140, 13871.00
997.2250, 13869.00
998.3360, 14007.00
999.4470, 13976.00
1000.558, 13974.00
1001.669, 14155.00
1002.780, 14312.00
1003.890, 14299.00
1005.001, 14325.00
1006.111, 14318.00
1007.221, 14341.25
1008.331, 14459.00
1009.440, 14388.00
1010.550, 14447.00
1011.659, 14472.00
1012.768, 14683.00
1013.877, 14652.00
1014.986, 14727.00
1016.095, 14631.00
1017.204, 14664.00
1018.312, 14649.00
1019.420, 14646.00
1020.528, 14623.00
1021.636, 14773.00
1022.744, 14694.00
1023.852, 14882.00
1024.959, 14805.00
1026.066, 14920.00
1027.173, 14887.00
1028.280, 14808.00
1029.387, 14867.00
1030.494, 14794.00
1031.600, 14730.00
1032.707, 14915.00
1033.813, 15018.00
1034.919, 14851.00
1036.025, 14997.00
1037.130, 14835.00
1038.236, 14776.00
1039.341, 14718.00
1040.446, 14887.00
1041.552, 14814.00
1042.656, 14691.00
1043.761, 15072.00
1044.866, 14965.00
1045.970, 14902.00
1047.074, 14857.00
1048.179, 14861.00
1049.282, 14845.51
1050.386, 14931.00
1051.490, 14894.00
1052.593, 14930.00
1053.697, 15007.00
1054.800, 14973.00
1055.903, 15032.43
1057.006, 15085.00
1058.108, 15090.00
1059.211, 15008.00
1060.313, 15023.00
1061.415, 14968.00
1062.517, 15108.00
1063.619, 15112.10
1064.721, 15169.00
1065.823, 15250.00
1066.924, 15233.00
1068.025, 15332.00
1069.126, 15318.00
1070.227, 15502.00
1071.328, 15482.00
1072.429, 15550.00
1073.529, 15673.00
1074.629, 15638.00
1075.729, 15712.00
1076.829, 15780.00
1077.929, 16010.00
1079.029, 16065.00
1080.128, 16215.20
1081.228, 16269.40
1082.327, 16430.00
1083.426, 16578.00
1084.525, 16593.00
1085.623, 16709.92
1086.722, 16768.00
1087.820, 16830.00
1088.919, 16830.00
1090.017, 16887.00
1091.115, 16906.00
1092.212, 16997.00
1093.310, 17099.00
1094.407, 17048.17
1095.505, 17221.43
1096.602, 17334.56
1097.699, 17390.83
1098.795, 17219.90
1099.892, 17342.35
1100.989, 17492.00
1102.085, 17446.00
1103.181, 17576.00
1104.277, 17761.00
1105.373, 17775.00
1106.469, 17977.00
1107.564, 17740.00
1108.660, 17934.00
1109.755, 17947.00
1110.850, 17850.00
1111.945, 18043.00
1113.040, 17981.00
1114.134, 18131.00
1115.229, 18262.00
1116.323, 18164.00
1117.417, 18199.00
1118.511, 18446.00
1119.605, 18464.00
1120.698, 18532.00
1121.792, 18608.00
1122.885, 18762.00
1123.978, 18698.43
1125.071, 18871.00
1126.164, 18611.00
1127.257, 18693.00
1128.349, 18686.00
1129.442, 18469.00
1130.534, 18747.00
1131.626, 18774.00
1132.718, 18647.00
1133.810, 18790.00
1134.901, 18573.00
1135.993, 18693.00
1137.084, 18863.00
1138.175, 18656.00
1139.266, 18626.00
1140.357, 18705.00
1141.448, 18727.00
1142.538, 18612.00
1143.628, 18727.00
1144.719, 18813.00
1145.809, 18732.00
1146.898, 18754.04
1147.988, 18830.00
1149.078, 18670.00
1150.167, 18751.00
1151.256, 18787.00
1152.345, 18489.00
1153.434, 18676.00
1154.523, 18701.00
1155.612, 18491.00
1156.700, 18595.00
1157.788, 18503.00
1158.877, 18542.00
1159.964, 18434.00
1161.052, 18279.00
1162.140, 18435.00
1163.227, 18428.00
1164.315, 18231.00
1165.402, 18260.00
1166.489, 18156.00
1167.576, 18142.00
1168.663, 18026.00
1169.749, 17942.00
1170.836, 18047.00
1171.922, 17646.00
1173.008, 17778.00
1174.094, 17675.00
1175.180, 17508.00
1176.265, 17415.00
1177.351, 17403.00
1178.436, 17212.00
1179.521, 17405.00
1180.606, 17269.00
1181.691, 17237.00
1182.776, 16909.00
1183.860, 16836.00
1184.944, 16608.00
1186.029, 16661.00
1187.113, 16710.00
1188.197, 16607.00
1189.280, 16557.38
1190.364, 16315.00
1191.447, 16376.00
1192.531, 16097.00
1193.614, 16117.00
1194.697, 15949.00
1195.779, 15940.00
1196.862, 15793.00
1197.945, 15522.00
1199.027, 15898.00
1200.109, 15706.00
1201.191, 15469.00
1202.273, 15492.00
1203.355, 15398.00
1204.436, 15269.00
1205.518, 15330.00
1206.599, 15158.00
1207.680, 15202.90
1208.761, 15130.07
1209.842, 15151.00
1210.922, 15072.00
1212.003, 15069.47
1213.083, 14920.00
1214.163, 15037.00
1215.243, 14961.17
1216.323, 14918.00
1217.402, 14996.00
1218.482, 14782.00
1219.561, 14760.00
1220.641, 14723.00
1221.720, 14740.00
1222.798, 14803.00
1223.877, 14746.00
1224.956, 14760.61
1226.034, 14783.00
1227.112, 14721.00
1228.191, 14742.00
1229.269, 14729.00
1230.346, 14802.00
1231.424, 14670.00
1232.501, 14770.00
1233.579, 14730.00
1234.656, 14684.00
1235.733, 14703.00
1236.810, 14786.00
1237.886, 14707.00
1238.963, 14838.00
1240.039, 14678.00
1241.116, 14587.00
1242.192, 14829.00
1243.268, 14868.00
1244.343, 14600.00
1245.419, 14787.00
1246.494, 14698.00
1247.570, 14577.00
1248.645, 14717.00
1249.720, 14749.00
1250.795, 14886.00
1251.869, 14897.00
1252.944, 14952.00
1254.018, 14909.00
1255.093, 15127.00
1256.167, 15145.00
1257.240, 15078.00
1258.314, 15219.00
1259.388, 15136.00
1260.461, 15074.00
1261.535, 15397.00
1262.608, 15214.00
1263.681, 15276.00
1264.753, 15366.00
1265.826, 15226.00
1266.899, 15410.00
1267.971, 15489.00
1269.043, 15504.00
1270.115, 15589.04
1271.187, 15618.38
1272.259, 15574.00
1273.330, 15683.00
1274.402, 15534.00
1275.473, 15536.00
1276.544, 15531.00
1277.615, 15699.00
1278.686, 15696.00
1279.756, 15621.00
1280.827, 15794.00
1281.897, 15701.00
1282.967, 15682.00
1284.037, 15965.00
1285.107, 15774.00
1286.177, 15810.00
1287.247, 15914.00
1288.316, 15937.00
1289.385, 16116.00
1290.454, 16182.00
1291.523, 16028.00
1292.592, 16151.00
1293.661, 16231.00
1294.729, 16329.00
1295.797, 16344.00
1296.866, 16423.00
1297.934, 16291.00
1299.001, 16319.00
1300.069, 16389.00
1301.137, 16389.00
1302.204, 16576.00
1303.271, 16570.00
1304.338, 16682.00
1305.405, 16900.00
1306.472, 16722.00
1307.539, 16649.00
1308.605, 17073.00
1309.671, 16794.00
1310.737, 16948.00
1311.803, 17053.00
1312.869, 17080.00
1313.935, 17188.00
1315.000, 17059.00
1316.066, 17107.00
1317.131, 17150.00
1318.196, 17323.00
1319.261, 17289.00
1320.326, 17470.00
1321.390, 17455.00
1322.455, 17536.00
1323.519, 17573.00
1324.583, 17442.00
1325.647, 17331.00
1326.711, 17310.00
1327.775, 17261.36
1328.838, 17328.00
1329.902, 17257.00
1330.965, 17306.00
1332.028, 17302.00
1333.091, 17269.00
1334.153, 17370.00
1335.216, 17156.00
1336.279, 17357.00
1337.341, 17336.00
1338.403, 17174.00
1339.465, 17265.00
1340.527, 17271.00
1341.588, 17130.00
1342.650, 17262.00
1343.711, 17133.00
1344.772, 17125.00
1345.834, 17056.00
1346.894, 17116.00
1347.955, 17054.00
1349.016, 16893.00
1350.076, 16704.00
1351.136, 16824.00
1352.197, 16747.00
1353.257, 16899.00
1354.316, 16768.00
1355.376, 16775.00
1356.436, 16862.00
1357.495, 16685.00
1358.554, 16629.00
1359.613, 16835.00
1360.672, 16656.00
1361.731, 16898.00
1362.789, 16642.00
1363.848, 16439.00
1364.906, 16697.00
1365.964, 16396.00
1367.022, 16531.00
1368.080, 16536.00
1369.138, 16427.00
1370.195, 16503.00
1371.253, 16500.00
1372.310, 16557.00
1373.367, 16520.00
1374.424, 16491.00
1375.480, 16444.00
1376.537, 16432.00
1377.593, 16384.00
1378.650, 16588.00
1379.706, 16559.00
1380.762, 16464.00
1381.818, 16183.00
1382.873, 16570.00
1383.929, 16397.00
1384.984, 16508.00
1386.039, 16416.00
1387.094, 16404.00
1388.149, 16418.00
1389.204, 16374.00
1390.259, 16579.00
1391.313, 16325.00
1392.367, 16460.00
1393.422, 16537.00
1394.476, 16270.00
1395.529, 16419.00
1396.583, 16381.00
1397.637, 16485.00
1398.690, 16296.00
1399.743, 16654.00
1400.796, 16448.00
1401.849, 16592.00
1402.902, 16453.00
1403.954, 16512.00
1405.007, 16493.00
1406.059, 16488.77
1407.111, 16505.00
1408.163, 16515.00
1409.215, 16485.00
1410.267, 16443.00
1411.318, 16552.00
1412.370, 16499.00
1413.421, 16512.00
1414.472, 16653.00
1415.523, 16527.00
1416.574, 16511.00
1417.624, 16495.00
1418.675, 16489.00
1419.725, 16521.00
1420.775, 16579.00
1421.825, 16564.00
1422.875, 16699.00
1423.925, 16736.00
1424.974, 16612.00
1426.024, 16669.00
1427.073, 16535.00
1428.122, 16470.00
1429.171, 16532.00
1430.220, 16553.88
1431.268, 16793.00
1432.317, 16772.00
1433.365, 16750.00
1434.413, 16875.00
1435.461, 16857.00
1436.509, 16734.00
1437.557, 16815.00
1438.605, 16834.00
1439.652, 16810.00
1440.699, 17003.00
1441.746, 17102.00
1442.793, 16764.00
1443.840, 16933.00
1444.887, 16957.00
1445.933, 16931.00
1446.980, 17181.00
1448.026, 17173.00
1449.072, 17163.00
1450.118, 17097.00
1451.163, 17058.00
1452.209, 17130.00
1453.254, 17135.00
1454.300, 17074.00
1455.345, 17045.00
1456.390, 17043.73
1457.435, 17090.00
1458.479, 17032.00
1459.524, 17050.00
1460.568, 17037.40
1461.612, 17035.01
1462.656, 17046.69
1463.700, 17064.00
1464.744, 17051.00
1465.788, 17087.00
1466.831, 17065.00
1467.874, 17078.00
1468.918, 17122.96
1469.961, 17185.00
1471.003, 17163.00
1472.046, 17219.00
1473.089, 17124.00
1474.131, 17052.00
1475.173, 17153.00
1476.215, 17317.00
1477.257, 17136.00
1478.299, 17169.00
1479.341, 17241.00
1480.382, 17168.00
1481.424, 17085.00
1482.465, 17237.00
1483.506, 17176.23
1484.547, 17176.66
1485.587, 17253.00
1486.628, 17139.00
1487.668, 17220.00
1488.709, 17211.00
1489.749, 17220.00
1490.789, 17289.00
1491.828, 17253.00
1492.868, 17386.00
1493.908, 17359.00
1494.947, 17357.00
1495.986, 17385.00
1497.025, 17366.00
1498.064, 17497.00
1499.103, 17456.43
1500.141, 17304.00
1501.180, 17414.00
1502.218, 17438.00
1503.256, 17343.00
1504.294, 17447.00
1505.332, 17511.00
1506.370, 17432.00
1507.407, 17511.00
1508.445, 17511.08
1509.482, 17540.17
1510.519, 17539.00
1511.556, 17640.00
1512.593, 17631.00
1513.629, 17692.00
1514.666, 17671.00
1515.702, 17613.00
1516.738, 17716.00
1517.774, 17738.00
1518.810, 17898.00
1519.846, 17914.07
1520.882, 17772.00
1521.917, 17904.00
1522.952, 18018.00
1523.987, 17829.00
1525.022, 18014.00
1526.057, 18191.00
1527.092, 18126.00
1528.126, 18066.00
1529.161, 18188.00
1530.195, 17976.00
1531.229, 18006.00
1532.263, 18004.39
1533.297, 18050.00
1534.330, 17983.00
1535.364, 18121.00
1536.397, 18062.00
1537.430, 18264.00
1538.463, 18056.00
1539.496, 18158.00
1540.529, 18156.00
1541.561, 18063.36
1542.594, 18221.11
1543.626, 18318.75
1544.658, 18359.53
1545.690, 18173.14
1546.722, 18280.09
1547.753, 18269.46
1548.785, 18254.04
1549.816, 18402.25
1550.847, 18248.88
1551.878, 18394.50
1552.909, 18420.77
1553.940, 18501.67
1554.971, 18464.28
1556.001, 18463.40
1557.031, 18580.85
1558.062, 18632.80
1559.092, 18581.77
1560.121, 18453.00
1561.151, 18706.00
1562.181, 18788.00
##END=



