##NAMES=Heulandite-Ca
##RRUFFID=R050097
##IDEAL CHEMISTRY=(Ca,Na,K)_5_(Si_27_Al_9_)O_72_&#183;26H_2_O
##LOCALITY=Rat's Nest Claim, Custer County, Idaho, USA
##OWNER=RRUFF
##SOURCE=John Cornish
##DESCRIPTION=Pale pink coffin-shaped tabular single crystals
##STATUS=The identification of this mineral has been confirmed by X-ray diffraction and chemical analysis
##URL=rruff.info/R050097
##MEASURED CHEMISTRY=(Ca_0.66_Na_0.30_K_0.04_)_5_(Si_0.77_Al_0.23_)_36_O_72_Â·24H_2_O
##PIN_ID=L00063
##ORIENTATION=Laser parallel to (-1 0 -1). Fiducial mark perpendicular to laser is parallel to -b [0 -1 0]
123.9200, 15557.00
125.1620, 15631.00
126.4040, 15759.00
127.6450, 15840.00
128.8860, 16162.00
130.1280, 16191.00
131.3680, 16340.00
132.6090, 16356.00
133.8500, 16680.00
135.0900, 16699.00
136.3300, 17156.00
137.5700, 17301.00
138.8100, 17539.00
140.0490, 17481.00
141.2890, 17449.00
142.5280, 17357.00
143.7670, 17095.00
145.0050, 17181.00
146.2440, 17041.00
147.4820, 16781.00
148.7200, 16740.00
149.9580, 16358.00
151.1960, 16083.00
152.4340, 15681.00
153.6710, 15521.00
154.9080, 15090.00
156.1450, 14723.85
157.3820, 14393.00
158.6190, 13897.00
159.8550, 13475.00
161.0910, 13054.00
162.3270, 12929.00
163.5630, 12685.00
164.7980, 12273.00
166.0340, 11945.00
167.2690, 11615.00
168.5040, 11512.00
169.7390, 11257.00
170.9730, 11039.00
172.2080, 10791.00
173.4420, 10657.00
174.6760, 10462.00
175.9100, 10297.00
177.1440, 10134.00
178.3770, 10225.00
179.6100, 9910.000
180.8430, 9967.000
182.0760, 9792.000
183.3090, 9731.000
184.5410, 9527.000
185.7740, 9617.000
187.0060, 9708.000
188.2380, 9575.000
189.4690, 9553.000
190.7010, 9486.000
191.9320, 9393.000
193.1630, 9335.369
194.3940, 9270.690
195.6250, 9187.000
196.8550, 9162.000
198.0860, 9122.000
199.3160, 9079.000
200.5460, 9002.703
201.7750, 8899.000
203.0050, 8796.000
204.2340, 8690.000
205.4630, 8515.000
206.6920, 8305.000
207.9210, 8201.000
209.1500, 8117.000
210.3780, 8000.000
211.6060, 7977.000
212.8340, 7992.000
214.0620, 7892.000
215.2900, 7916.000
216.5170, 7854.000
217.7440, 7808.000
218.9710, 7861.000
220.1980, 7655.000
221.4250, 7577.000
222.6510, 7647.000
223.8770, 7596.000
225.1040, 7524.000
226.3290, 7614.000
227.5550, 7558.000
228.7810, 7668.000
230.0060, 7539.000
231.2310, 7563.000
232.4560, 7700.000
233.6810, 7657.000
234.9050, 7755.000
236.1290, 7769.000
237.3540, 7859.000
238.5770, 7903.000
239.8010, 7952.455
241.0250, 7996.000
242.2480, 8050.000
243.4710, 8089.677
244.6940, 8222.000
245.9170, 8185.000
247.1400, 8264.000
248.3620, 8343.000
249.5840, 8309.000
250.8060, 8306.000
252.0280, 8341.000
253.2500, 8343.000
254.4710, 8313.000
255.6920, 8294.000
256.9140, 8261.000
258.1340, 8239.000
259.3550, 8237.826
260.5760, 8181.984
261.7960, 8164.106
263.0160, 8082.000
264.2360, 8108.000
265.4560, 8059.000
266.6750, 8052.000
267.8940, 8053.000
269.1140, 8002.000
270.3330, 7987.000
271.5510, 7857.000
272.7700, 7877.000
273.9880, 7753.000
275.2070, 7775.000
276.4250, 7708.000
277.6420, 7867.000
278.8600, 7770.000
280.0770, 7708.000
281.2950, 7623.000
282.5120, 7601.000
283.7290, 7575.000
284.9450, 7557.000
286.1620, 7470.000
287.3780, 7395.000
288.5940, 7326.000
289.8100, 7382.000
291.0260, 7387.000
292.2410, 7253.000
293.4570, 7319.000
294.6720, 7275.000
295.8870, 7215.000
297.1010, 7181.000
298.3160, 7186.000
299.5300, 7121.000
300.7450, 7113.000
301.9590, 7209.000
303.1730, 7026.000
304.3860, 7125.000
305.6000, 6966.000
306.8130, 7155.000
308.0260, 7068.000
309.2390, 7112.000
310.4510, 7144.000
311.6640, 7122.000
312.8760, 7081.000
314.0880, 7059.000
315.3000, 7129.408
316.5120, 7389.000
317.7240, 7324.000
318.9350, 7373.000
320.1460, 7519.000
321.3570, 7479.000
322.5680, 7503.000
323.7790, 7554.000
324.9890, 7632.000
326.1990, 7626.000
327.4090, 7705.000
328.6190, 7744.573
329.8290, 7812.000
331.0380, 7829.000
332.2480, 7854.000
333.4570, 7866.000
334.6660, 7975.000
335.8740, 7981.000
337.0830, 8134.000
338.2910, 8057.000
339.5000, 8215.000
340.7080, 8224.000
341.9150, 8194.000
343.1230, 8331.000
344.3300, 8400.000
345.5380, 8505.000
346.7450, 8618.000
347.9520, 8700.292
349.1580, 8840.000
350.3650, 8891.000
351.5710, 9003.000
352.7770, 9104.000
353.9830, 9343.000
355.1890, 9353.000
356.3940, 9592.000
357.6000, 9735.000
358.8050, 10035.00
360.0100, 10222.00
361.2150, 10334.00
362.4190, 10533.00
363.6240, 10672.00
364.8280, 10931.00
366.0320, 11117.00
367.2360, 11354.00
368.4400, 11655.00
369.6430, 11917.00
370.8460, 12143.00
372.0500, 12449.21
373.2530, 12708.00
374.4550, 13035.00
375.6580, 13346.00
376.8600, 13672.74
378.0620, 13986.07
379.2650, 14220.00
380.4660, 14708.00
381.6680, 15015.00
382.8690, 15576.00
384.0710, 15787.00
385.2720, 16354.00
386.4730, 16690.00
387.6730, 17238.00
388.8740, 17930.00
390.0740, 18417.00
391.2740, 18893.00
392.4740, 19748.00
393.6740, 20181.00
394.8740, 20766.00
396.0730, 21244.00
397.2730, 21715.00
398.4720, 21762.00
399.6700, 22205.00
400.8690, 22311.00
402.0680, 22543.00
403.2660, 21919.00
404.4640, 21922.00
405.6620, 21451.00
406.8600, 21085.00
408.0570, 20540.00
409.2550, 19862.00
410.4520, 19215.00
411.6490, 18559.00
412.8460, 17675.00
414.0430, 17005.00
415.2390, 16231.00
416.4350, 15663.00
417.6310, 14861.00
418.8270, 14265.00
420.0230, 13872.00
421.2190, 13158.00
422.4140, 12566.00
423.6090, 12198.00
424.8040, 11646.00
425.9990, 11082.00
427.1940, 10789.00
428.3880, 10311.00
429.5820, 9926.000
430.7760, 9603.000
431.9700, 9273.000
433.1640, 9018.812
434.3580, 8819.000
435.5510, 8580.000
436.7440, 8414.000
437.9370, 8234.000
439.1300, 8032.000
440.3230, 7944.000
441.5150, 7843.000
442.7070, 7569.000
443.8990, 7693.000
445.0910, 7483.000
446.2830, 7537.000
447.4750, 7507.000
448.6660, 7607.000
449.8570, 7552.000
451.0480, 7504.000
452.2390, 7643.000
453.4290, 7667.000
454.6200, 7840.000
455.8100, 7916.000
457.0000, 8083.000
458.1900, 8360.000
459.3800, 8619.000
460.5690, 8843.000
461.7590, 9206.000
462.9480, 9290.000
464.1370, 9644.000
465.3260, 9803.000
466.5140, 10080.00
467.7030, 10333.00
468.8910, 10606.00
470.0790, 10791.00
471.2670, 11205.00
472.4550, 11565.00
473.6420, 11877.00
474.8300, 12473.00
476.0170, 12813.00
477.2040, 13428.00
478.3900, 13815.00
479.5770, 14362.00
480.7640, 14693.00
481.9500, 15020.00
483.1360, 15240.00
484.3220, 15356.00
485.5080, 15075.00
486.6930, 14923.00
487.8780, 14304.00
489.0640, 13663.00
490.2490, 12996.00
491.4330, 12317.00
492.6180, 11571.00
493.8030, 10942.00
494.9870, 9969.000
496.1710, 9487.000
497.3550, 8914.000
498.5390, 8450.000
499.7220, 7969.000
500.9060, 7572.000
502.0890, 7233.447
503.2720, 6982.000
504.4550, 6706.000
505.6370, 6486.000
506.8200, 6363.000
508.0020, 6151.000
509.1840, 6006.000
510.3660, 5958.000
511.5480, 6001.000
512.7290, 5805.000
513.9110, 5778.000
515.0920, 5713.000
516.2730, 5697.000
517.4540, 5611.000
518.6350, 5614.000
519.8150, 5567.556
520.9960, 5422.000
522.1760, 5471.000
523.3560, 5483.000
524.5350, 5368.000
525.7150, 5292.000
526.8950, 5392.000
528.0740, 5408.000
529.2530, 5223.000
530.4320, 5385.000
531.6100, 5293.000
532.7890, 5258.000
533.9670, 5197.000
535.1460, 5133.000
536.3240, 5247.000
537.5010, 5162.000
538.6790, 5198.000
539.8570, 5195.150
541.0340, 5071.000
542.2110, 5133.000
543.3880, 5121.000
544.5650, 5017.000
545.7410, 5005.000
546.9180, 5116.000
548.0940, 5010.000
549.2700, 5054.000
550.4460, 4929.000
551.6210, 4970.000
552.7970, 4910.000
553.9720, 4956.000
555.1480, 4928.000
556.3230, 4860.000
557.4970, 5025.000
558.6720, 4934.000
559.8460, 4870.000
561.0210, 4861.000
562.1950, 4964.000
563.3690, 4881.000
564.5420, 4999.000
565.7160, 4919.000
566.8890, 4975.000
568.0630, 4978.000
569.2360, 4917.000
570.4090, 4949.000
571.5810, 4997.000
572.7540, 4924.000
573.9260, 4992.000
575.0980, 5021.000
576.2700, 4982.000
577.4420, 4997.000
578.6140, 5017.000
579.7850, 5128.000
580.9560, 4993.000
582.1270, 5148.000
583.2980, 5151.000
584.4690, 5154.000
585.6400, 5218.000
586.8100, 5233.000
587.9800, 5284.404
589.1500, 5379.000
590.3200, 5388.000
591.4900, 5477.000
592.6590, 5531.000
593.8290, 5596.000
594.9980, 5639.000
596.1670, 5775.000
597.3360, 5888.000
598.5040, 6013.000
599.6730, 6028.000
600.8410, 6157.000
602.0090, 6331.000
603.1770, 6314.000
604.3450, 6426.000
605.5130, 6481.000
606.6800, 6466.000
607.8470, 6503.000
609.0140, 6516.000
610.1810, 6474.000
611.3480, 6441.000
612.5140, 6445.000
613.6810, 6389.000
614.8470, 6352.000
616.0130, 6227.000
617.1790, 6155.000
618.3440, 6016.000
619.5100, 5964.000
620.6750, 5799.000
621.8400, 5734.000
623.0050, 5731.000
624.1700, 5548.000
625.3350, 5482.000
626.4990, 5301.000
627.6640, 5329.000
628.8280, 5221.125
629.9920, 5211.000
631.1550, 5080.000
632.3190, 5097.000
633.4820, 4986.000
634.6460, 5025.000
635.8090, 4929.000
636.9710, 4901.000
638.1340, 4796.000
639.2970, 4784.883
640.4590, 4785.000
641.6210, 4782.000
642.7830, 4746.000
643.9450, 4737.081
645.1070, 4673.000
646.2680, 4679.000
647.4300, 4600.000
648.5910, 4540.000
649.7520, 4589.000
650.9130, 4586.000
652.0730, 4651.000
653.2340, 4489.000
654.3940, 4599.000
655.5540, 4532.000
656.7140, 4592.000
657.8740, 4588.000
659.0330, 4539.000
660.1930, 4480.000
661.3520, 4508.000
662.5110, 4520.000
663.6700, 4472.250
664.8290, 4438.000
665.9870, 4435.000
667.1460, 4397.000
668.3040, 4445.000
669.4620, 4420.000
670.6200, 4374.000
671.7770, 4328.000
672.9350, 4486.000
674.0920, 4373.000
675.2500, 4394.000
676.4070, 4339.000
677.5630, 4314.000
678.7200, 4320.000
679.8770, 4315.986
681.0330, 4330.000
682.1890, 4360.000
683.3450, 4367.000
684.5010, 4396.000
685.6560, 4380.000
686.8120, 4411.000
687.9670, 4382.000
689.1220, 4407.000
690.2770, 4450.000
691.4320, 4499.000
692.5870, 4416.000
693.7410, 4520.000
694.8950, 4454.000
696.0490, 4448.000
697.2030, 4522.000
698.3570, 4526.000
699.5110, 4526.000
700.6640, 4477.000
701.8170, 4476.000
702.9700, 4433.000
704.1230, 4563.000
705.2760, 4539.000
706.4290, 4603.000
707.5810, 4527.000
708.7330, 4576.000
709.8850, 4539.000
711.0370, 4541.000
712.1890, 4548.000
713.3400, 4478.000
714.4920, 4534.000
715.6430, 4573.000
716.7940, 4565.000
717.9450, 4518.000
719.0960, 4423.000
720.2460, 4442.000
721.3960, 4501.000
722.5470, 4549.000
723.6970, 4541.000
724.8460, 4480.000
725.9960, 4489.000
727.1460, 4463.000
728.2950, 4494.000
729.4440, 4498.000
730.5930, 4462.000
731.7420, 4461.580
732.8910, 4456.743
734.0390, 4423.000
735.1870, 4443.000
736.3360, 4451.000
737.4840, 4420.000
738.6310, 4415.000
739.7790, 4407.000
740.9260, 4535.000
742.0740, 4413.000
743.2210, 4362.000
744.3680, 4560.000
745.5150, 4547.000
746.6610, 4490.000
747.8080, 4449.000
748.9540, 4559.000
750.1000, 4585.000
751.2460, 4541.000
752.3920, 4583.000
753.5380, 4545.000
754.6830, 4600.000
755.8280, 4658.000
756.9730, 4652.417
758.1180, 4645.000
759.2630, 4709.000
760.4080, 4708.000
761.5520, 4775.000
762.6960, 4778.000
763.8410, 4878.000
764.9840, 4855.000
766.1280, 4838.000
767.2720, 4967.000
768.4150, 4977.000
769.5590, 4972.000
770.7020, 4869.000
771.8450, 5077.000
772.9870, 4979.000
774.1300, 5008.000
775.2720, 5116.000
776.4150, 5056.000
777.5570, 5075.000
778.6990, 5059.000
779.8400, 5019.000
780.9820, 5063.000
782.1230, 5011.000
783.2650, 5065.000
784.4060, 4874.000
785.5470, 5011.000
786.6870, 4858.000
787.8280, 4878.000
788.9680, 4886.000
790.1090, 4861.000
791.2490, 4834.000
792.3890, 4798.000
793.5280, 4703.000
794.6680, 4634.000
795.8070, 4659.000
796.9470, 4691.000
798.0860, 4589.000
799.2250, 4603.000
800.3630, 4701.000
801.5020, 4551.000
802.6410, 4510.000
803.7790, 4648.000
804.9170, 4624.000
806.0550, 4582.000
807.1930, 4543.000
808.3300, 4581.000
809.4680, 4597.000
810.6050, 4663.000
811.7420, 4731.000
812.8790, 4703.000
814.0160, 4754.000
815.1520, 4777.000
816.2890, 4682.000
817.4250, 4646.000
818.5610, 4685.000
819.6970, 4630.000
820.8330, 4659.000
821.9680, 4622.000
823.1040, 4518.000
824.2390, 4467.000
825.3740, 4443.000
826.5090, 4346.000
827.6440, 4319.000
828.7790, 4192.000
829.9130, 4318.000
831.0470, 4240.000
832.1810, 4125.000
833.3150, 4169.000
834.4490, 4109.000
835.5830, 4252.000
836.7160, 4208.000
837.8500, 4118.000
838.9830, 4133.000
840.1160, 4087.000
841.2480, 4086.000
842.3810, 4128.000
843.5140, 4067.000
844.6460, 3994.000
845.7780, 4069.000
846.9100, 4087.000
848.0420, 4005.000
849.1740, 4038.000
850.3050, 4083.000
851.4360, 3994.000
852.5680, 3982.000
853.6990, 4036.000
854.8290, 3981.000
855.9600, 4047.000
857.0910, 4065.000
858.2210, 3959.000
859.3510, 4034.000
860.4810, 4010.000
861.6110, 4005.000
862.7410, 3996.000
863.8700, 4026.000
865.0000, 4005.152
866.1290, 4005.000
867.2580, 3991.000
868.3870, 3991.000
869.5150, 3994.000
870.6440, 4041.000
871.7720, 4036.000
872.9000, 3983.000
874.0290, 4009.000
875.1560, 3961.000
876.2840, 3988.000
877.4120, 3931.000
878.5390, 3942.000
879.6660, 3982.000
880.7930, 3911.000
881.9200, 4034.000
883.0470, 3988.000
884.1740, 3911.000
885.3000, 3978.000
886.4260, 4058.000
887.5530, 4016.000
888.6780, 3957.000
889.8040, 3987.000
890.9300, 3972.000
892.0550, 3932.000
893.1810, 4002.000
894.3060, 4031.000
895.4310, 3992.000
896.5560, 3999.000
897.6800, 4013.000
898.8050, 3940.000
899.9290, 3975.000
901.0530, 3986.000
902.1770, 3975.000
903.3010, 4013.000
904.4250, 3974.000
905.5480, 4047.000
906.6720, 4061.000
907.7950, 3993.000
908.9180, 3967.000
910.0410, 4091.000
911.1630, 3970.000
912.2860, 4036.000
913.4080, 3986.000
914.5300, 4029.000
915.6530, 4058.000
916.7740, 3955.000
917.8960, 4023.000
919.0180, 3977.000
920.1390, 4050.000
921.2600, 4050.000
922.3820, 4048.000
923.5020, 4044.000
924.6230, 4106.000
925.7440, 4034.000
926.8640, 4101.000
927.9850, 4133.000
929.1050, 4040.000
930.2250, 4053.000
931.3450, 4063.000
932.4640, 4105.000
933.5840, 4048.000
934.7030, 4098.000
935.8220, 4080.000
936.9410, 4102.000
938.0600, 4114.000
939.1790, 4115.000
940.2970, 4074.000
941.4160, 4126.000
942.5340, 4173.000
943.6520, 4137.000
944.7700, 4072.000
945.8870, 4044.000
947.0050, 4189.000
948.1220, 4151.000
949.2400, 4185.000
950.3570, 4111.000
951.4740, 4219.000
952.5900, 4204.000
953.7070, 4253.000
954.8240, 4203.000
955.9400, 4147.000
957.0560, 4260.000
958.1720, 4170.000
959.2880, 4220.000
960.4030, 4224.000
961.5190, 4250.000
962.6340, 4307.000
963.7490, 4339.000
964.8640, 4404.000
965.9790, 4385.000
967.0940, 4366.000
968.2080, 4435.000
969.3230, 4492.000
970.4370, 4506.000
971.5510, 4558.000
972.6650, 4565.962
973.7790, 4572.000
974.8920, 4565.000
976.0060, 4610.000
977.1190, 4581.000
978.2320, 4633.000
979.3450, 4691.000
980.4580, 4685.000
981.5710, 4841.000
982.6830, 4775.000
983.7950, 4873.000
984.9080, 4877.000
986.0200, 4851.000
987.1310, 4991.000
988.2430, 4928.000
989.3550, 4938.000
990.4660, 5055.000
991.5770, 5055.000
992.6880, 5076.000
993.7990, 5096.000
994.9100, 5145.000
996.0200, 5150.000
997.1310, 5275.000
998.2410, 5240.000
999.3510, 5408.000
1000.461, 5383.000
1001.571, 5359.000
1002.681, 5330.000
1003.790, 5329.000
1004.899, 5352.530
1006.009, 5405.000
1007.118, 5417.000
1008.226, 5482.000
1009.335, 5488.000
1010.444, 5424.000
1011.552, 5570.000
1012.660, 5516.000
1013.768, 5498.000
1014.876, 5540.000
1015.984, 5507.000
1017.092, 5547.308
1018.199, 5538.138
1019.306, 5586.000
1020.413, 5551.000
1021.520, 5509.000
1022.627, 5557.000
1023.734, 5631.000
1024.840, 5628.000
1025.947, 5631.000
1027.053, 5603.000
1028.159, 5610.000
1029.265, 5666.000
1030.370, 5658.000
1031.476, 5661.788
1032.581, 5589.000
1033.687, 5614.000
1034.792, 5600.000
1035.897, 5517.000
1037.002, 5541.000
1038.106, 5531.000
1039.211, 5537.000
1040.315, 5534.000
1041.419, 5565.000
1042.523, 5545.000
1043.627, 5580.000
1044.731, 5563.816
1045.834, 5565.882
1046.938, 5534.000
1048.041, 5544.000
1049.144, 5520.000
1050.247, 5472.000
1051.349, 5532.000
1052.452, 5465.000
1053.555, 5497.000
1054.657, 5479.000
1055.759, 5542.000
1056.861, 5389.000
1057.963, 5389.000
1059.064, 5436.000
1060.166, 5553.000
1061.267, 5437.000
1062.368, 5450.000
1063.470, 5519.000
1064.570, 5418.000
1065.671, 5513.000
1066.772, 5578.000
1067.872, 5506.000
1068.972, 5496.000
1070.073, 5432.000
1071.173, 5603.000
1072.272, 5620.000
1073.372, 5593.000
1074.472, 5706.000
1075.571, 5634.000
1076.670, 5686.000
1077.769, 5783.000
1078.868, 5760.000
1079.967, 5937.000
1081.065, 5952.000
1082.164, 5898.000
1083.262, 5941.000
1084.360, 6144.000
1085.458, 6067.000
1086.556, 6155.000
1087.654, 6099.000
1088.751, 6241.000
1089.848, 6219.000
1090.946, 6258.000
1092.043, 6369.000
1093.139, 6321.000
1094.236, 6334.000
1095.333, 6326.000
1096.429, 6372.000
1097.525, 6417.976
1098.622, 6458.437
1099.718, 6509.000
1100.813, 6567.000
1101.909, 6525.000
1103.005, 6556.000
1104.100, 6576.000
1105.195, 6599.000
1106.290, 6630.000
1107.385, 6703.000
1108.480, 6597.000
1109.574, 6693.000
1110.669, 6662.000
1111.763, 6635.000
1112.857, 6726.000
1113.951, 6697.000
1115.045, 6688.000
1116.139, 6821.000
1117.232, 6608.000
1118.326, 6713.000
1119.419, 6653.000
1120.512, 6663.000
1121.605, 6720.000
1122.697, 6663.000
1123.790, 6660.000
1124.883, 6748.000
1125.975, 6739.000
1127.067, 6703.000
1128.159, 6708.000
1129.251, 6782.000
1130.342, 6706.000
1131.434, 6689.000
1132.525, 6720.000
1133.617, 6810.000
1134.708, 6745.000
1135.799, 6765.756
1136.889, 6818.000
1137.980, 6718.000
1139.071, 6646.000
1140.161, 6626.000
1141.251, 6681.000
1142.341, 6721.000
1143.431, 6582.000
1144.521, 6660.000
1145.610, 6657.000
1146.700, 6537.000
1147.789, 6544.000
1148.878, 6512.000
1149.967, 6437.000
1151.056, 6512.000
1152.144, 6408.000
1153.233, 6396.000
1154.321, 6413.000
1155.409, 6385.000
1156.498, 6363.532
1157.585, 6334.578
1158.673, 6293.000
1159.761, 6255.000
1160.848, 6211.000
1161.936, 6179.000
1163.023, 6106.000
1164.110, 6136.000
1165.197, 6149.000
1166.283, 6067.000
1167.370, 5988.000
1168.456, 5962.000
1169.542, 5917.258
1170.629, 5908.000
1171.714, 5888.000
1172.800, 5827.000
1173.886, 5831.000
1174.971, 5760.000
1176.057, 5686.000
1177.142, 5650.000
1178.227, 5721.000
1179.312, 5681.000
1180.397, 5611.000
1181.481, 5488.000
1182.566, 5534.000
1183.650, 5470.000
1184.734, 5408.000
1185.818, 5417.000
1186.902, 5403.000
1187.986, 5336.000
1189.069, 5295.000
1190.153, 5213.000
1191.236, 5175.000
1192.319, 5206.000
1193.402, 5205.000
1194.485, 5046.000
1195.567, 5195.000
1196.650, 4995.000
1197.732, 5002.000
1198.814, 5018.000
1199.896, 5083.000
1200.978, 4883.000
1202.060, 4986.000
1203.142, 5009.000
1204.223, 4856.000
1205.304, 4873.000
1206.386, 4872.000
1207.467, 4896.000
1208.547, 4895.000
1209.628, 4851.000
1210.709, 4813.000
1211.789, 4922.000
1212.869, 4848.000
1213.950, 4842.000
1215.030, 4778.000
1216.109, 4859.000
1217.189, 4760.000
1218.269, 4791.000
1219.348, 4620.000
1220.427, 4732.000
1221.506, 4727.000
1222.585, 4730.000
1223.664, 4732.000
1224.743, 4737.021
1225.821, 4752.859
1226.899, 4746.000
1227.978, 4774.000
1229.056, 4767.000
1230.134, 4742.000
1231.211, 4832.000
1232.289, 4787.000
1233.366, 4709.000
1234.444, 4703.000
1235.521, 4766.000
1236.598, 4799.000
1237.675, 4795.000
1238.751, 4771.000
1239.828, 4783.000
1240.904, 4705.000
1241.981, 4747.000
1243.057, 4649.000
1244.133, 4787.000
1245.209, 4741.000
1246.284, 4788.000
1247.360, 4753.000
1248.435, 4746.000
1249.510, 4749.000
1250.585, 4723.000
1251.660, 4715.000
1252.735, 4733.000
1253.810, 4708.000
1254.884, 4730.000
1255.959, 4754.000
1257.033, 4767.916
1258.107, 4803.000
1259.181, 4803.000
1260.255, 4842.000
1261.328, 4810.000
1262.402, 4760.000
1263.475, 4796.000
1264.548, 4756.000
1265.621, 4746.000
1266.694, 4832.000
1267.767, 4830.000
1268.840, 4700.000
1269.912, 4832.000
1270.984, 4759.000
1272.056, 4807.000
1273.129, 4706.000
1274.200, 4818.000
1275.272, 4780.000
1276.344, 4814.000
1277.415, 4752.000
1278.486, 4748.000
1279.558, 4852.000
1280.629, 4839.000
1281.699, 4808.000
1282.770, 4839.000
1283.841, 4834.326
1284.911, 4805.000
1285.981, 4851.000
1287.051, 4864.000
1288.121, 4841.000
1289.191, 4859.400
1290.261, 4886.567
1291.330, 4836.000
1292.400, 4942.000
1293.469, 4912.000
1294.538, 4895.000
1295.607, 4897.000
1296.676, 4858.000
1297.745, 4907.000
1298.813, 4878.000
1299.881, 4891.642
1300.950, 4933.000
1302.018, 4935.000
1303.086, 4918.000
1304.154, 4989.000
1305.221, 4979.000
1306.289, 4993.002
1307.356, 5049.000
1308.423, 4968.000
1309.490, 5026.000
1310.557, 4938.000
1311.624, 4937.000
1312.691, 4904.000
1313.757, 4922.000
1314.823, 5019.000
1315.890, 4993.000
1316.956, 4917.000
1318.022, 5008.000
1319.087, 4891.000
1320.153, 4963.000
1321.219, 4961.000
1322.284, 4875.000
1323.349, 4949.000
1324.414, 4995.000
1325.479, 4913.000
1326.544, 4984.000
1327.608, 4983.000
1328.673, 4896.000
1329.737, 4938.000
1330.801, 4963.000
1331.865, 4923.940
1332.929, 4999.000
1333.993, 4932.000
1335.057, 4916.000
1336.120, 4991.000
1337.183, 5025.000
1338.247, 5054.747
1339.310, 5025.877
1340.373, 5030.373
1341.435, 5017.644
1342.498, 4993.000
1343.560, 4975.000
1344.623, 4970.000
1345.685, 4935.000
1346.747, 4943.000
1347.809, 4986.000
1348.871, 4947.000
1349.932, 5034.000
1350.994, 4998.000
1352.055, 4986.000
1353.116, 5022.000
1354.177, 5046.000
1355.238, 5050.382
1356.299, 5031.000
1357.359, 5087.000
1358.420, 5021.000
1359.480, 5060.000
1360.540, 5071.000
1361.600, 5009.000
1362.660, 5136.000
1363.720, 5064.000
1364.780, 5081.000
1365.839, 4984.000
1366.898, 5070.000
1367.958, 5008.000
1369.017, 4985.000
1370.076, 5032.000
1371.134, 5053.000
1372.193, 4985.000
1373.251, 5060.000
1374.310, 5025.000
1375.368, 4999.000
1376.426, 5168.000
1377.484, 5097.000
1378.542, 5179.000
1379.599, 5041.000
1380.657, 5060.000
1381.714, 5054.000
1382.771, 4997.000
1383.828, 5073.000
1384.885, 5050.000
1385.942, 5094.000
1386.999, 4985.000
1388.055, 5123.000
1389.111, 5203.000
1390.168, 4950.000
1391.224, 5188.000
1392.280, 5055.000
1393.335, 5147.000
1394.391, 5038.000
1395.446, 5152.000
1396.502, 5119.000
1397.557, 5181.000
1398.612, 5148.000
1399.667, 5117.000
1400.722, 5147.000
1401.776, 5136.000
1402.831, 5126.933
1403.885, 5109.000
1404.939, 5119.000
1405.994, 5099.000
1407.048, 5115.000
1408.101, 5088.000
1409.155, 5036.000
1410.209, 5164.000
1411.262, 5116.000
1412.315, 5190.000
1413.368, 5164.000
1414.421, 5171.000
1415.474, 5171.000
1416.527, 5221.000
1417.579, 5203.000
1418.632, 5168.000
1419.684, 5241.000
1420.736, 5214.000
1421.788, 5223.000
1422.840, 5255.449
1423.891, 5234.000
1424.943, 5300.000
1425.994, 5300.000
1427.046, 5330.488
1428.097, 5270.000
1429.148, 5289.000
1430.199, 5347.000
1431.249, 5250.000
1432.300, 5320.000
1433.350, 5360.000
1434.401, 5454.000
1435.451, 5384.000
1436.501, 5427.000
1437.551, 5331.000
1438.601, 5479.000
1439.650, 5426.000
1440.700, 5394.000
1441.749, 5397.000
1442.798, 5380.000
1443.847, 5388.037
1444.896, 5404.000
1445.945, 5405.000
1446.993, 5449.000
1448.042, 5441.000
1449.090, 5460.000
1450.138, 5425.000
1451.187, 5470.000
1452.234, 5376.000
1453.282, 5411.000
1454.330, 5460.000
1455.377, 5485.000
1456.425, 5417.000
1457.472, 5422.000
1458.519, 5443.000
1459.566, 5445.000
1460.613, 5495.000
1461.660, 5418.000
1462.706, 5388.000
1463.752, 5388.000
1464.799, 5477.000
1465.845, 5405.000
1466.891, 5427.000
1467.937, 5415.000
1468.982, 5428.000
1470.028, 5400.000
1471.073, 5352.000
1472.119, 5290.000
1473.164, 5399.000
1474.209, 5439.000
1475.254, 5448.000
1476.299, 5366.000
1477.343, 5445.000
1478.388, 5441.000
1479.432, 5378.000
1480.476, 5421.000
1481.520, 5399.000
1482.564, 5415.000
1483.608, 5516.000
1484.651, 5405.000
1485.695, 5409.000
1486.738, 5531.000
1487.782, 5446.000
1488.825, 5341.000
1489.868, 5479.000
1490.910, 5378.000
1491.953, 5386.000
1492.996, 5478.000
1494.038, 5530.000
1495.080, 5447.000
1496.122, 5471.000
1497.164, 5434.000
1498.206, 5393.000
1499.248, 5489.000
1500.290, 5473.000
1501.331, 5496.582
1502.372, 5394.000
1503.413, 5500.000
1504.455, 5540.000
1505.495, 5471.000
1506.536, 5515.000
1507.577, 5515.000
1508.617, 5545.000
1509.658, 5557.208
1510.698, 5555.000
1511.738, 5563.000
1512.778, 5518.000
1513.818, 5485.000
1514.857, 5527.000
1515.897, 5526.000
1516.936, 5571.000
1517.975, 5614.000
1519.015, 5549.000
1520.054, 5580.000
1521.092, 5477.000
1522.131, 5605.000
1523.170, 5498.000
1524.208, 5562.000
1525.246, 5632.000
1526.285, 5616.000
1527.323, 5689.000
1528.361, 5498.000
1529.398, 5608.000
1530.436, 5540.000
1531.473, 5609.000
1532.511, 5556.000
1533.548, 5618.000
1534.585, 5589.000
1535.622, 5684.000
1536.659, 5689.000
1537.695, 5673.611
1538.732, 5713.000
1539.768, 5628.000
1540.805, 5620.000
1541.841, 5592.000
1542.877, 5680.000
1543.913, 5648.261
1544.948, 5715.000
1545.984, 5682.000
1547.019, 5665.000
1548.055, 5735.000
1549.090, 5630.000
1550.125, 5773.000
1551.160, 5727.000
1552.195, 5849.000
1553.229, 5833.000
1554.264, 5888.000
1555.298, 5848.000
1556.332, 5874.000
1557.366, 5877.581
1558.400, 5774.000
1559.434, 5884.000
1560.468, 5791.000
1561.502, 5792.000
1562.535, 5779.000
##END=



