##NAMES=Humite
##RRUFFID=R050665
##IDEAL CHEMISTRY=Mg_7_(SiO_4_)_3_(F,OH)_2_
##LOCALITY=Tilly Foster mine, Brewster, Putnam County, New York, USA
##OWNER=RRUFF
##SOURCE=University of Arizona Mineral Museum
##DESCRIPTION=Granular aggregate of reddish-orange crystals
##STATUS=The identification of this mineral has been confirmed by X-ray diffraction and chemical analysis
##URL=rruff.info/R050665
##MEASURED CHEMISTRY=(Mg_0.91_Fe^2+^_0.09_)_7_(Si_1.00_O_4_)_3_(F_0.56_(OH)_0.44_)_2_
##PIN_ID=M01664
##ORIENTATION=Laser parallel to a* (1 0 0). Fiducial mark perpendicular to laser is parallel to b [0 1 0]
99.34500, 4017.000
100.5820, 3897.000
101.8200, 3948.000
103.0570, 3839.000
104.2940, 3873.000
105.5310, 3981.000
106.7680, 4210.000
108.0040, 4184.000
109.2410, 4078.000
110.4770, 4104.000
111.7130, 4030.000
112.9490, 4340.000
114.1850, 4497.000
115.4200, 4520.000
116.6560, 4406.000
117.8910, 4338.000
119.1260, 4290.000
120.3610, 4284.000
121.5960, 4426.000
122.8300, 4563.000
124.0640, 4404.000
125.2990, 4307.000
126.5330, 4249.000
127.7670, 4275.000
129.0000, 4314.000
130.2340, 4388.000
131.4670, 4442.000
132.7000, 4440.000
133.9330, 4402.000
135.1660, 4466.000
136.3990, 4589.000
137.6310, 4695.000
138.8640, 4701.000
140.0960, 4839.000
141.3280, 4794.000
142.5600, 4778.000
143.7910, 4903.000
145.0230, 4834.000
146.2540, 4883.000
147.4850, 4916.000
148.7160, 4901.000
149.9470, 4863.000
151.1780, 4841.000
152.4080, 4926.000
153.6380, 4754.000
154.8690, 4864.000
156.0980, 4887.000
157.3280, 4848.000
158.5580, 4842.000
159.7870, 4770.000
161.0170, 4796.000
162.2460, 4854.000
163.4750, 4756.000
164.7030, 4756.000
165.9320, 4674.000
167.1600, 4751.000
168.3890, 4788.000
169.6170, 4754.000
170.8450, 4865.000
172.0730, 4844.000
173.3000, 4812.000
174.5280, 4846.000
175.7550, 4896.000
176.9820, 4920.000
178.2090, 4912.000
179.4350, 4923.000
180.6620, 4957.578
181.8880, 4939.000
183.1150, 5036.000
184.3410, 5110.000
185.5670, 5164.710
186.7920, 5296.106
188.0180, 5355.000
189.2430, 5583.000
190.4690, 5679.000
191.6940, 5904.000
192.9180, 5812.000
194.1430, 5942.000
195.3680, 5974.000
196.5920, 5947.000
197.8160, 5898.000
199.0400, 5814.000
200.2640, 5672.000
201.4880, 5612.000
202.7110, 5508.000
203.9350, 5368.000
205.1580, 5287.000
206.3810, 5211.000
207.6040, 5151.000
208.8270, 5287.000
210.0490, 5080.000
211.2710, 5274.000
212.4940, 5192.000
213.7160, 5256.387
214.9370, 5425.000
216.1590, 5379.000
217.3810, 5360.000
218.6020, 5335.000
219.8230, 5462.000
221.0440, 5522.000
222.2650, 5519.000
223.4860, 5379.000
224.7060, 5387.000
225.9260, 5271.000
227.1470, 5331.000
228.3670, 5229.000
229.5860, 5210.000
230.8060, 5189.000
232.0260, 5184.000
233.2450, 5181.000
234.4640, 5082.000
235.6830, 5211.000
236.9020, 5269.000
238.1200, 5234.000
239.3390, 5133.000
240.5570, 5156.000
241.7750, 5131.000
242.9930, 5164.000
244.2110, 5208.000
245.4290, 5263.000
246.6460, 5287.000
247.8630, 5195.000
249.0810, 5174.000
250.2980, 5221.000
251.5140, 5167.000
252.7310, 5289.000
253.9470, 5220.000
255.1640, 5233.000
256.3800, 5216.000
257.5960, 5305.000
258.8120, 5258.337
260.0270, 5384.000
261.2430, 5218.000
262.4580, 5301.000
263.6730, 5294.000
264.8880, 5316.000
266.1030, 5219.000
267.3170, 5276.000
268.5320, 5218.000
269.7460, 5278.000
270.9600, 5310.000
272.1740, 5207.000
273.3880, 5133.000
274.6010, 5285.000
275.8150, 5251.000
277.0280, 5331.000
278.2410, 5404.000
279.4540, 5309.000
280.6670, 5318.000
281.8790, 5388.000
283.0920, 5355.000
284.3040, 5300.000
285.5160, 5200.000
286.7280, 5247.000
287.9400, 5273.000
289.1510, 5179.000
290.3630, 5233.000
291.5740, 5240.000
292.7850, 5207.000
293.9960, 5141.000
295.2070, 5188.000
296.4170, 5201.000
297.6280, 5091.000
298.8380, 5067.000
300.0480, 5088.000
301.2580, 5139.000
302.4680, 5040.000
303.6770, 5053.000
304.8870, 5064.000
306.0960, 5053.000
307.3050, 5102.000
308.5140, 5019.000
309.7230, 5023.000
310.9310, 5109.000
312.1400, 5068.000
313.3480, 5110.000
314.5560, 5123.000
315.7640, 5077.000
316.9720, 5026.000
318.1790, 5190.000
319.3870, 5169.000
320.5940, 5218.000
321.8010, 5131.000
323.0080, 5110.000
324.2150, 5064.000
325.4210, 5104.000
326.6280, 5003.000
327.8340, 5056.000
329.0400, 4906.000
330.2460, 4876.000
331.4510, 4798.000
332.6570, 4848.000
333.8620, 4923.000
335.0680, 4800.000
336.2730, 4762.000
337.4780, 4829.000
338.6820, 4727.000
339.8870, 4783.000
341.0910, 4781.000
342.2950, 4840.000
343.5000, 4815.000
344.7030, 4938.000
345.9070, 4992.000
347.1110, 4998.000
348.3140, 5010.000
349.5170, 5142.000
350.7200, 5064.000
351.9230, 5092.000
353.1260, 5080.000
354.3290, 4957.000
355.5310, 4963.000
356.7330, 4929.000
357.9350, 4879.000
359.1370, 4843.000
360.3390, 4762.000
361.5400, 4728.000
362.7420, 4574.000
363.9430, 4516.000
365.1440, 4492.000
366.3450, 4416.000
367.5460, 4395.329
368.7460, 4371.000
369.9470, 4342.000
371.1470, 4321.000
372.3470, 4301.330
373.5470, 4308.000
374.7460, 4323.000
375.9460, 4319.304
377.1450, 4344.173
378.3450, 4347.000
379.5440, 4380.000
380.7430, 4426.000
381.9410, 4428.527
383.1400, 4493.000
384.3380, 4499.000
385.5370, 4525.000
386.7350, 4538.000
387.9320, 4504.189
389.1300, 4436.000
390.3280, 4414.000
391.5250, 4291.000
392.7220, 4215.000
393.9190, 4175.000
395.1160, 4220.000
396.3130, 4124.000
397.5100, 4058.000
398.7060, 3967.000
399.9020, 3836.000
401.0980, 3845.000
402.2940, 3725.000
403.4900, 3775.000
404.6860, 3658.000
405.8810, 3678.000
407.0760, 3685.000
408.2710, 3679.000
409.4660, 3753.000
410.6610, 3771.000
411.8550, 3739.000
413.0500, 3781.000
414.2440, 3722.000
415.4380, 3865.000
416.6320, 3820.000
417.8260, 3912.000
419.0190, 3952.000
420.2130, 4001.000
421.4060, 4028.267
422.5990, 4083.000
423.7920, 4041.000
424.9850, 4067.310
426.1770, 4052.271
427.3700, 4069.000
428.5620, 4005.000
429.7540, 3972.000
430.9460, 4022.000
432.1380, 4003.000
433.3290, 4027.814
434.5210, 4047.321
435.7120, 4076.000
436.9030, 4070.000
438.0940, 4093.000
439.2850, 4078.000
440.4750, 4075.000
441.6660, 4163.000
442.8560, 4128.000
444.0460, 4239.000
445.2360, 4237.000
446.4260, 4347.000
447.6160, 4425.000
448.8050, 4483.000
449.9940, 4534.000
451.1830, 4535.000
452.3720, 4613.000
453.5610, 4557.000
454.7500, 4706.000
455.9380, 4732.000
457.1260, 4724.000
458.3150, 4803.000
459.5020, 4848.000
460.6900, 4847.000
461.8780, 4929.000
463.0650, 4909.000
464.2530, 5070.000
465.4400, 5204.000
466.6270, 4994.000
467.8130, 4997.000
469.0000, 5126.000
470.1870, 5270.000
471.3730, 5276.000
472.5590, 5373.000
473.7450, 5401.000
474.9310, 5596.000
476.1160, 5610.000
477.3020, 5678.000
478.4870, 5786.000
479.6720, 5837.000
480.8570, 6077.000
482.0420, 6039.000
483.2270, 6250.000
484.4110, 6261.000
485.5960, 6379.000
486.7800, 6336.000
487.9640, 6492.000
489.1480, 6466.000
490.3310, 6513.000
491.5150, 6516.000
492.6980, 6493.000
493.8810, 6503.000
495.0640, 6579.000
496.2470, 6518.000
497.4300, 6640.000
498.6120, 6579.000
499.7950, 6538.000
500.9770, 6703.000
502.1590, 6669.000
503.3410, 6601.000
504.5220, 6480.000
505.7040, 6484.000
506.8850, 6456.000
508.0660, 6371.000
509.2470, 6386.000
510.4280, 6301.000
511.6090, 6202.000
512.7890, 6189.000
513.9700, 6187.000
515.1500, 6326.000
516.3300, 6395.000
517.5100, 6562.000
518.6900, 6582.000
519.8690, 6795.000
521.0490, 6971.000
522.2280, 7163.000
523.4070, 7391.000
524.5860, 7743.000
525.7640, 7957.000
526.9430, 8374.000
528.1210, 8533.000
529.3000, 8788.000
530.4780, 8872.000
531.6560, 9180.000
532.8330, 9199.000
534.0110, 9187.000
535.1880, 9078.000
536.3650, 8886.000
537.5430, 8735.000
538.7190, 8523.000
539.8960, 8371.000
541.0730, 8179.000
542.2490, 8236.000
543.4250, 8108.000
544.6020, 7934.000
545.7780, 7746.000
546.9530, 7539.000
548.1290, 7224.000
549.3040, 6933.000
550.4800, 6631.000
551.6550, 6303.000
552.8300, 5944.000
554.0040, 5727.000
555.1790, 5651.000
556.3540, 5468.000
557.5280, 5402.000
558.7020, 5393.000
559.8760, 5269.000
561.0500, 5293.000
562.2230, 5138.000
563.3970, 5288.000
564.5700, 5208.000
565.7430, 5224.000
566.9160, 5168.000
568.0890, 5157.000
569.2620, 5149.000
570.4340, 5168.000
571.6070, 5203.000
572.7790, 5092.000
573.9510, 5108.920
575.1230, 4961.000
576.2940, 5050.000
577.4660, 5025.000
578.6370, 5016.000
579.8080, 5053.000
580.9790, 4965.000
582.1500, 5050.000
583.3210, 5139.000
584.4910, 4999.000
585.6620, 4980.000
586.8320, 4957.000
588.0020, 4776.000
589.1720, 4739.000
590.3410, 4625.000
591.5110, 4580.000
592.6800, 4569.000
593.8500, 4607.000
595.0190, 4596.000
596.1880, 4651.771
597.3560, 4729.000
598.5250, 4797.000
599.6930, 4808.000
600.8620, 4947.000
602.0300, 5086.000
603.1970, 5043.000
604.3650, 5093.000
605.5330, 5001.000
606.7000, 4998.000
607.8680, 4902.000
609.0350, 4881.000
610.2020, 4761.000
611.3680, 4693.000
612.5350, 4598.000
613.7010, 4542.000
614.8680, 4539.000
616.0340, 4382.000
617.2000, 4419.000
618.3660, 4255.000
619.5310, 4254.000
620.6970, 4170.000
621.8620, 4145.000
623.0270, 3969.000
624.1920, 3891.000
625.3570, 4002.000
626.5220, 3860.000
627.6860, 3873.000
628.8500, 3735.000
630.0140, 3668.771
631.1780, 3658.000
632.3420, 3549.000
633.5060, 3584.000
634.6700, 3622.000
635.8330, 3566.000
636.9960, 3561.000
638.1590, 3512.000
639.3220, 3464.000
640.4850, 3517.000
641.6470, 3537.000
642.8100, 3497.000
643.9720, 3558.000
645.1340, 3562.000
646.2960, 3512.000
647.4570, 3487.000
648.6190, 3524.000
649.7800, 3548.000
650.9420, 3506.000
652.1030, 3549.000
653.2640, 3488.000
654.4240, 3628.000
655.5850, 3515.000
656.7450, 3566.000
657.9060, 3515.000
659.0660, 3603.000
660.2260, 3588.000
661.3850, 3646.000
662.5450, 3593.000
663.7040, 3605.000
664.8640, 3724.000
666.0230, 3686.000
667.1820, 3646.000
668.3410, 3772.000
669.4990, 3800.000
670.6580, 3798.000
671.8160, 3782.000
672.9740, 3811.000
674.1320, 3887.000
675.2900, 3897.000
676.4480, 3907.000
677.6050, 3937.000
678.7630, 3915.000
679.9200, 3978.000
681.0770, 3984.000
682.2340, 4003.000
683.3900, 4067.000
684.5470, 4078.000
685.7030, 4192.000
686.8590, 4149.000
688.0150, 4195.000
689.1710, 4294.000
690.3270, 4306.000
691.4830, 4301.000
692.6380, 4331.000
693.7930, 4456.000
694.9480, 4497.000
696.1030, 4633.000
697.2580, 4709.000
698.4130, 4751.000
699.5670, 4794.000
700.7210, 4861.000
701.8750, 4982.000
703.0290, 5076.000
704.1830, 5147.000
705.3370, 5333.000
706.4900, 5449.000
707.6430, 5544.000
708.7970, 5717.000
709.9490, 5915.000
711.1020, 5998.000
712.2550, 6137.000
713.4070, 6388.000
714.5600, 6559.000
715.7120, 6638.000
716.8640, 6859.000
718.0160, 6992.000
719.1670, 7298.000
720.3190, 7470.000
721.4700, 7816.000
722.6210, 7938.000
723.7720, 8166.000
724.9230, 8626.000
726.0740, 8989.000
727.2250, 9305.000
728.3750, 9706.000
729.5250, 10162.00
730.6750, 10601.00
731.8250, 11035.00
732.9750, 11631.00
734.1240, 12080.00
735.2740, 12399.00
736.4230, 12827.00
737.5720, 13605.00
738.7210, 14203.00
739.8700, 14927.60
741.0190, 15868.00
742.1670, 16799.57
743.3150, 17890.00
744.4630, 19119.00
745.6110, 20426.00
746.7590, 21947.00
747.9070, 23191.00
749.0540, 24608.00
750.2020, 25714.00
751.3490, 26924.00
752.4960, 27367.00
753.6430, 27784.00
754.7890, 27848.00
755.9360, 27621.00
757.0820, 26986.00
758.2280, 26340.00
759.3740, 24841.00
760.5200, 23627.00
761.6660, 22297.00
762.8120, 20702.00
763.9570, 19501.00
765.1020, 17837.00
766.2470, 16455.00
767.3920, 15193.00
768.5370, 14075.00
769.6810, 13084.23
770.8260, 12219.98
771.9700, 11514.00
773.1140, 10934.00
774.2580, 10507.00
775.4020, 10293.00
776.5460, 10073.00
777.6890, 9934.000
778.8320, 10124.00
779.9750, 10063.00
781.1180, 10087.00
782.2610, 10112.00
783.4040, 9838.000
784.5460, 9749.000
785.6890, 9401.000
786.8310, 9013.000
787.9730, 8471.000
789.1150, 8169.000
790.2560, 7823.000
791.3980, 7517.000
792.5390, 7290.000
793.6810, 7025.000
794.8220, 6785.000
795.9630, 6571.000
797.1030, 6381.000
798.2440, 6288.000
799.3840, 6080.000
800.5240, 6186.000
801.6650, 6207.000
802.8040, 6108.000
803.9440, 6148.000
805.0840, 6233.000
806.2230, 6331.000
807.3630, 6392.000
808.5020, 6445.000
809.6410, 6600.427
810.7790, 6774.000
811.9180, 6917.000
813.0570, 7154.000
814.1950, 7447.839
815.3330, 7677.000
816.4710, 8155.000
817.6090, 8536.000
818.7470, 8962.000
819.8840, 9632.000
821.0220, 10503.00
822.1590, 11331.00
823.2960, 12397.00
824.4330, 13787.00
825.5690, 15197.00
826.7060, 17120.00
827.8420, 19350.00
828.9790, 21873.00
830.1150, 25253.00
831.2510, 28571.00
832.3860, 32885.00
833.5220, 36184.00
834.6570, 38873.00
835.7930, 40896.00
836.9280, 41655.00
838.0630, 42001.00
839.1980, 42161.00
840.3320, 42495.00
841.4670, 42767.00
842.6010, 42912.00
843.7350, 42168.00
844.8690, 39727.00
846.0030, 36945.00
847.1370, 33421.00
848.2700, 30072.00
849.4040, 27249.00
850.5370, 25159.00
851.6700, 23741.00
852.8030, 22825.00
853.9360, 22165.00
855.0680, 22350.00
856.2000, 22818.00
857.3330, 23775.00
858.4650, 24849.00
859.5970, 26339.00
860.7290, 27024.00
861.8600, 27560.00
862.9920, 26883.00
864.1230, 25686.00
865.2540, 24006.00
866.3850, 22196.00
867.5160, 20019.00
868.6460, 18126.00
869.7770, 16515.00
870.9070, 14898.00
872.0370, 13684.00
873.1670, 12735.00
874.2970, 12095.00
875.4270, 11532.00
876.5570, 11018.00
877.6860, 10728.00
878.8150, 10219.00
879.9440, 9711.000
881.0730, 9547.000
882.2020, 8951.000
883.3300, 8508.000
884.4590, 8098.000
885.5870, 7821.000
886.7150, 7613.000
887.8430, 7307.000
888.9710, 7169.000
890.0990, 7020.000
891.2260, 6937.000
892.3530, 6745.000
893.4810, 6653.000
894.6080, 6521.675
895.7340, 6466.000
896.8610, 6278.000
897.9880, 6143.000
899.1140, 6025.000
900.2400, 6011.000
901.3660, 6002.000
902.4920, 5987.000
903.6180, 5960.000
904.7430, 5956.000
905.8690, 6068.000
906.9940, 5993.000
908.1190, 6088.000
909.2440, 6035.000
910.3690, 5966.000
911.4930, 6242.000
912.6180, 6126.000
913.7420, 6215.000
914.8660, 6235.000
915.9900, 6396.000
917.1140, 6390.000
918.2380, 6353.000
919.3610, 6425.000
920.4850, 6594.000
921.6080, 6552.000
922.7310, 6748.000
923.8540, 6820.000
924.9760, 7131.000
926.0990, 7483.000
927.2210, 7897.000
928.3440, 8595.000
929.4660, 9267.000
930.5880, 10002.00
931.7090, 10487.00
932.8310, 10906.00
933.9520, 10853.00
935.0740, 10266.00
936.1950, 9446.000
937.3160, 8894.000
938.4360, 8583.000
939.5570, 7708.000
940.6780, 7405.000
941.7980, 7137.000
942.9180, 7087.000
944.0380, 6913.000
945.1580, 6860.000
946.2780, 6799.000
947.3970, 6841.000
948.5170, 6910.333
949.6360, 7006.000
950.7550, 7185.000
951.8740, 7348.000
952.9930, 7557.597
954.1110, 7841.619
955.2300, 8289.000
956.3480, 8546.000
957.4660, 9254.000
958.5840, 9815.000
959.7020, 10805.00
960.8190, 11543.00
961.9370, 12690.00
963.0540, 13447.00
964.1710, 14252.00
965.2880, 14434.00
966.4050, 14060.00
967.5220, 13417.00
968.6380, 12375.00
969.7550, 11450.00
970.8710, 10304.00
971.9870, 9474.000
973.1030, 8791.000
974.2190, 8153.000
975.3340, 7755.000
976.4500, 7363.000
977.5650, 7054.000
978.6800, 6980.000
979.7950, 6817.000
980.9100, 6660.000
982.0250, 6547.000
983.1390, 6442.000
984.2530, 6331.000
985.3680, 6388.000
986.4820, 6354.000
987.5950, 6226.000
988.7090, 6185.000
989.8230, 6087.000
990.9360, 6103.000
992.0490, 6070.000
993.1620, 6053.000
994.2750, 6130.000
995.3880, 6016.000
996.5010, 6003.000
997.6130, 6087.000
998.7250, 6054.000
999.8370, 6010.000
1000.949, 6105.000
1002.061, 6065.000
1003.173, 5952.000
1004.284, 5981.000
1005.396, 6009.000
1006.507, 5950.000
1007.618, 5972.000
1008.729, 5995.000
1009.839, 5920.000
1010.950, 5985.000
1012.060, 5921.000
1013.171, 5957.000
1014.281, 5878.000
1015.391, 5808.000
1016.500, 5845.000
1017.610, 5795.000
1018.719, 5694.000
1019.829, 5729.000
1020.938, 5707.000
1022.047, 5529.000
1023.156, 5613.000
1024.264, 5579.000
1025.373, 5526.000
1026.481, 5520.000
1027.589, 5492.000
1028.697, 5421.000
1029.805, 5348.000
1030.913, 5403.000
1032.020, 5279.000
1033.128, 5407.000
1034.235, 5300.000
1035.342, 5282.000
1036.449, 5230.000
1037.556, 5209.000
1038.663, 5283.000
1039.769, 5183.000
1040.875, 5189.000
1041.981, 5110.000
1043.087, 5117.000
1044.193, 5082.000
1045.299, 5034.000
1046.404, 5023.000
1047.510, 4932.000
1048.615, 4907.000
1049.720, 4848.000
1050.825, 4926.000
1051.930, 4980.000
1053.034, 4851.000
1054.139, 4877.000
1055.243, 4793.000
1056.347, 4788.000
1057.451, 4818.000
1058.555, 4851.000
1059.658, 4770.000
1060.762, 4762.000
1061.865, 4786.000
1062.968, 4758.000
1064.071, 4771.000
1065.174, 4710.000
1066.277, 4646.000
1067.380, 4641.000
1068.482, 4610.000
1069.584, 4670.000
1070.686, 4668.000
1071.788, 4688.127
1072.890, 4704.019
1073.992, 4704.000
1075.093, 4671.000
1076.194, 4612.000
1077.295, 4495.000
1078.396, 4666.000
1079.497, 4538.000
1080.598, 4511.000
1081.698, 4579.000
1082.799, 4463.000
1083.899, 4514.000
1084.999, 4505.000
1086.099, 4514.000
1087.199, 4623.000
1088.298, 4504.000
1089.398, 4522.000
1090.497, 4567.000
1091.596, 4486.000
1092.695, 4532.000
1093.794, 4517.000
1094.892, 4557.000
1095.991, 4473.000
1097.089, 4448.000
1098.187, 4491.000
1099.285, 4480.951
1100.383, 4529.882
1101.481, 4563.000
1102.579, 4509.000
1103.676, 4561.000
1104.773, 4510.730
1105.870, 4441.000
1106.967, 4477.000
1108.064, 4348.000
1109.161, 4421.000
1110.257, 4406.000
1111.353, 4427.000
1112.449, 4470.000
1113.545, 4393.000
1114.641, 4379.000
1115.737, 4377.000
1116.832, 4458.000
1117.928, 4391.000
1119.023, 4487.000
1120.118, 4345.000
1121.213, 4401.000
1122.308, 4446.000
1123.402, 4397.000
1124.497, 4357.000
1125.591, 4466.000
1126.685, 4371.000
1127.779, 4389.000
1128.873, 4374.000
1129.967, 4405.000
1131.060, 4322.000
1132.153, 4365.000
1133.247, 4433.000
1134.340, 4263.000
1135.433, 4449.000
1136.525, 4390.000
1137.618, 4361.000
1138.710, 4375.000
1139.802, 4425.000
1140.895, 4387.000
1141.987, 4394.435
1143.078, 4406.000
1144.170, 4362.000
1145.261, 4348.000
1146.353, 4342.000
1147.444, 4394.000
1148.535, 4388.092
1149.626, 4297.000
1150.716, 4460.000
1151.807, 4255.000
1152.897, 4348.000
1153.988, 4324.000
1155.078, 4332.000
1156.168, 4325.000
1157.257, 4290.000
1158.347, 4361.000
1159.436, 4300.000
1160.526, 4301.000
1161.615, 4349.000
1162.704, 4375.000
1163.793, 4322.000
1164.881, 4417.000
1165.970, 4364.000
1167.058, 4334.000
1168.147, 4312.000
1169.235, 4391.000
1170.323, 4372.000
1171.410, 4441.000
1172.498, 4349.000
1173.585, 4448.000
1174.673, 4429.000
1175.760, 4461.000
1176.847, 4492.000
1177.934, 4525.000
1179.020, 4506.000
1180.107, 4476.000
1181.193, 4550.000
1182.279, 4620.000
1183.365, 4578.000
1184.451, 4558.000
1185.537, 4589.000
1186.623, 4507.761
1187.708, 4634.536
1188.793, 4715.468
1189.878, 4753.023
1190.963, 4617.270
1192.048, 4705.305
1193.133, 4703.659
1194.217, 4698.312
1195.302, 4817.845
1196.386, 4707.279
1197.470, 4824.811
1198.554, 4851.291
1199.638, 4919.442
1200.721, 4897.336
1201.805, 4903.125
1202.888, 4999.155
1203.971, 5045.206
1205.054, 5012.712
1206.137, 5095.000
1207.219, 5088.000
1208.302, 5056.000
1209.384, 5161.000
1210.466, 4994.000
1211.548, 5097.000
1212.630, 5123.000
1213.712, 5162.000
1214.794, 5219.000
1215.875, 5186.000
1216.956, 5269.000
1218.037, 5188.000
1219.118, 5201.000
1220.199, 5381.000
1221.280, 5355.000
1222.360, 5318.000
1223.441, 5405.000
1224.521, 5441.000
1225.601, 5365.000
1226.681, 5419.000
1227.760, 5450.000
1228.840, 5518.000
1229.919, 5448.000
1230.999, 5512.000
1232.078, 5462.000
1233.157, 5535.000
1234.236, 5535.000
1235.314, 5582.000
1236.393, 5524.000
1237.471, 5650.000
1238.549, 5610.000
1239.627, 5711.000
1240.705, 5693.000
1241.783, 5617.000
1242.860, 5705.000
1243.938, 5656.000
1245.015, 5711.000
1246.092, 5697.000
1247.169, 5702.000
1248.246, 5687.000
1249.323, 5676.000
1250.399, 5714.000
1251.475, 5685.000
1252.552, 5691.000
1253.628, 5696.000
1254.703, 5600.000
1255.779, 5648.000
1256.855, 5749.000
1257.930, 5629.000
1259.005, 5677.000
1260.080, 5764.000
1261.155, 5696.000
1262.230, 5643.000
1263.305, 5649.000
1264.379, 5670.000
1265.454, 5610.000
1266.528, 5706.000
1267.602, 5787.000
1268.676, 5753.000
1269.750, 5627.000
1270.823, 5587.000
1271.897, 5553.000
1272.970, 5573.619
1274.043, 5722.000
1275.116, 5665.000
1276.189, 5737.000
1277.261, 5726.000
1278.334, 5758.000
1279.406, 5734.000
1280.478, 5675.000
1281.550, 5757.000
1282.622, 5839.000
1283.694, 5799.000
1284.766, 5721.000
1285.837, 5814.000
1286.908, 5660.000
1287.979, 5679.000
1289.050, 5695.000
1290.121, 5653.000
1291.192, 5522.000
1292.262, 5459.000
1293.333, 5575.000
1294.403, 5417.000
1295.473, 5421.000
1296.543, 5270.000
1297.613, 5232.000
1298.682, 5280.000
1299.752, 5162.000
1300.821, 5148.000
1301.890, 5120.000
1302.959, 5038.000
1304.028, 5010.000
1305.096, 4964.000
1306.165, 4861.000
1307.233, 4795.000
1308.301, 4789.000
1309.370, 4765.000
1310.437, 4785.000
1311.505, 4748.000
1312.573, 4747.203
1313.640, 4706.000
1314.708, 4727.000
1315.775, 4648.000
1316.842, 4631.000
1317.908, 4666.000
1318.975, 4583.000
1320.042, 4681.000
1321.108, 4524.000
1322.174, 4531.000
1323.240, 4521.000
1324.306, 4555.000
1325.372, 4496.000
1326.438, 4567.000
1327.503, 4455.000
1328.568, 4532.000
1329.634, 4597.000
1330.699, 4543.000
1331.763, 4533.000
1332.828, 4507.000
1333.893, 4511.000
1334.957, 4535.000
1336.021, 4545.000
1337.085, 4570.000
1338.149, 4550.687
1339.213, 4529.641
1340.277, 4504.000
1341.340, 4476.000
1342.404, 4447.000
1343.467, 4470.000
1344.530, 4603.000
1345.593, 4527.000
1346.655, 4595.000
1347.718, 4519.000
1348.780, 4550.000
1349.843, 4606.000
1350.905, 4627.000
1351.967, 4614.000
1353.028, 4603.000
1354.090, 4558.000
1355.152, 4648.000
1356.213, 4548.000
1357.274, 4598.000
1358.335, 4590.000
1359.396, 4565.000
1360.457, 4568.000
1361.517, 4628.000
1362.578, 4604.000
1363.638, 4638.000
1364.698, 4669.000
1365.758, 4644.000
1366.818, 4611.000
1367.878, 4604.000
1368.937, 4627.000
1369.997, 4621.000
1371.056, 4608.000
1372.115, 4614.000
1373.174, 4605.000
1374.232, 4594.660
1375.291, 4554.883
1376.350, 4596.987
1377.408, 4617.525
1378.466, 4617.649
1379.524, 4536.217
1380.582, 4560.097
1381.640, 4541.773
1382.697, 4521.726
1383.754, 4560.435
1384.812, 4490.865
1385.869, 4528.643
1386.926, 4523.572
1387.983, 4538.112
1389.039, 4510.195
1390.096, 4495.386
1391.152, 4523.062
1392.208, 4527.218
1393.264, 4494.411
1394.320, 4510.205
1395.376, 4510.000
1396.431, 4492.000
1397.487, 4489.000
1398.542, 4528.000
1399.597, 4492.000
1400.652, 4439.000
1401.707, 4572.000
1402.762, 4442.000
1403.816, 4486.000
1404.871, 4482.000
1405.925, 4449.000
1406.979, 4614.000
1408.033, 4599.000
1409.086, 4526.000
1410.140, 4574.000
1411.194, 4508.000
1412.247, 4563.000
1413.300, 4494.000
1414.353, 4547.000
1415.406, 4490.000
1416.458, 4599.000
1417.511, 4606.000
1418.563, 4554.000
1419.616, 4565.000
1420.668, 4522.000
1421.720, 4624.000
1422.772, 4607.000
1423.823, 4710.000
1424.875, 4592.000
1425.926, 4616.000
1426.977, 4709.000
1428.028, 4606.000
1429.079, 4693.000
1430.130, 4752.000
1431.180, 4715.000
1432.231, 4771.000
1433.281, 4686.000
1434.331, 4722.000
1435.381, 4775.000
1436.431, 4848.000
1437.481, 4800.000
1438.530, 4805.000
1439.580, 4823.000
1440.629, 4789.000
1441.678, 4897.000
1442.727, 4849.000
1443.776, 4812.000
1444.824, 4820.000
1445.873, 4927.000
1446.921, 4941.000
1447.969, 4944.000
1449.017, 4993.000
1450.065, 4964.000
1451.113, 5012.000
1452.160, 5063.000
1453.208, 5165.000
1454.255, 5178.000
1455.302, 5208.855
1456.349, 5174.000
1457.396, 5201.000
1458.443, 5291.000
1459.489, 5252.000
1460.535, 5343.000
1461.582, 5327.000
1462.628, 5326.000
1463.674, 5351.000
1464.719, 5426.000
1465.765, 5424.000
1466.810, 5539.000
1467.856, 5465.000
1468.901, 5492.000
1469.946, 5595.000
1470.991, 5645.000
1472.035, 5673.000
1473.080, 5650.000
1474.124, 5699.000
1475.169, 5747.081
1476.213, 5759.000
1477.257, 5866.000
1478.300, 5976.000
1479.344, 6008.000
1480.388, 6071.000
1481.431, 6167.000
1482.474, 6218.000
1483.517, 6279.000
1484.560, 6288.000
1485.603, 6308.000
1486.645, 6288.000
1487.688, 6429.000
1488.730, 6501.000
1489.772, 6573.000
1490.814, 6505.000
1491.856, 6809.000
1492.898, 6627.000
1493.939, 6885.000
1494.981, 6728.000
1496.022, 6873.000
1497.063, 6876.000
1498.104, 6957.000
1499.145, 6958.000
1500.186, 6853.000
1501.226, 6884.000
1502.266, 6936.000
1503.307, 6987.000
1504.347, 6891.000
1505.387, 6754.000
1506.426, 6753.000
1507.466, 6684.000
1508.505, 6558.000
1509.545, 6576.000
1510.584, 6553.000
1511.623, 6509.000
1512.662, 6380.000
1513.700, 6276.000
1514.739, 6209.000
1515.777, 6153.000
1516.815, 6076.000
1517.854, 6006.000
1518.892, 5796.000
1519.929, 5861.000
1520.967, 5644.000
1522.004, 5576.000
1523.042, 5586.000
1524.079, 5550.000
1525.116, 5483.891
1526.153, 5436.000
1527.190, 5326.000
1528.226, 5237.000
1529.263, 5104.000
1530.299, 5113.000
1531.335, 5004.000
1532.371, 5084.000
1533.407, 4973.000
1534.443, 4859.000
1535.478, 4872.000
1536.514, 4879.000
1537.549, 4900.000
1538.584, 4780.000
1539.619, 4776.000
1540.654, 4706.000
1541.689, 4711.000
1542.723, 4716.000
1543.757, 4676.000
1544.792, 4634.000
1545.826, 4700.000
1546.860, 4626.000
1547.893, 4618.000
1548.927, 4667.000
1549.960, 4685.000
1550.994, 4618.000
1552.027, 4671.000
1553.060, 4715.000
1554.093, 4789.000
1555.126, 4800.000
1556.158, 4796.000
1557.191, 4666.000
1558.223, 4606.000
1559.255, 4686.000
1560.287, 4713.000
1561.319, 4682.000
1562.350, 4769.000
1563.382, 4661.000
1564.413, 4769.000
1565.444, 4742.000
1566.476, 4701.000
1567.506, 4711.000
1568.537, 4801.000
1569.568, 4688.000
1570.598, 4805.000
1571.629, 4751.000
1572.659, 4819.000
1573.689, 4730.000
1574.719, 4749.000
1575.749, 4780.000
1576.778, 4831.000
1577.808, 4924.000
##END=



