##NAMES=Humite
##RRUFFID=R050665
##IDEAL CHEMISTRY=Mg_7_(SiO_4_)_3_(F,OH)_2_
##LOCALITY=Tilly Foster mine, Brewster, Putnam County, New York, USA
##OWNER=RRUFF
##SOURCE=University of Arizona Mineral Museum
##DESCRIPTION=Granular aggregate of reddish-orange crystals
##STATUS=The identification of this mineral has been confirmed by X-ray diffraction and chemical analysis
##URL=rruff.info/R050665
##MEASURED CHEMISTRY=(Mg_0.91_Fe^2+^_0.09_)_7_(Si_1.00_O_4_)_3_(F_0.56_(OH)_0.44_)_2_
##PIN_ID=M01318
##ORIENTATION=Laser parallel to c* (0 0 1). Fiducial mark perpendicular to laser is parallel to -a [-1 0 0]
159.3390, 2255.000
160.5690, 2296.000
161.8000, 2240.000
163.0300, 2379.000
164.2600, 2363.000
165.4900, 2326.000
166.7200, 2310.000
167.9500, 2288.000
169.1790, 2318.000
170.4080, 2303.190
171.6380, 2341.000
172.8670, 2300.000
174.0950, 2324.000
175.3240, 2303.000
176.5520, 2374.000
177.7810, 2323.000
179.0090, 2381.000
180.2370, 2358.000
181.4640, 2455.000
182.6920, 2395.000
183.9190, 2454.000
185.1460, 2377.000
186.3730, 2485.000
187.6000, 2458.000
188.8270, 2476.000
190.0530, 2587.000
191.2800, 2514.000
192.5060, 2557.000
193.7320, 2584.000
194.9580, 2607.000
196.1830, 2635.000
197.4090, 2605.000
198.6340, 2560.000
199.8590, 2599.000
201.0840, 2603.000
202.3090, 2627.000
203.5340, 2623.000
204.7580, 2559.000
205.9820, 2562.000
207.2060, 2486.000
208.4300, 2539.000
209.6540, 2519.000
210.8780, 2528.000
212.1010, 2517.000
213.3240, 2498.353
214.5470, 2547.000
215.7700, 2491.000
216.9930, 2510.000
218.2150, 2579.000
219.4380, 2591.000
220.6600, 2658.000
221.8820, 2550.000
223.1040, 2591.000
224.3260, 2575.000
225.5470, 2587.000
226.7680, 2627.000
227.9900, 2648.000
229.2110, 2601.000
230.4310, 2643.000
231.6520, 2639.000
232.8720, 2659.000
234.0930, 2676.000
235.3130, 2712.000
236.5330, 2704.778
237.7530, 2664.000
238.9720, 2690.000
240.1920, 2719.000
241.4110, 2701.000
242.6300, 2751.000
243.8490, 2800.000
245.0680, 2712.000
246.2860, 2741.000
247.5040, 2731.000
248.7230, 2703.173
249.9410, 2667.000
251.1590, 2707.000
252.3760, 2710.000
253.5940, 2766.000
254.8110, 2755.144
256.0280, 2681.000
257.2450, 2746.000
258.4620, 2735.000
259.6790, 2733.195
260.8950, 2881.000
262.1120, 2743.000
263.3280, 2672.000
264.5440, 2762.000
265.7600, 2686.000
266.9750, 2759.000
268.1910, 2666.000
269.4060, 2635.000
270.6210, 2658.000
271.8360, 2613.000
273.0510, 2673.000
274.2650, 2620.000
275.4800, 2667.000
276.6940, 2624.108
277.9080, 2702.620
279.1220, 2746.078
280.3360, 2756.366
281.5490, 2634.139
282.7630, 2683.028
283.9760, 2663.343
285.1890, 2640.845
286.4020, 2713.820
287.6150, 2610.866
288.8270, 2682.329
290.0400, 2684.167
291.2520, 2670.000
292.4640, 2692.000
293.6760, 2671.000
294.8870, 2643.000
296.0990, 2654.000
297.3100, 2643.000
298.5210, 2658.000
299.7320, 2665.000
300.9430, 2610.000
302.1540, 2693.000
303.3640, 2736.000
304.5750, 2704.000
305.7850, 2746.000
306.9950, 2707.000
308.2050, 2772.000
309.4140, 2810.000
310.6240, 2800.000
311.8330, 2797.000
313.0420, 2864.000
314.2510, 2892.000
315.4600, 2874.000
316.6680, 2972.000
317.8770, 2933.000
319.0850, 2954.000
320.2930, 2949.000
321.5010, 2992.000
322.7090, 2991.000
323.9160, 2945.000
325.1240, 2994.000
326.3310, 2917.000
327.5380, 2969.000
328.7450, 2936.000
329.9520, 2933.000
331.1580, 2937.000
332.3650, 2837.000
333.5710, 2923.000
334.7770, 2844.000
335.9830, 2799.000
337.1880, 2860.000
338.3940, 2861.000
339.5990, 2857.000
340.8040, 2867.000
342.0090, 2861.000
343.2140, 2877.000
344.4190, 2891.000
345.6230, 2842.000
346.8280, 2788.000
348.0320, 2767.000
349.2360, 2775.000
350.4400, 2761.024
351.6430, 2763.828
352.8470, 2784.000
354.0500, 2773.000
355.2530, 2795.000
356.4560, 2805.000
357.6590, 2780.487
358.8620, 2750.000
360.0640, 2736.000
361.2660, 2717.000
362.4680, 2702.000
363.6700, 2696.000
364.8720, 2692.446
366.0740, 2637.000
367.2750, 2703.000
368.4760, 2671.000
369.6770, 2685.000
370.8780, 2630.000
372.0790, 2670.000
373.2800, 2638.000
374.4800, 2627.000
375.6800, 2647.000
376.8800, 2700.000
378.0800, 2675.000
379.2800, 2685.000
380.4790, 2718.000
381.6790, 2719.000
382.8780, 2746.000
384.0770, 2768.000
385.2760, 2702.000
386.4750, 2749.000
387.6730, 2762.000
388.8720, 2729.000
390.0700, 2751.000
391.2680, 2737.000
392.4660, 2690.000
393.6630, 2648.000
394.8610, 2643.000
396.0580, 2596.000
397.2550, 2689.000
398.4520, 2664.000
399.6490, 2605.000
400.8460, 2628.000
402.0420, 2575.000
403.2390, 2578.000
404.4350, 2602.000
405.6310, 2648.000
406.8270, 2671.000
408.0220, 2635.000
409.2180, 2719.000
410.4130, 2649.000
411.6080, 2633.000
412.8030, 2655.000
413.9980, 2757.000
415.1920, 2757.000
416.3870, 2772.000
417.5810, 2780.000
418.7750, 2766.000
419.9690, 2903.000
421.1630, 2966.000
422.3570, 2973.000
423.5500, 2959.000
424.7430, 2976.000
425.9360, 3114.000
427.1290, 3086.000
428.3220, 3033.000
429.5150, 3171.000
430.7070, 3076.106
431.8990, 2949.000
433.0910, 2997.000
434.2830, 2910.000
435.4750, 2859.000
436.6670, 2896.000
437.8580, 2839.000
439.0490, 2844.000
440.2400, 2852.000
441.4310, 2849.000
442.6220, 2900.000
443.8130, 2835.000
445.0030, 2918.000
446.1930, 2983.000
447.3830, 2979.000
448.5730, 2937.000
449.7630, 2957.000
450.9520, 2957.000
452.1420, 2914.000
453.3310, 2948.000
454.5200, 2920.000
455.7090, 2932.330
456.8980, 2978.000
458.0860, 2948.000
459.2740, 2988.000
460.4630, 2979.000
461.6510, 2994.000
462.8380, 2994.000
464.0260, 2949.000
465.2140, 2979.000
466.4010, 3043.000
467.5880, 3007.000
468.7750, 3028.000
469.9620, 3068.000
471.1490, 2996.000
472.3350, 3056.000
473.5220, 3046.000
474.7080, 3032.000
475.8940, 3032.000
477.0800, 3041.000
478.2650, 3071.000
479.4510, 3077.000
480.6360, 3115.000
481.8210, 3131.000
483.0060, 3186.000
484.1910, 3156.000
485.3760, 3215.000
486.5600, 3121.000
487.7440, 3187.000
488.9290, 3185.000
490.1130, 3197.000
491.2960, 3216.000
492.4800, 3169.000
493.6630, 3252.000
494.8470, 3189.000
496.0300, 3205.000
497.2130, 3174.000
498.3960, 3204.000
499.5780, 3264.000
500.7610, 3190.000
501.9430, 3236.000
503.1250, 3182.000
504.3070, 3167.000
505.4890, 3138.000
506.6710, 3179.000
507.8520, 3185.000
509.0330, 3096.000
510.2140, 3140.000
511.3950, 3126.000
512.5760, 3134.000
513.7570, 3180.000
514.9370, 3207.000
516.1170, 3191.000
517.2980, 3230.000
518.4780, 3193.000
519.6570, 3238.000
520.8370, 3214.000
522.0160, 3315.000
523.1960, 3341.000
524.3750, 3392.000
525.5540, 3406.000
526.7320, 3455.000
527.9110, 3494.000
529.0890, 3575.000
530.2680, 3587.000
531.4460, 3559.000
532.6240, 3652.000
533.8010, 3590.000
534.9790, 3590.000
536.1560, 3578.000
537.3340, 3575.000
538.5110, 3549.000
539.6880, 3552.000
540.8650, 3512.000
542.0410, 3478.000
543.2180, 3526.000
544.3940, 3396.000
545.5700, 3443.000
546.7460, 3391.000
547.9220, 3378.000
549.0970, 3394.000
550.2730, 3296.000
551.4480, 3269.000
552.6230, 3317.000
553.7980, 3320.000
554.9730, 3286.000
556.1470, 3258.000
557.3210, 3235.000
558.4960, 3314.000
559.6700, 3367.000
560.8440, 3313.000
562.0170, 3291.000
563.1910, 3274.000
564.3640, 3262.646
565.5380, 3291.000
566.7110, 3276.000
567.8840, 3308.000
569.0560, 3335.000
570.2290, 3249.000
571.4010, 3329.000
572.5740, 3305.000
573.7460, 3365.000
574.9180, 3363.000
576.0890, 3415.000
577.2610, 3473.000
578.4320, 3490.000
579.6040, 3522.000
580.7750, 3556.000
581.9450, 3546.000
583.1160, 3689.000
584.2870, 3612.000
585.4570, 3705.000
586.6270, 3688.000
587.7980, 3661.000
588.9670, 3755.000
590.1370, 3784.000
591.3070, 3833.000
592.4760, 3936.000
593.6450, 4023.000
594.8140, 4214.000
595.9830, 4370.000
597.1520, 4457.000
598.3210, 4664.000
599.4890, 4712.000
600.6570, 4904.000
601.8250, 5037.000
602.9930, 5055.000
604.1610, 5120.000
605.3290, 5011.000
606.4960, 4867.000
607.6630, 4675.000
608.8300, 4601.000
609.9970, 4375.000
611.1640, 4228.000
612.3300, 4030.000
613.4970, 4017.000
614.6630, 3859.000
615.8290, 3773.000
616.9950, 3662.000
618.1610, 3543.000
619.3260, 3534.000
620.4920, 3437.000
621.6570, 3467.000
622.8220, 3401.000
623.9870, 3352.000
625.1520, 3379.000
626.3160, 3352.000
627.4810, 3360.000
628.6450, 3314.928
629.8090, 3246.000
630.9730, 3228.000
632.1370, 3142.000
633.3000, 3134.000
634.4640, 3190.000
635.6270, 3083.000
636.7900, 3155.000
637.9530, 3063.000
639.1160, 3048.000
640.2780, 3108.000
641.4410, 3088.000
642.6030, 3108.000
643.7650, 3140.000
644.9270, 3094.000
646.0890, 3140.000
647.2500, 3151.000
648.4120, 3169.000
649.5730, 3090.000
650.7340, 3116.000
651.8950, 3204.000
653.0560, 3107.000
654.2160, 3013.000
655.3770, 3131.000
656.5370, 3103.000
657.6970, 3047.000
658.8570, 3072.000
660.0170, 3070.000
661.1760, 3125.000
662.3360, 3117.000
663.4950, 3164.000
664.6540, 3113.000
665.8130, 3070.000
666.9720, 3120.000
668.1310, 3101.000
669.2890, 3145.000
670.4470, 3181.000
671.6050, 3107.000
672.7630, 3097.000
673.9210, 3202.000
675.0790, 3139.000
676.2360, 3126.000
677.3930, 3157.000
678.5510, 3116.000
679.7080, 3154.000
680.8640, 3149.000
682.0210, 3234.000
683.1770, 3204.000
684.3340, 3193.000
685.4900, 3296.000
686.6460, 3221.000
687.8020, 3302.000
688.9570, 3264.000
690.1130, 3299.000
691.2680, 3281.000
692.4230, 3347.000
693.5780, 3317.000
694.7330, 3375.000
695.8880, 3336.000
697.0420, 3430.000
698.1960, 3438.000
699.3510, 3435.000
700.5040, 3513.000
701.6580, 3509.000
702.8120, 3547.000
703.9650, 3596.000
705.1190, 3613.416
706.2720, 3657.000
707.4250, 3691.000
708.5780, 3699.000
709.7300, 3761.000
710.8830, 3791.000
712.0350, 3809.000
713.1870, 3833.000
714.3390, 3949.000
715.4910, 3934.000
716.6430, 4036.000
717.7940, 4077.000
718.9460, 4133.000
720.0970, 4176.000
721.2480, 4327.000
722.3990, 4383.000
723.5500, 4514.000
724.7000, 4521.000
725.8500, 4570.000
727.0010, 4701.000
728.1510, 4829.000
729.3010, 4786.000
730.4500, 4926.000
731.6000, 5018.000
732.7490, 5112.000
733.8980, 5174.000
735.0470, 5323.000
736.1960, 5461.000
737.3450, 5523.000
738.4940, 5726.000
739.6420, 5802.000
740.7900, 5937.000
741.9380, 6123.000
743.0860, 6371.000
744.2340, 6442.000
745.3810, 6860.000
746.5290, 7004.000
747.6760, 7380.000
748.8230, 7651.000
749.9700, 7799.000
751.1170, 7949.000
752.2630, 8190.000
753.4100, 8263.000
754.5560, 8198.000
755.7020, 8303.000
756.8480, 8255.000
757.9940, 8081.000
759.1390, 7853.000
760.2850, 7656.000
761.4300, 7485.000
762.5750, 7236.000
763.7200, 6986.000
764.8650, 6733.000
766.0100, 6572.000
767.1540, 6274.000
768.2980, 6165.000
769.4420, 5951.000
770.5860, 5811.000
771.7300, 5672.000
772.8740, 5618.000
774.0170, 5604.000
775.1610, 5671.000
776.3040, 5654.000
777.4470, 5689.000
778.5900, 5835.000
779.7320, 5781.000
780.8750, 5842.000
782.0170, 5908.000
783.1590, 5899.000
784.3010, 5802.000
785.4430, 5676.000
786.5850, 5587.000
787.7260, 5440.000
788.8680, 5286.000
790.0090, 5182.000
791.1500, 5069.000
792.2910, 4932.000
793.4310, 4932.000
794.5720, 4855.000
795.7120, 4819.000
796.8520, 4727.000
797.9920, 4711.000
799.1320, 4648.000
800.2720, 4588.000
801.4120, 4741.000
802.5510, 4688.000
803.6900, 4680.000
804.8290, 4732.000
805.9680, 4703.000
807.1070, 4903.000
808.2450, 4879.000
809.3840, 4903.000
810.5220, 5101.000
811.6600, 5104.000
812.7980, 5212.000
813.9360, 5316.000
815.0730, 5384.000
816.2110, 5634.000
817.3480, 5752.000
818.4850, 6154.000
819.6220, 6343.000
820.7590, 6741.000
821.8960, 7117.000
823.0320, 7756.000
824.1680, 8310.000
825.3040, 9078.000
826.4400, 9931.000
827.5760, 11046.00
828.7120, 12122.00
829.8470, 13660.00
830.9830, 15175.00
832.1180, 16806.00
833.2530, 18450.00
834.3880, 19671.00
835.5220, 20484.00
836.6570, 20895.00
837.7910, 20896.00
838.9250, 20897.00
840.0590, 20541.00
841.1930, 20132.00
842.3270, 19933.00
843.4600, 19454.00
844.5940, 18618.00
845.7270, 17481.00
846.8600, 16100.00
847.9930, 14686.00
849.1250, 13519.00
850.2580, 12645.00
851.3900, 11716.00
852.5230, 11082.00
853.6550, 10821.00
854.7870, 10620.00
855.9180, 10548.00
857.0500, 10807.00
858.1810, 10898.00
859.3130, 11220.00
860.4440, 11502.00
861.5750, 11648.00
862.7050, 11490.00
863.8360, 11385.00
864.9660, 10962.00
866.0970, 10580.00
867.2270, 10015.00
868.3570, 9380.000
869.4870, 8847.000
870.6160, 8268.000
871.7460, 7804.000
872.8750, 7379.000
874.0040, 7032.000
875.1330, 6728.918
876.2620, 6577.000
877.3910, 6272.000
878.5190, 6053.000
879.6470, 5901.000
880.7760, 5649.000
881.9040, 5596.000
883.0310, 5448.667
884.1590, 5383.000
885.2870, 5282.000
886.4140, 5231.000
887.5410, 5196.000
888.6680, 5040.000
889.7950, 5021.000
890.9220, 5003.000
892.0480, 5088.000
893.1750, 4991.000
894.3010, 5093.000
895.4270, 5002.000
896.5530, 5015.000
897.6790, 4987.000
898.8040, 4962.000
899.9300, 4947.000
901.0550, 4823.000
902.1800, 4850.000
903.3050, 4768.000
904.4300, 4883.000
905.5540, 4742.000
906.6790, 4776.000
907.8030, 4950.000
908.9270, 4888.000
910.0510, 5009.000
911.1750, 5018.000
912.2990, 5103.000
913.4220, 5147.000
914.5450, 5247.000
915.6690, 5281.000
916.7920, 5279.000
917.9140, 5203.000
919.0370, 5266.000
920.1600, 5095.000
921.2820, 4948.000
922.4040, 4905.000
923.5260, 4915.000
924.6480, 4803.000
925.7700, 4816.000
926.8910, 4832.000
928.0130, 4836.000
929.1340, 4976.000
930.2550, 4962.000
931.3760, 4946.000
932.4970, 5144.000
933.6170, 5084.000
934.7380, 5047.000
935.8580, 4962.000
936.9780, 4902.000
938.0980, 4852.000
939.2180, 4926.000
940.3370, 4780.000
941.4570, 4875.000
942.5760, 4815.000
943.6950, 4855.000
944.8140, 4815.000
945.9330, 4915.000
947.0520, 4933.000
948.1700, 4942.000
949.2890, 5037.000
950.4070, 5045.000
951.5250, 5136.000
952.6430, 5304.000
953.7600, 5214.000
954.8780, 5214.000
955.9950, 5326.000
957.1120, 5456.000
958.2290, 5365.000
959.3460, 5665.000
960.4630, 5833.000
961.5800, 5904.000
962.6960, 6235.000
963.8120, 6528.000
964.9280, 6551.000
966.0440, 6606.000
967.1600, 6631.000
968.2760, 6400.000
969.3910, 6315.000
970.5060, 6060.000
971.6210, 5893.000
972.7360, 5695.000
973.8510, 5553.000
974.9660, 5387.000
976.0800, 5302.000
977.1950, 5231.000
978.3090, 5142.000
979.4230, 5141.000
980.5370, 5008.000
981.6500, 4955.000
982.7640, 4948.000
983.8770, 4962.000
984.9900, 4945.000
986.1030, 4963.000
987.2160, 4947.000
988.3290, 4909.000
989.4420, 4818.000
990.5540, 4844.000
991.6660, 4885.000
992.7780, 4833.000
993.8900, 4903.000
995.0020, 4903.000
996.1140, 4923.000
997.2250, 4958.173
998.3360, 5002.000
999.4470, 4989.000
1000.558, 5037.000
1001.669, 5019.000
1002.780, 4943.000
1003.890, 4957.000
1005.001, 4956.000
1006.111, 4990.000
1007.221, 4970.000
1008.331, 4949.000
1009.440, 4938.000
1010.550, 4862.000
1011.659, 4877.000
1012.768, 4854.000
1013.877, 4908.000
1014.986, 4839.000
1016.095, 4865.000
1017.204, 4852.000
1018.312, 4850.000
1019.420, 4865.000
1020.528, 4914.000
1021.636, 4915.000
1022.744, 4914.725
1023.852, 4927.000
1024.959, 4899.000
1026.066, 4852.000
1027.173, 4863.000
1028.280, 4851.000
1029.387, 4877.000
1030.494, 4867.000
1031.600, 4728.000
1032.707, 4852.000
1033.813, 4631.000
1034.919, 4764.000
1036.025, 4784.000
1037.130, 4738.000
1038.236, 4658.000
1039.341, 4785.000
1040.446, 4714.000
1041.552, 4704.000
1042.656, 4706.000
1043.761, 4670.000
1044.866, 4671.000
1045.970, 4682.000
1047.074, 4681.000
1048.179, 4730.000
1049.282, 4621.000
1050.386, 4680.000
1051.490, 4612.000
1052.593, 4552.000
1053.697, 4601.000
1054.800, 4680.000
1055.903, 4562.000
1057.006, 4671.000
1058.108, 4551.000
1059.211, 4559.000
1060.313, 4570.000
1061.415, 4582.000
1062.517, 4606.000
1063.619, 4532.000
1064.721, 4613.000
1065.823, 4628.000
1066.924, 4502.000
1068.025, 4549.000
1069.126, 4575.000
1070.227, 4538.000
1071.328, 4610.000
1072.429, 4551.000
1073.529, 4585.000
1074.629, 4680.000
1075.729, 4504.000
1076.829, 4695.000
1077.929, 4621.000
1079.029, 4612.000
1080.128, 4566.000
1081.228, 4559.090
1082.327, 4562.633
1083.426, 4568.000
1084.525, 4595.000
1085.623, 4615.000
1086.722, 4650.000
1087.820, 4639.760
1088.919, 4690.000
1090.017, 4608.000
1091.115, 4626.000
1092.212, 4591.000
1093.310, 4656.000
1094.407, 4648.000
1095.505, 4639.000
1096.602, 4659.000
1097.699, 4722.000
1098.795, 4618.000
1099.892, 4591.000
1100.989, 4671.000
1102.085, 4659.000
1103.181, 4667.000
1104.277, 4686.985
1105.373, 4673.000
1106.469, 4682.000
1107.564, 4629.000
1108.660, 4608.000
1109.755, 4605.000
1110.850, 4616.013
1111.945, 4679.000
1113.040, 4665.000
1114.134, 4737.000
1115.229, 4731.000
1116.323, 4793.000
1117.417, 4696.000
1118.511, 4736.000
1119.605, 4797.000
1120.698, 4783.000
1121.792, 4818.000
1122.885, 4848.000
1123.978, 4891.000
1125.071, 4758.000
1126.164, 4836.000
1127.257, 4753.000
1128.349, 4721.000
1129.442, 4789.000
1130.534, 4753.000
1131.626, 4690.000
1132.718, 4645.000
1133.810, 4706.000
1134.901, 4670.000
1135.993, 4700.000
1137.084, 4623.000
1138.175, 4679.000
1139.266, 4740.000
1140.357, 4701.000
1141.448, 4665.000
1142.538, 4758.000
1143.628, 4650.000
1144.719, 4704.000
1145.809, 4650.000
1146.898, 4645.000
1147.988, 4782.000
1149.078, 4629.000
1150.167, 4667.000
1151.256, 4771.000
1152.345, 4649.000
1153.434, 4757.000
1154.523, 4772.000
1155.612, 4769.000
1156.700, 4703.000
1157.788, 4829.000
1158.877, 4691.000
1159.964, 4765.000
1161.052, 4774.000
1162.140, 4722.000
1163.227, 4816.000
1164.315, 4842.000
1165.402, 4731.000
1166.489, 4806.000
1167.576, 4804.000
1168.663, 4864.000
1169.749, 4858.000
1170.836, 4840.000
1171.922, 4921.000
1173.008, 4823.000
1174.094, 4840.000
1175.180, 4833.000
1176.265, 4938.000
1177.351, 4879.000
1178.436, 4857.000
1179.521, 4895.000
1180.606, 4892.000
1181.691, 4912.000
1182.776, 4929.810
1183.860, 4912.000
1184.944, 4958.000
1186.029, 4938.000
1187.113, 4944.000
1188.197, 4929.000
1189.280, 4974.000
1190.364, 4920.000
1191.447, 4978.000
1192.531, 4982.000
1193.614, 4933.000
1194.697, 4915.000
1195.779, 4974.000
1196.862, 5019.000
1197.945, 5069.000
1199.027, 5036.000
1200.109, 5013.000
1201.191, 4991.000
1202.273, 4987.393
1203.355, 4989.427
1204.436, 4994.000
1205.518, 5026.000
1206.599, 5035.000
1207.680, 5079.000
1208.761, 5141.000
1209.842, 5075.000
1210.922, 5101.000
1212.003, 5063.000
1213.083, 5096.000
1214.163, 5138.000
1215.243, 5172.000
1216.323, 5129.000
1217.402, 5149.000
1218.482, 5223.000
1219.561, 5142.000
1220.641, 5263.000
1221.720, 5153.000
1222.798, 5243.000
1223.877, 5203.000
1224.956, 5160.000
1226.034, 5205.000
1227.112, 5239.000
1228.191, 5192.000
1229.269, 5219.000
1230.346, 5262.000
1231.424, 5292.000
1232.501, 5263.000
1233.579, 5301.000
1234.656, 5353.000
1235.733, 5270.000
1236.810, 5372.000
1237.886, 5349.000
1238.963, 5335.000
1240.039, 5406.000
1241.116, 5309.000
1242.192, 5350.000
1243.268, 5393.000
1244.343, 5414.000
1245.419, 5395.000
1246.494, 5385.000
1247.570, 5360.000
1248.645, 5330.000
1249.720, 5311.000
1250.795, 5382.000
1251.869, 5352.000
1252.944, 5357.000
1254.018, 5337.000
1255.093, 5329.000
1256.167, 5361.000
1257.240, 5427.000
1258.314, 5365.000
1259.388, 5372.000
1260.461, 5330.000
1261.535, 5480.000
1262.608, 5392.000
1263.681, 5403.000
1264.753, 5336.000
1265.826, 5437.000
1266.899, 5391.000
1267.971, 5461.000
1269.043, 5443.000
1270.115, 5440.000
1271.187, 5471.000
1272.259, 5391.000
1273.330, 5387.000
1274.402, 5379.000
1275.473, 5446.000
1276.544, 5466.000
1277.615, 5411.000
1278.686, 5507.000
1279.756, 5542.000
1280.827, 5411.000
1281.897, 5522.000
1282.967, 5418.000
1284.037, 5480.000
1285.107, 5433.000
1286.177, 5483.000
1287.247, 5478.000
1288.316, 5407.000
1289.385, 5466.000
1290.454, 5393.000
1291.523, 5496.000
1292.592, 5372.000
1293.661, 5499.000
1294.729, 5457.000
1295.797, 5481.000
1296.866, 5397.000
1297.934, 5489.000
1299.001, 5445.000
1300.069, 5426.000
1301.137, 5438.000
1302.204, 5402.000
1303.271, 5444.000
1304.338, 5401.000
1305.405, 5391.000
1306.472, 5490.000
1307.539, 5422.000
1308.605, 5460.000
1309.671, 5425.000
1310.737, 5484.000
1311.803, 5368.000
1312.869, 5376.000
1313.935, 5326.000
1315.000, 5377.000
1316.066, 5405.000
1317.131, 5383.000
1318.196, 5339.000
1319.261, 5466.000
1320.326, 5372.000
1321.390, 5396.000
1322.455, 5360.000
1323.519, 5373.000
1324.583, 5317.000
1325.647, 5334.000
1326.711, 5422.000
1327.775, 5328.000
1328.838, 5413.000
1329.902, 5406.000
1330.965, 5312.000
1332.028, 5333.000
1333.091, 5266.000
1334.153, 5291.000
1335.216, 5359.000
1336.279, 5365.000
1337.341, 5388.419
1338.403, 5312.000
1339.465, 5404.000
1340.527, 5379.000
1341.588, 5378.000
1342.650, 5422.691
1343.711, 5335.000
1344.772, 5434.000
1345.834, 5402.000
1346.894, 5327.000
1347.955, 5422.000
1349.016, 5399.000
1350.076, 5455.000
1351.136, 5405.000
1352.197, 5365.000
1353.257, 5415.000
1354.316, 5466.000
1355.376, 5495.000
1356.436, 5438.000
1357.495, 5432.000
1358.554, 5454.000
1359.613, 5389.000
1360.672, 5505.000
1361.731, 5426.000
1362.789, 5416.000
1363.848, 5446.000
1364.906, 5530.000
1365.964, 5455.000
1367.022, 5545.000
1368.080, 5449.000
1369.138, 5475.000
1370.195, 5433.000
1371.253, 5402.000
1372.310, 5465.000
1373.367, 5480.000
1374.424, 5580.000
1375.480, 5460.000
1376.537, 5448.000
1377.593, 5500.000
1378.650, 5524.000
1379.706, 5498.000
1380.762, 5455.000
1381.818, 5467.000
1382.873, 5461.000
1383.929, 5396.000
1384.984, 5471.000
1386.039, 5507.000
1387.094, 5589.000
1388.149, 5580.000
1389.204, 5603.000
1390.259, 5489.000
1391.313, 5503.000
1392.367, 5550.000
1393.422, 5483.000
1394.476, 5518.000
1395.529, 5537.000
1396.583, 5513.000
1397.637, 5503.000
1398.690, 5574.000
1399.743, 5537.000
1400.796, 5528.000
1401.849, 5429.000
1402.902, 5564.000
1403.954, 5565.000
1405.007, 5540.000
1406.059, 5632.000
1407.111, 5599.000
1408.163, 5622.000
1409.215, 5662.254
1410.267, 5458.000
1411.318, 5675.000
1412.370, 5594.000
1413.421, 5496.000
1414.472, 5648.000
1415.523, 5683.000
1416.574, 5602.000
1417.624, 5569.000
1418.675, 5549.000
1419.725, 5623.000
1420.775, 5570.000
1421.825, 5591.000
1422.875, 5642.000
1423.925, 5600.000
1424.974, 5571.000
1426.024, 5714.000
1427.073, 5738.000
1428.122, 5727.000
1429.171, 5678.000
1430.220, 5709.000
1431.268, 5770.000
1432.317, 5846.000
1433.365, 5786.000
1434.413, 5855.000
1435.461, 5754.000
1436.509, 5750.000
1437.557, 5834.000
1438.605, 5798.000
1439.652, 5852.000
1440.699, 5894.000
1441.746, 5871.000
1442.793, 5935.000
1443.840, 5886.000
1444.887, 5983.000
1445.933, 5911.000
1446.980, 5968.000
1448.026, 5995.000
1449.072, 5984.000
1450.118, 6090.000
1451.163, 6075.000
1452.209, 6065.000
1453.254, 6057.000
1454.300, 6054.000
1455.345, 5975.000
1456.390, 6038.000
1457.435, 6111.000
1458.479, 6042.000
1459.524, 6219.000
1460.568, 6035.000
1461.612, 6202.000
1462.656, 6079.000
1463.700, 6061.000
1464.744, 6107.000
1465.788, 6114.000
1466.831, 6099.676
1467.874, 6124.000
1468.918, 6088.000
1469.961, 6101.000
1471.003, 6137.000
1472.046, 6079.000
1473.089, 6059.000
1474.131, 6086.000
1475.173, 6077.000
1476.215, 6103.000
1477.257, 6124.563
1478.299, 6146.813
1479.341, 6160.000
1480.382, 6203.000
1481.424, 6185.000
1482.465, 6193.000
1483.506, 6297.000
1484.547, 6308.000
1485.587, 6302.000
1486.628, 6329.000
1487.668, 6298.000
1488.709, 6240.000
1489.749, 6309.000
1490.789, 6293.000
1491.828, 6242.000
1492.868, 6302.000
1493.908, 6337.000
1494.947, 6282.000
1495.986, 6265.000
1497.025, 6295.000
1498.064, 6286.875
1499.103, 6341.000
1500.141, 6317.000
1501.180, 6366.000
1502.218, 6349.000
1503.256, 6355.000
1504.294, 6406.000
1505.332, 6238.000
1506.370, 6350.000
1507.407, 6441.000
1508.445, 6319.000
1509.482, 6313.000
1510.519, 6251.000
1511.556, 6201.000
1512.593, 6242.000
1513.629, 6305.000
1514.666, 6331.000
1515.702, 6313.000
1516.738, 6263.000
1517.774, 6307.000
1518.810, 6143.000
1519.846, 6212.000
1520.882, 6108.000
1521.917, 6156.000
1522.952, 6186.000
1523.987, 6095.000
1525.022, 6182.000
1526.057, 6113.000
1527.092, 6101.000
1528.126, 6069.000
1529.161, 6155.000
1530.195, 6078.000
1531.229, 6038.000
1532.263, 6001.000
1533.297, 6194.000
1534.330, 6088.000
1535.364, 6165.000
1536.397, 6132.000
1537.430, 6099.000
1538.463, 6127.000
1539.496, 6091.000
1540.529, 6002.000
1541.561, 6126.000
1542.594, 6077.000
1543.626, 5973.000
1544.658, 6030.000
1545.690, 6017.000
1546.722, 6042.000
1547.753, 6183.000
1548.785, 6001.000
1549.816, 6087.000
1550.847, 6242.000
1551.878, 6095.000
1552.909, 6147.000
1553.940, 6213.000
1554.971, 6205.000
1556.001, 6113.000
1557.031, 6172.000
1558.062, 6208.000
1559.092, 6056.000
1560.121, 6129.000
1561.151, 6051.000
1562.181, 6159.000
##END=



