##NAMES=Humite
##RRUFFID=R050665
##IDEAL CHEMISTRY=Mg_7_(SiO_4_)_3_(F,OH)_2_
##LOCALITY=Tilly Foster mine, Brewster, Putnam County, New York, USA
##OWNER=RRUFF
##SOURCE=University of Arizona Mineral Museum
##DESCRIPTION=Granular aggregate of reddish-orange crystals
##STATUS=The identification of this mineral has been confirmed by X-ray diffraction and chemical analysis
##URL=rruff.info/R050665
##MEASURED CHEMISTRY=(Mg_0.91_Fe^2+^_0.09_)_7_(Si_1.00_O_4_)_3_(F_0.56_(OH)_0.44_)_2_
##PIN_ID=M01664
##ORIENTATION=Laser parallel to a* (1 0 0). Fiducial mark perpendicular to laser is parallel to b [0 1 0]
101.8200, 5038.000
103.0570, 5140.000
104.2940, 5146.000
105.5310, 5430.000
106.7680, 5336.484
108.0040, 5457.000
109.2410, 5341.000
110.4770, 5367.000
111.7130, 5535.000
112.9490, 5676.000
114.1850, 5891.000
115.4200, 6022.000
116.6560, 5926.000
117.8910, 5975.000
119.1260, 6026.000
120.3610, 6007.000
121.5960, 6035.000
122.8300, 6058.000
124.0640, 5755.000
125.2990, 5516.000
126.5330, 5479.000
127.7670, 5416.000
129.0000, 5270.000
130.2340, 5406.000
131.4670, 5557.000
132.7000, 5545.000
133.9330, 5465.000
135.1660, 5577.000
136.3990, 5614.000
137.6310, 5771.000
138.8640, 5828.000
140.0960, 5941.000
141.3280, 5875.000
142.5600, 5876.000
143.7910, 5789.000
145.0230, 5813.000
146.2540, 5787.000
147.4850, 5819.000
148.7160, 5779.000
149.9470, 5790.887
151.1780, 5786.000
152.4080, 5812.000
153.6380, 5785.000
154.8690, 5829.599
156.0980, 5729.000
157.3280, 5833.000
158.5580, 5753.000
159.7870, 5745.000
161.0170, 5692.000
162.2460, 5718.000
163.4750, 5592.000
164.7030, 5626.000
165.9320, 5638.000
167.1600, 5695.000
168.3890, 5675.000
169.6170, 5640.000
170.8450, 5682.000
172.0730, 5662.000
173.3000, 5591.000
174.5280, 5733.000
175.7550, 5773.000
176.9820, 5724.000
178.2090, 5847.000
179.4350, 5892.000
180.6620, 5812.000
181.8880, 5799.000
183.1150, 5855.000
184.3410, 5944.000
185.5670, 6131.000
186.7920, 6134.000
188.0180, 6352.000
189.2430, 6377.000
190.4690, 6637.000
191.6940, 6691.000
192.9180, 6702.000
194.1430, 6779.000
195.3680, 6836.000
196.5920, 6846.000
197.8160, 6799.990
199.0400, 6585.000
200.2640, 6594.000
201.4880, 6442.000
202.7110, 6248.000
203.9350, 6124.000
205.1580, 6062.000
206.3810, 6054.000
207.6040, 5962.413
208.8270, 6052.000
210.0490, 5878.000
211.2710, 5963.000
212.4940, 5986.000
213.7160, 5927.000
214.9370, 5909.000
216.1590, 5911.084
217.3810, 5957.000
218.6020, 5947.000
219.8230, 5934.000
221.0440, 5941.481
222.2650, 5906.000
223.4860, 5900.000
224.7060, 5855.539
225.9260, 5896.295
227.1470, 5915.126
228.3670, 5913.225
229.5860, 5828.474
230.8060, 5850.708
232.0260, 5830.064
233.2450, 5807.670
234.4640, 5844.972
235.6830, 5772.271
236.9020, 5808.626
238.1200, 5801.456
239.3390, 5814.202
240.5570, 5783.812
241.7750, 5766.748
242.9930, 5792.840
244.2110, 5795.036
245.4290, 5759.680
246.6460, 5803.000
247.8630, 5782.000
249.0810, 5809.000
250.2980, 5793.000
251.5140, 5732.000
252.7310, 5769.721
253.9470, 5790.000
255.1640, 5793.000
256.3800, 5836.000
257.5960, 5842.000
258.8120, 5793.000
260.0270, 5740.000
261.2430, 5835.000
262.4580, 5771.000
263.6730, 5856.000
264.8880, 5808.000
266.1030, 5805.000
267.3170, 5785.000
268.5320, 5819.000
269.7460, 5740.000
270.9600, 5815.000
272.1740, 5827.000
273.3880, 5766.000
274.6010, 5758.000
275.8150, 5684.000
277.0280, 5713.000
278.2410, 5802.000
279.4540, 5850.000
280.6670, 5829.000
281.8790, 5839.000
283.0920, 5806.000
284.3040, 5854.000
285.5160, 5819.000
286.7280, 5734.000
287.9400, 5694.000
289.1510, 5716.000
290.3630, 5728.000
291.5740, 5678.000
292.7850, 5621.000
293.9960, 5544.000
295.2070, 5696.000
296.4170, 5580.000
297.6280, 5654.000
298.8380, 5435.000
300.0480, 5501.000
301.2580, 5401.000
302.4680, 5487.000
303.6770, 5504.000
304.8870, 5506.000
306.0960, 5425.000
307.3050, 5342.000
308.5140, 5455.000
309.7230, 5270.000
310.9310, 5416.000
312.1400, 5364.000
313.3480, 5384.000
314.5560, 5441.000
315.7640, 5441.000
316.9720, 5387.000
318.1790, 5512.000
319.3870, 5613.000
320.5940, 5412.000
321.8010, 5497.000
323.0080, 5483.000
324.2150, 5374.000
325.4210, 5357.000
326.6280, 5396.000
327.8340, 5269.000
329.0400, 5274.000
330.2460, 5334.000
331.4510, 5265.000
332.6570, 5218.000
333.8620, 5208.000
335.0680, 5267.000
336.2730, 5132.000
337.4780, 5057.000
338.6820, 5147.000
339.8870, 5086.000
341.0910, 5208.000
342.2950, 5265.000
343.5000, 5250.000
344.7030, 5258.000
345.9070, 5200.000
347.1110, 5342.000
348.3140, 5364.000
349.5170, 5438.000
350.7200, 5371.000
351.9230, 5336.000
353.1260, 5307.000
354.3290, 5381.000
355.5310, 5293.000
356.7330, 5358.000
357.9350, 5306.000
359.1370, 5333.000
360.3390, 5256.000
361.5400, 5116.000
362.7420, 5065.000
363.9430, 5013.624
365.1440, 4925.000
366.3450, 4989.000
367.5460, 4951.000
368.7460, 5006.000
369.9470, 4930.000
371.1470, 4834.000
372.3470, 4923.000
373.5470, 4893.000
374.7460, 4985.000
375.9460, 4937.000
377.1450, 4994.000
378.3450, 4965.000
379.5440, 5112.000
380.7430, 5200.000
381.9410, 5459.000
383.1400, 5463.000
384.3380, 5557.000
385.5370, 5563.564
386.7350, 5609.000
387.9320, 5511.000
389.1300, 5442.000
390.3280, 5493.000
391.5250, 5276.000
392.7220, 5257.000
393.9190, 5174.000
395.1160, 5006.000
396.3130, 4900.000
397.5100, 4760.000
398.7060, 4725.000
399.9020, 4607.000
401.0980, 4443.000
402.2940, 4347.000
403.4900, 4385.000
404.6860, 4267.000
405.8810, 4138.000
407.0760, 4232.000
408.2710, 4232.000
409.4660, 4292.000
410.6610, 4260.000
411.8550, 4289.152
413.0500, 4372.000
414.2440, 4322.000
415.4380, 4324.000
416.6320, 4362.000
417.8260, 4491.000
419.0190, 4386.000
420.2130, 4470.000
421.4060, 4571.000
422.5990, 4515.000
423.7920, 4537.000
424.9850, 4579.000
426.1770, 4624.000
427.3700, 4608.000
428.5620, 4624.000
429.7540, 4632.000
430.9460, 4621.700
432.1380, 4651.000
433.3290, 4615.000
434.5210, 4542.000
435.7120, 4544.000
436.9030, 4602.000
438.0940, 4684.000
439.2850, 4599.000
440.4750, 4613.000
441.6660, 4615.000
442.8560, 4650.000
444.0460, 4774.000
445.2360, 4795.000
446.4260, 4915.000
447.6160, 4890.000
448.8050, 4941.000
449.9940, 4985.000
451.1830, 4957.000
452.3720, 5050.000
453.5610, 5171.000
454.7500, 5173.000
455.9380, 5169.000
457.1260, 5180.000
458.3150, 5173.000
459.5020, 5217.000
460.6900, 5390.000
461.8780, 5359.000
463.0650, 5416.000
464.2530, 5398.000
465.4400, 5478.000
466.6270, 5521.000
467.8130, 5511.000
469.0000, 5580.000
470.1870, 5688.000
471.3730, 5721.000
472.5590, 5804.000
473.7450, 5868.000
474.9310, 5949.000
476.1160, 6031.000
477.3020, 6083.000
478.4870, 6169.463
479.6720, 6364.000
480.8570, 6354.000
482.0420, 6468.000
483.2270, 6632.000
484.4110, 6673.000
485.5960, 6761.000
486.7800, 6760.000
487.9640, 6767.000
489.1480, 6960.000
490.3310, 6890.000
491.5150, 6951.000
492.6980, 6827.000
493.8810, 7015.000
495.0640, 7038.000
496.2470, 7028.000
497.4300, 6956.000
498.6120, 6984.000
499.7950, 7003.000
500.9770, 7105.000
502.1590, 7042.000
503.3410, 7060.000
504.5220, 6937.000
505.7040, 6798.000
506.8850, 6834.000
508.0660, 6851.000
509.2470, 6766.000
510.4280, 6634.000
511.6090, 6622.000
512.7890, 6662.000
513.9700, 6642.000
515.1500, 6731.000
516.3300, 6672.000
517.5100, 6926.000
518.6900, 6947.000
519.8690, 7188.000
521.0490, 7352.000
522.2280, 7575.000
523.4070, 7790.000
524.5860, 8016.000
525.7640, 8428.000
526.9430, 8601.000
528.1210, 8776.000
529.3000, 9075.000
530.4780, 9193.000
531.6560, 9419.000
532.8330, 9331.000
534.0110, 9329.000
535.1880, 9164.000
536.3650, 9044.000
537.5430, 9042.000
538.7190, 8707.000
539.8960, 8645.000
541.0730, 8439.000
542.2490, 8288.000
543.4250, 8193.000
544.6020, 7924.000
545.7780, 7768.000
546.9530, 7539.000
548.1290, 7325.000
549.3040, 6958.000
550.4800, 6878.000
551.6550, 6586.000
552.8300, 6328.000
554.0040, 6169.000
555.1790, 6145.000
556.3540, 6014.000
557.5280, 5964.000
558.7020, 5884.000
559.8760, 6007.000
561.0500, 5926.000
562.2230, 5981.000
563.3970, 6093.000
564.5700, 6041.000
565.7430, 6030.000
566.9160, 6044.000
568.0890, 5971.000
569.2620, 6018.000
570.4340, 5859.000
571.6070, 5795.000
572.7790, 5813.000
573.9510, 5831.000
575.1230, 5934.000
576.2940, 5899.000
577.4660, 6023.000
578.6370, 6060.000
579.8080, 6227.000
580.9790, 6363.000
582.1500, 6450.000
583.3210, 6541.000
584.4910, 6404.000
585.6620, 6335.000
586.8320, 6113.000
588.0020, 5954.000
589.1720, 5703.000
590.3410, 5562.000
591.5110, 5517.000
592.6800, 5390.000
593.8500, 5287.000
595.0190, 5323.000
596.1880, 5327.000
597.3560, 5309.000
598.5250, 5363.000
599.6930, 5437.000
600.8620, 5450.000
602.0300, 5454.000
603.1970, 5458.568
604.3650, 5452.166
605.5330, 5384.000
606.7000, 5383.000
607.8680, 5274.000
609.0350, 5128.000
610.2020, 5152.000
611.3680, 4928.000
612.5350, 5026.000
613.7010, 4897.000
614.8680, 4919.000
616.0340, 4855.000
617.2000, 4712.000
618.3660, 4715.000
619.5310, 4590.000
620.6970, 4520.000
621.8620, 4530.000
623.0270, 4470.000
624.1920, 4378.580
625.3570, 4398.000
626.5220, 4246.000
627.6860, 4154.000
628.8500, 4248.000
630.0140, 4142.000
631.1780, 4198.000
632.3420, 4068.000
633.5060, 4015.000
634.6700, 3934.000
635.8330, 4057.000
636.9960, 3959.000
638.1590, 3972.000
639.3220, 3922.000
640.4850, 3888.000
641.6470, 3963.000
642.8100, 4011.000
643.9720, 3930.000
645.1340, 3945.000
646.2960, 3980.000
647.4570, 3957.000
648.6190, 3919.000
649.7800, 3924.000
650.9420, 3999.000
652.1030, 4046.000
653.2640, 4079.000
654.4240, 4002.000
655.5850, 4019.000
656.7450, 4024.000
657.9060, 3996.000
659.0660, 4022.000
660.2260, 4028.000
661.3850, 4011.000
662.5450, 4103.000
663.7040, 4123.000
664.8640, 4099.000
666.0230, 4138.000
667.1820, 4153.000
668.3410, 4131.000
669.4990, 4203.000
670.6580, 4098.000
671.8160, 4162.000
672.9740, 4182.000
674.1320, 4243.000
675.2900, 4270.000
676.4480, 4341.000
677.6050, 4337.000
678.7630, 4352.000
679.9200, 4429.000
681.0770, 4455.000
682.2340, 4450.000
683.3900, 4505.000
684.5470, 4564.000
685.7030, 4605.000
686.8590, 4560.000
688.0150, 4608.000
689.1710, 4609.000
690.3270, 4772.000
691.4830, 4717.000
692.6380, 4772.000
693.7930, 4963.000
694.9480, 4924.289
696.1030, 4958.000
697.2580, 5022.000
698.4130, 4998.000
699.5670, 5095.000
700.7210, 5180.000
701.8750, 5269.000
703.0290, 5432.000
704.1830, 5441.000
705.3370, 5613.000
706.4900, 5750.000
707.6430, 5845.000
708.7970, 5943.000
709.9490, 6081.848
711.1020, 6301.000
712.2550, 6355.000
713.4070, 6507.000
714.5600, 6667.000
715.7120, 6766.000
716.8640, 7034.000
718.0160, 7258.000
719.1670, 7299.000
720.3190, 7638.000
721.4700, 7757.000
722.6210, 8072.000
723.7720, 8204.000
724.9230, 8612.000
726.0740, 8996.000
727.2250, 9234.000
728.3750, 9625.000
729.5250, 10079.00
730.6750, 10417.00
731.8250, 10774.00
732.9750, 11289.00
734.1240, 11628.00
735.2740, 12021.00
736.4230, 12436.00
737.5720, 12890.00
738.7210, 13333.00
739.8700, 14006.00
741.0190, 14802.00
742.1670, 15449.00
743.3150, 16470.00
744.4630, 17505.00
745.6110, 18485.00
746.7590, 19796.00
747.9070, 21156.00
749.0540, 22095.00
750.2020, 23195.00
751.3490, 24074.00
752.4960, 24604.00
753.6430, 25178.00
754.7890, 25136.00
755.9360, 24545.00
757.0820, 24263.00
758.2280, 23445.00
759.3740, 22541.00
760.5200, 21415.00
761.6660, 20278.00
762.8120, 18775.00
763.9570, 17417.00
765.1020, 16289.00
766.2470, 15130.00
767.3920, 13982.00
768.5370, 12990.00
769.6810, 12162.00
770.8260, 11316.00
771.9700, 10687.00
773.1140, 10313.00
774.2580, 9850.000
775.4020, 9736.000
776.5460, 9441.000
777.6890, 9332.000
778.8320, 9312.000
779.9750, 9339.000
781.1180, 9322.000
782.2610, 9337.000
783.4040, 9151.000
784.5460, 8975.000
785.6890, 8771.000
786.8310, 8428.000
787.9730, 8040.000
789.1150, 7724.000
790.2560, 7546.000
791.3980, 7266.000
792.5390, 6985.000
793.6810, 6751.000
794.8220, 6449.000
795.9630, 6429.000
797.1030, 6267.000
798.2440, 6226.000
799.3840, 6035.000
800.5240, 6034.000
801.6650, 5940.000
802.8040, 6018.000
803.9440, 6045.000
805.0840, 6084.000
806.2230, 6026.000
807.3630, 6128.000
808.5020, 6139.000
809.6410, 6295.000
810.7790, 6508.000
811.9180, 6645.000
813.0570, 6750.000
814.1950, 7041.000
815.3330, 7204.400
816.4710, 7449.000
817.6090, 7798.000
818.7470, 8165.000
819.8840, 8764.000
821.0220, 9411.000
822.1590, 10061.00
823.2960, 10738.00
824.4330, 11801.00
825.5690, 12904.00
826.7060, 14235.00
827.8420, 15910.00
828.9790, 17654.00
830.1150, 20548.00
831.2510, 23052.00
832.3860, 25758.00
833.5220, 28607.00
834.6570, 30664.00
835.7930, 32359.00
836.9280, 33139.00
838.0630, 33677.00
839.1980, 34037.00
840.3320, 34367.00
841.4670, 34676.00
842.6010, 34983.00
843.7350, 34359.00
844.8690, 32726.00
846.0030, 30627.00
847.1370, 27813.00
848.2700, 25477.00
849.4040, 23303.00
850.5370, 21534.00
851.6700, 20540.00
852.8030, 19726.00
853.9360, 19524.00
855.0680, 19641.00
856.2000, 20325.00
857.3330, 20859.00
858.4650, 21978.00
859.5970, 22945.00
860.7290, 23772.00
861.8600, 23957.00
862.9920, 23923.00
864.1230, 22793.00
865.2540, 21510.00
866.3850, 19747.00
867.5160, 17929.00
868.6460, 16262.00
869.7770, 15188.00
870.9070, 13654.00
872.0370, 12663.00
873.1670, 11821.00
874.2970, 11205.00
875.4270, 10870.00
876.5570, 10500.00
877.6860, 10179.00
878.8150, 9692.000
879.9440, 9454.000
881.0730, 8861.000
882.2020, 8533.000
883.3300, 8228.000
884.4590, 7950.000
885.5870, 7843.000
886.7150, 7565.000
887.8430, 7430.000
888.9710, 7223.000
890.0990, 7046.000
891.2260, 6958.000
892.3530, 6778.000
893.4810, 6832.000
894.6080, 6528.000
895.7340, 6580.000
896.8610, 6410.000
897.9880, 6451.000
899.1140, 6349.000
900.2400, 6213.000
901.3660, 6339.000
902.4920, 6251.000
903.6180, 6261.000
904.7430, 6124.000
905.8690, 6309.000
906.9940, 6230.000
908.1190, 6317.000
909.2440, 6341.000
910.3690, 6286.000
911.4930, 6364.000
912.6180, 6417.665
913.7420, 6465.393
914.8660, 6602.000
915.9900, 6655.000
917.1140, 6752.000
918.2380, 6915.000
919.3610, 6800.000
920.4850, 7072.000
921.6080, 7124.000
922.7310, 7513.000
923.8540, 7691.000
924.9760, 8043.000
926.0990, 8653.000
927.2210, 9415.000
928.3440, 10353.00
929.4660, 11582.00
930.5880, 12940.00
931.7090, 14048.00
932.8310, 14518.00
933.9520, 14027.00
935.0740, 13153.00
936.1950, 12018.00
937.3160, 10767.00
938.4360, 9845.000
939.5570, 8885.000
940.6780, 8478.000
941.7980, 8126.000
942.9180, 7817.000
944.0380, 7617.000
945.1580, 7419.000
946.2780, 7423.000
947.3970, 7233.000
948.5170, 7272.000
949.6360, 7203.000
950.7550, 7457.000
951.8740, 7551.000
952.9930, 7654.000
954.1110, 7964.000
955.2300, 8192.014
956.3480, 8575.455
957.4660, 8949.000
958.5840, 9530.000
959.7020, 10166.00
960.8190, 10857.00
961.9370, 11604.00
963.0540, 12314.00
964.1710, 12906.00
965.2880, 13032.00
966.4050, 13620.00
967.5220, 12671.00
968.6380, 11526.00
969.7550, 11125.00
970.8710, 9678.000
971.9870, 9106.000
973.1030, 8475.000
974.2190, 8045.000
975.3340, 7605.000
976.4500, 7484.000
977.5650, 7211.000
978.6800, 7126.000
979.7950, 6920.000
980.9100, 6824.000
982.0250, 6748.000
983.1390, 6747.000
984.2530, 6682.000
985.3680, 6545.000
986.4820, 6550.000
987.5950, 6415.000
988.7090, 6505.000
989.8230, 6373.000
990.9360, 6515.000
992.0490, 6306.000
993.1620, 6351.000
994.2750, 6289.000
995.3880, 6391.000
996.5010, 6325.000
997.6130, 6370.000
998.7250, 6343.885
999.8370, 6388.000
1000.949, 6248.000
1002.061, 6344.000
1003.173, 6256.000
1004.284, 6335.000
1005.396, 6277.000
1006.507, 6318.000
1007.618, 6335.000
1008.729, 6270.000
1009.839, 6310.730
1010.950, 6270.000
1012.060, 6296.000
1013.171, 6254.000
1014.281, 6188.000
1015.391, 6182.000
1016.500, 6104.000
1017.610, 6094.000
1018.719, 5995.000
1019.829, 6107.000
1020.938, 6035.000
1022.047, 6026.000
1023.156, 5904.000
1024.264, 5952.000
1025.373, 5861.000
1026.481, 5839.000
1027.589, 5860.000
1028.697, 5827.000
1029.805, 5777.000
1030.913, 5774.272
1032.020, 5744.000
1033.128, 5701.000
1034.235, 5657.000
1035.342, 5561.000
1036.449, 5621.000
1037.556, 5593.000
1038.663, 5570.000
1039.769, 5627.000
1040.875, 5602.000
1041.981, 5547.000
1043.087, 5505.000
1044.193, 5441.000
1045.299, 5457.000
1046.404, 5458.000
1047.510, 5412.000
1048.615, 5381.000
1049.720, 5351.000
1050.825, 5286.000
1051.930, 5223.000
1053.034, 5235.000
1054.139, 5252.000
1055.243, 5138.000
1056.347, 5171.000
1057.451, 5146.000
1058.555, 5165.000
1059.658, 5175.000
1060.762, 5140.000
1061.865, 5089.000
1062.968, 5179.000
1064.071, 5073.000
1065.174, 5154.000
1066.277, 5052.000
1067.380, 5094.000
1068.482, 5103.000
1069.584, 5077.000
1070.686, 5089.000
1071.788, 5134.000
1072.890, 5105.000
1073.992, 5107.140
1075.093, 5088.000
1076.194, 5061.000
1077.295, 5049.000
1078.396, 5012.000
1079.497, 5078.000
1080.598, 4958.000
1081.698, 4924.000
1082.799, 4834.000
1083.899, 4910.000
1084.999, 4908.000
1086.099, 4900.000
1087.199, 4941.000
1088.298, 4919.000
1089.398, 4929.000
1090.497, 4913.000
1091.596, 4915.000
1092.695, 4913.000
1093.794, 4935.000
1094.892, 4906.000
1095.991, 4892.210
1097.089, 4849.000
1098.187, 4836.000
1099.285, 4818.000
1100.383, 4795.484
1101.481, 4823.000
1102.579, 4820.000
1103.676, 4852.000
1104.773, 4887.000
1105.870, 4842.000
1106.967, 4779.000
1108.064, 4920.000
1109.161, 4930.000
1110.257, 4855.000
1111.353, 4822.000
1112.449, 4852.000
1113.545, 4834.000
1114.641, 4874.000
1115.737, 4870.948
1116.832, 4862.072
1117.928, 4876.000
1119.023, 4834.000
1120.118, 4825.000
1121.213, 4801.000
1122.308, 4770.000
1123.402, 4836.000
1124.497, 4798.000
1125.591, 4827.000
1126.685, 4737.000
1127.779, 4763.000
1128.873, 4793.000
1129.967, 4800.000
1131.060, 4836.000
1132.153, 4807.000
1133.247, 4740.000
1134.340, 4801.000
1135.433, 4835.000
1136.525, 4745.000
1137.618, 4796.000
1138.710, 4756.000
1139.802, 4800.000
1140.895, 4782.000
1141.987, 4805.000
1143.078, 4807.576
1144.170, 4757.000
1145.261, 4794.000
1146.353, 4788.000
1147.444, 4753.000
1148.535, 4703.000
1149.626, 4722.000
1150.716, 4764.000
1151.807, 4742.000
1152.897, 4768.866
1153.988, 4720.000
1155.078, 4746.000
1156.168, 4751.000
1157.257, 4652.000
1158.347, 4741.000
1159.436, 4801.000
1160.526, 4753.000
1161.615, 4695.000
1162.704, 4724.000
1163.793, 4762.000
1164.881, 4817.000
1165.970, 4728.000
1167.058, 4743.000
1168.147, 4777.000
1169.235, 4826.000
1170.323, 4769.000
1171.410, 4808.000
1172.498, 4883.000
1173.585, 4850.000
1174.673, 4832.000
1175.760, 4869.000
1176.847, 4883.000
1177.934, 4892.673
1179.020, 4982.000
1180.107, 4940.000
1181.193, 4939.108
1182.279, 4994.000
1183.365, 4915.000
1184.451, 4904.000
1185.537, 4931.000
1186.623, 4933.481
1187.708, 4974.000
1188.793, 5023.000
1189.878, 5014.000
1190.963, 5071.000
1192.048, 5144.000
1193.133, 5109.000
1194.217, 5107.000
1195.302, 5195.000
1196.386, 5280.000
1197.470, 5311.000
1198.554, 5313.000
1199.638, 5235.000
1200.721, 5279.000
1201.805, 5281.000
1202.888, 5231.000
1203.971, 5292.000
1205.054, 5298.197
1206.137, 5326.000
1207.219, 5379.000
1208.302, 5431.000
1209.384, 5487.000
1210.466, 5454.000
1211.548, 5487.000
1212.630, 5473.000
1213.712, 5476.000
1214.794, 5518.000
1215.875, 5577.000
1216.956, 5551.000
1218.037, 5575.000
1219.118, 5604.000
1220.199, 5703.000
1221.280, 5745.000
1222.360, 5755.000
1223.441, 5785.569
1224.521, 5815.000
1225.601, 5773.000
1226.681, 5805.000
1227.760, 5782.000
1228.840, 5757.000
1229.919, 5885.000
1230.999, 5853.000
1232.078, 5858.000
1233.157, 5884.000
1234.236, 5847.000
1235.314, 5916.000
1236.393, 5958.000
1237.471, 6033.000
1238.549, 5935.000
1239.627, 5918.000
1240.705, 6027.000
1241.783, 6005.000
1242.860, 6056.000
1243.938, 5902.000
1245.015, 6103.000
1246.092, 6049.000
1247.169, 6034.000
1248.246, 6095.000
1249.323, 6017.000
1250.399, 5995.000
1251.475, 5952.000
1252.552, 5995.000
1253.628, 6019.000
1254.703, 6043.000
1255.779, 6053.515
1256.855, 6053.000
1257.930, 6017.000
1259.005, 6032.000
1260.080, 6043.175
1261.155, 6002.000
1262.230, 6077.000
1263.305, 6057.000
1264.379, 6039.000
1265.454, 6066.000
1266.528, 6060.000
1267.602, 6030.000
1268.676, 5987.000
1269.750, 6059.000
1270.823, 6020.000
1271.897, 6091.000
1272.970, 6024.000
1274.043, 6075.000
1275.116, 6162.000
1276.189, 6047.000
1277.261, 6114.000
1278.334, 6035.000
1279.406, 6108.000
1280.478, 6149.000
1281.550, 6121.000
1282.622, 6092.000
1283.694, 6060.000
1284.766, 6074.000
1285.837, 6211.000
1286.908, 6055.000
1287.979, 6049.000
1289.050, 6112.000
1290.121, 5876.000
1291.192, 5989.000
1292.262, 5907.000
1293.333, 5870.000
1294.403, 5812.000
1295.473, 5738.000
1296.543, 5720.000
1297.613, 5646.000
1298.682, 5647.000
1299.752, 5498.000
1300.821, 5499.000
1301.890, 5356.000
1302.959, 5393.000
1304.028, 5356.000
1305.096, 5352.000
1306.165, 5326.000
1307.233, 5319.068
1308.301, 5253.000
1309.370, 5276.000
1310.437, 5221.000
1311.505, 5122.000
1312.573, 5149.000
1313.640, 5063.000
1314.708, 5068.000
1315.775, 5043.000
1316.842, 4948.000
1317.908, 4966.000
1318.975, 5099.000
1320.042, 4950.000
1321.108, 5075.000
1322.174, 4943.000
1323.240, 5046.000
1324.306, 5054.000
1325.372, 4988.000
1326.438, 4975.000
1327.503, 4992.000
1328.568, 4905.000
1329.634, 4957.000
1330.699, 4986.000
1331.763, 5091.000
1332.828, 4968.000
1333.893, 4900.000
1334.957, 4887.000
1336.021, 4993.000
1337.085, 4940.000
1338.149, 4931.000
1339.213, 4943.000
1340.277, 4953.000
1341.340, 4940.672
1342.404, 4922.000
1343.467, 4933.000
1344.530, 4925.000
1345.593, 4944.000
1346.655, 4986.000
1347.718, 4898.000
1348.780, 5053.000
1349.843, 4957.000
1350.905, 4847.000
1351.967, 5107.000
1353.028, 5033.000
1354.090, 4987.000
1355.152, 5078.000
1356.213, 5027.000
1357.274, 5032.000
1358.335, 5009.000
1359.396, 5008.088
1360.457, 5026.000
1361.517, 5032.000
1362.578, 5066.000
1363.638, 5103.000
1364.698, 5116.000
1365.758, 5055.000
1366.818, 5020.000
1367.878, 5007.000
1368.937, 4984.753
1369.997, 5105.000
1371.056, 5013.000
1372.115, 5045.000
1373.174, 5139.000
1374.232, 5068.000
1375.291, 4953.000
1376.350, 5014.000
1377.408, 4959.000
1378.466, 4941.000
1379.524, 5013.000
1380.582, 5000.000
1381.640, 4976.000
1382.697, 4986.000
1383.754, 4962.000
1384.812, 4980.000
1385.869, 4966.000
1386.926, 4955.000
1387.983, 4911.000
1389.039, 4906.652
1390.096, 4913.000
1391.152, 4889.000
1392.208, 4917.000
1393.264, 4937.000
1394.320, 4919.000
1395.376, 4892.000
1396.431, 4894.000
1397.487, 4853.000
1398.542, 4866.353
1399.597, 4856.319
1400.652, 4880.000
1401.707, 4871.000
1402.762, 4868.958
1403.816, 4909.000
1404.871, 4887.000
1405.925, 4962.000
1406.979, 4964.000
1408.033, 4880.000
1409.086, 5023.000
1410.140, 4907.000
1411.194, 4968.000
1412.247, 4976.000
1413.300, 4960.000
1414.353, 4976.000
1415.406, 4950.000
1416.458, 4984.000
1417.511, 4846.000
1418.563, 4923.000
1419.616, 5027.000
1420.668, 5052.000
1421.720, 4944.000
1422.772, 5032.000
1423.823, 5079.000
1424.875, 5022.000
1425.926, 5083.000
1426.977, 5090.000
1428.028, 5045.000
1429.079, 5072.000
1430.130, 5127.000
1431.180, 5129.000
1432.231, 5127.000
1433.281, 5091.000
1434.331, 5186.000
1435.381, 5218.000
1436.431, 5098.000
1437.481, 5166.000
1438.530, 5224.000
1439.580, 5226.000
1440.629, 5234.000
1441.678, 5337.000
1442.727, 5275.000
1443.776, 5243.000
1444.824, 5296.000
1445.873, 5338.000
1446.921, 5268.000
1447.969, 5349.000
1449.017, 5283.000
1450.065, 5326.000
1451.113, 5404.000
1452.160, 5463.000
1453.208, 5516.000
1454.255, 5608.000
1455.302, 5474.000
1456.349, 5553.000
1457.396, 5543.000
1458.443, 5705.000
1459.489, 5655.000
1460.535, 5740.000
1461.582, 5759.608
1462.628, 5763.000
1463.674, 5813.000
1464.719, 5797.000
1465.765, 5903.000
1466.810, 5811.000
1467.856, 5982.000
1468.901, 5908.000
1469.946, 5880.000
1470.991, 6064.000
1472.035, 6031.000
1473.080, 6051.000
1474.124, 6131.000
1475.169, 6132.000
1476.213, 6225.000
1477.257, 6208.000
1478.300, 6318.000
1479.344, 6372.000
1480.388, 6405.000
1481.431, 6443.000
1482.474, 6433.000
1483.517, 6453.822
1484.560, 6588.000
1485.603, 6523.000
1486.645, 6623.000
1487.688, 6803.000
1488.730, 6777.000
1489.772, 6813.000
1490.814, 6873.000
1491.856, 6937.000
1492.898, 6976.000
1493.939, 7086.000
1494.981, 7058.000
1496.022, 7012.000
1497.063, 7253.000
1498.104, 7111.000
1499.145, 7115.000
1500.186, 7209.000
1501.226, 7155.000
1502.266, 7113.000
1503.307, 7192.000
1504.347, 7196.000
1505.387, 7111.000
1506.426, 7057.000
1507.466, 7010.000
1508.505, 7013.000
1509.545, 6940.416
1510.584, 6866.505
1511.623, 6849.000
1512.662, 6699.000
1513.700, 6685.000
1514.739, 6656.000
1515.777, 6453.000
1516.815, 6390.000
1517.854, 6358.000
1518.892, 6265.000
1519.929, 6149.000
1520.967, 6050.000
1522.004, 5866.000
1523.042, 6058.000
1524.079, 5814.000
1525.116, 5815.000
1526.153, 5669.000
1527.190, 5661.000
1528.226, 5482.000
1529.263, 5620.000
1530.299, 5531.000
1531.335, 5546.000
1532.371, 5398.000
1533.407, 5352.000
1534.443, 5335.000
1535.478, 5351.000
1536.514, 5272.000
1537.549, 5209.000
1538.584, 5241.000
1539.619, 5181.000
1540.654, 5148.000
1541.689, 5164.000
1542.723, 5161.000
1543.757, 5144.000
1544.792, 5182.000
1545.826, 5115.000
1546.860, 5115.000
1547.893, 5123.000
1548.927, 5108.000
1549.960, 5042.000
1550.994, 5086.000
1552.027, 4972.000
1553.060, 5094.000
1554.093, 5228.000
1555.126, 5223.000
1556.158, 5133.000
1557.191, 5110.000
1558.223, 5129.000
1559.255, 5074.000
1560.287, 5062.024
1561.319, 5063.571
1562.350, 5027.000
1563.382, 5094.000
1564.413, 5135.000
1565.444, 5219.000
1566.476, 5203.560
1567.506, 5109.000
1568.537, 5154.000
1569.568, 5165.000
1570.598, 5102.000
1571.629, 5166.000
1572.659, 5175.000
1573.689, 5281.000
1574.719, 5286.000
1575.749, 5264.000
1576.778, 5191.000
1577.808, 5232.000
##END=



