##NAMES=Humite
##RRUFFID=R050665
##IDEAL CHEMISTRY=Mg_7_(SiO_4_)_3_(F,OH)_2_
##LOCALITY=Tilly Foster mine, Brewster, Putnam County, New York, USA
##OWNER=RRUFF
##SOURCE=University of Arizona Mineral Museum
##DESCRIPTION=Granular aggregate of reddish-orange crystals
##STATUS=The identification of this mineral has been confirmed by X-ray diffraction and chemical analysis
##URL=rruff.info/R050665
##MEASURED CHEMISTRY=(Mg_0.91_Fe^2+^_0.09_)_7_(Si_1.00_O_4_)_3_(F_0.56_(OH)_0.44_)_2_
##PIN_ID=M01664
##ORIENTATION=Laser parallel to a* (1 0 0). Fiducial mark perpendicular to laser is parallel to b [0 1 0]
91.91600, 4042.000
93.15400, 3885.000
94.39300, 3921.000
95.63100, 3828.000
96.86900, 3782.558
98.10700, 3649.000
99.34500, 3701.000
100.5820, 3647.000
101.8200, 3598.000
103.0570, 3547.000
104.2940, 3581.000
105.5310, 3637.000
106.7680, 3639.036
108.0040, 3633.387
109.2410, 3708.000
110.4770, 3653.000
111.7130, 3680.000
112.9490, 3848.000
114.1850, 4184.000
115.4200, 4202.000
116.6560, 4100.000
117.8910, 4088.000
119.1260, 3968.000
120.3610, 3884.000
121.5960, 3827.000
122.8300, 3766.452
124.0640, 3720.482
125.2990, 3751.000
126.5330, 3661.000
127.7670, 3768.000
129.0000, 3781.000
130.2340, 3807.000
131.4670, 3805.000
132.7000, 3878.000
133.9330, 3781.000
135.1660, 3879.000
136.3990, 3919.000
137.6310, 3995.000
138.8640, 4106.000
140.0960, 4154.000
141.3280, 4074.000
142.5600, 4032.000
143.7910, 4115.000
145.0230, 4105.000
146.2540, 4139.000
147.4850, 4183.000
148.7160, 4069.000
149.9470, 4066.000
151.1780, 3988.000
152.4080, 4081.000
153.6380, 4115.000
154.8690, 4104.000
156.0980, 4058.000
157.3280, 4078.976
158.5580, 4017.000
159.7870, 4083.000
161.0170, 4007.000
162.2460, 4024.000
163.4750, 4038.000
164.7030, 4047.000
165.9320, 4047.000
167.1600, 4069.704
168.3890, 3996.000
169.6170, 4105.000
170.8450, 4042.000
172.0730, 4045.000
173.3000, 4083.000
174.5280, 4160.000
175.7550, 4135.000
176.9820, 4201.000
178.2090, 4200.000
179.4350, 4208.000
180.6620, 4332.000
181.8880, 4299.000
183.1150, 4383.000
184.3410, 4461.000
185.5670, 4513.000
186.7920, 4688.000
188.0180, 4835.000
189.2430, 5043.000
190.4690, 5184.000
191.6940, 5492.000
192.9180, 5650.000
194.1430, 5618.000
195.3680, 5800.000
196.5920, 5725.000
197.8160, 5542.000
199.0400, 5460.000
200.2640, 5174.000
201.4880, 4980.000
202.7110, 4729.000
203.9350, 4513.000
205.1580, 4367.000
206.3810, 4263.000
207.6040, 4181.000
208.8270, 4097.000
210.0490, 4026.000
211.2710, 4151.000
212.4940, 4146.000
213.7160, 4170.000
214.9370, 4335.000
216.1590, 4412.000
217.3810, 4455.000
218.6020, 4537.000
219.8230, 4564.000
221.0440, 4660.000
222.2650, 4658.039
223.4860, 4690.000
224.7060, 4622.000
225.9260, 4611.000
227.1470, 4508.000
228.3670, 4380.000
229.5860, 4414.000
230.8060, 4404.000
232.0260, 4293.000
233.2450, 4235.000
234.4640, 4229.000
235.6830, 4201.000
236.9020, 4166.000
238.1200, 4215.000
239.3390, 4227.000
240.5570, 4208.581
241.7750, 4140.000
242.9930, 4190.000
244.2110, 4224.000
245.4290, 4233.000
246.6460, 4310.999
247.8630, 4330.424
249.0810, 4435.000
250.2980, 4420.000
251.5140, 4445.000
252.7310, 4518.000
253.9470, 4642.000
255.1640, 4662.000
256.3800, 4780.734
257.5960, 4884.000
258.8120, 4943.000
260.0270, 4969.000
261.2430, 4978.000
262.4580, 4980.000
263.6730, 5092.000
264.8880, 4990.000
266.1030, 4918.000
267.3170, 4721.000
268.5320, 4695.000
269.7460, 4725.000
270.9600, 4622.000
272.1740, 4607.000
273.3880, 4594.000
274.6010, 4644.000
275.8150, 4588.000
277.0280, 4627.000
278.2410, 4611.000
279.4540, 4724.000
280.6670, 4703.000
281.8790, 4660.000
283.0920, 4800.000
284.3040, 4735.000
285.5160, 4620.000
286.7280, 4612.000
287.9400, 4568.021
289.1510, 4569.000
290.3630, 4554.000
291.5740, 4594.000
292.7850, 4613.000
293.9960, 4459.000
295.2070, 4467.000
296.4170, 4492.000
297.6280, 4387.000
298.8380, 4410.000
300.0480, 4270.000
301.2580, 4276.000
302.4680, 4262.000
303.6770, 4195.000
304.8870, 4067.000
306.0960, 4152.000
307.3050, 4089.000
308.5140, 4039.000
309.7230, 4071.000
310.9310, 4064.000
312.1400, 4039.718
313.3480, 4044.000
314.5560, 4017.000
315.7640, 4055.000
316.9720, 4079.000
318.1790, 4027.000
319.3870, 4079.000
320.5940, 4007.000
321.8010, 4013.000
323.0080, 4049.000
324.2150, 4020.000
325.4210, 3972.000
326.6280, 3954.000
327.8340, 3965.000
329.0400, 4001.000
330.2460, 3909.000
331.4510, 4043.000
332.6570, 3987.000
333.8620, 4046.000
335.0680, 4061.000
336.2730, 4040.000
337.4780, 4108.000
338.6820, 4119.000
339.8870, 4247.000
341.0910, 4171.000
342.2950, 4302.000
343.5000, 4267.000
344.7030, 4239.000
345.9070, 4292.000
347.1110, 4284.000
348.3140, 4265.890
349.5170, 4313.000
350.7200, 4251.000
351.9230, 4278.000
353.1260, 4340.000
354.3290, 4269.000
355.5310, 4320.000
356.7330, 4219.000
357.9350, 4089.000
359.1370, 4118.000
360.3390, 4014.000
361.5400, 3920.000
362.7420, 3984.000
363.9430, 3846.000
365.1440, 3824.000
366.3450, 3809.000
367.5460, 3709.000
368.7460, 3859.000
369.9470, 3750.330
371.1470, 3738.314
372.3470, 3670.000
373.5470, 3683.000
374.7460, 3671.000
375.9460, 3720.000
377.1450, 3723.000
378.3450, 3708.000
379.5440, 3708.000
380.7430, 3704.000
381.9410, 3650.000
383.1400, 3809.000
384.3380, 3787.000
385.5370, 3746.000
386.7350, 3658.000
387.9320, 3766.000
389.1300, 3686.000
390.3280, 3649.000
391.5250, 3697.000
392.7220, 3703.000
393.9190, 3635.000
395.1160, 3664.000
396.3130, 3634.000
397.5100, 3569.000
398.7060, 3530.000
399.9020, 3522.000
401.0980, 3458.000
402.2940, 3535.000
403.4900, 3477.000
404.6860, 3555.000
405.8810, 3546.000
407.0760, 3690.000
408.2710, 3742.000
409.4660, 3789.000
410.6610, 3843.000
411.8550, 3885.120
413.0500, 3878.000
414.2440, 3984.000
415.4380, 4009.000
416.6320, 4087.000
417.8260, 4018.000
419.0190, 4014.000
420.2130, 4089.000
421.4060, 4113.000
422.5990, 4009.006
423.7920, 4010.724
424.9850, 3985.311
426.1770, 3934.274
427.3700, 3780.622
428.5620, 3759.462
429.7540, 3685.227
430.9460, 3608.813
432.1380, 3606.296
433.3290, 3467.662
434.5210, 3463.973
435.7120, 3420.000
436.9030, 3418.000
438.0940, 3358.000
439.2850, 3394.000
440.4750, 3370.607
441.6660, 3380.000
442.8560, 3399.000
444.0460, 3444.000
445.2360, 3534.000
446.4260, 3533.501
447.6160, 3692.000
448.8050, 3536.000
449.9940, 3674.000
451.1830, 3609.000
452.3720, 3638.000
453.5610, 3661.000
454.7500, 3652.000
455.9380, 3617.000
457.1260, 3651.000
458.3150, 3658.877
459.5020, 3649.000
460.6900, 3702.000
461.8780, 3653.000
463.0650, 3631.000
464.2530, 3682.000
465.4400, 3579.000
466.6270, 3699.000
467.8130, 3648.000
469.0000, 3701.000
470.1870, 3769.000
471.3730, 3731.000
472.5590, 3755.000
473.7450, 3786.718
474.9310, 3838.000
476.1160, 3862.000
477.3020, 3958.000
478.4870, 4042.000
479.6720, 3995.000
480.8570, 4141.000
482.0420, 4047.000
483.2270, 4182.000
484.4110, 4069.000
485.5960, 4111.000
486.7800, 4070.000
487.9640, 4066.000
489.1480, 3897.000
490.3310, 3991.000
491.5150, 3849.000
492.6980, 3849.000
493.8810, 3874.000
495.0640, 3868.000
496.2470, 3836.000
497.4300, 3890.000
498.6120, 3892.000
499.7950, 3891.000
500.9770, 3793.000
502.1590, 3784.000
503.3410, 3777.000
504.5220, 3778.000
505.7040, 3755.000
506.8850, 3768.000
508.0660, 3707.000
509.2470, 3702.000
510.4280, 3702.000
511.6090, 3682.284
512.7890, 3689.000
513.9700, 3690.000
515.1500, 3678.000
516.3300, 3702.000
517.5100, 3741.000
518.6900, 3844.000
519.8690, 3852.000
521.0490, 3860.000
522.2280, 3953.000
523.4070, 4144.000
524.5860, 4102.000
525.7640, 4149.000
526.9430, 4323.000
528.1210, 4276.000
529.3000, 4389.000
530.4780, 4479.000
531.6560, 4538.000
532.8330, 4561.000
534.0110, 4516.000
535.1880, 4507.000
536.3650, 4505.000
537.5430, 4508.000
538.7190, 4545.000
539.8960, 4467.000
541.0730, 4571.000
542.2490, 4710.000
543.4250, 4651.000
544.6020, 4766.000
545.7780, 4793.000
546.9530, 4709.000
548.1290, 4677.000
549.3040, 4513.000
550.4800, 4433.000
551.6550, 4367.000
552.8300, 4145.000
554.0040, 4005.000
555.1790, 3949.000
556.3540, 3864.000
557.5280, 3859.000
558.7020, 3834.000
559.8760, 3855.000
561.0500, 3821.000
562.2230, 3781.000
563.3970, 3756.000
564.5700, 3792.000
565.7430, 3736.000
566.9160, 3738.936
568.0890, 3739.000
569.2620, 3700.000
570.4340, 3718.000
571.6070, 3682.000
572.7790, 3627.000
573.9510, 3646.952
575.1230, 3562.759
576.2940, 3629.000
577.4660, 3477.000
578.6370, 3408.000
579.8080, 3466.000
580.9790, 3353.000
582.1500, 3321.000
583.3210, 3315.000
584.4910, 3320.000
585.6620, 3307.251
586.8320, 3302.000
588.0020, 3311.000
589.1720, 3333.000
590.3410, 3348.531
591.5110, 3484.000
592.6800, 3428.000
593.8500, 3482.000
595.0190, 3703.000
596.1880, 3765.000
597.3560, 3939.000
598.5250, 4028.000
599.6930, 4070.000
600.8620, 4256.000
602.0300, 4307.000
603.1970, 4519.000
604.3650, 4518.000
605.5330, 4445.000
606.7000, 4475.000
607.8680, 4343.000
609.0350, 4130.000
610.2020, 4035.000
611.3680, 4009.000
612.5350, 3887.000
613.7010, 3764.000
614.8680, 3697.000
616.0340, 3558.000
617.2000, 3575.000
618.3660, 3464.000
619.5310, 3347.000
620.6970, 3359.000
621.8620, 3260.000
623.0270, 3284.000
624.1920, 3214.000
625.3570, 3195.000
626.5220, 3165.000
627.6860, 3122.790
628.8500, 3085.147
630.0140, 3065.000
631.1780, 3017.000
632.3420, 3001.000
633.5060, 3024.000
634.6700, 2957.000
635.8330, 2911.000
636.9960, 2806.000
638.1590, 2955.000
639.3220, 3009.000
640.4850, 2887.000
641.6470, 2950.000
642.8100, 2925.000
643.9720, 2922.000
645.1340, 2892.000
646.2960, 2883.057
647.4570, 2939.000
648.6190, 2885.000
649.7800, 2896.000
650.9420, 2956.000
652.1030, 2922.000
653.2640, 2867.000
654.4240, 2897.000
655.5850, 2925.000
656.7450, 2952.000
657.9060, 2910.000
659.0660, 2900.000
660.2260, 2857.000
661.3850, 2936.000
662.5450, 2886.000
663.7040, 2931.000
664.8640, 2935.000
666.0230, 3035.000
667.1820, 2951.000
668.3410, 2918.000
669.4990, 2953.000
670.6580, 2998.176
671.8160, 3074.218
672.9740, 3123.130
674.1320, 3146.369
675.2900, 3067.041
676.4480, 3120.156
677.6050, 3120.182
678.7630, 3118.044
679.9200, 3189.788
681.0770, 3125.367
682.2340, 3195.939
683.3900, 3212.612
684.5470, 3253.960
685.7030, 3241.891
686.8590, 3246.317
688.0150, 3304.165
689.1710, 3332.433
690.3270, 3314.216
691.4830, 3306.000
692.6380, 3412.000
693.7930, 3460.000
694.9480, 3457.000
696.1030, 3405.000
697.2580, 3519.000
698.4130, 3540.000
699.5670, 3662.000
700.7210, 3647.000
701.8750, 3724.000
703.0290, 3798.000
704.1830, 3954.000
705.3370, 4038.000
706.4900, 4134.000
707.6430, 4181.000
708.7970, 4300.284
709.9490, 4496.739
711.1020, 4666.185
712.2550, 4809.958
713.4070, 4851.044
714.5600, 5024.694
715.7120, 5145.146
716.8640, 5263.430
718.0160, 5455.600
719.1670, 5648.000
720.3190, 5771.000
721.4700, 5930.000
722.6210, 6052.000
723.7720, 6248.000
724.9230, 6526.000
726.0740, 6732.000
727.2250, 6950.000
728.3750, 7616.000
729.5250, 7537.718
730.6750, 7852.000
731.8250, 7836.000
732.9750, 8120.000
734.1240, 8289.299
735.2740, 8635.000
736.4230, 8682.000
737.5720, 8961.000
738.7210, 9176.000
739.8700, 9493.000
741.0190, 9842.096
742.1670, 10220.00
743.3150, 10690.00
744.4630, 11066.00
745.6110, 11667.00
746.7590, 12259.00
747.9070, 12847.00
749.0540, 13350.00
750.2020, 13858.00
751.3490, 14297.00
752.4960, 14494.00
753.6430, 14715.00
754.7890, 14781.00
755.9360, 14793.00
757.0820, 14555.00
758.2280, 14363.00
759.3740, 13765.00
760.5200, 13267.00
761.6660, 12854.00
762.8120, 12430.00
763.9570, 11759.00
765.1020, 11283.00
766.2470, 10839.00
767.3920, 10367.00
768.5370, 10101.67
769.6810, 9819.680
770.8260, 9685.000
771.9700, 9554.000
773.1140, 9501.000
774.2580, 9628.000
775.4020, 9869.000
776.5460, 10054.00
777.6890, 10406.00
778.8320, 10746.00
779.9750, 11102.00
781.1180, 11300.00
782.2610, 11475.00
783.4040, 11241.00
784.5460, 11029.00
785.6890, 10946.00
786.8310, 9941.000
787.9730, 9304.000
789.1150, 8694.000
790.2560, 8410.000
791.3980, 7819.000
792.5390, 7649.000
793.6810, 7342.000
794.8220, 7178.000
795.9630, 7012.000
797.1030, 6823.000
798.2440, 6706.000
799.3840, 6821.000
800.5240, 6790.000
801.6650, 6805.000
802.8040, 6850.000
803.9440, 6943.000
805.0840, 6994.000
806.2230, 7043.000
807.3630, 7295.000
808.5020, 7353.000
809.6410, 7508.000
810.7790, 7604.000
811.9180, 7808.785
813.0570, 8054.000
814.1950, 8291.000
815.3330, 8611.000
816.4710, 8944.000
817.6090, 9630.000
818.7470, 10197.00
819.8840, 10966.00
821.0220, 11887.00
822.1590, 13029.00
823.2960, 14311.00
824.4330, 15672.00
825.5690, 17611.00
826.7060, 19882.00
827.8420, 22488.00
828.9790, 25383.00
830.1150, 29346.00
831.2510, 33328.00
832.3860, 37962.00
833.5220, 42333.00
834.6570, 46149.00
835.7930, 48777.00
836.9280, 50839.00
838.0630, 52782.00
839.1980, 54309.00
840.3320, 56888.00
841.4670, 58624.00
842.6010, 59878.00
843.7350, 59463.00
844.8690, 56717.00
846.0030, 53346.00
847.1370, 48930.00
848.2700, 44269.00
849.4040, 40550.00
850.5370, 37458.00
851.6700, 36001.00
852.8030, 34932.00
853.9360, 35281.00
855.0680, 36059.00
856.2000, 37959.00
857.3330, 40360.00
858.4650, 43567.00
859.5970, 46689.00
860.7290, 48762.00
861.8600, 49977.00
862.9920, 49896.00
864.1230, 47446.00
865.2540, 43926.00
866.3850, 39774.00
867.5160, 35445.00
868.6460, 31106.00
869.7770, 27456.00
870.9070, 24480.00
872.0370, 21993.00
873.1670, 19603.00
874.2970, 18142.00
875.4270, 17169.00
876.5570, 16015.00
877.6860, 15234.00
878.8150, 14311.00
879.9440, 13483.00
881.0730, 12610.00
882.2020, 11835.00
883.3300, 10995.00
884.4590, 10363.35
885.5870, 9763.000
886.7150, 9236.000
887.8430, 8787.000
888.9710, 8413.000
890.0990, 8178.000
891.2260, 7923.000
892.3530, 7651.000
893.4810, 7491.000
894.6080, 7250.000
895.7340, 7138.000
896.8610, 6856.000
897.9880, 6707.000
899.1140, 6650.000
900.2400, 6479.000
901.3660, 6375.000
902.4920, 6305.378
903.6180, 6203.000
904.7430, 6213.000
905.8690, 6134.000
906.9940, 6189.000
908.1190, 6131.000
909.2440, 6064.000
910.3690, 6117.000
911.4930, 6082.000
912.6180, 6110.000
913.7420, 6113.761
914.8660, 6104.000
915.9900, 6109.000
917.1140, 6087.000
918.2380, 6061.000
919.3610, 6063.000
920.4850, 5971.000
921.6080, 6085.000
922.7310, 6130.000
923.8540, 6118.000
924.9760, 6241.000
926.0990, 6428.000
927.2210, 6454.000
928.3440, 6792.000
929.4660, 7035.000
930.5880, 7473.000
931.7090, 7699.000
932.8310, 7850.000
933.9520, 7864.000
935.0740, 7570.000
936.1950, 7497.000
937.3160, 7041.000
938.4360, 6976.000
939.5570, 6787.823
940.6780, 6726.000
941.7980, 6534.000
942.9180, 6570.000
944.0380, 6502.000
945.1580, 6492.000
946.2780, 6577.000
947.3970, 6626.000
948.5170, 6794.000
949.6360, 6941.000
950.7550, 7320.000
951.8740, 7644.000
952.9930, 8011.000
954.1110, 8482.000
955.2300, 9108.000
956.3480, 9931.000
957.4660, 10981.00
958.5840, 12039.00
959.7020, 13285.00
960.8190, 14622.00
961.9370, 16357.00
963.0540, 17725.00
964.1710, 18742.00
965.2880, 18939.00
966.4050, 18470.00
967.5220, 17218.00
968.6380, 15366.00
969.7550, 13488.00
970.8710, 11795.00
971.9870, 10564.00
973.1030, 9446.000
974.2190, 8651.000
975.3340, 7871.000
976.4500, 7353.000
977.5650, 6853.000
978.6800, 6570.000
979.7950, 6338.000
980.9100, 6035.000
982.0250, 6013.000
983.1390, 5809.000
984.2530, 5490.000
985.3680, 5535.000
986.4820, 5279.818
987.5950, 5209.000
988.7090, 5060.000
989.8230, 4981.000
990.9360, 5052.000
992.0490, 4973.000
993.1620, 4903.000
994.2750, 4870.000
995.3880, 4813.000
996.5010, 4795.000
997.6130, 4804.000
998.7250, 4854.000
999.8370, 4783.000
1000.949, 4724.000
1002.061, 4808.000
1003.173, 4700.000
1004.284, 4781.000
1005.396, 4708.000
1006.507, 4754.000
1007.618, 4748.000
1008.729, 4747.000
1009.839, 4740.549
1010.950, 4660.000
1012.060, 4711.000
1013.171, 4652.000
1014.281, 4665.000
1015.391, 4634.000
1016.500, 4619.000
1017.610, 4687.000
1018.719, 4647.634
1019.829, 4639.000
1020.938, 4608.000
1022.047, 4593.000
1023.156, 4515.000
1024.264, 4575.000
1025.373, 4568.000
1026.481, 4446.000
1027.589, 4565.000
1028.697, 4466.000
1029.805, 4459.000
1030.913, 4412.000
1032.020, 4493.000
1033.128, 4374.000
1034.235, 4387.000
1035.342, 4476.000
1036.449, 4367.000
1037.556, 4479.000
1038.663, 4423.000
1039.769, 4377.000
1040.875, 4423.000
1041.981, 4472.000
1043.087, 4393.000
1044.193, 4365.000
1045.299, 4329.000
1046.404, 4225.000
1047.510, 4203.000
1048.615, 4282.000
1049.720, 4106.000
1050.825, 4132.000
1051.930, 4211.000
1053.034, 4100.000
1054.139, 4079.000
1055.243, 4071.000
1056.347, 4073.000
1057.451, 4044.000
1058.555, 4058.000
1059.658, 4018.000
1060.762, 3973.000
1061.865, 4061.000
1062.968, 3978.000
1064.071, 3982.000
1065.174, 3933.000
1066.277, 3932.000
1067.380, 3985.000
1068.482, 3963.000
1069.584, 3944.000
1070.686, 3846.000
1071.788, 3898.000
1072.890, 3894.000
1073.992, 3864.000
1075.093, 3874.000
1076.194, 3872.000
1077.295, 3840.000
1078.396, 3852.000
1079.497, 3867.000
1080.598, 3833.000
1081.698, 3791.000
1082.799, 3861.000
1083.899, 3865.000
1084.999, 3782.000
1086.099, 3794.000
1087.199, 3845.000
1088.298, 3776.000
1089.398, 3814.000
1090.497, 3875.000
1091.596, 3686.000
1092.695, 3888.000
1093.794, 3809.000
1094.892, 3787.000
1095.991, 3819.000
1097.089, 3790.000
1098.187, 3856.000
1099.285, 3843.000
1100.383, 3774.000
1101.481, 3744.000
1102.579, 3799.000
1103.676, 3779.000
1104.773, 3860.000
1105.870, 3821.554
1106.967, 3811.000
1108.064, 3786.000
1109.161, 3737.000
1110.257, 3763.000
1111.353, 3761.000
1112.449, 3827.000
1113.545, 3821.000
1114.641, 3779.000
1115.737, 3794.000
1116.832, 3775.000
1117.928, 3766.000
1119.023, 3780.883
1120.118, 3778.000
1121.213, 3808.000
1122.308, 3801.000
1123.402, 3821.637
1124.497, 3811.631
1125.591, 3798.000
1126.685, 3786.000
1127.779, 3776.000
1128.873, 3762.000
1129.967, 3792.000
1131.060, 3751.000
1132.153, 3762.000
1133.247, 3815.000
1134.340, 3787.000
1135.433, 3776.000
1136.525, 3810.000
1137.618, 3803.000
1138.710, 3781.000
1139.802, 3765.000
1140.895, 3788.000
1141.987, 3784.000
1143.078, 3804.000
1144.170, 3807.000
1145.261, 3796.534
1146.353, 3773.000
1147.444, 3788.000
1148.535, 3758.000
1149.626, 3788.000
1150.716, 3759.000
1151.807, 3728.000
1152.897, 3737.000
1153.988, 3757.000
1155.078, 3717.000
1156.168, 3733.000
1157.257, 3681.000
1158.347, 3654.000
1159.436, 3676.000
1160.526, 3689.000
1161.615, 3744.000
1162.704, 3718.000
1163.793, 3738.005
1164.881, 3690.000
1165.970, 3731.000
1167.058, 3669.000
1168.147, 3647.000
1169.235, 3639.000
1170.323, 3586.000
1171.410, 3667.000
1172.498, 3726.000
1173.585, 3656.000
1174.673, 3700.000
1175.760, 3627.000
1176.847, 3645.000
1177.934, 3672.000
1179.020, 3754.000
1180.107, 3697.000
1181.193, 3723.000
1182.279, 3698.000
1183.365, 3655.000
1184.451, 3685.000
1185.537, 3710.000
1186.623, 3711.000
1187.708, 3721.000
1188.793, 3720.000
1189.878, 3733.863
1190.963, 3732.000
1192.048, 3762.000
1193.133, 3752.000
1194.217, 3767.465
1195.302, 3736.000
1196.386, 3764.000
1197.470, 3750.000
1198.554, 3771.000
1199.638, 3812.000
1200.721, 3754.000
1201.805, 3697.000
1202.888, 3830.000
1203.971, 3828.000
1205.054, 3882.000
1206.137, 3803.000
1207.219, 3842.000
1208.302, 3834.000
1209.384, 3857.000
1210.466, 3881.000
1211.548, 3869.000
1212.630, 3901.810
1213.712, 3879.000
1214.794, 3933.000
1215.875, 3910.000
1216.956, 3899.000
1218.037, 3960.000
1219.118, 3928.000
1220.199, 3941.000
1221.280, 3958.842
1222.360, 3967.000
1223.441, 3979.000
1224.521, 4045.000
1225.601, 4061.000
1226.681, 4063.000
1227.760, 4037.000
1228.840, 3976.000
1229.919, 3921.000
1230.999, 4029.000
1232.078, 4072.000
1233.157, 4158.000
1234.236, 4143.569
1235.314, 4030.000
1236.393, 4075.000
1237.471, 4054.000
1238.549, 3991.000
1239.627, 4019.070
1240.705, 4006.378
1241.783, 4020.000
1242.860, 4000.000
1243.938, 4015.000
1245.015, 3941.000
1246.092, 4040.000
1247.169, 3984.000
1248.246, 4040.000
1249.323, 4022.000
1250.399, 4051.000
1251.475, 4041.000
1252.552, 4027.033
1253.628, 4033.892
1254.703, 3992.000
1255.779, 4018.000
1256.855, 4007.000
1257.930, 3988.000
1259.005, 3993.000
1260.080, 3961.000
1261.155, 3979.000
1262.230, 3963.000
1263.305, 4011.000
1264.379, 4030.000
1265.454, 4025.000
1266.528, 4032.737
1267.602, 3895.000
1268.676, 3985.000
1269.750, 3981.000
1270.823, 3908.000
1271.897, 3995.000
1272.970, 4020.000
1274.043, 3963.000
1275.116, 3981.000
1276.189, 3927.000
1277.261, 3971.000
1278.334, 3866.000
1279.406, 3970.000
1280.478, 3957.000
1281.550, 3918.000
1282.622, 3979.000
1283.694, 3898.000
1284.766, 4041.000
1285.837, 3977.000
1286.908, 3994.000
1287.979, 3815.000
1289.050, 3852.000
1290.121, 3834.000
1291.192, 3825.000
1292.262, 3800.000
1293.333, 3808.210
1294.403, 3772.000
1295.473, 3816.000
1296.543, 3781.000
1297.613, 3766.000
1298.682, 3745.000
1299.752, 3747.000
1300.821, 3789.000
1301.890, 3671.000
1302.959, 3660.000
1304.028, 3748.000
1305.096, 3672.000
1306.165, 3724.000
1307.233, 3629.000
1308.301, 3679.000
1309.370, 3595.000
1310.437, 3706.000
1311.505, 3706.000
1312.573, 3639.000
1313.640, 3689.000
1314.708, 3639.000
1315.775, 3651.000
1316.842, 3600.000
1317.908, 3612.000
1318.975, 3583.000
1320.042, 3538.000
1321.108, 3551.000
1322.174, 3597.000
1323.240, 3548.000
1324.306, 3583.000
1325.372, 3589.000
1326.438, 3537.000
1327.503, 3572.000
1328.568, 3624.000
1329.634, 3503.000
1330.699, 3642.000
1331.763, 3625.000
1332.828, 3557.000
1333.893, 3557.000
1334.957, 3608.000
1336.021, 3493.000
1337.085, 3581.000
1338.149, 3516.000
1339.213, 3525.000
1340.277, 3539.000
1341.340, 3567.000
1342.404, 3509.000
1343.467, 3591.000
1344.530, 3557.000
1345.593, 3634.000
1346.655, 3538.000
1347.718, 3581.000
1348.780, 3551.000
1349.843, 3580.000
1350.905, 3576.000
1351.967, 3500.000
1353.028, 3613.000
1354.090, 3608.000
1355.152, 3555.000
1356.213, 3583.000
1357.274, 3652.000
1358.335, 3653.000
1359.396, 3572.000
1360.457, 3594.000
1361.517, 3538.000
1362.578, 3611.000
1363.638, 3641.000
1364.698, 3644.000
1365.758, 3701.000
1366.818, 3566.000
1367.878, 3599.000
1368.937, 3734.000
1369.997, 3537.000
1371.056, 3766.000
1372.115, 3654.000
1373.174, 3654.000
1374.232, 3713.000
1375.291, 3707.000
1376.350, 3699.000
1377.408, 3678.000
1378.466, 3650.000
1379.524, 3657.000
1380.582, 3586.000
1381.640, 3636.000
1382.697, 3632.000
1383.754, 3707.000
1384.812, 3714.000
1385.869, 3573.000
1386.926, 3590.000
1387.983, 3588.000
1389.039, 3667.000
1390.096, 3593.000
1391.152, 3654.000
1392.208, 3627.000
1393.264, 3649.000
1394.320, 3638.000
1395.376, 3660.000
1396.431, 3655.367
1397.487, 3623.000
1398.542, 3649.000
1399.597, 3621.226
1400.652, 3546.000
1401.707, 3593.000
1402.762, 3602.000
1403.816, 3593.000
1404.871, 3530.000
1405.925, 3665.000
1406.979, 3586.000
1408.033, 3666.000
1409.086, 3556.000
1410.140, 3637.000
1411.194, 3605.000
1412.247, 3605.000
1413.300, 3628.000
1414.353, 3637.000
1415.406, 3569.000
1416.458, 3657.000
1417.511, 3638.000
1418.563, 3700.000
1419.616, 3663.000
1420.668, 3630.000
1421.720, 3692.088
1422.772, 3727.182
1423.823, 3747.075
1424.875, 3752.585
1425.926, 3700.629
1426.977, 3722.878
1428.028, 3715.389
1429.079, 3706.680
1430.130, 3739.372
1431.180, 3695.775
1432.231, 3727.810
1433.281, 3729.654
1434.331, 3745.316
1435.381, 3731.056
1436.431, 3764.000
1437.481, 3697.000
1438.530, 3729.000
1439.580, 3748.000
1440.629, 3786.000
1441.678, 3803.000
1442.727, 3810.540
1443.776, 3835.000
1444.824, 3831.000
1445.873, 3843.802
1446.921, 3821.000
1447.969, 3840.000
1449.017, 3830.000
1450.065, 3791.000
1451.113, 3866.000
1452.160, 3824.000
1453.208, 3917.000
1454.255, 3922.000
1455.302, 3904.000
1456.349, 3856.000
1457.396, 4011.000
1458.443, 3982.000
1459.489, 3955.000
1460.535, 4021.000
1461.582, 3969.000
1462.628, 4010.000
1463.674, 3975.000
1464.719, 4092.000
1465.765, 4060.000
1466.810, 4023.000
1467.856, 4155.000
1468.901, 4102.000
1469.946, 4117.000
1470.991, 4164.000
1472.035, 4110.000
1473.080, 4149.000
1474.124, 4147.000
1475.169, 4156.000
1476.213, 4240.000
1477.257, 4189.000
1478.300, 4280.000
1479.344, 4391.000
1480.388, 4382.932
1481.431, 4367.000
1482.474, 4440.000
1483.517, 4337.000
1484.560, 4330.000
1485.603, 4370.000
1486.645, 4377.000
1487.688, 4439.000
1488.730, 4396.000
1489.772, 4509.000
1490.814, 4410.000
1491.856, 4443.000
1492.898, 4554.000
1493.939, 4531.987
1494.981, 4551.956
1496.022, 4592.000
1497.063, 4582.000
1498.104, 4548.000
1499.145, 4689.000
1500.186, 4580.000
1501.226, 4635.000
1502.266, 4587.000
1503.307, 4590.000
1504.347, 4620.000
1505.387, 4563.000
1506.426, 4523.000
1507.466, 4599.000
1508.505, 4448.000
1509.545, 4515.000
1510.584, 4449.000
1511.623, 4418.000
1512.662, 4401.000
1513.700, 4427.000
1514.739, 4360.000
1515.777, 4298.000
1516.815, 4256.000
1517.854, 4292.000
1518.892, 4231.000
1519.929, 4180.000
1520.967, 4081.000
1522.004, 4118.000
1523.042, 4154.000
1524.079, 4108.000
1525.116, 4036.000
1526.153, 4071.000
1527.190, 3999.000
1528.226, 4016.000
1529.263, 3923.000
1530.299, 3960.000
1531.335, 3894.000
1532.371, 3903.000
1533.407, 3878.000
1534.443, 3814.000
1535.478, 3839.000
1536.514, 3878.000
1537.549, 3777.000
1538.584, 3773.000
1539.619, 3844.000
1540.654, 3776.000
1541.689, 3775.000
1542.723, 3807.000
1543.757, 3755.000
1544.792, 3782.000
1545.826, 3844.000
1546.860, 3745.000
1547.893, 3756.000
1548.927, 3823.000
1549.960, 3827.000
1550.994, 3805.000
1552.027, 3875.000
1553.060, 3896.000
1554.093, 3888.000
1555.126, 3989.000
1556.158, 3878.000
1557.191, 3872.000
1558.223, 3901.000
1559.255, 3787.000
1560.287, 3763.000
1561.319, 3795.000
1562.350, 3774.000
1563.382, 3740.000
1564.413, 3851.000
1565.444, 3829.000
1566.476, 3936.000
1567.506, 3895.839
1568.537, 3814.743
1569.568, 3869.353
1570.598, 3896.839
1571.629, 3898.646
1572.659, 3797.892
1573.689, 3829.583
1574.719, 3808.196
1575.749, 3784.632
1576.778, 3834.971
1577.808, 3795.000
##END=



