##NAMES=Huntite
##RRUFFID=R040126
##IDEAL CHEMISTRY=CaMg_3_(CO_3_)_4_
##LOCALITY=Crestmore Quarry, Riverside County, California, USA
##OWNER=RRUFF
##SOURCE=University of Arizona Mineral Museum
##DESCRIPTION=White fine-grained massive
##STATUS=The identification of this mineral has been confirmed by X-ray diffraction and chemical analysis
##URL=rruff.info/R040126
##MEASURED CHEMISTRY=Ca_0.97_Mg_3.02_(CO_3_)_4_
##PIN_ID=M00404
116.427, 6246.000
117.812, 6464.000
119.197, 6763.000
120.581, 6936.000
121.966, 7024.000
123.350, 6867.000
124.734, 6793.000
126.117, 6798.000
127.501, 6791.000
128.884, 6750.000
130.267, 6718.000
131.650, 6674.000
133.033, 6668.000
134.415, 6734.000
135.797, 6734.000
137.179, 6800.000
138.561, 6794.000
139.943, 6830.000
141.324, 6913.000
142.705, 6829.000
144.086, 6972.000
145.467, 7017.000
146.847, 7079.000
148.228, 7076.000
149.608, 7164.000
150.988, 7314.000
152.367, 7466.000
153.747, 7556.000
155.126, 7661.000
156.505, 7895.000
157.884, 8028.000
159.262, 8179.000
160.641, 8026.000
162.019, 7906.000
163.397, 7622.000
164.775, 7544.000
166.152, 7383.000
167.530, 7385.000
168.907, 7402.000
170.284, 7395.000
171.660, 7414.000
173.037, 7571.000
174.413, 7399.000
175.789, 7453.000
177.165, 7472.000
178.541, 7358.000
179.916, 7498.000
181.292, 7433.000
182.667, 7449.000
184.042, 7460.000
185.416, 7450.000
186.791, 7448.000
188.165, 7473.181
189.539, 7467.725
190.912, 7538.000
192.286, 7509.000
193.659, 7566.000
195.033, 7650.000
196.406, 7627.000
197.778, 7649.000
199.151, 7656.000
200.523, 7636.000
201.895, 7576.000
203.267, 7612.000
204.639, 7667.000
206.010, 7702.000
207.381, 7755.000
208.753, 7730.000
210.123, 7848.000
211.494, 7773.000
212.864, 7829.000
214.235, 7930.000
215.605, 8018.000
216.974, 7964.000
218.344, 8043.000
219.713, 7950.000
221.083, 8026.000
222.452, 8109.000
223.820, 8102.000
225.189, 8226.000
226.557, 8320.000
227.925, 8442.000
229.293, 8624.000
230.661, 8802.000
232.029, 8979.000
233.396, 8970.000
234.763, 9069.000
236.130, 9119.000
237.496, 9098.000
238.863, 9192.000
240.229, 9327.000
241.595, 9657.000
242.961, 10030.000
244.327, 10460.000
245.692, 10800.000
247.057, 11310.000
248.422, 11410.000
249.787, 11550.000
251.152, 11470.000
252.516, 11580.000
253.880, 11770.000
255.244, 11990.000
256.608, 11880.000
257.972, 11680.000
259.335, 11270.000
260.698, 10810.000
262.061, 10300.000
263.424, 9833.000
264.786, 9601.000
266.149, 9487.000
267.511, 9689.000
268.873, 10000.000
270.234, 10530.000
271.596, 10960.000
272.957, 11780.000
274.318, 12290.000
275.679, 12740.000
277.040, 12570.000
278.400, 12120.000
279.760, 11750.000
281.120, 11520.000
282.480, 11390.000
283.840, 11120.000
285.199, 10710.000
286.558, 10390.000
287.917, 10050.000
289.276, 9777.943
290.635, 9519.000
291.993, 9341.000
293.351, 9296.000
294.709, 9201.000
296.067, 9161.000
297.425, 9180.000
298.782, 9111.000
300.139, 9096.000
301.496, 8971.000
302.853, 9126.000
304.209, 9072.000
305.566, 9186.000
306.922, 9289.000
308.278, 9272.000
309.633, 9512.000
310.989, 9623.000
312.344, 9897.000
313.699, 10320.000
315.054, 10710.000
316.409, 11040.000
317.763, 11420.000
319.118, 11560.000
320.472, 11370.000
321.826, 11340.000
323.179, 10800.000
324.533, 10460.000
325.886, 10080.000
327.239, 9859.000
328.592, 9770.000
329.944, 9664.000
331.297, 9520.000
332.649, 9380.000
334.001, 9322.000
335.353, 9295.000
336.704, 9274.000
338.056, 9280.000
339.407, 9274.000
340.758, 9305.000
342.109, 9295.396
343.459, 9291.000
344.810, 9314.000
346.160, 9305.000
347.510, 9355.000
348.860, 9375.000
350.209, 9330.000
351.559, 9376.000
352.908, 9344.000
354.257, 9433.000
355.605, 9521.000
356.954, 9443.000
358.302, 9571.000
359.650, 9587.000
360.998, 9813.000
362.346, 9611.000
363.694, 9682.000
365.041, 9776.000
366.388, 9740.000
367.735, 9925.000
369.082, 9865.000
370.428, 9909.000
371.774, 9878.000
373.121, 9991.000
374.466, 9973.120
375.812, 9894.000
377.158, 10000.000
378.503, 10020.000
379.848, 10040.000
381.193, 9926.000
382.537, 9993.000
383.882, 10140.000
385.226, 10030.000
386.570, 10130.000
387.914, 10210.000
389.258, 10250.000
390.601, 10310.000
391.944, 10340.000
393.287, 10351.805
394.630, 10340.000
395.973, 10370.000
397.315, 10340.000
398.658, 10380.000
400.000, 10210.000
401.342, 10210.000
402.683, 10230.000
404.025, 10140.000
405.366, 10140.000
406.707, 10170.000
408.048, 10020.000
409.388, 10110.000
410.729, 10110.000
412.069, 10120.000
413.409, 10130.264
414.749, 10115.911
416.088, 10110.000
417.428, 10100.000
418.767, 10110.000
420.106, 10130.000
421.445, 10110.000
422.783, 10200.000
424.122, 10100.000
425.460, 10270.000
426.798, 10110.000
428.136, 10130.000
429.473, 10120.000
430.811, 10160.000
432.148, 10160.000
433.485, 10200.000
434.821, 10140.000
436.158, 10188.707
437.494, 10240.000
438.831, 10230.000
440.167, 10290.000
441.502, 10290.000
442.838, 10370.000
444.173, 10390.000
445.508, 10406.034
446.843, 10320.000
448.178, 10430.000
449.513, 10440.000
450.847, 10450.000
452.181, 10610.000
453.515, 10480.000
454.849, 10470.000
456.183, 10450.000
457.516, 10520.000
458.849, 10440.000
460.182, 10490.000
461.515, 10540.000
462.847, 10510.000
464.180, 10575.945
465.512, 10585.362
466.844, 10640.000
468.176, 10620.000
469.507, 10620.000
470.839, 10610.000
472.170, 10570.000
473.501, 10750.000
474.831, 10720.000
476.162, 10720.000
477.492, 10720.000
478.822, 10740.000
480.152, 10780.000
481.482, 10780.000
482.812, 10809.946
484.141, 10840.000
485.470, 10860.000
486.799, 10830.000
488.128, 10870.000
489.457, 10820.000
490.785, 11060.000
492.113, 10850.000
493.441, 11060.000
494.769, 10900.000
496.096, 11050.000
497.424, 10950.000
498.751, 11030.000
500.078, 11140.000
501.405, 11000.000
502.731, 11000.000
504.058, 11160.000
505.384, 10970.000
506.710, 11210.000
508.035, 11270.000
509.361, 11160.000
510.686, 11240.000
512.012, 11150.000
513.337, 11230.000
514.661, 11240.000
515.986, 11330.000
517.310, 11300.000
518.634, 11310.000
519.958, 11300.000
521.282, 11350.000
522.606, 11400.000
523.929, 11320.000
525.252, 11480.000
526.575, 11430.000
527.898, 11540.000
529.221, 11370.000
530.543, 11430.000
531.865, 11460.000
533.187, 11450.000
534.509, 11500.000
535.831, 11505.074
537.152, 11480.000
538.473, 11530.000
539.794, 11570.000
541.115, 11570.000
542.436, 11620.588
543.756, 11650.676
545.076, 11690.000
546.396, 11740.000
547.716, 11780.000
549.036, 11847.759
550.355, 11700.000
551.674, 11890.000
552.994, 11800.000
554.312, 11760.000
555.631, 11890.000
556.949, 11760.000
558.268, 12010.000
559.586, 11880.000
560.904, 11910.000
562.221, 11880.000
563.539, 12000.000
564.856, 12040.000
566.173, 11980.000
567.490, 11900.000
568.807, 12110.000
570.123, 12110.000
571.439, 12170.000
572.755, 12080.000
574.071, 12090.000
575.387, 12070.000
576.702, 12060.000
578.018, 12230.000
579.333, 12150.000
580.648, 12260.000
581.962, 12250.000
583.277, 12170.000
584.591, 12310.000
585.905, 12260.000
587.219, 12370.000
588.533, 12160.000
589.846, 12200.000
591.160, 12440.000
592.473, 12260.000
593.786, 12450.000
595.099, 12440.000
596.411, 12350.000
597.723, 12400.000
599.036, 12470.000
600.348, 12500.000
601.659, 12570.000
602.971, 12440.000
604.282, 12510.000
605.593, 12510.000
606.904, 12630.000
608.215, 12570.000
609.526, 12640.000
610.836, 12720.000
612.146, 12650.000
613.456, 12720.000
614.766, 12730.000
616.076, 12750.000
617.385, 12780.000
618.694, 12730.000
620.003, 12810.000
621.312, 12860.000
622.621, 12790.000
623.929, 12870.000
625.237, 12860.000
626.546, 12940.000
627.853, 12900.000
629.161, 12780.000
630.468, 13040.000
631.776, 12970.000
633.083, 13120.000
634.390, 13010.000
635.696, 13120.000
637.003, 12990.000
638.309, 13010.000
639.615, 13160.000
640.921, 13040.000
642.227, 13290.000
643.532, 13260.000
644.838, 13170.000
646.143, 13230.000
647.448, 13220.000
648.752, 13250.000
650.057, 13360.000
651.361, 13230.000
652.666, 13430.000
653.969, 13310.000
655.273, 13440.000
656.577, 13430.000
657.880, 13410.000
659.183, 13490.000
660.486, 13460.281
661.789, 13520.000
663.092, 13490.000
664.394, 13530.000
665.696, 13600.000
666.998, 13530.000
668.300, 13740.000
669.602, 13550.000
670.903, 13660.000
672.205, 13590.000
673.506, 13700.000
674.806, 13800.000
676.107, 13830.000
677.408, 13750.000
678.708, 13950.000
680.008, 13720.000
681.308, 13960.000
682.608, 13780.000
683.907, 13890.000
685.206, 13920.000
686.506, 13950.000
687.804, 14010.000
689.103, 14060.000
690.402, 14100.000
691.700, 14130.000
692.998, 14070.000
694.296, 14240.000
695.594, 14260.000
696.892, 14270.000
698.189, 14430.000
699.486, 14430.000
700.783, 14580.000
702.080, 14540.000
703.377, 14590.000
704.673, 14750.000
705.969, 14530.000
707.265, 14680.000
708.561, 14790.000
709.857, 14720.000
711.152, 14690.000
712.447, 14830.000
713.743, 14780.000
715.037, 14900.000
716.332, 14850.000
717.627, 14944.802
718.921, 14940.000
720.215, 15090.000
721.509, 15200.000
722.803, 15220.000
724.096, 15360.000
725.390, 15540.000
726.683, 15590.000
727.976, 15680.000
729.269, 15580.000
730.561, 15490.000
731.854, 15430.000
733.146, 15340.000
734.438, 15300.000
735.730, 15050.000
737.021, 15120.000
738.313, 15070.000
739.604, 15200.000
740.895, 15240.000
742.186, 15350.000
743.476, 15290.000
744.767, 15270.000
746.057, 15320.000
747.347, 15290.000
748.637, 15340.000
749.927, 15310.000
751.216, 15330.000
752.506, 15300.000
753.795, 15360.000
755.084, 15260.000
756.373, 15410.000
757.661, 15280.000
758.950, 15350.000
760.238, 15310.000
761.526, 15316.158
762.814, 15340.000
764.101, 15360.000
765.389, 15350.000
766.676, 15360.000
767.963, 15510.000
769.250, 15510.000
770.536, 15440.000
771.823, 15580.000
773.109, 15380.000
774.395, 15360.000
775.681, 15580.000
776.967, 15660.000
778.252, 15770.000
779.538, 15806.342
780.823, 15640.000
782.108, 15790.000
783.393, 15700.000
784.677, 15670.000
785.962, 15750.000
787.246, 15730.000
788.530, 15820.000
789.814, 15780.000
791.097, 15720.000
792.381, 15830.000
793.664, 15750.000
794.947, 15870.000
796.230, 16010.000
797.513, 15860.000
798.795, 15980.000
800.077, 16000.000
801.359, 16040.000
802.641, 15930.000
803.923, 16060.000
805.205, 16060.000
806.486, 16180.000
807.767, 16010.000
809.048, 16170.000
810.329, 16100.000
811.610, 16100.000
812.890, 16200.000
814.170, 16170.000
815.450, 16270.000
816.730, 16320.000
818.010, 16300.000
819.289, 16180.000
820.569, 16350.000
821.848, 16350.000
823.126, 16490.000
824.405, 16506.047
825.684, 16490.000
826.962, 16520.000
828.240, 16530.000
829.518, 16510.000
830.796, 16580.000
832.074, 16670.000
833.351, 16530.000
834.628, 16740.000
835.905, 16580.000
837.182, 16620.000
838.459, 16800.000
839.735, 16790.000
841.011, 16780.000
842.287, 16880.000
843.563, 16740.000
844.839, 16920.000
846.115, 16790.000
847.390, 16930.000
848.665, 17150.000
849.940, 16990.000
851.215, 17050.000
852.489, 16850.000
853.764, 17140.000
855.038, 17130.000
856.312, 17020.000
857.586, 17110.000
858.859, 17290.000
860.133, 17070.000
861.406, 17380.000
862.679, 17070.000
863.952, 17370.000
865.225, 17310.000
866.497, 17120.000
867.770, 17410.000
869.042, 17320.000
870.314, 17560.000
871.585, 17480.000
872.857, 17590.000
874.128, 17510.000
875.400, 17770.000
876.671, 17800.000
877.942, 18200.000
879.212, 18650.000
880.483, 19060.000
881.753, 18830.000
883.023, 18420.000
884.293, 18210.000
885.563, 17900.000
886.832, 18010.000
888.101, 17780.000
889.371, 17780.000
890.640, 17920.000
891.908, 17970.000
893.177, 17810.000
894.445, 17920.000
895.714, 17970.000
896.982, 18020.000
898.250, 18100.000
899.517, 17960.000
900.785, 18160.000
902.052, 17990.000
903.319, 18210.000
904.586, 18220.000
905.853, 18120.000
907.119, 18230.000
908.386, 18110.000
909.652, 18240.000
910.918, 18080.000
912.184, 18380.000
913.449, 18480.000
914.715, 18310.000
915.980, 18320.000
917.245, 18540.000
918.510, 18410.000
919.775, 18640.000
921.039, 18540.000
922.303, 18570.000
923.568, 18560.000
924.831, 18730.000
926.095, 18630.000
927.359, 18750.000
928.622, 18750.000
929.885, 18840.000
931.148, 18660.000
932.411, 18840.000
933.674, 18970.000
934.936, 18760.000
936.199, 19010.000
937.461, 18810.000
938.723, 18880.000
939.984, 19110.000
941.246, 18930.000
942.507, 19110.000
943.769, 19320.000
945.030, 19100.000
946.290, 19030.000
947.551, 19270.000
948.811, 19260.000
950.072, 19390.000
951.332, 19270.000
952.592, 19380.000
953.851, 19210.000
955.111, 19370.000
956.370, 19550.000
957.629, 19300.000
958.888, 19650.000
960.147, 19600.000
961.406, 19610.000
962.664, 19630.000
963.922, 19520.000
965.180, 19670.000
966.438, 19710.000
967.696, 19830.000
968.953, 19700.000
970.211, 19600.000
971.468, 19590.000
972.725, 19870.000
973.982, 19920.000
975.238, 19960.000
976.495, 19930.000
977.751, 19790.000
979.007, 20040.000
980.263, 19880.000
981.518, 20090.000
982.774, 19910.000
984.029, 20010.000
985.284, 20120.000
986.539, 20020.000
987.794, 20170.000
989.048, 20110.000
990.303, 20050.000
991.557, 20200.000
992.811, 20440.000
994.065, 20200.000
995.318, 20420.000
996.572, 20290.000
997.825, 20510.000
999.078, 20450.000
1000.331, 20230.000
1001.584, 20480.000
1002.836, 20610.000
1004.089, 20460.000
1005.341, 20750.000
1006.593, 20470.000
1007.845, 20810.000
1009.096, 20410.000
1010.348, 20750.000
1011.599, 20720.000
1012.850, 20520.000
1014.101, 20870.000
1015.352, 20730.000
1016.602, 20900.000
1017.853, 20940.000
1019.103, 20840.000
1020.353, 21010.000
1021.603, 20960.000
1022.852, 20970.000
1024.102, 21050.000
1025.351, 21200.000
1026.600, 21080.000
1027.849, 21320.000
1029.098, 21100.000
1030.346, 21340.000
1031.595, 21290.000
1032.843, 21250.000
1034.091, 21360.000
1035.339, 21360.000
1036.586, 21400.000
1037.834, 21550.000
1039.081, 21300.000
1040.328, 21300.000
1041.575, 21530.000
1042.822, 21460.000
1044.068, 21690.000
1045.314, 21500.000
1046.561, 21610.000
1047.807, 21880.000
1049.052, 21700.000
1050.298, 21800.000
1051.544, 21700.000
1052.789, 21860.000
1054.034, 22050.000
1055.279, 21780.000
1056.523, 21960.000
1057.768, 21870.000
1059.012, 21900.000
1060.257, 22000.000
1061.501, 22070.000
1062.744, 22020.000
1063.988, 22100.000
1065.231, 21970.000
1066.475, 22350.000
1067.718, 22260.000
1068.961, 22180.000
1070.203, 22520.000
1071.446, 22240.000
1072.688, 22410.000
1073.931, 22430.000
1075.173, 22240.000
1076.414, 22550.000
1077.656, 22430.000
1078.898, 22590.000
1080.139, 22650.000
1081.380, 22500.000
1082.621, 22730.000
1083.862, 22590.000
1085.102, 22610.000
1086.343, 22800.000
1087.583, 22770.000
1088.823, 22690.000
1090.063, 23010.000
1091.302, 22880.000
1092.542, 23020.000
1093.781, 22980.000
1095.020, 22890.000
1096.259, 23480.000
1097.498, 23280.000
1098.737, 23280.000
1099.975, 23520.000
1101.213, 23490.000
1102.451, 23670.000
1103.689, 23580.000
1104.927, 23810.000
1106.164, 24140.000
1107.402, 24300.000
1108.639, 24650.000
1109.876, 24690.000
1111.113, 24850.000
1112.349, 25390.000
1113.586, 25430.000
1114.822, 26130.000
1116.058, 27050.000
1117.294, 27590.000
1118.530, 29830.000
1119.765, 32400.000
1121.001, 37020.000
1122.236, 44920.000
1123.471, 52510.000
1124.706, 57020.000
1125.940, 54000.000
1127.175, 45690.000
1128.409, 39340.000
1129.643, 33660.000
1130.877, 30040.000
1132.111, 27920.000
1133.344, 26350.000
1134.578, 25690.000
1135.811, 25320.000
1137.044, 24740.000
1138.277, 24840.000
1139.510, 24300.000
1140.742, 23920.000
1141.974, 24390.000
1143.206, 24030.000
1144.438, 24180.000
1145.670, 24160.000
1146.902, 24020.000
1148.133, 24220.000
1149.365, 24070.000
1150.596, 23950.000
1151.827, 24250.000
1153.057, 23890.000
1154.288, 24190.000
1155.518, 24160.000
1156.748, 24070.000
1157.978, 24420.000
1159.208, 23990.000
1160.438, 24300.000
1161.667, 24450.000
1162.897, 24120.000
1164.126, 24260.000
1165.355, 24480.000
1166.583, 24190.000
1167.812, 24440.000
1169.040, 24420.000
1170.269, 24370.000
1171.497, 24420.000
1172.725, 24320.000
1173.952, 24580.000
1175.180, 24580.000
1176.407, 24360.000
1177.634, 24590.000
1178.861, 24470.000
1180.088, 24580.000
1181.315, 24850.000
1182.541, 24580.000
1183.767, 24770.000
1184.994, 24810.000
1186.220, 24610.000
1187.445, 25120.000
1188.671, 24710.000
1189.896, 24870.000
1191.121, 25110.000
1192.346, 24650.000
1193.571, 24930.000
1194.796, 25230.000
1196.021, 24890.000
1197.245, 25140.000
1198.469, 25180.000
1199.693, 25050.000
1200.917, 25410.000
1202.140, 25020.000
1203.364, 25300.000
1204.587, 25590.000
1205.810, 25330.000
1207.033, 25430.000
1208.256, 25390.000
1209.479, 25310.000
1210.701, 25440.000
1211.923, 25290.000
1213.145, 25580.000
1214.367, 25820.000
1215.589, 25450.000
1216.810, 25740.000
1218.032, 25570.000
1219.253, 25580.000
1220.474, 25840.000
1221.695, 25650.000
1222.915, 25760.000
1224.136, 25840.000
1225.356, 25490.000
1226.576, 25980.000
1227.796, 25920.000
1229.016, 25800.000
1230.235, 26280.000
1231.455, 25870.000
1232.674, 26180.000
1233.893, 26110.000
1235.112, 25920.000
1236.331, 26200.000
1237.549, 26140.000
1238.767, 26120.000
1239.986, 26570.000
1241.204, 26180.000
1242.421, 26380.000
1243.639, 26590.000
1244.857, 26050.000
1246.074, 26590.000
1247.291, 26310.000
1248.508, 26130.000
1249.725, 26590.000
1250.941, 26430.000
1252.158, 26530.000
1253.374, 26650.000
1254.590, 26570.000
1255.806, 26770.000
1257.022, 27010.000
1258.237, 26640.000
1259.453, 26890.000
1260.668, 26620.000
1261.883, 26780.000
1263.098, 26870.000
1264.312, 26610.000
1265.527, 27030.000
1266.741, 26920.000
1267.955, 26800.000
1269.169, 26930.000
1270.383, 27040.000
1271.597, 26860.000
1272.810, 27130.000
1274.024, 26780.000
1275.237, 27090.000
1276.450, 27350.000
1277.662, 27210.000
1278.875, 27360.000
1280.087, 27340.000
1281.300, 27080.000
1282.512, 27620.000
1283.724, 27250.000
1284.935, 27280.000
1286.147, 27660.000
1287.358, 27160.000
1288.569, 27470.000
1289.780, 27510.000
1290.991, 27450.000
1292.202, 27820.000
1293.412, 27410.000
1294.623, 27630.000
1295.833, 27840.000
1297.043, 27530.000
1298.253, 27680.000
1299.462, 28000.000
1300.672, 27700.000
1301.881, 27910.000
1303.090, 27830.000
1304.299, 27550.000
1305.508, 27960.000
1306.716, 27880.000
1307.925, 27860.000
1309.133, 28140.000
1310.341, 27740.000
1311.549, 28310.000
1312.757, 28150.000
1313.964, 27860.000
1315.172, 28400.000
1316.379, 28230.000
1317.586, 28240.000
1318.793, 28540.000
1320.000, 28020.000
1321.206, 28610.000
1322.412, 28530.000
1323.619, 28060.000
1324.825, 28880.000
1326.030, 28560.000
1327.236, 28490.000
1328.442, 28770.000
1329.647, 28630.000
##END=



