##NAMES=Hydroxylbastnasite-(Ce)
##RRUFFID=R060283
##IDEAL CHEMISTRY=CeCO_3_(OH)
##LOCALITY=Trimouns, Luzenac, France
##OWNER=RRUFF
##SOURCE=Herb Obodda
##DESCRIPTION=Brown hexagonal tablet
##STATUS=The identification of this mineral has been confirmed by X-ray diffraction and chemical analysis
##URL=rruff.info/R060283
##MEASURED CHEMISTRY=(Ce_0.50_Nd_0.24_(La,Pr)_0.23_Y_0.03_)_Σ=1_CO_3_((OH)_0.65_F_0.35_)_Σ=1_
##PIN_ID=M00326
##ORIENTATION=Laser parallel to -c* (0 0 -1). Fiducial mark perpendicular to laser is parallel to a [1 0 0]
41.83100, 679.0000
43.08100, 647.0000
44.32900, 657.0000
45.57800, 650.0000
46.82700, 629.0000
48.07500, 628.0000
49.32300, 615.0000
50.57100, 606.0000
51.81900, 617.0000
53.06700, 598.0000
54.31400, 586.0000
55.56200, 594.0000
56.80900, 565.0000
58.05600, 560.0000
59.30200, 596.0000
60.54900, 582.0000
61.79500, 577.0000
63.04200, 559.0000
64.28800, 551.0000
65.53300, 560.0000
66.77900, 566.0000
68.02500, 551.0000
69.27000, 574.0000
70.51500, 536.0000
71.76000, 561.0000
73.00500, 558.0000
74.24900, 539.0000
75.49400, 554.0000
76.73800, 569.0000
77.98200, 567.0000
79.22600, 555.0000
80.46900, 551.0000
81.71300, 544.9223
82.95600, 551.0000
84.19900, 539.0000
85.44200, 536.0000
86.68500, 545.0000
87.92800, 540.0000
89.17000, 544.9982
90.41200, 542.0000
91.65500, 553.0000
92.89600, 545.0000
94.13800, 551.0000
95.38000, 572.0000
96.62100, 608.0000
97.86200, 646.0400
99.10300, 698.0000
100.3440, 762.0000
101.5850, 837.0000
102.8250, 928.0000
104.0650, 1121.000
105.3050, 1282.000
106.5450, 1531.000
107.7850, 1941.000
109.0250, 2282.000
110.2640, 2798.000
111.5030, 3402.000
112.7420, 4188.000
113.9810, 5316.000
115.2200, 6753.000
116.4580, 8162.000
117.6970, 9420.000
118.9350, 9862.000
120.1730, 9671.000
121.4100, 9088.000
122.6480, 8418.000
123.8850, 7997.000
125.1230, 7955.000
126.3600, 7990.000
127.5960, 8384.000
128.8330, 9147.000
130.0700, 9892.000
131.3060, 10795.00
132.5420, 11205.00
133.7780, 11890.00
135.0140, 12199.00
136.2500, 12171.00
137.4850, 12079.00
138.7200, 11995.00
139.9550, 11840.00
141.1900, 11595.00
142.4250, 11118.00
143.6600, 10811.00
144.8940, 10618.00
146.1280, 10341.00
147.3620, 10272.00
148.5960, 10321.00
149.8300, 10721.00
151.0630, 10942.00
152.2960, 11587.00
153.5300, 11981.00
154.7620, 12641.00
155.9950, 12645.00
157.2280, 12772.00
158.4600, 12626.00
159.6920, 12177.00
160.9250, 11757.00
162.1560, 11103.00
163.3880, 10593.00
164.6200, 10282.00
165.8510, 9899.000
167.0820, 9856.000
168.3130, 9838.000
169.5440, 9814.000
170.7750, 10158.00
172.0050, 10453.00
173.2350, 10898.00
174.4650, 11195.00
175.6950, 11900.00
176.9250, 12073.00
178.1550, 12020.00
179.3840, 11963.00
180.6130, 11603.00
181.8420, 11443.00
183.0710, 11140.00
184.3000, 10928.00
185.5280, 10935.00
186.7570, 10962.00
187.9850, 11125.00
189.2130, 11578.00
190.4400, 11632.00
191.6680, 11914.00
192.8960, 12008.00
194.1230, 12122.00
195.3500, 12183.00
196.5770, 12013.00
197.8030, 11771.00
199.0300, 11771.00
200.2560, 11515.00
201.4830, 11273.00
202.7090, 10872.00
203.9340, 10372.00
205.1600, 9911.000
206.3860, 9390.000
207.6110, 8950.000
208.8360, 8575.000
210.0610, 8171.319
211.2860, 7902.000
212.5100, 7542.000
213.7350, 7357.000
214.9590, 7199.000
216.1830, 7080.000
217.4070, 7023.144
218.6310, 6920.000
219.8540, 6995.000
221.0780, 7117.000
222.3010, 7143.000
223.5240, 7309.000
224.7470, 7547.000
225.9690, 7607.000
227.1920, 7767.000
228.4140, 7949.000
229.6360, 7929.000
230.8580, 8199.000
232.0800, 8206.000
233.3020, 8203.000
234.5230, 8429.000
235.7440, 8430.000
236.9650, 8564.000
238.1860, 8658.000
239.4070, 8691.000
240.6280, 8675.000
241.8480, 8757.000
243.0680, 8890.000
244.2880, 9118.000
245.5080, 9296.000
246.7280, 9691.000
247.9470, 9899.000
249.1660, 10170.00
250.3860, 10441.00
251.6040, 10685.00
252.8230, 10996.00
254.0420, 11155.00
255.2600, 11417.00
256.4790, 11327.00
257.6970, 11564.00
258.9150, 11584.00
260.1320, 11381.00
261.3500, 11184.00
262.5670, 10797.00
263.7840, 10580.00
265.0010, 10089.00
266.2180, 9718.000
267.4350, 9460.000
268.6510, 9169.000
269.8680, 8780.000
271.0840, 8469.000
272.3000, 8188.000
273.5160, 7915.133
274.7310, 7713.000
275.9470, 7482.000
277.1620, 7204.000
278.3770, 7045.000
279.5920, 6930.000
280.8070, 6862.000
282.0210, 6745.198
283.2360, 6573.000
284.4500, 6614.000
285.6640, 6513.000
286.8780, 6529.000
288.0920, 6404.000
289.3050, 6461.000
290.5180, 6505.000
291.7320, 6539.000
292.9450, 6574.000
294.1570, 6685.000
295.3700, 6663.000
296.5830, 6786.000
297.7950, 6944.000
299.0070, 7057.000
300.2190, 7297.000
301.4310, 7491.373
302.6420, 7783.000
303.8540, 7975.000
305.0650, 8261.000
306.2760, 8529.000
307.4870, 8846.000
308.6980, 9291.000
309.9080, 9534.000
311.1190, 9792.000
312.3290, 10226.00
313.5390, 10497.00
314.7490, 10671.00
315.9580, 10951.00
317.1680, 11105.00
318.3770, 11249.00
319.5860, 11449.00
320.7950, 11887.00
322.0040, 11875.00
323.2130, 12150.00
324.4210, 12433.00
325.6290, 12508.00
326.8380, 12677.00
328.0460, 12929.00
329.2530, 13167.00
330.4610, 13163.00
331.6680, 13487.00
332.8760, 13478.00
334.0830, 13516.00
335.2890, 13608.00
336.4960, 13784.00
337.7030, 13793.00
338.9090, 13668.00
340.1150, 13825.00
341.3210, 14025.00
342.5270, 13854.00
343.7330, 13980.00
344.9380, 13823.00
346.1440, 13879.00
347.3490, 13804.00
348.5540, 13766.00
349.7590, 13481.00
350.9630, 13459.00
352.1680, 13360.00
353.3720, 12946.00
354.5760, 13034.00
355.7800, 12710.00
356.9840, 12414.00
358.1870, 12180.00
359.3910, 12002.00
360.5940, 11669.00
361.7970, 11339.00
363.0000, 11202.00
364.2030, 10915.00
365.4050, 10800.00
366.6080, 10359.00
367.8100, 10296.00
369.0120, 10121.00
370.2140, 9863.000
371.4150, 9767.000
372.6170, 9641.000
373.8180, 9362.000
375.0190, 9258.000
376.2200, 9097.000
377.4210, 8955.000
378.6220, 8800.000
379.8220, 8689.000
381.0230, 8487.000
382.2230, 8398.000
383.4230, 8193.000
384.6220, 8086.000
385.8220, 8050.000
387.0220, 7866.000
388.2210, 7671.000
389.4200, 7540.000
390.6190, 7620.000
391.8180, 7415.000
393.0160, 7413.000
394.2150, 7221.000
395.4130, 7113.000
396.6110, 7032.000
397.8090, 6991.000
399.0060, 6888.000
400.2040, 6847.000
401.4010, 6769.181
402.5980, 6704.000
403.7950, 6613.000
404.9920, 6513.000
406.1890, 6408.000
407.3860, 6350.326
408.5820, 6247.000
409.7780, 6206.000
410.9740, 6118.000
412.1700, 5979.000
413.3650, 5902.000
414.5610, 5906.000
415.7560, 5718.000
416.9510, 5676.000
418.1460, 5612.000
419.3410, 5505.000
420.5360, 5446.000
421.7300, 5379.000
422.9240, 5330.000
424.1180, 5244.000
425.3120, 5203.000
426.5060, 5068.000
427.7000, 5110.000
428.8930, 4971.000
430.0860, 4930.000
431.2790, 4884.000
432.4720, 4833.000
433.6650, 4814.000
434.8580, 4787.000
436.0500, 4844.000
437.2420, 4799.000
438.4340, 4761.000
439.6260, 4690.000
440.8180, 4804.000
442.0090, 4641.000
443.2010, 4692.000
444.3920, 4580.000
445.5830, 4631.000
446.7740, 4577.000
447.9640, 4553.000
449.1550, 4644.000
450.3450, 4582.183
451.5350, 4587.598
452.7250, 4556.000
453.9150, 4542.000
455.1050, 4533.000
456.2940, 4515.000
457.4830, 4502.947
458.6720, 4487.811
459.8610, 4474.000
461.0500, 4453.000
462.2390, 4436.350
463.4270, 4411.000
464.6150, 4349.000
465.8040, 4340.000
466.9910, 4276.000
468.1790, 4345.000
469.3670, 4310.000
470.5540, 4284.000
471.7410, 4262.000
472.9280, 4237.000
474.1150, 4183.000
475.3020, 4153.000
476.4890, 4091.000
477.6750, 4138.000
478.8610, 4174.000
480.0470, 4079.000
481.2330, 4043.000
482.4190, 3987.000
483.6040, 4009.000
484.7900, 3981.000
485.9750, 3980.000
487.1600, 3977.000
488.3450, 3940.000
489.5290, 3862.000
490.7140, 3892.000
491.8980, 3898.000
493.0820, 3887.000
494.2660, 3914.000
495.4500, 3899.695
496.6340, 3913.000
497.8170, 3897.000
499.0010, 3891.000
500.1840, 3911.000
501.3670, 3835.000
502.5500, 3866.000
503.7320, 3825.000
504.9150, 3807.000
506.0970, 3806.000
507.2790, 3796.000
508.4610, 3761.000
509.6430, 3783.000
510.8250, 3806.000
512.0060, 3833.000
513.1870, 3783.000
514.3680, 3719.000
515.5490, 3758.000
516.7300, 3829.000
517.9110, 3800.000
519.0910, 3832.000
520.2710, 3725.000
521.4510, 3817.000
522.6310, 3756.000
523.8110, 3835.000
524.9910, 3751.000
526.1700, 3786.000
527.3490, 3827.000
528.5280, 3933.000
529.7070, 3834.000
530.8860, 3908.000
532.0650, 3867.000
533.2430, 3843.000
534.4210, 3862.000
535.5990, 3868.684
536.7770, 3922.000
537.9550, 3930.000
539.1320, 4030.000
540.3100, 4060.000
541.4870, 3977.000
542.6640, 4104.000
543.8410, 4089.000
545.0170, 4164.000
546.1940, 4203.000
547.3700, 4190.000
548.5470, 4177.000
549.7230, 4333.000
550.8980, 4284.000
552.0740, 4434.000
553.2500, 4507.000
554.4250, 4476.000
555.6000, 4611.000
556.7750, 4673.000
557.9500, 4814.000
559.1250, 4875.000
560.2990, 4982.623
561.4730, 5063.000
562.6480, 5206.000
563.8220, 5292.000
564.9950, 5452.000
566.1690, 5585.000
567.3430, 5612.000
568.5160, 5815.000
569.6890, 5897.860
570.8620, 6007.000
572.0350, 6132.000
573.2070, 6291.000
574.3800, 6400.000
575.5520, 6448.000
576.7240, 6471.000
577.8960, 6571.000
579.0680, 6598.000
580.2400, 6548.000
581.4110, 6694.000
582.5830, 6674.000
583.7540, 6615.000
584.9250, 6624.000
586.0950, 6595.000
587.2660, 6635.000
588.4370, 6597.000
589.6070, 6361.000
590.7770, 6498.000
591.9470, 6307.000
593.1170, 6106.000
594.2860, 6075.000
595.4560, 5841.000
596.6250, 5846.000
597.7940, 5838.000
598.9630, 5591.000
600.1320, 5475.000
601.3000, 5478.000
602.4690, 5307.000
603.6370, 5211.000
604.8050, 5012.000
605.9730, 4927.000
607.1410, 4852.000
608.3090, 4742.000
609.4760, 4722.000
610.6430, 4642.625
611.8100, 4545.362
612.9770, 4496.000
614.1440, 4414.000
615.3110, 4255.000
616.4770, 4327.000
617.6430, 4253.000
618.8090, 4140.000
619.9750, 4224.000
621.1410, 4183.000
622.3070, 4187.000
623.4720, 4183.000
624.6370, 4162.000
625.8020, 4127.000
626.9670, 4127.000
628.1320, 4179.000
629.2970, 4087.000
630.4610, 4050.000
631.6250, 4110.000
632.7890, 4138.000
633.9530, 4186.000
635.1170, 4165.000
636.2810, 4173.000
637.4440, 4190.000
638.6070, 4180.000
639.7700, 4182.192
640.9330, 4192.147
642.0960, 4169.000
643.2590, 4213.000
644.4210, 4211.000
645.5830, 4231.000
646.7450, 4220.000
647.9070, 4244.000
649.0690, 4359.000
650.2310, 4307.000
651.3920, 4379.000
652.5530, 4364.000
653.7140, 4494.000
654.8750, 4473.000
656.0360, 4617.000
657.1970, 4794.000
658.3570, 4812.000
659.5170, 5021.000
660.6770, 5260.000
661.8370, 5349.000
662.9970, 5378.000
664.1570, 5455.000
665.3160, 5522.000
666.4750, 5545.000
667.6340, 5513.000
668.7930, 5456.000
669.9520, 5353.000
671.1110, 5321.000
672.2690, 5380.000
673.4270, 5502.000
674.5850, 5504.000
675.7430, 5665.000
676.9010, 5727.000
678.0590, 5702.000
679.2160, 5797.000
680.3730, 5775.000
681.5300, 6005.000
682.6870, 6075.000
683.8440, 6479.000
685.0010, 6629.000
686.1570, 6954.000
687.3130, 7351.000
688.4690, 7790.000
689.6250, 8062.000
690.7810, 8426.000
691.9370, 8571.000
693.0920, 8734.000
694.2470, 8713.000
695.4020, 8736.000
696.5570, 8487.000
697.7120, 8044.000
698.8670, 7735.000
700.0210, 7533.000
701.1750, 7376.000
702.3290, 7234.000
703.4830, 7002.000
704.6370, 6856.000
705.7910, 6793.000
706.9440, 6635.000
708.0970, 6467.000
709.2510, 6262.000
710.4030, 6067.000
711.5560, 5888.000
712.7090, 5716.000
713.8610, 5552.000
715.0140, 5489.000
716.1660, 5499.000
717.3180, 5451.000
718.4690, 5393.000
719.6210, 5446.000
720.7730, 5462.000
721.9240, 5520.000
723.0750, 5596.000
724.2260, 5823.000
725.3770, 5856.000
726.5270, 6076.000
727.6780, 6095.000
728.8280, 6048.000
729.9780, 6143.000
731.1280, 6046.000
732.2780, 5919.000
733.4280, 5811.000
734.5770, 5791.000
735.7260, 5708.000
736.8760, 5623.000
738.0250, 5524.000
739.1730, 5572.000
740.3220, 5578.000
741.4700, 5483.000
742.6190, 5460.000
743.7670, 5488.000
744.9150, 5566.000
746.0630, 5526.000
747.2100, 5622.000
748.3580, 5663.000
749.5050, 5572.000
750.6520, 5619.000
751.7990, 5628.000
752.9460, 5461.000
754.0930, 5601.000
755.2390, 5572.000
756.3860, 5636.000
757.5320, 5687.000
758.6780, 5731.000
759.8240, 5791.000
760.9690, 6012.000
762.1150, 5966.000
763.2600, 6195.000
764.4060, 6304.000
765.5510, 6367.000
766.6950, 6566.000
767.8400, 6763.000
768.9850, 6758.000
770.1290, 6959.000
771.2730, 7033.000
772.4170, 7201.000
773.5610, 7237.000
774.7050, 7792.000
775.8480, 7717.433
776.9920, 8283.000
778.1350, 7818.000
779.2780, 7927.000
780.4210, 7942.000
781.5640, 8077.000
782.7060, 8220.000
783.8490, 8196.000
784.9910, 8213.000
786.1330, 8201.000
787.2750, 8156.000
788.4170, 8253.000
789.5580, 8066.000
790.7000, 8004.000
791.8410, 7822.000
792.9820, 7785.000
794.1230, 7617.000
795.2640, 7380.000
796.4040, 7297.000
797.5450, 7203.000
798.6850, 6960.000
799.8250, 6865.000
800.9650, 6798.000
802.1050, 6553.000
803.2450, 6366.000
804.3840, 6338.000
805.5230, 6077.000
806.6630, 5917.000
807.8020, 5874.000
808.9400, 5677.000
810.0790, 5445.000
811.2170, 5358.000
812.3560, 5281.000
813.4940, 5082.000
814.6320, 4976.000
815.7700, 4916.000
816.9070, 4870.000
818.0450, 4697.000
819.1820, 4667.000
820.3190, 4571.000
821.4560, 4582.000
822.5930, 4445.000
823.7300, 4443.000
824.8670, 4323.000
826.0030, 4299.000
827.1390, 4280.000
828.2750, 4276.000
829.4110, 4251.000
830.5470, 4109.000
831.6820, 4086.000
832.8180, 4210.000
833.9530, 4182.000
835.0880, 4304.000
836.2230, 4388.000
837.3580, 4407.000
838.4920, 4430.000
839.6270, 4596.000
840.7610, 4809.000
841.8950, 5133.000
843.0290, 5403.000
844.1630, 5894.000
845.2960, 6233.000
846.4300, 6614.000
847.5630, 6809.000
848.6960, 7058.000
849.8290, 7162.000
850.9620, 7202.000
852.0940, 7170.000
853.2270, 6924.000
854.3590, 6886.000
855.4910, 6629.000
856.6230, 6364.000
857.7550, 6133.000
858.8870, 5934.000
860.0180, 5682.000
861.1500, 5453.000
862.2810, 5313.000
863.4120, 5186.000
864.5430, 5089.000
865.6730, 5102.000
866.8040, 5231.000
867.9340, 5569.000
869.0640, 6145.000
870.1940, 6795.000
871.3240, 7018.000
872.4540, 6936.000
873.5830, 6634.000
874.7130, 6259.000
875.8420, 5807.000
876.9710, 5376.000
878.1000, 5030.000
879.2290, 4580.000
880.3570, 4269.000
881.4860, 4024.000
882.6140, 3795.000
883.7420, 3724.000
884.8700, 3582.000
885.9980, 3516.000
887.1250, 3410.000
888.2530, 3420.000
889.3800, 3315.000
890.5070, 3316.000
891.6340, 3265.000
892.7610, 3266.000
893.8880, 3210.000
895.0140, 3241.000
896.1400, 3202.000
897.2670, 3178.144
898.3930, 3137.000
899.5180, 3133.000
900.6440, 3148.000
901.7700, 3151.000
902.8950, 3138.000
904.0200, 3200.000
905.1450, 3141.000
906.2700, 3095.000
907.3950, 3128.000
908.5190, 3126.000
909.6440, 3135.000
910.7680, 3073.000
911.8920, 3095.000
913.0160, 3130.000
914.1400, 3154.000
915.2630, 3212.000
916.3870, 3084.000
917.5100, 3142.000
918.6330, 3126.000
919.7560, 3150.000
920.8790, 3138.000
922.0010, 3099.000
923.1240, 3132.000
924.2460, 3123.000
925.3680, 3001.000
926.4900, 3046.000
927.6120, 3014.000
928.7340, 3084.000
929.8550, 2983.000
930.9760, 3051.000
932.0980, 2988.000
933.2190, 2979.000
934.3390, 2988.000
935.4600, 2932.000
936.5810, 3038.000
937.7010, 2958.000
938.8210, 3010.000
939.9410, 2989.000
941.0610, 2975.000
942.1810, 2907.000
943.3010, 2948.000
944.4200, 2927.000
945.5390, 2895.000
946.6580, 2940.000
947.7770, 2879.000
948.8960, 2922.000
950.0150, 2934.000
951.1330, 2896.000
952.2510, 2926.000
953.3690, 2937.000
954.4870, 2858.000
955.6050, 2882.000
956.7230, 2895.000
957.8400, 2964.000
958.9580, 2954.000
960.0750, 2929.000
961.1920, 2929.000
962.3090, 2880.000
963.4250, 2909.000
964.5420, 2920.000
965.6580, 2997.000
966.7740, 2968.000
967.8900, 2936.000
969.0060, 2981.000
970.1220, 2953.000
971.2380, 2964.000
972.3530, 3008.000
973.4680, 2974.000
974.5830, 2996.000
975.6980, 2976.000
976.8130, 3035.000
977.9280, 3035.000
979.0420, 3035.000
980.1560, 3013.000
981.2710, 3032.000
982.3850, 3085.000
983.4980, 3022.000
984.6120, 3070.000
985.7260, 3137.000
986.8390, 3112.000
987.9520, 3063.000
989.0650, 3039.000
990.1780, 3116.000
991.2910, 3141.000
992.4030, 3048.000
993.5160, 3138.000
994.6280, 3038.000
995.7400, 3145.000
996.8520, 3107.000
997.9640, 3081.000
999.0750, 3112.000
1000.187, 3210.000
1001.298, 3091.000
1002.409, 3145.000
1003.520, 3169.000
1004.631, 3139.000
1005.741, 3114.000
1006.852, 3069.000
1007.962, 3113.000
1009.072, 3113.000
1010.182, 3098.000
1011.292, 3052.000
1012.402, 3053.000
1013.511, 3021.000
1014.621, 3006.000
1015.730, 2986.052
1016.839, 2954.000
1017.948, 2932.000
1019.056, 2941.000
1020.165, 2900.000
1021.273, 2838.000
1022.382, 2955.000
1023.490, 2919.000
1024.598, 2854.000
1025.706, 2977.000
1026.813, 2973.000
1027.921, 2922.000
1029.028, 2880.000
1030.135, 2898.000
1031.242, 2971.000
1032.349, 2924.000
1033.456, 2969.000
1034.562, 2971.000
1035.668, 2936.000
1036.775, 3013.000
1037.881, 3014.000
1038.987, 3013.000
1040.092, 2996.000
1041.198, 3027.000
1042.303, 3099.000
1043.408, 3091.000
1044.514, 3077.000
1045.618, 3161.000
1046.723, 3158.000
1047.828, 3191.000
1048.932, 3200.000
1050.037, 3206.000
1051.141, 3226.000
1052.245, 3253.792
1053.349, 3319.000
1054.452, 3361.000
1055.556, 3367.000
1056.659, 3499.000
1057.762, 3517.000
1058.865, 3664.000
1059.968, 3673.000
1061.071, 3911.000
1062.174, 3931.000
1063.276, 4031.000
1064.378, 4070.000
1065.480, 4108.000
1066.582, 4366.000
1067.684, 4478.000
1068.786, 4696.000
1069.887, 5065.000
1070.988, 5682.000
1072.090, 6754.000
1073.191, 8216.000
1074.291, 10733.00
1075.392, 14752.00
1076.493, 20295.00
1077.593, 27809.00
1078.693, 36298.00
1079.793, 43413.00
1080.893, 46778.00
1081.993, 46736.00
1083.092, 45467.00
1084.192, 43977.00
1085.291, 45273.00
1086.390, 48515.00
1087.489, 52053.00
1088.588, 53186.00
1089.686, 51488.00
1090.785, 46787.00
1091.883, 41501.00
1092.981, 37193.00
1094.079, 36387.00
1095.177, 38359.00
1096.275, 42125.00
1097.373, 46995.00
1098.470, 50680.00
1099.567, 51627.00
1100.664, 49236.00
1101.761, 43981.00
1102.858, 37167.00
1103.954, 30087.00
1105.051, 23223.00
1106.147, 17397.00
1107.243, 12829.00
1108.339, 9453.000
1109.435, 7386.000
1110.531, 5864.000
1111.626, 4973.000
1112.722, 4396.000
1113.817, 4062.000
1114.912, 3805.000
1116.007, 3652.000
1117.101, 3596.000
1118.196, 3459.000
1119.290, 3394.000
1120.385, 3343.000
1121.479, 3313.000
1122.573, 3282.000
1123.666, 3220.000
1124.760, 3166.000
1125.853, 3185.000
1126.947, 3198.000
1128.040, 3132.000
1129.133, 3094.000
1130.226, 3102.000
1131.318, 3125.000
1132.411, 3083.000
1133.503, 3078.000
1134.596, 3105.000
1135.688, 3071.000
1136.780, 3056.000
1137.871, 3045.000
1138.963, 3058.000
1140.054, 3015.000
1141.146, 3031.000
1142.237, 3059.000
1143.328, 3023.000
1144.419, 2984.000
1145.509, 2978.000
1146.600, 2997.000
1147.690, 3049.000
1148.780, 3036.000
1149.870, 3001.000
1150.960, 2948.000
1152.050, 3044.000
1153.139, 3021.000
1154.229, 2931.000
1155.318, 2997.000
1156.407, 2942.000
1157.496, 2927.000
1158.585, 2945.000
1159.674, 2929.345
1160.762, 2947.729
1161.850, 2931.000
1162.939, 2972.000
1164.027, 2937.000
1165.114, 2924.000
1166.202, 2937.000
1167.290, 2997.000
1168.377, 2915.000
1169.464, 2920.000
1170.551, 2874.000
1171.638, 2982.000
1172.725, 2940.000
1173.812, 2888.000
1174.898, 2950.000
1175.984, 2909.000
1177.071, 2911.312
1178.157, 2861.000
1179.242, 2903.000
1180.328, 2886.000
1181.414, 2886.000
1182.499, 2916.000
1183.584, 2913.000
1184.669, 2901.000
1185.754, 2872.000
1186.839, 2866.000
1187.924, 2873.000
1189.008, 2908.000
1190.092, 2884.000
1191.177, 2902.000
1192.260, 2904.000
1193.344, 2906.000
1194.428, 2918.000
1195.512, 2947.000
1196.595, 2925.000
1197.678, 2844.000
1198.761, 2919.000
1199.844, 2799.000
1200.927, 2857.000
1202.009, 2864.000
1203.092, 2896.000
1204.174, 2890.000
1205.256, 2950.000
1206.338, 2969.000
1207.420, 2912.000
1208.502, 2883.000
1209.583, 2914.000
1210.665, 2869.000
1211.746, 2879.000
1212.827, 2873.000
1213.908, 2825.000
1214.988, 2918.000
1216.069, 2900.000
1217.149, 2847.000
1218.230, 2885.000
1219.310, 2911.000
1220.390, 2867.000
1221.470, 2836.000
1222.549, 2808.000
1223.629, 2844.000
1224.708, 2901.000
1225.787, 2851.000
1226.866, 2865.000
1227.945, 2838.000
1229.024, 2813.000
1230.103, 2890.000
1231.181, 2870.000
1232.259, 2874.000
1233.337, 2890.000
1234.415, 2885.000
1235.493, 2867.000
1236.571, 2848.000
1237.648, 2914.000
1238.726, 2903.000
1239.803, 2955.000
1240.880, 2862.000
1241.957, 2912.000
1243.034, 2852.000
1244.110, 2854.000
1245.187, 2880.000
1246.263, 2948.000
1247.339, 2986.000
1248.415, 2888.000
1249.491, 2869.000
1250.566, 2834.000
1251.642, 2819.000
1252.717, 2829.468
1253.793, 2914.000
1254.868, 2888.000
1255.943, 2915.000
1257.017, 2992.000
1258.092, 2928.000
1259.166, 2932.000
1260.241, 2966.000
1261.315, 2895.000
1262.389, 2859.000
1263.462, 2934.000
1264.536, 2923.000
1265.610, 2896.000
1266.683, 3000.000
1267.756, 2992.000
1268.829, 2882.000
1269.902, 2871.000
1270.975, 2867.000
1272.048, 2984.000
1273.120, 2927.000
1274.192, 2899.000
1275.264, 2933.000
1276.336, 2912.000
1277.408, 2941.000
1278.480, 2931.000
1279.551, 2928.000
1280.623, 2982.000
1281.694, 2945.000
1282.765, 2908.000
1283.836, 2954.000
1284.907, 2971.000
1285.977, 2963.000
1287.048, 2861.000
1288.118, 2879.000
1289.188, 2882.042
1290.258, 2902.000
1291.328, 2940.000
1292.398, 2956.000
1293.467, 2982.000
1294.537, 2973.000
1295.606, 2962.000
1296.675, 2921.000
1297.744, 2997.000
1298.813, 3012.000
1299.882, 3041.000
1300.950, 3020.000
1302.018, 3002.000
1303.086, 3000.000
1304.155, 3009.000
1305.222, 3032.000
1306.290, 3096.000
1307.358, 3018.000
1308.425, 2993.000
1309.492, 3031.000
1310.559, 3084.000
1311.626, 3050.000
1312.693, 3078.000
1313.760, 3028.000
1314.826, 3110.000
1315.893, 2985.000
1316.959, 3021.000
1318.025, 3004.000
1319.091, 3113.000
1320.157, 3069.000
1321.222, 3092.000
1322.288, 3029.000
1323.353, 3043.000
1324.418, 3141.000
1325.483, 3038.000
1326.548, 3113.000
1327.612, 3029.000
1328.677, 3096.000
1329.741, 3081.000
1330.806, 3126.000
1331.870, 3121.000
1332.934, 3127.000
1333.997, 3086.000
1335.061, 3105.000
1336.124, 3136.000
1337.188, 3064.000
1338.251, 3104.000
1339.314, 3070.000
1340.377, 3085.000
1341.439, 3165.000
1342.502, 3131.000
1343.564, 3113.000
1344.627, 3131.000
1345.689, 3090.000
1346.751, 3125.000
1347.813, 3145.000
1348.874, 3124.000
1349.936, 3190.000
1350.997, 3171.000
1352.058, 3151.000
1353.119, 3161.000
1354.180, 3126.000
1355.241, 3163.000
1356.301, 3186.000
1357.362, 3164.000
1358.422, 3175.000
1359.482, 3135.000
1360.542, 3140.000
1361.602, 3120.000
1362.662, 3164.000
1363.721, 3168.000
1364.781, 3191.000
1365.840, 3233.000
1366.899, 3155.000
1367.958, 3190.000
1369.017, 3208.000
1370.075, 3285.000
1371.134, 3216.000
1372.192, 3244.000
1373.250, 3219.000
1374.308, 3249.000
1375.366, 3310.000
1376.424, 3358.000
1377.481, 3306.000
1378.539, 3320.000
1379.596, 3268.000
1380.653, 3362.000
1381.710, 3374.000
1382.767, 3301.000
1383.824, 3401.000
1384.880, 3423.000
1385.937, 3497.000
1386.993, 3526.000
1388.049, 3689.000
1389.105, 3753.000
1390.161, 3905.000
1391.216, 4022.000
1392.272, 4280.000
1393.327, 4440.000
1394.382, 4706.000
1395.437, 4912.000
1396.492, 5186.000
1397.547, 5278.000
1398.601, 5431.000
1399.656, 5681.000
1400.710, 5763.000
1401.764, 5618.000
1402.818, 5821.000
1403.872, 5781.000
1404.925, 5813.000
1405.979, 5932.000
1407.032, 6074.000
1408.085, 6132.000
1409.139, 6336.633
1410.191, 6444.596
1411.244, 6642.000
1412.297, 6659.000
1413.349, 6641.000
1414.402, 6592.000
1415.454, 6687.000
1416.506, 6575.000
1417.558, 6568.000
1418.609, 6536.000
1419.661, 6452.000
1420.712, 6398.973
1421.764, 6321.597
1422.815, 6251.000
1423.866, 6159.000
1424.916, 6124.000
1425.967, 6051.443
1427.018, 6132.000
1428.068, 6030.000
1429.118, 6053.000
1430.168, 6074.000
1431.218, 5974.000
1432.268, 5969.000
1433.318, 6084.000
1434.367, 6021.000
1435.416, 5963.000
1436.465, 5956.000
1437.514, 5864.000
1438.563, 5819.000
1439.612, 5633.000
1440.661, 5506.000
1441.709, 5364.000
1442.757, 5193.651
1443.805, 5122.000
1444.853, 4899.000
1445.901, 4781.000
1446.949, 4699.000
1447.996, 4511.000
1449.044, 4453.000
1450.091, 4360.000
1451.138, 4362.000
1452.185, 4310.000
1453.232, 4119.000
1454.278, 4223.000
1455.325, 4072.000
1456.371, 4098.000
1457.417, 4181.000
1458.463, 4154.000
1459.509, 4199.000
1460.555, 4138.000
1461.601, 4237.000
1462.646, 4303.000
1463.691, 4383.000
1464.737, 4335.000
1465.782, 4323.000
1466.826, 4391.000
1467.871, 4469.000
1468.916, 4660.000
1469.960, 4613.000
1471.004, 4717.000
1472.048, 4720.000
1473.092, 4704.000
1474.136, 4744.000
1475.180, 4731.000
1476.223, 4779.000
1477.267, 4797.000
1478.310, 4652.000
1479.353, 4614.000
1480.396, 4527.000
1481.439, 4491.000
1482.481, 4414.000
1483.524, 4359.000
1484.566, 4271.000
1485.608, 4221.000
1486.650, 4095.000
1487.692, 4062.000
1488.734, 4056.000
1489.775, 3826.000
1490.817, 3855.000
1491.858, 3758.000
1492.899, 3697.000
1493.940, 3644.000
1494.981, 3590.000
1496.022, 3503.000
1497.062, 3605.000
1498.103, 3565.000
1499.143, 3527.000
1500.183, 3506.000
1501.223, 3506.000
1502.263, 3436.000
1503.302, 3564.000
1504.342, 3505.000
1505.381, 3510.000
1506.420, 3423.000
1507.459, 3503.000
1508.498, 3424.000
1509.537, 3484.000
1510.576, 3447.000
1511.614, 3450.000
1512.652, 3563.000
1513.691, 3545.000
1514.729, 3493.000
1515.767, 3482.000
1516.804, 3464.000
1517.842, 3501.000
1518.879, 3433.000
1519.917, 3487.000
1520.954, 3489.000
1521.991, 3430.000
1523.028, 3467.000
1524.064, 3454.000
1525.101, 3431.000
1526.137, 3494.000
1527.173, 3485.000
1528.210, 3446.000
1529.245, 3421.000
1530.281, 3470.000
1531.317, 3434.000
1532.352, 3393.000
1533.388, 3434.000
1534.423, 3409.000
1535.458, 3418.000
1536.493, 3486.000
1537.528, 3412.000
1538.562, 3401.000
1539.597, 3436.000
1540.631, 3367.000
1541.665, 3405.000
1542.700, 3377.000
1543.733, 3371.000
1544.767, 3409.000
1545.801, 3349.000
1546.834, 3318.000
1547.868, 3414.000
1548.901, 3405.000
1549.934, 3412.000
1550.967, 3377.000
1551.999, 3391.000
1553.032, 3424.000
1554.064, 3446.000
1555.097, 3401.000
1556.129, 3374.000
1557.161, 3348.000
1558.193, 3299.000
1559.224, 3348.000
1560.256, 3365.000
1561.287, 3326.000
1562.318, 3313.000
1563.350, 3399.000
##END=



