##NAMES=Ilvaite
##RRUFFID=R050040
##IDEAL CHEMISTRY=CaFe^2+^_2_Fe^3+^OSi_2_O_7_(OH)
##LOCALITY=Capo Calamita, Isle of Elba, Italy
##OWNER=RRUFF
##SOURCE=University of Arizona Mineral Museum
##DESCRIPTION=Brown fragment
##STATUS=The identification of this mineral has been confirmed by X-ray diffraction and chemical analysis
##URL=rruff.info/R050040
##MEASURED CHEMISTRY=Ca_1.00_(Fe^2+^_1.89_Mn_0.10_Mg_0.01_)_Î£=2_Fe^3+^_1.00_OSi_2.00_O_7_(OH); trace amounts of Al; OH estimated by charge balance
##PIN_ID=M00410
##ORIENTATION=Laser parallel to b* (0 1 0). Fiducial mark perpendicular to laser is parallel to c [0 0 1]
127.5960, 46706.00
128.8330, 46683.00
130.0700, 46589.00
131.3060, 46348.00
132.5420, 46533.38
133.7780, 46533.27
135.0140, 46863.00
136.2500, 46988.00
137.4850, 47246.00
138.7200, 47053.61
139.9550, 47239.00
141.1900, 46660.00
142.4250, 46246.00
143.6600, 46270.00
144.8940, 46450.00
146.1280, 46776.00
147.3620, 46648.00
148.5960, 46805.00
149.8300, 47060.00
151.0630, 47294.00
152.2960, 46720.00
153.5300, 46965.00
154.7620, 46397.00
155.9950, 45922.00
157.2280, 46886.00
158.4600, 45343.00
159.6920, 45368.00
160.9250, 45740.00
162.1560, 46126.00
163.3880, 46069.00
164.6200, 46254.00
165.8510, 45937.00
167.0820, 46123.00
168.3130, 46212.00
169.5440, 46347.00
170.7750, 46298.00
172.0050, 45777.00
173.2350, 45672.00
174.4650, 45712.00
175.6950, 45885.00
176.9250, 46243.00
178.1550, 46320.00
179.3840, 46064.00
180.6130, 45903.00
181.8420, 46003.00
183.0710, 46209.00
184.3000, 46331.00
185.5280, 46494.00
186.7570, 46487.85
187.9850, 46647.81
189.2130, 46396.00
190.4400, 46834.00
191.6680, 46782.00
192.8960, 46786.00
194.1230, 47101.00
195.3500, 47003.00
196.5770, 46649.00
197.8030, 46552.00
199.0300, 46792.00
200.2560, 47235.00
201.4830, 46772.00
202.7090, 45660.00
203.9340, 44195.00
205.1600, 42541.00
206.3860, 41868.00
207.6110, 41613.00
208.8360, 41307.00
210.0610, 41199.00
211.2860, 41259.00
212.5100, 41340.00
213.7350, 41157.00
214.9590, 40787.00
216.1830, 40633.00
217.4070, 40669.00
218.6310, 40411.00
219.8540, 40252.00
221.0780, 40294.00
222.3010, 40503.00
223.5240, 40131.00
224.7470, 40366.00
225.9690, 40146.00
227.1920, 40225.00
228.4140, 40300.00
229.6360, 40068.00
230.8580, 40215.00
232.0800, 39761.00
233.3020, 40085.00
234.5230, 40574.00
235.7440, 40054.00
236.9650, 40058.00
238.1860, 39654.00
239.4070, 39708.00
240.6280, 39873.00
241.8480, 39662.00
243.0680, 39682.00
244.2880, 39873.00
245.5080, 39611.00
246.7280, 39536.00
247.9470, 39629.00
249.1660, 39619.00
250.3860, 39545.00
251.6040, 39598.61
252.8230, 39416.29
254.0420, 39745.79
255.2600, 39978.72
256.4790, 40120.44
257.6970, 39897.30
258.9150, 40145.18
260.1320, 40204.21
261.3500, 40255.59
262.5670, 40569.67
263.7840, 40399.50
265.0010, 40709.42
266.2180, 40712.00
267.4350, 40794.00
268.6510, 40805.37
269.8680, 41019.00
271.0840, 41023.00
272.3000, 41121.00
273.5160, 41395.00
274.7310, 41629.00
275.9470, 41730.00
277.1620, 41749.00
278.3770, 41622.00
279.5920, 41788.00
280.8070, 41644.00
282.0210, 41663.00
283.2360, 41540.00
284.4500, 41284.00
285.6640, 40961.00
286.8780, 40572.00
288.0920, 40558.00
289.3050, 40361.00
290.5180, 39971.00
291.7320, 39936.00
292.9450, 39658.00
294.1570, 39611.00
295.3700, 39326.00
296.5830, 39320.00
297.7950, 39573.00
299.0070, 39221.00
300.2190, 39331.00
301.4310, 39298.00
302.6420, 39223.00
303.8540, 39099.00
305.0650, 39544.00
306.2760, 39082.00
307.4870, 39003.00
308.6980, 39886.00
309.9080, 39424.00
311.1190, 39481.00
312.3290, 39379.00
313.5390, 39547.00
314.7490, 39176.00
315.9580, 39676.00
317.1680, 40082.00
318.3770, 40027.00
319.5860, 40013.00
320.7950, 40468.00
322.0040, 40488.00
323.2130, 40607.00
324.4210, 41146.00
325.6290, 41272.00
326.8380, 41429.00
328.0460, 41507.00
329.2530, 41694.00
330.4610, 41795.00
331.6680, 41774.69
332.8760, 41328.00
334.0830, 41520.00
335.2890, 41748.00
336.4960, 41278.00
337.7030, 41525.00
338.9090, 41086.00
340.1150, 40940.00
341.3210, 40843.00
342.5270, 40879.00
343.7330, 40322.00
344.9380, 40411.00
346.1440, 39905.00
347.3490, 40146.00
348.5540, 39863.00
349.7590, 39967.00
350.9630, 39888.00
352.1680, 40077.00
353.3720, 39812.00
354.5760, 39441.00
355.7800, 39679.00
356.9840, 39363.00
358.1870, 39344.00
359.3910, 39524.00
360.5940, 39107.00
361.7970, 39086.00
363.0000, 39275.00
364.2030, 39076.00
365.4050, 38802.00
366.6080, 39028.00
367.8100, 38643.00
369.0120, 38921.00
370.2140, 38782.00
371.4150, 38743.14
372.6170, 38780.88
373.8180, 38492.21
375.0190, 38720.92
376.2200, 38853.14
377.4210, 38894.07
378.6220, 38570.23
379.8220, 38717.40
381.0230, 38675.82
382.2230, 38626.48
383.4230, 38839.95
384.6220, 38569.15
385.8220, 38778.45
387.0220, 38796.10
388.2210, 38901.45
389.4200, 38816.89
390.6190, 38790.98
391.8180, 38955.06
393.0160, 39013.93
394.2150, 38907.50
395.4130, 39018.43
396.6110, 38740.99
397.8090, 38858.00
399.0060, 38842.00
400.2040, 39033.00
401.4010, 39215.00
402.5980, 39280.00
403.7950, 39455.00
404.9920, 39241.00
406.1890, 39458.00
407.3860, 39345.00
408.5820, 39419.00
409.7780, 39465.00
410.9740, 39406.00
412.1700, 39487.30
413.3650, 39585.00
414.5610, 39584.00
415.7560, 39546.00
416.9510, 39634.00
418.1460, 39780.00
419.3410, 39544.00
420.5360, 39762.00
421.7300, 39693.00
422.9240, 39712.00
424.1180, 39804.07
425.3120, 39792.00
426.5060, 39947.00
427.7000, 39924.00
428.8930, 40084.00
430.0860, 40103.00
431.2790, 40136.00
432.4720, 39998.00
433.6650, 39951.00
434.8580, 40080.00
436.0500, 40168.00
437.2420, 40213.00
438.4340, 40073.00
439.6260, 40128.00
440.8180, 40189.00
442.0090, 40052.00
443.2010, 40059.00
444.3920, 40207.00
445.5830, 40218.00
446.7740, 40239.29
447.9640, 40063.00
449.1550, 40190.00
450.3450, 40262.00
451.5350, 40131.00
452.7250, 40403.00
453.9150, 40142.00
455.1050, 40706.00
456.2940, 40286.00
457.4830, 40415.00
458.6720, 40621.00
459.8610, 40628.00
461.0500, 40594.00
462.2390, 40614.00
463.4270, 40368.00
464.6150, 40787.00
465.8040, 40910.00
466.9910, 40603.00
468.1790, 41074.00
469.3670, 40872.74
470.5540, 40932.54
471.7410, 40890.00
472.9280, 40965.00
474.1150, 41206.00
475.3020, 41232.00
476.4890, 40940.00
477.6750, 41397.00
478.8610, 41377.00
480.0470, 41292.00
481.2330, 41505.00
482.4190, 41443.00
483.6040, 41412.00
484.7900, 41462.26
485.9750, 41493.00
487.1600, 41442.00
488.3450, 41599.58
489.5290, 41627.96
490.7140, 41778.00
491.8980, 41951.00
493.0820, 42098.00
494.2660, 42070.00
495.4500, 41994.00
496.6340, 42209.00
497.8170, 42226.00
499.0010, 42761.00
500.1840, 42557.00
501.3670, 42632.00
502.5500, 42959.00
503.7320, 42551.00
504.9150, 42744.00
506.0970, 42618.00
507.2790, 42771.00
508.4610, 42700.00
509.6430, 42569.00
510.8250, 42596.00
512.0060, 42515.00
513.1870, 42375.00
514.3680, 42525.00
515.5490, 42411.00
516.7300, 42551.00
517.9110, 42514.00
519.0910, 42418.00
520.2710, 42412.00
521.4510, 42300.00
522.6310, 42549.00
523.8110, 42606.00
524.9910, 42437.00
526.1700, 42636.00
527.3490, 42172.00
528.5280, 42342.00
529.7070, 42211.39
530.8860, 42411.54
532.0650, 42515.20
533.2430, 42527.58
534.4210, 42175.20
535.5990, 42293.83
536.7770, 42223.70
537.9550, 42145.82
539.1320, 42330.77
540.3100, 42031.44
541.4870, 42212.21
542.6640, 42201.34
543.8410, 42278.18
545.0170, 42165.11
546.1940, 42110.69
547.3700, 42246.27
548.5470, 42276.63
549.7230, 42141.70
550.8980, 42224.15
552.0740, 41918.22
553.2500, 41953.08
554.4250, 42135.00
555.6000, 42009.63
556.7750, 42095.55
557.9500, 42101.00
559.1250, 41740.75
560.2990, 41903.00
561.4730, 41883.00
562.6480, 41636.00
563.8220, 41894.00
564.9950, 41740.00
566.1690, 41713.00
567.3430, 41952.00
568.5160, 41835.00
569.6890, 41524.00
570.8620, 41526.00
572.0350, 41455.00
573.2070, 41172.00
574.3800, 41250.00
575.5520, 41423.00
576.7240, 41523.00
577.8960, 40973.00
579.0680, 40848.00
580.2400, 40707.00
581.4110, 40729.00
582.5830, 40673.00
583.7540, 40456.00
584.9250, 40387.00
586.0950, 40279.51
587.2660, 40433.00
588.4370, 40106.00
589.6070, 40228.00
590.7770, 40184.00
591.9470, 39836.00
593.1170, 39953.00
594.2860, 39637.00
595.4560, 39911.00
596.6250, 39980.00
597.7940, 39721.00
598.9630, 39566.00
600.1320, 39881.00
601.3000, 39673.00
602.4690, 39618.00
603.6370, 39627.00
604.8050, 39520.00
605.9730, 39805.00
607.1410, 39603.00
608.3090, 39673.00
609.4760, 39485.00
610.6430, 39656.00
611.8100, 39638.13
612.9770, 39695.00
614.1440, 39755.00
615.3110, 39482.00
616.4770, 39547.00
617.6430, 39529.00
618.8090, 39351.00
619.9750, 39575.00
621.1410, 39565.00
622.3070, 39424.00
623.4720, 39634.00
624.6370, 39346.00
625.8020, 39520.00
626.9670, 39446.00
628.1320, 39338.00
629.2970, 39570.00
630.4610, 39371.00
631.6250, 39496.00
632.7890, 39503.00
633.9530, 39465.00
635.1170, 39487.94
636.2810, 39585.00
637.4440, 39455.00
638.6070, 39296.00
639.7700, 39331.00
640.9330, 39166.00
642.0960, 39496.00
643.2590, 39157.00
644.4210, 39406.00
645.5830, 39266.00
646.7450, 39511.00
647.9070, 39010.00
649.0690, 39162.00
650.2310, 39240.00
651.3920, 39130.00
652.5530, 39147.00
653.7140, 39171.00
654.8750, 39223.00
656.0360, 39104.00
657.1970, 39123.74
658.3570, 39285.00
659.5170, 39090.00
660.6770, 39161.00
661.8370, 39245.00
662.9970, 39253.00
664.1570, 39214.00
665.3160, 39408.00
666.4750, 39296.95
667.6340, 39027.00
668.7930, 39203.00
669.9520, 38925.00
671.1110, 38870.00
672.2690, 39091.00
673.4270, 38962.00
674.5850, 39096.00
675.7430, 39339.00
676.9010, 39216.00
678.0590, 39225.00
679.2160, 39414.00
680.3730, 39223.00
681.5300, 39357.00
682.6870, 39352.00
683.8440, 39036.00
685.0010, 39105.00
686.1570, 39293.00
687.3130, 39507.00
688.4690, 39119.00
689.6250, 39371.00
690.7810, 39415.00
691.9370, 39656.00
693.0920, 39361.00
694.2470, 39547.00
695.4020, 39613.00
696.5570, 39615.00
697.7120, 39631.00
698.8670, 39918.00
700.0210, 40074.00
701.1750, 40187.00
702.3290, 40299.00
703.4830, 40346.81
704.6370, 39975.00
705.7910, 40250.00
706.9440, 39993.00
708.0970, 39607.00
709.2510, 39948.00
710.4030, 39704.00
711.5560, 39514.00
712.7090, 39448.00
713.8610, 39539.00
715.0140, 39425.00
716.1660, 39385.00
717.3180, 39233.00
718.4690, 39462.00
719.6210, 39386.00
720.7730, 39341.00
721.9240, 39379.00
723.0750, 39138.00
724.2260, 39140.00
725.3770, 39315.00
726.5270, 39125.00
727.6780, 39201.00
728.8280, 39163.82
729.9780, 39097.00
731.1280, 39105.00
732.2780, 39153.00
733.4280, 39181.00
734.5770, 39166.65
735.7260, 39222.00
736.8760, 39146.00
738.0250, 39210.00
739.1730, 39232.00
740.3220, 39311.00
741.4700, 39315.61
742.6190, 39327.00
743.7670, 39257.00
744.9150, 39202.00
746.0630, 39001.00
747.2100, 39061.79
748.3580, 39007.32
749.5050, 39171.00
750.6520, 39112.00
751.7990, 39280.00
752.9460, 39517.00
754.0930, 39665.00
755.2390, 39142.00
756.3860, 39098.00
757.5320, 39315.00
758.6780, 39458.00
759.8240, 39548.00
760.9690, 39652.93
762.1150, 39249.00
763.2600, 39742.00
764.4060, 39453.00
765.5510, 39420.00
766.6950, 39506.00
767.8400, 39470.00
768.9850, 39393.00
770.1290, 39640.00
771.2730, 39381.00
772.4170, 39633.00
773.5610, 39415.00
774.7050, 39370.00
775.8480, 39532.00
776.9920, 39633.00
778.1350, 39368.00
779.2780, 39553.00
780.4210, 39689.00
781.5640, 39460.00
782.7060, 39332.00
783.8490, 39343.00
784.9910, 39468.00
786.1330, 39461.00
787.2750, 39555.00
788.4170, 39605.61
789.5580, 39427.00
790.7000, 39668.00
791.8410, 39671.00
792.9820, 39612.00
794.1230, 39747.00
795.2640, 39495.00
796.4040, 39630.00
797.5450, 39608.00
798.6850, 39833.00
799.8250, 39734.00
800.9650, 39615.00
802.1050, 39628.00
803.2450, 39774.00
804.3840, 39604.00
805.5230, 39813.00
806.6630, 39908.00
807.8020, 39844.00
808.9400, 39639.00
810.0790, 39939.00
811.2170, 40009.00
812.3560, 40248.00
813.4940, 39955.00
814.6320, 39927.00
815.7700, 39894.00
816.9070, 39779.00
818.0450, 40157.00
819.1820, 40195.00
820.3190, 40134.00
821.4560, 40004.00
822.5930, 39989.00
823.7300, 39973.59
824.8670, 39921.00
826.0030, 39982.00
827.1390, 39997.00
828.2750, 39939.00
829.4110, 40214.00
830.5470, 40031.00
831.6820, 39799.00
832.8180, 40307.00
833.9530, 40009.00
835.0880, 40054.00
836.2230, 39764.00
837.3580, 40064.00
838.4920, 39682.00
839.6270, 39984.00
840.7610, 39783.00
841.8950, 40057.00
843.0290, 39950.00
844.1630, 40273.00
845.2960, 40059.00
846.4300, 39930.00
847.5630, 40072.00
848.6960, 39946.00
849.8290, 39982.00
850.9620, 40246.00
852.0940, 40121.00
853.2270, 40233.00
854.3590, 40180.00
855.4910, 40051.00
856.6230, 40189.00
857.7550, 40476.00
858.8870, 40314.00
860.0180, 40408.48
861.1500, 40004.00
862.2810, 40359.00
863.4120, 40184.00
864.5430, 40241.00
865.6730, 40557.00
866.8040, 40527.00
867.9340, 40634.00
869.0640, 40717.00
870.1940, 40452.00
871.3240, 40600.00
872.4540, 40443.00
873.5830, 40413.00
874.7130, 40555.00
875.8420, 40478.02
876.9710, 40859.00
878.1000, 40620.00
879.2290, 40510.00
880.3570, 40775.00
881.4860, 40873.00
882.6140, 40738.00
883.7420, 40829.00
884.8700, 40754.00
885.9980, 40977.00
887.1250, 40771.00
888.2530, 40702.00
889.3800, 40841.00
890.5070, 40776.58
891.6340, 40917.00
892.7610, 40853.00
893.8880, 41078.00
895.0140, 41042.00
896.1400, 41073.00
897.2670, 40913.00
898.3930, 40805.00
899.5180, 40878.00
900.6440, 41051.00
901.7700, 41057.00
902.8950, 41128.69
904.0200, 41093.00
905.1450, 41126.00
906.2700, 41007.00
907.3950, 40857.00
908.5190, 40834.00
909.6440, 40906.00
910.7680, 40829.00
911.8920, 40872.85
913.0160, 40973.00
914.1400, 40931.00
915.2630, 40847.00
916.3870, 40920.00
917.5100, 40834.00
918.6330, 40727.00
919.7560, 41262.00
920.8790, 41004.00
922.0010, 40970.00
923.1240, 40789.00
924.2460, 41158.00
925.3680, 41330.00
926.4900, 41517.00
927.6120, 41551.66
928.7340, 41238.00
929.8550, 41518.00
930.9760, 41290.16
932.0980, 41369.00
933.2190, 41250.00
934.3390, 41148.00
935.4600, 41046.00
936.5810, 40955.00
937.7010, 41007.00
938.8210, 41010.00
939.9410, 40925.00
941.0610, 41008.45
942.1810, 40812.00
943.3010, 41041.00
944.4200, 41085.59
945.5390, 40979.89
946.6580, 41286.00
947.7770, 41025.00
948.8960, 41108.00
950.0150, 41199.00
951.1330, 41047.00
952.2510, 41147.00
953.3690, 41231.00
954.4870, 41097.00
955.6050, 41247.00
956.7230, 41301.00
957.8400, 41304.00
958.9580, 41359.00
960.0750, 41267.00
961.1920, 41307.00
962.3090, 41419.00
963.4250, 41293.00
964.5420, 41442.00
965.6580, 41399.00
966.7740, 41403.00
967.8900, 41387.00
969.0060, 41531.00
970.1220, 41692.00
971.2380, 41671.04
972.3530, 41776.91
973.4680, 41681.00
974.5830, 41828.00
975.6980, 41789.00
976.8130, 41758.00
977.9280, 41777.00
979.0420, 41925.00
980.1560, 41575.00
981.2710, 41845.18
982.3850, 42048.81
983.4980, 42155.98
984.6120, 42171.83
985.7260, 41822.92
986.8390, 41945.04
987.9520, 41878.39
989.0650, 41804.01
990.1780, 41992.42
991.2910, 41696.58
992.4030, 41880.84
993.5160, 41873.44
994.6280, 41953.77
995.7400, 41844.17
996.8520, 41793.23
997.9640, 41932.28
999.0750, 41966.15
1000.187, 41834.68
1001.298, 41920.60
1002.409, 41618.16
1003.520, 41656.50
1004.631, 41841.89
1005.741, 41720.00
1006.852, 41809.39
1007.962, 41818.33
1009.072, 41461.56
1010.182, 41740.79
1011.292, 41744.96
1012.402, 41466.73
1013.511, 41724.18
1014.621, 41484.88
1015.730, 41422.90
1016.839, 41494.35
1017.948, 41426.71
1019.056, 41578.38
1020.165, 41518.77
1021.273, 41414.00
1022.382, 41517.00
1023.490, 41409.00
1024.598, 41178.00
1025.706, 41345.00
1026.813, 41309.00
1027.921, 41520.00
1029.028, 41285.00
1030.135, 41153.00
1031.242, 41218.00
1032.349, 41464.00
1033.456, 41549.00
1034.562, 41789.00
1035.668, 41378.00
1036.775, 41437.00
1037.881, 41296.00
1038.987, 41501.00
1040.092, 41555.00
1041.198, 41449.00
1042.303, 41532.00
1043.408, 41606.00
1044.514, 41423.00
1045.618, 41157.00
1046.723, 41479.00
1047.828, 41011.00
1048.932, 41487.00
1050.037, 41438.00
1051.141, 41203.00
1052.245, 41473.00
1053.349, 41350.00
1054.452, 41507.00
1055.556, 41217.00
1056.659, 41602.00
1057.762, 41552.00
1058.865, 41886.00
1059.968, 41804.00
1061.071, 41251.00
1062.174, 41519.00
1063.276, 41415.00
1064.378, 41408.00
1065.480, 41701.00
1066.582, 41438.00
1067.684, 41578.00
1068.786, 41487.00
1069.887, 41424.00
1070.988, 41620.00
1072.090, 41579.00
1073.191, 41446.00
1074.291, 41756.00
1075.392, 41558.00
1076.493, 41711.00
1077.593, 41433.00
1078.693, 41705.00
1079.793, 41704.00
1080.893, 41587.00
1081.993, 41589.11
1083.092, 41790.00
1084.192, 41389.00
1085.291, 41492.00
1086.390, 41546.00
1087.489, 41273.00
1088.588, 41424.00
1089.686, 41135.00
1090.785, 41409.00
1091.883, 41562.00
1092.981, 41450.00
1094.079, 41247.00
1095.177, 41492.00
1096.275, 41184.00
1097.373, 41434.00
1098.470, 41272.00
1099.567, 41603.00
1100.664, 41311.00
1101.761, 41258.00
1102.858, 41494.00
1103.954, 41317.00
1105.051, 41308.00
1106.147, 41300.00
1107.243, 41230.00
1108.339, 41374.00
1109.435, 41359.00
1110.531, 41265.00
1111.626, 41432.00
1112.722, 41221.00
1113.817, 41424.00
1114.912, 41205.00
1116.007, 41465.00
1117.101, 41351.00
1118.196, 41215.00
1119.290, 41316.00
1120.385, 41378.00
1121.479, 41353.00
1122.573, 41334.00
1123.666, 41394.00
1124.760, 41592.00
1125.853, 41006.00
1126.947, 41274.00
1128.040, 41064.00
1129.133, 41157.00
1130.226, 41027.00
1131.318, 40878.00
1132.411, 40855.00
1133.503, 40828.37
1134.596, 40887.27
1135.688, 40859.00
1136.780, 40866.29
1137.871, 40986.00
1138.963, 40851.00
1140.054, 40952.00
1141.146, 40933.00
1142.237, 40919.00
1143.328, 40703.00
1144.419, 40789.00
1145.509, 40540.00
1146.600, 40909.00
1147.690, 40522.00
1148.780, 40837.00
1149.870, 40818.00
1150.960, 40855.00
1152.050, 40901.00
1153.139, 40553.00
1154.229, 40822.00
1155.318, 40679.00
1156.407, 40934.00
1157.496, 40614.00
1158.585, 40774.00
1159.674, 40709.70
1160.762, 40482.00
1161.850, 40586.00
1162.939, 40800.00
1164.027, 40692.00
1165.114, 40573.00
1166.202, 40487.00
1167.290, 40571.00
1168.377, 40525.00
1169.464, 40735.00
1170.551, 40642.00
1171.638, 40599.00
1172.725, 40583.00
1173.812, 40455.00
1174.898, 40498.99
1175.984, 40410.00
1177.071, 40541.00
1178.157, 40532.23
1179.242, 40558.74
1180.328, 40584.00
1181.414, 40669.00
1182.499, 40786.00
1183.584, 40658.00
1184.669, 40439.00
1185.754, 40602.00
1186.839, 40439.00
1187.924, 40696.00
1189.008, 40819.00
1190.092, 40446.00
1191.177, 40782.00
1192.260, 40747.00
1193.344, 40564.00
1194.428, 41006.00
1195.512, 41002.00
1196.595, 40410.00
1197.678, 40547.00
1198.761, 40431.00
1199.844, 40390.00
1200.927, 40530.00
1202.009, 40417.00
1203.092, 40766.00
1204.174, 40523.00
1205.256, 40307.00
1206.338, 40412.00
1207.420, 40691.00
1208.502, 40324.00
1209.583, 40498.00
1210.665, 40342.00
1211.746, 40467.00
1212.827, 40609.00
1213.908, 40620.00
1214.988, 40248.00
1216.069, 40518.00
1217.149, 40505.00
1218.230, 40753.00
1219.310, 40623.00
1220.390, 40621.00
1221.470, 40223.00
1222.549, 40370.00
1223.629, 40463.00
1224.708, 40592.00
1225.787, 40459.00
1226.866, 40603.00
1227.945, 40511.00
1229.024, 40359.00
1230.103, 40582.00
1231.181, 40438.00
1232.259, 40442.00
1233.337, 40226.00
1234.415, 40361.00
1235.493, 40747.00
1236.571, 40405.00
1237.648, 40553.00
1238.726, 40494.00
1239.803, 40259.00
1240.880, 40591.00
1241.957, 40593.00
1243.034, 40457.00
1244.110, 40515.00
1245.187, 40432.00
1246.263, 40533.00
1247.339, 40406.00
1248.415, 40507.00
1249.491, 40602.00
1250.566, 40396.00
1251.642, 40278.00
1252.717, 40438.00
1253.793, 40600.00
1254.868, 40621.39
1255.943, 40422.00
1257.017, 40717.00
1258.092, 40412.00
1259.166, 40214.00
1260.241, 40491.00
1261.315, 40257.00
1262.389, 40465.00
1263.462, 40440.00
1264.536, 40363.00
1265.610, 40429.00
1266.683, 40425.00
1267.756, 40490.00
1268.829, 40418.00
1269.902, 40479.00
1270.975, 40744.00
1272.048, 40522.00
1273.120, 40602.00
1274.192, 40469.10
1275.264, 40352.00
1276.336, 40242.00
1277.408, 40336.00
1278.480, 40310.56
1279.551, 40536.16
1280.623, 40665.27
1281.694, 40703.08
1282.765, 40376.13
1283.836, 40520.19
1284.907, 40475.49
1285.977, 40423.05
1287.048, 40633.40
1288.118, 40359.50
1289.188, 40565.68
1290.258, 40580.22
1291.328, 40682.46
1292.398, 40594.79
1293.467, 40565.77
1294.537, 40726.74
1295.606, 40782.51
1296.675, 40672.96
1297.744, 40780.79
1298.813, 40500.24
1299.882, 40560.49
1300.950, 40767.77
1302.018, 40667.77
1303.086, 40779.06
1304.155, 40809.88
1305.222, 40474.99
1306.290, 40776.10
1307.358, 40802.16
1308.425, 40545.80
1309.492, 40825.11
1310.559, 40607.69
1311.626, 40894.00
1312.693, 40563.00
1313.760, 40800.00
1314.826, 40514.00
1315.893, 40429.00
1316.959, 40808.00
1318.025, 40602.00
1319.091, 40635.00
1320.157, 40741.00
1321.222, 40618.00
1322.288, 40695.00
1323.353, 40611.00
1324.418, 40617.00
1325.483, 40668.00
1326.548, 40825.00
1327.612, 40870.00
1328.677, 40731.00
1329.741, 40512.00
1330.806, 40752.00
1331.870, 40548.08
1332.934, 40764.71
1333.997, 40884.86
1335.061, 40913.70
1336.124, 40577.79
1337.188, 40712.89
1338.251, 40659.23
1339.314, 40597.83
1340.377, 40799.22
1341.439, 40516.37
1342.502, 40713.60
1343.564, 40719.18
1344.627, 40812.48
1345.689, 40715.85
1346.751, 40677.89
1347.813, 40829.91
1348.874, 40876.73
1349.936, 40758.24
1350.997, 40857.12
1352.058, 40567.63
1353.119, 40618.94
1354.180, 40817.29
1355.241, 40708.35
1356.301, 40810.70
1357.362, 40832.58
1358.422, 40488.76
1359.482, 40780.93
1360.542, 40798.06
1361.602, 40532.78
1362.662, 40803.16
1363.721, 40576.81
1364.781, 40527.76
1365.840, 40612.15
1366.899, 40557.44
1367.958, 40722.04
1369.017, 40843.00
1370.075, 40816.00
1371.134, 40564.00
1372.192, 40931.00
1373.250, 40825.00
1374.308, 40980.00
1375.366, 40673.00
1376.424, 40699.00
1377.481, 40763.00
1378.539, 40590.00
1379.596, 40789.00
1380.653, 40719.00
1381.710, 40902.00
1382.767, 40678.00
1383.824, 40992.00
1384.880, 40838.00
1385.937, 40814.00
1386.993, 40641.00
1388.049, 41007.00
1389.105, 40773.00
1390.161, 40940.00
1391.216, 41001.00
1392.272, 40557.00
1393.327, 40969.00
1394.382, 40324.00
1395.437, 40916.00
1396.492, 40867.00
1397.547, 41031.00
1398.601, 40764.00
1399.656, 40810.00
1400.710, 40794.00
1401.764, 40784.00
1402.818, 40798.00
1403.872, 40847.66
1404.925, 40817.00
1405.979, 40908.00
1407.032, 40897.00
1408.085, 40758.00
1409.139, 40696.00
1410.191, 40747.00
1411.244, 40760.50
1412.297, 40780.45
1413.349, 40925.00
1414.402, 40806.00
1415.454, 40835.00
1416.506, 40731.00
1417.558, 40812.00
1418.609, 40791.00
1419.661, 40776.68
1420.712, 40823.00
1421.764, 40784.00
1422.815, 40713.00
1423.866, 40737.00
1424.916, 41008.00
1425.967, 40556.00
1427.018, 41073.00
1428.068, 40759.00
1429.118, 40977.00
1430.168, 40782.00
1431.218, 41028.00
1432.268, 40863.00
1433.318, 40747.00
1434.367, 40724.00
1435.416, 40763.00
1436.465, 41088.00
1437.514, 40991.00
1438.563, 40967.00
1439.612, 41022.07
1440.661, 40856.00
1441.709, 40949.00
1442.757, 40929.00
1443.805, 40906.00
1444.853, 40856.00
1445.901, 40891.00
1446.949, 40688.00
1447.996, 40774.00
1449.044, 40912.00
1450.091, 40959.00
1451.138, 40608.36
1452.185, 40837.68
1453.232, 40970.52
1454.278, 41012.05
1455.325, 40688.83
1456.371, 40836.62
1457.417, 40795.64
1458.463, 40746.92
1459.509, 40960.99
1460.555, 40690.82
1461.601, 40900.72
1462.646, 40918.98
1463.691, 41024.95
1464.737, 40941.00
1465.782, 40915.70
1466.826, 41080.38
1467.871, 41139.88
1468.916, 41034.05
1469.960, 41145.59
1471.004, 40868.76
1472.048, 40932.72
1473.092, 41143.73
1474.136, 41047.44
1475.180, 41162.45
1476.223, 40677.00
1477.267, 41068.00
1478.310, 40592.00
1479.353, 40967.00
1480.396, 40665.00
1481.439, 40779.00
1482.481, 40833.00
1483.524, 40786.00
1484.566, 40725.00
1485.608, 40717.00
1486.650, 40828.00
1487.692, 41072.00
1488.734, 40720.00
1489.775, 40802.00
1490.817, 40621.00
1491.858, 40894.00
1492.899, 40778.00
1493.940, 40774.00
1494.981, 40899.00
1496.022, 40844.00
1497.062, 40807.00
1498.103, 40883.00
1499.143, 40833.00
1500.183, 40829.00
1501.223, 40895.00
1502.263, 40780.00
1503.302, 40787.00
1504.342, 40757.00
1505.381, 40846.00
1506.420, 41050.00
1507.459, 40549.00
1508.498, 40801.23
1509.537, 40736.32
1510.576, 40951.00
1511.614, 40640.00
1512.652, 40853.00
1513.691, 40468.00
1514.729, 40849.00
1515.767, 40913.00
1516.804, 40752.00
1517.842, 40618.00
1518.879, 40622.00
1519.917, 40553.36
1520.954, 40858.00
1521.991, 40593.00
1523.028, 40700.00
1524.064, 40815.00
1525.101, 40556.00
1526.137, 40781.00
1527.173, 40742.00
1528.210, 40782.00
1529.245, 40902.00
1530.281, 40607.00
1531.317, 40679.00
1532.352, 40936.00
1533.388, 40819.00
1534.423, 40328.00
1535.458, 40496.00
1536.493, 40455.04
1537.528, 40674.52
1538.562, 40797.51
1539.597, 40829.20
1540.631, 40496.14
1541.665, 40634.08
1542.700, 40583.26
1543.733, 40524.70
1544.767, 40728.94
1545.801, 40448.92
1546.834, 40648.99
1547.868, 40657.42
1548.901, 40753.56
1549.934, 40659.77
1550.967, 40624.64
1551.999, 40779.50
1553.032, 40829.17
1554.064, 40713.52
1555.097, 40815.23
1556.129, 40528.58
1557.161, 40582.73
1558.193, 40783.91
1559.224, 40677.81
1560.256, 40782.99
1561.287, 40807.71
1562.318, 40466.73
1563.350, 40761.73
1564.380, 40781.70
1565.411, 40519.25
1566.442, 40879.00
1567.472, 40648.00
1568.503, 40779.00
1569.533, 40490.00
1570.563, 40610.00
##END=



