##NAMES=Ilvaite
##RRUFFID=R050040
##IDEAL CHEMISTRY=CaFe^2+^_2_Fe^3+^OSi_2_O_7_(OH)
##LOCALITY=Capo Calamita, Isle of Elba, Italy
##OWNER=RRUFF
##SOURCE=University of Arizona Mineral Museum
##DESCRIPTION=Brown fragment
##STATUS=The identification of this mineral has been confirmed by X-ray diffraction and chemical analysis
##URL=rruff.info/R050040
##MEASURED CHEMISTRY=Ca_1.00_(Fe^2+^_1.89_Mn_0.10_Mg_0.01_)_Î£=2_Fe^3+^_1.00_OSi_2.00_O_7_(OH); trace amounts of Al; OH estimated by charge balance
##PIN_ID=M00423
##ORIENTATION=Laser parallel to -c* (0 0 -1). Fiducial mark perpendicular to laser is parallel to a [1 0 0]
148.5960, 42401.00
149.8300, 42896.00
151.0630, 43624.00
152.2960, 43550.00
153.5300, 43261.00
154.7620, 43351.00
155.9950, 43263.00
157.2280, 42450.00
158.4600, 42472.00
159.6920, 42206.00
160.9250, 42217.00
162.1560, 42377.00
163.3880, 42361.00
164.6200, 42728.00
165.8510, 42540.00
167.0820, 42817.00
168.3130, 42890.00
169.5440, 42908.00
170.7750, 43031.00
172.0050, 42547.00
173.2350, 42045.00
174.4650, 42101.00
175.6950, 41979.00
176.9250, 42120.00
178.1550, 41945.00
179.3840, 41686.00
180.6130, 41636.00
181.8420, 42053.00
183.0710, 41600.00
184.3000, 42313.00
185.5280, 42164.00
186.7570, 42873.00
187.9850, 42901.00
189.2130, 43499.00
190.4400, 44210.00
191.6680, 44870.00
192.8960, 45437.00
194.1230, 46248.00
195.3500, 46728.00
196.5770, 47008.85
197.8030, 48245.00
199.0300, 47191.00
200.2560, 47389.00
201.4830, 47133.00
202.7090, 46042.00
203.9340, 44126.00
205.1600, 42691.00
206.3860, 41044.00
207.6110, 40828.00
208.8360, 40100.40
210.0610, 39995.00
211.2860, 40107.00
212.5100, 40063.00
213.7350, 39874.52
214.9590, 40170.00
216.1830, 39602.00
217.4070, 39638.00
218.6310, 39846.00
219.8540, 39840.00
221.0780, 39892.00
222.3010, 40000.09
223.5240, 39936.00
224.7470, 40137.00
225.9690, 40099.00
227.1920, 40140.00
228.4140, 40361.00
229.6360, 40468.00
230.8580, 40401.00
232.0800, 40326.00
233.3020, 40834.00
234.5230, 40847.00
235.7440, 41040.00
236.9650, 40532.00
238.1860, 40576.00
239.4070, 40437.00
240.6280, 40236.00
241.8480, 40128.00
243.0680, 40173.00
244.2880, 39992.00
245.5080, 40275.00
246.7280, 40044.78
247.9470, 40392.00
249.1660, 39743.00
250.3860, 40080.00
251.6040, 39923.00
252.8230, 40343.00
254.0420, 40330.21
255.2600, 40689.26
256.4790, 40954.32
257.6970, 41130.20
258.9150, 40950.27
260.1320, 41229.67
261.3500, 41325.07
262.5670, 41412.80
263.7840, 41756.87
265.0010, 41628.58
266.2180, 41968.58
267.4350, 42121.65
268.6510, 42360.16
269.8680, 42478.00
271.0840, 42472.00
272.3000, 42403.00
273.5160, 42606.00
274.7310, 42706.00
275.9470, 42913.00
277.1620, 43022.00
278.3770, 42980.00
279.5920, 42505.00
280.8070, 42533.00
282.0210, 42120.00
283.2360, 42362.00
284.4500, 41982.00
285.6640, 42094.00
286.8780, 42276.00
288.0920, 41949.00
289.3050, 42081.00
290.5180, 42154.00
291.7320, 42289.00
292.9450, 42198.00
294.1570, 42396.36
295.3700, 42345.00
296.5830, 42612.00
297.7950, 42633.00
299.0070, 42578.00
300.2190, 42579.00
301.4310, 42602.91
302.6420, 42562.00
303.8540, 42775.00
305.0650, 42519.00
306.2760, 42824.00
307.4870, 42494.00
308.6980, 42696.00
309.9080, 42717.00
311.1190, 42913.00
312.3290, 43110.00
313.5390, 43435.00
314.7490, 43636.00
315.9580, 43466.00
317.1680, 44117.00
318.3770, 44078.00
319.5860, 44759.00
320.7950, 45090.38
322.0040, 45603.27
323.2130, 46005.00
324.4210, 46921.00
325.6290, 47603.00
326.8380, 48511.00
328.0460, 48720.00
329.2530, 49292.00
330.4610, 49516.00
331.6680, 49986.00
332.8760, 49953.00
334.0830, 49440.00
335.2890, 49659.00
336.4960, 49199.00
337.7030, 48777.00
338.9090, 48352.00
340.1150, 47930.00
341.3210, 47237.00
342.5270, 46526.00
343.7330, 46113.00
344.9380, 45603.75
346.1440, 45232.00
347.3490, 44915.00
348.5540, 44669.00
349.7590, 44486.00
350.9630, 44388.00
352.1680, 44105.00
353.3720, 44032.00
354.5760, 44160.00
355.7800, 43836.00
356.9840, 44135.00
358.1870, 43764.00
359.3910, 43719.00
360.5940, 43827.00
361.7970, 43594.00
363.0000, 43447.00
364.2030, 42964.00
365.4050, 43380.00
366.6080, 42727.00
367.8100, 42902.00
369.0120, 42674.00
370.2140, 42647.00
371.4150, 42536.00
372.6170, 42338.00
373.8180, 42274.00
375.0190, 42535.00
376.2200, 42317.00
377.4210, 42367.00
378.6220, 41956.00
379.8220, 42466.00
381.0230, 42216.00
382.2230, 42182.24
383.4230, 42497.00
384.6220, 42154.00
385.8220, 42002.00
387.0220, 42250.00
388.2210, 42167.00
389.4200, 41979.00
390.6190, 42156.00
391.8180, 42307.00
393.0160, 42245.00
394.2150, 42274.07
395.4130, 42434.00
396.6110, 42202.00
397.8090, 42095.00
399.0060, 42218.00
400.2040, 41985.00
401.4010, 42432.00
402.5980, 42314.00
403.7950, 42540.00
404.9920, 42578.00
406.1890, 42510.00
407.3860, 42486.00
408.5820, 42740.00
409.7780, 42501.00
410.9740, 42749.00
412.1700, 42885.00
413.3650, 42664.00
414.5610, 43064.00
415.7560, 43004.00
416.9510, 43236.00
418.1460, 43220.00
419.3410, 43562.00
420.5360, 43592.00
421.7300, 43767.00
422.9240, 44139.00
424.1180, 44015.00
425.3120, 44141.00
426.5060, 44807.00
427.7000, 44908.00
428.8930, 45168.00
430.0860, 45313.00
431.2790, 45159.00
432.4720, 44963.00
433.6650, 44879.00
434.8580, 44707.00
436.0500, 44563.48
437.2420, 44346.30
438.4340, 44404.00
439.6260, 43924.00
440.8180, 44101.00
442.0090, 44056.00
443.2010, 43821.00
444.3920, 44051.00
445.5830, 43920.00
446.7740, 43786.00
447.9640, 43591.00
449.1550, 43660.00
450.3450, 43515.00
451.5350, 43677.00
452.7250, 43758.00
453.9150, 43788.00
455.1050, 43868.00
456.2940, 44059.00
457.4830, 44159.00
458.6720, 44118.00
459.8610, 43926.00
461.0500, 44053.00
462.2390, 43937.00
463.4270, 44078.00
464.6150, 44069.00
465.8040, 43998.00
466.9910, 44390.00
468.1790, 44110.00
469.3670, 44309.00
470.5540, 44377.00
471.7410, 44575.00
472.9280, 44823.00
474.1150, 44751.00
475.3020, 44652.00
476.4890, 44682.00
477.6750, 45017.00
478.8610, 45123.00
480.0470, 45454.00
481.2330, 45562.00
482.4190, 45668.00
483.6040, 45670.00
484.7900, 46024.93
485.9750, 46309.02
487.1600, 46751.00
488.3450, 47046.00
489.5290, 47472.00
490.7140, 47639.00
491.8980, 47820.00
493.0820, 48757.00
494.2660, 49057.00
495.4500, 49774.00
496.6340, 49926.00
497.8170, 50461.00
499.0010, 50775.00
500.1840, 50831.00
501.3670, 50922.00
502.5500, 51215.00
503.7320, 50953.00
504.9150, 50630.00
506.0970, 50790.00
507.2790, 50597.00
508.4610, 49896.00
509.6430, 50279.00
510.8250, 49770.00
512.0060, 49777.00
513.1870, 49437.00
514.3680, 49418.00
515.5490, 49282.86
516.7300, 49155.47
517.9110, 49117.00
519.0910, 49009.00
520.2710, 49025.00
521.4510, 48976.00
522.6310, 48886.00
523.8110, 48820.00
524.9910, 48823.76
526.1700, 48789.86
527.3490, 48822.00
528.5280, 48848.00
529.7070, 48798.12
530.8860, 48930.00
532.0650, 48888.00
533.2430, 48728.00
534.4210, 48848.00
535.5990, 48697.72
536.7770, 48681.00
537.9550, 48523.00
539.1320, 48492.00
540.3100, 48398.00
541.4870, 48186.00
542.6640, 48214.00
543.8410, 48049.00
545.0170, 48204.00
546.1940, 48147.00
547.3700, 47593.00
548.5470, 47713.00
549.7230, 47623.00
550.8980, 47291.00
552.0740, 47409.00
553.2500, 47200.00
554.4250, 47074.00
555.6000, 46832.00
556.7750, 46749.00
557.9500, 46741.00
559.1250, 46770.00
560.2990, 46603.00
561.4730, 46766.00
562.6480, 46517.00
563.8220, 46396.00
564.9950, 46224.00
566.1690, 46191.00
567.3430, 46392.00
568.5160, 46339.00
569.6890, 46484.00
570.8620, 46408.00
572.0350, 46450.00
573.2070, 46563.00
574.3800, 46353.00
575.5520, 46820.00
576.7240, 46884.00
577.8960, 47115.00
579.0680, 47522.00
580.2400, 47655.00
581.4110, 47817.00
582.5830, 48128.00
583.7540, 47996.00
584.9250, 47905.00
586.0950, 47326.00
587.2660, 47410.00
588.4370, 47051.00
589.6070, 46636.00
590.7770, 46399.00
591.9470, 45959.00
593.1170, 45847.00
594.2860, 45517.00
595.4560, 45342.00
596.6250, 44967.00
597.7940, 44822.00
598.9630, 44852.00
600.1320, 44788.00
601.3000, 44475.00
602.4690, 44532.00
603.6370, 44285.00
604.8050, 44417.00
605.9730, 44196.00
607.1410, 43780.00
608.3090, 43675.00
609.4760, 43867.00
610.6430, 44166.00
611.8100, 43866.00
612.9770, 43529.00
614.1440, 43468.00
615.3110, 43335.00
616.4770, 43104.00
617.6430, 43346.00
618.8090, 42969.00
619.9750, 42883.00
621.1410, 42974.00
622.3070, 42862.00
623.4720, 42781.00
624.6370, 42898.00
625.8020, 42754.00
626.9670, 42620.00
628.1320, 42507.00
629.2970, 42668.00
630.4610, 42596.77
631.6250, 42802.00
632.7890, 42625.00
633.9530, 42647.00
635.1170, 42538.00
636.2810, 42567.00
637.4440, 42535.37
638.6070, 42268.00
639.7700, 42524.00
640.9330, 42501.00
642.0960, 42532.00
643.2590, 42172.00
644.4210, 42090.00
645.5830, 42456.00
646.7450, 42180.51
647.9070, 42232.26
649.0690, 42237.00
650.2310, 42065.00
651.3920, 42381.00
652.5530, 42298.00
653.7140, 42272.00
654.8750, 42405.00
656.0360, 42202.00
657.1970, 42244.00
658.3570, 42165.53
659.5170, 42143.93
660.6770, 42048.00
661.8370, 42113.00
662.9970, 42175.00
664.1570, 42066.00
665.3160, 42257.00
666.4750, 42071.00
667.6340, 42040.00
668.7930, 42067.00
669.9520, 41806.00
671.1110, 41914.10
672.2690, 42202.00
673.4270, 42073.00
674.5850, 42100.00
675.7430, 42386.00
676.9010, 42432.00
678.0590, 42287.00
679.2160, 42540.00
680.3730, 42189.00
681.5300, 42169.00
682.6870, 42334.00
683.8440, 42245.00
685.0010, 42501.00
686.1570, 42590.00
687.3130, 42625.00
688.4690, 42676.00
689.6250, 42695.00
690.7810, 42798.00
691.9370, 43220.00
693.0920, 43334.00
694.2470, 43801.00
695.4020, 43702.00
696.5570, 44344.00
697.7120, 44621.00
698.8670, 44947.00
700.0210, 45712.00
701.1750, 46309.00
702.3290, 46275.00
703.4830, 46755.00
704.6370, 46941.00
705.7910, 46744.00
706.9440, 46498.00
708.0970, 45902.00
709.2510, 45740.00
710.4030, 45159.00
711.5560, 44461.00
712.7090, 43967.00
713.8610, 43687.00
715.0140, 43392.00
716.1660, 43170.00
717.3180, 43218.00
718.4690, 42782.00
719.6210, 42499.00
720.7730, 42606.00
721.9240, 42650.00
723.0750, 42275.00
724.2260, 42166.00
725.3770, 42178.00
726.5270, 42047.00
727.6780, 42227.00
728.8280, 42049.04
729.9780, 42110.00
731.1280, 41863.00
732.2780, 41955.00
733.4280, 41980.00
734.5770, 42023.00
735.7260, 41766.00
736.8760, 41795.00
738.0250, 41621.00
739.1730, 41887.00
740.3220, 41838.00
741.4700, 41900.00
742.6190, 41739.00
743.7670, 41674.00
744.9150, 42026.00
746.0630, 42025.00
747.2100, 41866.00
748.3580, 41580.00
749.5050, 41763.00
750.6520, 41593.00
751.7990, 41561.00
752.9460, 41603.00
754.0930, 41806.00
755.2390, 41664.00
756.3860, 41824.00
757.5320, 41785.00
758.6780, 41692.00
759.8240, 41769.00
760.9690, 41606.00
762.1150, 41796.00
763.2600, 41659.00
764.4060, 41801.00
765.5510, 41652.00
766.6950, 41910.00
767.8400, 41744.00
768.9850, 41986.00
770.1290, 41909.00
771.2730, 41722.00
772.4170, 41645.00
773.5610, 41635.32
774.7050, 41834.00
775.8480, 41715.00
776.9920, 41845.00
778.1350, 41993.00
779.2780, 41834.00
780.4210, 41689.00
781.5640, 42046.00
782.7060, 41890.00
783.8490, 41847.00
784.9910, 41991.00
786.1330, 41976.21
787.2750, 42052.00
788.4170, 42169.00
789.5580, 42116.00
790.7000, 42203.00
791.8410, 42288.00
792.9820, 42330.55
794.1230, 42241.00
795.2640, 42509.00
796.4040, 42634.00
797.5450, 42754.00
798.6850, 42670.00
799.8250, 43179.00
800.9650, 43046.00
802.1050, 43247.31
803.2450, 43150.00
804.3840, 43634.00
805.5230, 43486.00
806.6630, 43960.00
807.8020, 44062.00
808.9400, 44519.00
810.0790, 44424.00
811.2170, 44562.00
812.3560, 44950.00
813.4940, 45207.00
814.6320, 45629.00
815.7700, 45843.00
816.9070, 46021.00
818.0450, 46290.00
819.1820, 46152.00
820.3190, 46468.00
821.4560, 46177.00
822.5930, 46048.00
823.7300, 45737.00
824.8670, 45387.00
826.0030, 44995.00
827.1390, 44762.27
828.2750, 44597.00
829.4110, 44267.00
830.5470, 44102.00
831.6820, 43856.00
832.8180, 43895.00
833.9530, 43775.00
835.0880, 43282.00
836.2230, 43385.00
837.3580, 43385.00
838.4920, 43119.00
839.6270, 43425.00
840.7610, 43279.00
841.8950, 43425.00
843.0290, 43348.00
844.1630, 43622.00
845.2960, 43883.00
846.4300, 44243.00
847.5630, 44171.31
848.6960, 44201.00
849.8290, 44065.00
850.9620, 44207.00
852.0940, 44294.00
853.2270, 44273.00
854.3590, 44614.00
855.4910, 44836.00
856.6230, 44754.00
857.7550, 44778.00
858.8870, 44899.00
860.0180, 45032.00
861.1500, 44777.00
862.2810, 44605.00
863.4120, 44378.00
864.5430, 44335.42
865.6730, 44420.00
866.8040, 44309.00
867.9340, 44432.00
869.0640, 44455.00
870.1940, 44445.25
871.3240, 44329.00
872.4540, 44382.00
873.5830, 44349.00
874.7130, 44116.00
875.8420, 44049.00
876.9710, 44152.00
878.1000, 44015.00
879.2290, 43973.00
880.3570, 43946.00
881.4860, 43920.96
882.6140, 43906.95
883.7420, 43657.15
884.8700, 43875.64
885.9980, 44000.03
887.1250, 44035.35
888.2530, 43714.87
889.3800, 43853.83
890.5070, 43808.67
891.6340, 43755.96
892.7610, 43959.58
893.8880, 43690.85
895.0140, 43890.41
896.1400, 43903.04
897.2670, 44001.22
898.3930, 43914.14
899.5180, 43884.28
900.6440, 43947.00
901.7700, 43946.44
902.8950, 43816.00
904.0200, 43872.00
905.1450, 43863.00
906.2700, 43879.00
907.3950, 44001.00
908.5190, 44104.00
909.6440, 44151.00
910.7680, 44146.00
911.8920, 44179.56
913.0160, 43998.00
914.1400, 44206.00
915.2630, 44133.00
916.3870, 44223.00
917.5100, 44574.00
918.6330, 44527.00
919.7560, 44524.00
920.8790, 44512.00
922.0010, 44426.00
923.1240, 45080.00
924.2460, 44638.00
925.3680, 44912.00
926.4900, 45066.00
927.6120, 44854.00
928.7340, 45189.00
929.8550, 45200.00
930.9760, 45314.00
932.0980, 45390.00
933.2190, 45342.00
934.3390, 45280.00
935.4600, 45313.15
936.5810, 45255.44
937.7010, 45304.00
938.8210, 45258.00
939.9410, 45243.32
941.0610, 45365.00
942.1810, 45269.00
943.3010, 45407.00
944.4200, 45402.00
945.5390, 45332.00
946.6580, 45544.00
947.7770, 45183.00
948.8960, 45135.00
950.0150, 45347.00
951.1330, 45338.00
952.2510, 45547.00
953.3690, 45417.00
954.4870, 45347.00
955.6050, 45289.00
956.7230, 45736.00
957.8400, 45519.00
958.9580, 45814.00
960.0750, 45888.00
961.1920, 45916.00
962.3090, 45830.00
963.4250, 46042.00
964.5420, 46176.00
965.6580, 46306.00
966.7740, 46153.00
967.8900, 46649.00
969.0060, 46720.42
970.1220, 46879.00
971.2380, 47270.00
972.3530, 47569.00
973.4680, 47973.00
974.5830, 47965.00
975.6980, 48431.00
976.8130, 48508.00
977.9280, 48855.00
979.0420, 49415.00
980.1560, 49356.00
981.2710, 49567.00
982.3850, 49959.00
983.4980, 49696.00
984.6120, 50005.00
985.7260, 49593.00
986.8390, 49684.00
987.9520, 49154.00
989.0650, 48995.00
990.1780, 48697.00
991.2910, 48575.00
992.4030, 47971.00
993.5160, 47901.00
994.6280, 47351.00
995.7400, 46953.00
996.8520, 46557.00
997.9640, 46292.00
999.0750, 46214.00
1000.187, 45978.90
1001.298, 45809.97
1002.409, 45731.00
1003.520, 45584.00
1004.631, 45434.00
1005.741, 45354.83
1006.852, 45097.00
1007.962, 45201.00
1009.072, 45145.00
1010.182, 45146.00
1011.292, 44926.00
1012.402, 45077.00
1013.511, 44622.00
1014.621, 45062.00
1015.730, 44902.00
1016.839, 44623.00
1017.948, 44855.00
1019.056, 44925.00
1020.165, 44594.00
1021.273, 44531.00
1022.382, 44529.00
1023.490, 44583.00
1024.598, 44668.00
1025.706, 44647.00
1026.813, 44695.26
1027.921, 44636.00
1029.028, 44677.00
1030.135, 44625.00
1031.242, 44508.00
1032.349, 44580.00
1033.456, 44295.00
1034.562, 44383.16
1035.668, 44591.00
1036.775, 44537.00
1037.881, 44393.00
1038.987, 44695.00
1040.092, 44734.00
1041.198, 44540.00
1042.303, 44550.00
1043.408, 44618.00
1044.514, 44567.00
1045.618, 44507.00
1046.723, 44851.00
1047.828, 44440.00
1048.932, 44349.00
1050.037, 44416.00
1051.141, 44994.00
1052.245, 44746.00
1053.349, 44620.00
1054.452, 44590.00
1055.556, 44455.00
1056.659, 44573.00
1057.762, 44743.00
1058.865, 44635.00
1059.968, 44501.00
1061.071, 44691.00
1062.174, 44630.00
1063.276, 44574.00
1064.378, 44599.00
1065.480, 44584.00
1066.582, 44543.61
1067.684, 44551.65
1068.786, 44470.00
1069.887, 44532.00
1070.988, 44502.00
1072.090, 44499.00
1073.191, 44529.00
1074.291, 44557.00
1075.392, 44520.00
1076.493, 44469.00
1077.593, 44627.00
1078.693, 44587.00
1079.793, 44562.74
1080.893, 44443.00
1081.993, 44479.00
1083.092, 44435.14
1084.192, 44647.21
1085.291, 44410.00
1086.390, 44511.00
1087.489, 44490.00
1088.588, 44189.00
1089.686, 44238.00
1090.785, 44264.00
1091.883, 44473.00
1092.981, 44586.00
1094.079, 44216.00
1095.177, 44216.00
1096.275, 44347.00
1097.373, 43933.00
1098.470, 44153.00
1099.567, 44304.00
1100.664, 44303.00
1101.761, 44319.00
1102.858, 44292.00
1103.954, 43904.00
1105.051, 44200.00
1106.147, 44014.00
1107.243, 44177.00
1108.339, 43898.00
1109.435, 44396.00
1110.531, 43979.00
1111.626, 44190.00
1112.722, 44305.00
1113.817, 43941.00
1114.912, 44040.00
1116.007, 43746.00
1117.101, 43956.00
1118.196, 44090.00
1119.290, 43978.00
1120.385, 44191.00
1121.479, 44093.00
1122.573, 44078.00
1123.666, 43784.00
1124.760, 43950.00
1125.853, 43878.00
1126.947, 44116.00
1128.040, 43965.00
1129.133, 43704.00
1130.226, 43782.00
1131.318, 43846.00
1132.411, 43644.00
1133.503, 43617.00
1134.596, 43642.00
1135.688, 43601.03
1136.780, 43337.00
1137.871, 43696.00
1138.963, 43428.00
1140.054, 43504.00
1141.146, 43885.00
1142.237, 43761.00
1143.328, 43671.00
1144.419, 43412.00
1145.509, 43517.00
1146.600, 43665.00
1147.690, 43523.00
1148.780, 43602.00
1149.870, 43472.00
1150.960, 43496.00
1152.050, 43696.00
1153.139, 43591.64
1154.229, 43667.00
1155.318, 43416.00
1156.407, 43498.00
1157.496, 43059.00
1158.585, 42951.00
1159.674, 43361.00
1160.762, 43503.00
1161.850, 43784.00
1162.939, 43435.00
1164.027, 43240.00
1165.114, 43243.00
1166.202, 43463.00
1167.290, 43245.00
1168.377, 43262.00
1169.464, 43283.00
1170.551, 42953.00
1171.638, 42992.00
1172.725, 43178.00
1173.812, 42957.00
1174.898, 43208.00
1175.984, 43028.00
1177.071, 42913.00
1178.157, 43264.00
1179.242, 43151.00
1180.328, 43169.00
1181.414, 43287.00
1182.499, 43225.00
1183.584, 43223.79
1184.669, 43237.00
1185.754, 43251.00
1186.839, 43200.23
1187.924, 43137.00
1189.008, 43134.00
1190.092, 43006.00
1191.177, 42911.19
1192.260, 43122.68
1193.344, 43240.05
1194.428, 43268.37
1195.512, 42940.88
1196.595, 43072.84
1197.678, 43020.67
1198.761, 42960.95
1199.844, 43157.58
1200.927, 42881.84
1202.009, 43074.41
1203.092, 43080.03
1204.174, 43171.21
1205.256, 43077.14
1206.338, 43040.28
1207.420, 43188.74
1208.502, 43234.59
1209.583, 43119.19
1210.665, 43215.82
1211.746, 42933.62
1212.827, 43081.00
1213.908, 43140.00
1214.988, 43120.79
1216.069, 43186.34
1217.149, 43140.00
1218.230, 43183.00
1219.310, 43147.00
1220.390, 43021.00
1221.470, 42933.00
1222.549, 43172.00
1223.629, 42683.00
1224.708, 43108.00
1225.787, 43158.00
1226.866, 42655.00
1227.945, 42957.00
1229.024, 42940.00
1230.103, 43015.00
1231.181, 42840.00
1232.259, 42984.00
1233.337, 42743.00
1234.415, 42717.00
1235.493, 43007.00
1236.571, 42811.00
1237.648, 42921.00
1238.726, 43039.00
1239.803, 43091.00
1240.880, 43055.72
1241.957, 43312.00
1243.034, 42985.00
1244.110, 43069.00
1245.187, 43223.00
1246.263, 43288.00
1247.339, 43167.00
1248.415, 43093.00
1249.491, 43067.00
1250.566, 43067.16
1251.642, 43151.00
1252.717, 43134.00
1253.793, 43220.00
1254.868, 43216.00
1255.943, 43203.68
1257.017, 43272.27
1258.092, 43158.00
1259.166, 43242.00
1260.241, 43232.00
1261.315, 43182.70
1262.389, 43228.09
1263.462, 43092.00
1264.536, 43156.00
1265.610, 43074.00
1266.683, 42848.00
1267.756, 42994.00
1268.829, 43006.00
1269.902, 43049.00
1270.975, 42931.00
1272.048, 42816.00
1273.120, 43170.00
1274.192, 43102.00
1275.264, 42805.00
1276.336, 42995.00
1277.408, 43302.00
1278.480, 43069.00
1279.551, 43097.00
1280.623, 43253.00
1281.694, 43074.00
1282.765, 43088.00
1283.836, 43241.00
1284.907, 43343.00
1285.977, 43383.00
1287.048, 43168.00
1288.118, 43224.00
1289.188, 43168.00
1290.258, 42861.00
1291.328, 43351.00
1292.398, 43255.00
1293.467, 43432.00
1294.537, 43018.54
1295.606, 43240.51
1296.675, 43368.37
1297.744, 43407.18
1298.813, 43090.18
1299.882, 43232.62
1300.950, 43190.93
1302.018, 43141.70
1303.086, 43348.80
1304.155, 43083.55
1305.222, 43286.58
1306.290, 43302.68
1307.358, 43404.34
1308.425, 43320.73
1309.492, 43294.34
1310.559, 43453.28
1311.626, 43509.60
1312.693, 43404.66
1313.760, 43511.75
1314.826, 43240.01
1315.893, 43300.70
1316.959, 43504.81
1318.025, 43409.18
1319.091, 43519.66
1320.157, 43551.63
1321.222, 43226.88
1322.288, 43522.52
1323.353, 43549.85
1324.418, 43598.00
1325.483, 43478.00
1326.548, 43492.62
1327.612, 43616.00
1328.677, 43423.00
1329.741, 43419.00
1330.806, 43454.00
1331.870, 43367.00
1332.934, 43612.00
1333.997, 43588.38
1335.061, 43309.00
1336.124, 43545.00
1337.188, 43539.00
1338.251, 43133.00
1339.314, 43563.00
1340.377, 43045.00
1341.439, 43502.00
1342.502, 43201.00
1343.564, 43555.00
1344.627, 43328.00
1345.689, 43412.00
1346.751, 43675.00
1347.813, 43515.00
1348.874, 43728.00
1349.936, 43504.00
1350.997, 43648.00
1352.058, 43491.00
1353.119, 43146.00
1354.180, 43550.00
1355.241, 43703.00
1356.301, 43300.00
1357.362, 43413.00
1358.422, 43493.00
1359.482, 43609.00
1360.542, 43537.00
1361.602, 43622.00
1362.662, 43788.00
1363.721, 43645.38
1364.781, 43756.00
1365.840, 43403.00
1366.899, 43712.00
1367.958, 43487.00
1369.017, 43628.00
1370.075, 43569.00
1371.134, 43763.00
1372.192, 43581.00
1373.250, 43737.00
1374.308, 43480.00
1375.366, 43604.00
1376.424, 43565.00
1377.481, 43562.00
1378.539, 43570.00
1379.596, 43597.00
1380.653, 43577.05
1381.710, 43550.00
1382.767, 43620.00
1383.824, 43594.00
1384.880, 43761.00
1385.937, 43722.00
1386.993, 43756.00
1388.049, 43671.00
1389.105, 43652.00
1390.161, 43669.10
1391.216, 43733.00
1392.272, 43691.00
1393.327, 43819.00
1394.382, 43823.00
1395.437, 43691.00
1396.492, 44009.00
1397.547, 43395.00
1398.601, 43726.00
1399.656, 43421.00
1400.710, 43885.00
1401.764, 43659.00
1402.818, 43469.00
1403.872, 43547.00
1404.925, 43959.00
1405.979, 43856.00
1407.032, 43937.00
1408.085, 43704.00
1409.139, 43631.00
1410.191, 43769.00
1411.244, 43480.00
1412.297, 43622.00
1413.349, 43696.00
1414.402, 43840.00
1415.454, 43661.00
1416.506, 44270.00
1417.558, 43837.00
1418.609, 43576.00
1419.661, 43943.00
1420.712, 43909.00
1421.764, 43876.77
1422.815, 43775.00
1423.866, 43807.00
1424.916, 43690.00
1425.967, 43591.00
1427.018, 43862.00
1428.068, 43732.00
1429.118, 43602.00
1430.168, 43992.00
1431.218, 43948.00
1432.268, 43725.00
1433.318, 43772.00
1434.367, 43970.00
1435.416, 43765.00
1436.465, 44050.00
1437.514, 44003.00
1438.563, 43856.00
1439.612, 43839.00
1440.661, 43815.96
1441.709, 43994.00
1442.757, 43816.00
1443.805, 43987.00
1444.853, 43969.00
1445.901, 43772.00
1446.949, 44015.00
1447.996, 43940.66
1449.044, 43658.00
1450.091, 43857.00
1451.138, 44162.00
1452.185, 43773.00
1453.232, 43633.00
1454.278, 43673.00
1455.325, 43978.00
1456.371, 43825.00
1457.417, 43854.00
1458.463, 43879.23
1459.509, 43793.59
1460.555, 43793.00
1461.601, 43769.00
1462.646, 43703.00
1463.691, 43811.00
1464.737, 43994.00
1465.782, 43706.00
1466.826, 43873.00
1467.871, 43654.00
1468.916, 44130.00
1469.960, 43914.00
1471.004, 43922.00
1472.048, 43657.00
1473.092, 43674.00
1474.136, 43873.00
1475.180, 43714.00
1476.223, 43662.00
1477.267, 43692.00
1478.310, 43930.00
1479.353, 43644.00
1480.396, 43820.00
1481.439, 44005.00
1482.481, 43877.00
1483.524, 43791.00
1484.566, 43865.67
1485.608, 43623.00
1486.650, 43849.00
1487.692, 44080.00
1488.734, 44005.00
1489.775, 44089.54
1490.817, 43649.00
1491.858, 43960.00
1492.899, 44042.00
1493.940, 43905.63
1494.981, 44431.00
1496.022, 43878.00
1497.062, 43442.00
1498.103, 44053.00
1499.143, 43982.00
1500.183, 44058.00
1501.223, 43564.00
1502.263, 43727.00
1503.302, 43807.00
1504.342, 43904.00
1505.381, 43872.00
1506.420, 43685.00
1507.459, 43659.00
1508.498, 43810.00
1509.537, 43845.00
1510.576, 43537.00
1511.614, 43916.00
1512.652, 43891.00
1513.691, 43994.00
1514.729, 43653.00
1515.767, 43747.00
1516.804, 43518.00
1517.842, 43842.00
1518.879, 43881.00
1519.917, 43659.00
1520.954, 43979.00
1521.991, 43598.00
1523.028, 43731.00
1524.064, 43701.00
1525.101, 43769.00
1526.137, 43743.00
1527.173, 43605.00
1528.210, 43806.00
1529.245, 43894.00
1530.281, 43597.00
1531.317, 43689.00
1532.352, 44111.00
1533.388, 43726.00
1534.423, 43823.00
1535.458, 43875.00
1536.493, 43539.87
1537.528, 43756.83
1538.562, 43879.68
1539.597, 43913.47
1540.631, 43591.45
1541.665, 43728.88
1542.700, 43682.19
1543.733, 43627.94
1544.767, 43830.04
1545.801, 43559.77
1546.834, 43757.80
1547.868, 43768.89
1548.901, 43865.54
1549.934, 43776.93
1550.967, 43745.54
1551.999, 43899.46
1553.032, 43950.78
1554.064, 43840.84
1555.097, 43942.93
1556.129, 43666.18
1557.161, 43721.87
1558.193, 43920.98
1559.224, 43820.35
1560.256, 43925.82
1561.287, 43952.80
1562.318, 43623.05
1563.350, 43913.68
1564.380, 43936.02
1565.411, 43682.88
1566.442, 43403.00
1567.472, 43763.00
1568.503, 43883.00
1569.533, 44021.00
1570.563, 43922.00
##END=



