##NAMES=Ilvaite
##RRUFFID=R050040
##IDEAL CHEMISTRY=CaFe^2+^_2_Fe^3+^OSi_2_O_7_(OH)
##LOCALITY=Capo Calamita, Isle of Elba, Italy
##OWNER=RRUFF
##SOURCE=University of Arizona Mineral Museum
##DESCRIPTION=Brown fragment
##STATUS=The identification of this mineral has been confirmed by X-ray diffraction and chemical analysis
##URL=rruff.info/R050040
##MEASURED CHEMISTRY=Ca_1.00_(Fe^2+^_1.89_Mn_0.10_Mg_0.01_)_Î£=2_Fe^3+^_1.00_OSi_2.00_O_7_(OH); trace amounts of Al; OH estimated by charge balance
##PIN_ID=M00376
##ORIENTATION=Laser parallel to -a* (-1 0 0). Fiducial mark perpendicular to laser is parallel to -b [0 -1 0]
144.8940, 54007.75
146.1280, 54212.25
147.3620, 54324.16
148.5960, 54348.46
149.8300, 54022.73
151.0630, 54149.00
152.2960, 54094.12
153.5300, 54031.81
154.7620, 54221.70
155.9950, 53946.88
157.2280, 54132.76
158.4600, 54134.74
159.6920, 54220.89
160.9250, 54124.78
162.1560, 54084.97
163.3880, 54439.00
164.6200, 54372.00
165.8510, 54532.95
167.0820, 54431.00
168.3130, 54590.00
169.5440, 54631.00
170.7750, 54571.39
172.0050, 54030.00
173.2350, 54323.00
174.4650, 54088.00
175.6950, 54307.00
176.9250, 55060.00
178.1550, 54957.00
179.3840, 54758.00
180.6130, 54460.00
181.8420, 54742.00
183.0710, 54768.00
184.3000, 55224.00
185.5280, 55407.00
186.7570, 55497.00
187.9850, 55830.98
189.2130, 55992.58
190.4400, 56254.00
191.6680, 56563.00
192.8960, 56712.00
194.1230, 57227.00
195.3500, 57302.00
196.5770, 57318.00
197.8030, 57383.00
199.0300, 57741.00
200.2560, 57957.00
201.4830, 57815.00
202.7090, 56797.00
203.9340, 54638.00
205.1600, 52772.00
206.3860, 51951.00
207.6110, 51424.00
208.8360, 51223.00
210.0610, 50688.00
211.2860, 50591.00
212.5100, 50664.00
213.7350, 50281.00
214.9590, 49132.00
216.1830, 49024.00
217.4070, 48432.00
218.6310, 48254.00
219.8540, 48208.00
221.0780, 47709.00
222.3010, 47820.00
223.5240, 47531.00
224.7470, 47243.00
225.9690, 47277.00
227.1920, 47585.00
228.4140, 47108.00
229.6360, 47353.00
230.8580, 47147.00
232.0800, 47153.00
233.3020, 47271.00
234.5230, 47103.00
235.7440, 47325.00
236.9650, 47124.00
238.1860, 46794.00
239.4070, 46864.00
240.6280, 46838.00
241.8480, 46809.00
243.0680, 46722.61
244.2880, 46647.55
245.5080, 46475.00
246.7280, 46450.00
247.9470, 46349.00
249.1660, 46269.00
250.3860, 46211.00
251.6040, 46068.03
252.8230, 46335.05
254.0420, 46509.48
255.2600, 46596.24
256.4790, 46333.03
257.6970, 46521.76
258.9150, 46529.35
260.1320, 46529.47
261.3500, 46781.82
262.5670, 46569.43
263.7840, 46817.72
265.0010, 46752.00
266.2180, 46865.00
267.4350, 46877.00
268.6510, 47042.96
269.8680, 47486.00
271.0840, 47345.00
272.3000, 47514.00
273.5160, 47511.00
274.7310, 47960.00
275.9470, 48306.00
277.1620, 48163.00
278.3770, 47715.00
279.5920, 47770.00
280.8070, 47814.00
282.0210, 47644.00
283.2360, 47385.00
284.4500, 47345.00
285.6640, 47219.47
286.8780, 47648.00
288.0920, 46884.00
289.3050, 47217.00
290.5180, 46609.00
291.7320, 46696.00
292.9450, 46722.00
294.1570, 46563.00
295.3700, 46782.00
296.5830, 46357.00
297.7950, 46612.00
299.0070, 46570.00
300.2190, 46382.00
301.4310, 46285.00
302.6420, 46159.00
303.8540, 46238.00
305.0650, 46366.00
306.2760, 46356.00
307.4870, 46485.00
308.6980, 46254.00
309.9080, 46388.00
311.1190, 46490.00
312.3290, 46273.00
313.5390, 46396.00
314.7490, 46894.00
315.9580, 46693.00
317.1680, 47125.00
318.3770, 46925.00
319.5860, 47554.00
320.7950, 47765.00
322.0040, 48055.00
323.2130, 48330.00
324.4210, 48647.29
325.6290, 48991.00
326.8380, 49280.00
328.0460, 49568.04
329.2530, 49772.04
330.4610, 49986.00
331.6680, 50127.00
332.8760, 50228.00
334.0830, 50093.00
335.2890, 49480.00
336.4960, 49206.00
337.7030, 49033.00
338.9090, 48681.00
340.1150, 48394.43
341.3210, 48043.00
342.5270, 47745.00
343.7330, 47508.00
344.9380, 47229.00
346.1440, 46936.00
347.3490, 46974.00
348.5540, 46427.00
349.7590, 46690.00
350.9630, 46600.00
352.1680, 46385.00
353.3720, 46258.00
354.5760, 46609.00
355.7800, 46560.00
356.9840, 46569.00
358.1870, 46347.00
359.3910, 46495.00
360.5940, 46511.00
361.7970, 46293.00
363.0000, 46655.00
364.2030, 46398.00
365.4050, 46235.00
366.6080, 46308.00
367.8100, 46140.00
369.0120, 45834.00
370.2140, 45780.00
371.4150, 45607.19
372.6170, 45557.00
373.8180, 45467.00
375.0190, 45499.00
376.2200, 45606.00
377.4210, 45275.00
378.6220, 45037.00
379.8220, 45280.00
381.0230, 45203.00
382.2230, 45450.00
383.4230, 45292.00
384.6220, 44999.00
385.8220, 45151.00
387.0220, 45097.00
388.2210, 45193.00
389.4200, 45058.00
390.6190, 45211.00
391.8180, 45187.00
393.0160, 45045.00
394.2150, 45226.00
395.4130, 45483.00
396.6110, 45364.00
397.8090, 45377.00
399.0060, 45296.00
400.2040, 45330.00
401.4010, 45431.00
402.5980, 45268.00
403.7950, 45511.00
404.9920, 45433.00
406.1890, 45700.00
407.3860, 45641.00
408.5820, 45740.00
409.7780, 45524.00
410.9740, 45719.00
412.1700, 45726.00
413.3650, 45955.00
414.5610, 45877.00
415.7560, 45690.00
416.9510, 45709.00
418.1460, 46041.00
419.3410, 45938.00
420.5360, 46096.00
421.7300, 46329.00
422.9240, 46474.00
424.1180, 46563.00
425.3120, 46501.00
426.5060, 46676.00
427.7000, 46683.00
428.8930, 46803.00
430.0860, 46788.00
431.2790, 46785.00
432.4720, 46759.00
433.6650, 46796.00
434.8580, 46899.00
436.0500, 46779.00
437.2420, 46545.00
438.4340, 46744.00
439.6260, 46496.00
440.8180, 46434.00
442.0090, 46422.00
443.2010, 46620.00
444.3920, 46474.00
445.5830, 46587.00
446.7740, 46859.00
447.9640, 46779.00
449.1550, 46932.14
450.3450, 47046.00
451.5350, 47053.00
452.7250, 46965.00
453.9150, 47011.00
455.1050, 46741.00
456.2940, 46811.00
457.4830, 46947.00
458.6720, 46854.00
459.8610, 47070.00
461.0500, 47138.00
462.2390, 46992.00
463.4270, 46936.00
464.6150, 46784.00
465.8040, 47168.00
466.9910, 47322.00
468.1790, 47291.00
469.3670, 46975.00
470.5540, 47295.00
471.7410, 47212.00
472.9280, 47422.00
474.1150, 47339.00
475.3020, 47753.00
476.4890, 47865.00
477.6750, 47791.00
478.8610, 47796.00
480.0470, 47980.00
481.2330, 47959.00
482.4190, 48321.00
483.6040, 48315.00
484.7900, 48632.00
485.9750, 48728.00
487.1600, 48819.00
488.3450, 49172.00
489.5290, 49326.00
490.7140, 49947.00
491.8980, 49825.00
493.0820, 50277.00
494.2660, 50585.00
495.4500, 50695.00
496.6340, 51295.00
497.8170, 51438.00
499.0010, 51520.00
500.1840, 51877.00
501.3670, 51671.00
502.5500, 52008.00
503.7320, 51645.00
504.9150, 51717.00
506.0970, 51512.00
507.2790, 51340.55
508.4610, 51457.00
509.6430, 51153.00
510.8250, 50795.00
512.0060, 50967.00
513.1870, 50833.00
514.3680, 50559.00
515.5490, 50573.00
516.7300, 50394.79
517.9110, 50288.53
519.0910, 50274.00
520.2710, 50125.00
521.4510, 50257.00
522.6310, 50258.00
523.8110, 50064.00
524.9910, 50310.00
526.1700, 50357.00
527.3490, 50375.00
528.5280, 50640.00
529.7070, 50250.00
530.8860, 50318.00
532.0650, 49919.00
533.2430, 50213.00
534.4210, 50206.00
535.5990, 50053.00
536.7770, 50059.00
537.9550, 50038.00
539.1320, 50037.00
540.3100, 49892.00
541.4870, 49889.31
542.6640, 49799.53
543.8410, 49813.00
545.0170, 49699.00
546.1940, 49704.00
547.3700, 49780.00
548.5470, 49548.00
549.7230, 49490.00
550.8980, 49270.00
552.0740, 49163.00
553.2500, 49302.00
554.4250, 49247.00
555.6000, 49103.00
556.7750, 49008.00
557.9500, 48748.00
559.1250, 48690.00
560.2990, 48599.00
561.4730, 48526.00
562.6480, 48520.00
563.8220, 48195.00
564.9950, 48173.00
566.1690, 48126.91
567.3430, 48148.00
568.5160, 48135.00
569.6890, 48113.11
570.8620, 48331.00
572.0350, 48108.00
573.2070, 48025.00
574.3800, 48081.00
575.5520, 48356.00
576.7240, 48205.00
577.8960, 48161.00
579.0680, 48122.00
580.2400, 48157.00
581.4110, 48096.00
582.5830, 47905.00
583.7540, 47809.00
584.9250, 47717.00
586.0950, 47599.00
587.2660, 47504.00
588.4370, 47347.00
589.6070, 47044.00
590.7770, 46784.00
591.9470, 46666.00
593.1170, 46378.00
594.2860, 46466.00
595.4560, 46005.00
596.6250, 45921.00
597.7940, 45751.00
598.9630, 45917.00
600.1320, 45923.00
601.3000, 45960.00
602.4690, 45950.00
603.6370, 45517.00
604.8050, 45705.00
605.9730, 45582.21
607.1410, 45889.00
608.3090, 45496.00
609.4760, 45530.00
610.6430, 45282.00
611.8100, 45105.00
612.9770, 45379.00
614.1440, 45167.00
615.3110, 45052.00
616.4770, 45341.00
617.6430, 45295.00
618.8090, 45315.00
619.9750, 45483.00
621.1410, 45156.00
622.3070, 45333.00
623.4720, 45017.00
624.6370, 44898.00
625.8020, 45480.00
626.9670, 45166.35
628.1320, 45421.00
629.2970, 45081.00
630.4610, 45221.00
631.6250, 45065.00
632.7890, 44968.00
633.9530, 45173.00
635.1170, 45086.00
636.2810, 44874.00
637.4440, 44996.00
638.6070, 44910.00
639.7700, 44824.53
640.9330, 45023.42
642.0960, 45129.71
643.2590, 45148.40
644.4210, 44817.07
645.5830, 44937.73
646.7450, 44877.25
647.9070, 44809.35
649.0690, 44993.62
650.2310, 44713.20
651.3920, 44893.49
652.5530, 44848.63
653.7140, 44665.93
654.8750, 44970.00
656.0360, 44439.00
657.1970, 44638.00
658.3570, 44878.00
659.5170, 44794.00
660.6770, 44840.72
661.8370, 44664.00
662.9970, 44616.00
664.1570, 44639.00
665.3160, 44414.00
666.4750, 44538.00
667.6340, 44416.00
668.7930, 44653.00
669.9520, 44320.00
671.1110, 44415.00
672.2690, 44830.00
673.4270, 44377.00
674.5850, 44607.00
675.7430, 44548.00
676.9010, 44747.00
678.0590, 44772.00
679.2160, 44839.00
680.3730, 44681.00
681.5300, 44778.00
682.6870, 44807.00
683.8440, 44786.00
685.0010, 44885.00
686.1570, 44799.00
687.3130, 44850.00
688.4690, 45040.00
689.6250, 45180.00
690.7810, 45033.00
691.9370, 45311.00
693.0920, 45321.00
694.2470, 45825.00
695.4020, 45699.00
696.5570, 45696.00
697.7120, 46274.00
698.8670, 46352.00
700.0210, 46851.00
701.1750, 46923.00
702.3290, 47255.00
703.4830, 47012.00
704.6370, 47102.00
705.7910, 46741.00
706.9440, 46660.00
708.0970, 46057.00
709.2510, 46100.00
710.4030, 45961.00
711.5560, 45482.00
712.7090, 45352.00
713.8610, 45333.00
715.0140, 45280.00
716.1660, 45005.00
717.3180, 45040.00
718.4690, 44947.00
719.6210, 44602.00
720.7730, 44966.00
721.9240, 44555.00
723.0750, 44732.00
724.2260, 44845.00
725.3770, 44753.00
726.5270, 44659.00
727.6780, 44578.00
728.8280, 44571.30
729.9780, 44568.01
731.1280, 44605.00
732.2780, 44666.00
733.4280, 44723.00
734.5770, 44819.00
735.7260, 44800.00
736.8760, 44546.00
738.0250, 44701.00
739.1730, 44583.00
740.3220, 44823.00
741.4700, 44673.00
742.6190, 45100.00
743.7670, 44713.00
744.9150, 44745.00
746.0630, 45104.00
747.2100, 44721.00
748.3580, 44746.00
749.5050, 45007.00
750.6520, 44905.00
751.7990, 44830.00
752.9460, 44521.00
754.0930, 44851.00
755.2390, 44987.00
756.3860, 44931.00
757.5320, 44680.00
758.6780, 44808.00
759.8240, 44712.00
760.9690, 45037.00
762.1150, 44983.00
763.2600, 44888.00
764.4060, 44845.00
765.5510, 44999.00
766.6950, 45039.00
767.8400, 45008.00
768.9850, 45027.00
770.1290, 45046.00
771.2730, 45040.13
772.4170, 45092.00
773.5610, 45058.00
774.7050, 44905.42
775.8480, 45147.46
776.9920, 45296.95
778.1350, 45358.79
779.2780, 45070.61
780.4210, 45234.41
781.5640, 45217.08
782.7060, 45192.29
783.8490, 45419.71
784.9910, 45182.41
786.1330, 45405.80
787.2750, 45445.30
788.4170, 45568.96
789.5580, 45510.34
790.7000, 45508.03
791.8410, 45688.02
792.9820, 45767.05
794.1230, 45687.45
795.2640, 45816.43
796.4040, 45572.71
797.5450, 45656.05
798.6850, 45880.46
799.8250, 45809.99
800.9650, 45942.28
802.1050, 45667.00
803.2450, 45900.00
804.3840, 46050.00
805.5230, 46105.00
806.6630, 46190.00
807.8020, 46099.00
808.9400, 46322.00
810.0790, 46702.00
811.2170, 46613.00
812.3560, 46809.00
813.4940, 47117.00
814.6320, 47245.00
815.7700, 46920.00
816.9070, 47337.00
818.0450, 47374.00
819.1820, 47189.00
820.3190, 47396.00
821.4560, 47055.00
822.5930, 46954.00
823.7300, 46721.00
824.8670, 46839.00
826.0030, 46629.00
827.1390, 46507.57
828.2750, 46656.00
829.4110, 46253.00
830.5470, 46297.00
831.6820, 46310.00
832.8180, 46194.00
833.9530, 46217.00
835.0880, 46183.08
836.2230, 46184.52
837.3580, 46171.00
838.4920, 46255.00
839.6270, 46296.00
840.7610, 46380.86
841.8950, 46436.00
843.0290, 46460.00
844.1630, 46519.30
845.2960, 46530.81
846.4300, 46556.00
847.5630, 46577.00
848.6960, 46508.00
849.8290, 46569.00
850.9620, 46626.37
852.0940, 46653.00
853.2270, 46814.00
854.3590, 46861.00
855.4910, 46961.00
856.6230, 47009.00
857.7550, 47028.00
858.8870, 47182.00
860.0180, 46893.00
861.1500, 47257.00
862.2810, 47324.00
863.4120, 47127.00
864.5430, 46984.00
865.6730, 46907.00
866.8040, 47198.00
867.9340, 47003.00
869.0640, 47150.00
870.1940, 47290.00
871.3240, 46994.00
872.4540, 47169.00
873.5830, 47313.00
874.7130, 47276.00
875.8420, 47359.00
876.9710, 47344.00
878.1000, 47235.00
879.2290, 47122.00
880.3570, 47546.00
881.4860, 47504.00
882.6140, 47312.00
883.7420, 47252.48
884.8700, 47474.07
885.9980, 47603.07
887.1250, 47644.45
888.2530, 47335.81
889.3800, 47479.15
890.5070, 47441.36
891.6340, 47396.13
892.7610, 47603.09
893.8880, 47345.35
895.0140, 47548.30
896.1400, 47567.34
897.2670, 47670.57
898.3930, 47591.52
899.5180, 47568.77
900.6440, 47269.87
901.7700, 47478.99
902.8950, 47595.52
904.0200, 47624.45
905.1450, 47303.34
906.2700, 47434.22
907.3950, 47383.96
908.5190, 47326.29
909.6440, 47520.79
910.7680, 47250.59
911.8920, 47441.09
913.0160, 47447.69
914.1400, 47538.45
915.2630, 47446.97
916.3870, 47411.77
917.5100, 47558.89
918.6330, 47605.06
919.7560, 47492.59
920.8790, 47588.71
922.0010, 47312.16
923.1240, 47362.62
924.2460, 47554.20
925.3680, 47450.89
926.4900, 47550.35
927.6120, 47573.93
928.7340, 47540.83
929.8550, 47602.00
930.9760, 47610.00
932.0980, 47524.00
933.2190, 47659.59
934.3390, 47867.84
935.4600, 47983.50
936.5810, 48011.54
937.7010, 47689.57
938.8210, 47819.58
939.9410, 47768.45
941.0610, 47709.90
942.1810, 47903.53
943.3010, 47632.46
944.4200, 47822.09
945.5390, 47827.83
946.6580, 47917.73
947.7770, 47714.69
948.8960, 47677.00
950.0150, 47745.00
951.1330, 47679.00
952.2510, 47687.00
953.3690, 47956.00
954.4870, 47758.00
955.6050, 47641.00
956.7230, 48035.00
957.8400, 47935.00
958.9580, 47880.00
960.0750, 48009.00
961.1920, 47957.00
962.3090, 48273.00
963.4250, 48321.00
964.5420, 48657.00
965.6580, 48304.00
966.7740, 48159.00
967.8900, 48689.00
969.0060, 48733.00
970.1220, 49012.00
971.2380, 49221.00
972.3530, 49685.00
973.4680, 49215.00
974.5830, 49529.00
975.6980, 49561.00
976.8130, 50055.00
977.9280, 49910.00
979.0420, 50252.00
980.1560, 50570.00
981.2710, 50507.00
982.3850, 50837.00
983.4980, 50806.78
984.6120, 50544.38
985.7260, 50782.00
986.8390, 50026.00
987.9520, 49930.00
989.0650, 50036.00
990.1780, 49734.00
991.2910, 49631.00
992.4030, 49115.00
993.5160, 49410.00
994.6280, 48914.00
995.7400, 48695.00
996.8520, 49014.00
997.9640, 48548.00
999.0750, 48541.00
1000.187, 48516.00
1001.298, 48446.00
1002.409, 48363.00
1003.520, 48241.09
1004.631, 47860.00
1005.741, 47954.00
1006.852, 47746.78
1007.962, 47943.95
1009.072, 48048.54
1010.182, 48065.51
1011.292, 47732.45
1012.402, 47851.39
1013.511, 47789.20
1014.621, 47719.56
1015.730, 47902.12
1016.839, 47619.99
1017.948, 47798.55
1019.056, 47793.22
1020.165, 47872.05
1021.273, 47768.63
1022.382, 47721.50
1023.490, 47856.69
1024.598, 47890.93
1025.706, 47766.54
1026.813, 47606.00
1027.921, 47534.00
1029.028, 47701.00
1030.135, 47897.00
1031.242, 48140.00
1032.349, 47833.00
1033.456, 47583.00
1034.562, 47756.00
1035.668, 47741.00
1036.775, 47817.00
1037.881, 47815.90
1038.987, 47883.00
1040.092, 47770.00
1041.198, 47801.00
1042.303, 47806.00
1043.408, 47652.00
1044.514, 47787.00
1045.618, 47845.00
1046.723, 47928.00
1047.828, 47639.00
1048.932, 47810.00
1050.037, 47879.00
1051.141, 48028.00
1052.245, 48138.00
1053.349, 47890.00
1054.452, 47786.00
1055.556, 48162.00
1056.659, 47893.00
1057.762, 47863.00
1058.865, 47833.00
1059.968, 47792.00
1061.071, 47783.00
1062.174, 47723.59
1063.276, 47812.00
1064.378, 47735.00
1065.480, 47771.00
1066.582, 48038.00
1067.684, 47912.88
1068.786, 48046.00
1069.887, 47940.00
1070.988, 47890.00
1072.090, 48055.00
1073.191, 47828.00
1074.291, 47709.00
1075.392, 47955.00
1076.493, 47781.00
1077.593, 47958.00
1078.693, 48171.00
1079.793, 47820.00
1080.893, 47729.00
1081.993, 47709.00
1083.092, 47760.00
1084.192, 47677.00
1085.291, 47590.00
1086.390, 47713.00
1087.489, 47769.00
1088.588, 47714.00
1089.686, 47741.00
1090.785, 47612.00
1091.883, 47621.00
1092.981, 47553.00
1094.079, 47354.00
1095.177, 47585.00
1096.275, 47733.00
1097.373, 47691.00
1098.470, 47567.00
1099.567, 47770.00
1100.664, 47455.00
1101.761, 47560.00
1102.858, 47406.26
1103.954, 47607.02
1105.051, 47715.17
1106.147, 47735.71
1107.243, 47406.23
1108.339, 47528.75
1109.435, 47470.12
1110.531, 47404.06
1111.626, 47590.20
1112.722, 47311.63
1113.817, 47493.76
1114.912, 47492.00
1116.007, 47574.40
1117.101, 47474.55
1118.196, 47431.00
1119.290, 47569.76
1120.385, 47607.56
1121.479, 47486.74
1122.573, 47574.50
1123.666, 47289.60
1124.760, 47331.71
1125.853, 47514.93
1126.947, 47403.27
1128.040, 47494.38
1129.133, 47508.26
1130.226, 47171.21
1131.318, 47444.48
1132.411, 47453.80
1133.503, 47192.13
1134.596, 47217.00
1135.688, 47188.46
1136.780, 47077.00
1137.871, 47048.00
1138.963, 46906.00
1140.054, 46815.00
1141.146, 47054.00
1142.237, 46608.00
1143.328, 47109.00
1144.419, 46884.00
1145.509, 47053.00
1146.600, 46723.00
1147.690, 46798.00
1148.780, 47102.00
1149.870, 46534.00
1150.960, 47098.00
1152.050, 46945.00
1153.139, 46731.00
1154.229, 46840.00
1155.318, 46695.00
1156.407, 46569.00
1157.496, 46590.89
1158.585, 46521.28
1159.674, 46616.00
1160.762, 46552.00
1161.850, 46764.00
1162.939, 46869.00
1164.027, 47259.00
1165.114, 46705.00
1166.202, 46960.00
1167.290, 46821.00
1168.377, 46567.00
1169.464, 46498.00
1170.551, 46733.00
1171.638, 46759.00
1172.725, 46783.00
1173.812, 46728.44
1174.898, 46830.00
1175.984, 46525.00
1177.071, 46752.00
1178.157, 46824.00
1179.242, 47008.00
1180.328, 46726.00
1181.414, 46863.00
1182.499, 46860.27
1183.584, 46618.47
1184.669, 46908.00
1185.754, 46460.00
1186.839, 46407.00
1187.924, 46865.00
1189.008, 46356.00
1190.092, 46639.00
1191.177, 46641.00
1192.260, 46226.00
1193.344, 46158.00
1194.428, 46534.00
1195.512, 46649.00
1196.595, 46583.00
1197.678, 46841.00
1198.761, 46470.00
1199.844, 46524.00
1200.927, 46499.00
1202.009, 46546.00
1203.092, 46396.00
1204.174, 46471.00
1205.256, 46640.00
1206.338, 46303.00
1207.420, 46440.00
1208.502, 46263.00
1209.583, 46411.00
1210.665, 46766.00
1211.746, 46726.00
1212.827, 46586.00
1213.908, 46643.00
1214.988, 46628.00
1216.069, 46372.00
1217.149, 46198.00
1218.230, 46623.00
1219.310, 46417.00
1220.390, 46615.00
1221.470, 46478.00
1222.549, 46315.00
1223.629, 46714.00
1224.708, 46413.00
1225.787, 46423.00
1226.866, 46374.00
1227.945, 46399.00
1229.024, 46886.00
1230.103, 46741.00
1231.181, 46618.00
1232.259, 46888.00
1233.337, 46424.00
1234.415, 46463.00
1235.493, 46535.16
1236.571, 46545.00
1237.648, 46593.00
1238.726, 46702.00
1239.803, 46508.00
1240.880, 46577.00
1241.957, 46338.00
1243.034, 46649.00
1244.110, 46497.41
1245.187, 46485.00
1246.263, 46482.00
1247.339, 46453.00
1248.415, 46583.00
1249.491, 46623.00
1250.566, 46586.00
1251.642, 46667.00
1252.717, 46650.00
1253.793, 46731.00
1254.868, 46499.00
1255.943, 46591.00
1257.017, 46579.00
1258.092, 46383.00
1259.166, 46664.00
1260.241, 46398.00
1261.315, 46884.00
1262.389, 46947.00
1263.462, 46426.00
1264.536, 46617.00
1265.610, 46368.00
1266.683, 46734.00
1267.756, 46595.00
1268.829, 46606.00
1269.902, 46610.00
1270.975, 46519.00
1272.048, 46621.00
1273.120, 46540.00
1274.192, 46716.00
1275.264, 46473.00
1276.336, 46570.00
1277.408, 46739.00
1278.480, 46985.00
1279.551, 46506.00
1280.623, 46874.00
1281.694, 46812.00
1282.765, 46636.00
1283.836, 46914.00
1284.907, 46413.00
1285.977, 46757.00
1287.048, 47039.00
1288.118, 46903.00
1289.188, 46896.00
1290.258, 46445.00
1291.328, 46827.00
1292.398, 46599.00
1293.467, 46722.00
1294.537, 46615.00
1295.606, 46801.00
1296.675, 47082.00
1297.744, 46869.00
1298.813, 46940.00
1299.882, 47076.00
1300.950, 46920.60
1302.018, 46700.00
1303.086, 46837.00
1304.155, 46903.00
1305.222, 46973.01
1306.290, 46963.00
1307.358, 47088.00
1308.425, 46742.00
1309.492, 46960.00
1310.559, 46621.00
1311.626, 47031.00
1312.693, 47025.00
1313.760, 47548.00
1314.826, 47050.00
1315.893, 46851.00
1316.959, 47195.00
1318.025, 46975.00
1319.091, 46848.00
1320.157, 47108.00
1321.222, 46950.00
1322.288, 47056.00
1323.353, 46891.00
1324.418, 47206.00
1325.483, 47093.00
1326.548, 46990.00
1327.612, 47091.00
1328.677, 46737.00
1329.741, 47170.00
1330.806, 46970.00
1331.870, 47168.00
1332.934, 47242.00
1333.997, 47164.00
1335.061, 47036.00
1336.124, 47063.00
1337.188, 47167.00
1338.251, 47184.00
1339.314, 47294.00
1340.377, 47281.00
1341.439, 47294.00
1342.502, 46905.00
1343.564, 47119.00
1344.627, 47017.00
1345.689, 46901.00
1346.751, 47161.00
1347.813, 47063.00
1348.874, 47206.00
1349.936, 47080.00
1350.997, 46960.00
1352.058, 47214.00
1353.119, 47184.00
1354.180, 47252.00
1355.241, 47295.00
1356.301, 47327.95
1357.362, 47330.62
1358.422, 47365.00
1359.482, 47365.00
1360.542, 47236.00
1361.602, 47379.00
1362.662, 47211.00
1363.721, 47203.00
1364.781, 47248.00
1365.840, 47076.00
1366.899, 47090.00
1367.958, 47113.77
1369.017, 47185.00
1370.075, 47264.00
1371.134, 47169.00
1372.192, 47361.00
1373.250, 47095.00
1374.308, 47395.00
1375.366, 47669.00
1376.424, 47275.00
1377.481, 47173.00
1378.539, 47298.00
1379.596, 47597.00
1380.653, 47389.24
1381.710, 47262.00
1382.767, 47303.00
1383.824, 46963.00
1384.880, 47186.00
1385.937, 47296.00
1386.993, 47399.00
1388.049, 47191.00
1389.105, 47365.00
1390.161, 47080.00
1391.216, 47161.00
1392.272, 47288.00
1393.327, 47456.00
1394.382, 47178.00
1395.437, 47473.00
1396.492, 47099.00
1397.547, 47262.00
1398.601, 47241.00
1399.656, 47588.00
1400.710, 47383.00
1401.764, 47354.00
1402.818, 47329.00
1403.872, 47294.00
1404.925, 47195.00
1405.979, 47222.24
1407.032, 47233.31
1408.085, 47298.00
1409.139, 47243.00
1410.191, 47403.00
1411.244, 47222.00
1412.297, 47409.00
1413.349, 47242.00
1414.402, 47509.00
1415.454, 47308.00
1416.506, 47333.00
1417.558, 47372.00
1418.609, 47263.00
1419.661, 47343.00
1420.712, 47296.00
1421.764, 47562.00
1422.815, 47251.00
1423.866, 46896.00
1424.916, 47480.00
1425.967, 47066.00
1427.018, 47087.00
1428.068, 47354.00
1429.118, 47235.00
1430.168, 47523.00
1431.218, 47509.00
1432.268, 47329.00
1433.318, 47375.00
1434.367, 47366.00
1435.416, 47646.00
1436.465, 47207.00
1437.514, 47124.00
1438.563, 47475.00
1439.612, 47167.00
1440.661, 47555.00
1441.709, 47207.00
1442.757, 47191.00
1443.805, 47262.00
1444.853, 47078.00
1445.901, 47462.00
1446.949, 47442.00
1447.996, 47416.00
1449.044, 47324.00
1450.091, 47515.00
1451.138, 47694.00
1452.185, 47384.00
1453.232, 47269.00
1454.278, 47300.59
1455.325, 47239.42
1456.371, 47396.00
1457.417, 47303.00
1458.463, 47617.00
1459.509, 47528.00
1460.555, 47560.00
1461.601, 47228.00
1462.646, 47436.00
1463.691, 47457.00
1464.737, 47539.00
1465.782, 47437.00
1466.826, 47650.00
1467.871, 47544.00
1468.916, 47594.00
1469.960, 47241.00
1471.004, 47401.00
1472.048, 47322.00
1473.092, 47577.00
1474.136, 47287.00
1475.180, 47347.00
1476.223, 47454.00
1477.267, 47665.00
1478.310, 47494.00
1479.353, 47390.00
1480.396, 47868.00
1481.439, 47145.00
1482.481, 47721.00
1483.524, 47395.00
1484.566, 47471.00
1485.608, 47725.00
1486.650, 47411.00
1487.692, 47684.00
1488.734, 47724.00
1489.775, 47311.00
1490.817, 47604.00
1491.858, 47173.00
1492.899, 47411.00
1493.940, 47443.00
1494.981, 47629.00
1496.022, 47654.00
1497.062, 47309.00
1498.103, 47378.00
1499.143, 47063.00
1500.183, 47317.00
1501.223, 47410.00
1502.263, 47305.00
1503.302, 47399.00
1504.342, 47358.00
1505.381, 47608.00
1506.420, 47200.00
1507.459, 47472.00
1508.498, 47772.00
1509.537, 47392.00
1510.576, 47327.00
1511.614, 47460.00
1512.652, 47253.00
1513.691, 47596.00
1514.729, 47178.00
1515.767, 47101.00
1516.804, 47276.00
1517.842, 47374.00
1518.879, 47365.31
1519.917, 47348.00
1520.954, 47351.00
1521.991, 47396.00
1523.028, 47259.00
1524.064, 47728.00
1525.101, 47409.00
1526.137, 47838.00
1527.173, 47349.00
1528.210, 47607.00
1529.245, 47613.00
1530.281, 47576.00
1531.317, 47319.00
1532.352, 47306.00
1533.388, 47354.00
1534.423, 47220.00
1535.458, 47670.00
##END=



