##NAMES=Ilvaite
##RRUFFID=R050040
##IDEAL CHEMISTRY=CaFe^2+^_2_Fe^3+^OSi_2_O_7_(OH)
##LOCALITY=Capo Calamita, Isle of Elba, Italy
##OWNER=RRUFF
##SOURCE=University of Arizona Mineral Museum
##DESCRIPTION=Brown fragment
##STATUS=The identification of this mineral has been confirmed by X-ray diffraction and chemical analysis
##URL=rruff.info/R050040
##MEASURED CHEMISTRY=Ca_1.00_(Fe^2+^_1.89_Mn_0.10_Mg_0.01_)_Î£=2_Fe^3+^_1.00_OSi_2.00_O_7_(OH); trace amounts of Al; OH estimated by charge balance
##PIN_ID=M00376
##ORIENTATION=Laser parallel to -a* (-1 0 0). Fiducial mark perpendicular to laser is parallel to -b [0 -1 0]
144.8940, 47587.00
146.1280, 47471.80
147.3620, 48091.00
148.5960, 48310.00
149.8300, 48798.00
151.0630, 50032.00
152.2960, 49509.00
153.5300, 49526.00
154.7620, 49503.00
155.9950, 48689.00
157.2280, 48016.00
158.4600, 47979.00
159.6920, 48047.00
160.9250, 48091.00
162.1560, 48242.23
163.3880, 48634.00
164.6200, 48636.00
165.8510, 48927.00
167.0820, 49171.00
168.3130, 48874.00
169.5440, 49210.00
170.7750, 48733.00
172.0050, 48154.00
173.2350, 47769.00
174.4650, 47839.00
175.6950, 47618.00
176.9250, 47605.00
178.1550, 47511.24
179.3840, 47437.00
180.6130, 47332.00
181.8420, 47438.00
183.0710, 47400.00
184.3000, 47760.34
185.5280, 48559.00
186.7570, 48745.00
187.9850, 49348.00
189.2130, 50211.00
190.4400, 50867.00
191.6680, 52144.00
192.8960, 52411.00
194.1230, 53462.00
195.3500, 54759.00
196.5770, 54029.00
197.8030, 54120.00
199.0300, 53858.00
200.2560, 54497.00
201.4830, 53740.00
202.7090, 52266.00
203.9340, 49898.00
205.1600, 47296.00
206.3860, 46384.00
207.6110, 46051.00
208.8360, 46086.00
210.0610, 45729.00
211.2860, 45386.00
212.5100, 45560.00
213.7350, 45711.00
214.9590, 45345.00
216.1830, 45179.00
217.4070, 45243.00
218.6310, 45106.00
219.8540, 45299.00
221.0780, 45517.00
222.3010, 45542.00
223.5240, 45391.00
224.7470, 45401.00
225.9690, 45800.00
227.1920, 45769.00
228.4140, 45972.00
229.6360, 46046.00
230.8580, 46382.00
232.0800, 46191.00
233.3020, 46468.00
234.5230, 46362.00
235.7440, 46293.00
236.9650, 46368.00
238.1860, 46143.00
239.4070, 46597.00
240.6280, 46415.00
241.8480, 46201.00
243.0680, 46290.00
244.2880, 45896.00
245.5080, 45785.94
246.7280, 45796.00
247.9470, 45563.00
249.1660, 45490.00
250.3860, 45825.00
251.6040, 45890.00
252.8230, 46111.00
254.0420, 45877.23
255.2600, 46308.48
256.4790, 46632.02
257.6970, 46853.32
258.9150, 46666.84
260.1320, 47006.79
261.3500, 47135.86
262.5670, 47256.11
263.7840, 47670.17
265.0010, 47542.85
266.2180, 47731.00
267.4350, 48134.00
268.6510, 48619.00
269.8680, 48843.00
271.0840, 48842.00
272.3000, 49113.00
273.5160, 49260.00
274.7310, 48937.00
275.9470, 49271.06
277.1620, 49155.41
278.3770, 49329.00
279.5920, 49143.00
280.8070, 49077.72
282.0210, 48597.00
283.2360, 48859.00
284.4500, 48547.00
285.6640, 48520.00
286.8780, 48223.00
288.0920, 48460.00
289.3050, 48447.00
290.5180, 48315.00
291.7320, 48355.00
292.9450, 48371.00
294.1570, 48442.00
295.3700, 48665.00
296.5830, 48814.00
297.7950, 48630.00
299.0070, 48649.00
300.2190, 48929.00
301.4310, 49245.00
302.6420, 49204.00
303.8540, 49386.00
305.0650, 48936.00
306.2760, 49105.00
307.4870, 48964.00
308.6980, 48766.00
309.9080, 49031.00
311.1190, 49225.00
312.3290, 49283.68
313.5390, 49479.00
314.7490, 49771.00
315.9580, 50143.00
317.1680, 50760.00
318.3770, 51034.00
319.5860, 51723.00
320.7950, 52481.00
322.0040, 52969.00
323.2130, 53536.00
324.4210, 54423.00
325.6290, 55404.00
326.8380, 56048.00
328.0460, 56904.00
329.2530, 57532.00
330.4610, 58013.00
331.6680, 58088.00
332.8760, 58361.00
334.0830, 58154.00
335.2890, 57975.00
336.4960, 56974.00
337.7030, 56308.00
338.9090, 55700.00
340.1150, 54994.00
341.3210, 54230.00
342.5270, 53523.00
343.7330, 52939.52
344.9380, 52331.00
346.1440, 51852.00
347.3490, 51544.00
348.5540, 51086.00
349.7590, 50993.00
350.9630, 50890.00
352.1680, 50695.00
353.3720, 50583.00
354.5760, 50593.00
355.7800, 50872.00
356.9840, 50342.00
358.1870, 50023.00
359.3910, 50295.00
360.5940, 50242.00
361.7970, 50095.48
363.0000, 50000.57
364.2030, 49829.00
365.4050, 49543.00
366.6080, 49351.00
367.8100, 49188.00
369.0120, 49027.00
370.2140, 48980.00
371.4150, 48691.00
372.6170, 48566.00
373.8180, 48346.00
375.0190, 48297.31
376.2200, 48238.22
377.4210, 48271.00
378.6220, 48275.00
379.8220, 48291.00
381.0230, 48420.00
382.2230, 48403.00
383.4230, 48177.00
384.6220, 48638.00
385.8220, 48354.00
387.0220, 48391.00
388.2210, 48515.00
389.4200, 48510.00
390.6190, 48547.84
391.8180, 48550.00
393.0160, 48543.00
394.2150, 48433.00
395.4130, 48375.00
396.6110, 48492.00
397.8090, 48394.00
399.0060, 48567.00
400.2040, 48461.00
401.4010, 48744.00
402.5980, 48780.00
403.7950, 48750.00
404.9920, 49000.00
406.1890, 48962.00
407.3860, 48943.00
408.5820, 49049.41
409.7780, 49070.92
410.9740, 49134.00
412.1700, 49272.00
413.3650, 49351.00
414.5610, 49542.00
415.7560, 49630.00
416.9510, 49835.31
418.1460, 50043.40
419.3410, 50274.00
420.5360, 50493.00
421.7300, 50769.00
422.9240, 50965.00
424.1180, 51061.00
425.3120, 51347.00
426.5060, 51983.00
427.7000, 52077.00
428.8930, 52242.00
430.0860, 51995.00
431.2790, 51991.00
432.4720, 51971.00
433.6650, 51753.00
434.8580, 51535.00
436.0500, 51394.00
437.2420, 51115.00
438.4340, 51044.00
439.6260, 50939.00
440.8180, 50825.00
442.0090, 50512.00
443.2010, 50408.00
444.3920, 50409.55
445.5830, 50748.00
446.7740, 50641.00
447.9640, 50256.00
449.1550, 50606.00
450.3450, 50480.00
451.5350, 50713.00
452.7250, 50805.00
453.9150, 50708.00
455.1050, 50697.00
456.2940, 50617.00
457.4830, 50835.00
458.6720, 50698.00
459.8610, 50912.00
461.0500, 51075.00
462.2390, 51141.00
463.4270, 51234.38
464.6150, 50892.00
465.8040, 51238.00
466.9910, 51224.00
468.1790, 51094.00
469.3670, 51576.00
470.5540, 51371.00
471.7410, 51454.00
472.9280, 51549.00
474.1150, 51841.00
475.3020, 52092.00
476.4890, 51947.00
477.6750, 52267.00
478.8610, 53192.00
480.0470, 52211.00
481.2330, 54620.00
482.4190, 53404.00
483.6040, 53377.00
484.7900, 53806.00
485.9750, 53895.00
487.1600, 54327.00
488.3450, 54610.00
489.5290, 54993.00
490.7140, 55642.00
491.8980, 56248.00
493.0820, 56789.00
494.2660, 57454.00
495.4500, 58097.00
496.6340, 58929.00
497.8170, 59283.00
499.0010, 59768.00
500.1840, 60020.00
501.3670, 60138.00
502.5500, 60035.00
503.7320, 59733.00
504.9150, 59950.00
506.0970, 59503.00
507.2790, 58958.00
508.4610, 58844.00
509.6430, 58553.00
510.8250, 58243.00
512.0060, 57921.00
513.1870, 57709.79
514.3680, 57457.00
515.5490, 57348.00
516.7300, 57359.00
517.9110, 57319.00
519.0910, 56961.00
520.2710, 56732.00
521.4510, 56774.00
522.6310, 57164.00
523.8110, 57100.00
524.9910, 57123.00
526.1700, 57146.00
527.3490, 57131.00
528.5280, 57346.00
529.7070, 57489.00
530.8860, 57108.00
532.0650, 56842.00
533.2430, 56809.00
534.4210, 56902.00
535.5990, 56556.00
536.7770, 56570.00
537.9550, 56604.00
539.1320, 56369.00
540.3100, 56612.00
541.4870, 56322.00
542.6640, 56352.46
543.8410, 56316.00
545.0170, 56232.00
546.1940, 55916.00
547.3700, 55721.00
548.5470, 55679.00
549.7230, 55080.73
550.8980, 55183.13
552.0740, 55177.55
553.2500, 55069.88
554.4250, 54554.55
555.6000, 54565.80
556.7750, 54366.01
557.9500, 54157.58
559.1250, 54242.94
560.2990, 54316.00
561.4730, 53940.00
562.6480, 53572.00
563.8220, 53496.00
564.9950, 53570.00
566.1690, 53930.00
567.3430, 53676.00
568.5160, 53733.00
569.6890, 53739.00
570.8620, 53888.00
572.0350, 53826.00
573.2070, 53830.00
574.3800, 54126.00
575.5520, 54282.10
576.7240, 54652.64
577.8960, 54966.00
579.0680, 55575.00
580.2400, 56099.00
581.4110, 56102.57
582.5830, 56043.00
583.7540, 55934.00
584.9250, 55595.00
586.0950, 55147.00
587.2660, 55028.00
588.4370, 54334.00
589.6070, 53749.00
590.7770, 53556.00
591.9470, 53013.00
593.1170, 52547.00
594.2860, 52424.00
595.4560, 51940.00
596.6250, 52104.00
597.7940, 51456.00
598.9630, 51206.00
600.1320, 51204.00
601.3000, 50957.00
602.4690, 51025.00
603.6370, 50563.00
604.8050, 50866.00
605.9730, 50321.00
607.1410, 50359.00
608.3090, 50401.00
609.4760, 50151.00
610.6430, 50226.00
611.8100, 49959.00
612.9770, 49960.00
614.1440, 49861.00
615.3110, 49978.00
616.4770, 49844.00
617.6430, 49763.00
618.8090, 50031.00
619.9750, 49562.00
621.1410, 49982.00
622.3070, 49669.00
623.4720, 49899.00
624.6370, 49293.00
625.8020, 49496.16
626.9670, 49432.00
628.1320, 49636.00
629.2970, 49726.00
630.4610, 49791.00
631.6250, 49710.00
632.7890, 49809.00
633.9530, 49828.00
635.1170, 49647.68
636.2810, 49616.00
637.4440, 49579.97
638.6070, 49465.00
639.7700, 49523.00
640.9330, 49595.00
642.0960, 49578.11
643.2590, 49462.69
644.4210, 49529.00
645.5830, 49255.00
646.7450, 49263.00
647.9070, 49446.00
649.0690, 49628.00
650.2310, 49079.41
651.3920, 49327.90
652.5530, 49468.52
653.7140, 49507.06
654.8750, 49137.81
656.0360, 49295.14
657.1970, 49241.44
658.3570, 49179.09
659.5170, 49410.54
660.6770, 49100.59
661.8370, 49327.38
662.9970, 49339.91
664.1570, 49450.51
665.3160, 49348.76
666.4750, 49312.60
667.6340, 49488.84
668.7930, 49547.48
669.9520, 49421.29
671.1110, 49538.12
672.2690, 49220.75
673.4270, 49347.69
674.5850, 49468.00
675.7430, 49359.00
676.9010, 49320.00
678.0590, 49283.00
679.2160, 49271.50
680.3730, 49463.00
681.5300, 49440.00
682.6870, 49501.00
683.8440, 49881.00
685.0010, 50182.00
686.1570, 50138.25
687.3130, 50297.00
688.4690, 50071.00
689.6250, 50345.00
690.7810, 50279.00
691.9370, 50602.00
693.0920, 50807.00
694.2470, 51367.00
695.4020, 51828.00
696.5570, 52261.00
697.7120, 53086.00
698.8670, 53522.00
700.0210, 54646.00
701.1750, 54994.00
702.3290, 55654.00
703.4830, 55597.00
704.6370, 55901.00
705.7910, 55302.00
706.9440, 54746.00
708.0970, 54097.00
709.2510, 53144.00
710.4030, 52479.00
711.5560, 51948.00
712.7090, 51326.00
713.8610, 51163.00
715.0140, 50923.00
716.1660, 50528.00
717.3180, 50112.00
718.4690, 50362.00
719.6210, 49964.97
720.7730, 49782.00
721.9240, 49864.00
723.0750, 49498.00
724.2260, 49878.00
725.3770, 49610.00
726.5270, 49550.00
727.6780, 49701.00
728.8280, 49373.00
729.9780, 49733.00
731.1280, 49557.00
732.2780, 49386.00
733.4280, 49600.00
734.5770, 49431.00
735.7260, 49678.00
736.8760, 49435.00
738.0250, 49388.00
739.1730, 49445.00
740.3220, 49325.00
741.4700, 49468.00
742.6190, 49101.00
743.7670, 49157.00
744.9150, 49446.00
746.0630, 49340.00
747.2100, 49509.00
748.3580, 49314.00
749.5050, 49376.00
750.6520, 49303.00
751.7990, 49026.00
752.9460, 49351.00
754.0930, 49528.00
755.2390, 49405.00
756.3860, 49713.00
757.5320, 49510.00
758.6780, 49534.00
759.8240, 49467.00
760.9690, 49672.00
762.1150, 49761.00
763.2600, 49731.29
764.4060, 49699.00
765.5510, 49800.00
766.6950, 49618.00
767.8400, 49835.00
768.9850, 49393.00
770.1290, 49629.00
771.2730, 49670.00
772.4170, 49714.00
773.5610, 49778.00
774.7050, 49910.00
775.8480, 49703.00
776.9920, 49865.00
778.1350, 49920.00
779.2780, 50080.00
780.4210, 49949.00
781.5640, 49756.00
782.7060, 49666.00
783.8490, 49813.00
784.9910, 49823.00
786.1330, 49998.00
787.2750, 49983.00
788.4170, 50093.00
789.5580, 50189.25
790.7000, 50250.62
791.8410, 50369.00
792.9820, 50447.00
794.1230, 50521.00
795.2640, 50645.00
796.4040, 50801.00
797.5450, 50866.00
798.6850, 50956.00
799.8250, 51117.00
800.9650, 51180.00
802.1050, 51328.00
803.2450, 51476.04
804.3840, 51753.00
805.5230, 51847.00
806.6630, 52374.00
807.8020, 52710.00
808.9400, 52826.00
810.0790, 53288.00
811.2170, 53576.00
812.3560, 53999.00
813.4940, 54233.63
814.6320, 54631.00
815.7700, 54725.00
816.9070, 55107.00
818.0450, 55477.00
819.1820, 55451.00
820.3190, 55103.00
821.4560, 54957.00
822.5930, 54567.00
823.7300, 54163.00
824.8670, 53815.00
826.0030, 53505.00
827.1390, 52958.00
828.2750, 52455.00
829.4110, 52472.00
830.5470, 52075.00
831.6820, 52084.00
832.8180, 51960.99
833.9530, 51660.00
835.0880, 51766.00
836.2230, 51515.00
837.3580, 51311.00
838.4920, 51625.00
839.6270, 51455.00
840.7610, 51331.00
841.8950, 51442.00
843.0290, 51406.55
844.1630, 51587.55
845.2960, 51601.00
846.4300, 52032.00
847.5630, 52241.00
848.6960, 52498.00
849.8290, 52675.46
850.9620, 52814.51
852.0940, 52902.00
853.2270, 52970.00
854.3590, 53062.00
855.4910, 52997.00
856.6230, 53205.00
857.7550, 53090.00
858.8870, 53215.00
860.0180, 53194.53
861.1500, 53133.57
862.2810, 53101.00
863.4120, 53109.00
864.5430, 52982.00
865.6730, 53161.00
866.8040, 52907.00
867.9340, 52629.00
869.0640, 52375.00
870.1940, 52596.00
871.3240, 52868.00
872.4540, 52381.00
873.5830, 52312.00
874.7130, 52447.00
875.8420, 52259.00
876.9710, 52405.00
878.1000, 52241.00
879.2290, 52071.00
880.3570, 52029.00
881.4860, 52076.00
882.6140, 51997.00
883.7420, 52165.00
884.8700, 51959.00
885.9980, 51882.00
887.1250, 52319.00
888.2530, 51974.00
889.3800, 51994.00
890.5070, 51744.00
891.6340, 51885.00
892.7610, 51832.12
893.8880, 51834.52
895.0140, 51800.00
896.1400, 51872.00
897.2670, 51676.30
898.3930, 51568.90
899.5180, 51747.00
900.6440, 51672.00
901.7700, 51717.00
902.8950, 52020.00
904.0200, 52186.00
905.1450, 52333.00
906.2700, 52253.00
907.3950, 51842.00
908.5190, 52303.00
909.6440, 52119.00
910.7680, 52153.00
911.8920, 52300.55
913.0160, 52617.00
914.1400, 52495.00
915.2630, 52299.00
916.3870, 52555.00
917.5100, 52538.00
918.6330, 52754.00
919.7560, 52585.00
920.8790, 52753.00
922.0010, 52725.00
923.1240, 53024.00
924.2460, 53095.00
925.3680, 52899.00
926.4900, 53338.00
927.6120, 53266.00
928.7340, 53490.70
929.8550, 54029.00
930.9760, 53813.00
932.0980, 53756.00
933.2190, 53641.00
934.3390, 53578.00
935.4600, 53564.47
936.5810, 53574.91
937.7010, 53549.00
938.8210, 53627.00
939.9410, 53596.00
941.0610, 53489.00
942.1810, 53650.00
943.3010, 53747.00
944.4200, 53809.00
945.5390, 53411.00
946.6580, 53546.00
947.7770, 53450.00
948.8960, 53692.00
950.0150, 53674.00
951.1330, 53636.00
952.2510, 53558.00
953.3690, 53732.00
954.4870, 53911.00
955.6050, 53805.00
956.7230, 54151.00
957.8400, 53989.00
958.9580, 54090.00
960.0750, 54459.00
961.1920, 54349.00
962.3090, 54625.00
963.4250, 54787.00
964.5420, 54966.00
965.6580, 55166.73
966.7740, 55348.73
967.8900, 55623.00
969.0060, 55807.00
970.1220, 56268.00
971.2380, 56661.00
972.3530, 56806.00
973.4680, 57101.00
974.5830, 57553.00
975.6980, 58521.00
976.8130, 58585.25
977.9280, 59890.00
979.0420, 59128.00
980.1560, 59699.00
981.2710, 60052.00
982.3850, 59798.00
983.4980, 59645.00
984.6120, 59753.00
985.7260, 59392.00
986.8390, 59154.00
987.9520, 59019.00
989.0650, 58371.00
990.1780, 58095.00
991.2910, 57628.00
992.4030, 57223.00
993.5160, 56863.00
994.6280, 56537.00
995.7400, 56039.00
996.8520, 55665.00
997.9640, 55633.00
999.0750, 55135.00
1000.187, 54968.00
1001.298, 54853.00
1002.409, 54431.00
1003.520, 54325.00
1004.631, 54174.00
1005.741, 53877.00
1006.852, 53812.00
1007.962, 53708.00
1009.072, 53616.00
1010.182, 53488.00
1011.292, 53400.00
1012.402, 53378.84
1013.511, 53469.00
1014.621, 53328.00
1015.730, 53382.00
1016.839, 53273.29
1017.948, 53193.00
1019.056, 53168.00
1020.165, 53243.00
1021.273, 53142.00
1022.382, 53318.00
1023.490, 53254.00
1024.598, 53127.00
1025.706, 53327.00
1026.813, 52916.00
1027.921, 53095.00
1029.028, 53357.00
1030.135, 53011.00
1031.242, 53039.00
1032.349, 53202.00
1033.456, 53581.00
1034.562, 53226.00
1035.668, 53045.00
1036.775, 53302.00
1037.881, 53105.00
1038.987, 52976.00
1040.092, 52867.00
1041.198, 53594.00
1042.303, 53474.00
1043.408, 53322.00
1044.514, 53387.00
1045.618, 53258.97
1046.723, 53277.00
1047.828, 53165.00
1048.932, 53278.00
1050.037, 53281.00
1051.141, 53247.00
1052.245, 53320.00
1053.349, 53139.00
1054.452, 53348.00
1055.556, 53341.00
1056.659, 53511.00
1057.762, 53442.00
1058.865, 53307.00
1059.968, 53298.00
1061.071, 53408.00
1062.174, 53453.00
1063.276, 53217.00
1064.378, 53386.00
1065.480, 53065.00
1066.582, 53440.00
1067.684, 53717.00
1068.786, 53465.00
1069.887, 53649.00
1070.988, 53179.00
1072.090, 53430.00
1073.191, 53213.00
1074.291, 53263.00
1075.392, 53306.00
1076.493, 53243.00
1077.593, 53118.00
1078.693, 53126.00
1079.793, 53233.00
1080.893, 53458.00
1081.993, 53338.00
1083.092, 53437.94
1084.192, 53378.00
1085.291, 53342.00
1086.390, 53402.00
1087.489, 53172.00
1088.588, 53130.00
1089.686, 52801.00
1090.785, 52911.21
1091.883, 52857.20
1092.981, 53019.00
1094.079, 53063.00
1095.177, 52976.00
1096.275, 53102.31
1097.373, 53332.03
1098.470, 53453.89
1099.567, 53473.68
1100.664, 53085.68
1101.761, 53224.26
1102.858, 53151.81
1103.954, 53070.72
1105.051, 53283.41
1106.147, 52954.73
1107.243, 53162.78
1108.339, 53156.58
1109.435, 53248.44
1110.531, 53127.96
1111.626, 53073.08
1112.722, 53230.58
1113.817, 53270.50
1114.912, 53125.59
1116.007, 53223.70
1117.101, 52887.63
1118.196, 52932.55
1119.290, 53141.88
1120.385, 53007.64
1121.479, 53109.64
1122.573, 53121.68
1123.666, 52724.89
1124.760, 53039.10
1125.853, 53045.84
1126.947, 52736.82
1128.040, 53026.70
1129.133, 52761.22
1130.226, 52693.98
1131.318, 52775.92
1132.411, 52702.34
1133.503, 52873.95
1134.596, 52809.35
1135.688, 52723.66
1136.780, 52730.06
1137.871, 52475.52
1138.963, 52705.10
1140.054, 52603.99
1141.146, 52667.25
1142.237, 52767.79
1143.328, 52583.02
1144.419, 52700.30
1145.509, 52349.18
1146.600, 52389.99
1147.690, 52388.61
1148.780, 52637.74
1149.870, 52539.00
1150.960, 52493.00
1152.050, 52336.00
1153.139, 52332.00
1154.229, 52223.00
1155.318, 52417.00
1156.407, 52222.00
1157.496, 52222.00
1158.585, 52190.00
1159.674, 52426.00
1160.762, 51931.00
1161.850, 52439.00
1162.939, 52203.00
1164.027, 52119.00
1165.114, 52224.00
1166.202, 52134.00
1167.290, 52117.00
1168.377, 52282.00
1169.464, 51889.00
1170.551, 52145.00
1171.638, 52175.00
1172.725, 52159.00
1173.812, 52349.00
1174.898, 52046.00
1175.984, 52329.00
1177.071, 52251.00
1178.157, 52543.00
1179.242, 52141.00
1180.328, 52136.00
1181.414, 52133.00
1182.499, 52314.00
1183.584, 52063.00
1184.669, 51807.00
1185.754, 52236.00
1186.839, 52006.00
1187.924, 52173.00
1189.008, 52032.00
1190.092, 51831.00
1191.177, 51714.00
1192.260, 52061.00
1193.344, 52330.00
1194.428, 51987.00
1195.512, 52295.00
1196.595, 52363.00
1197.678, 51891.00
1198.761, 52062.00
1199.844, 52125.00
1200.927, 52068.00
1202.009, 52108.00
1203.092, 51906.00
1204.174, 52079.00
1205.256, 52072.00
1206.338, 51821.00
1207.420, 51804.00
1208.502, 52161.00
1209.583, 52521.00
1210.665, 52034.00
1211.746, 52065.00
1212.827, 51805.00
1213.908, 51678.00
1214.988, 52251.00
1216.069, 52041.00
1217.149, 52501.00
1218.230, 52098.00
1219.310, 51922.00
1220.390, 52173.00
1221.470, 52089.00
1222.549, 52136.00
1223.629, 52104.00
1224.708, 51943.00
1225.787, 52255.00
1226.866, 52004.00
1227.945, 52313.00
1229.024, 52007.00
1230.103, 51966.00
1231.181, 51908.00
1232.259, 51859.36
1233.337, 51964.18
1234.415, 51963.00
1235.493, 52082.00
1236.571, 52224.00
1237.648, 52009.00
1238.726, 52171.00
1239.803, 52027.00
1240.880, 52104.00
1241.957, 52229.00
1243.034, 51968.00
1244.110, 52116.00
1245.187, 52207.00
1246.263, 52112.00
1247.339, 52307.00
1248.415, 52390.00
1249.491, 52207.00
1250.566, 52154.00
1251.642, 52221.00
1252.717, 51894.00
1253.793, 52264.00
1254.868, 52281.00
1255.943, 51974.00
1257.017, 52187.00
1258.092, 52231.00
1259.166, 52129.00
1260.241, 52165.31
1261.315, 52417.65
1262.389, 52562.12
1263.462, 52604.51
1264.536, 52239.11
1265.610, 52400.29
1266.683, 52350.44
1267.756, 52291.93
1268.829, 52527.22
1269.902, 52221.13
1270.975, 52451.76
1272.048, 52468.14
1273.120, 52582.58
1274.192, 52484.68
1275.264, 52452.36
1276.336, 52632.44
1277.408, 52694.92
1278.480, 52572.57
1279.551, 52693.23
1280.623, 52379.72
1281.694, 52447.20
1282.765, 52679.06
1283.836, 52567.39
1284.907, 52691.93
1285.977, 52726.50
1287.048, 52352.23
1288.118, 52688.99
1289.188, 52718.25
1290.258, 52431.77
1291.328, 52744.16
1292.398, 52501.21
1293.467, 52456.48
1294.537, 52560.93
1295.606, 52509.86
1296.675, 52703.97
1297.744, 52661.89
1298.813, 52598.70
1299.882, 52627.60
1300.950, 52395.54
1302.018, 52647.62
1303.086, 52568.98
1304.155, 52654.75
1305.222, 52777.76
1306.290, 52615.47
1307.358, 52755.23
1308.425, 52426.57
1309.492, 52489.85
1310.559, 52510.93
1311.626, 52782.52
1312.693, 52456.15
1313.760, 52508.54
1314.826, 52722.20
1315.893, 52710.20
1316.959, 52792.55
1318.025, 52595.59
1319.091, 52661.02
1320.157, 52654.12
1321.222, 52897.15
1322.288, 52942.88
1323.353, 52750.64
1324.418, 52559.43
1325.483, 52820.43
1326.548, 52652.82
1327.612, 52716.43
1328.677, 52541.23
1329.741, 52572.23
1330.806, 52599.96
1331.870, 52733.40
1332.934, 52546.30
1333.997, 52774.98
1335.061, 52763.36
1336.124, 52822.52
1337.188, 52873.80
1338.251, 52602.61
1339.314, 52595.77
1340.377, 52967.19
1341.439, 52761.74
1342.502, 52672.72
1343.564, 52666.47
1344.627, 53050.84
1345.689, 53072.13
1346.751, 52659.44
1347.813, 53026.59
1348.874, 52913.96
1349.936, 52943.91
1350.997, 52921.84
1352.058, 52915.16
1353.119, 52712.62
1354.180, 52768.20
1355.241, 53033.63
1356.301, 52941.27
1357.362, 53092.04
1358.422, 52799.73
1359.482, 52770.41
1360.542, 52810.91
1361.602, 52876.87
1362.662, 52739.39
1363.721, 53008.75
1364.781, 53007.23
1365.840, 52770.96
1366.899, 52789.34
1367.958, 52765.43
1369.017, 53181.69
1370.075, 52992.77
1371.134, 52761.00
1372.192, 53008.98
1373.250, 53103.19
1374.308, 52989.52
1375.366, 52986.30
1376.424, 52773.52
1377.481, 52882.12
1378.539, 52880.19
1379.596, 53060.37
1380.653, 52848.42
1381.710, 53087.90
1382.767, 52886.47
1383.824, 53144.22
1384.880, 52933.46
1385.937, 53140.06
1386.993, 52848.49
1388.049, 53250.52
1389.105, 53313.83
1390.161, 53192.33
1391.216, 53313.82
1392.272, 53001.15
1393.327, 53069.46
1394.382, 53302.17
1395.437, 53191.33
1396.492, 53316.71
1397.547, 53352.13
1398.601, 52978.69
1399.656, 53316.29
1400.710, 53346.38
1401.764, 53060.74
1402.818, 53373.97
1403.872, 53131.86
1404.925, 53087.96
1405.979, 53193.25
1407.032, 53143.02
1408.085, 53337.96
1409.139, 53296.72
1410.191, 53234.36
1411.244, 53264.10
1412.297, 53032.87
1413.349, 53285.79
1414.402, 53208.00
1415.454, 53294.59
1416.506, 53418.45
1417.558, 53256.99
1418.609, 53397.58
1419.661, 53069.76
1420.712, 53133.88
1421.764, 53155.79
1422.815, 53428.22
1423.866, 53102.68
1424.916, 53155.90
1425.967, 53370.40
1427.018, 53359.24
1428.068, 53442.42
1429.118, 53246.29
1430.168, 53312.55
1431.218, 53306.49
1432.268, 53550.36
1433.318, 53596.91
1434.367, 53405.52
1435.416, 53215.13
1436.465, 53476.97
1437.514, 53310.18
1438.563, 53374.64
1439.612, 53200.27
1440.661, 53232.11
1441.709, 53260.66
1442.757, 53394.93
1443.805, 53208.67
1444.853, 53438.18
1445.901, 53427.39
1446.949, 53487.38
1447.996, 53539.50
1449.044, 53269.14
1450.091, 53263.13
1451.138, 53635.38
1452.185, 53430.77
1453.232, 53342.58
1454.278, 53337.16
1455.325, 53722.36
1456.371, 53744.48
1457.417, 53332.62
1458.463, 53700.60
1459.509, 53588.80
1460.555, 53619.58
1461.601, 53598.34
1462.646, 53592.50
1463.691, 53390.79
1464.737, 53502.00
1465.782, 53509.41
1466.826, 53427.00
1467.871, 53381.00
1468.916, 53545.00
1469.960, 53399.00
1471.004, 53504.00
1472.048, 53466.00
1473.092, 53275.00
1474.136, 53466.00
1475.180, 53576.00
1476.223, 53851.00
1477.267, 53644.00
1478.310, 53310.00
1479.353, 53096.00
1480.396, 53393.00
1481.439, 53559.00
1482.481, 53704.00
1483.524, 53848.70
1484.566, 53564.00
1485.608, 54037.00
1486.650, 53483.00
1487.692, 53538.00
1488.734, 53120.00
1489.775, 53492.00
1490.817, 53385.00
1491.858, 53715.00
1492.899, 53371.00
1493.940, 53425.00
1494.981, 53349.00
1496.022, 53696.00
1497.062, 53044.00
1498.103, 53608.00
1499.143, 54219.00
1500.183, 53268.00
1501.223, 53892.00
1502.263, 53683.00
1503.302, 53758.00
1504.342, 53599.00
1505.381, 53458.00
1506.420, 53455.00
1507.459, 53625.00
1508.498, 53265.00
1509.537, 53517.00
1510.576, 53452.00
1511.614, 53538.00
1512.652, 53684.00
1513.691, 53569.00
1514.729, 53755.00
1515.767, 53238.00
1516.804, 53632.00
1517.842, 53512.00
1518.879, 53373.00
1519.917, 53629.00
1520.954, 53700.00
1521.991, 53605.00
1523.028, 53691.00
1524.064, 53652.41
1525.101, 53614.00
1526.137, 53565.00
1527.173, 53749.00
1528.210, 53620.00
1529.245, 53575.00
1530.281, 53679.00
1531.317, 53461.00
1532.352, 53545.00
1533.388, 52949.00
1534.423, 53482.00
1535.458, 53139.00
1536.493, 53746.00
1537.528, 53144.04
1538.562, 53392.46
1539.597, 53533.02
1540.631, 53571.50
1541.665, 53202.19
1542.700, 53359.46
1543.733, 53305.69
1544.767, 53243.28
1545.801, 53474.66
1546.834, 53164.65
1547.868, 53391.38
1548.901, 53403.84
1549.934, 53514.37
1550.967, 53412.56
1551.999, 53376.34
1553.032, 53552.52
1554.064, 53611.08
1555.097, 53484.83
1556.129, 53601.59
1557.161, 53284.16
1558.193, 53347.74
1559.224, 53575.70
1560.256, 53460.12
1561.287, 53724.00
1562.318, 53774.00
1563.350, 53616.00
1564.380, 53622.00
1565.411, 53557.00
1566.442, 53510.00
1567.472, 53642.00
1568.503, 53430.00
1569.533, 53651.00
1570.563, 53902.00
##END=



