##NAMES=Ilvaite
##RRUFFID=R050040
##IDEAL CHEMISTRY=CaFe^2+^_2_Fe^3+^OSi_2_O_7_(OH)
##LOCALITY=Capo Calamita, Isle of Elba, Italy
##OWNER=RRUFF
##SOURCE=University of Arizona Mineral Museum
##DESCRIPTION=Brown fragment
##STATUS=The identification of this mineral has been confirmed by X-ray diffraction and chemical analysis
##URL=rruff.info/R050040
##MEASURED CHEMISTRY=Ca_1.00_(Fe^2+^_1.89_Mn_0.10_Mg_0.01_)_Î£=2_Fe^3+^_1.00_OSi_2.00_O_7_(OH); trace amounts of Al; OH estimated by charge balance
##PIN_ID=M00423
##ORIENTATION=Laser parallel to -c* (0 0 -1). Fiducial mark perpendicular to laser is parallel to a [1 0 0]
148.5960, 45635.00
149.8300, 45654.00
151.0630, 45972.07
152.2960, 46681.00
153.5300, 46312.00
154.7620, 46166.00
155.9950, 45971.00
157.2280, 45453.00
158.4600, 45179.00
159.6920, 45785.00
160.9250, 45344.00
162.1560, 45724.00
163.3880, 46002.00
164.6200, 46011.00
165.8510, 46181.00
167.0820, 46224.00
168.3130, 46407.00
169.5440, 46409.00
170.7750, 46392.00
172.0050, 46188.00
173.2350, 45765.00
174.4650, 45350.00
175.6950, 45080.00
176.9250, 45138.00
178.1550, 45275.00
179.3840, 44832.00
180.6130, 45116.00
181.8420, 44955.00
183.0710, 45218.84
184.3000, 45398.00
185.5280, 45812.00
186.7570, 45783.00
187.9850, 45867.00
189.2130, 45931.00
190.4400, 46340.80
191.6680, 46715.53
192.8960, 47285.00
194.1230, 47593.00
195.3500, 48011.00
196.5770, 48026.00
197.8030, 48175.00
199.0300, 50710.00
200.2560, 48639.00
201.4830, 49005.00
202.7090, 48588.00
203.9340, 47060.00
205.1600, 45458.00
206.3860, 44118.00
207.6110, 43867.00
208.8360, 43655.00
210.0610, 43602.00
211.2860, 44062.00
212.5100, 43977.00
213.7350, 44538.00
214.9590, 44190.00
216.1830, 43879.00
217.4070, 43806.00
218.6310, 43936.00
219.8540, 43897.00
221.0780, 44362.00
222.3010, 44382.00
223.5240, 44436.00
224.7470, 44684.00
225.9690, 44445.00
227.1920, 44542.00
228.4140, 44270.00
229.6360, 44231.00
230.8580, 44220.00
232.0800, 43921.00
233.3020, 44089.00
234.5230, 43529.00
235.7440, 43627.00
236.9650, 43529.00
238.1860, 43075.00
239.4070, 43135.00
240.6280, 42552.00
241.8480, 42906.00
243.0680, 42355.00
244.2880, 42289.00
245.5080, 42363.00
246.7280, 42188.00
247.9470, 42236.00
249.1660, 42439.00
250.3860, 42362.00
251.6040, 42220.00
252.8230, 42496.00
254.0420, 42322.00
255.2600, 42581.00
256.4790, 42868.00
257.6970, 43776.00
258.9150, 44222.70
260.1320, 44109.99
261.3500, 44662.88
262.5670, 44527.38
263.7840, 44862.00
265.0010, 44445.00
266.2180, 44038.00
267.4350, 44129.00
268.6510, 43955.00
269.8680, 44079.00
271.0840, 44000.00
272.3000, 44336.00
273.5160, 44455.00
274.7310, 44640.00
275.9470, 44954.00
277.1620, 44907.00
278.3770, 44766.00
279.5920, 44558.00
280.8070, 44621.00
282.0210, 44332.00
283.2360, 44016.00
284.4500, 44246.00
285.6640, 43950.00
286.8780, 43878.00
288.0920, 43761.00
289.3050, 43621.00
290.5180, 43610.00
291.7320, 43365.00
292.9450, 43427.00
294.1570, 43388.00
295.3700, 43286.00
296.5830, 43292.00
297.7950, 43440.00
299.0070, 43635.00
300.2190, 43328.00
301.4310, 43710.00
302.6420, 44031.00
303.8540, 43429.00
305.0650, 43463.00
306.2760, 43591.00
307.4870, 43639.00
308.6980, 43428.00
309.9080, 43403.00
311.1190, 43685.00
312.3290, 43680.00
313.5390, 43833.00
314.7490, 43937.00
315.9580, 44151.00
317.1680, 44301.00
318.3770, 44339.00
319.5860, 44869.00
320.7950, 45548.00
322.0040, 45562.04
323.2130, 46601.00
324.4210, 45819.00
325.6290, 46559.00
326.8380, 46567.00
328.0460, 47029.00
329.2530, 47243.00
330.4610, 47559.00
331.6680, 47671.00
332.8760, 47482.00
334.0830, 47643.00
335.2890, 47529.00
336.4960, 47497.00
337.7030, 47340.00
338.9090, 47006.00
340.1150, 46775.61
341.3210, 46392.00
342.5270, 46065.00
343.7330, 45892.00
344.9380, 45515.00
346.1440, 45135.00
347.3490, 45085.00
348.5540, 45096.00
349.7590, 44858.00
350.9630, 44622.00
352.1680, 44373.00
353.3720, 44606.00
354.5760, 44461.00
355.7800, 44426.00
356.9840, 44376.00
358.1870, 44242.00
359.3910, 44299.00
360.5940, 44360.00
361.7970, 44446.00
363.0000, 44385.00
364.2030, 44193.00
365.4050, 43965.00
366.6080, 44032.00
367.8100, 44103.00
369.0120, 43891.00
370.2140, 43880.00
371.4150, 43672.00
372.6170, 43799.00
373.8180, 43510.39
375.0190, 43745.51
376.2200, 43878.67
377.4210, 43915.34
378.6220, 43566.54
379.8220, 43715.50
381.0230, 43664.98
382.2230, 43606.28
383.4230, 43825.29
384.6220, 43532.55
385.8220, 43747.16
387.0220, 43759.25
388.2210, 43864.02
389.4200, 43768.08
390.6190, 43734.14
391.8180, 43900.96
393.0160, 43956.62
394.2150, 43837.58
395.4130, 43948.24
396.6110, 44067.00
397.8090, 43777.00
399.0060, 43895.00
400.2040, 44279.00
401.4010, 43926.00
402.5980, 44224.00
403.7950, 44220.17
404.9920, 44499.00
406.1890, 44450.00
407.3860, 44587.83
408.5820, 45051.00
409.7780, 44497.00
410.9740, 44795.00
412.1700, 44761.00
413.3650, 44512.00
414.5610, 44631.00
415.7560, 44948.00
416.9510, 44781.00
418.1460, 44780.00
419.3410, 44668.00
420.5360, 44747.33
421.7300, 44861.00
422.9240, 44973.00
424.1180, 45200.00
425.3120, 45362.00
426.5060, 45476.00
427.7000, 45643.41
428.8930, 45783.63
430.0860, 45847.00
431.2790, 45869.00
432.4720, 45846.71
433.6650, 45833.00
434.8580, 45829.00
436.0500, 45668.00
437.2420, 45607.00
438.4340, 45568.00
439.6260, 45497.00
440.8180, 45402.00
442.0090, 45509.00
443.2010, 45429.00
444.3920, 45491.00
445.5830, 45500.92
446.7740, 45444.57
447.9640, 45480.00
449.1550, 45345.00
450.3450, 45228.00
451.5350, 45144.00
452.7250, 45560.00
453.9150, 45533.00
455.1050, 45479.00
456.2940, 45538.00
457.4830, 45464.00
458.6720, 45564.00
459.8610, 45523.00
461.0500, 45947.00
462.2390, 45505.00
463.4270, 45867.00
464.6150, 45516.00
465.8040, 45903.00
466.9910, 46043.00
468.1790, 45807.00
469.3670, 46047.00
470.5540, 46176.00
471.7410, 46295.00
472.9280, 46082.00
474.1150, 46124.00
475.3020, 46318.00
476.4890, 46639.00
477.6750, 46662.00
478.8610, 46636.00
480.0470, 46447.00
481.2330, 46878.00
482.4190, 47143.00
483.6040, 47040.00
484.7900, 47104.00
485.9750, 47308.00
487.1600, 47514.00
488.3450, 47468.00
489.5290, 47951.00
490.7140, 48439.00
491.8980, 48520.00
493.0820, 48734.00
494.2660, 48969.47
495.4500, 49384.00
496.6340, 49309.00
497.8170, 49883.00
499.0010, 50092.00
500.1840, 50246.00
501.3670, 51012.00
502.5500, 50660.00
503.7320, 50585.00
504.9150, 50650.00
506.0970, 50166.00
507.2790, 50391.00
508.4610, 50248.00
509.6430, 49798.00
510.8250, 50167.00
512.0060, 50156.00
513.1870, 49826.00
514.3680, 49370.00
515.5490, 49518.00
516.7300, 49431.00
517.9110, 49253.00
519.0910, 49110.00
520.2710, 49308.00
521.4510, 49569.00
522.6310, 49592.00
523.8110, 49704.00
524.9910, 49420.00
526.1700, 49633.00
527.3490, 49650.00
528.5280, 49358.00
529.7070, 49591.00
530.8860, 49707.00
532.0650, 49581.00
533.2430, 49099.00
534.4210, 49182.00
535.5990, 48982.00
536.7770, 49105.00
537.9550, 49063.00
539.1320, 48986.11
540.3100, 48953.00
541.4870, 48842.00
542.6640, 48795.00
543.8410, 48653.00
545.0170, 48788.00
546.1940, 48287.00
547.3700, 48576.00
548.5470, 48295.00
549.7230, 48297.37
550.8980, 48396.00
552.0740, 48289.00
553.2500, 48253.00
554.4250, 48147.00
555.6000, 47871.00
556.7750, 47750.00
557.9500, 47842.00
559.1250, 47552.00
560.2990, 47532.00
561.4730, 47926.00
562.6480, 47502.00
563.8220, 47635.00
564.9950, 47520.00
566.1690, 47723.00
567.3430, 47362.00
568.5160, 47322.00
569.6890, 47273.00
570.8620, 47427.00
572.0350, 47549.00
573.2070, 47535.00
574.3800, 47250.00
575.5520, 47396.00
576.7240, 47387.00
577.8960, 47674.00
579.0680, 47612.00
580.2400, 47608.00
581.4110, 47445.00
582.5830, 47652.00
583.7540, 47636.00
584.9250, 47384.00
586.0950, 47208.00
587.2660, 47144.00
588.4370, 47091.00
589.6070, 46798.00
590.7770, 46709.00
591.9470, 46147.00
593.1170, 46056.00
594.2860, 45990.00
595.4560, 46008.00
596.6250, 45791.00
597.7940, 45593.00
598.9630, 45708.00
600.1320, 45567.00
601.3000, 45734.00
602.4690, 45691.00
603.6370, 45554.40
604.8050, 45347.00
605.9730, 45251.00
607.1410, 45063.00
608.3090, 44901.00
609.4760, 45046.00
610.6430, 45046.00
611.8100, 44805.00
612.9770, 44443.00
614.1440, 44709.80
615.3110, 44771.00
616.4770, 44893.00
617.6430, 44913.00
618.8090, 44499.00
619.9750, 44822.00
621.1410, 44659.00
622.3070, 44814.00
623.4720, 44782.00
624.6370, 44750.00
625.8020, 44634.00
626.9670, 44307.38
628.1320, 44523.60
629.2970, 44637.86
630.4610, 44655.66
631.6250, 44287.98
632.7890, 44418.05
633.9530, 44348.65
635.1170, 44271.07
636.2810, 44471.20
637.4440, 44159.60
638.6070, 44355.34
639.7700, 44348.56
640.9330, 44434.47
642.0960, 44319.67
643.2590, 44266.86
644.4210, 44414.84
645.5830, 44451.65
646.7450, 44313.76
647.9070, 44405.58
649.0690, 44086.98
650.2310, 44128.53
651.3920, 44325.47
652.5530, 44197.69
653.7140, 44293.19
654.8750, 44303.64
656.0360, 44433.00
657.1970, 44358.00
658.3570, 44501.00
659.5170, 44322.00
660.6770, 44231.00
661.8370, 44169.00
662.9970, 44469.00
664.1570, 44432.00
665.3160, 44568.00
666.4750, 44216.00
667.6340, 44052.00
668.7930, 44179.00
669.9520, 44106.00
671.1110, 44120.00
672.2690, 44244.00
673.4270, 44421.00
674.5850, 44304.00
675.7430, 44350.00
676.9010, 44274.00
678.0590, 44206.00
679.2160, 44406.00
680.3730, 44391.00
681.5300, 44582.00
682.6870, 44396.00
683.8440, 44260.00
685.0010, 44413.00
686.1570, 44314.00
687.3130, 44974.00
688.4690, 44616.00
689.6250, 44836.00
690.7810, 44697.00
691.9370, 44873.00
693.0920, 45039.00
694.2470, 45482.00
695.4020, 45576.00
696.5570, 45943.00
697.7120, 46133.00
698.8670, 46624.00
700.0210, 47024.00
701.1750, 47303.00
702.3290, 47578.00
703.4830, 47532.00
704.6370, 47716.00
705.7910, 47766.00
706.9440, 47364.00
708.0970, 47006.00
709.2510, 46537.00
710.4030, 46228.00
711.5560, 45936.00
712.7090, 45781.00
713.8610, 45297.00
715.0140, 45259.00
716.1660, 45154.00
717.3180, 44441.00
718.4690, 44809.00
719.6210, 44592.00
720.7730, 44740.00
721.9240, 44376.00
723.0750, 44318.00
724.2260, 44227.00
725.3770, 44305.00
726.5270, 44515.00
727.6780, 44228.00
728.8280, 44019.00
729.9780, 43891.00
731.1280, 44165.00
732.2780, 43744.00
733.4280, 44254.00
734.5770, 43956.00
735.7260, 43940.00
736.8760, 44001.00
738.0250, 44116.00
739.1730, 43897.00
740.3220, 43707.00
741.4700, 43954.00
742.6190, 44042.00
743.7670, 43946.00
744.9150, 43991.00
746.0630, 43905.00
747.2100, 44063.00
748.3580, 43998.00
749.5050, 44123.00
750.6520, 44296.00
751.7990, 44139.35
752.9460, 44176.22
754.0930, 43865.00
755.2390, 44032.00
756.3860, 43807.00
757.5320, 43784.00
758.6780, 43739.00
759.8240, 44051.00
760.9690, 43720.00
762.1150, 44077.00
763.2600, 43943.00
764.4060, 43872.00
765.5510, 43747.00
766.6950, 43878.00
767.8400, 43642.00
768.9850, 44095.00
770.1290, 43910.00
771.2730, 44004.00
772.4170, 43866.00
773.5610, 43930.00
774.7050, 43975.00
775.8480, 43995.00
776.9920, 43824.00
778.1350, 44109.00
779.2780, 43678.00
780.4210, 44002.00
781.5640, 44208.00
782.7060, 44092.00
783.8490, 44312.00
784.9910, 44274.00
786.1330, 44387.00
787.2750, 44169.00
788.4170, 44016.00
789.5580, 44276.00
790.7000, 44201.00
791.8410, 44330.00
792.9820, 44357.00
794.1230, 44496.00
795.2640, 44754.00
796.4040, 44605.00
797.5450, 44538.00
798.6850, 44373.00
799.8250, 44478.27
800.9650, 44707.00
802.1050, 44703.00
803.2450, 44898.00
804.3840, 44992.00
805.5230, 44783.00
806.6630, 45119.00
807.8020, 45171.00
808.9400, 45464.00
810.0790, 45443.00
811.2170, 45666.00
812.3560, 45943.00
813.4940, 45723.00
814.6320, 45951.00
815.7700, 46200.00
816.9070, 46107.00
818.0450, 46474.00
819.1820, 46659.00
820.3190, 46570.00
821.4560, 46590.00
822.5930, 46407.00
823.7300, 46546.00
824.8670, 46306.00
826.0030, 46040.00
827.1390, 45821.00
828.2750, 45857.00
829.4110, 45775.00
830.5470, 45679.00
831.6820, 45560.00
832.8180, 45509.76
833.9530, 45325.00
835.0880, 45347.00
836.2230, 45517.00
837.3580, 45353.00
838.4920, 45255.00
839.6270, 45090.00
840.7610, 45099.05
841.8950, 45506.00
843.0290, 45217.00
844.1630, 45300.00
845.2960, 45532.00
846.4300, 45308.00
847.5630, 45343.00
848.6960, 45765.00
849.8290, 45447.00
850.9620, 45457.00
852.0940, 45654.00
853.2270, 45740.00
854.3590, 45640.00
855.4910, 45749.00
856.6230, 45915.00
857.7550, 45944.00
858.8870, 45860.00
860.0180, 46071.00
861.1500, 46088.00
862.2810, 46068.00
863.4120, 46243.00
864.5430, 46200.00
865.6730, 46149.00
866.8040, 45921.00
867.9340, 45902.00
869.0640, 45958.00
870.1940, 45860.00
871.3240, 46231.00
872.4540, 45977.00
873.5830, 46267.00
874.7130, 45874.00
875.8420, 46182.00
876.9710, 46071.00
878.1000, 46119.00
879.2290, 46231.00
880.3570, 46317.29
881.4860, 46382.00
882.6140, 46493.00
883.7420, 46195.00
884.8700, 45901.00
885.9980, 46370.00
887.1250, 46219.00
888.2530, 46355.00
889.3800, 46209.00
890.5070, 46235.00
891.6340, 46149.00
892.7610, 46334.00
893.8880, 46193.00
895.0140, 46386.00
896.1400, 46048.00
897.2670, 45955.00
898.3930, 46353.00
899.5180, 46474.00
900.6440, 46292.00
901.7700, 46137.00
902.8950, 46038.00
904.0200, 46462.00
905.1450, 46096.00
906.2700, 46366.00
907.3950, 46150.00
908.5190, 46249.00
909.6440, 46319.00
910.7680, 46450.00
911.8920, 46607.00
913.0160, 46552.00
914.1400, 46401.00
915.2630, 46474.00
916.3870, 46632.00
917.5100, 46659.00
918.6330, 46898.00
919.7560, 46706.00
920.8790, 46999.00
922.0010, 46798.00
923.1240, 47080.00
924.2460, 46963.00
925.3680, 47155.00
926.4900, 47003.00
927.6120, 47381.00
928.7340, 47329.00
929.8550, 47287.00
930.9760, 47377.00
932.0980, 47491.00
933.2190, 47680.00
934.3390, 47611.21
935.4600, 47415.00
936.5810, 47463.00
937.7010, 47277.00
938.8210, 47115.00
939.9410, 47412.00
941.0610, 47483.00
942.1810, 47364.00
943.3010, 47553.00
944.4200, 47442.00
945.5390, 47366.00
946.6580, 47386.00
947.7770, 47368.00
948.8960, 47477.00
950.0150, 47536.00
951.1330, 47441.00
952.2510, 47785.00
953.3690, 47598.00
954.4870, 47461.00
955.6050, 47873.00
956.7230, 47878.00
957.8400, 47924.00
958.9580, 48166.00
960.0750, 48021.00
961.1920, 48016.00
962.3090, 48355.00
963.4250, 48492.00
964.5420, 48501.00
965.6580, 48712.00
966.7740, 48792.00
967.8900, 48973.00
969.0060, 49226.26
970.1220, 49367.00
971.2380, 49690.00
972.3530, 49767.00
973.4680, 49824.00
974.5830, 50010.20
975.6980, 50332.00
976.8130, 50204.00
977.9280, 50610.00
979.0420, 50673.00
980.1560, 51109.00
981.2710, 51247.00
982.3850, 51181.00
983.4980, 51170.00
984.6120, 51422.00
985.7260, 51438.00
986.8390, 51447.00
987.9520, 51299.00
989.0650, 50913.00
990.1780, 50925.00
991.2910, 50644.00
992.4030, 50488.00
993.5160, 50259.00
994.6280, 50305.00
995.7400, 50265.00
996.8520, 50096.00
997.9640, 49764.00
999.0750, 49523.00
1000.187, 49956.00
1001.298, 49270.00
1002.409, 49424.00
1003.520, 49128.00
1004.631, 48882.00
1005.741, 48927.00
1006.852, 49000.00
1007.962, 48817.00
1009.072, 48886.00
1010.182, 48746.00
1011.292, 48928.00
1012.402, 48464.00
1013.511, 48543.00
1014.621, 48450.93
1015.730, 48590.00
1016.839, 48460.00
1017.948, 48208.00
1019.056, 48470.00
1020.165, 48273.00
1021.273, 48534.00
1022.382, 48572.00
1023.490, 48280.00
1024.598, 48651.00
1025.706, 48438.00
1026.813, 48743.00
1027.921, 48319.00
1029.028, 48466.00
1030.135, 48529.00
1031.242, 48906.00
1032.349, 48390.00
1033.456, 48732.00
1034.562, 48494.00
1035.668, 48542.00
1036.775, 48849.00
1037.881, 48816.00
1038.987, 48753.00
1040.092, 48874.00
1041.198, 48659.00
1042.303, 48662.00
1043.408, 48928.00
1044.514, 48798.00
1045.618, 48901.09
1046.723, 48704.00
1047.828, 48873.00
1048.932, 48794.00
1050.037, 48610.00
1051.141, 48691.00
1052.245, 48608.64
1053.349, 48717.00
1054.452, 48619.00
1055.556, 48757.00
1056.659, 48624.91
1057.762, 48843.32
1058.865, 48959.77
1059.968, 48979.72
1061.071, 48614.22
1062.174, 48746.46
1063.276, 48679.25
1064.378, 48603.85
1065.480, 48806.16
1066.582, 48496.73
1067.684, 48694.64
1068.786, 48690.03
1069.887, 48778.12
1070.988, 48665.51
1072.090, 48614.87
1073.191, 48765.02
1074.291, 48804.01
1075.392, 48668.29
1076.493, 48762.27
1077.593, 48445.86
1078.693, 48489.59
1079.793, 48688.70
1080.893, 48563.08
1081.993, 48318.00
1083.092, 48531.00
1084.192, 48634.00
1085.291, 48451.00
1086.390, 48610.00
1087.489, 48460.00
1088.588, 48527.00
1089.686, 48622.00
1090.785, 48585.00
1091.883, 48643.00
1092.981, 48405.00
1094.079, 48355.00
1095.177, 48143.00
1096.275, 48169.00
1097.373, 48184.00
1098.470, 48438.00
1099.567, 48375.00
1100.664, 48411.00
1101.761, 48425.00
1102.858, 48216.00
1103.954, 48295.00
1105.051, 47963.89
1106.147, 48171.17
1107.243, 48276.49
1108.339, 48285.32
1109.435, 47908.70
1110.531, 48029.81
1111.626, 47951.48
1112.722, 47864.95
1113.817, 48056.14
1114.912, 47735.60
1116.007, 47922.40
1117.101, 47906.70
1118.196, 47983.66
1119.290, 47859.94
1120.385, 47798.19
1121.479, 47937.23
1122.573, 47965.11
1123.666, 47818.30
1124.760, 47901.18
1125.853, 47573.68
1126.947, 47606.29
1128.040, 47794.30
1129.133, 47657.59
1130.226, 47744.17
1131.318, 47745.72
1132.411, 47360.79
1133.503, 47647.98
1134.596, 47644.50
1135.688, 47342.58
1136.780, 47606.75
1137.871, 47346.00
1138.963, 47272.60
1140.054, 47340.23
1141.146, 47260.84
1142.237, 47413.23
1143.328, 47342.36
1144.419, 47251.54
1145.509, 47247.79
1146.600, 46997.34
1147.690, 47289.00
1148.780, 47134.00
1149.870, 46972.00
1150.960, 46940.68
1152.050, 47119.00
1153.139, 46822.00
1154.229, 46942.00
1155.318, 47104.00
1156.407, 46973.00
1157.496, 46962.00
1158.585, 46735.00
1159.674, 46939.00
1160.762, 47102.00
1161.850, 46952.00
1162.939, 46977.00
1164.027, 47173.00
1165.114, 46790.00
1166.202, 46886.00
1167.290, 47093.00
1168.377, 46831.00
1169.464, 46790.00
1170.551, 47067.00
1171.638, 46966.00
1172.725, 46893.00
1173.812, 46951.00
1174.898, 46956.00
1175.984, 46819.00
1177.071, 46905.00
1178.157, 46573.00
1179.242, 46775.00
1180.328, 47152.00
1181.414, 46904.00
1182.499, 46880.00
1183.584, 46990.00
1184.669, 46988.00
1185.754, 46825.00
1186.839, 46753.00
1187.924, 46705.12
1189.008, 46897.00
1190.092, 46674.00
1191.177, 46728.00
1192.260, 46883.00
1193.344, 46594.00
1194.428, 46544.00
1195.512, 46728.00
1196.595, 46850.00
1197.678, 46963.00
1198.761, 46933.00
1199.844, 46968.89
1200.927, 46982.04
1202.009, 46869.00
1203.092, 46927.00
1204.174, 46798.00
1205.256, 46662.00
1206.338, 46570.00
1207.420, 46964.00
1208.502, 47006.00
1209.583, 46936.00
1210.665, 47006.00
1211.746, 46938.00
1212.827, 46952.00
1213.908, 46706.52
1214.988, 46930.40
1216.069, 47052.31
1217.149, 47077.74
1218.230, 46717.70
1219.310, 46855.41
1220.390, 46793.64
1221.470, 46723.70
1222.549, 46931.48
1223.629, 46627.51
1224.708, 46830.89
1225.787, 46831.74
1226.866, 46925.29
1227.945, 46818.12
1229.024, 46772.95
1230.103, 46928.54
1231.181, 46972.98
1232.259, 46842.72
1233.337, 46942.16
1234.415, 46631.20
1235.493, 46680.37
1236.571, 46884.93
1237.648, 46756.03
1238.726, 47086.00
1239.803, 46714.00
1240.880, 46927.00
1241.957, 46814.00
1243.034, 46581.00
1244.110, 46932.00
1245.187, 46732.00
1246.263, 47044.00
1247.339, 47112.00
1248.415, 46731.00
1249.491, 47032.00
1250.566, 46840.00
1251.642, 47131.00
1252.717, 46962.00
1253.793, 46843.00
1254.868, 46877.00
1255.943, 46873.00
1257.017, 46859.32
1258.092, 46869.00
1259.166, 46913.00
1260.241, 46789.00
1261.315, 46845.00
1262.389, 46852.00
1263.462, 46661.00
1264.536, 46906.00
1265.610, 46804.00
1266.683, 46870.00
1267.756, 46987.00
1268.829, 46762.00
1269.902, 46941.00
1270.975, 46806.53
1272.048, 46812.13
1273.120, 46696.00
1274.192, 46860.00
1275.264, 46964.00
1276.336, 47089.00
1277.408, 46771.00
1278.480, 46835.00
1279.551, 46848.00
1280.623, 47291.00
1281.694, 46894.00
1282.765, 47113.00
1283.836, 47109.00
1284.907, 47119.00
1285.977, 47045.00
1287.048, 47046.00
1288.118, 47276.00
1289.188, 46987.00
1290.258, 46951.00
1291.328, 47138.00
1292.398, 47278.00
1293.467, 46887.49
1294.537, 47131.01
1295.606, 47272.55
1296.675, 47317.61
1297.744, 46977.21
1298.813, 47134.55
1299.882, 47092.42
1300.950, 47042.10
1302.018, 47269.49
1303.086, 46985.14
1304.155, 47208.14
1305.222, 47228.60
1306.290, 47341.75
1307.358, 47254.20
1308.425, 47228.63
1309.492, 47403.83
1310.559, 47467.86
1311.626, 47357.20
1312.693, 47476.23
1313.760, 47184.86
1314.826, 47253.62
1315.893, 47477.77
1316.959, 47377.18
1318.025, 47499.88
1319.091, 47537.54
1320.157, 47188.73
1321.222, 47512.02
1322.288, 47544.65
1323.353, 47278.83
1324.418, 47579.08
1325.483, 47354.41
1326.548, 47317.09
1327.612, 47420.79
1328.677, 47377.48
1329.741, 47565.93
1330.806, 47531.12
1331.870, 47476.36
1332.934, 47508.64
1333.997, 47542.00
1335.061, 47406.00
1336.124, 47352.00
1337.188, 47500.00
1338.251, 47284.00
1339.314, 47482.00
1340.377, 47402.00
1341.439, 47598.00
1342.502, 47168.00
1343.564, 47561.00
1344.627, 47455.00
1345.689, 47410.00
1346.751, 47498.00
1347.813, 47412.00
1348.874, 47614.00
1349.936, 47622.00
1350.997, 47703.00
1352.058, 47788.00
1353.119, 47574.00
1354.180, 47374.00
1355.241, 47464.00
1356.301, 47327.65
1357.362, 47473.00
1358.422, 47457.00
1359.482, 47317.00
1360.542, 47718.00
1361.602, 47663.00
1362.662, 47503.00
1363.721, 47340.00
1364.781, 47550.00
1365.840, 47864.00
1366.899, 47479.00
1367.958, 47694.00
1369.017, 47800.00
1370.075, 47734.00
1371.134, 47501.00
1372.192, 47635.00
1373.250, 47610.00
1374.308, 47554.00
1375.366, 47479.00
1376.424, 47520.00
1377.481, 47463.00
1378.539, 47947.00
1379.596, 47539.00
1380.653, 47260.00
1381.710, 47732.00
1382.767, 47833.00
1383.824, 47902.00
1384.880, 47918.23
1385.937, 47821.00
1386.993, 47638.00
1388.049, 47739.00
1389.105, 47575.00
1390.161, 47577.26
1391.216, 47986.00
1392.272, 47447.00
1393.327, 47739.00
1394.382, 47479.00
1395.437, 47522.00
1396.492, 47630.00
1397.547, 47418.00
1398.601, 47793.00
1399.656, 47548.00
1400.710, 47525.00
1401.764, 47887.00
1402.818, 47711.00
1403.872, 47622.00
1404.925, 47779.00
1405.979, 47680.00
1407.032, 47857.00
1408.085, 47505.00
1409.139, 47883.00
1410.191, 47713.00
1411.244, 47686.00
1412.297, 47931.00
1413.349, 47790.00
1414.402, 47835.00
1415.454, 47726.00
1416.506, 47683.00
1417.558, 47835.00
1418.609, 47659.00
1419.661, 47776.00
1420.712, 47480.85
1421.764, 47722.18
1422.815, 47861.53
1423.866, 47904.40
1424.916, 47561.79
1425.967, 47716.95
1427.018, 47672.62
1428.068, 47620.11
1429.118, 47845.31
1430.168, 47558.77
1431.218, 47779.57
1432.268, 47797.84
1433.318, 47908.81
1434.367, 47819.06
1435.416, 47791.30
1436.465, 47964.31
1437.514, 48026.16
1438.563, 47913.30
1439.612, 48030.15
1440.661, 47736.59
1441.709, 47803.16
1442.757, 48025.12
1443.805, 47922.35
1444.853, 48042.86
1445.901, 48078.33
1446.949, 47727.34
1447.996, 48048.44
1449.044, 48078.89
1450.091, 47810.88
1451.138, 48108.95
1452.185, 47882.09
1453.232, 47842.59
1454.278, 47944.10
1455.325, 47898.62
1456.371, 48084.89
1457.417, 48047.89
1458.463, 47990.94
1459.509, 48021.04
1460.555, 47804.47
1461.601, 48045.54
1462.646, 47973.98
1463.691, 48057.82
1464.737, 48176.90
1465.782, 48026.27
1466.826, 48161.15
1467.871, 47853.27
1468.916, 47915.87
1469.960, 47938.57
1471.004, 48198.07
1472.048, 47892.34
1473.092, 47944.64
1474.136, 48149.38
1475.180, 48140.82
1476.223, 48221.44
1477.267, 48038.04
1478.310, 48102.66
1479.353, 48098.92
1480.396, 48331.41
1481.439, 48377.41
1482.481, 48198.48
1483.524, 48020.51
1484.566, 48270.00
1485.608, 48114.33
1486.650, 48177.23
1487.692, 48014.40
1488.734, 48046.48
1489.775, 48075.46
1490.817, 48204.36
1491.858, 48030.28
1492.899, 48249.21
1493.940, 48240.99
1494.981, 48299.68
1496.022, 48350.93
1497.062, 48097.35
1498.103, 48093.66
1499.143, 48447.51
1500.183, 48256.08
1501.223, 48174.70
1502.263, 48171.56
1503.302, 48537.65
1504.342, 48560.54
1505.381, 48173.21
1506.420, 48287.28
1507.459, 48327.00
1508.498, 48311.00
1509.537, 48366.00
1510.576, 48355.00
1511.614, 48225.00
1512.652, 48484.00
1513.691, 48023.00
1514.729, 48773.00
1515.767, 48358.00
1516.804, 48224.00
1517.842, 48519.00
1518.879, 48239.00
1519.917, 48749.00
1520.954, 48518.00
1521.991, 48459.00
1523.028, 48549.00
1524.064, 48509.00
1525.101, 48404.00
1526.137, 48612.00
1527.173, 48627.97
1528.210, 48663.00
1529.245, 48846.00
1530.281, 48775.00
1531.317, 48797.00
1532.352, 48823.00
1533.388, 48506.00
1534.423, 48523.00
1535.458, 48885.00
1536.493, 49049.00
1537.528, 48668.00
##END=



