##NAMES=Ilvaite
##RRUFFID=R050040
##IDEAL CHEMISTRY=CaFe^2+^_2_Fe^3+^OSi_2_O_7_(OH)
##LOCALITY=Capo Calamita, Isle of Elba, Italy
##OWNER=RRUFF
##SOURCE=University of Arizona Mineral Museum
##DESCRIPTION=Brown fragment
##STATUS=The identification of this mineral has been confirmed by X-ray diffraction and chemical analysis
##URL=rruff.info/R050040
##MEASURED CHEMISTRY=Ca_1.00_(Fe^2+^_1.89_Mn_0.10_Mg_0.01_)_Î£=2_Fe^3+^_1.00_OSi_2.00_O_7_(OH); trace amounts of Al; OH estimated by charge balance
##PIN_ID=M00123
##ORIENTATION=Laser parallel to (1 0 1). Fiducial mark perpendicular to laser is parallel to b [0 1 0]
159.6920, 43942.00
160.9250, 44019.00
162.1560, 44220.00
163.3880, 44776.00
164.6200, 44701.00
165.8510, 44841.00
167.0820, 45002.00
168.3130, 45199.00
169.5440, 45121.00
170.7750, 45485.00
172.0050, 45249.00
173.2350, 44724.00
174.4650, 44807.00
175.6950, 44834.00
176.9250, 45092.00
178.1550, 45107.00
179.3840, 44480.00
180.6130, 44361.00
181.8420, 44155.00
183.0710, 44185.00
184.3000, 44594.00
185.5280, 44964.00
186.7570, 45392.00
187.9850, 45098.00
189.2130, 45354.00
190.4400, 46036.00
191.6680, 46821.00
192.8960, 46780.00
194.1230, 46731.00
195.3500, 47062.00
196.5770, 47182.00
197.8030, 47250.00
199.0300, 47438.00
200.2560, 47853.00
201.4830, 48049.00
202.7090, 48232.00
203.9340, 46610.00
205.1600, 45245.00
206.3860, 44005.00
207.6110, 44444.00
208.8360, 43584.00
210.0610, 43574.00
211.2860, 43664.00
212.5100, 44066.00
213.7350, 44435.00
214.9590, 44022.00
216.1830, 43833.00
217.4070, 43800.00
218.6310, 43507.00
219.8540, 43808.00
221.0780, 43945.00
222.3010, 43775.00
223.5240, 43831.00
224.7470, 43792.00
225.9690, 43811.00
227.1920, 43935.00
228.4140, 43573.00
229.6360, 43991.00
230.8580, 43105.00
232.0800, 43020.00
233.3020, 42630.00
234.5230, 42542.00
235.7440, 42604.00
236.9650, 42081.00
238.1860, 41701.00
239.4070, 41773.00
240.6280, 41588.00
241.8480, 41389.00
243.0680, 41290.00
244.2880, 40667.38
245.5080, 40985.53
246.7280, 41169.29
247.9470, 41225.86
249.1660, 40774.34
250.3860, 40978.92
251.6040, 40920.55
252.8230, 40851.41
254.0420, 41148.33
255.2600, 40770.70
256.4790, 41061.82
257.6970, 41085.97
258.9150, 41232.30
260.1320, 41114.07
261.3500, 41077.56
262.5670, 41305.68
263.7840, 41387.27
265.0010, 41238.58
266.2180, 41392.67
267.4350, 41005.80
268.6510, 41461.00
269.8680, 41320.00
271.0840, 41283.00
272.3000, 41297.00
273.5160, 41563.00
274.7310, 41829.00
275.9470, 42037.00
277.1620, 41852.00
278.3770, 42054.00
279.5920, 42037.00
280.8070, 41950.00
282.0210, 41980.00
283.2360, 41959.00
284.4500, 41846.00
285.6640, 41744.57
286.8780, 41656.54
288.0920, 41544.00
289.3050, 41384.00
290.5180, 41551.00
291.7320, 41331.00
292.9450, 41518.00
294.1570, 41622.00
295.3700, 41082.00
296.5830, 41432.00
297.7950, 41215.00
299.0070, 41399.00
300.2190, 41651.00
301.4310, 41164.00
302.6420, 41590.00
303.8540, 41241.00
305.0650, 41489.00
306.2760, 41738.00
307.4870, 41470.00
308.6980, 41605.08
309.9080, 41786.00
311.1190, 41552.00
312.3290, 41673.00
313.5390, 41850.00
314.7490, 42060.00
315.9580, 41936.00
317.1680, 42191.00
318.3770, 42302.00
319.5860, 42662.00
320.7950, 42866.00
322.0040, 43124.00
323.2130, 43265.00
324.4210, 43612.00
325.6290, 44007.00
326.8380, 44066.00
328.0460, 44266.00
329.2530, 44636.00
330.4610, 44632.00
331.6680, 44833.00
332.8760, 44854.00
334.0830, 44626.00
335.2890, 44818.00
336.4960, 44540.00
337.7030, 44375.39
338.9090, 44152.00
340.1150, 43888.00
341.3210, 43691.00
342.5270, 43451.00
343.7330, 43142.00
344.9380, 43032.00
346.1440, 43011.00
347.3490, 42430.00
348.5540, 42450.00
349.7590, 42518.00
350.9630, 42600.00
352.1680, 42333.00
353.3720, 42791.00
354.5760, 42351.00
355.7800, 42684.00
356.9840, 42319.37
358.1870, 42553.00
359.3910, 42652.18
360.5940, 42624.23
361.7970, 42088.19
363.0000, 42208.25
364.2030, 42065.38
365.4050, 41911.78
366.6080, 42124.18
367.8100, 41662.11
369.0120, 42049.00
370.2140, 41772.00
371.4150, 41913.00
372.6170, 42001.00
373.8180, 41759.00
375.0190, 41736.00
376.2200, 41799.00
377.4210, 41979.16
378.6220, 41864.21
379.8220, 41893.23
381.0230, 41737.00
382.2230, 41763.00
383.4230, 41715.00
384.6220, 41630.00
385.8220, 41491.00
387.0220, 41627.00
388.2210, 41675.00
389.4200, 41684.00
390.6190, 41913.00
391.8180, 41761.91
393.0160, 41826.00
394.2150, 41611.00
395.4130, 41743.00
396.6110, 41805.00
397.8090, 41909.00
399.0060, 41665.00
400.2040, 41736.00
401.4010, 41929.00
402.5980, 41753.00
403.7950, 42035.00
404.9920, 42004.00
406.1890, 42132.00
407.3860, 42169.00
408.5820, 42239.00
409.7780, 42258.00
410.9740, 42433.00
412.1700, 42647.00
413.3650, 42399.00
414.5610, 42687.00
415.7560, 42632.62
416.9510, 42642.00
418.1460, 42720.00
419.3410, 42738.00
420.5360, 42907.00
421.7300, 42969.00
422.9240, 42939.00
424.1180, 43198.00
425.3120, 43125.00
426.5060, 43342.00
427.7000, 43359.00
428.8930, 43187.00
430.0860, 43422.00
431.2790, 43400.00
432.4720, 43445.00
433.6650, 43312.00
434.8580, 43552.00
436.0500, 43445.00
437.2420, 43605.37
438.4340, 43588.36
439.6260, 43806.00
440.8180, 43613.00
442.0090, 43488.00
443.2010, 43640.00
444.3920, 43979.00
445.5830, 43597.00
446.7740, 43590.00
447.9640, 44136.00
449.1550, 43875.00
450.3450, 43907.00
451.5350, 44455.00
452.7250, 44012.00
453.9150, 44270.00
455.1050, 44083.00
456.2940, 44056.00
457.4830, 44145.00
458.6720, 44308.00
459.8610, 44357.00
461.0500, 44088.00
462.2390, 44383.00
463.4270, 44146.00
464.6150, 44459.00
465.8040, 44420.00
466.9910, 44655.00
468.1790, 44577.00
469.3670, 44835.00
470.5540, 44957.00
471.7410, 44644.84
472.9280, 45078.33
474.1150, 45377.41
475.3020, 45549.32
476.4890, 45213.14
477.6750, 45532.95
478.8610, 45589.82
480.0470, 45635.91
481.2330, 46048.06
482.4190, 45785.68
483.6040, 46191.91
484.7900, 46331.31
485.9750, 46592.78
487.1600, 46655.00
488.3450, 47068.00
489.5290, 47297.00
490.7140, 47550.00
491.8980, 47904.00
493.0820, 48113.00
494.2660, 48424.00
495.4500, 48670.36
496.6340, 48984.00
497.8170, 49218.00
499.0010, 49536.00
500.1840, 49959.00
501.3670, 50146.00
502.5500, 50258.00
503.7320, 50402.00
504.9150, 50026.00
506.0970, 49915.00
507.2790, 49806.00
508.4610, 49340.00
509.6430, 49429.00
510.8250, 49051.00
512.0060, 49042.00
513.1870, 48862.00
514.3680, 49075.00
515.5490, 48780.00
516.7300, 48913.00
517.9110, 48806.00
519.0910, 48473.00
520.2710, 48858.00
521.4510, 48532.00
522.6310, 48987.00
523.8110, 48698.00
524.9910, 48937.00
526.1700, 48824.00
527.3490, 48869.00
528.5280, 48815.93
529.7070, 48656.00
530.8860, 48591.00
532.0650, 48372.00
533.2430, 48215.00
534.4210, 48439.00
535.5990, 48079.00
536.7770, 48237.00
537.9550, 47844.00
539.1320, 47764.00
540.3100, 47726.00
541.4870, 47997.00
542.6640, 47607.00
543.8410, 47817.00
545.0170, 47523.00
546.1940, 47225.00
547.3700, 46961.00
548.5470, 46976.00
549.7230, 46932.00
550.8980, 47049.00
552.0740, 46777.00
553.2500, 46723.00
554.4250, 46600.00
555.6000, 46509.04
556.7750, 46404.00
557.9500, 46366.00
559.1250, 46438.00
560.2990, 46278.00
561.4730, 46448.00
562.6480, 46389.00
563.8220, 45874.00
564.9950, 45845.00
566.1690, 45640.00
567.3430, 45958.00
568.5160, 45642.00
569.6890, 45856.00
570.8620, 45754.00
572.0350, 46097.00
573.2070, 45636.00
574.3800, 45615.00
575.5520, 45517.00
576.7240, 45483.00
577.8960, 45616.00
579.0680, 45503.00
580.2400, 45525.59
581.4110, 45520.00
582.5830, 45447.00
583.7540, 45291.00
584.9250, 45187.00
586.0950, 44905.00
587.2660, 44747.00
588.4370, 44598.00
589.6070, 44380.00
590.7770, 43988.00
591.9470, 43854.00
593.1170, 43643.00
594.2860, 43597.00
595.4560, 43475.00
596.6250, 43380.00
597.7940, 43213.00
598.9630, 42985.00
600.1320, 42878.00
601.3000, 42753.97
602.4690, 42682.00
603.6370, 42627.00
604.8050, 42580.00
605.9730, 42618.00
607.1410, 42404.00
608.3090, 42495.00
609.4760, 42341.49
610.6430, 42392.00
611.8100, 42093.00
612.9770, 42336.00
614.1440, 42211.00
615.3110, 42160.00
616.4770, 42250.00
617.6430, 42303.00
618.8090, 42068.00
619.9750, 42086.00
621.1410, 42038.00
622.3070, 42093.00
623.4720, 42074.00
624.6370, 42197.00
625.8020, 42027.00
626.9670, 42137.00
628.1320, 42051.00
629.2970, 41881.00
630.4610, 42241.00
631.6250, 41881.00
632.7890, 41868.00
633.9530, 41969.00
635.1170, 41815.00
636.2810, 41964.00
637.4440, 41901.00
638.6070, 41990.00
639.7700, 41819.00
640.9330, 41672.00
642.0960, 41733.00
643.2590, 41856.00
644.4210, 42053.00
645.5830, 41725.00
646.7450, 41719.00
647.9070, 41835.00
649.0690, 41675.00
650.2310, 41659.00
651.3920, 41708.00
652.5530, 41607.00
653.7140, 41753.00
654.8750, 41537.00
656.0360, 41403.00
657.1970, 41658.00
658.3570, 41747.00
659.5170, 41696.00
660.6770, 41577.00
661.8370, 41460.00
662.9970, 41384.00
664.1570, 41657.00
665.3160, 41303.00
666.4750, 41547.00
667.6340, 41459.00
668.7930, 41456.00
669.9520, 41388.00
671.1110, 41510.49
672.2690, 41782.00
673.4270, 41790.00
674.5850, 41669.00
675.7430, 41774.00
676.9010, 41515.00
678.0590, 41653.00
679.2160, 41418.00
680.3730, 41692.00
681.5300, 41783.00
682.6870, 41721.00
683.8440, 42044.00
685.0010, 41717.00
686.1570, 41881.00
687.3130, 42084.00
688.4690, 42126.00
689.6250, 42347.00
690.7810, 42411.00
691.9370, 42648.00
693.0920, 43007.00
694.2470, 43159.00
695.4020, 43205.00
696.5570, 43829.00
697.7120, 43874.00
698.8670, 44493.00
700.0210, 44640.00
701.1750, 44763.00
702.3290, 45235.00
703.4830, 44964.00
704.6370, 45071.00
705.7910, 44700.00
706.9440, 44684.00
708.0970, 44574.00
709.2510, 43923.00
710.4030, 43733.00
711.5560, 43299.00
712.7090, 43005.00
713.8610, 42776.00
715.0140, 42565.00
716.1660, 42408.00
717.3180, 42221.00
718.4690, 42059.92
719.6210, 41965.44
720.7730, 41627.34
721.9240, 41753.54
723.0750, 41803.56
724.2260, 41781.50
725.3770, 41471.46
726.5270, 41533.34
727.6780, 41446.14
728.8280, 41352.87
729.9780, 41467.07
731.1280, 41198.96
732.2780, 41309.88
733.4280, 41507.00
734.5770, 41207.00
735.7260, 41378.00
736.8760, 41383.00
738.0250, 41700.00
739.1730, 41688.00
740.3220, 41677.46
741.4700, 41629.00
742.6190, 41501.00
743.7670, 41532.00
744.9150, 41373.00
746.0630, 41604.00
747.2100, 41386.00
748.3580, 41489.00
749.5050, 41596.00
750.6520, 41602.00
751.7990, 41495.00
752.9460, 41591.00
754.0930, 41513.00
755.2390, 41463.00
756.3860, 41616.00
757.5320, 41366.00
758.6780, 41614.00
759.8240, 41774.00
760.9690, 41633.00
762.1150, 41715.00
763.2600, 41443.00
764.4060, 41588.00
765.5510, 41590.00
766.6950, 41769.00
767.8400, 41687.00
768.9850, 41848.00
770.1290, 41644.00
771.2730, 41617.00
772.4170, 41610.00
773.5610, 41846.00
774.7050, 41659.00
775.8480, 41705.00
776.9920, 41603.00
778.1350, 41953.00
779.2780, 41807.00
780.4210, 41728.00
781.5640, 41428.00
782.7060, 41599.00
783.8490, 41739.00
784.9910, 41881.00
786.1330, 41635.00
787.2750, 41831.00
788.4170, 42059.00
789.5580, 41727.00
790.7000, 41798.00
791.8410, 42211.00
792.9820, 42032.00
794.1230, 42348.00
795.2640, 41976.00
796.4040, 41975.00
797.5450, 42120.00
798.6850, 42241.00
799.8250, 42285.43
800.9650, 42268.00
802.1050, 42419.00
803.2450, 42555.00
804.3840, 42607.00
805.5230, 42847.00
806.6630, 42769.00
807.8020, 42670.00
808.9400, 42985.38
810.0790, 43268.67
811.2170, 43475.69
812.3560, 43610.72
813.4940, 43457.68
814.6320, 43676.50
815.7700, 43746.29
816.9070, 43809.87
818.0450, 44081.03
819.1820, 44059.00
820.3190, 44089.00
821.4560, 44207.00
822.5930, 44073.00
823.7300, 44098.00
824.8670, 44018.05
826.0030, 43985.00
827.1390, 43768.00
828.2750, 43796.00
829.4110, 43567.00
830.5470, 42988.00
831.6820, 42899.00
832.8180, 42907.00
833.9530, 42813.00
835.0880, 42902.00
836.2230, 42812.00
837.3580, 43130.00
838.4920, 43095.64
839.6270, 43001.89
840.7610, 43210.00
841.8950, 42789.00
843.0290, 42776.00
844.1630, 42825.00
845.2960, 42829.00
846.4300, 42889.00
847.5630, 43026.00
848.6960, 43092.00
849.8290, 42958.00
850.9620, 43196.00
852.0940, 43173.00
853.2270, 43201.00
854.3590, 43307.00
855.4910, 43499.00
856.6230, 43171.00
857.7550, 43875.00
858.8870, 43470.00
860.0180, 43556.00
861.1500, 43663.00
862.2810, 43538.00
863.4120, 43816.00
864.5430, 43658.00
865.6730, 43741.00
866.8040, 43650.00
867.9340, 43637.11
869.0640, 43697.00
870.1940, 43601.00
871.3240, 43693.00
872.4540, 43645.00
873.5830, 43735.54
874.7130, 43842.00
875.8420, 43958.00
876.9710, 43905.00
878.1000, 44046.00
879.2290, 44236.00
880.3570, 44240.00
881.4860, 44049.00
882.6140, 44281.00
883.7420, 44408.00
884.8700, 44201.00
885.9980, 44499.00
887.1250, 44402.00
888.2530, 44439.00
889.3800, 44446.00
890.5070, 44499.00
891.6340, 44456.00
892.7610, 44430.00
893.8880, 44460.00
895.0140, 44030.00
896.1400, 44357.00
897.2670, 44240.00
898.3930, 44410.00
899.5180, 43969.00
900.6440, 44352.00
901.7700, 44013.00
902.8950, 44270.00
904.0200, 44106.02
905.1450, 44290.93
906.2700, 44399.67
907.3950, 44436.32
908.5190, 44184.99
909.6440, 44305.54
910.7680, 44277.04
911.8920, 44242.44
913.0160, 44415.31
914.1400, 44205.87
915.2630, 44610.00
916.3870, 44661.00
917.5100, 44518.00
918.6330, 44412.00
919.7560, 44654.00
920.8790, 44637.65
922.0010, 44686.00
923.1240, 44971.00
924.2460, 44983.00
925.3680, 45270.00
926.4900, 44896.00
927.6120, 45069.00
928.7340, 45148.00
929.8550, 45013.00
930.9760, 45439.00
932.0980, 45171.00
933.2190, 45248.00
934.3390, 45107.00
935.4600, 45080.00
936.5810, 45123.00
937.7010, 45116.00
938.8210, 45249.00
939.9410, 45327.00
941.0610, 45296.00
942.1810, 45243.00
943.3010, 45127.00
944.4200, 45456.00
945.5390, 45076.00
946.6580, 45201.00
947.7770, 45510.00
948.8960, 45499.00
950.0150, 45435.00
951.1330, 45385.00
952.2510, 45470.00
953.3690, 45355.00
954.4870, 45560.00
955.6050, 45738.00
956.7230, 46039.00
957.8400, 45998.00
958.9580, 45891.00
960.0750, 46036.00
961.1920, 46165.00
962.3090, 46455.00
963.4250, 46530.00
964.5420, 46536.00
965.6580, 46821.00
966.7740, 46742.00
967.8900, 46978.00
969.0060, 47495.00
970.1220, 47672.00
971.2380, 47699.00
972.3530, 48331.00
973.4680, 48216.00
974.5830, 48352.00
975.6980, 48969.00
976.8130, 49167.00
977.9280, 49443.00
979.0420, 49852.00
980.1560, 49723.00
981.2710, 50197.00
982.3850, 50000.00
983.4980, 50140.50
984.6120, 50094.00
985.7260, 50172.00
986.8390, 50096.00
987.9520, 49950.00
989.0650, 49868.00
990.1780, 49747.55
991.2910, 49618.79
992.4030, 49432.00
993.5160, 49328.00
994.6280, 48996.00
995.7400, 48757.00
996.8520, 48931.00
997.9640, 48307.00
999.0750, 48193.00
1000.187, 47936.00
1001.298, 48054.00
1002.409, 47870.00
1003.520, 47781.00
1004.631, 47513.00
1005.741, 47321.00
1006.852, 47436.00
1007.962, 47244.00
1009.072, 47044.00
1010.182, 47176.00
1011.292, 46949.00
1012.402, 47044.00
1013.511, 47078.00
1014.621, 46923.00
1015.730, 46777.00
1016.839, 47061.00
1017.948, 46983.00
1019.056, 46749.00
1020.165, 46785.00
1021.273, 46709.00
1022.382, 46848.00
1023.490, 46835.00
1024.598, 46834.87
1025.706, 47125.00
1026.813, 46845.00
1027.921, 46705.00
1029.028, 46730.00
1030.135, 46934.00
1031.242, 46969.00
1032.349, 47314.00
1033.456, 47159.00
1034.562, 46885.00
1035.668, 47125.00
1036.775, 47324.00
1037.881, 47099.00
1038.987, 47358.00
1040.092, 47305.00
1041.198, 47274.00
1042.303, 47162.00
1043.408, 47128.18
1044.514, 47071.84
1045.618, 47019.00
1046.723, 47047.00
1047.828, 47009.00
1048.932, 47147.00
1050.037, 47023.00
1051.141, 46717.00
1052.245, 47070.00
1053.349, 46948.00
1054.452, 47088.00
1055.556, 47286.00
1056.659, 46997.00
1057.762, 47042.00
1058.865, 47095.00
1059.968, 47204.00
1061.071, 46873.00
1062.174, 46953.00
1063.276, 46795.00
1064.378, 46775.00
1065.480, 46931.00
1066.582, 47028.00
1067.684, 46808.00
1068.786, 47036.00
1069.887, 46777.00
1070.988, 46701.00
1072.090, 46864.00
1073.191, 46917.00
1074.291, 46785.00
1075.392, 46685.00
1076.493, 46792.00
1077.593, 46699.77
1078.693, 46741.00
1079.793, 46563.00
1080.893, 46693.00
1081.993, 46360.00
1083.092, 46334.00
1084.192, 47103.00
1085.291, 46591.00
1086.390, 46585.00
1087.489, 46615.00
1088.588, 46372.69
1089.686, 46820.00
1090.785, 46151.00
1091.883, 46253.00
1092.981, 46070.00
1094.079, 46101.80
1095.177, 46373.25
1096.275, 46510.29
1097.373, 46520.16
1098.470, 46021.96
1099.567, 46179.86
1100.664, 46074.84
1101.761, 45959.02
1102.858, 46209.26
1103.954, 45785.00
1105.051, 46029.44
1106.147, 46006.97
1107.243, 46106.66
1108.339, 45941.81
1109.435, 45858.66
1110.531, 46040.16
1111.626, 46075.16
1112.722, 45879.85
1113.817, 45987.34
1114.912, 45553.88
1116.007, 45595.11
1117.101, 45841.20
1118.196, 45659.22
1119.290, 45771.59
1120.385, 45771.83
1121.479, 45262.71
1122.573, 45639.48
1123.666, 45633.17
1124.760, 45233.43
1125.853, 45579.89
1126.947, 45234.39
1128.040, 45135.89
1129.133, 45223.27
1130.226, 45116.88
1131.318, 45316.01
1132.411, 45220.81
1133.503, 45099.35
1134.596, 44908.00
1135.688, 44790.00
1136.780, 44531.00
1137.871, 44855.00
1138.963, 44934.00
1140.054, 44597.00
1141.146, 44873.00
1142.237, 44780.00
1143.328, 44403.00
1144.419, 44449.00
1145.509, 44252.00
1146.600, 44314.00
1147.690, 44511.00
1148.780, 44531.00
1149.870, 44539.00
1150.960, 44366.00
1152.050, 44318.00
1153.139, 44279.00
1154.229, 44151.00
1155.318, 44050.00
1156.407, 44345.00
1157.496, 43661.00
1158.585, 43929.00
1159.674, 44823.00
1160.762, 44164.00
1161.850, 44073.00
1162.939, 44110.00
1164.027, 44118.00
1165.114, 44024.35
1166.202, 44148.00
1167.290, 43982.00
1168.377, 43736.00
1169.464, 43945.00
1170.551, 43914.00
1171.638, 43825.00
1172.725, 43963.00
1173.812, 43711.00
1174.898, 43868.00
1175.984, 44097.00
1177.071, 43803.00
1178.157, 43918.00
1179.242, 44327.00
1180.328, 43797.00
1181.414, 43897.00
1182.499, 43491.00
1183.584, 43815.00
1184.669, 43876.00
1185.754, 44022.00
1186.839, 43577.00
1187.924, 43628.00
1189.008, 43602.00
1190.092, 43798.00
1191.177, 43723.00
1192.260, 43811.00
1193.344, 43858.00
1194.428, 43714.00
1195.512, 43872.00
1196.595, 43643.00
1197.678, 43540.91
1198.761, 43835.36
1199.844, 43995.40
1200.927, 44028.27
1202.009, 43553.05
1203.092, 43733.92
1204.174, 43651.87
1205.256, 43559.03
1206.338, 43832.25
1207.420, 43430.94
1208.502, 43698.36
1209.583, 43698.84
1210.665, 43900.00
1211.746, 43925.00
1212.827, 43832.00
1213.908, 43724.00
1214.988, 43784.00
1216.069, 43773.00
1217.149, 44018.00
1218.230, 43961.00
1219.310, 43712.00
1220.390, 43880.48
1221.470, 43744.39
1222.549, 44032.00
1223.629, 43693.00
1224.708, 43954.00
1225.787, 43977.00
1226.866, 43968.00
1227.945, 43955.00
1229.024, 43650.00
1230.103, 44033.00
1231.181, 43413.00
1232.259, 43910.00
1233.337, 43775.20
1234.415, 43727.00
1235.493, 43808.00
1236.571, 43713.00
1237.648, 43767.00
1238.726, 43930.00
1239.803, 43725.00
1240.880, 43751.00
1241.957, 43982.00
1243.034, 43758.00
1244.110, 43963.00
1245.187, 44256.00
1246.263, 43776.00
1247.339, 43616.00
1248.415, 43682.00
1249.491, 43665.00
1250.566, 43653.00
1251.642, 43611.00
1252.717, 43661.37
1253.793, 43634.00
1254.868, 43641.00
1255.943, 43690.00
1257.017, 43427.00
1258.092, 43680.00
1259.166, 43660.00
1260.241, 43328.00
1261.315, 43687.00
1262.389, 43463.00
1263.462, 43607.00
1264.536, 43521.00
1265.610, 43521.00
1266.683, 43683.00
1267.756, 43751.00
1268.829, 43674.00
1269.902, 43414.00
1270.975, 43483.00
1272.048, 43402.00
1273.120, 43625.00
1274.192, 43504.00
1275.264, 43619.00
1276.336, 43689.00
1277.408, 43295.00
1278.480, 43666.00
1279.551, 43327.00
1280.623, 43740.00
1281.694, 43853.00
1282.765, 43695.00
1283.836, 43706.00
1284.907, 43772.00
1285.977, 43789.00
1287.048, 43746.00
1288.118, 43757.00
1289.188, 43759.00
1290.258, 43673.48
1291.328, 43844.00
1292.398, 43528.00
1293.467, 43511.00
1294.537, 43488.00
1295.606, 43585.00
1296.675, 43807.00
1297.744, 43709.00
1298.813, 43507.00
1299.882, 43783.00
1300.950, 43487.00
1302.018, 43493.00
1303.086, 43734.00
1304.155, 43397.00
1305.222, 43742.00
1306.290, 43476.00
1307.358, 44017.00
1308.425, 43640.00
1309.492, 43927.00
1310.559, 43694.00
1311.626, 44008.00
1312.693, 43494.00
1313.760, 44059.00
1314.826, 43999.00
1315.893, 43855.00
1316.959, 44010.00
1318.025, 43861.00
1319.091, 43832.00
1320.157, 43817.84
1321.222, 44046.00
1322.288, 43720.00
1323.353, 43929.00
1324.418, 43924.00
1325.483, 43869.00
1326.548, 43822.00
1327.612, 43729.00
1328.677, 43895.00
1329.741, 43923.00
1330.806, 43553.00
1331.870, 44015.00
1332.934, 43812.68
1333.997, 43546.00
1335.061, 43925.00
1336.124, 43756.00
1337.188, 44064.00
1338.251, 43693.00
1339.314, 43923.00
1340.377, 43858.00
1341.439, 43908.00
1342.502, 43955.00
1343.564, 43939.00
1344.627, 44018.00
1345.689, 43664.00
1346.751, 43933.00
1347.813, 43794.00
1348.874, 44038.00
1349.936, 43791.00
1350.997, 43600.00
1352.058, 43824.00
1353.119, 43690.56
1354.180, 43996.18
1355.241, 44167.41
1356.301, 44211.46
1357.362, 43747.41
1358.422, 43939.46
1359.482, 43868.58
1360.542, 43786.92
1361.602, 44071.31
1362.662, 43681.17
1363.721, 43959.76
1364.781, 43971.40
1365.840, 44105.22
1366.899, 43974.48
1367.958, 43925.45
1369.017, 44141.07
1370.075, 44210.15
1371.134, 44048.96
1372.192, 44190.55
1373.250, 43791.16
1374.308, 43866.49
1375.366, 44146.63
1376.424, 43998.74
1377.481, 44145.16
1378.539, 44179.49
1379.596, 43704.42
1380.653, 44115.26
1381.710, 44142.96
1382.767, 43777.29
1383.824, 44157.77
1384.880, 43818.00
1385.937, 43864.82
1386.993, 43848.00
1388.049, 43876.00
1389.105, 43737.00
1390.161, 43689.00
1391.216, 43994.00
1392.272, 43858.00
1393.327, 43854.00
1394.382, 43838.00
1395.437, 43806.32
1396.492, 43815.34
1397.547, 43786.00
1398.601, 43808.00
1399.656, 43737.00
1400.710, 43701.00
1401.764, 43748.27
1402.818, 43748.00
1403.872, 43823.00
1404.925, 43950.00
1405.979, 43965.00
1407.032, 43992.84
1408.085, 43961.00
1409.139, 43865.00
1410.191, 43808.00
1411.244, 43830.29
1412.297, 43804.00
1413.349, 43832.00
1414.402, 43878.00
1415.454, 43887.52
1416.506, 43888.13
1417.558, 43933.00
1418.609, 43879.00
1419.661, 43855.00
1420.712, 43884.00
1421.764, 43467.00
1422.815, 43761.00
1423.866, 43616.00
1424.916, 43596.00
1425.967, 43974.00
1427.018, 43941.00
1428.068, 44000.30
1429.118, 43751.00
1430.168, 43958.00
1431.218, 43873.00
1432.268, 43756.00
1433.318, 43849.00
1434.367, 43592.00
1435.416, 43929.00
1436.465, 43941.00
1437.514, 44145.00
1438.563, 43807.00
1439.612, 43621.00
1440.661, 44077.00
1441.709, 43735.00
1442.757, 43944.00
1443.805, 44166.00
1444.853, 43531.00
1445.901, 43866.00
1446.949, 44112.00
1447.996, 43870.00
1449.044, 43930.00
1450.091, 43693.00
1451.138, 44059.00
1452.185, 43896.00
1453.232, 43773.00
1454.278, 44032.00
1455.325, 43748.00
1456.371, 44128.00
1457.417, 43883.00
1458.463, 43833.00
1459.509, 43759.00
1460.555, 43816.00
1461.601, 43778.00
1462.646, 43804.16
1463.691, 43777.00
1464.737, 43769.47
1465.782, 43773.00
1466.826, 43753.15
1467.871, 43738.12
1468.916, 43738.00
1469.960, 43744.00
1471.004, 43651.00
1472.048, 43816.00
1473.092, 43903.00
1474.136, 43729.00
1475.180, 43901.00
1476.223, 43900.00
1477.267, 44107.00
1478.310, 43894.00
1479.353, 43882.60
1480.396, 43880.59
1481.439, 43679.00
1482.481, 43838.00
1483.524, 43860.00
1484.566, 43927.00
1485.608, 43826.00
1486.650, 43694.00
1487.692, 43862.00
1488.734, 43648.00
1489.775, 43993.00
1490.817, 43926.00
1491.858, 43835.00
1492.899, 43701.00
1493.940, 43812.00
1494.981, 43922.00
1496.022, 43874.71
1497.062, 43905.09
1498.103, 43781.00
1499.143, 43895.00
1500.183, 43596.00
1501.223, 43711.00
1502.263, 43726.00
1503.302, 43869.00
1504.342, 43867.00
1505.381, 43873.00
1506.420, 43926.00
1507.459, 43925.09
1508.498, 43937.00
1509.537, 43990.00
1510.576, 43975.62
1511.614, 44066.00
1512.652, 44017.00
1513.691, 43739.00
1514.729, 43733.00
1515.767, 43711.00
1516.804, 43828.00
1517.842, 44100.00
1518.879, 43874.00
1519.917, 43825.00
1520.954, 44271.00
1521.991, 43710.00
1523.028, 43831.00
1524.064, 43510.00
1525.101, 43887.00
1526.137, 43727.00
1527.173, 43818.00
1528.210, 43787.00
1529.245, 43932.00
1530.281, 43810.00
1531.317, 44107.00
1532.352, 43778.00
1533.388, 43843.00
1534.423, 43749.00
1535.458, 43901.00
1536.493, 43993.00
1537.528, 43915.79
1538.562, 43902.00
1539.597, 43857.00
1540.631, 43549.36
1541.665, 43855.41
1542.700, 44027.05
1543.733, 44071.51
1544.767, 43607.89
1545.801, 43800.36
1546.834, 43729.89
1547.868, 43648.64
1548.901, 43933.45
1549.934, 43543.73
1550.967, 43822.73
1551.999, 43834.79
1553.032, 43969.02
1554.064, 43838.70
1555.097, 43790.09
1556.129, 44006.12
1557.161, 44075.62
1558.193, 43914.84
1559.224, 44056.84
1560.256, 43657.87
1561.287, 43733.61
1562.318, 44014.16
1563.350, 43866.68
1564.380, 43910.00
1565.411, 43961.00
1566.442, 43879.00
1567.472, 43770.00
1568.503, 43723.00
1569.533, 43922.00
1570.563, 44007.00
##END=



