##NAMES=Ilvaite
##RRUFFID=R050040
##IDEAL CHEMISTRY=CaFe^2+^_2_Fe^3+^OSi_2_O_7_(OH)
##LOCALITY=Capo Calamita, Isle of Elba, Italy
##OWNER=RRUFF
##SOURCE=University of Arizona Mineral Museum
##DESCRIPTION=Brown fragment
##STATUS=The identification of this mineral has been confirmed by X-ray diffraction and chemical analysis
##URL=rruff.info/R050040
##MEASURED CHEMISTRY=Ca_1.00_(Fe^2+^_1.89_Mn_0.10_Mg_0.01_)_Î£=2_Fe^3+^_1.00_OSi_2.00_O_7_(OH); trace amounts of Al; OH estimated by charge balance
##PIN_ID=M00423
##ORIENTATION=Laser parallel to -c* (0 0 -1). Fiducial mark perpendicular to laser is parallel to a [1 0 0]
143.6600, 42719.00
144.8940, 42616.00
146.1280, 42803.00
147.3620, 42962.00
148.5960, 42963.00
149.8300, 43142.00
151.0630, 43125.31
152.2960, 43142.78
153.5300, 42952.00
154.7620, 43116.00
155.9950, 42697.00
157.2280, 42661.00
158.4600, 42697.00
159.6920, 42797.00
160.9250, 43033.00
162.1560, 43599.00
163.3880, 43832.00
164.6200, 44053.00
165.8510, 44226.74
167.0820, 44296.43
168.3130, 44305.00
169.5440, 44201.00
170.7750, 44177.00
172.0050, 43796.00
173.2350, 43890.00
174.4650, 43499.00
175.6950, 43216.00
176.9250, 43176.00
178.1550, 43103.00
179.3840, 42855.00
180.6130, 42850.00
181.8420, 42801.64
183.0710, 42782.00
184.3000, 42851.00
185.5280, 43311.00
186.7570, 43443.00
187.9850, 43627.00
189.2130, 44215.00
190.4400, 44558.00
191.6680, 44608.00
192.8960, 45141.00
194.1230, 45617.00
195.3500, 46148.00
196.5770, 46297.53
197.8030, 46620.79
199.0300, 46429.00
200.2560, 46764.00
201.4830, 46661.00
202.7090, 46270.00
203.9340, 44705.00
205.1600, 43278.00
206.3860, 42438.00
207.6110, 42299.00
208.8360, 42249.00
210.0610, 42478.00
211.2860, 43017.00
212.5100, 42999.00
213.7350, 43139.59
214.9590, 42999.00
216.1830, 43086.00
217.4070, 43021.00
218.6310, 42929.00
219.8540, 43092.00
221.0780, 43229.00
222.3010, 43433.00
223.5240, 43440.00
224.7470, 43543.00
225.9690, 43572.00
227.1920, 43176.00
228.4140, 42879.00
229.6360, 42944.00
230.8580, 42366.00
232.0800, 42023.00
233.3020, 42064.00
234.5230, 41720.00
235.7440, 41451.00
236.9650, 41176.00
238.1860, 40853.00
239.4070, 40960.00
240.6280, 40640.00
241.8480, 40598.00
243.0680, 40364.00
244.2880, 40045.00
245.5080, 40213.00
246.7280, 40411.00
247.9470, 39924.99
249.1660, 40156.37
250.3860, 40293.65
251.6040, 40341.85
252.8230, 40034.25
254.0420, 40186.11
255.2600, 40153.82
256.4790, 40113.99
257.6970, 40330.50
258.9150, 40074.64
260.1320, 40287.06
261.3500, 40312.57
262.5670, 40423.61
263.7840, 40349.39
265.0010, 40332.40
266.2180, 40500.72
267.4350, 40566.43
268.6510, 40470.88
269.8680, 40587.36
271.0840, 40325.01
272.3000, 40395.07
273.5160, 40608.57
274.7310, 40522.31
275.9470, 40642.17
277.1620, 40683.52
278.3770, 40368.15
279.5920, 40673.15
280.8070, 40709.86
282.0210, 40471.08
283.2360, 40754.83
284.4500, 40554.02
285.6640, 40526.17
286.8780, 40628.48
288.0920, 40595.09
289.3050, 40775.62
290.5180, 40750.06
291.7320, 40706.11
292.9450, 40742.49
294.1570, 40551.16
295.3700, 40782.27
296.5830, 40724.83
297.7950, 40810.81
299.0070, 40960.00
300.2190, 41088.00
301.4310, 41186.00
302.6420, 41064.00
303.8540, 40982.03
305.0650, 41059.25
306.2760, 40761.00
307.4870, 41001.00
308.6980, 41294.00
309.9080, 40973.00
311.1190, 41120.00
312.3290, 41138.00
313.5390, 41171.00
314.7490, 41372.00
315.9580, 41452.02
317.1680, 41506.00
318.3770, 41802.00
319.5860, 41938.00
320.7950, 42205.00
322.0040, 42384.00
323.2130, 42602.00
324.4210, 43009.00
325.6290, 42845.00
326.8380, 43216.00
328.0460, 43554.00
329.2530, 43501.00
330.4610, 43572.88
331.6680, 43898.00
332.8760, 43489.00
334.0830, 43460.00
335.2890, 43749.00
336.4960, 43407.68
337.7030, 43237.00
338.9090, 42977.00
340.1150, 42829.00
341.3210, 42275.00
342.5270, 42595.00
343.7330, 42449.00
344.9380, 42051.00
346.1440, 42293.00
347.3490, 42108.00
348.5540, 41845.00
349.7590, 41814.00
350.9630, 41893.00
352.1680, 41930.00
353.3720, 41800.00
354.5760, 41839.53
355.7800, 41941.00
356.9840, 41741.00
358.1870, 41686.00
359.3910, 41578.00
360.5940, 41737.00
361.7970, 41786.00
363.0000, 41861.00
364.2030, 41595.00
365.4050, 41522.00
366.6080, 41437.19
367.8100, 41355.61
369.0120, 41267.00
370.2140, 41325.00
371.4150, 41335.00
372.6170, 41354.00
373.8180, 41218.00
375.0190, 41455.00
376.2200, 41303.00
377.4210, 41291.00
378.6220, 41486.00
379.8220, 41347.00
381.0230, 41465.00
382.2230, 41402.00
383.4230, 41411.00
384.6220, 41279.00
385.8220, 41371.00
387.0220, 41425.00
388.2210, 41319.00
389.4200, 41401.00
390.6190, 41451.93
391.8180, 41234.00
393.0160, 41579.00
394.2150, 41372.00
395.4130, 41310.00
396.6110, 41344.00
397.8090, 41543.00
399.0060, 41448.00
400.2040, 41467.00
401.4010, 41679.00
402.5980, 41323.00
403.7950, 41422.00
404.9920, 41914.00
406.1890, 41702.00
407.3860, 41786.00
408.5820, 41796.00
409.7780, 41788.00
410.9740, 42221.00
412.1700, 41943.39
413.3650, 41837.00
414.5610, 41663.00
415.7560, 42052.00
416.9510, 42019.00
418.1460, 42093.00
419.3410, 42283.00
420.5360, 42272.19
421.7300, 42314.00
422.9240, 42423.00
424.1180, 42481.00
425.3120, 42635.00
426.5060, 42515.00
427.7000, 42586.00
428.8930, 42558.00
430.0860, 42917.00
431.2790, 42929.00
432.4720, 43044.00
433.6650, 42935.00
434.8580, 42940.86
436.0500, 42764.00
437.2420, 42840.00
438.4340, 42706.00
439.6260, 42675.00
440.8180, 42682.00
442.0090, 42720.00
443.2010, 42916.00
444.3920, 43052.00
445.5830, 43008.64
446.7740, 42981.00
447.9640, 42904.00
449.1550, 42831.00
450.3450, 42737.00
451.5350, 43065.00
452.7250, 42848.00
453.9150, 43020.00
455.1050, 43108.00
456.2940, 43064.00
457.4830, 43186.00
458.6720, 43015.00
459.8610, 43397.00
461.0500, 43207.00
462.2390, 43137.00
463.4270, 43474.00
464.6150, 43544.00
465.8040, 43326.00
466.9910, 43380.00
468.1790, 43492.00
469.3670, 43693.00
470.5540, 43593.00
471.7410, 43968.00
472.9280, 43777.00
474.1150, 44096.00
475.3020, 44299.00
476.4890, 44220.33
477.6750, 44388.03
478.8610, 44271.00
480.0470, 44447.00
481.2330, 44604.00
482.4190, 44684.00
483.6040, 44907.00
484.7900, 45020.00
485.9750, 45123.00
487.1600, 45314.00
488.3450, 45709.00
489.5290, 45813.00
490.7140, 46189.00
491.8980, 46492.02
493.0820, 46736.50
494.2660, 47090.00
495.4500, 47302.00
496.6340, 47450.00
497.8170, 47683.00
499.0010, 48202.00
500.1840, 48296.00
501.3670, 48243.00
502.5500, 48624.00
503.7320, 48184.00
504.9150, 48618.00
506.0970, 48033.00
507.2790, 48129.00
508.4610, 47677.00
509.6430, 47591.00
510.8250, 47416.00
512.0060, 47455.00
513.1870, 47138.00
514.3680, 47346.00
515.5490, 47098.00
516.7300, 47147.00
517.9110, 47115.00
519.0910, 47294.00
520.2710, 47212.80
521.4510, 47118.00
522.6310, 47184.00
523.8110, 47142.00
524.9910, 47221.00
526.1700, 47288.73
527.3490, 47528.00
528.5280, 47407.00
529.7070, 47353.00
530.8860, 47266.00
532.0650, 47096.27
533.2430, 47428.00
534.4210, 47030.00
535.5990, 46937.00
536.7770, 47515.00
537.9550, 46582.00
539.1320, 46728.00
540.3100, 46651.00
541.4870, 46645.00
542.6640, 46452.00
543.8410, 46557.00
545.0170, 46404.00
546.1940, 46356.00
547.3700, 46000.00
548.5470, 46155.00
549.7230, 45909.00
550.8980, 45843.00
552.0740, 45880.00
553.2500, 45767.00
554.4250, 45624.00
555.6000, 45562.00
556.7750, 45480.00
557.9500, 45437.00
559.1250, 45057.00
560.2990, 45456.00
561.4730, 45484.00
562.6480, 45115.00
563.8220, 45333.00
564.9950, 45244.00
566.1690, 45165.00
567.3430, 45310.00
568.5160, 45358.00
569.6890, 45260.00
570.8620, 44876.00
572.0350, 45037.00
573.2070, 45031.00
574.3800, 45183.00
575.5520, 44891.00
576.7240, 45376.00
577.8960, 45353.00
579.0680, 45173.00
580.2400, 45338.00
581.4110, 45718.00
582.5830, 45083.00
583.7540, 45045.00
584.9250, 44909.00
586.0950, 44429.00
587.2660, 44203.00
588.4370, 44093.78
589.6070, 43906.59
590.7770, 43905.00
591.9470, 43708.00
593.1170, 43555.00
594.2860, 43255.00
595.4560, 43163.00
596.6250, 43054.35
597.7940, 43011.33
598.9630, 42882.00
600.1320, 42779.88
601.3000, 42786.00
602.4690, 42587.00
603.6370, 42575.00
604.8050, 42587.00
605.9730, 42512.39
607.1410, 42550.00
608.3090, 42515.00
609.4760, 42539.70
610.6430, 42598.00
611.8100, 42431.00
612.9770, 42603.00
614.1440, 42366.00
615.3110, 42204.00
616.4770, 42282.00
617.6430, 42343.00
618.8090, 41965.00
619.9750, 41948.00
621.1410, 41973.00
622.3070, 41951.10
623.4720, 41830.00
624.6370, 42002.00
625.8020, 42377.00
626.9670, 42048.00
628.1320, 42220.72
629.2970, 42173.00
630.4610, 42029.00
631.6250, 42204.00
632.7890, 41912.00
633.9530, 42102.00
635.1170, 41965.00
636.2810, 42004.00
637.4440, 41852.00
638.6070, 41741.00
639.7700, 41803.00
640.9330, 42038.00
642.0960, 41964.00
643.2590, 42000.00
644.4210, 41858.00
645.5830, 41764.00
646.7450, 41815.00
647.9070, 41652.00
649.0690, 41692.00
650.2310, 41778.00
651.3920, 41836.00
652.5530, 41939.00
653.7140, 41910.00
654.8750, 41902.00
656.0360, 41967.00
657.1970, 41799.00
658.3570, 41788.00
659.5170, 41759.00
660.6770, 41634.00
661.8370, 41488.00
662.9970, 41786.00
664.1570, 41835.00
665.3160, 41578.00
666.4750, 41554.00
667.6340, 41371.00
668.7930, 41458.00
669.9520, 41658.00
671.1110, 41750.00
672.2690, 41807.00
673.4270, 41719.00
674.5850, 41760.00
675.7430, 41827.00
676.9010, 41740.00
678.0590, 42007.00
679.2160, 42136.00
680.3730, 41916.00
681.5300, 42116.00
682.6870, 42280.00
683.8440, 41896.00
685.0010, 42139.00
686.1570, 41891.00
687.3130, 41974.00
688.4690, 42096.00
689.6250, 42423.00
690.7810, 42543.00
691.9370, 42488.00
693.0920, 42903.00
694.2470, 42895.00
695.4020, 43273.00
696.5570, 43441.00
697.7120, 43913.00
698.8670, 44269.00
700.0210, 44529.00
701.1750, 44982.00
702.3290, 45251.00
703.4830, 45355.00
704.6370, 45203.00
705.7910, 45127.00
706.9440, 44745.00
708.0970, 44429.00
709.2510, 43955.00
710.4030, 43535.00
711.5560, 43301.00
712.7090, 42944.00
713.8610, 42751.00
715.0140, 42278.00
716.1660, 42156.00
717.3180, 42299.00
718.4690, 42009.00
719.6210, 41812.00
720.7730, 41698.00
721.9240, 41653.00
723.0750, 41552.59
724.2260, 41581.00
725.3770, 41532.00
726.5270, 41660.00
727.6780, 41815.00
728.8280, 41556.00
729.9780, 41737.00
731.1280, 41643.00
732.2780, 41476.00
733.4280, 41543.00
734.5770, 41485.00
735.7260, 41448.52
736.8760, 41417.00
738.0250, 41458.00
739.1730, 41413.00
740.3220, 41512.00
741.4700, 41346.00
742.6190, 41394.00
743.7670, 41491.00
744.9150, 41594.00
746.0630, 41323.00
747.2100, 41392.00
748.3580, 41577.00
749.5050, 41258.00
750.6520, 41453.00
751.7990, 41407.00
752.9460, 41695.00
754.0930, 41573.00
755.2390, 41543.68
756.3860, 41583.04
757.5320, 41389.00
758.6780, 41470.00
759.8240, 41548.00
760.9690, 41442.00
762.1150, 41506.00
763.2600, 41402.00
764.4060, 41637.00
765.5510, 41403.00
766.6950, 41836.00
767.8400, 41804.00
768.9850, 41366.00
770.1290, 41627.00
771.2730, 41469.00
772.4170, 41502.00
773.5610, 41566.00
774.7050, 41516.87
775.8480, 41818.00
776.9920, 41564.00
778.1350, 41573.00
779.2780, 41630.00
780.4210, 41376.00
781.5640, 41405.00
782.7060, 41643.00
783.8490, 41745.00
784.9910, 41467.00
786.1330, 41518.00
787.2750, 41684.00
788.4170, 41810.00
789.5580, 42010.00
790.7000, 41892.00
791.8410, 42077.00
792.9820, 41710.00
794.1230, 41841.00
795.2640, 41866.00
796.4040, 42021.00
797.5450, 42267.00
798.6850, 42251.95
799.8250, 42263.07
800.9650, 42365.00
802.1050, 42200.00
803.2450, 42308.00
804.3840, 42521.00
805.5230, 42367.00
806.6630, 42505.00
807.8020, 42701.00
808.9400, 42821.00
810.0790, 43111.00
811.2170, 42980.00
812.3560, 43000.00
813.4940, 43165.00
814.6320, 43453.00
815.7700, 43442.00
816.9070, 43919.00
818.0450, 43979.00
819.1820, 44441.00
820.3190, 43939.00
821.4560, 43665.00
822.5930, 43739.00
823.7300, 43642.00
824.8670, 43758.00
826.0030, 43316.00
827.1390, 43340.00
828.2750, 43106.00
829.4110, 42770.00
830.5470, 42728.00
831.6820, 42922.00
832.8180, 42919.00
833.9530, 42819.00
835.0880, 42826.34
836.2230, 42535.00
837.3580, 42574.00
838.4920, 42631.00
839.6270, 42375.00
840.7610, 42520.00
841.8950, 42464.49
843.0290, 42424.84
844.1630, 42440.00
845.2960, 42580.00
846.4300, 42466.30
847.5630, 42561.53
848.6960, 42654.00
849.8290, 42710.00
850.9620, 42827.00
852.0940, 42890.54
853.2270, 42911.70
854.3590, 43017.00
855.4910, 42948.00
856.6230, 42949.00
857.7550, 43002.98
858.8870, 43054.48
860.0180, 43106.00
861.1500, 43233.00
862.2810, 43228.32
863.4120, 43043.00
864.5430, 43207.00
865.6730, 43217.00
866.8040, 43091.00
867.9340, 43308.00
869.0640, 43156.52
870.1940, 42967.00
871.3240, 43136.00
872.4540, 43041.00
873.5830, 43298.00
874.7130, 43277.00
875.8420, 43339.29
876.9710, 43067.00
878.1000, 43418.00
879.2290, 43249.00
880.3570, 43215.00
881.4860, 43640.00
882.6140, 43251.00
883.7420, 43314.00
884.8700, 43238.00
885.9980, 43364.00
887.1250, 43351.00
888.2530, 43342.14
889.3800, 43413.53
890.5070, 43352.00
891.6340, 43379.00
892.7610, 43451.00
893.8880, 43203.00
895.0140, 43144.00
896.1400, 43168.87
897.2670, 43151.27
898.3930, 43227.00
899.5180, 43329.00
900.6440, 43392.00
901.7700, 43510.00
902.8950, 43157.00
904.0200, 43400.00
905.1450, 42934.00
906.2700, 43538.00
907.3950, 43091.00
908.5190, 43498.00
909.6440, 43661.00
910.7680, 43449.00
911.8920, 43488.00
913.0160, 43547.00
914.1400, 43564.00
915.2630, 43807.00
916.3870, 43470.00
917.5100, 43678.00
918.6330, 43942.00
919.7560, 43713.00
920.8790, 43775.00
922.0010, 43947.00
923.1240, 43993.74
924.2460, 43939.48
925.3680, 44352.00
926.4900, 43793.00
927.6120, 43895.00
928.7340, 43921.00
929.8550, 44266.00
930.9760, 44240.00
932.0980, 44176.00
933.2190, 44286.00
934.3390, 44474.00
935.4600, 44441.00
936.5810, 44255.00
937.7010, 44126.00
938.8210, 44256.00
939.9410, 44386.00
941.0610, 44183.00
942.1810, 44235.00
943.3010, 44393.00
944.4200, 44362.00
945.5390, 44117.00
946.6580, 44363.00
947.7770, 44245.00
948.8960, 44439.00
950.0150, 44221.00
951.1330, 44285.00
952.2510, 44313.00
953.3690, 44361.00
954.4870, 44217.00
955.6050, 44268.41
956.7230, 44468.00
957.8400, 44305.00
958.9580, 44609.00
960.0750, 44786.00
961.1920, 44576.00
962.3090, 44840.00
963.4250, 44945.00
964.5420, 44984.00
965.6580, 45190.00
966.7740, 45489.00
967.8900, 45294.00
969.0060, 45467.00
970.1220, 45554.00
971.2380, 45873.00
972.3530, 45951.00
973.4680, 46337.00
974.5830, 46554.00
975.6980, 46814.00
976.8130, 46877.00
977.9280, 47048.00
979.0420, 47148.00
980.1560, 47108.00
981.2710, 47195.00
982.3850, 47404.00
983.4980, 47284.00
984.6120, 47245.00
985.7260, 47156.00
986.8390, 46947.00
987.9520, 46941.00
989.0650, 46870.00
990.1780, 46485.00
991.2910, 46461.00
992.4030, 46503.00
993.5160, 46177.70
994.6280, 45844.00
995.7400, 45776.00
996.8520, 45315.00
997.9640, 45170.00
999.0750, 45199.00
1000.187, 45012.00
1001.298, 44838.00
1002.409, 44799.00
1003.520, 44403.00
1004.631, 44936.00
1005.741, 44535.00
1006.852, 44547.00
1007.962, 44208.00
1009.072, 44465.00
1010.182, 44405.00
1011.292, 44295.00
1012.402, 44121.00
1013.511, 44576.00
1014.621, 44034.00
1015.730, 44338.00
1016.839, 44137.00
1017.948, 44169.00
1019.056, 44031.00
1020.165, 44216.00
1021.273, 44252.00
1022.382, 44206.00
1023.490, 43917.00
1024.598, 44368.00
1025.706, 44114.00
1026.813, 44265.00
1027.921, 44075.00
1029.028, 44260.00
1030.135, 44195.00
1031.242, 44392.00
1032.349, 44264.00
1033.456, 44199.00
1034.562, 44134.00
1035.668, 44328.00
1036.775, 44241.00
1037.881, 44320.00
1038.987, 44341.00
1040.092, 44317.00
1041.198, 44329.20
1042.303, 44442.00
1043.408, 44289.00
1044.514, 44461.00
1045.618, 44478.00
1046.723, 44410.00
1047.828, 44284.00
1048.932, 44400.00
1050.037, 44221.00
1051.141, 44357.00
1052.245, 44336.00
1053.349, 44294.84
1054.452, 44507.66
1055.556, 44626.38
1056.659, 44656.03
1057.762, 44329.88
1058.865, 44463.18
1059.968, 44412.35
1061.071, 44353.97
1062.174, 44551.93
1063.276, 44277.54
1064.378, 44471.43
1065.480, 44478.40
1066.582, 44570.92
1067.684, 44478.18
1068.786, 44442.65
1069.887, 44592.45
1070.988, 44639.64
1072.090, 44525.57
1073.191, 44212.00
1074.291, 44273.00
1075.392, 44242.00
1076.493, 44087.00
1077.593, 44541.00
1078.693, 44276.00
1079.793, 44369.00
1080.893, 44547.00
1081.993, 44316.00
1083.092, 44360.00
1084.192, 44278.00
1085.291, 43952.00
1086.390, 44238.00
1087.489, 44367.00
1088.588, 44100.00
1089.686, 44213.00
1090.785, 44288.00
1091.883, 44271.00
1092.981, 44169.00
1094.079, 44259.00
1095.177, 44090.00
1096.275, 44302.00
1097.373, 44325.00
1098.470, 44121.00
1099.567, 44246.97
1100.664, 43809.54
1101.761, 44015.09
1102.858, 44126.52
1103.954, 44148.90
1105.051, 43815.47
1106.147, 43941.49
1107.243, 43883.39
1108.339, 43817.74
1109.435, 44008.43
1110.531, 43726.76
1111.626, 43913.39
1112.722, 43913.08
1113.817, 43998.34
1114.912, 43898.33
1116.007, 43855.54
1117.101, 43998.08
1118.196, 44038.00
1119.290, 43916.68
1120.385, 44007.37
1121.479, 43719.24
1122.573, 43763.54
1123.666, 43951.28
1124.760, 43839.27
1125.853, 43933.36
1126.947, 43948.95
1128.040, 43607.84
1129.133, 43887.09
1130.226, 43898.05
1131.318, 43633.55
1132.411, 43891.55
1133.503, 43665.02
1134.596, 43611.43
1135.688, 43688.01
1136.780, 43628.90
1137.871, 43783.73
1138.963, 43493.00
1140.054, 43635.00
1141.146, 43628.00
1142.237, 43446.00
1143.328, 43689.00
1144.419, 43614.00
1145.509, 43646.00
1146.600, 43591.00
1147.690, 43548.73
1148.780, 43510.00
1149.870, 43493.00
1150.960, 43443.00
1152.050, 43502.00
1153.139, 43316.00
1154.229, 43678.00
1155.318, 43423.00
1156.407, 43431.00
1157.496, 43107.00
1158.585, 43257.00
1159.674, 42985.00
1160.762, 43587.00
1161.850, 43177.00
1162.939, 43592.00
1164.027, 43411.00
1165.114, 43081.00
1166.202, 43325.00
1167.290, 42849.00
1168.377, 43337.00
1169.464, 43322.00
1170.551, 43456.00
1171.638, 43411.00
1172.725, 43400.93
1173.812, 43269.00
1174.898, 43297.00
1175.984, 43150.00
1177.071, 43059.00
1178.157, 43024.00
1179.242, 43012.00
1180.328, 43064.00
1181.414, 43062.30
1182.499, 43190.00
1183.584, 43216.00
1184.669, 43196.00
1185.754, 43465.00
1186.839, 43303.00
1187.924, 43340.00
1189.008, 43361.00
1190.092, 43101.00
1191.177, 43450.00
1192.260, 43086.00
1193.344, 43172.00
1194.428, 43309.00
1195.512, 43079.00
1196.595, 43159.00
1197.678, 43026.00
1198.761, 43135.00
1199.844, 43136.00
1200.927, 43165.00
1202.009, 43165.00
1203.092, 43029.00
1204.174, 43325.00
1205.256, 43119.00
1206.338, 43033.00
1207.420, 43283.00
1208.502, 43231.00
1209.583, 43357.00
1210.665, 43047.00
1211.746, 42856.00
1212.827, 43183.00
1213.908, 43005.81
1214.988, 43074.70
1216.069, 43184.00
1217.149, 43037.00
1218.230, 43251.00
1219.310, 43072.00
1220.390, 43354.00
1221.470, 43277.00
1222.549, 43369.00
1223.629, 42811.24
1224.708, 43036.14
1225.787, 43166.93
1226.866, 43208.66
1227.945, 42894.59
1229.024, 43039.96
1230.103, 43001.21
1231.181, 42954.89
1232.259, 43164.92
1233.337, 42902.59
1234.415, 43108.55
1235.493, 43127.58
1236.571, 43232.16
1237.648, 43151.47
1238.726, 43128.02
1239.803, 43289.87
1240.880, 43349.11
1241.957, 43247.09
1243.034, 43357.11
1244.110, 43088.29
1245.187, 43151.90
1246.263, 43358.92
1247.339, 43266.21
1248.415, 43379.61
1249.491, 43414.50
1250.566, 43092.67
1251.642, 43391.21
1252.717, 43421.46
1253.793, 43176.24
1254.868, 43453.53
1255.943, 43246.28
1257.017, 43211.96
1258.092, 43307.82
1259.166, 43267.98
1260.241, 43442.07
1261.315, 43410.07
1262.389, 43359.65
1263.462, 43389.58
1264.536, 43191.82
1265.610, 43416.48
1266.683, 43352.59
1267.756, 43432.12
1268.829, 43544.18
1269.902, 43407.29
1270.975, 43533.94
1272.048, 43251.91
1273.120, 43311.83
1274.192, 43334.93
1275.264, 43576.60
1276.336, 43296.55
1277.408, 43346.97
1278.480, 43538.10
1279.551, 43532.34
1280.623, 43608.90
1281.694, 43441.75
1282.765, 43503.54
1283.836, 43175.00
1284.907, 43147.00
1285.977, 43544.00
1287.048, 43203.00
1288.118, 43481.00
1289.188, 43355.00
1290.258, 43291.00
1291.328, 43358.00
1292.398, 43330.00
1293.467, 43338.00
1294.537, 43268.00
1295.606, 43286.00
1296.675, 43284.83
1297.744, 43326.00
1298.813, 43314.00
1299.882, 43239.00
1300.950, 43248.00
1302.018, 43395.00
1303.086, 43450.00
1304.155, 43584.00
1305.222, 43545.00
1306.290, 43581.00
1307.358, 43204.00
1308.425, 43700.00
1309.492, 43601.00
1310.559, 43302.00
1311.626, 43454.00
1312.693, 43499.00
1313.760, 43433.00
1314.826, 43406.00
1315.893, 43640.00
1316.959, 43383.00
1318.025, 43495.00
1319.091, 43686.00
1320.157, 43387.00
1321.222, 43479.00
1322.288, 43577.00
1323.353, 43573.00
1324.418, 43362.00
1325.483, 43751.00
1326.548, 43638.00
1327.612, 43463.00
1328.677, 43732.00
1329.741, 43615.00
1330.806, 43555.00
1331.870, 43717.00
1332.934, 43570.09
1333.997, 43646.00
1335.061, 43491.00
1336.124, 43492.00
1337.188, 43531.00
1338.251, 43545.00
1339.314, 43818.00
1340.377, 43483.00
1341.439, 43338.00
1342.502, 43533.00
1343.564, 43644.00
1344.627, 43807.00
1345.689, 43677.00
1346.751, 43766.00
1347.813, 43591.00
1348.874, 43556.00
1349.936, 43419.00
1350.997, 43418.00
1352.058, 43302.00
1353.119, 43426.00
1354.180, 43561.00
1355.241, 43624.00
1356.301, 43741.00
1357.362, 43733.00
1358.422, 43750.40
1359.482, 43636.00
1360.542, 43680.00
1361.602, 43659.00
1362.662, 43573.57
1363.721, 43602.71
1364.781, 43560.00
1365.840, 43645.00
1366.899, 43652.00
1367.958, 43808.00
1369.017, 44003.00
1370.075, 43492.00
1371.134, 43716.16
1372.192, 43559.00
1373.250, 43757.00
1374.308, 43652.00
1375.366, 43840.00
1376.424, 43813.00
1377.481, 43745.00
1378.539, 43614.00
1379.596, 43474.00
1380.653, 43661.00
1381.710, 43689.00
1382.767, 44013.00
1383.824, 43825.00
1384.880, 43852.00
1385.937, 43867.00
1386.993, 43615.00
1388.049, 43902.00
1389.105, 44028.00
1390.161, 43733.00
1391.216, 44031.00
1392.272, 43484.00
1393.327, 43842.00
1394.382, 43844.00
1395.437, 43755.00
1396.492, 44010.00
1397.547, 43903.00
1398.601, 43916.00
1399.656, 43862.00
1400.710, 43832.00
1401.764, 43704.00
1402.818, 43714.79
1403.872, 43809.92
1404.925, 43622.00
1405.979, 44006.00
1407.032, 43847.00
1408.085, 43731.00
1409.139, 44023.00
1410.191, 44042.00
1411.244, 44033.00
1412.297, 43899.00
1413.349, 43730.00
1414.402, 43717.00
1415.454, 43966.00
1416.506, 43880.00
1417.558, 44107.00
1418.609, 44029.64
1419.661, 44068.00
1420.712, 43815.00
1421.764, 44088.00
1422.815, 43858.93
1423.866, 43934.97
1424.916, 44092.00
1425.967, 43956.00
1427.018, 43898.00
1428.068, 43771.00
1429.118, 43873.00
1430.168, 44009.00
1431.218, 44125.00
1432.268, 44148.07
1433.318, 43911.00
1434.367, 44098.00
1435.416, 44096.00
1436.465, 43908.00
1437.514, 44043.00
1438.563, 43970.12
1439.612, 43751.34
1440.661, 43966.47
1441.709, 44087.49
1442.757, 44119.45
1443.805, 43795.60
1444.853, 43931.20
1445.901, 43882.67
1446.949, 43826.60
1447.996, 44026.86
1449.044, 43754.77
1450.091, 43950.96
1451.138, 43960.23
1452.185, 44055.05
1453.232, 43964.60
1454.278, 43931.38
1455.325, 44083.48
1456.371, 44132.97
1457.417, 44021.20
1458.463, 44121.46
1459.509, 43842.89
1460.555, 43896.75
1461.601, 44094.03
1462.646, 43991.57
1463.691, 44095.22
1464.737, 44120.37
1465.782, 43788.80
1466.826, 44077.60
1467.871, 44098.11
1468.916, 43843.15
1469.960, 44110.70
1471.004, 43893.71
1472.048, 43849.67
1473.092, 43935.79
1474.136, 43886.22
1475.180, 44050.57
1476.223, 44008.84
1477.267, 43948.70
1478.310, 43968.91
1479.353, 43761.43
1480.396, 43976.36
1481.439, 43902.75
1482.481, 43972.57
1483.524, 44074.90
1484.566, 43928.29
1485.608, 44045.23
1486.650, 43753.47
1487.692, 43803.69
1488.734, 43817.07
1489.775, 44049.04
1490.817, 43759.28
1491.858, 43799.99
1492.899, 43981.41
1493.940, 43965.95
1494.981, 44032.80
1496.022, 43855.95
1497.062, 43908.05
1498.103, 43897.04
1499.143, 44104.08
1500.183, 44138.98
1501.223, 43966.27
1502.263, 43794.44
1503.302, 44017.18
1504.342, 43865.94
1505.381, 43916.46
1506.420, 43758.61
1507.459, 43780.66
1508.498, 43799.87
1509.537, 43911.31
1510.576, 43743.08
1511.614, 43937.62
1512.652, 43922.49
1513.691, 43969.12
1514.729, 44008.89
1515.767, 43767.29
1516.804, 43756.34
1517.842, 44075.42
1518.879, 43891.19
1519.917, 43808.54
1520.954, 43798.11
1521.991, 44128.49
1523.028, 44142.09
1524.064, 43777.04
1525.101, 44092.40
1526.137, 43989.16
1527.173, 44010.32
1528.210, 43986.09
1529.245, 43975.29
1530.281, 43793.60
1531.317, 43837.12
1532.352, 44063.74
1533.388, 43978.19
1534.423, 44104.76
1535.458, 43844.75
1536.493, 43814.21
1537.528, 43844.57
1538.562, 43897.15
1539.597, 43772.24
1540.631, 44002.29
1541.665, 43995.99
1542.700, 43784.89
1543.733, 43795.96
1544.767, 43770.14
1545.801, 44128.36
1546.834, 43958.57
1547.868, 43751.39
1548.901, 43962.79
1549.934, 44040.03
1550.967, 43935.89
1551.999, 43928.13
1553.032, 43737.52
1554.064, 43827.32
1555.097, 43820.68
1556.129, 43972.93
1557.161, 43783.05
1558.193, 43987.04
1559.224, 43806.34
1560.256, 44026.28
1561.287, 43837.45
1562.318, 44012.75
1563.350, 43753.40
1564.380, 43808.65
1565.411, 43888.84
1566.442, 44049.56
1567.472, 43900.64
1568.503, 44080.47
1569.533, 44068.00
1570.563, 44230.00
##END=



