##NAMES=Ilvaite
##RRUFFID=R050040
##IDEAL CHEMISTRY=CaFe^2+^_2_Fe^3+^OSi_2_O_7_(OH)
##LOCALITY=Capo Calamita, Isle of Elba, Italy
##OWNER=RRUFF
##SOURCE=University of Arizona Mineral Museum
##DESCRIPTION=Brown fragment
##STATUS=The identification of this mineral has been confirmed by X-ray diffraction and chemical analysis
##URL=rruff.info/R050040
##MEASURED CHEMISTRY=Ca_1.00_(Fe^2+^_1.89_Mn_0.10_Mg_0.01_)_Î£=2_Fe^3+^_1.00_OSi_2.00_O_7_(OH); trace amounts of Al; OH estimated by charge balance
##PIN_ID=M00410
##ORIENTATION=Laser parallel to b* (0 1 0). Fiducial mark perpendicular to laser is parallel to c [0 0 1]
143.6600, 48273.00
144.8940, 48226.00
146.1280, 48264.37
147.3620, 48892.00
148.5960, 48813.00
149.8300, 49538.00
151.0630, 50422.00
152.2960, 49753.00
153.5300, 49954.00
154.7620, 49829.00
155.9950, 49024.00
157.2280, 48161.00
158.4600, 47953.00
159.6920, 47856.00
160.9250, 48098.00
162.1560, 48502.00
163.3880, 49002.00
164.6200, 49217.00
165.8510, 49265.00
167.0820, 49330.00
168.3130, 49540.00
169.5440, 49662.00
170.7750, 49475.00
172.0050, 49090.00
173.2350, 48708.00
174.4650, 48524.00
175.6950, 48090.00
176.9250, 48661.00
178.1550, 48256.00
179.3840, 47990.00
180.6130, 47426.00
181.8420, 47513.00
183.0710, 47576.00
184.3000, 47777.00
185.5280, 47963.65
186.7570, 48331.00
187.9850, 48459.00
189.2130, 48782.00
190.4400, 49046.00
191.6680, 49215.00
192.8960, 49390.61
194.1230, 49707.00
195.3500, 49653.00
196.5770, 49625.00
197.8030, 49837.00
199.0300, 50332.00
200.2560, 50904.00
201.4830, 50932.00
202.7090, 49873.00
203.9340, 47896.00
205.1600, 45939.00
206.3860, 45099.07
207.6110, 45304.86
208.8360, 45414.16
210.0610, 45432.16
211.2860, 45085.39
212.5100, 45209.66
213.7350, 45145.15
214.9590, 45072.91
216.1830, 45263.47
217.4070, 44969.77
218.6310, 45156.16
219.8540, 45150.92
221.0780, 45233.38
222.3010, 45125.93
223.5240, 45077.13
224.7470, 45218.32
225.9690, 45254.33
227.1920, 45125.01
228.4140, 45213.07
229.6360, 44912.76
230.8580, 44953.25
232.0800, 45140.77
233.3020, 45021.02
234.5230, 45112.56
235.7440, 45123.63
236.9650, 44769.00
238.1860, 45050.36
239.4070, 45056.68
240.6280, 44780.58
241.8480, 45040.16
243.0680, 44803.02
244.2880, 44743.17
245.5080, 44816.75
246.7280, 44751.24
247.9470, 44905.04
249.1660, 44847.57
250.3860, 44771.22
251.6040, 44794.00
252.8230, 44872.00
254.0420, 45114.00
255.2600, 45046.68
256.4790, 45481.15
257.6970, 45818.96
258.9150, 46065.47
260.1320, 45947.05
261.3500, 46299.81
262.5670, 46463.64
263.7840, 46619.73
265.0010, 47075.00
266.2180, 47097.00
267.4350, 47280.00
268.6510, 47543.00
269.8680, 48027.00
271.0840, 48015.00
272.3000, 48554.77
273.5160, 48521.00
274.7310, 49203.00
275.9470, 49406.00
277.1620, 49227.00
278.3770, 49274.00
279.5920, 49162.14
280.8070, 48834.00
282.0210, 48751.00
283.2360, 48453.00
284.4500, 47984.00
285.6640, 47573.00
286.8780, 47193.00
288.0920, 46660.00
289.3050, 46538.00
290.5180, 46188.00
291.7320, 45999.00
292.9450, 45519.00
294.1570, 45331.00
295.3700, 45305.00
296.5830, 45286.00
297.7950, 45199.00
299.0070, 45152.00
300.2190, 44846.56
301.4310, 45049.49
302.6420, 45155.96
303.8540, 45171.10
305.0650, 44821.50
306.2760, 44942.92
307.4870, 44875.57
308.6980, 44800.48
309.9080, 44988.20
311.1190, 44691.66
312.3290, 44875.21
313.5390, 44867.12
314.7490, 44946.74
315.9580, 45342.00
317.1680, 45373.00
318.3770, 45481.00
319.5860, 45449.00
320.7950, 45855.00
322.0040, 46182.00
323.2130, 46609.00
324.4210, 46887.35
325.6290, 47108.09
326.8380, 47415.00
328.0460, 47482.00
329.2530, 47646.00
330.4610, 47892.00
331.6680, 48160.00
332.8760, 48452.00
334.0830, 48191.00
335.2890, 48272.65
336.4960, 48547.00
337.7030, 48050.00
338.9090, 47976.00
340.1150, 48000.00
341.3210, 47555.00
342.5270, 47567.00
343.7330, 47337.00
344.9380, 47125.00
346.1440, 46927.00
347.3490, 46510.00
348.5540, 46341.00
349.7590, 46178.08
350.9630, 46015.09
352.1680, 45953.00
353.3720, 45912.00
354.5760, 45803.00
355.7800, 45859.00
356.9840, 45725.00
358.1870, 45873.00
359.3910, 45698.00
360.5940, 45493.00
361.7970, 45844.00
363.0000, 45683.00
364.2030, 45628.00
365.4050, 45679.00
366.6080, 45599.76
367.8100, 45383.00
369.0120, 45506.00
370.2140, 45386.00
371.4150, 45162.00
372.6170, 45454.00
373.8180, 45552.00
375.0190, 45272.00
376.2200, 45468.00
377.4210, 45549.00
378.6220, 45469.00
379.8220, 45538.00
381.0230, 45689.00
382.2230, 45573.00
383.4230, 45658.66
384.6220, 45678.00
385.8220, 45695.00
387.0220, 45742.00
388.2210, 45816.00
389.4200, 45847.00
390.6190, 46072.00
391.8180, 45995.00
393.0160, 46311.00
394.2150, 46259.00
395.4130, 46469.00
396.6110, 46370.00
397.8090, 46345.00
399.0060, 46724.00
400.2040, 46640.00
401.4010, 46711.00
402.5980, 46725.00
403.7950, 46881.00
404.9920, 47089.00
406.1890, 47112.00
407.3860, 47103.00
408.5820, 47294.00
409.7780, 47344.00
410.9740, 47313.82
412.1700, 47357.00
413.3650, 47224.00
414.5610, 47219.00
415.7560, 47172.00
416.9510, 47113.25
418.1460, 47189.00
419.3410, 47071.00
420.5360, 47259.00
421.7300, 47331.00
422.9240, 47357.00
424.1180, 47474.00
425.3120, 47630.87
426.5060, 47732.24
427.7000, 47916.00
428.8930, 48016.00
430.0860, 47940.00
431.2790, 48052.00
432.4720, 47604.00
433.6650, 47841.00
434.8580, 48025.00
436.0500, 47842.00
437.2420, 48115.00
438.4340, 47797.91
439.6260, 48171.00
440.8180, 47347.00
442.0090, 47417.00
443.2010, 47488.00
444.3920, 47765.00
445.5830, 47307.00
446.7740, 47545.00
447.9640, 47374.00
449.1550, 47508.00
450.3450, 47268.00
451.5350, 47469.00
452.7250, 47356.00
453.9150, 47306.00
455.1050, 47522.00
456.2940, 47522.00
457.4830, 47408.00
458.6720, 47263.00
459.8610, 47323.00
461.0500, 47410.00
462.2390, 47629.00
463.4270, 47475.00
464.6150, 47596.00
465.8040, 47648.23
466.9910, 47552.00
468.1790, 47723.00
469.3670, 47618.00
470.5540, 47563.00
471.7410, 47818.00
472.9280, 47673.00
474.1150, 47625.00
475.3020, 48171.00
476.4890, 47852.00
477.6750, 48173.00
478.8610, 47934.00
480.0470, 48401.00
481.2330, 48093.00
482.4190, 48167.00
483.6040, 48256.55
484.7900, 48240.09
485.9750, 48303.00
487.1600, 48473.00
488.3450, 48510.00
489.5290, 48669.00
490.7140, 48778.00
491.8980, 48715.00
493.0820, 49068.00
494.2660, 49105.00
495.4500, 49198.00
496.6340, 49803.00
497.8170, 49521.00
499.0010, 49778.00
500.1840, 49710.00
501.3670, 49726.00
502.5500, 49871.00
503.7320, 49604.00
504.9150, 49852.00
506.0970, 49809.00
507.2790, 49682.00
508.4610, 49511.00
509.6430, 49705.00
510.8250, 49746.00
512.0060, 49597.00
513.1870, 49463.00
514.3680, 49653.00
515.5490, 49787.00
516.7300, 49388.00
517.9110, 49723.00
519.0910, 49517.00
520.2710, 49719.00
521.4510, 49277.00
522.6310, 49741.00
523.8110, 49626.00
524.9910, 49793.00
526.1700, 49769.00
527.3490, 49753.00
528.5280, 49699.00
529.7070, 49708.07
530.8860, 49511.00
532.0650, 49714.00
533.2430, 49633.00
534.4210, 49638.00
535.5990, 49202.00
536.7770, 49549.00
537.9550, 49331.00
539.1320, 49225.00
540.3100, 49628.00
541.4870, 49491.00
542.6640, 49071.00
543.8410, 49629.00
545.0170, 49296.00
546.1940, 49319.00
547.3700, 49314.00
548.5470, 49187.00
549.7230, 49459.00
550.8980, 49460.00
552.0740, 49042.00
553.2500, 49079.00
554.4250, 48768.00
555.6000, 49218.00
556.7750, 49257.00
557.9500, 49091.94
559.1250, 48838.00
560.2990, 48778.00
561.4730, 48815.00
562.6480, 48606.00
563.8220, 48672.00
564.9950, 48686.00
566.1690, 48605.00
567.3430, 48773.00
568.5160, 48964.00
569.6890, 48772.00
570.8620, 48759.00
572.0350, 48673.00
573.2070, 48522.00
574.3800, 48717.00
575.5520, 48235.00
576.7240, 48234.00
577.8960, 47967.00
579.0680, 48033.00
580.2400, 48127.00
581.4110, 47971.00
582.5830, 47893.00
583.7540, 47663.00
584.9250, 47534.00
586.0950, 47490.00
587.2660, 47364.00
588.4370, 47186.00
589.6070, 47321.00
590.7770, 47317.00
591.9470, 47478.00
593.1170, 46861.82
594.2860, 47043.43
595.4560, 47128.52
596.6250, 47122.33
597.7940, 46751.39
598.9630, 46851.46
600.1320, 46762.77
601.3000, 46666.38
602.4690, 46832.75
603.6370, 46514.89
604.8050, 46677.12
605.9730, 46647.71
607.1410, 46706.02
608.3090, 46616.00
609.4760, 46730.00
610.6430, 46695.00
611.8100, 46607.00
612.9770, 46535.00
614.1440, 46810.00
615.3110, 46752.00
616.4770, 46315.00
617.6430, 46717.00
618.8090, 46715.00
619.9750, 46262.00
621.1410, 46716.00
622.3070, 46432.00
623.4720, 46651.00
624.6370, 46616.00
625.8020, 46562.00
626.9670, 46644.00
628.1320, 46640.88
629.2970, 46532.00
630.4610, 46694.00
631.6250, 46592.00
632.7890, 46517.00
633.9530, 46579.00
635.1170, 46482.00
636.2810, 46439.00
637.4440, 46183.00
638.6070, 46673.00
639.7700, 46328.00
640.9330, 46690.00
642.0960, 46526.00
643.2590, 46558.00
644.4210, 46473.00
645.5830, 46611.00
646.7450, 46290.00
647.9070, 46321.00
649.0690, 46598.00
650.2310, 46622.00
651.3920, 46354.00
652.5530, 46249.00
653.7140, 46246.00
654.8750, 46169.25
656.0360, 46600.00
657.1970, 46200.00
658.3570, 46395.00
659.5170, 46410.00
660.6770, 46288.00
661.8370, 46419.00
662.9970, 46508.00
664.1570, 46401.00
665.3160, 46256.00
666.4750, 46246.00
667.6340, 46098.00
668.7930, 46219.00
669.9520, 46360.00
671.1110, 46294.00
672.2690, 46681.58
673.4270, 46249.99
674.5850, 47186.00
675.7430, 46430.00
676.9010, 46175.00
678.0590, 46381.04
679.2160, 46783.00
680.3730, 46394.00
681.5300, 46465.00
682.6870, 46727.00
683.8440, 46424.00
685.0010, 46585.00
686.1570, 46953.00
687.3130, 46386.00
688.4690, 46840.00
689.6250, 46514.00
690.7810, 46805.00
691.9370, 46973.00
693.0920, 47241.00
694.2470, 47237.00
695.4020, 47568.00
696.5570, 47606.00
697.7120, 47785.38
698.8670, 47915.00
700.0210, 48110.00
701.1750, 48482.00
702.3290, 48657.00
703.4830, 48750.00
704.6370, 48665.00
705.7910, 48631.00
706.9440, 48221.00
708.0970, 47892.00
709.2510, 47623.00
710.4030, 47620.00
711.5560, 48258.00
712.7090, 48006.00
713.8610, 47512.00
715.0140, 47303.00
716.1660, 46792.00
717.3180, 47171.00
718.4690, 47539.00
719.6210, 47170.00
720.7730, 47039.00
721.9240, 46684.00
723.0750, 46871.00
724.2260, 46464.00
725.3770, 46670.00
726.5270, 46040.00
727.6780, 46397.00
728.8280, 46458.00
729.9780, 46161.00
731.1280, 46497.00
732.2780, 46429.00
733.4280, 46313.00
734.5770, 46444.00
735.7260, 46466.00
736.8760, 46703.00
738.0250, 46447.00
739.1730, 46304.00
740.3220, 46569.00
741.4700, 46532.00
742.6190, 46310.00
743.7670, 46608.00
744.9150, 46600.00
746.0630, 46739.00
747.2100, 46747.00
748.3580, 46647.00
749.5050, 46587.00
750.6520, 46614.00
751.7990, 46564.00
752.9460, 46649.00
754.0930, 46467.38
755.2390, 46848.00
756.3860, 46304.00
757.5320, 46420.00
758.6780, 46758.00
759.8240, 46708.00
760.9690, 46681.00
762.1150, 46693.00
763.2600, 46726.00
764.4060, 46707.00
765.5510, 46805.00
766.6950, 46799.90
767.8400, 46751.59
768.9850, 46787.00
770.1290, 46680.00
771.2730, 46538.00
772.4170, 46625.00
773.5610, 46477.00
774.7050, 46743.00
775.8480, 46660.00
776.9920, 46855.00
778.1350, 47141.00
779.2780, 46712.00
780.4210, 46572.00
781.5640, 46899.00
782.7060, 46915.00
783.8490, 46642.00
784.9910, 46689.00
786.1330, 46874.00
787.2750, 46767.00
788.4170, 46864.00
789.5580, 46746.00
790.7000, 46976.00
791.8410, 46725.00
792.9820, 46686.00
794.1230, 46833.00
795.2640, 46926.00
796.4040, 47142.00
797.5450, 47012.00
798.6850, 47198.73
799.8250, 47283.22
800.9650, 47284.00
802.1050, 47463.00
803.2450, 47284.00
804.3840, 47248.00
805.5230, 47411.00
806.6630, 47134.00
807.8020, 47379.00
808.9400, 47162.00
810.0790, 47371.00
811.2170, 47351.00
812.3560, 47483.00
813.4940, 47337.00
814.6320, 47470.00
815.7700, 47426.64
816.9070, 47532.00
818.0450, 47420.00
819.1820, 47565.00
820.3190, 47646.00
821.4560, 47409.00
822.5930, 47691.00
823.7300, 47448.00
824.8670, 47484.00
826.0030, 47248.00
827.1390, 47612.00
828.2750, 47832.00
829.4110, 47412.00
830.5470, 47201.00
831.6820, 47386.00
832.8180, 47516.00
833.9530, 47163.00
835.0880, 48303.00
836.2230, 47609.00
837.3580, 47611.00
838.4920, 48133.00
839.6270, 47949.00
840.7610, 47756.00
841.8950, 47610.00
843.0290, 47316.00
844.1630, 47389.74
845.2960, 47391.00
846.4300, 47601.00
847.5630, 47504.00
848.6960, 47781.00
849.8290, 47691.00
850.9620, 47322.00
852.0940, 47845.00
853.2270, 47405.00
854.3590, 47862.00
855.4910, 47759.67
856.6230, 48191.00
857.7550, 47730.00
858.8870, 47848.00
860.0180, 47992.00
861.1500, 47611.00
862.2810, 47555.00
863.4120, 47608.22
864.5430, 47973.00
865.6730, 47794.00
866.8040, 47827.00
867.9340, 48087.00
869.0640, 48035.00
870.1940, 48136.00
871.3240, 47792.00
872.4540, 48129.00
873.5830, 47997.00
874.7130, 48210.00
875.8420, 48337.00
876.9710, 48049.00
878.1000, 48201.00
879.2290, 49346.00
880.3570, 48725.99
881.4860, 49077.00
882.6140, 48406.00
883.7420, 48408.00
884.8700, 48452.00
885.9980, 48671.00
887.1250, 48635.00
888.2530, 48576.00
889.3800, 48733.00
890.5070, 48593.00
891.6340, 48933.00
892.7610, 48481.00
893.8880, 48441.00
895.0140, 48730.00
896.1400, 48667.00
897.2670, 48390.00
898.3930, 48410.00
899.5180, 48501.00
900.6440, 48390.00
901.7700, 48516.00
902.8950, 48628.00
904.0200, 48578.00
905.1450, 48467.00
906.2700, 48503.00
907.3950, 48365.00
908.5190, 48440.00
909.6440, 48496.02
910.7680, 48359.44
911.8920, 48632.00
913.0160, 48404.00
914.1400, 48301.00
915.2630, 48844.00
916.3870, 48086.00
917.5100, 48655.00
918.6330, 48521.00
919.7560, 49459.00
920.8790, 48908.00
922.0010, 48891.00
923.1240, 48497.00
924.2460, 48546.83
925.3680, 48801.00
926.4900, 48909.00
927.6120, 48543.00
928.7340, 49046.00
929.8550, 48574.00
930.9760, 49182.00
932.0980, 48747.00
933.2190, 49250.00
934.3390, 49076.69
935.4600, 49580.00
936.5810, 48919.00
937.7010, 48764.00
938.8210, 48949.00
939.9410, 48732.00
941.0610, 49085.00
942.1810, 48808.00
943.3010, 48919.00
944.4200, 49078.00
945.5390, 49075.00
946.6580, 49179.00
947.7770, 48989.00
948.8960, 49043.00
950.0150, 49060.00
951.1330, 49179.00
952.2510, 48929.00
953.3690, 48903.00
954.4870, 49165.00
955.6050, 49189.00
956.7230, 49321.00
957.8400, 49389.90
958.9580, 49446.63
960.0750, 49433.00
961.1920, 49493.00
962.3090, 49458.00
963.4250, 49508.18
964.5420, 49575.00
965.6580, 49592.00
966.7740, 49569.00
967.8900, 49621.00
969.0060, 49663.00
970.1220, 50513.00
971.2380, 50978.00
972.3530, 51394.00
973.4680, 51394.00
974.5830, 50421.00
975.6980, 50119.00
976.8130, 51255.00
977.9280, 50290.00
979.0420, 50562.00
980.1560, 50328.00
981.2710, 50329.00
982.3850, 50488.00
983.4980, 50369.00
984.6120, 50595.00
985.7260, 50691.00
986.8390, 50210.00
987.9520, 50893.00
989.0650, 50625.00
990.1780, 49969.00
991.2910, 50121.00
992.4030, 49880.00
993.5160, 49738.00
994.6280, 49998.00
995.7400, 49666.00
996.8520, 49858.00
997.9640, 49507.00
999.0750, 49534.39
1000.187, 49517.33
1001.298, 49500.00
1002.409, 49510.00
1003.520, 49506.00
1004.631, 49555.00
1005.741, 49515.00
1006.852, 49502.00
1007.962, 49600.00
1009.072, 50244.00
1010.182, 49717.00
1011.292, 49606.00
1012.402, 50282.00
1013.511, 49587.00
1014.621, 49448.00
1015.730, 49377.00
1016.839, 49764.00
1017.948, 49870.00
1019.056, 49655.00
1020.165, 49190.00
1021.273, 49379.00
1022.382, 49543.00
1023.490, 49336.00
1024.598, 49384.00
1025.706, 49382.00
1026.813, 49295.00
1027.921, 49267.00
1029.028, 49310.15
1030.135, 49383.00
1031.242, 49395.00
1032.349, 49478.00
1033.456, 49477.00
1034.562, 49266.00
1035.668, 49813.00
1036.775, 49555.00
1037.881, 49435.00
1038.987, 49653.00
1040.092, 49472.00
1041.198, 49726.00
1042.303, 49602.00
1043.408, 49701.14
1044.514, 49733.27
1045.618, 49794.00
1046.723, 49765.00
1047.828, 49638.00
1048.932, 49674.00
1050.037, 49576.00
1051.141, 49694.00
1052.245, 49674.00
1053.349, 49755.00
1054.452, 49654.00
1055.556, 49615.00
1056.659, 49592.00
1057.762, 49831.00
1058.865, 49941.00
1059.968, 50413.00
1061.071, 50024.00
1062.174, 49981.00
1063.276, 49599.00
1064.378, 49823.00
1065.480, 49747.00
1066.582, 50211.00
1067.684, 49972.87
1068.786, 50077.00
1069.887, 49826.00
1070.988, 49736.00
1072.090, 50034.00
1073.191, 49477.00
1074.291, 49911.00
1075.392, 49745.00
1076.493, 49736.00
1077.593, 49786.00
1078.693, 49772.02
1079.793, 49682.00
1080.893, 49950.00
1081.993, 49595.00
1083.092, 49775.00
1084.192, 50032.00
1085.291, 49602.00
1086.390, 49924.00
1087.489, 49676.00
1088.588, 49642.00
1089.686, 49691.00
1090.785, 49688.00
1091.883, 49966.00
1092.981, 50078.00
1094.079, 49790.00
1095.177, 50075.00
1096.275, 50022.00
1097.373, 49796.00
1098.470, 49800.00
1099.567, 49689.00
1100.664, 49767.00
1101.761, 49739.00
1102.858, 49612.00
1103.954, 49846.00
1105.051, 49477.00
1106.147, 49721.00
1107.243, 49570.00
1108.339, 49587.00
1109.435, 49749.00
1110.531, 49737.00
1111.626, 49914.00
1112.722, 49853.30
1113.817, 49770.00
1114.912, 49684.00
1116.007, 49748.00
1117.101, 49546.00
1118.196, 49918.00
1119.290, 49726.00
1120.385, 49847.00
1121.479, 49724.00
1122.573, 49549.00
1123.666, 49792.00
1124.760, 49824.00
1125.853, 49739.00
1126.947, 49536.00
1128.040, 49439.00
1129.133, 49209.00
1130.226, 49522.00
1131.318, 49545.00
1132.411, 49790.00
1133.503, 49580.00
1134.596, 49023.00
1135.688, 49013.00
1136.780, 49241.00
1137.871, 49510.00
1138.963, 49061.00
1140.054, 49036.00
1141.146, 49283.00
1142.237, 49470.00
1143.328, 49310.00
1144.419, 49323.00
1145.509, 49035.00
1146.600, 49126.00
1147.690, 48759.00
1148.780, 49314.00
1149.870, 49024.00
1150.960, 49252.00
1152.050, 49019.00
1153.139, 48946.00
1154.229, 49275.00
1155.318, 48959.00
1156.407, 49150.00
1157.496, 49226.00
1158.585, 49165.00
1159.674, 49162.00
1160.762, 48873.00
1161.850, 49034.00
1162.939, 49005.96
1164.027, 48945.74
1165.114, 49115.00
1166.202, 49018.00
1167.290, 48965.00
1168.377, 49187.00
1169.464, 48686.00
1170.551, 49054.00
1171.638, 48874.00
1172.725, 48892.00
1173.812, 49041.00
1174.898, 48946.00
1175.984, 49001.00
1177.071, 48663.00
1178.157, 49253.00
1179.242, 48706.00
1180.328, 48927.00
1181.414, 49033.00
1182.499, 48964.00
1183.584, 49068.00
1184.669, 48972.00
1185.754, 49173.00
1186.839, 49039.00
1187.924, 49039.00
1189.008, 48872.00
1190.092, 48933.00
1191.177, 49121.00
1192.260, 49001.00
1193.344, 49086.00
1194.428, 48665.00
1195.512, 48941.00
1196.595, 48597.00
1197.678, 48985.00
1198.761, 49004.00
1199.844, 48851.00
1200.927, 48746.00
1202.009, 48952.00
1203.092, 48823.00
1204.174, 48921.00
1205.256, 48845.00
1206.338, 48931.00
1207.420, 48957.51
1208.502, 49011.00
1209.583, 49043.00
1210.665, 48856.00
1211.746, 48885.00
1212.827, 48898.00
1213.908, 48946.00
1214.988, 48998.00
1216.069, 49007.55
1217.149, 49026.00
1218.230, 49028.00
1219.310, 48933.00
1220.390, 48901.00
1221.470, 48770.00
1222.549, 48747.00
1223.629, 48641.00
1224.708, 48737.00
1225.787, 48641.00
1226.866, 48693.00
1227.945, 48663.55
1229.024, 48881.00
1230.103, 48673.00
1231.181, 48874.00
1232.259, 49048.00
1233.337, 48800.00
1234.415, 48440.00
1235.493, 48949.00
1236.571, 48883.00
1237.648, 49096.00
1238.726, 48884.00
1239.803, 48840.00
1240.880, 48831.00
1241.957, 48828.00
1243.034, 48858.24
1244.110, 49052.00
1245.187, 48861.00
1246.263, 48958.00
1247.339, 48759.00
1248.415, 49016.00
1249.491, 48829.00
1250.566, 48907.00
1251.642, 48987.00
1252.717, 48680.00
1253.793, 49051.00
1254.868, 48859.00
1255.943, 48923.00
1257.017, 48922.00
1258.092, 48922.00
1259.166, 48938.90
1260.241, 48878.00
1261.315, 48916.00
1262.389, 48848.00
1263.462, 48791.00
1264.536, 48926.00
1265.610, 49149.00
1266.683, 49118.00
1267.756, 49161.00
1268.829, 49042.00
1269.902, 49167.00
1270.975, 48645.00
1272.048, 48948.00
1273.120, 48826.00
1274.192, 48802.00
1275.264, 48884.00
1276.336, 48917.00
1277.408, 48873.00
1278.480, 49092.00
1279.551, 48863.00
1280.623, 48940.00
1281.694, 48788.00
1282.765, 49137.00
1283.836, 48826.00
1284.907, 49051.00
1285.977, 49125.00
1287.048, 48875.00
1288.118, 49033.00
1289.188, 49062.00
1290.258, 49016.00
1291.328, 49090.00
1292.398, 48878.00
1293.467, 49225.00
1294.537, 48875.00
1295.606, 48949.00
1296.675, 49068.00
1297.744, 49227.00
1298.813, 49237.67
1299.882, 49245.01
1300.950, 49219.00
1302.018, 49175.00
1303.086, 49190.66
1304.155, 49206.00
1305.222, 49185.00
1306.290, 49301.00
1307.358, 49281.96
1308.425, 49361.23
1309.492, 49229.00
1310.559, 49314.00
1311.626, 49241.00
1312.693, 49248.68
1313.760, 49235.00
1314.826, 49299.00
1315.893, 49335.78
1316.959, 49420.00
1318.025, 49317.00
1319.091, 49627.00
1320.157, 49170.00
1321.222, 49060.00
1322.288, 49246.00
1323.353, 49192.00
1324.418, 49237.00
1325.483, 49296.00
1326.548, 49055.00
1327.612, 49394.00
1328.677, 49401.00
1329.741, 49175.00
1330.806, 49180.00
1331.870, 49155.22
1332.934, 49396.00
1333.997, 49224.00
1335.061, 49207.00
1336.124, 49350.00
1337.188, 49315.00
1338.251, 49312.00
1339.314, 49443.00
1340.377, 49296.00
1341.439, 49283.94
1342.502, 49287.36
1343.564, 49287.00
1344.627, 49181.00
1345.689, 49193.12
1346.751, 49218.50
1347.813, 49176.00
1348.874, 49364.00
1349.936, 49451.00
1350.997, 49622.00
1352.058, 49285.00
1353.119, 49499.00
1354.180, 49372.00
1355.241, 49249.00
1356.301, 49419.00
1357.362, 49311.00
1358.422, 49119.00
1359.482, 49168.00
1360.542, 49044.63
1361.602, 49448.00
1362.662, 49041.00
1363.721, 49409.00
1364.781, 49664.00
1365.840, 49515.00
1366.899, 49468.00
1367.958, 49384.00
1369.017, 49241.00
1370.075, 49478.00
1371.134, 49272.00
1372.192, 49710.00
1373.250, 49468.00
1374.308, 49505.00
1375.366, 49298.00
1376.424, 49476.00
1377.481, 49254.00
1378.539, 49364.00
1379.596, 49410.00
1380.653, 49598.00
1381.710, 49388.00
1382.767, 49550.00
1383.824, 49419.00
1384.880, 49332.00
1385.937, 49521.00
1386.993, 49613.00
1388.049, 49804.00
1389.105, 49431.00
1390.161, 49437.00
1391.216, 49225.00
1392.272, 49117.00
1393.327, 49659.00
1394.382, 49546.00
1395.437, 49878.00
1396.492, 49456.00
1397.547, 49457.00
1398.601, 49657.00
1399.656, 49467.00
1400.710, 49720.00
1401.764, 49716.00
1402.818, 49277.00
1403.872, 49395.00
1404.925, 49575.00
1405.979, 49506.00
1407.032, 49469.00
1408.085, 49604.00
1409.139, 49417.00
1410.191, 49327.00
1411.244, 49313.00
1412.297, 49710.00
1413.349, 49564.00
1414.402, 49636.00
1415.454, 49580.00
1416.506, 49486.00
1417.558, 49721.00
1418.609, 49399.00
1419.661, 49533.00
1420.712, 49680.00
1421.764, 49760.00
1422.815, 49804.00
1423.866, 49432.00
1424.916, 49376.00
1425.967, 49497.00
1427.018, 49472.00
1428.068, 49504.73
1429.118, 49556.53
1430.168, 49553.92
1431.218, 49591.00
1432.268, 49608.00
1433.318, 49384.09
1434.367, 49611.83
1435.416, 49743.09
1436.465, 49783.04
1437.514, 49458.23
1438.563, 49604.44
1439.612, 49561.88
1440.661, 49511.58
1441.709, 49724.07
1442.757, 49452.31
1443.805, 49660.63
1444.853, 49677.32
1445.901, 49781.71
1446.949, 49696.17
1447.996, 49669.29
1449.044, 49832.40
1450.091, 49890.31
1451.138, 49782.91
1452.185, 49892.87
1453.232, 49614.46
1454.278, 49676.84
1455.325, 49886.27
1456.371, 49788.41
1457.417, 49901.83
1458.463, 49934.79
1459.509, 49602.04
1460.555, 49905.29
1461.601, 49933.48
1462.646, 49679.26
1463.691, 49960.71
1464.737, 49745.43
1465.782, 49707.44
1466.826, 49802.88
1467.871, 49759.23
1468.916, 49705.00
1469.960, 49681.00
1471.004, 49561.00
1472.048, 49642.00
1473.092, 49568.00
1474.136, 49592.99
1475.180, 49667.00
1476.223, 49559.00
1477.267, 49715.00
1478.310, 49518.00
1479.353, 49862.00
1480.396, 49702.00
1481.439, 49710.00
1482.481, 49878.00
1483.524, 49629.00
1484.566, 49574.00
1485.608, 49934.00
1486.650, 49447.00
1487.692, 49684.00
1488.734, 49607.00
1489.775, 49777.00
1490.817, 49819.53
1491.858, 49544.00
1492.899, 49886.00
1493.940, 49689.00
1494.981, 49654.00
1496.022, 49775.00
1497.062, 49544.00
1498.103, 49622.60
1499.143, 49886.00
1500.183, 49417.00
1501.223, 49763.00
1502.263, 49271.00
1503.302, 49534.00
1504.342, 49865.00
1505.381, 49844.00
1506.420, 49536.00
1507.459, 49541.00
1508.498, 49687.00
1509.537, 49573.00
1510.576, 49613.00
1511.614, 49833.00
1512.652, 49594.75
1513.691, 50058.00
1514.729, 49433.00
1515.767, 49612.00
1516.804, 49879.00
1517.842, 49335.00
1518.879, 49813.00
1519.917, 49707.00
1520.954, 49372.00
1521.991, 49647.00
1523.028, 49396.00
1524.064, 49833.00
1525.101, 49779.00
1526.137, 49962.00
1527.173, 49869.00
1528.210, 49561.00
1529.245, 49656.00
1530.281, 49494.00
1531.317, 49634.00
1532.352, 49528.00
1533.388, 49669.00
1534.423, 49599.00
1535.458, 49602.11
1536.493, 49555.00
1537.528, 49580.00
1538.562, 49526.00
1539.597, 49507.00
1540.631, 49475.07
1541.665, 49699.74
1542.700, 49827.92
1543.733, 49864.80
1544.767, 49536.91
1545.801, 49680.04
1546.834, 49634.41
1547.868, 49581.04
1548.901, 49790.46
1549.934, 49515.62
1550.967, 49720.88
1551.999, 49734.48
1553.032, 49835.80
1554.064, 49747.19
1555.097, 49717.25
1556.129, 49877.29
1557.161, 49932.13
1558.193, 49821.66
1559.224, 49928.54
1560.256, 49647.07
1561.287, 49706.39
1562.318, 49912.75
1563.350, 49811.82
1564.380, 49922.18
1565.411, 49952.07
1566.442, 49353.00
1567.472, 49572.00
1568.503, 49599.00
1569.533, 49492.00
1570.563, 49561.00
##END=



