##NAMES=Ilvaite
##RRUFFID=R050040
##IDEAL CHEMISTRY=CaFe^2+^_2_Fe^3+^OSi_2_O_7_(OH)
##LOCALITY=Capo Calamita, Isle of Elba, Italy
##OWNER=RRUFF
##SOURCE=University of Arizona Mineral Museum
##DESCRIPTION=Brown fragment
##STATUS=The identification of this mineral has been confirmed by X-ray diffraction and chemical analysis
##URL=rruff.info/R050040
##MEASURED CHEMISTRY=Ca_1.00_(Fe^2+^_1.89_Mn_0.10_Mg_0.01_)_Î£=2_Fe^3+^_1.00_OSi_2.00_O_7_(OH); trace amounts of Al; OH estimated by charge balance
##PIN_ID=M00410
##ORIENTATION=Laser parallel to b* (0 1 0). Fiducial mark perpendicular to laser is parallel to c [0 0 1]
132.5420, 49675.00
133.7780, 49557.00
135.0140, 50047.00
136.2500, 49981.00
137.4850, 50807.00
138.7200, 51592.00
139.9550, 51153.00
141.1900, 50655.00
142.4250, 50485.00
143.6600, 51343.00
144.8940, 50712.00
146.1280, 50972.00
147.3620, 50836.00
148.5960, 50797.00
149.8300, 51310.00
151.0630, 51674.00
152.2960, 51218.00
153.5300, 51322.00
154.7620, 51173.00
155.9950, 50414.00
157.2280, 51459.00
158.4600, 49811.00
159.6920, 49635.00
160.9250, 49853.00
162.1560, 50144.00
163.3880, 50527.00
164.6200, 50479.00
165.8510, 50233.00
167.0820, 49754.00
168.3130, 50210.00
169.5440, 50221.00
170.7750, 50347.00
172.0050, 49550.00
173.2350, 49479.00
174.4650, 49228.00
175.6950, 49634.00
176.9250, 49868.00
178.1550, 49806.00
179.3840, 49940.00
180.6130, 49631.00
181.8420, 49473.00
183.0710, 50026.00
184.3000, 49803.00
185.5280, 49875.00
186.7570, 50054.00
187.9850, 49594.00
189.2130, 49769.00
190.4400, 49933.00
191.6680, 50132.00
192.8960, 49806.00
194.1230, 49952.00
195.3500, 49891.00
196.5770, 49490.00
197.8030, 49286.00
199.0300, 49313.00
200.2560, 49941.00
201.4830, 49736.00
202.7090, 48662.00
203.9340, 46436.00
205.1600, 45067.00
206.3860, 44181.00
207.6110, 44055.00
208.8360, 43904.00
210.0610, 43608.00
211.2860, 43357.00
212.5100, 43626.00
213.7350, 43699.00
214.9590, 43218.00
216.1830, 42922.00
217.4070, 42691.00
218.6310, 42738.00
219.8540, 42562.00
221.0780, 42643.00
222.3010, 42485.00
223.5240, 42373.00
224.7470, 42404.00
225.9690, 42210.00
227.1920, 42276.00
228.4140, 42189.00
229.6360, 42278.00
230.8580, 42091.00
232.0800, 41913.00
233.3020, 41926.00
234.5230, 41779.88
235.7440, 41931.00
236.9650, 41656.00
238.1860, 41651.00
239.4070, 41622.00
240.6280, 41289.00
241.8480, 41594.00
243.0680, 41214.00
244.2880, 40991.00
245.5080, 41210.00
246.7280, 41229.00
247.9470, 41050.00
249.1660, 41531.00
250.3860, 41135.00
251.6040, 40944.58
252.8230, 41214.10
254.0420, 41390.24
255.2600, 41477.98
256.4790, 41212.75
257.6970, 41403.31
258.9150, 41411.20
260.1320, 41411.55
261.3500, 41666.27
262.5670, 41452.29
263.7840, 41702.94
265.0010, 41809.00
266.2180, 41916.17
267.4350, 42272.16
268.6510, 42534.65
269.8680, 42708.90
271.0840, 42530.03
272.3000, 42806.99
273.5160, 42901.27
274.7310, 42987.95
275.9470, 42955.00
277.1620, 43135.00
278.3770, 43432.00
279.5920, 43099.00
280.8070, 43249.00
282.0210, 43266.00
283.2360, 43209.00
284.4500, 42283.00
285.6640, 42453.00
286.8780, 41718.00
288.0920, 41775.00
289.3050, 41680.00
290.5180, 41448.00
291.7320, 41250.00
292.9450, 40954.00
294.1570, 40891.00
295.3700, 40757.00
296.5830, 40612.00
297.7950, 40756.00
299.0070, 40555.00
300.2190, 40637.00
301.4310, 40283.00
302.6420, 40652.00
303.8540, 40367.00
305.0650, 40598.00
306.2760, 40589.00
307.4870, 40482.00
308.6980, 40426.00
309.9080, 40827.00
311.1190, 40595.00
312.3290, 40669.00
313.5390, 40483.00
314.7490, 40455.00
315.9580, 40561.00
317.1680, 40814.00
318.3770, 40767.00
319.5860, 41121.00
320.7950, 41127.00
322.0040, 41599.00
323.2130, 41643.00
324.4210, 41712.00
325.6290, 41836.00
326.8380, 42392.00
328.0460, 42648.00
329.2530, 42639.61
330.4610, 42935.00
331.6680, 42561.00
332.8760, 42622.00
334.0830, 42624.00
335.2890, 42363.00
336.4960, 43026.00
337.7030, 42253.00
338.9090, 42128.00
340.1150, 42025.00
341.3210, 42723.00
342.5270, 41418.00
343.7330, 41717.00
344.9380, 41056.00
346.1440, 41062.00
347.3490, 40912.00
348.5540, 40807.00
349.7590, 40671.00
350.9630, 40524.00
352.1680, 40335.00
353.3720, 40772.00
354.5760, 40670.00
355.7800, 40484.00
356.9840, 40485.00
358.1870, 40209.00
359.3910, 40097.00
360.5940, 40489.00
361.7970, 40149.56
363.0000, 40337.00
364.2030, 40058.00
365.4050, 39668.00
366.6080, 39948.00
367.8100, 39600.00
369.0120, 39859.00
370.2140, 39669.00
371.4150, 39268.00
372.6170, 39531.00
373.8180, 39747.00
375.0190, 39376.00
376.2200, 39790.00
377.4210, 39534.16
378.6220, 39553.00
379.8220, 39277.00
381.0230, 39500.00
382.2230, 39479.00
383.4230, 39388.00
384.6220, 39476.00
385.8220, 39488.40
387.0220, 39471.00
388.2210, 39587.00
389.4200, 39727.00
390.6190, 39700.47
391.8180, 40204.00
393.0160, 40057.00
394.2150, 39580.00
395.4130, 39988.00
396.6110, 39773.00
397.8090, 39844.00
399.0060, 39944.00
400.2040, 39860.24
401.4010, 39754.00
402.5980, 39895.00
403.7950, 40098.00
404.9920, 40195.00
406.1890, 40461.00
407.3860, 40314.11
408.5820, 40261.00
409.7780, 39972.00
410.9740, 40259.00
412.1700, 40037.00
413.3650, 40338.00
414.5610, 40441.00
415.7560, 40425.00
416.9510, 40350.00
418.1460, 40340.00
419.3410, 40345.40
420.5360, 40376.55
421.7300, 40361.00
422.9240, 40433.00
424.1180, 40393.00
425.3120, 40260.43
426.5060, 40459.42
427.7000, 40471.00
428.8930, 40611.00
430.0860, 40720.00
431.2790, 40746.58
432.4720, 40769.36
433.6650, 40833.00
434.8580, 40667.00
436.0500, 40691.00
437.2420, 40549.00
438.4340, 40469.00
439.6260, 40766.00
440.8180, 40388.00
442.0090, 40622.00
443.2010, 40844.00
444.3920, 40475.00
445.5830, 40640.00
446.7740, 40520.00
447.9640, 40588.00
449.1550, 40770.00
450.3450, 40522.00
451.5350, 40718.00
452.7250, 40577.00
453.9150, 40614.00
455.1050, 40693.00
456.2940, 40648.00
457.4830, 40802.00
458.6720, 40754.00
459.8610, 40769.00
461.0500, 40832.69
462.2390, 40815.00
463.4270, 40899.00
464.6150, 40811.00
465.8040, 40831.00
466.9910, 41044.00
468.1790, 40908.00
469.3670, 40989.00
470.5540, 41003.00
471.7410, 41010.00
472.9280, 41088.00
474.1150, 41268.00
475.3020, 40956.00
476.4890, 41261.00
477.6750, 41201.00
478.8610, 41706.00
480.0470, 41830.89
481.2330, 41862.33
482.4190, 42241.00
483.6040, 41828.00
484.7900, 41847.00
485.9750, 41674.00
487.1600, 41693.00
488.3450, 41699.00
489.5290, 41840.00
490.7140, 41788.00
491.8980, 42069.00
493.0820, 42162.00
494.2660, 42022.00
495.4500, 42629.00
496.6340, 42685.00
497.8170, 42545.00
499.0010, 42537.00
500.1840, 42903.00
501.3670, 42840.00
502.5500, 42768.00
503.7320, 43148.00
504.9150, 43017.00
506.0970, 42836.00
507.2790, 42928.00
508.4610, 42670.00
509.6430, 42843.00
510.8250, 42439.00
512.0060, 42737.00
513.1870, 42747.00
514.3680, 42641.00
515.5490, 42374.00
516.7300, 42577.00
517.9110, 42868.00
519.0910, 42594.00
520.2710, 42585.00
521.4510, 42867.00
522.6310, 42604.00
523.8110, 42700.00
524.9910, 42707.00
526.1700, 42793.00
527.3490, 42681.00
528.5280, 42393.00
529.7070, 42593.00
530.8860, 42454.00
532.0650, 42497.00
533.2430, 42484.00
534.4210, 42415.03
535.5990, 42600.00
536.7770, 42346.00
537.9550, 42331.00
539.1320, 42336.00
540.3100, 42428.00
541.4870, 42332.00
542.6640, 42203.00
543.8410, 42347.00
545.0170, 42675.00
546.1940, 42250.00
547.3700, 42609.00
548.5470, 42489.00
549.7230, 42428.00
550.8980, 42148.00
552.0740, 42270.00
553.2500, 42299.00
554.4250, 42104.00
555.6000, 42183.00
556.7750, 42024.00
557.9500, 42003.00
559.1250, 42079.00
560.2990, 41953.18
561.4730, 42097.00
562.6480, 41816.00
563.8220, 41848.00
564.9950, 41738.00
566.1690, 41855.00
567.3430, 41854.00
568.5160, 41733.00
569.6890, 41796.00
570.8620, 41900.00
572.0350, 41748.00
573.2070, 41624.00
574.3800, 41245.00
575.5520, 41581.00
576.7240, 41206.00
577.8960, 41096.00
579.0680, 41183.00
580.2400, 41070.00
581.4110, 40808.00
582.5830, 40538.00
583.7540, 40626.00
584.9250, 40500.00
586.0950, 40544.00
587.2660, 40620.00
588.4370, 40364.00
589.6070, 40057.00
590.7770, 40120.00
591.9470, 40007.00
593.1170, 39805.00
594.2860, 39979.00
595.4560, 40010.00
596.6250, 39911.00
597.7940, 40079.00
598.9630, 39930.00
600.1320, 39922.00
601.3000, 39902.00
602.4690, 39917.00
603.6370, 39796.00
604.8050, 39801.00
605.9730, 39699.93
607.1410, 39829.00
608.3090, 39524.00
609.4760, 39679.00
610.6430, 39652.00
611.8100, 39894.00
612.9770, 39875.26
614.1440, 39532.00
615.3110, 39892.00
616.4770, 39500.06
617.6430, 39695.91
618.8090, 39798.39
619.9750, 39812.50
621.1410, 39473.61
622.3070, 39590.56
623.4720, 39524.84
624.6370, 39451.63
625.8020, 39632.74
626.9670, 39345.21
628.1320, 39522.29
629.2970, 39513.91
630.4610, 39590.42
631.6250, 39483.13
632.7890, 39432.61
633.9530, 39565.95
635.1170, 39597.48
636.2810, 39469.03
637.4440, 39550.96
638.6070, 39257.03
639.7700, 39588.00
640.9330, 39470.00
642.0960, 39217.00
643.2590, 39292.00
644.4210, 39428.00
645.5830, 39424.00
646.7450, 39221.00
647.9070, 39273.00
649.0690, 39176.00
650.2310, 39489.00
651.3920, 39351.00
652.5530, 39518.00
653.7140, 39331.00
654.8750, 39155.00
656.0360, 39473.00
657.1970, 39180.00
658.3570, 39182.00
659.5170, 39259.00
660.6770, 39127.00
661.8370, 39322.00
662.9970, 39579.00
664.1570, 39318.00
665.3160, 39353.89
666.4750, 39289.00
667.6340, 39122.00
668.7930, 39089.00
669.9520, 39186.00
671.1110, 39069.00
672.2690, 39159.00
673.4270, 39248.00
674.5850, 38988.00
675.7430, 39363.00
676.9010, 39559.00
678.0590, 39334.00
679.2160, 38932.00
680.3730, 39212.00
681.5300, 39561.00
682.6870, 39232.00
683.8440, 39268.00
685.0010, 39310.00
686.1570, 39255.00
687.3130, 39398.00
688.4690, 39630.00
689.6250, 39340.00
690.7810, 39238.00
691.9370, 39702.00
693.0920, 39189.00
694.2470, 39779.00
695.4020, 39693.00
696.5570, 39993.00
697.7120, 39939.00
698.8670, 40064.00
700.0210, 40273.00
701.1750, 40045.00
702.3290, 40509.00
703.4830, 40418.00
704.6370, 40590.00
705.7910, 40167.00
706.9440, 40237.00
708.0970, 40109.00
709.2510, 39737.00
710.4030, 39932.00
711.5560, 39734.00
712.7090, 39686.00
713.8610, 39779.00
715.0140, 39574.00
716.1660, 39291.00
717.3180, 39366.00
718.4690, 39389.00
719.6210, 39500.00
720.7730, 39326.00
721.9240, 39458.00
723.0750, 39318.00
724.2260, 39085.00
725.3770, 39223.00
726.5270, 39107.00
727.6780, 39402.00
728.8280, 39359.00
729.9780, 39113.00
731.1280, 39407.00
732.2780, 39384.00
733.4280, 39290.00
734.5770, 39326.00
735.7260, 39327.24
736.8760, 39288.27
738.0250, 39379.00
739.1730, 39310.00
740.3220, 39276.00
741.4700, 39409.00
742.6190, 39340.00
743.7670, 39336.00
744.9150, 39144.00
746.0630, 39746.00
747.2100, 39442.00
748.3580, 39162.00
749.5050, 39659.00
750.6520, 39277.00
751.7990, 39576.00
752.9460, 39218.00
754.0930, 39361.00
755.2390, 39389.00
756.3860, 39578.00
757.5320, 39431.00
758.6780, 39587.00
759.8240, 39350.00
760.9690, 39431.00
762.1150, 39181.00
763.2600, 39497.00
764.4060, 39651.00
765.5510, 39447.00
766.6950, 39662.00
767.8400, 39488.00
768.9850, 39469.00
770.1290, 39524.00
771.2730, 39461.00
772.4170, 39436.84
773.5610, 39657.00
774.7050, 39345.00
775.8480, 39469.00
776.9920, 39469.00
778.1350, 39736.00
779.2780, 39254.00
780.4210, 39612.00
781.5640, 39423.00
782.7060, 39540.00
783.8490, 39681.00
784.9910, 39783.00
786.1330, 39529.00
787.2750, 39886.00
788.4170, 39721.00
789.5580, 39509.00
790.7000, 39611.00
791.8410, 39841.00
792.9820, 40022.00
794.1230, 39963.00
795.2640, 39783.00
796.4040, 39807.12
797.5450, 39760.00
798.6850, 39647.00
799.8250, 39746.00
800.9650, 39725.00
802.1050, 39887.00
803.2450, 40051.00
804.3840, 39806.00
805.5230, 39913.00
806.6630, 40019.00
807.8020, 40250.00
808.9400, 39941.00
810.0790, 40038.00
811.2170, 40004.00
812.3560, 40069.00
813.4940, 40039.00
814.6320, 40264.00
815.7700, 40288.00
816.9070, 40352.00
818.0450, 40229.00
819.1820, 40264.30
820.3190, 40383.00
821.4560, 40145.00
822.5930, 40400.00
823.7300, 40212.00
824.8670, 40284.00
826.0030, 40329.00
827.1390, 40259.00
828.2750, 40087.00
829.4110, 40137.00
830.5470, 40151.66
831.6820, 40063.66
832.8180, 40227.00
833.9530, 40056.00
835.0880, 39863.00
836.2230, 40021.00
837.3580, 39882.00
838.4920, 40322.00
839.6270, 40023.00
840.7610, 40084.00
841.8950, 40297.00
843.0290, 39770.00
844.1630, 40202.00
845.2960, 40266.00
846.4300, 40255.00
847.5630, 40090.00
848.6960, 40180.00
849.8290, 40292.00
850.9620, 40432.00
852.0940, 40308.00
853.2270, 40066.92
854.3590, 40290.88
855.4910, 40421.47
856.6230, 40463.69
857.7550, 40152.91
858.8870, 40297.96
860.0180, 40260.33
861.1500, 40215.21
862.2810, 40424.41
863.4120, 40164.96
864.5430, 40370.13
865.6730, 40389.82
866.8040, 40494.41
867.9340, 40415.18
869.0640, 40392.71
870.1940, 40554.12
871.3240, 40613.72
872.4540, 40513.33
873.5830, 40623.29
874.7130, 40357.41
875.8420, 40421.33
876.9710, 40627.56
878.1000, 40536.40
879.2290, 40649.72
880.3570, 40685.16
881.4860, 40366.68
882.6140, 40663.70
883.7420, 40694.53
884.8700, 40452.05
885.9980, 40727.98
887.1250, 40523.16
888.2530, 40489.95
889.3800, 40585.87
890.5070, 40547.16
891.6340, 40720.70
892.7610, 40689.77
893.8880, 40640.57
895.0140, 40671.09
896.1400, 40475.69
897.2670, 40699.41
898.3930, 40636.84
899.5180, 40716.57
900.6440, 40828.55
901.7700, 40693.56
902.8950, 40820.04
904.0200, 40541.03
905.1450, 40601.30
906.2700, 40625.04
907.3950, 40865.63
908.5190, 40588.59
909.6440, 40639.44
910.7680, 40829.88
911.8920, 40824.98
913.0160, 40901.75
914.1400, 40736.74
915.2630, 40798.86
916.3870, 40798.38
917.5100, 41014.23
918.6330, 41059.29
919.7560, 40898.38
920.8790, 40738.33
922.0010, 40969.75
923.1240, 40830.13
924.2460, 40890.68
925.3680, 40744.49
926.4900, 40776.80
927.6120, 40806.28
928.7340, 40927.27
929.8550, 40770.78
930.9760, 40974.21
932.0980, 40969.62
933.2190, 41026.31
934.3390, 41076.16
935.4600, 40846.88
936.5810, 40846.44
937.7010, 41173.42
938.8210, 41001.04
939.9410, 40929.45
941.0610, 40929.50
942.1810, 41267.70
943.3010, 41291.60
944.4200, 40939.81
945.5390, 41263.10
946.6580, 41171.06
947.7770, 41202.45
948.8960, 41188.80
950.0150, 41188.49
951.1330, 41018.62
952.2510, 41072.18
953.3690, 41307.41
954.4870, 41046.62
955.6050, 41298.36
956.7230, 41456.72
957.8400, 41526.68
958.9580, 41243.68
960.0750, 41416.47
961.1920, 41406.59
962.3090, 41389.21
963.4250, 41626.12
964.5420, 41394.43
965.6580, 41627.31
966.7740, 41674.73
967.8900, 41807.03
969.0060, 41755.52
970.1220, 41760.79
971.2380, 41527.00
972.3530, 41274.00
973.4680, 41912.00
974.5830, 41739.00
975.6980, 41617.00
976.8130, 41564.00
977.9280, 41751.00
979.0420, 41883.00
980.1560, 41613.00
981.2710, 42072.00
982.3850, 41763.00
983.4980, 41879.00
984.6120, 41747.00
985.7260, 41925.00
986.8390, 41763.00
987.9520, 41888.00
989.0650, 41642.00
990.1780, 41797.00
991.2910, 41681.00
992.4030, 41634.82
993.5160, 41572.00
994.6280, 41544.00
995.7400, 41507.00
996.8520, 41431.00
997.9640, 41425.00
999.0750, 41358.00
1000.187, 41515.00
1001.298, 41411.00
1002.409, 41311.00
1003.520, 41418.00
1004.631, 41102.00
1005.741, 41385.00
1006.852, 41119.00
1007.962, 41225.00
1009.072, 40997.00
1010.182, 41180.00
1011.292, 41264.00
1012.402, 41386.00
1013.511, 41298.00
1014.621, 41309.26
1015.730, 41273.00
1016.839, 41221.00
1017.948, 41412.00
1019.056, 41491.00
1020.165, 41315.00
1021.273, 41322.00
1022.382, 41011.00
1023.490, 41336.00
1024.598, 41218.00
1025.706, 41346.00
1026.813, 41407.20
1027.921, 41382.00
1029.028, 41394.00
1030.135, 41310.00
1031.242, 41149.00
1032.349, 41390.00
1033.456, 41476.00
1034.562, 41281.00
1035.668, 41471.00
1036.775, 41532.83
1037.881, 41353.00
1038.987, 41642.00
1040.092, 41651.00
1041.198, 41314.95
1042.303, 41913.00
1043.408, 41277.00
1044.514, 41212.00
1045.618, 41360.00
1046.723, 41540.00
1047.828, 41444.00
1048.932, 41374.00
1050.037, 41441.00
1051.141, 41905.00
1052.245, 41589.00
1053.349, 41649.00
1054.452, 41693.00
1055.556, 41355.00
1056.659, 41482.00
1057.762, 41381.00
1058.865, 41466.00
1059.968, 41438.00
1061.071, 41401.00
1062.174, 41483.00
1063.276, 41599.00
1064.378, 41479.00
1065.480, 41339.00
1066.582, 41263.00
1067.684, 41680.00
1068.786, 41566.00
1069.887, 41617.00
1070.988, 41528.00
1072.090, 41493.00
1073.191, 41220.00
1074.291, 41686.00
1075.392, 41692.00
1076.493, 41452.00
1077.593, 41393.00
1078.693, 41413.00
1079.793, 41314.00
1080.893, 41661.00
1081.993, 41636.00
1083.092, 41653.00
1084.192, 41528.00
1085.291, 41402.00
1086.390, 41553.00
1087.489, 41574.00
1088.588, 41267.00
1089.686, 41471.00
1090.785, 41231.00
1091.883, 41590.00
1092.981, 41539.00
1094.079, 41405.00
1095.177, 41541.00
1096.275, 41368.00
1097.373, 41219.00
1098.470, 41264.30
1099.567, 41297.00
1100.664, 41393.00
1101.761, 41357.70
1102.858, 41615.00
1103.954, 41297.00
1105.051, 41174.00
1106.147, 41111.00
1107.243, 41367.00
1108.339, 41508.00
1109.435, 41353.00
1110.531, 41330.00
1111.626, 41317.00
1112.722, 41256.00
1113.817, 41825.00
1114.912, 41577.00
1116.007, 41045.00
1117.101, 41558.00
1118.196, 41101.00
1119.290, 41410.00
1120.385, 41454.00
1121.479, 41463.00
1122.573, 41437.66
1123.666, 41307.00
1124.760, 41173.00
1125.853, 41171.00
1126.947, 41063.00
1128.040, 41365.00
1129.133, 40829.00
1130.226, 41326.00
1131.318, 41144.00
1132.411, 41111.00
1133.503, 40877.00
1134.596, 40950.00
1135.688, 40798.00
1136.780, 40755.00
1137.871, 40990.00
1138.963, 40959.00
1140.054, 41072.00
1141.146, 40876.00
1142.237, 40968.00
1143.328, 40881.00
1144.419, 40951.00
1145.509, 40889.00
1146.600, 40939.00
1147.690, 40770.00
1148.780, 40864.00
1149.870, 40676.00
1150.960, 40510.88
1152.050, 41103.00
1153.139, 40674.00
1154.229, 41065.00
1155.318, 40871.17
1156.407, 41184.00
1157.496, 41090.32
1158.585, 40974.00
1159.674, 40942.00
1160.762, 40781.00
1161.850, 40762.00
1162.939, 40704.00
1164.027, 40457.00
1165.114, 40555.00
1166.202, 40565.00
1167.290, 40697.00
1168.377, 40423.00
1169.464, 40734.00
1170.551, 40644.00
1171.638, 40661.00
1172.725, 40848.00
1173.812, 40648.00
1174.898, 40571.00
1175.984, 40716.00
1177.071, 40630.00
1178.157, 40599.00
1179.242, 40611.00
1180.328, 40572.00
1181.414, 40808.00
1182.499, 40667.00
1183.584, 40722.00
1184.669, 40692.00
1185.754, 40550.00
1186.839, 40368.00
1187.924, 40529.00
1189.008, 40274.00
1190.092, 40626.00
1191.177, 40522.00
1192.260, 40526.00
1193.344, 40377.00
1194.428, 40559.00
1195.512, 40635.00
1196.595, 40447.00
1197.678, 40801.00
1198.761, 40482.00
1199.844, 40675.00
1200.927, 40773.00
1202.009, 40453.00
1203.092, 40446.00
1204.174, 40237.00
1205.256, 40261.51
1206.338, 40497.00
1207.420, 40353.00
1208.502, 40591.00
1209.583, 40599.00
1210.665, 40531.00
1211.746, 40580.00
1212.827, 40519.15
1213.908, 40529.11
1214.988, 40493.00
1216.069, 40538.00
1217.149, 40656.00
1218.230, 40674.74
1219.310, 40523.00
1220.390, 40642.00
1221.470, 40490.00
1222.549, 40364.00
1223.629, 40563.00
1224.708, 40672.00
1225.787, 40559.00
1226.866, 40582.00
1227.945, 40802.00
1229.024, 40591.00
1230.103, 40654.00
1231.181, 40287.00
1232.259, 40464.00
1233.337, 40431.00
1234.415, 40186.00
1235.493, 40395.00
1236.571, 40496.00
1237.648, 40224.00
1238.726, 40568.00
1239.803, 40555.00
1240.880, 40222.00
1241.957, 40532.00
1243.034, 40517.00
1244.110, 40516.00
1245.187, 40612.00
1246.263, 40609.61
1247.339, 40643.23
1248.415, 40619.00
1249.491, 40669.00
1250.566, 40624.77
1251.642, 40494.00
1252.717, 40549.00
1253.793, 40481.68
1254.868, 40444.28
1255.943, 40555.00
1257.017, 40361.00
1258.092, 40554.00
1259.166, 40627.00
1260.241, 40339.00
1261.315, 40537.00
1262.389, 40299.00
1263.462, 40474.00
1264.536, 40688.00
1265.610, 40412.00
1266.683, 40769.00
1267.756, 40511.00
1268.829, 40606.00
1269.902, 40721.00
1270.975, 40254.00
1272.048, 40251.00
1273.120, 40373.00
1274.192, 40523.00
1275.264, 40704.00
1276.336, 40260.00
1277.408, 40286.00
1278.480, 40336.00
1279.551, 40642.00
1280.623, 40456.00
1281.694, 40382.00
1282.765, 40767.00
1283.836, 40699.00
1284.907, 40932.00
1285.977, 40633.00
1287.048, 40713.00
1288.118, 40564.00
1289.188, 40655.00
1290.258, 40431.00
1291.328, 40939.00
1292.398, 40335.00
1293.467, 40537.00
1294.537, 40315.00
1295.606, 40638.00
1296.675, 40511.00
1297.744, 40607.00
1298.813, 40489.00
1299.882, 40520.86
1300.950, 40419.00
1302.018, 40576.00
1303.086, 40456.00
1304.155, 40509.00
1305.222, 40487.00
1306.290, 40604.00
1307.358, 40449.00
1308.425, 40844.00
1309.492, 40818.00
1310.559, 40529.00
1311.626, 40733.00
1312.693, 40429.00
1313.760, 40676.00
1314.826, 40772.00
1315.893, 40990.00
1316.959, 40839.00
1318.025, 40818.00
1319.091, 40469.00
1320.157, 40615.00
1321.222, 40754.00
1322.288, 40911.00
1323.353, 40877.00
1324.418, 40851.00
1325.483, 40814.00
1326.548, 40635.00
1327.612, 40925.00
1328.677, 40461.00
1329.741, 40777.00
1330.806, 40612.00
1331.870, 40583.00
1332.934, 40838.00
1333.997, 40597.00
1335.061, 40757.00
1336.124, 40825.00
1337.188, 40785.00
1338.251, 40716.00
1339.314, 40979.00
1340.377, 40733.00
1341.439, 40810.00
1342.502, 40635.00
1343.564, 40636.00
1344.627, 40838.00
1345.689, 40789.07
1346.751, 40880.00
1347.813, 40845.00
1348.874, 40870.00
1349.936, 40920.93
1350.997, 40871.94
1352.058, 40989.00
1353.119, 40845.00
1354.180, 40829.00
1355.241, 40882.00
1356.301, 40799.00
1357.362, 40810.00
1358.422, 40906.00
1359.482, 40805.00
1360.542, 40828.00
1361.602, 40802.81
1362.662, 40909.00
1363.721, 40723.00
1364.781, 40740.00
1365.840, 40685.00
1366.899, 40843.00
1367.958, 40641.00
1369.017, 40782.00
1370.075, 40714.00
1371.134, 40631.00
1372.192, 40714.69
1373.250, 40679.55
1374.308, 40786.00
1375.366, 40781.00
1376.424, 40848.00
1377.481, 41001.00
1378.539, 40724.00
1379.596, 40904.00
1380.653, 40788.00
1381.710, 40723.00
1382.767, 40766.00
1383.824, 40698.08
1384.880, 40877.00
1385.937, 40709.00
1386.993, 40801.00
1388.049, 40887.00
1389.105, 40815.79
1390.161, 41023.00
1391.216, 40780.00
1392.272, 40948.00
1393.327, 40900.00
1394.382, 40673.00
1395.437, 41158.00
1396.492, 41127.00
1397.547, 41235.00
1398.601, 40986.00
1399.656, 40849.00
1400.710, 40973.00
1401.764, 40914.00
1402.818, 40724.00
1403.872, 41020.00
1404.925, 40966.00
1405.979, 41093.00
1407.032, 41007.00
1408.085, 40839.00
1409.139, 40761.00
1410.191, 40688.00
1411.244, 40834.00
1412.297, 40838.00
1413.349, 40799.00
1414.402, 41104.00
1415.454, 40929.00
1416.506, 40661.00
1417.558, 40742.00
1418.609, 40865.00
1419.661, 40955.00
1420.712, 41034.00
1421.764, 40896.00
1422.815, 41026.00
1423.866, 40962.00
1424.916, 40909.88
1425.967, 41149.00
1427.018, 40825.00
1428.068, 40761.00
1429.118, 40783.00
1430.168, 41084.00
1431.218, 40982.00
1432.268, 40870.00
1433.318, 40856.00
1434.367, 40923.00
1435.416, 41099.00
1436.465, 41144.00
1437.514, 41197.00
1438.563, 40948.00
1439.612, 41080.00
1440.661, 41051.00
1441.709, 40853.00
1442.757, 41025.00
1443.805, 41111.00
1444.853, 40955.00
1445.901, 40891.00
1446.949, 40892.00
1447.996, 41075.00
1449.044, 41267.00
1450.091, 41021.00
1451.138, 41125.00
1452.185, 41022.00
1453.232, 40922.00
1454.278, 40984.99
1455.325, 40962.00
1456.371, 41052.00
1457.417, 41022.00
1458.463, 41126.00
1459.509, 41185.00
1460.555, 41107.00
1461.601, 40795.00
1462.646, 40841.00
1463.691, 41041.00
1464.737, 41028.15
1465.782, 41415.00
1466.826, 41196.00
1467.871, 40960.00
1468.916, 40702.00
1469.960, 40939.00
1471.004, 41043.00
1472.048, 40953.00
1473.092, 40920.00
1474.136, 40813.00
1475.180, 40892.00
1476.223, 40888.00
1477.267, 40930.45
1478.310, 40856.00
1479.353, 40983.00
1480.396, 41102.00
1481.439, 40949.00
1482.481, 41217.00
1483.524, 40987.00
1484.566, 41052.00
1485.608, 40909.00
1486.650, 41058.00
1487.692, 40904.00
1488.734, 41076.00
1489.775, 40870.00
1490.817, 41025.00
1491.858, 40911.00
1492.899, 40931.00
1493.940, 40863.00
1494.981, 40951.00
1496.022, 40779.00
1497.062, 40831.00
1498.103, 40934.00
1499.143, 40766.00
1500.183, 40979.00
1501.223, 41086.00
1502.263, 40879.00
1503.302, 40881.00
1504.342, 41019.00
1505.381, 41054.00
1506.420, 40879.00
1507.459, 40990.00
1508.498, 40879.00
1509.537, 41079.00
1510.576, 40833.00
1511.614, 41061.00
1512.652, 40863.00
1513.691, 40821.00
1514.729, 40811.00
1515.767, 41060.00
1516.804, 41091.00
1517.842, 41021.00
1518.879, 41122.68
1519.917, 40962.00
1520.954, 41077.00
1521.991, 40986.00
1523.028, 40855.00
1524.064, 40793.00
1525.101, 40983.00
1526.137, 41076.00
1527.173, 40949.00
1528.210, 40958.00
1529.245, 40931.00
1530.281, 41058.00
##END=



