##NAMES=Ilvaite
##RRUFFID=R050040
##IDEAL CHEMISTRY=CaFe^2+^_2_Fe^3+^OSi_2_O_7_(OH)
##LOCALITY=Capo Calamita, Isle of Elba, Italy
##OWNER=RRUFF
##SOURCE=University of Arizona Mineral Museum
##DESCRIPTION=Brown fragment
##STATUS=The identification of this mineral has been confirmed by X-ray diffraction and chemical analysis
##URL=rruff.info/R050040
##MEASURED CHEMISTRY=Ca_1.00_(Fe^2+^_1.89_Mn_0.10_Mg_0.01_)_Î£=2_Fe^3+^_1.00_OSi_2.00_O_7_(OH); trace amounts of Al; OH estimated by charge balance
##PIN_ID=M00123
##ORIENTATION=Laser parallel to (1 0 1). Fiducial mark perpendicular to laser is parallel to b [0 1 0]
159.6920, 50236.00
160.9250, 50207.00
162.1560, 50370.00
163.3880, 51077.00
164.6200, 51278.00
165.8510, 51222.00
167.0820, 50911.00
168.3130, 51188.00
169.5440, 51412.00
170.7750, 51655.00
172.0050, 51429.00
173.2350, 51153.00
174.4650, 51030.00
175.6950, 50993.00
176.9250, 50973.00
178.1550, 51142.00
179.3840, 50716.00
180.6130, 50117.00
181.8420, 50353.00
183.0710, 50172.00
184.3000, 50300.00
185.5280, 50598.00
186.7570, 50444.00
187.9850, 50322.00
189.2130, 50560.00
190.4400, 50912.00
191.6680, 50910.00
192.8960, 50964.00
194.1230, 51427.00
195.3500, 51134.00
196.5770, 50990.00
197.8030, 51260.00
199.0300, 50946.00
200.2560, 51351.00
201.4830, 51466.00
202.7090, 51377.00
203.9340, 49765.00
205.1600, 47785.00
206.3860, 46653.00
207.6110, 46092.00
208.8360, 45791.00
210.0610, 45777.00
211.2860, 45882.00
212.5100, 45782.00
213.7350, 46075.00
214.9590, 45705.00
216.1830, 45121.00
217.4070, 44835.00
218.6310, 45031.00
219.8540, 44986.00
221.0780, 45358.00
222.3010, 45033.00
223.5240, 44899.00
224.7470, 45095.00
225.9690, 45002.00
227.1920, 44918.00
228.4140, 44897.00
229.6360, 45085.00
230.8580, 44710.00
232.0800, 44963.00
233.3020, 44980.00
234.5230, 44909.00
235.7440, 44769.00
236.9650, 44621.00
238.1860, 44558.00
239.4070, 44388.00
240.6280, 44306.00
241.8480, 44212.12
243.0680, 44054.86
244.2880, 43990.00
245.5080, 43958.00
246.7280, 43750.00
247.9470, 44096.00
249.1660, 43922.00
250.3860, 43855.00
251.6040, 43997.00
252.8230, 43857.00
254.0420, 44285.00
255.2600, 44339.61
256.4790, 44675.92
257.6970, 44935.92
258.9150, 45123.85
260.1320, 45023.66
261.3500, 45295.47
262.5670, 45418.12
263.7840, 45534.66
265.0010, 46013.00
266.2180, 46366.00
267.4350, 46608.00
268.6510, 46866.00
269.8680, 47087.16
271.0840, 47169.00
272.3000, 47501.00
273.5160, 47508.00
274.7310, 47783.00
275.9470, 48341.00
277.1620, 48429.00
278.3770, 48393.00
279.5920, 48068.00
280.8070, 48191.00
282.0210, 48274.00
283.2360, 47947.17
284.4500, 47669.89
285.6640, 47343.00
286.8780, 46792.00
288.0920, 46238.00
289.3050, 46003.00
290.5180, 45692.00
291.7320, 45423.00
292.9450, 45090.00
294.1570, 44855.81
295.3700, 44672.23
296.5830, 44434.00
297.7950, 44333.00
299.0070, 44256.00
300.2190, 44006.00
301.4310, 43808.00
302.6420, 43602.00
303.8540, 43463.00
305.0650, 43881.00
306.2760, 43962.00
307.4870, 44198.18
308.6980, 44146.85
309.9080, 44117.76
311.1190, 43975.00
312.3290, 43973.00
313.5390, 44056.00
314.7490, 44193.00
315.9580, 44236.00
317.1680, 44623.00
318.3770, 44893.00
319.5860, 44964.00
320.7950, 45381.00
322.0040, 45641.00
323.2130, 45972.00
324.4210, 46409.00
325.6290, 46828.00
326.8380, 47089.00
328.0460, 47431.10
329.2530, 47462.00
330.4610, 47851.00
331.6680, 47957.00
332.8760, 47905.00
334.0830, 48282.00
335.2890, 47953.00
336.4960, 48084.00
337.7030, 48110.00
338.9090, 47800.00
340.1150, 47580.00
341.3210, 47423.00
342.5270, 47279.00
343.7330, 46819.00
344.9380, 46720.00
346.1440, 46271.00
347.3490, 45814.00
348.5540, 45701.00
349.7590, 45379.00
350.9630, 45216.00
352.1680, 45098.00
353.3720, 44802.00
354.5760, 44306.00
355.7800, 44303.00
356.9840, 44114.00
358.1870, 43962.00
359.3910, 44012.00
360.5940, 44133.00
361.7970, 43794.00
363.0000, 43840.00
364.2030, 44186.00
365.4050, 43964.00
366.6080, 43465.00
367.8100, 43742.00
369.0120, 43265.00
370.2140, 43586.00
371.4150, 43440.00
372.6170, 43841.00
373.8180, 43316.00
375.0190, 43520.00
376.2200, 43073.00
377.4210, 43475.00
378.6220, 43022.00
379.8220, 43594.00
381.0230, 43532.00
382.2230, 43327.00
383.4230, 43202.00
384.6220, 43047.00
385.8220, 42967.00
387.0220, 43231.00
388.2210, 43463.00
389.4200, 43326.00
390.6190, 43389.00
391.8180, 43413.00
393.0160, 43372.00
394.2150, 43361.00
395.4130, 43332.00
396.6110, 43567.00
397.8090, 43903.00
399.0060, 43717.00
400.2040, 43607.00
401.4010, 43937.00
402.5980, 43640.00
403.7950, 44094.00
404.9920, 44180.00
406.1890, 44157.00
407.3860, 44115.00
408.5820, 44213.49
409.7780, 44508.00
410.9740, 44422.00
412.1700, 44271.00
413.3650, 44501.00
414.5610, 44388.40
415.7560, 44700.00
416.9510, 44452.00
418.1460, 44519.00
419.3410, 44642.00
420.5360, 44857.00
421.7300, 44870.00
422.9240, 45013.00
424.1180, 44965.00
425.3120, 45139.00
426.5060, 45359.00
427.7000, 45269.00
428.8930, 45449.00
430.0860, 45377.00
431.2790, 45316.00
432.4720, 45172.00
433.6650, 45553.00
434.8580, 45524.00
436.0500, 45423.00
437.2420, 45312.00
438.4340, 45531.00
439.6260, 45343.00
440.8180, 45405.00
442.0090, 45575.00
443.2010, 45383.00
444.3920, 45467.00
445.5830, 45421.00
446.7740, 45537.00
447.9640, 45394.00
449.1550, 45281.00
450.3450, 45540.00
451.5350, 45626.00
452.7250, 45510.00
453.9150, 45660.00
455.1050, 45443.00
456.2940, 45932.00
457.4830, 45787.00
458.6720, 45916.00
459.8610, 45723.00
461.0500, 45598.00
462.2390, 45713.00
463.4270, 45644.00
464.6150, 45782.00
465.8040, 45779.00
466.9910, 46204.00
468.1790, 45828.00
469.3670, 46219.00
470.5540, 46403.00
471.7410, 46298.00
472.9280, 46222.00
474.1150, 46457.00
475.3020, 46481.00
476.4890, 46481.00
477.6750, 46544.00
478.8610, 46655.00
480.0470, 46653.00
481.2330, 46322.00
482.4190, 46857.00
483.6040, 47090.00
484.7900, 46678.00
485.9750, 47060.00
487.1600, 46991.00
488.3450, 47096.00
489.5290, 47283.00
490.7140, 47478.00
491.8980, 47372.00
493.0820, 47768.00
494.2660, 47759.00
495.4500, 48117.00
496.6340, 48213.00
497.8170, 48800.00
499.0010, 48340.00
500.1840, 48682.00
501.3670, 49369.00
502.5500, 49028.00
503.7320, 48924.00
504.9150, 48695.00
506.0970, 48944.00
507.2790, 48606.00
508.4610, 48994.00
509.6430, 48949.00
510.8250, 48517.00
512.0060, 48404.00
513.1870, 48462.00
514.3680, 49044.00
515.5490, 48528.00
516.7300, 48624.00
517.9110, 48610.00
519.0910, 48386.00
520.2710, 48223.00
521.4510, 48522.00
522.6310, 48235.00
523.8110, 48543.00
524.9910, 49213.00
526.1700, 48959.00
527.3490, 48946.00
528.5280, 48585.00
529.7070, 48170.00
530.8860, 48147.00
532.0650, 48096.00
533.2430, 48061.00
534.4210, 47998.00
535.5990, 47866.00
536.7770, 47900.00
537.9550, 47781.00
539.1320, 47879.00
540.3100, 47763.82
541.4870, 47903.00
542.6640, 47608.00
543.8410, 47641.00
545.0170, 47605.00
546.1940, 47345.69
547.3700, 47136.00
548.5470, 47111.00
549.7230, 47134.00
550.8980, 47444.00
552.0740, 47357.00
553.2500, 47063.00
554.4250, 46769.00
555.6000, 47085.00
556.7750, 46836.00
557.9500, 46652.00
559.1250, 46787.00
560.2990, 46659.00
561.4730, 46698.00
562.6480, 46675.64
563.8220, 46647.00
564.9950, 46643.00
566.1690, 46419.00
567.3430, 46466.00
568.5160, 46401.80
569.6890, 46239.00
570.8620, 46358.00
572.0350, 46008.00
573.2070, 45937.00
574.3800, 46124.00
575.5520, 45788.00
576.7240, 45547.00
577.8960, 45732.00
579.0680, 45502.00
580.2400, 45184.00
581.4110, 45303.00
582.5830, 44986.00
583.7540, 44980.00
584.9250, 44845.00
586.0950, 44859.00
587.2660, 44714.00
588.4370, 44338.00
589.6070, 44196.00
590.7770, 44426.00
591.9470, 44109.00
593.1170, 44089.00
594.2860, 44124.00
595.4560, 43750.00
596.6250, 43783.00
597.7940, 43920.00
598.9630, 43702.00
600.1320, 43708.00
601.3000, 43580.00
602.4690, 43585.00
603.6370, 43562.08
604.8050, 43631.00
605.9730, 43566.00
607.1410, 43621.91
608.3090, 43659.00
609.4760, 43559.00
610.6430, 43490.00
611.8100, 43324.00
612.9770, 43287.00
614.1440, 43330.00
615.3110, 43246.00
616.4770, 43357.00
617.6430, 43104.00
618.8090, 43736.00
619.9750, 43528.61
621.1410, 43282.00
622.3070, 43417.00
623.4720, 43200.00
624.6370, 42867.00
625.8020, 43244.00
626.9670, 42999.00
628.1320, 43003.00
629.2970, 43115.00
630.4610, 43145.00
631.6250, 42953.00
632.7890, 43027.00
633.9530, 43009.00
635.1170, 43030.00
636.2810, 43082.00
637.4440, 42931.00
638.6070, 43097.00
639.7700, 42926.00
640.9330, 42815.76
642.0960, 42891.00
643.2590, 42680.00
644.4210, 42673.00
645.5830, 43031.00
646.7450, 42963.00
647.9070, 42723.00
649.0690, 42504.00
650.2310, 42527.80
651.3920, 42515.77
652.5530, 42542.00
653.7140, 42695.00
654.8750, 42712.00
656.0360, 42702.00
657.1970, 42703.00
658.3570, 42727.17
659.5170, 42868.00
660.6770, 42826.00
661.8370, 42719.00
662.9970, 42868.00
664.1570, 42617.00
665.3160, 42578.00
666.4750, 42507.00
667.6340, 42606.00
668.7930, 42472.00
669.9520, 42514.00
671.1110, 42425.00
672.2690, 42674.00
673.4270, 42476.00
674.5850, 42352.00
675.7430, 42447.00
676.9010, 42817.00
678.0590, 42824.00
679.2160, 42571.00
680.3730, 42760.00
681.5300, 42688.00
682.6870, 42890.00
683.8440, 43018.00
685.0010, 42800.00
686.1570, 42723.00
687.3130, 43125.00
688.4690, 42991.00
689.6250, 42912.00
690.7810, 43066.00
691.9370, 43193.00
693.0920, 43663.00
694.2470, 43599.00
695.4020, 43851.00
696.5570, 43698.61
697.7120, 44026.02
698.8670, 44277.26
700.0210, 44456.28
701.1750, 44347.31
702.3290, 44924.00
703.4830, 44875.00
704.6370, 44897.00
705.7910, 44842.00
706.9440, 44737.00
708.0970, 44636.70
709.2510, 44288.00
710.4030, 44259.00
711.5560, 43853.00
712.7090, 43477.00
713.8610, 43614.00
715.0140, 43310.00
716.1660, 43177.00
717.3180, 42758.00
718.4690, 43012.00
719.6210, 42776.00
720.7730, 42777.00
721.9240, 42439.00
723.0750, 42620.00
724.2260, 42285.00
725.3770, 42501.00
726.5270, 42468.00
727.6780, 42389.00
728.8280, 42346.00
729.9780, 42361.74
731.1280, 42353.00
732.2780, 42404.98
733.4280, 42396.00
734.5770, 42397.00
735.7260, 42324.00
736.8760, 42349.00
738.0250, 42397.00
739.1730, 42299.00
740.3220, 42541.00
741.4700, 42543.00
742.6190, 42448.00
743.7670, 42442.77
744.9150, 42622.77
746.0630, 42726.59
747.2100, 42758.32
748.3580, 42502.09
749.5050, 42617.71
750.6520, 42584.30
751.7990, 42544.79
752.9460, 42712.75
754.0930, 42498.39
755.2390, 42663.05
756.3860, 42676.42
757.5320, 42759.03
758.6780, 42392.00
759.8240, 42583.00
760.9690, 42465.00
762.1150, 42523.00
763.2600, 42681.00
764.4060, 42875.00
765.5510, 42840.61
766.6950, 42599.00
767.8400, 42718.00
768.9850, 42767.00
770.1290, 42500.00
771.2730, 42567.00
772.4170, 42718.00
773.5610, 42729.00
774.7050, 42717.00
775.8480, 42568.00
776.9920, 42606.00
778.1350, 42594.00
779.2780, 42733.00
780.4210, 42731.05
781.5640, 42869.00
782.7060, 42796.00
783.8490, 42770.00
784.9910, 42771.00
786.1330, 42877.00
787.2750, 42800.91
788.4170, 42891.00
789.5580, 42769.00
790.7000, 42822.00
791.8410, 42908.00
792.9820, 42648.00
794.1230, 43059.00
795.2640, 42898.00
796.4040, 42950.00
797.5450, 42789.00
798.6850, 42891.23
799.8250, 42759.00
800.9650, 43149.00
802.1050, 43354.00
803.2450, 43612.00
804.3840, 43552.00
805.5230, 43288.00
806.6630, 43441.00
807.8020, 43556.00
808.9400, 43361.00
810.0790, 43591.00
811.2170, 43674.00
812.3560, 43346.00
813.4940, 43554.00
814.6320, 43825.00
815.7700, 44164.00
816.9070, 44198.00
818.0450, 44055.00
819.1820, 44219.00
820.3190, 44102.00
821.4560, 43870.00
822.5930, 44049.00
823.7300, 44162.00
824.8670, 43803.00
826.0030, 44078.00
827.1390, 43666.00
828.2750, 43840.00
829.4110, 43582.00
830.5470, 43344.00
831.6820, 43698.00
832.8180, 43527.00
833.9530, 43652.00
835.0880, 43520.00
836.2230, 43284.00
837.3580, 43526.00
838.4920, 43412.79
839.6270, 43610.87
840.7610, 43732.75
841.8950, 43782.54
843.0290, 43544.36
844.1630, 43678.05
845.2960, 43662.68
846.4300, 43641.23
847.5630, 43827.23
848.6960, 43630.92
849.8290, 43813.63
850.9620, 43845.04
852.0940, 43945.68
853.2270, 43896.39
854.3590, 44006.00
855.4910, 44096.00
856.6230, 43796.00
857.7550, 44034.54
858.8870, 44065.00
860.0180, 44114.00
861.1500, 44451.00
862.2810, 44283.00
863.4120, 44295.00
864.5430, 44247.00
865.6730, 44286.81
866.8040, 44440.00
867.9340, 44483.00
869.0640, 44564.27
870.1940, 44735.00
871.3240, 44649.00
872.4540, 44626.00
873.5830, 44675.00
874.7130, 44793.25
875.8420, 44871.21
876.9710, 44980.00
878.1000, 45233.00
879.2290, 44945.00
880.3570, 45303.00
881.4860, 45094.00
882.6140, 45143.00
883.7420, 45447.00
884.8700, 45345.00
885.9980, 45522.00
887.1250, 45532.00
888.2530, 45549.00
889.3800, 45738.00
890.5070, 45317.00
891.6340, 45309.00
892.7610, 45199.00
893.8880, 45189.64
895.0140, 45803.00
896.1400, 45412.00
897.2670, 45323.00
898.3930, 45508.00
899.5180, 45107.00
900.6440, 45163.00
901.7700, 45172.00
902.8950, 45069.00
904.0200, 45314.00
905.1450, 45389.00
906.2700, 45264.00
907.3950, 45262.00
908.5190, 44976.00
909.6440, 45220.00
910.7680, 45325.00
911.8920, 44897.00
913.0160, 45416.00
914.1400, 45103.00
915.2630, 45523.00
916.3870, 45455.53
917.5100, 45546.20
918.6330, 45560.00
919.7560, 45603.00
920.8790, 46068.00
922.0010, 45764.00
923.1240, 46113.00
924.2460, 45819.00
925.3680, 45420.00
926.4900, 45491.00
927.6120, 45633.00
928.7340, 45696.00
929.8550, 45757.11
930.9760, 45744.00
932.0980, 45729.00
933.2190, 45731.00
934.3390, 45459.00
935.4600, 45652.00
936.5810, 45394.00
937.7010, 45630.00
938.8210, 45628.00
939.9410, 45696.00
941.0610, 45627.00
942.1810, 45692.00
943.3010, 45702.00
944.4200, 45703.00
945.5390, 45699.00
946.6580, 45765.00
947.7770, 45667.00
948.8960, 45692.00
950.0150, 45545.00
951.1330, 45608.00
952.2510, 45674.47
953.3690, 45683.00
954.4870, 45962.00
955.6050, 45854.00
956.7230, 46107.00
957.8400, 46039.00
958.9580, 46281.00
960.0750, 46174.00
961.1920, 46402.00
962.3090, 46523.00
963.4250, 46629.00
964.5420, 46489.00
965.6580, 46820.00
966.7740, 46888.00
967.8900, 47352.00
969.0060, 47099.00
970.1220, 47281.00
971.2380, 47624.00
972.3530, 47466.00
973.4680, 47852.00
974.5830, 47968.00
975.6980, 48125.00
976.8130, 48280.00
977.9280, 48084.00
979.0420, 48111.00
980.1560, 48445.00
981.2710, 48750.00
982.3850, 48621.00
983.4980, 48758.00
984.6120, 48512.00
985.7260, 48875.00
986.8390, 48957.00
987.9520, 48588.00
989.0650, 48473.00
990.1780, 48328.00
991.2910, 48565.00
992.4030, 48689.00
993.5160, 48691.00
994.6280, 48722.00
995.7400, 48345.00
996.8520, 48372.00
997.9640, 48279.00
999.0750, 48294.00
1000.187, 48249.00
1001.298, 48579.00
1002.409, 47998.00
1003.520, 48050.00
1004.631, 48326.00
1005.741, 47946.00
1006.852, 47775.00
1007.962, 47503.00
1009.072, 47400.46
1010.182, 47365.01
1011.292, 47298.00
1012.402, 47426.00
1013.511, 47435.00
1014.621, 47494.00
1015.730, 47521.70
1016.839, 47689.00
1017.948, 47594.00
1019.056, 47594.00
1020.165, 47746.00
1021.273, 47608.00
1022.382, 47309.00
1023.490, 47293.00
1024.598, 47389.00
1025.706, 47360.00
1026.813, 47662.00
1027.921, 47865.00
1029.028, 47408.00
1030.135, 47589.00
1031.242, 47798.00
1032.349, 47547.00
1033.456, 47661.00
1034.562, 47738.00
1035.668, 47740.00
1036.775, 47852.00
1037.881, 47849.03
1038.987, 47963.00
1040.092, 47852.00
1041.198, 47972.00
1042.303, 47937.00
1043.408, 47794.00
1044.514, 47742.00
1045.618, 47657.00
1046.723, 47730.00
1047.828, 47720.23
1048.932, 48200.00
1050.037, 47839.00
1051.141, 47799.00
1052.245, 47903.00
1053.349, 47579.00
1054.452, 47781.00
1055.556, 47908.00
1056.659, 47648.00
1057.762, 47707.00
1058.865, 47574.00
1059.968, 47987.00
1061.071, 47454.00
1062.174, 47669.00
1063.276, 47584.00
1064.378, 47491.00
1065.480, 47376.00
1066.582, 47658.00
1067.684, 47674.00
1068.786, 47854.00
1069.887, 47394.00
1070.988, 47366.00
1072.090, 47292.00
1073.191, 47551.00
1074.291, 47408.00
1075.392, 47227.00
1076.493, 47522.00
1077.593, 47289.00
1078.693, 47290.00
1079.793, 47247.00
1080.893, 47213.00
1081.993, 47141.00
1083.092, 47077.00
1084.192, 47126.00
1085.291, 47113.00
1086.390, 47183.00
1087.489, 46821.00
1088.588, 47021.00
1089.686, 46861.00
1090.785, 47256.00
1091.883, 46996.00
1092.981, 46542.00
1094.079, 47101.00
1095.177, 46951.00
1096.275, 46924.00
1097.373, 46902.00
1098.470, 46813.00
1099.567, 46896.00
1100.664, 46714.00
1101.761, 46848.00
1102.858, 46708.00
1103.954, 46761.00
1105.051, 46678.00
1106.147, 46663.64
1107.243, 46784.70
1108.339, 46829.59
1109.435, 46802.38
1110.531, 46487.21
1111.626, 46543.94
1112.722, 46451.60
1113.817, 46353.20
1114.912, 46462.27
1116.007, 46189.03
1117.101, 46294.86
1118.196, 46249.34
1119.290, 46273.11
1120.385, 46146.90
1121.479, 46067.04
1122.573, 46137.18
1123.666, 46124.31
1124.760, 45980.88
1125.853, 46009.11
1126.947, 45730.68
1128.040, 45721.34
1129.133, 45828.10
1130.226, 45692.26
1131.318, 45723.28
1132.411, 45690.71
1133.503, 45369.47
1134.596, 45550.31
1135.688, 45514.04
1136.780, 45254.80
1137.871, 45102.00
1138.963, 45365.00
1140.054, 45207.00
1141.146, 45013.00
1142.237, 45333.00
1143.328, 44918.00
1144.419, 45312.00
1145.509, 45007.00
1146.600, 44923.00
1147.690, 44962.00
1148.780, 44819.03
1149.870, 44913.00
1150.960, 44813.00
1152.050, 44784.00
1153.139, 44902.00
1154.229, 44584.00
1155.318, 44764.00
1156.407, 44687.00
1157.496, 44669.16
1158.585, 44604.00
1159.674, 44758.00
1160.762, 44637.00
1161.850, 44739.00
1162.939, 44742.00
1164.027, 44570.00
1165.114, 44365.24
1166.202, 44537.89
1167.290, 44634.36
1168.377, 44658.74
1169.464, 44395.15
1170.551, 44503.42
1171.638, 44462.67
1172.725, 44415.80
1173.812, 44576.41
1174.898, 44354.71
1175.984, 44512.03
1177.071, 44518.05
1178.157, 44593.32
1179.242, 44518.64
1180.328, 44490.28
1181.414, 44611.91
1182.499, 44650.48
1183.584, 44379.00
1184.669, 44465.00
1185.754, 44213.00
1186.839, 44484.00
1187.924, 44556.00
1189.008, 44280.00
1190.092, 44535.00
1191.177, 44310.54
1192.260, 44523.00
1193.344, 44041.00
1194.428, 44335.00
1195.512, 44248.00
1196.595, 44339.00
1197.678, 44298.00
1198.761, 44407.00
1199.844, 44338.00
1200.927, 44419.00
1202.009, 44051.00
1203.092, 44072.00
1204.174, 44135.00
1205.256, 44337.00
1206.338, 44488.00
1207.420, 44695.00
1208.502, 44499.79
1209.583, 44467.15
1210.665, 44231.00
1211.746, 44130.00
1212.827, 44439.00
1213.908, 44418.00
1214.988, 44264.00
1216.069, 44353.82
1217.149, 44390.00
1218.230, 44350.00
1219.310, 44437.00
1220.390, 44676.00
1221.470, 44151.00
1222.549, 44577.00
1223.629, 44666.00
1224.708, 44247.00
1225.787, 44382.00
1226.866, 44503.00
1227.945, 44421.00
1229.024, 44475.00
1230.103, 44631.00
1231.181, 44547.48
1232.259, 44544.00
1233.337, 44534.00
1234.415, 44342.00
1235.493, 44368.00
1236.571, 44336.00
1237.648, 44416.00
1238.726, 44360.33
1239.803, 44289.00
1240.880, 44282.00
1241.957, 44315.00
1243.034, 44270.39
1244.110, 44293.23
1245.187, 44307.00
1246.263, 44327.00
1247.339, 44330.70
1248.415, 44389.79
1249.491, 44327.00
1250.566, 44450.00
1251.642, 44443.00
1252.717, 44339.00
1253.793, 44254.00
1254.868, 44323.00
1255.943, 44227.00
1257.017, 44298.00
1258.092, 44274.00
1259.166, 43855.00
1260.241, 43851.00
1261.315, 43872.00
1262.389, 43994.00
1263.462, 44233.00
1264.536, 44123.66
1265.610, 44104.43
1266.683, 44164.00
1267.756, 43906.00
1268.829, 44260.00
1269.902, 44385.00
1270.975, 44226.00
1272.048, 44175.00
1273.120, 44190.00
1274.192, 43887.00
1275.264, 43830.00
1276.336, 44176.00
1277.408, 43871.00
1278.480, 43734.00
1279.551, 43546.00
1280.623, 44163.00
1281.694, 44020.00
1282.765, 44121.00
1283.836, 44206.00
1284.907, 44306.00
1285.977, 44350.00
1287.048, 44523.00
1288.118, 44222.00
1289.188, 44348.00
1290.258, 43848.00
1291.328, 44094.00
1292.398, 43999.00
1293.467, 44154.00
1294.537, 44167.00
1295.606, 44259.00
1296.675, 44263.67
1297.744, 44266.38
1298.813, 44242.00
1299.882, 44267.00
1300.950, 44275.04
1302.018, 44341.00
1303.086, 44254.00
1304.155, 44344.00
1305.222, 44350.00
1306.290, 44291.00
1307.358, 44336.00
1308.425, 44310.00
1309.492, 44299.42
1310.559, 44299.00
1311.626, 44303.00
1312.693, 44295.98
1313.760, 44345.00
1314.826, 44205.00
1315.893, 44319.00
1316.959, 44236.00
1318.025, 44501.00
1319.091, 44191.00
1320.157, 44384.00
1321.222, 44050.00
1322.288, 44328.00
1323.353, 44490.00
1324.418, 44160.00
1325.483, 44163.00
1326.548, 44504.00
1327.612, 44282.00
1328.677, 44473.00
1329.741, 44158.00
1330.806, 44457.00
1331.870, 44114.00
1332.934, 44449.00
1333.997, 44494.00
1335.061, 44155.00
1336.124, 44630.00
1337.188, 44281.00
1338.251, 44105.00
1339.314, 44208.00
1340.377, 44366.00
1341.439, 44250.00
1342.502, 44165.00
1343.564, 44091.00
1344.627, 44257.00
1345.689, 44373.00
1346.751, 44388.00
1347.813, 44413.14
1348.874, 44311.00
1349.936, 44337.00
1350.997, 44239.00
1352.058, 44206.00
1353.119, 44244.00
1354.180, 44220.00
1355.241, 44062.00
1356.301, 44603.00
1357.362, 44361.00
1358.422, 44148.00
1359.482, 44163.00
1360.542, 43869.00
1361.602, 44508.00
1362.662, 44098.00
1363.721, 44195.00
1364.781, 44281.00
1365.840, 44219.00
1366.899, 44265.00
1367.958, 44496.00
1369.017, 44328.00
1370.075, 44127.00
1371.134, 44351.00
1372.192, 44243.00
1373.250, 44343.00
1374.308, 44162.00
1375.366, 44169.00
1376.424, 44214.00
1377.481, 44386.00
1378.539, 44255.00
1379.596, 44358.00
1380.653, 44305.41
1381.710, 44170.00
1382.767, 44201.00
1383.824, 44185.00
1384.880, 44157.00
1385.937, 44230.00
1386.993, 44131.00
1388.049, 44285.00
1389.105, 44222.00
1390.161, 44357.00
1391.216, 44132.00
1392.272, 44122.00
1393.327, 44183.00
1394.382, 44130.00
1395.437, 44344.00
1396.492, 44261.00
1397.547, 44069.00
1398.601, 43867.00
1399.656, 44361.00
1400.710, 44411.00
1401.764, 44250.00
1402.818, 44295.00
1403.872, 44356.00
1404.925, 44285.00
1405.979, 44206.00
1407.032, 44293.00
1408.085, 44245.00
1409.139, 44349.00
1410.191, 44375.00
1411.244, 44061.00
1412.297, 44322.00
1413.349, 44180.00
1414.402, 44117.00
1415.454, 44425.00
1416.506, 44108.00
1417.558, 44462.00
1418.609, 44305.00
1419.661, 43953.00
1420.712, 44424.00
1421.764, 43895.00
1422.815, 44051.00
1423.866, 44003.00
1424.916, 44273.00
1425.967, 43954.00
1427.018, 44058.00
1428.068, 43848.00
1429.118, 44203.00
1430.168, 44202.00
1431.218, 43948.00
1432.268, 44216.00
1433.318, 44285.00
1434.367, 44220.00
1435.416, 44279.00
1436.465, 44454.00
1437.514, 44258.00
1438.563, 44672.00
1439.612, 44135.00
1440.661, 44386.00
1441.709, 44269.00
1442.757, 44187.00
1443.805, 44214.00
1444.853, 44190.00
1445.901, 44312.00
1446.949, 44270.11
1447.996, 44337.00
1449.044, 44336.00
1450.091, 44098.00
1451.138, 44283.00
1452.185, 44222.00
1453.232, 44104.00
1454.278, 44238.00
1455.325, 44224.00
1456.371, 44227.48
1457.417, 44411.00
1458.463, 44291.00
1459.509, 44374.00
1460.555, 44478.00
1461.601, 44233.00
1462.646, 44180.00
1463.691, 44073.00
1464.737, 44132.00
1465.782, 44118.00
1466.826, 44319.00
1467.871, 44315.00
1468.916, 44161.00
1469.960, 44414.00
1471.004, 43978.00
1472.048, 44068.00
1473.092, 44141.00
1474.136, 44195.00
1475.180, 44174.00
1476.223, 44279.00
1477.267, 44285.00
1478.310, 44200.00
1479.353, 44255.00
1480.396, 44269.38
1481.439, 44431.00
1482.481, 44340.00
1483.524, 44347.70
1484.566, 44323.29
1485.608, 44223.28
1486.650, 43996.00
1487.692, 44054.00
1488.734, 43943.00
1489.775, 43891.00
1490.817, 44011.00
1491.858, 44076.00
1492.899, 44272.00
1493.940, 44181.78
1494.981, 44200.00
1496.022, 44087.00
1497.062, 43972.00
1498.103, 44060.00
1499.143, 43937.00
1500.183, 43720.00
1501.223, 44119.00
1502.263, 43770.00
1503.302, 44197.00
1504.342, 44590.00
1505.381, 44361.00
1506.420, 44121.00
1507.459, 44127.00
1508.498, 44161.00
1509.537, 43896.00
1510.576, 44050.00
1511.614, 44105.00
1512.652, 44342.00
1513.691, 44090.00
1514.729, 44020.00
1515.767, 44210.00
1516.804, 44098.00
1517.842, 44150.00
1518.879, 44415.00
1519.917, 44393.00
1520.954, 44413.00
1521.991, 44416.95
1523.028, 44284.00
1524.064, 44288.00
1525.101, 44233.00
1526.137, 44206.00
1527.173, 44070.00
1528.210, 44271.00
1529.245, 43843.00
1530.281, 43961.00
1531.317, 43908.00
1532.352, 44177.00
1533.388, 44429.00
1534.423, 44037.00
1535.458, 44042.48
1536.493, 44217.51
1537.528, 44316.37
1538.562, 44343.14
1539.597, 44081.93
1540.631, 44192.59
1541.665, 44154.22
1542.700, 44109.74
1543.733, 44272.73
1544.767, 44053.41
1545.801, 44213.12
1546.834, 44221.52
1547.868, 44299.17
1548.901, 44226.87
1549.934, 44200.89
1550.967, 44324.90
1551.999, 44365.86
1553.032, 44276.30
1554.064, 44358.35
1555.097, 44133.79
1556.129, 44178.29
1557.161, 44338.86
1558.193, 44256.84
1559.224, 44341.64
1560.256, 44362.89
1561.287, 44095.43
1562.318, 44330.09
1563.350, 44229.00
1564.380, 44461.00
1565.411, 44196.00
1566.442, 44386.00
1567.472, 43834.00
1568.503, 44278.00
1569.533, 44011.00
1570.563, 44161.00
##END=



