##NAMES=Ilvaite
##RRUFFID=R050040
##IDEAL CHEMISTRY=CaFe^2+^_2_Fe^3+^OSi_2_O_7_(OH)
##LOCALITY=Capo Calamita, Isle of Elba, Italy
##OWNER=RRUFF
##SOURCE=University of Arizona Mineral Museum
##DESCRIPTION=Brown fragment
##STATUS=The identification of this mineral has been confirmed by X-ray diffraction and chemical analysis
##URL=rruff.info/R050040
##MEASURED CHEMISTRY=Ca_1.00_(Fe^2+^_1.89_Mn_0.10_Mg_0.01_)_Î£=2_Fe^3+^_1.00_OSi_2.00_O_7_(OH); trace amounts of Al; OH estimated by charge balance
##PIN_ID=M00423
##ORIENTATION=Laser parallel to -c* (0 0 -1). Fiducial mark perpendicular to laser is parallel to a [1 0 0]
136.2500, 49236.00
137.4850, 49485.00
138.7200, 50018.00
139.9550, 49886.00
141.1900, 48720.00
142.4250, 48258.00
143.6600, 48632.00
144.8940, 48459.00
146.1280, 48743.00
147.3620, 48951.00
148.5960, 48878.00
149.8300, 49492.00
151.0630, 50363.00
152.2960, 49985.00
153.5300, 49647.00
154.7620, 49730.00
155.9950, 48661.00
157.2280, 48482.00
158.4600, 48236.00
159.6920, 47781.00
160.9250, 48077.00
162.1560, 48390.00
163.3880, 48767.00
164.6200, 49075.00
165.8510, 49216.38
167.0820, 49529.00
168.3130, 49382.00
169.5440, 49162.00
170.7750, 49112.00
172.0050, 48697.00
173.2350, 47889.00
174.4650, 47896.00
175.6950, 47449.00
176.9250, 47484.00
178.1550, 46843.00
179.3840, 46637.00
180.6130, 46517.00
181.8420, 46754.00
183.0710, 46423.00
184.3000, 46762.00
185.5280, 47079.00
186.7570, 47328.00
187.9850, 47539.69
189.2130, 47791.39
190.4400, 47984.81
191.6680, 48199.00
192.8960, 48316.00
194.1230, 48461.00
195.3500, 48503.00
196.5770, 48565.00
197.8030, 48233.00
199.0300, 48948.00
200.2560, 49776.00
201.4830, 49549.00
202.7090, 48807.00
203.9340, 47528.00
205.1600, 45683.00
206.3860, 44813.00
207.6110, 44704.00
208.8360, 44487.00
210.0610, 44611.00
211.2860, 44808.00
212.5100, 44654.00
213.7350, 45542.00
214.9590, 44820.00
216.1830, 44531.00
217.4070, 45300.00
218.6310, 45377.00
219.8540, 44938.00
221.0780, 44556.00
222.3010, 44653.00
223.5240, 45043.00
224.7470, 44918.00
225.9690, 45019.00
227.1920, 44913.00
228.4140, 45059.00
229.6360, 45243.00
230.8580, 45074.00
232.0800, 44835.00
233.3020, 44909.00
234.5230, 44752.00
235.7440, 44593.00
236.9650, 44274.00
238.1860, 44099.00
239.4070, 43871.00
240.6280, 43854.00
241.8480, 43681.00
243.0680, 43255.00
244.2880, 43404.00
245.5080, 43215.00
246.7280, 43018.00
247.9470, 43115.00
249.1660, 43284.00
250.3860, 43319.00
251.6040, 43286.00
252.8230, 43441.00
254.0420, 43807.00
255.2600, 43835.00
256.4790, 44249.00
257.6970, 46238.00
258.9150, 45829.98
260.1320, 46064.21
261.3500, 46098.00
262.5670, 45530.00
263.7840, 45319.00
265.0010, 45418.00
266.2180, 45715.00
267.4350, 45983.00
268.6510, 46210.00
269.8680, 46737.00
271.0840, 46801.00
272.3000, 46924.00
273.5160, 47261.00
274.7310, 47739.00
275.9470, 48109.00
277.1620, 48332.00
278.3770, 48044.00
279.5920, 47691.00
280.8070, 47394.00
282.0210, 47304.00
283.2360, 46864.00
284.4500, 46368.00
285.6640, 46131.00
286.8780, 45591.00
288.0920, 45297.00
289.3050, 45235.00
290.5180, 44717.00
291.7320, 44174.00
292.9450, 44128.00
294.1570, 43731.00
295.3700, 43470.00
296.5830, 43357.00
297.7950, 43250.00
299.0070, 43490.00
300.2190, 43725.00
301.4310, 43653.00
302.6420, 43292.00
303.8540, 43377.70
305.0650, 43265.00
306.2760, 43162.00
307.4870, 43166.00
308.6980, 43049.00
309.9080, 43127.00
311.1190, 42999.00
312.3290, 43038.28
313.5390, 43327.00
314.7490, 43201.00
315.9580, 43336.00
317.1680, 43676.00
318.3770, 43482.00
319.5860, 44174.00
320.7950, 44042.00
322.0040, 44369.00
323.2130, 44680.00
324.4210, 44798.00
325.6290, 45236.00
326.8380, 45795.00
328.0460, 45860.00
329.2530, 45905.00
330.4610, 46606.00
331.6680, 46685.00
332.8760, 46711.00
334.0830, 46565.00
335.2890, 47014.00
336.4960, 46490.00
337.7030, 46601.00
338.9090, 46440.00
340.1150, 46081.00
341.3210, 46187.00
342.5270, 45847.00
343.7330, 46075.00
344.9380, 45601.00
346.1440, 45431.00
347.3490, 45205.12
348.5540, 44731.00
349.7590, 44627.00
350.9630, 44404.00
352.1680, 44238.00
353.3720, 44003.00
354.5760, 43719.76
355.7800, 43883.66
356.9840, 43954.18
358.1870, 43936.39
359.3910, 43565.55
360.5940, 43650.59
361.7970, 43552.95
363.0000, 43447.81
364.2030, 43597.00
365.4050, 43277.59
366.6080, 43422.75
367.8100, 43382.49
369.0120, 43427.11
370.2140, 43287.92
371.4150, 43193.00
372.6170, 43105.00
373.8180, 43052.00
375.0190, 43066.13
376.2200, 43376.00
377.4210, 43121.00
378.6220, 43312.00
379.8220, 43355.00
381.0230, 43283.00
382.2230, 43117.00
383.4230, 43518.00
384.6220, 43321.00
385.8220, 43475.00
387.0220, 43633.00
388.2210, 43672.00
389.4200, 43970.93
390.6190, 44338.00
391.8180, 44253.00
393.0160, 44299.00
394.2150, 43851.00
395.4130, 44027.13
396.6110, 43894.75
397.8090, 44065.00
399.0060, 44095.00
400.2040, 43964.00
401.4010, 44596.00
402.5980, 44620.00
403.7950, 44461.00
404.9920, 44834.00
406.1890, 44707.30
407.3860, 45424.00
408.5820, 44862.00
409.7780, 44724.00
410.9740, 45063.00
412.1700, 44838.00
413.3650, 44697.00
414.5610, 44998.00
415.7560, 45003.00
416.9510, 44781.00
418.1460, 45018.00
419.3410, 44873.00
420.5360, 44966.00
421.7300, 44822.00
422.9240, 45004.00
424.1180, 45030.84
425.3120, 45034.00
426.5060, 45099.00
427.7000, 45283.00
428.8930, 45085.00
430.0860, 45383.00
431.2790, 45379.00
432.4720, 45244.00
433.6650, 45199.00
434.8580, 45157.84
436.0500, 45124.98
437.2420, 45078.00
438.4340, 45124.00
439.6260, 45090.00
440.8180, 45084.00
442.0090, 45040.51
443.2010, 44818.00
444.3920, 44882.00
445.5830, 44709.00
446.7740, 44542.00
447.9640, 44781.00
449.1550, 44618.00
450.3450, 44571.00
451.5350, 44759.00
452.7250, 44846.00
453.9150, 44730.00
455.1050, 44769.00
456.2940, 44848.00
457.4830, 44907.00
458.6720, 44588.00
459.8610, 44696.00
461.0500, 44838.00
462.2390, 44745.00
463.4270, 45058.00
464.6150, 44876.00
465.8040, 44958.00
466.9910, 45201.00
468.1790, 44773.00
469.3670, 45339.00
470.5540, 44953.00
471.7410, 45102.00
472.9280, 44976.00
474.1150, 45299.00
475.3020, 45275.00
476.4890, 45419.00
477.6750, 45497.82
478.8610, 45408.00
480.0470, 45521.00
481.2330, 45631.00
482.4190, 45534.00
483.6040, 45767.00
484.7900, 45477.00
485.9750, 45630.00
487.1600, 45906.00
488.3450, 45784.00
489.5290, 45776.00
490.7140, 45618.00
491.8980, 46235.00
493.0820, 46207.00
494.2660, 46433.00
495.4500, 46664.00
496.6340, 46640.00
497.8170, 46988.00
499.0010, 46996.17
500.1840, 47084.00
501.3670, 47096.00
502.5500, 47082.00
503.7320, 47061.00
504.9150, 47028.00
506.0970, 47084.00
507.2790, 47215.00
508.4610, 47038.00
509.6430, 47194.00
510.8250, 46743.00
512.0060, 46984.00
513.1870, 46896.00
514.3680, 46917.00
515.5490, 47026.00
516.7300, 46909.00
517.9110, 46994.43
519.0910, 47054.00
520.2710, 47041.00
521.4510, 46994.00
522.6310, 46990.00
523.8110, 47077.00
524.9910, 46709.00
526.1700, 47068.00
527.3490, 46937.00
528.5280, 47207.00
529.7070, 46869.00
530.8860, 46635.00
532.0650, 47135.00
533.2430, 47241.00
534.4210, 47246.30
535.5990, 46896.00
536.7770, 47411.00
537.9550, 46339.00
539.1320, 46502.00
540.3100, 46856.00
541.4870, 46580.00
542.6640, 46590.00
543.8410, 46912.00
545.0170, 46325.00
546.1940, 46723.00
547.3700, 46938.00
548.5470, 46847.54
549.7230, 46099.00
550.8980, 47071.00
552.0740, 46181.00
553.2500, 46223.00
554.4250, 46189.00
555.6000, 45914.00
556.7750, 46183.00
557.9500, 46081.00
559.1250, 46013.00
560.2990, 45923.00
561.4730, 46072.00
562.6480, 45922.00
563.8220, 45958.13
564.9950, 45481.00
566.1690, 45863.00
567.3430, 45691.00
568.5160, 45465.00
569.6890, 45916.00
570.8620, 45913.00
572.0350, 45598.00
573.2070, 45087.00
574.3800, 45376.00
575.5520, 45399.00
576.7240, 45345.42
577.8960, 45111.00
579.0680, 45541.76
580.2400, 45157.30
581.4110, 45332.00
582.5830, 44559.00
583.7540, 44292.00
584.9250, 44308.00
586.0950, 44352.00
587.2660, 44028.00
588.4370, 44180.00
589.6070, 44182.00
590.7770, 44115.00
591.9470, 44105.44
593.1170, 43977.00
594.2860, 43990.00
595.4560, 43812.00
596.6250, 43870.00
597.7940, 43686.00
598.9630, 43837.00
600.1320, 43633.00
601.3000, 43408.00
602.4690, 43698.00
603.6370, 43916.00
604.8050, 43668.00
605.9730, 43931.00
607.1410, 43405.00
608.3090, 43639.00
609.4760, 43745.00
610.6430, 43649.00
611.8100, 43438.00
612.9770, 43395.00
614.1440, 43213.00
615.3110, 43265.00
616.4770, 43297.00
617.6430, 43334.00
618.8090, 43198.00
619.9750, 43470.00
621.1410, 43219.00
622.3070, 43671.00
623.4720, 43506.88
624.6370, 43107.00
625.8020, 43423.00
626.9670, 43052.00
628.1320, 43093.00
629.2970, 43139.00
630.4610, 43077.00
631.6250, 43196.00
632.7890, 43051.00
633.9530, 43025.00
635.1170, 43144.00
636.2810, 43025.00
637.4440, 42997.00
638.6070, 43030.00
639.7700, 43159.00
640.9330, 43164.00
642.0960, 43103.00
643.2590, 43217.00
644.4210, 43250.00
645.5830, 43006.00
646.7450, 42909.00
647.9070, 43046.00
649.0690, 42849.00
650.2310, 43005.00
651.3920, 42924.00
652.5530, 42803.00
653.7140, 43010.00
654.8750, 43064.00
656.0360, 42953.55
657.1970, 43299.00
658.3570, 42822.00
659.5170, 43023.00
660.6770, 43120.00
661.8370, 42747.00
662.9970, 42732.00
664.1570, 42645.00
665.3160, 42746.00
666.4750, 42822.00
667.6340, 42573.00
668.7930, 42628.00
669.9520, 42853.00
671.1110, 42812.00
672.2690, 42610.00
673.4270, 42881.00
674.5850, 42650.00
675.7430, 42748.00
676.9010, 42852.00
678.0590, 42756.00
679.2160, 42856.00
680.3730, 42719.00
681.5300, 42636.00
682.6870, 43112.00
683.8440, 42817.00
685.0010, 43052.00
686.1570, 42957.00
687.3130, 42935.00
688.4690, 43285.00
689.6250, 43455.00
690.7810, 43514.00
691.9370, 43698.00
693.0920, 43642.00
694.2470, 43743.00
695.4020, 43941.60
696.5570, 44205.00
697.7120, 44460.00
698.8670, 44486.00
700.0210, 44945.00
701.1750, 45190.00
702.3290, 45047.00
703.4830, 45185.00
704.6370, 45274.00
705.7910, 45091.00
706.9440, 44891.00
708.0970, 44430.00
709.2510, 44265.00
710.4030, 43854.00
711.5560, 43850.00
712.7090, 43333.00
713.8610, 43356.00
715.0140, 43137.00
716.1660, 42729.00
717.3180, 42863.00
718.4690, 42840.00
719.6210, 43103.00
720.7730, 42886.00
721.9240, 42827.00
723.0750, 42542.00
724.2260, 42754.00
725.3770, 42676.00
726.5270, 42951.00
727.6780, 42813.98
728.8280, 42922.00
729.9780, 42638.00
731.1280, 42558.00
732.2780, 42569.00
733.4280, 42557.00
734.5770, 42495.00
735.7260, 42450.71
736.8760, 42507.00
738.0250, 42306.00
739.1730, 42422.00
740.3220, 42375.00
741.4700, 42218.22
742.6190, 42456.80
743.7670, 42601.99
744.9150, 42658.81
746.0630, 42362.62
747.2100, 42522.25
748.3580, 42499.22
749.5050, 42468.68
750.6520, 42692.47
751.7990, 42447.61
752.9460, 42667.36
754.0930, 42701.64
755.2390, 42820.79
756.3860, 42756.16
757.5320, 42748.27
758.6780, 42924.25
759.8240, 42998.42
760.9690, 42858.56
762.1150, 42780.00
763.2600, 42833.00
764.4060, 42747.00
765.5510, 42771.88
766.6950, 42647.00
767.8400, 42828.00
768.9850, 42684.00
770.1290, 42760.00
771.2730, 42655.00
772.4170, 42646.00
773.5610, 42532.00
774.7050, 42652.00
775.8480, 42613.00
776.9920, 42696.00
778.1350, 42573.00
779.2780, 42555.48
780.4210, 42726.00
781.5640, 42471.00
782.7060, 42398.00
783.8490, 42456.00
784.9910, 42574.00
786.1330, 42714.00
787.2750, 42616.00
788.4170, 42734.00
789.5580, 42705.17
790.7000, 42947.00
791.8410, 43095.42
792.9820, 43155.48
794.1230, 42862.54
795.2640, 43025.43
796.4040, 43005.62
797.5450, 42978.35
798.6850, 43205.37
799.8250, 42963.75
800.9650, 43186.74
802.1050, 43224.27
803.2450, 43346.67
804.3840, 43285.25
805.5230, 43280.60
806.6630, 43459.84
807.8020, 43537.25
808.9400, 43454.64
810.0790, 43307.00
811.2170, 43438.00
812.3560, 43349.00
813.4940, 43666.00
814.6320, 43749.00
815.7700, 43592.00
816.9070, 43692.00
818.0450, 43689.00
819.1820, 43532.00
820.3190, 43743.00
821.4560, 43491.00
822.5930, 43838.00
823.7300, 43528.00
824.8670, 43596.00
826.0030, 43602.00
827.1390, 43504.00
828.2750, 43405.00
829.4110, 43523.00
830.5470, 43427.23
831.6820, 43454.00
832.8180, 43378.00
833.9530, 43258.00
835.0880, 42972.72
836.2230, 43202.41
837.3580, 43338.72
838.4920, 43386.65
839.6270, 43081.60
840.7610, 43232.36
841.8950, 43200.45
843.0290, 43161.04
844.1630, 43375.96
845.2960, 43122.22
846.4300, 43333.11
847.5630, 43358.51
848.6960, 43468.80
849.8290, 43531.00
850.9620, 43535.00
852.0940, 43656.00
853.2270, 43543.00
854.3590, 43506.00
855.4910, 43594.00
856.6230, 43611.00
857.7550, 43786.00
858.8870, 43503.00
860.0180, 43794.00
861.1500, 43583.00
862.2810, 43874.00
863.4120, 43648.00
864.5430, 43756.00
865.6730, 43839.00
866.8040, 44015.00
867.9340, 43998.52
869.0640, 44238.00
870.1940, 43927.00
871.3240, 43974.00
872.4540, 43802.00
873.5830, 44123.00
874.7130, 44065.00
875.8420, 44075.94
876.9710, 44143.00
878.1000, 44203.00
879.2290, 44239.00
880.3570, 44596.00
881.4860, 44217.00
882.6140, 44561.00
883.7420, 44348.00
884.8700, 44428.00
885.9980, 44661.00
887.1250, 44598.00
888.2530, 44643.12
889.3800, 44669.00
890.5070, 44532.00
891.6340, 44522.00
892.7610, 44390.00
893.8880, 44494.00
895.0140, 44537.00
896.1400, 44524.00
897.2670, 44526.00
898.3930, 44602.00
899.5180, 44547.00
900.6440, 44717.00
901.7700, 44550.00
902.8950, 44321.00
904.0200, 44466.00
905.1450, 44117.00
906.2700, 44233.32
907.3950, 44511.00
908.5190, 44395.00
909.6440, 44220.00
910.7680, 44394.00
911.8920, 44268.00
913.0160, 44604.00
914.1400, 44506.00
915.2630, 44504.00
916.3870, 44443.00
917.5100, 44716.00
918.6330, 44428.00
919.7560, 44568.00
920.8790, 44678.00
922.0010, 44482.00
923.1240, 44535.00
924.2460, 44781.00
925.3680, 44897.00
926.4900, 44648.00
927.6120, 44572.00
928.7340, 44724.00
929.8550, 44699.00
930.9760, 44654.00
932.0980, 44815.00
933.2190, 44766.00
934.3390, 44792.00
935.4600, 44724.00
936.5810, 44711.00
937.7010, 44737.57
938.8210, 44913.00
939.9410, 44830.00
941.0610, 44846.00
942.1810, 44971.00
943.3010, 44796.00
944.4200, 44828.00
945.5390, 44856.00
946.6580, 44781.00
947.7770, 44938.00
948.8960, 44790.00
950.0150, 44596.00
951.1330, 45063.00
952.2510, 44720.00
953.3690, 44958.00
954.4870, 45222.00
955.6050, 44918.00
956.7230, 45322.00
957.8400, 45059.00
958.9580, 45065.00
960.0750, 45236.00
961.1920, 45401.00
962.3090, 45321.00
963.4250, 45553.00
964.5420, 45437.00
965.6580, 45533.00
966.7740, 45672.00
967.8900, 45601.00
969.0060, 45792.00
970.1220, 45994.00
971.2380, 46092.00
972.3530, 46019.00
973.4680, 46038.00
974.5830, 46091.00
975.6980, 46207.00
976.8130, 46339.00
977.9280, 46504.00
979.0420, 46362.00
980.1560, 46311.00
981.2710, 46539.00
982.3850, 46266.00
983.4980, 46330.00
984.6120, 46496.00
985.7260, 46476.00
986.8390, 46304.00
987.9520, 46308.00
989.0650, 46171.00
990.1780, 45657.00
991.2910, 45940.00
992.4030, 45826.00
993.5160, 46235.00
994.6280, 45656.00
995.7400, 45308.00
996.8520, 45475.00
997.9640, 45620.00
999.0750, 45471.00
1000.187, 45644.00
1001.298, 45378.00
1002.409, 45070.00
1003.520, 45211.00
1004.631, 45395.00
1005.741, 45060.00
1006.852, 45155.00
1007.962, 45291.00
1009.072, 44887.00
1010.182, 45092.00
1011.292, 45182.00
1012.402, 45222.00
1013.511, 45248.73
1014.621, 44826.00
1015.730, 45138.00
1016.839, 45128.00
1017.948, 45001.00
1019.056, 45207.00
1020.165, 44943.00
1021.273, 44902.00
1022.382, 44928.00
1023.490, 44937.00
1024.598, 44934.00
1025.706, 44986.29
1026.813, 45010.00
1027.921, 45039.00
1029.028, 45086.00
1030.135, 45021.00
1031.242, 45026.00
1032.349, 45062.00
1033.456, 45088.00
1034.562, 44971.00
1035.668, 45132.00
1036.775, 44967.00
1037.881, 45031.00
1038.987, 45177.00
1040.092, 45108.00
1041.198, 45128.00
1042.303, 45193.00
1043.408, 45115.00
1044.514, 45087.00
1045.618, 45389.00
1046.723, 45154.00
1047.828, 45399.00
1048.932, 45233.00
1050.037, 45209.00
1051.141, 45277.00
1052.245, 45289.00
1053.349, 45228.00
1054.452, 45276.36
1055.556, 45219.00
1056.659, 45263.00
1057.762, 45218.00
1058.865, 45147.00
1059.968, 45230.41
1061.071, 45335.00
1062.174, 45323.00
1063.276, 45207.00
1064.378, 45178.00
1065.480, 45522.00
1066.582, 45152.00
1067.684, 45164.00
1068.786, 45509.00
1069.887, 45379.00
1070.988, 45140.00
1072.090, 45304.00
1073.191, 45211.00
1074.291, 45087.00
1075.392, 45237.00
1076.493, 45297.00
1077.593, 45343.00
1078.693, 45394.00
1079.793, 45212.00
1080.893, 45287.00
1081.993, 45300.00
1083.092, 45428.00
1084.192, 45275.00
1085.291, 45260.00
1086.390, 45253.47
1087.489, 45213.55
1088.588, 45239.00
1089.686, 45224.00
1090.785, 45219.70
1091.883, 45327.00
1092.981, 45195.00
1094.079, 45147.00
1095.177, 45083.00
1096.275, 45317.00
1097.373, 45069.00
1098.470, 45206.00
1099.567, 45209.00
1100.664, 45094.00
1101.761, 44976.00
1102.858, 45221.00
1103.954, 45302.00
1105.051, 45099.00
1106.147, 44936.00
1107.243, 44972.63
1108.339, 44807.57
1109.435, 45005.86
1110.531, 45110.78
1111.626, 45127.35
1112.722, 44790.90
1113.817, 44910.30
1114.912, 44847.02
1116.007, 44776.25
1117.101, 44959.81
1118.196, 44674.72
1119.290, 44854.25
1120.385, 44848.31
1121.479, 44927.27
1122.573, 44822.41
1123.666, 44774.34
1124.760, 44910.12
1125.853, 44944.11
1126.947, 44818.10
1128.040, 44902.46
1129.133, 44610.98
1130.226, 44649.30
1131.318, 44829.94
1132.411, 44713.18
1133.503, 44800.92
1134.596, 44810.77
1135.688, 44466.71
1136.780, 44738.15
1137.871, 44743.42
1138.963, 44475.36
1140.054, 44725.73
1141.146, 44495.35
1142.237, 44436.57
1143.328, 44506.94
1144.419, 44442.68
1145.509, 44590.68
1146.600, 44575.00
1147.690, 44581.22
1148.780, 44568.30
1149.870, 44649.00
1150.960, 44599.00
1152.050, 44557.00
1153.139, 44535.00
1154.229, 44410.00
1155.318, 44557.00
1156.407, 44547.00
1157.496, 44431.00
1158.585, 44071.00
1159.674, 43946.00
1160.762, 44241.00
1161.850, 44132.00
1162.939, 44377.00
1164.027, 44448.00
1165.114, 44544.00
1166.202, 44575.00
1167.290, 44375.00
1168.377, 44291.00
1169.464, 44113.00
1170.551, 44461.00
1171.638, 44172.00
1172.725, 44342.00
1173.812, 44161.00
1174.898, 44480.00
1175.984, 44298.29
1177.071, 44374.97
1178.157, 44127.00
1179.242, 44312.00
1180.328, 44372.00
1181.414, 44091.00
1182.499, 44171.00
1183.584, 44263.00
1184.669, 44245.00
1185.754, 44114.83
1186.839, 44317.00
1187.924, 44425.78
1189.008, 44446.22
1190.092, 44113.65
1191.177, 44236.91
1192.260, 44177.50
1193.344, 44110.60
1194.428, 44298.03
1195.512, 44016.80
1196.595, 44200.20
1197.678, 44198.14
1198.761, 44280.95
1199.844, 44179.96
1200.927, 44135.75
1202.009, 44275.41
1203.092, 44313.25
1204.174, 44191.11
1205.256, 44279.34
1206.338, 43991.71
1207.420, 44033.90
1208.502, 44218.39
1209.583, 44105.50
1210.665, 44197.09
1211.746, 44210.81
1212.827, 43870.61
1213.908, 44161.00
1214.988, 44430.00
1216.069, 44008.00
1217.149, 43912.00
1218.230, 44033.40
1219.310, 44339.00
1220.390, 44278.00
1221.470, 44118.00
1222.549, 44399.00
1223.629, 44496.00
1224.708, 44292.00
1225.787, 43927.00
1226.866, 44117.00
1227.945, 44099.00
1229.024, 44054.00
1230.103, 44073.00
1231.181, 44143.00
1232.259, 44202.00
1233.337, 44239.59
1234.415, 44208.21
1235.493, 44209.00
1236.571, 44157.00
1237.648, 44187.25
1238.726, 44209.16
1239.803, 44190.00
1240.880, 44270.00
1241.957, 44174.00
1243.034, 44134.00
1244.110, 44083.00
1245.187, 44136.00
1246.263, 44441.00
1247.339, 44135.00
1248.415, 44407.00
1249.491, 44231.00
1250.566, 44088.00
1251.642, 44465.00
1252.717, 44299.00
1253.793, 44273.00
1254.868, 44340.00
1255.943, 44306.00
1257.017, 44345.00
1258.092, 44514.00
1259.166, 44213.00
1260.241, 44664.00
1261.315, 44293.00
1262.389, 44232.00
1263.462, 44138.00
1264.536, 43874.00
1265.610, 43969.00
1266.683, 43858.00
1267.756, 44180.00
1268.829, 44150.00
1269.902, 43994.00
1270.975, 44146.00
1272.048, 43881.00
1273.120, 43950.09
1274.192, 44075.00
1275.264, 44007.00
1276.336, 44009.00
1277.408, 44129.00
1278.480, 43927.00
1279.551, 44275.00
1280.623, 44284.00
1281.694, 44099.00
1282.765, 44431.00
1283.836, 44271.00
1284.907, 44029.00
1285.977, 44274.00
1287.048, 44459.00
1288.118, 44356.00
1289.188, 44114.48
1290.258, 44333.18
1291.328, 44458.51
1292.398, 44495.47
1293.467, 44179.43
1294.537, 44319.22
1295.606, 44276.33
1296.675, 44225.95
1297.744, 44429.89
1298.813, 44165.19
1299.882, 44365.10
1300.950, 44379.54
1302.018, 44478.86
1303.086, 44394.38
1304.155, 44366.67
1305.222, 44522.82
1306.290, 44577.17
1307.358, 44471.53
1308.425, 44576.24
1309.492, 44305.11
1310.559, 44363.79
1311.626, 44564.76
1312.693, 44468.36
1313.760, 44576.43
1314.826, 44606.62
1315.893, 44282.90
1316.959, 44574.68
1318.025, 44600.27
1319.091, 44352.54
1320.157, 44623.23
1321.222, 44413.18
1322.288, 44374.73
1323.353, 44465.40
1324.418, 44421.46
1325.483, 44589.75
1326.548, 44553.59
1327.612, 44499.15
1328.677, 44524.43
1329.741, 44323.81
1330.806, 44542.29
1331.870, 44474.48
1332.934, 44548.98
1333.997, 44655.73
1335.061, 44515.51
1336.124, 44636.75
1337.188, 44352.52
1338.251, 44407.56
1339.314, 44426.07
1340.377, 44661.44
1341.439, 44379.18
1342.502, 44424.79
1343.564, 44610.01
1344.627, 44599.89
1345.689, 44671.44
1346.751, 44501.20
1347.813, 44525.00
1348.874, 44628.00
1349.936, 44678.00
1350.997, 44652.00
1352.058, 44460.00
1353.119, 44519.00
1354.180, 44490.00
1355.241, 44632.00
1356.301, 44496.00
1357.362, 44494.00
1358.422, 44786.00
1359.482, 44780.00
1360.542, 44453.00
1361.602, 44806.00
1362.662, 44842.00
1363.721, 44571.00
1364.781, 44423.11
1365.840, 44640.29
1366.899, 44764.10
1367.958, 44799.54
1369.017, 44481.98
1370.075, 44620.24
1371.134, 44575.84
1372.192, 44523.93
1373.250, 44726.36
1374.308, 44460.14
1375.366, 44658.53
1376.424, 44671.45
1377.481, 44769.26
1378.539, 44683.26
1379.596, 44654.03
1380.653, 44808.66
1381.710, 44861.49
1382.767, 44754.33
1383.824, 44857.54
1384.880, 44584.88
1385.937, 44642.05
1386.993, 44841.51
1388.049, 44743.58
1389.105, 44850.14
1390.161, 44878.82
1391.216, 44553.58
1392.272, 44843.84
1393.327, 44867.91
1394.382, 44618.68
1395.437, 44887.84
1396.492, 44676.29
1397.547, 44636.32
1398.601, 44725.48
1399.656, 44680.03
1400.710, 44846.81
1401.764, 44809.12
1402.818, 44753.18
1403.872, 44776.95
1404.925, 44574.81
1405.979, 44791.78
1407.032, 44722.46
1408.085, 44795.45
1409.139, 44900.69
1410.191, 44845.00
1411.244, 44931.00
1412.297, 44763.00
1413.349, 44900.00
1414.402, 44879.00
1415.454, 44903.00
1416.506, 44782.00
1417.558, 44959.00
1418.609, 44777.00
1419.661, 44900.00
1420.712, 45018.00
1421.764, 44908.00
1422.815, 44891.00
1423.866, 44626.00
1424.916, 44817.00
1425.967, 44625.00
1427.018, 44621.00
1428.068, 44751.68
1429.118, 44792.00
1430.168, 45151.00
1431.218, 45150.72
1432.268, 45205.00
1433.318, 45188.00
1434.367, 45074.00
1435.416, 45087.96
1436.465, 45025.90
1437.514, 45025.00
1438.563, 44930.00
1439.612, 44938.00
1440.661, 44862.00
1441.709, 45011.00
1442.757, 44747.00
1443.805, 44806.80
1444.853, 45019.20
1445.901, 45138.23
1446.949, 45168.90
1447.996, 44846.56
1449.044, 44980.05
1450.091, 44930.87
1451.138, 44874.20
1452.185, 45071.85
1453.232, 44800.86
1454.278, 44994.48
1455.325, 45002.63
1456.371, 45095.67
1457.417, 45004.90
1458.463, 44970.90
1459.509, 45120.77
1460.555, 45168.83
1461.601, 45056.91
1462.646, 45155.34
1463.691, 44877.93
1464.737, 44930.32
1465.782, 45125.02
1466.826, 45022.34
1467.871, 45124.13
1468.916, 45148.05
1469.960, 44818.05
1471.004, 45103.55
1472.048, 45122.86
1473.092, 44868.86
1474.136, 45133.28
1475.180, 44916.96
1476.223, 44872.23
1477.267, 44956.64
1478.310, 44906.43
1479.353, 45068.46
1480.396, 45026.02
1481.439, 44965.32
1482.481, 44984.34
1483.524, 44777.45
1484.566, 44989.66
1485.608, 44915.59
1486.650, 44983.83
1487.692, 45084.32
1488.734, 44937.84
1489.775, 45052.82
1490.817, 44762.33
1491.858, 44811.12
1492.899, 44823.37
1493.940, 45052.48
1494.981, 44763.96
1496.022, 44803.32
1497.062, 44982.29
1498.103, 44965.91
1499.143, 45031.21
1500.183, 44854.72
1501.223, 44905.38
1502.263, 44893.42
1503.302, 45097.81
1504.342, 45131.41
1505.381, 44959.02
1506.420, 44787.51
1507.459, 45007.47
1508.498, 44856.39
1509.537, 44905.48
1510.576, 44747.84
1511.614, 44768.70
1512.652, 44786.73
1513.691, 44896.26
1514.729, 44728.32
1515.767, 44920.30
1516.804, 44904.27
1517.842, 44949.50
1518.879, 44987.93
1519.917, 44747.20
1520.954, 44735.31
1521.991, 45050.86
1523.028, 44867.04
1524.064, 44784.02
1525.101, 44772.64
1526.137, 45099.40
1527.173, 45111.87
1528.210, 44748.65
1529.245, 45060.52
1530.281, 44957.05
1531.317, 44977.02
1532.352, 44951.95
1533.388, 44940.21
1534.423, 44758.93
1535.458, 44801.07
1536.493, 45024.89
1537.528, 44938.99
1538.562, 45063.54
1539.597, 44804.55
1540.631, 44773.22
1541.665, 44802.32
1542.700, 44853.46
1543.733, 44728.51
1544.767, 44955.72
1545.801, 44948.45
1546.834, 44737.98
1547.868, 44747.94
1548.901, 44721.30
1549.934, 45075.68
1550.967, 44906.20
1551.999, 44699.63
1553.032, 44908.35
1554.064, 44983.96
1555.097, 44879.61
1556.129, 44870.89
1557.161, 44680.75
1558.193, 44768.82
1559.224, 44761.21
1560.256, 44911.25
1561.287, 44721.84
1562.318, 44923.20
1563.350, 44742.90
1564.380, 44960.09
1565.411, 44771.71
1566.442, 44944.62
1567.472, 44686.29
1568.503, 44740.08
1569.533, 45184.00
1570.563, 45300.00
##END=



