##NAMES=Ilvaite
##RRUFFID=R050040
##IDEAL CHEMISTRY=CaFe^2+^_2_Fe^3+^OSi_2_O_7_(OH)
##LOCALITY=Capo Calamita, Isle of Elba, Italy
##OWNER=RRUFF
##SOURCE=University of Arizona Mineral Museum
##DESCRIPTION=Brown fragment
##STATUS=The identification of this mineral has been confirmed by X-ray diffraction and chemical analysis
##URL=rruff.info/R050040
##MEASURED CHEMISTRY=Ca_1.00_(Fe^2+^_1.89_Mn_0.10_Mg_0.01_)_Î£=2_Fe^3+^_1.00_OSi_2.00_O_7_(OH); trace amounts of Al; OH estimated by charge balance
##PIN_ID=M00123
##ORIENTATION=Laser parallel to (1 0 1). Fiducial mark perpendicular to laser is parallel to b [0 1 0]
159.6920, 44874.00
160.9250, 44880.00
162.1560, 45225.00
163.3880, 45563.00
164.6200, 45717.00
165.8510, 45698.00
167.0820, 46024.00
168.3130, 45878.00
169.5440, 46002.00
170.7750, 46625.00
172.0050, 46287.00
173.2350, 46068.00
174.4650, 45459.00
175.6950, 45416.00
176.9250, 45305.00
178.1550, 45160.00
179.3840, 45474.00
180.6130, 45237.00
181.8420, 44809.00
183.0710, 45177.00
184.3000, 45433.00
185.5280, 45392.00
186.7570, 45808.00
187.9850, 45851.00
189.2130, 46313.00
190.4400, 46581.00
191.6680, 47185.00
192.8960, 47447.00
194.1230, 47812.00
195.3500, 47751.00
196.5770, 47966.00
197.8030, 48284.00
199.0300, 47992.00
200.2560, 48453.00
201.4830, 48953.00
202.7090, 48511.00
203.9340, 47096.00
205.1600, 45449.00
206.3860, 43862.00
207.6110, 43135.00
208.8360, 42909.00
210.0610, 43160.00
211.2860, 43015.00
212.5100, 43217.00
213.7350, 43289.00
214.9590, 43486.00
216.1830, 43368.23
217.4070, 43306.67
218.6310, 43043.00
219.8540, 43099.00
221.0780, 42851.00
222.3010, 43020.00
223.5240, 43093.00
224.7470, 43109.00
225.9690, 43141.73
227.1920, 43075.08
228.4140, 43059.00
229.6360, 42898.00
230.8580, 42777.00
232.0800, 42691.67
233.3020, 42993.00
234.5230, 42687.00
235.7440, 42669.00
236.9650, 42502.00
238.1860, 42109.00
239.4070, 41898.00
240.6280, 42008.00
241.8480, 41792.00
243.0680, 41723.00
244.2880, 41584.00
245.5080, 41531.39
246.7280, 41513.00
247.9470, 41519.00
249.1660, 41471.00
250.3860, 41554.00
251.6040, 41495.25
252.8230, 41280.00
254.0420, 41463.00
255.2600, 41269.80
256.4790, 41639.70
257.6970, 41901.63
258.9150, 42061.49
260.1320, 41813.45
261.3500, 42092.09
262.5670, 42159.60
263.7840, 42218.46
265.0010, 42571.12
266.2180, 42382.39
267.4350, 42730.39
268.6510, 43075.00
269.8680, 43102.00
271.0840, 43240.00
272.3000, 43623.00
273.5160, 43587.00
274.7310, 43942.00
275.9470, 44002.00
277.1620, 44063.00
278.3770, 43625.00
279.5920, 43664.00
280.8070, 43858.00
282.0210, 43453.00
283.2360, 43669.00
284.4500, 42912.00
285.6640, 43612.00
286.8780, 42971.00
288.0920, 43093.00
289.3050, 43088.00
290.5180, 42677.00
291.7320, 42980.00
292.9450, 42764.00
294.1570, 42513.00
295.3700, 42474.00
296.5830, 42661.00
297.7950, 42583.00
299.0070, 42661.00
300.2190, 42573.00
301.4310, 42664.00
302.6420, 42441.00
303.8540, 42503.00
305.0650, 42758.00
306.2760, 42373.00
307.4870, 42911.00
308.6980, 42926.00
309.9080, 42621.00
311.1190, 42667.00
312.3290, 43023.00
313.5390, 43155.00
314.7490, 43040.00
315.9580, 43484.00
317.1680, 43481.00
318.3770, 44003.00
319.5860, 44282.00
320.7950, 44402.00
322.0040, 44674.00
323.2130, 45331.00
324.4210, 46224.00
325.6290, 46060.00
326.8380, 46476.00
328.0460, 46495.00
329.2530, 47152.00
330.4610, 47448.00
331.6680, 47369.00
332.8760, 47393.00
334.0830, 47345.00
335.2890, 47465.00
336.4960, 47044.00
337.7030, 46816.00
338.9090, 46683.00
340.1150, 46176.00
341.3210, 45790.00
342.5270, 45732.00
343.7330, 45303.00
344.9380, 44916.00
346.1440, 44758.00
347.3490, 44717.00
348.5540, 44421.09
349.7590, 44235.00
350.9630, 44033.00
352.1680, 43750.00
353.3720, 43547.00
354.5760, 43561.00
355.7800, 43559.00
356.9840, 43771.00
358.1870, 43421.00
359.3910, 43046.00
360.5940, 43298.00
361.7970, 43143.00
363.0000, 42893.00
364.2030, 43392.00
365.4050, 43071.28
366.6080, 43091.65
367.8100, 42886.00
369.0120, 42873.00
370.2140, 42750.00
371.4150, 42572.00
372.6170, 42531.00
373.8180, 42629.00
375.0190, 42492.00
376.2200, 42429.00
377.4210, 42532.00
378.6220, 42078.00
379.8220, 42269.00
381.0230, 42190.00
382.2230, 42471.00
383.4230, 42311.00
384.6220, 42248.00
385.8220, 42629.00
387.0220, 42620.00
388.2210, 42259.00
389.4200, 42364.00
390.6190, 42814.00
391.8180, 42975.00
393.0160, 42693.00
394.2150, 42485.00
395.4130, 42551.00
396.6110, 42490.00
397.8090, 42487.00
399.0060, 42511.25
400.2040, 42536.45
401.4010, 42576.00
402.5980, 42694.00
403.7950, 42813.00
404.9920, 42985.00
406.1890, 42964.00
407.3860, 42663.00
408.5820, 42985.00
409.7780, 43014.00
410.9740, 43520.00
412.1700, 42958.00
413.3650, 43110.00
414.5610, 43430.00
415.7560, 43623.00
416.9510, 43657.00
418.1460, 43745.00
419.3410, 43808.00
420.5360, 43995.00
421.7300, 44100.97
422.9240, 44200.00
424.1180, 44427.00
425.3120, 44290.00
426.5060, 44489.00
427.7000, 44242.00
428.8930, 44658.00
430.0860, 44603.00
431.2790, 44469.00
432.4720, 44316.00
433.6650, 44605.00
434.8580, 44406.00
436.0500, 44590.00
437.2420, 44274.00
438.4340, 44285.00
439.6260, 44459.00
440.8180, 44386.00
442.0090, 44474.00
443.2010, 44248.00
444.3920, 44360.00
445.5830, 44048.00
446.7740, 44402.00
447.9640, 44385.00
449.1550, 44340.00
450.3450, 44415.00
451.5350, 44329.00
452.7250, 44530.00
453.9150, 44262.00
455.1050, 44349.00
456.2940, 44421.00
457.4830, 44650.00
458.6720, 44746.00
459.8610, 44690.00
461.0500, 44822.00
462.2390, 44583.00
463.4270, 44856.00
464.6150, 44801.00
465.8040, 45037.00
466.9910, 44870.00
468.1790, 45011.00
469.3670, 45434.00
470.5540, 45351.00
471.7410, 45225.00
472.9280, 45503.00
474.1150, 45565.00
475.3020, 45558.70
476.4890, 46243.00
477.6750, 45736.00
478.8610, 45845.00
480.0470, 46268.00
481.2330, 46035.00
482.4190, 46092.00
483.6040, 46670.00
484.7900, 46557.00
485.9750, 46778.00
487.1600, 47337.00
488.3450, 47013.00
489.5290, 48025.00
490.7140, 47808.00
491.8980, 48077.00
493.0820, 48758.00
494.2660, 48995.00
495.4500, 49547.00
496.6340, 49848.00
497.8170, 50064.00
499.0010, 50074.00
500.1840, 50446.11
501.3670, 50574.00
502.5500, 50866.00
503.7320, 50922.00
504.9150, 50781.00
506.0970, 50500.00
507.2790, 50265.00
508.4610, 50101.00
509.6430, 50173.00
510.8250, 49798.00
512.0060, 49681.00
513.1870, 49649.00
514.3680, 49423.00
515.5490, 49650.00
516.7300, 49380.55
517.9110, 49283.00
519.0910, 48958.00
520.2710, 49173.00
521.4510, 48826.00
522.6310, 49068.00
523.8110, 49251.00
524.9910, 49186.00
526.1700, 49339.00
527.3490, 49259.00
528.5280, 48984.72
529.7070, 49178.98
530.8860, 49265.38
532.0650, 49249.70
533.2430, 48826.27
534.4210, 48929.42
535.5990, 48821.55
536.7770, 48705.02
537.9550, 48139.00
539.1320, 48734.00
540.3100, 48424.00
541.4870, 48371.00
542.6640, 48272.00
543.8410, 48119.00
545.0170, 48067.00
546.1940, 48066.00
547.3700, 47866.00
548.5470, 47856.00
549.7230, 47908.00
550.8980, 48005.00
552.0740, 47600.00
553.2500, 47479.00
554.4250, 47378.00
555.6000, 47154.00
556.7750, 47058.00
557.9500, 46751.00
559.1250, 47025.00
560.2990, 46752.00
561.4730, 46692.00
562.6480, 46752.00
563.8220, 46566.00
564.9950, 46597.00
566.1690, 46547.00
567.3430, 46426.00
568.5160, 46109.35
569.6890, 46367.98
570.8620, 46518.74
572.0350, 46567.43
573.2070, 46208.31
574.3800, 46375.79
575.5520, 46332.22
576.7240, 46280.00
577.8960, 46521.58
579.0680, 46221.78
580.2400, 46458.70
581.4110, 46481.36
582.5830, 46602.08
583.7540, 46510.46
584.9250, 46427.00
586.0950, 46211.00
587.2660, 45757.00
588.4370, 45303.00
589.6070, 45063.00
590.7770, 45122.00
591.9470, 44794.00
593.1170, 44616.00
594.2860, 44433.00
595.4560, 44171.00
596.6250, 43909.00
597.7940, 44079.00
598.9630, 43735.00
600.1320, 43716.00
601.3000, 43603.00
602.4690, 43501.00
603.6370, 43462.00
604.8050, 43303.00
605.9730, 43209.00
607.1410, 43239.00
608.3090, 43153.00
609.4760, 43183.00
610.6430, 43113.89
611.8100, 42864.00
612.9770, 43031.00
614.1440, 42818.00
615.3110, 42652.15
616.4770, 42880.33
617.6430, 43000.65
618.8090, 43018.89
619.9750, 42629.33
621.1410, 42766.36
622.3070, 42692.36
623.4720, 42609.71
624.6370, 42820.87
625.8020, 42490.64
626.9670, 42697.14
628.1320, 42689.39
629.2970, 42779.69
630.4610, 42657.68
631.6250, 42601.25
632.7890, 42757.21
633.9530, 42734.00
635.1170, 42639.00
636.2810, 42677.00
637.4440, 42465.00
638.6070, 42489.00
639.7700, 42457.00
640.9330, 42522.00
642.0960, 42677.00
643.2590, 42539.06
644.4210, 42573.00
645.5830, 42290.00
646.7450, 42563.00
647.9070, 42356.00
649.0690, 42690.00
650.2310, 42480.18
651.3920, 42460.00
652.5530, 42184.00
653.7140, 42149.00
654.8750, 42106.00
656.0360, 42216.00
657.1970, 42447.00
658.3570, 42559.00
659.5170, 42309.00
660.6770, 42347.00
661.8370, 42170.00
662.9970, 42209.00
664.1570, 42194.00
665.3160, 42108.00
666.4750, 41852.00
667.6340, 42250.00
668.7930, 41993.00
669.9520, 42138.00
671.1110, 42229.00
672.2690, 42259.00
673.4270, 42153.00
674.5850, 41864.00
675.7430, 42136.00
676.9010, 42343.00
678.0590, 41862.00
679.2160, 42209.00
680.3730, 42062.00
681.5300, 42332.00
682.6870, 42507.00
683.8440, 42761.00
685.0010, 42662.00
686.1570, 42459.00
687.3130, 42581.00
688.4690, 42958.00
689.6250, 42679.89
690.7810, 43191.93
691.9370, 43596.11
693.0920, 43897.98
694.2470, 43792.07
695.4020, 44212.73
696.5570, 45164.00
697.7120, 44724.00
698.8670, 45129.00
700.0210, 45400.00
701.1750, 45902.00
702.3290, 46145.00
703.4830, 45808.00
704.6370, 46101.00
705.7910, 45852.00
706.9440, 45776.00
708.0970, 45272.00
709.2510, 44998.00
710.4030, 44513.00
711.5560, 44230.00
712.7090, 43917.00
713.8610, 43674.00
715.0140, 43299.00
716.1660, 43195.00
717.3180, 42825.00
718.4690, 42671.00
719.6210, 42571.00
720.7730, 42511.00
721.9240, 42386.40
723.0750, 42349.00
724.2260, 42255.00
725.3770, 42263.00
726.5270, 42331.00
727.6780, 42241.00
728.8280, 42301.76
729.9780, 42155.00
731.1280, 42267.00
732.2780, 42282.00
733.4280, 42098.00
734.5770, 42150.00
735.7260, 41952.00
736.8760, 42011.00
738.0250, 41942.00
739.1730, 42002.00
740.3220, 42176.00
741.4700, 41938.00
742.6190, 42000.35
743.7670, 42155.00
744.9150, 42054.00
746.0630, 41913.00
747.2100, 42332.00
748.3580, 42207.00
749.5050, 41591.00
750.6520, 41826.00
751.7990, 41918.00
752.9460, 41988.00
754.0930, 41948.00
755.2390, 42199.00
756.3860, 42139.00
757.5320, 42035.00
758.6780, 42175.00
759.8240, 42082.25
760.9690, 42088.00
762.1150, 42013.00
763.2600, 41994.00
764.4060, 41878.00
765.5510, 42110.00
766.6950, 42044.00
767.8400, 42244.00
768.9850, 42277.00
770.1290, 42230.00
771.2730, 42438.89
772.4170, 42186.00
773.5610, 42565.00
774.7050, 42400.00
775.8480, 42082.00
776.9920, 42248.00
778.1350, 42098.00
779.2780, 42455.00
780.4210, 42337.00
781.5640, 42342.00
782.7060, 42318.00
783.8490, 42018.00
784.9910, 42024.00
786.1330, 42562.00
787.2750, 42345.00
788.4170, 42578.00
789.5580, 42664.00
790.7000, 42541.00
791.8410, 42557.00
792.9820, 42626.00
794.1230, 42605.00
795.2640, 42852.00
796.4040, 42654.00
797.5450, 42764.00
798.6850, 42667.00
799.8250, 42974.00
800.9650, 43017.00
802.1050, 43345.00
803.2450, 43258.00
804.3840, 43087.00
805.5230, 43375.00
806.6630, 43587.00
807.8020, 43732.00
808.9400, 43626.00
810.0790, 43842.00
811.2170, 44013.00
812.3560, 44362.00
813.4940, 44658.00
814.6320, 44648.00
815.7700, 44914.00
816.9070, 45006.00
818.0450, 45053.00
819.1820, 45190.00
820.3190, 45015.00
821.4560, 45095.00
822.5930, 44989.00
823.7300, 44848.00
824.8670, 44821.00
826.0030, 44367.00
827.1390, 44407.00
828.2750, 44206.00
829.4110, 44078.00
830.5470, 43942.00
831.6820, 43828.00
832.8180, 43851.00
833.9530, 43778.00
835.0880, 43565.00
836.2230, 43352.00
837.3580, 43473.00
838.4920, 43539.00
839.6270, 43531.00
840.7610, 43797.00
841.8950, 44018.00
843.0290, 43918.62
844.1630, 43618.00
845.2960, 43833.00
846.4300, 43648.00
847.5630, 43716.00
848.6960, 43921.00
849.8290, 44037.00
850.9620, 44035.00
852.0940, 44295.00
853.2270, 44241.00
854.3590, 44154.00
855.4910, 44276.00
856.6230, 44473.00
857.7550, 44375.00
858.8870, 44646.00
860.0180, 44615.00
861.1500, 44694.00
862.2810, 44491.00
863.4120, 44640.00
864.5430, 44787.00
865.6730, 44676.00
866.8040, 44757.00
867.9340, 44653.00
869.0640, 44391.00
870.1940, 44636.00
871.3240, 44261.00
872.4540, 44373.00
873.5830, 44688.00
874.7130, 44798.00
875.8420, 44670.00
876.9710, 44684.00
878.1000, 44651.00
879.2290, 44616.00
880.3570, 44574.00
881.4860, 44843.00
882.6140, 44792.00
883.7420, 44818.00
884.8700, 44805.00
885.9980, 44628.00
887.1250, 44692.00
888.2530, 44668.00
889.3800, 44741.00
890.5070, 44822.00
891.6340, 44980.00
892.7610, 44944.00
893.8880, 44930.00
895.0140, 44950.36
896.1400, 44878.00
897.2670, 44876.00
898.3930, 44849.00
899.5180, 44777.00
900.6440, 44714.00
901.7700, 44697.00
902.8950, 44873.00
904.0200, 44907.00
905.1450, 44692.00
906.2700, 44990.00
907.3950, 44723.00
908.5190, 44647.00
909.6440, 44675.00
910.7680, 45130.00
911.8920, 44874.00
913.0160, 45074.00
914.1400, 44896.00
915.2630, 45063.00
916.3870, 45218.00
917.5100, 45175.00
918.6330, 45395.00
919.7560, 45469.00
920.8790, 45306.00
922.0010, 45519.00
923.1240, 45445.00
924.2460, 45440.00
925.3680, 45574.00
926.4900, 45657.00
927.6120, 45716.00
928.7340, 45599.00
929.8550, 45917.00
930.9760, 46033.00
932.0980, 45717.00
933.2190, 45704.00
934.3390, 45960.00
935.4600, 45858.00
936.5810, 45630.00
937.7010, 45854.00
938.8210, 45920.00
939.9410, 45965.00
941.0610, 45717.00
942.1810, 45958.00
943.3010, 45876.00
944.4200, 46080.00
945.5390, 45972.00
946.6580, 45723.00
947.7770, 45995.00
948.8960, 45986.00
950.0150, 46062.00
951.1330, 46152.00
952.2510, 45869.00
953.3690, 46036.00
954.4870, 46298.00
955.6050, 46104.00
956.7230, 46626.00
957.8400, 46597.00
958.9580, 46542.00
960.0750, 46700.00
961.1920, 46967.00
962.3090, 46876.00
963.4250, 47105.00
964.5420, 47095.00
965.6580, 47518.00
966.7740, 47698.00
967.8900, 47915.00
969.0060, 47880.00
970.1220, 48478.00
971.2380, 48716.00
972.3530, 48517.00
973.4680, 49175.00
974.5830, 49199.95
975.6980, 50526.00
976.8130, 49921.00
977.9280, 50076.00
979.0420, 51012.00
980.1560, 50833.00
981.2710, 50803.00
982.3850, 51179.00
983.4980, 51220.00
984.6120, 50712.00
985.7260, 50927.00
986.8390, 50856.00
987.9520, 50910.00
989.0650, 50786.00
990.1780, 50729.00
991.2910, 50387.00
992.4030, 50073.00
993.5160, 49778.00
994.6280, 49669.73
995.7400, 49484.00
996.8520, 49548.00
997.9640, 49358.00
999.0750, 49308.00
1000.187, 48927.00
1001.298, 48822.00
1002.409, 48846.00
1003.520, 48212.00
1004.631, 48368.00
1005.741, 48479.00
1006.852, 48134.00
1007.962, 48307.00
1009.072, 48060.00
1010.182, 47794.00
1011.292, 47876.00
1012.402, 47561.00
1013.511, 47671.00
1014.621, 47668.00
1015.730, 47547.00
1016.839, 47450.00
1017.948, 47707.00
1019.056, 47524.00
1020.165, 47317.00
1021.273, 47518.00
1022.382, 47652.00
1023.490, 47583.00
1024.598, 47375.00
1025.706, 47602.00
1026.813, 47432.00
1027.921, 47475.00
1029.028, 47645.00
1030.135, 47721.00
1031.242, 47304.00
1032.349, 47494.00
1033.456, 47537.00
1034.562, 47609.00
1035.668, 47669.00
1036.775, 47778.00
1037.881, 47868.00
1038.987, 47743.00
1040.092, 47966.00
1041.198, 47789.00
1042.303, 47982.00
1043.408, 47885.00
1044.514, 47769.00
1045.618, 47860.00
1046.723, 47704.00
1047.828, 47936.00
1048.932, 47720.00
1050.037, 47788.00
1051.141, 47690.00
1052.245, 47757.00
1053.349, 47895.00
1054.452, 48044.00
1055.556, 47949.80
1056.659, 47585.00
1057.762, 47738.06
1058.865, 47558.00
1059.968, 47402.00
1061.071, 47624.00
1062.174, 47657.00
1063.276, 47616.00
1064.378, 47346.00
1065.480, 47760.00
1066.582, 47467.00
1067.684, 47807.00
1068.786, 47740.54
1069.887, 47752.00
1070.988, 47691.00
1072.090, 47615.68
1073.191, 47432.00
1074.291, 47463.00
1075.392, 47331.00
1076.493, 47297.00
1077.593, 47153.00
1078.693, 47142.00
1079.793, 47368.00
1080.893, 47103.00
1081.993, 47270.00
1083.092, 46908.00
1084.192, 47222.00
1085.291, 47371.00
1086.390, 47317.00
1087.489, 46887.00
1088.588, 47456.00
1089.686, 47508.00
1090.785, 46771.00
1091.883, 46941.00
1092.981, 46784.00
1094.079, 46957.00
1095.177, 46704.00
1096.275, 46986.00
1097.373, 46935.00
1098.470, 46881.00
1099.567, 46724.00
1100.664, 46978.00
1101.761, 46747.00
1102.858, 46683.00
1103.954, 46723.00
1105.051, 46467.00
1106.147, 46235.27
1107.243, 46442.73
1108.339, 46542.32
1109.435, 46539.84
1110.531, 46129.56
1111.626, 46245.91
1112.722, 46151.18
1113.817, 46047.84
1114.912, 46238.29
1116.007, 45887.37
1117.101, 46073.20
1118.196, 46044.74
1119.290, 46114.38
1120.385, 45971.65
1121.479, 45894.54
1122.573, 46029.83
1123.666, 46047.54
1124.760, 45880.41
1125.853, 45956.31
1126.947, 45598.00
1128.040, 45620.73
1129.133, 45807.84
1130.226, 45651.41
1131.318, 45731.23
1132.411, 45721.06
1133.503, 45302.07
1134.596, 45594.07
1135.688, 45578.62
1136.780, 45247.43
1137.871, 45515.14
1138.963, 45227.48
1140.054, 45047.00
1141.146, 45159.00
1142.237, 45152.00
1143.328, 45059.86
1144.419, 44967.00
1145.509, 44942.00
1146.600, 44973.00
1147.690, 44903.00
1148.780, 44788.00
1149.870, 44690.00
1150.960, 44829.00
1152.050, 45048.00
1153.139, 44854.00
1154.229, 44797.00
1155.318, 44653.00
1156.407, 44766.00
1157.496, 44722.00
1158.585, 44887.00
1159.674, 44712.00
1160.762, 44572.00
1161.850, 44406.00
1162.939, 44486.00
1164.027, 44504.00
1165.114, 44673.00
1166.202, 44336.66
1167.290, 44563.62
1168.377, 44682.73
1169.464, 44699.77
1170.551, 44309.01
1171.638, 44444.84
1172.725, 44369.64
1173.812, 44285.78
1174.898, 44495.73
1175.984, 44164.31
1177.071, 44369.59
1178.157, 44360.64
1179.242, 44449.76
1180.328, 44326.53
1181.414, 44503.00
1182.499, 44176.00
1183.584, 44395.00
1184.669, 44420.00
1185.754, 44276.00
1186.839, 44561.00
1187.924, 44477.00
1189.008, 44179.00
1190.092, 44467.00
1191.177, 44174.00
1192.260, 44463.00
1193.344, 44280.00
1194.428, 44194.00
1195.512, 44197.00
1196.595, 44362.00
1197.678, 44305.00
1198.761, 44126.00
1199.844, 44369.00
1200.927, 44205.00
1202.009, 44091.00
1203.092, 44582.00
1204.174, 44151.00
1205.256, 44350.00
1206.338, 44438.00
1207.420, 44318.00
1208.502, 44263.00
1209.583, 44415.00
1210.665, 44562.00
1211.746, 44504.00
1212.827, 44435.00
1213.908, 44359.00
1214.988, 44419.00
1216.069, 44289.00
1217.149, 44334.00
1218.230, 44428.00
1219.310, 44309.00
1220.390, 44433.86
1221.470, 44628.00
1222.549, 44550.00
1223.629, 44606.00
1224.708, 44628.00
1225.787, 44634.00
1226.866, 44509.00
1227.945, 44462.00
1229.024, 44553.00
1230.103, 44332.00
1231.181, 44519.00
1232.259, 44500.00
1233.337, 44685.00
1234.415, 44682.47
1235.493, 44196.00
1236.571, 44459.27
1237.648, 44684.27
1238.726, 44801.39
1239.803, 44816.45
1240.880, 44423.72
1241.957, 44557.57
1243.034, 44480.39
1244.110, 44394.58
1245.187, 44602.54
1246.263, 44269.14
1247.339, 44472.46
1248.415, 44461.54
1249.491, 44548.67
1250.566, 44423.49
1251.642, 44363.87
1252.717, 44516.67
1253.793, 44551.84
1254.868, 44402.21
1255.943, 44495.60
1257.017, 44154.82
1258.092, 44195.02
1259.166, 44399.63
1260.241, 44260.68
1261.315, 44273.00
1262.389, 44433.00
1263.462, 44207.00
1264.536, 44368.00
1265.610, 44337.00
1266.683, 43982.00
1267.756, 44174.00
1268.829, 44459.00
1269.902, 44200.00
1270.975, 44143.00
1272.048, 44024.00
1273.120, 43957.73
1274.192, 44143.00
1275.264, 43970.00
1276.336, 44065.00
1277.408, 44206.00
1278.480, 43793.00
1279.551, 44012.00
1280.623, 44372.00
1281.694, 44022.00
1282.765, 44356.00
1283.836, 44427.00
1284.907, 44293.00
1285.977, 44248.00
1287.048, 44171.00
1288.118, 44537.00
1289.188, 44239.00
1290.258, 44420.00
1291.328, 44260.00
1292.398, 44336.00
1293.467, 44122.00
1294.537, 44205.00
1295.606, 44325.84
1296.675, 44464.00
1297.744, 44682.00
1298.813, 44279.00
1299.882, 44415.00
1300.950, 44285.00
1302.018, 44646.00
1303.086, 44637.00
1304.155, 44364.00
1305.222, 44247.00
1306.290, 44287.00
1307.358, 44504.00
1308.425, 44253.00
1309.492, 44304.00
1310.559, 44461.00
1311.626, 44403.00
1312.693, 44517.00
1313.760, 44467.00
1314.826, 44714.00
1315.893, 44591.00
1316.959, 44457.00
1318.025, 44921.00
1319.091, 44637.00
1320.157, 44653.00
1321.222, 44621.00
1322.288, 44456.00
1323.353, 44242.00
1324.418, 44683.00
1325.483, 44426.00
1326.548, 44643.00
1327.612, 44840.00
1328.677, 44421.00
1329.741, 44274.00
1330.806, 44492.00
1331.870, 44383.77
1332.934, 44631.29
1333.997, 44770.94
1335.061, 44808.52
1336.124, 44438.30
1337.188, 44594.67
1338.251, 44540.00
1339.314, 44476.69
1340.377, 44707.17
1341.439, 44396.27
1342.502, 44622.09
1343.564, 44633.66
1344.627, 44743.29
1345.689, 44640.58
1346.751, 44603.46
1347.813, 44778.74
1348.874, 44836.41
1349.936, 44709.27
1350.997, 44825.12
1352.058, 44555.00
1353.119, 44801.00
1354.180, 44234.00
1355.241, 44559.00
1356.301, 44425.00
1357.362, 44641.00
1358.422, 44226.00
1359.482, 44690.00
1360.542, 44500.00
1361.602, 44380.00
1362.662, 44634.00
1363.721, 44534.61
1364.781, 44710.00
1365.840, 44802.00
1366.899, 44345.00
1367.958, 44729.00
1369.017, 45010.00
1370.075, 44816.00
1371.134, 44400.00
1372.192, 44492.00
1373.250, 44479.00
1374.308, 44436.00
1375.366, 44429.00
1376.424, 44431.86
1377.481, 44417.64
1378.539, 44448.00
1379.596, 44505.00
1380.653, 44500.00
1381.710, 44728.00
1382.767, 44139.00
1383.824, 44579.00
1384.880, 44356.00
1385.937, 44566.00
1386.993, 44444.00
1388.049, 44391.00
1389.105, 44681.00
1390.161, 44434.00
1391.216, 44700.00
1392.272, 44374.00
1393.327, 44696.00
1394.382, 44627.00
1395.437, 44316.00
1396.492, 44371.00
1397.547, 44430.00
1398.601, 44272.00
1399.656, 44307.00
1400.710, 44532.00
1401.764, 44606.00
1402.818, 44489.00
1403.872, 44248.00
1404.925, 44369.00
1405.979, 44586.00
1407.032, 44239.00
1408.085, 44337.00
1409.139, 44224.00
1410.191, 44449.00
1411.244, 44338.00
1412.297, 44585.00
1413.349, 44324.00
1414.402, 44337.28
1415.454, 44420.00
1416.506, 44136.00
1417.558, 44583.00
1418.609, 44460.00
1419.661, 44955.00
1420.712, 44347.00
1421.764, 44292.00
1422.815, 44368.00
1423.866, 44549.00
1424.916, 44204.00
1425.967, 44472.00
1427.018, 44312.00
1428.068, 44225.00
1429.118, 44566.00
1430.168, 44410.00
1431.218, 44233.00
1432.268, 44339.00
1433.318, 44509.00
1434.367, 44520.00
1435.416, 44570.80
1436.465, 44261.00
1437.514, 44506.00
1438.563, 44428.00
1439.612, 44258.00
1440.661, 44426.00
1441.709, 44501.00
1442.757, 44479.00
1443.805, 44374.00
1444.853, 44254.00
1445.901, 44660.00
1446.949, 44426.00
1447.996, 44156.00
1449.044, 44670.00
1450.091, 44288.00
1451.138, 44383.00
1452.185, 44538.00
1453.232, 44448.00
1454.278, 44496.00
1455.325, 44406.00
1456.371, 44304.00
1457.417, 44652.00
1458.463, 44288.00
1459.509, 44412.00
1460.555, 44606.00
1461.601, 44463.00
1462.646, 44167.62
1463.691, 44420.81
1464.737, 44566.12
1465.782, 44609.36
1466.826, 44244.80
1467.871, 44406.82
1468.916, 44357.81
1469.960, 44300.15
1471.004, 44536.28
1472.048, 44231.03
1473.092, 44462.50
1474.136, 44479.72
1475.180, 44595.00
1476.223, 44497.94
1477.267, 44466.46
1478.310, 44647.39
1479.353, 44710.70
1480.396, 44589.20
1481.439, 44710.70
1482.481, 44398.01
1483.524, 44466.34
1484.566, 44699.04
1485.608, 44677.00
1486.650, 44159.00
1487.692, 44218.00
1488.734, 44291.17
1489.775, 44553.00
1490.817, 44475.00
1491.858, 44612.00
1492.899, 44542.00
1493.940, 44423.00
1494.981, 44362.00
1496.022, 44433.00
1497.062, 44351.00
1498.103, 44435.00
1499.143, 44466.76
1500.183, 44225.00
1501.223, 44499.00
1502.263, 44571.00
1503.302, 44415.00
1504.342, 44469.00
1505.381, 44280.00
1506.420, 44786.00
1507.459, 44543.00
1508.498, 44426.00
1509.537, 44859.00
1510.576, 44518.07
1511.614, 44355.00
1512.652, 44267.00
1513.691, 44609.00
1514.729, 44515.00
1515.767, 44425.00
1516.804, 44352.00
1517.842, 44448.00
1518.879, 44259.00
1519.917, 44585.00
1520.954, 45113.00
1521.991, 44501.00
1523.028, 44778.46
1524.064, 44679.00
1525.101, 44545.00
1526.137, 44482.00
1527.173, 44335.00
1528.210, 44612.00
1529.245, 44475.00
1530.281, 44382.00
1531.317, 44284.00
1532.352, 44611.00
1533.388, 44541.00
1534.423, 44162.00
1535.458, 44562.00
1536.493, 44441.35
1537.528, 44583.00
1538.562, 44621.00
1539.597, 44414.00
1540.631, 44446.00
1541.665, 44650.00
1542.700, 44558.00
##END=



