##NAMES=Ilvaite
##RRUFFID=R050040
##IDEAL CHEMISTRY=CaFe^2+^_2_Fe^3+^OSi_2_O_7_(OH)
##LOCALITY=Capo Calamita, Isle of Elba, Italy
##OWNER=RRUFF
##SOURCE=University of Arizona Mineral Museum
##DESCRIPTION=Brown fragment
##STATUS=The identification of this mineral has been confirmed by X-ray diffraction and chemical analysis
##URL=rruff.info/R050040
##MEASURED CHEMISTRY=Ca_1.00_(Fe^2+^_1.89_Mn_0.10_Mg_0.01_)_Î£=2_Fe^3+^_1.00_OSi_2.00_O_7_(OH); trace amounts of Al; OH estimated by charge balance
##PIN_ID=M00123
##ORIENTATION=Laser parallel to (1 0 1). Fiducial mark perpendicular to laser is parallel to b [0 1 0]
144.8940, 42008.00
146.1280, 42021.20
147.3620, 42944.00
148.5960, 42552.00
149.8300, 43043.00
151.0630, 43925.00
152.2960, 43934.00
153.5300, 43456.00
154.7620, 43615.00
155.9950, 43169.00
157.2280, 42258.00
158.4600, 42420.00
159.6920, 42480.00
160.9250, 42147.00
162.1560, 42533.00
163.3880, 42734.00
164.6200, 42608.00
165.8510, 42737.00
167.0820, 42736.00
168.3130, 42628.00
169.5440, 42554.65
170.7750, 42765.00
172.0050, 42204.00
173.2350, 41882.00
174.4650, 41651.00
175.6950, 41737.00
176.9250, 41654.00
178.1550, 41643.00
179.3840, 41223.00
180.6130, 41394.00
181.8420, 41369.00
183.0710, 41578.00
184.3000, 42043.00
185.5280, 42660.00
186.7570, 42913.00
187.9850, 43528.00
189.2130, 43776.00
190.4400, 44601.00
191.6680, 45337.00
192.8960, 45780.00
194.1230, 46022.00
195.3500, 46405.00
196.5770, 46917.00
197.8030, 47075.21
199.0300, 48768.00
200.2560, 47236.00
201.4830, 46973.00
202.7090, 46395.00
203.9340, 44605.00
205.1600, 42432.00
206.3860, 42074.00
207.6110, 40513.00
208.8360, 40027.00
210.0610, 39890.00
211.2860, 39614.00
212.5100, 39654.00
213.7350, 39796.00
214.9590, 39663.00
216.1830, 39579.00
217.4070, 39284.00
218.6310, 39201.00
219.8540, 39336.00
221.0780, 39356.23
222.3010, 39491.00
223.5240, 39908.00
224.7470, 40180.00
225.9690, 40854.00
227.1920, 39993.00
228.4140, 40759.00
229.6360, 40373.00
230.8580, 40243.00
232.0800, 40461.00
233.3020, 40349.00
234.5230, 40685.00
235.7440, 40506.00
236.9650, 40800.00
238.1860, 40530.00
239.4070, 40558.00
240.6280, 40327.00
241.8480, 40418.00
243.0680, 40214.00
244.2880, 40198.00
245.5080, 40068.00
246.7280, 40058.00
247.9470, 40072.00
249.1660, 39718.00
250.3860, 39851.00
251.6040, 41245.00
252.8230, 40459.41
254.0420, 40735.00
255.2600, 40396.00
256.4790, 40394.00
257.6970, 41418.00
258.9150, 41186.30
260.1320, 41421.93
261.3500, 41634.00
262.5670, 41532.00
263.7840, 41696.00
265.0010, 41943.00
266.2180, 42196.00
267.4350, 42210.00
268.6510, 42544.00
269.8680, 43001.00
271.0840, 43265.00
272.3000, 43351.82
273.5160, 43540.00
274.7310, 43355.00
275.9470, 43525.00
277.1620, 43506.00
278.3770, 43582.00
279.5920, 42961.00
280.8070, 43148.00
282.0210, 43057.00
283.2360, 42985.00
284.4500, 43109.00
285.6640, 42903.00
286.8780, 42651.00
288.0920, 42752.00
289.3050, 42766.00
290.5180, 42819.00
291.7320, 42905.77
292.9450, 42894.60
294.1570, 43096.00
295.3700, 42920.00
296.5830, 43052.00
297.7950, 43103.00
299.0070, 43286.00
300.2190, 43099.00
301.4310, 42999.00
302.6420, 42933.00
303.8540, 43217.00
305.0650, 43340.00
306.2760, 43404.00
307.4870, 43503.00
308.6980, 43334.00
309.9080, 43523.00
311.1190, 43406.00
312.3290, 43596.14
313.5390, 43965.00
314.7490, 44101.00
315.9580, 44637.00
317.1680, 45158.00
318.3770, 45572.00
319.5860, 46152.00
320.7950, 46454.00
322.0040, 47533.00
323.2130, 48393.00
324.4210, 48868.92
325.6290, 49887.00
326.8380, 50055.00
328.0460, 50724.00
329.2530, 51391.00
330.4610, 51715.00
331.6680, 51951.00
332.8760, 52214.00
334.0830, 52052.00
335.2890, 51526.00
336.4960, 51203.00
337.7030, 50582.00
338.9090, 49773.00
340.1150, 49455.00
341.3210, 48662.00
342.5270, 48014.00
343.7330, 47332.00
344.9380, 46751.07
346.1440, 46166.00
347.3490, 45753.00
348.5540, 45341.00
349.7590, 45013.74
350.9630, 44804.56
352.1680, 44623.00
353.3720, 44596.00
354.5760, 44489.00
355.7800, 44592.00
356.9840, 44502.00
358.1870, 44180.00
359.3910, 44253.00
360.5940, 44088.00
361.7970, 43850.00
363.0000, 43763.00
364.2030, 43850.00
365.4050, 43522.00
366.6080, 43358.00
367.8100, 43201.00
369.0120, 42864.00
370.2140, 42937.00
371.4150, 42903.00
372.6170, 42983.00
373.8180, 42690.00
375.0190, 42736.00
376.2200, 42791.00
377.4210, 42942.00
378.6220, 42582.00
379.8220, 42596.18
381.0230, 42751.00
382.2230, 42296.00
383.4230, 42619.00
384.6220, 42553.00
385.8220, 42804.00
387.0220, 42797.00
388.2210, 42747.00
389.4200, 42425.00
390.6190, 42608.00
391.8180, 42610.66
393.0160, 43132.00
394.2150, 42797.00
395.4130, 43012.00
396.6110, 42911.00
397.8090, 42897.00
399.0060, 42941.00
400.2040, 42957.00
401.4010, 43113.00
402.5980, 43116.00
403.7950, 43096.00
404.9920, 43120.00
406.1890, 43055.00
407.3860, 43226.00
408.5820, 43266.00
409.7780, 43201.00
410.9740, 43304.00
412.1700, 43473.00
413.3650, 43350.00
414.5610, 43696.00
415.7560, 43694.00
416.9510, 43844.00
418.1460, 44565.00
419.3410, 44456.06
420.5360, 44983.00
421.7300, 44802.00
422.9240, 44867.00
424.1180, 45261.00
425.3120, 45427.00
426.5060, 45367.00
427.7000, 45839.00
428.8930, 46088.00
430.0860, 45875.00
431.2790, 45617.00
432.4720, 45939.00
433.6650, 45611.00
434.8580, 45427.00
436.0500, 45045.00
437.2420, 45023.00
438.4340, 44896.00
439.6260, 44968.00
440.8180, 44675.00
442.0090, 44575.00
443.2010, 44539.56
444.3920, 44366.00
445.5830, 44386.00
446.7740, 44337.00
447.9640, 44159.00
449.1550, 44151.00
450.3450, 44076.27
451.5350, 44358.00
452.7250, 44126.00
453.9150, 44285.00
455.1050, 44612.00
456.2940, 44589.00
457.4830, 44688.00
458.6720, 44642.00
459.8610, 44383.00
461.0500, 44571.00
462.2390, 44633.89
463.4270, 44587.94
464.6150, 44947.00
465.8040, 44792.00
466.9910, 44741.00
468.1790, 45157.00
469.3670, 44989.00
470.5540, 45026.00
471.7410, 45201.00
472.9280, 45619.00
474.1150, 45201.00
475.3020, 45806.00
476.4890, 46289.00
477.6750, 45821.00
478.8610, 45930.00
480.0470, 46650.00
481.2330, 46537.00
482.4190, 47095.00
483.6040, 47204.00
484.7900, 47460.00
485.9750, 47430.00
487.1600, 48379.00
488.3450, 48595.84
489.5290, 49122.50
490.7140, 49685.00
491.8980, 50152.00
493.0820, 50819.00
494.2660, 51286.00
495.4500, 51801.39
496.6340, 52145.00
497.8170, 52685.00
499.0010, 53219.00
500.1840, 53463.00
501.3670, 53704.00
502.5500, 53904.00
503.7320, 53339.00
504.9150, 53496.00
506.0970, 52942.00
507.2790, 53155.00
508.4610, 52623.00
509.6430, 51942.00
510.8250, 51682.00
512.0060, 51421.00
513.1870, 51414.00
514.3680, 51207.24
515.5490, 51322.00
516.7300, 50944.00
517.9110, 50914.00
519.0910, 50680.00
520.2710, 50709.00
521.4510, 50811.00
522.6310, 50771.05
523.8110, 50865.27
524.9910, 50812.00
526.1700, 50980.00
527.3490, 50814.00
528.5280, 50819.00
529.7070, 50717.00
530.8860, 50665.00
532.0650, 50518.21
533.2430, 50453.00
534.4210, 50313.00
535.5990, 50175.00
536.7770, 50362.00
537.9550, 50073.00
539.1320, 50093.00
540.3100, 49917.00
541.4870, 49941.00
542.6640, 49847.00
543.8410, 49498.00
545.0170, 49830.00
546.1940, 49637.00
547.3700, 49432.00
548.5470, 48915.00
549.7230, 49225.00
550.8980, 48657.00
552.0740, 48738.00
553.2500, 48507.00
554.4250, 48227.00
555.6000, 48183.00
556.7750, 48002.00
557.9500, 47900.00
559.1250, 47896.00
560.2990, 47526.00
561.4730, 47366.00
562.6480, 47572.00
563.8220, 47157.00
564.9950, 47251.00
566.1690, 46988.00
567.3430, 47130.21
568.5160, 47086.23
569.6890, 47448.00
570.8620, 47228.00
572.0350, 47237.00
573.2070, 47548.00
574.3800, 47694.00
575.5520, 48018.00
576.7240, 48220.68
577.8960, 48740.00
579.0680, 48671.03
580.2400, 48786.76
581.4110, 49022.00
582.5830, 48804.00
583.7540, 49012.00
584.9250, 49022.00
586.0950, 48613.00
587.2660, 48207.00
588.4370, 47797.00
589.6070, 47368.73
590.7770, 46759.00
591.9470, 46506.00
593.1170, 45998.00
594.2860, 45561.00
595.4560, 45382.00
596.6250, 45067.00
597.7940, 44812.00
598.9630, 44651.00
600.1320, 44476.00
601.3000, 44351.00
602.4690, 44228.00
603.6370, 44063.00
604.8050, 44065.00
605.9730, 43874.00
607.1410, 43819.00
608.3090, 43591.00
609.4760, 43489.00
610.6430, 43323.00
611.8100, 43192.00
612.9770, 43153.62
614.1440, 43342.00
615.3110, 43129.00
616.4770, 43170.00
617.6430, 43242.00
618.8090, 43011.00
619.9750, 42960.00
621.1410, 42912.00
622.3070, 43070.00
623.4720, 43226.00
624.6370, 42875.00
625.8020, 43524.00
626.9670, 42943.00
628.1320, 42984.00
629.2970, 42916.00
630.4610, 42893.00
631.6250, 42924.00
632.7890, 42630.00
633.9530, 42997.00
635.1170, 42938.00
636.2810, 42758.00
637.4440, 42528.00
638.6070, 42807.42
639.7700, 42619.66
640.9330, 42605.00
642.0960, 42635.00
643.2590, 42545.00
644.4210, 42624.00
645.5830, 42712.00
646.7450, 42605.34
647.9070, 42455.00
649.0690, 42465.00
650.2310, 42523.00
651.3920, 42465.00
652.5530, 42521.00
653.7140, 42405.00
654.8750, 42375.00
656.0360, 42331.00
657.1970, 42341.90
658.3570, 42267.00
659.5170, 42377.00
660.6770, 42426.00
661.8370, 42350.00
662.9970, 42422.13
664.1570, 42512.00
665.3160, 42449.00
666.4750, 42225.00
667.6340, 42240.00
668.7930, 42035.65
669.9520, 42420.45
671.1110, 42670.84
672.2690, 42793.98
673.4270, 42409.04
674.5850, 42680.20
675.7430, 42688.41
676.9010, 42685.85
678.0590, 43049.34
679.2160, 42738.23
680.3730, 43095.85
681.5300, 43186.53
682.6870, 42994.00
683.8440, 43015.00
685.0010, 42703.00
686.1570, 43107.00
687.3130, 42984.00
688.4690, 43169.00
689.6250, 43468.00
690.7810, 43512.00
691.9370, 43993.00
693.0920, 44231.00
694.2470, 44555.00
695.4020, 45105.00
696.5570, 45780.00
697.7120, 46365.00
698.8670, 47001.00
700.0210, 47420.00
701.1750, 48069.00
702.3290, 48398.00
703.4830, 48493.00
704.6370, 48455.00
705.7910, 48321.00
706.9440, 47637.00
708.0970, 47213.00
709.2510, 46586.00
710.4030, 45939.00
711.5560, 45515.00
712.7090, 44583.00
713.8610, 44875.00
715.0140, 44028.00
716.1660, 43714.00
717.3180, 43733.00
718.4690, 43401.00
719.6210, 43437.00
720.7730, 44073.00
721.9240, 42964.00
723.0750, 42837.00
724.2260, 43324.00
725.3770, 42819.00
726.5270, 43529.00
727.6780, 43405.00
728.8280, 42452.00
729.9780, 42559.00
731.1280, 42466.00
732.2780, 42270.00
733.4280, 42045.00
734.5770, 42072.36
735.7260, 42052.35
736.8760, 42126.00
738.0250, 42180.00
739.1730, 42280.00
740.3220, 42234.00
741.4700, 42444.00
742.6190, 42214.00
743.7670, 42070.00
744.9150, 41972.00
746.0630, 42352.00
747.2100, 42469.00
748.3580, 42320.00
749.5050, 42278.00
750.6520, 42306.00
751.7990, 42214.00
752.9460, 42019.00
754.0930, 42049.66
755.2390, 42207.00
756.3860, 42037.00
757.5320, 42287.00
758.6780, 42414.00
759.8240, 42190.00
760.9690, 42406.00
762.1150, 42282.00
763.2600, 42362.00
764.4060, 42292.00
765.5510, 42305.00
766.6950, 42316.29
767.8400, 42318.00
768.9850, 42301.00
770.1290, 42283.00
771.2730, 42231.00
772.4170, 42567.00
773.5610, 42585.00
774.7050, 42679.00
775.8480, 42608.00
776.9920, 42479.00
778.1350, 42567.00
779.2780, 42414.00
780.4210, 42817.00
781.5640, 42451.84
782.7060, 42818.54
783.8490, 43050.88
784.9910, 43155.99
786.1330, 42753.01
787.2750, 43006.12
788.4170, 42996.30
789.5580, 42975.65
790.7000, 43321.11
791.8410, 42991.97
792.9820, 43331.57
794.1230, 43404.22
795.2640, 43599.05
796.4040, 43529.27
797.5450, 43663.00
798.6850, 44040.00
799.8250, 44016.00
800.9650, 44212.00
802.1050, 44293.00
803.2450, 44405.00
804.3840, 44595.00
805.5230, 44901.00
806.6630, 44979.00
807.8020, 45386.00
808.9400, 45872.00
810.0790, 45960.00
811.2170, 46160.00
812.3560, 46876.00
813.4940, 46878.00
814.6320, 47390.00
815.7700, 47481.00
816.9070, 47905.00
818.0450, 48085.00
819.1820, 48041.00
820.3190, 48606.00
821.4560, 48009.00
822.5930, 47524.00
823.7300, 47494.00
824.8670, 46581.00
826.0030, 46317.00
827.1390, 45870.00
828.2750, 45654.00
829.4110, 45263.00
830.5470, 45243.00
831.6820, 44657.00
832.8180, 44798.00
833.9530, 44418.00
835.0880, 44632.00
836.2230, 44325.00
837.3580, 44059.00
838.4920, 44515.00
839.6270, 44373.00
840.7610, 44361.00
841.8950, 44277.00
843.0290, 44546.00
844.1630, 44424.00
845.2960, 44505.00
846.4300, 44867.00
847.5630, 45078.00
848.6960, 44948.00
849.8290, 45156.00
850.9620, 45331.00
852.0940, 45419.00
853.2270, 45628.00
854.3590, 45791.00
855.4910, 45834.00
856.6230, 45939.00
857.7550, 46045.00
858.8870, 46113.00
860.0180, 46070.00
861.1500, 45967.00
862.2810, 45831.00
863.4120, 45665.00
864.5430, 45682.00
865.6730, 45234.00
866.8040, 45619.00
867.9340, 45754.00
869.0640, 45333.00
870.1940, 45167.00
871.3240, 45218.00
872.4540, 45190.00
873.5830, 44940.00
874.7130, 44741.00
875.8420, 45110.00
876.9710, 45034.00
878.1000, 44796.00
879.2290, 44796.00
880.3570, 44759.00
881.4860, 44771.28
882.6140, 44803.49
883.7420, 44932.00
884.8700, 44833.00
885.9980, 44902.00
887.1250, 44781.00
888.2530, 44523.00
889.3800, 44541.00
890.5070, 44505.00
891.6340, 44551.00
892.7610, 44650.00
893.8880, 44690.00
895.0140, 44631.00
896.1400, 44766.00
897.2670, 44576.00
898.3930, 44605.19
899.5180, 44799.00
900.6440, 44553.00
901.7700, 44507.00
902.8950, 44539.00
904.0200, 44440.00
905.1450, 44676.00
906.2700, 44693.00
907.3950, 44988.00
908.5190, 44811.00
909.6440, 45021.00
910.7680, 44652.00
911.8920, 44849.00
913.0160, 44775.00
914.1400, 45076.00
915.2630, 45194.00
916.3870, 45073.46
917.5100, 45454.00
918.6330, 44972.00
919.7560, 45373.00
920.8790, 45648.00
922.0010, 45528.00
923.1240, 45880.00
924.2460, 45660.00
925.3680, 45641.00
926.4900, 45959.00
927.6120, 46165.00
928.7340, 46112.00
929.8550, 46139.00
930.9760, 46200.00
932.0980, 46183.00
933.2190, 46225.65
934.3390, 46146.00
935.4600, 46242.00
936.5810, 46354.00
937.7010, 46307.00
938.8210, 46351.00
939.9410, 46262.00
941.0610, 46201.00
942.1810, 46538.00
943.3010, 46083.00
944.4200, 46323.00
945.5390, 46093.00
946.6580, 46192.00
947.7770, 46359.00
948.8960, 46180.00
950.0150, 46462.00
951.1330, 46381.00
952.2510, 46410.00
953.3690, 46492.00
954.4870, 46611.00
955.6050, 46464.00
956.7230, 46626.00
957.8400, 46814.00
958.9580, 47097.00
960.0750, 46956.00
961.1920, 47126.00
962.3090, 47347.00
963.4250, 47321.00
964.5420, 47752.00
965.6580, 47715.00
966.7740, 48139.00
967.8900, 48220.00
969.0060, 48595.00
970.1220, 48977.45
971.2380, 49147.00
972.3530, 49771.00
973.4680, 50111.00
974.5830, 50423.00
975.6980, 51271.00
976.8130, 52294.00
977.9280, 53674.00
979.0420, 53243.00
980.1560, 53391.00
981.2710, 52739.00
982.3850, 53239.00
983.4980, 52761.00
984.6120, 52193.00
985.7260, 52354.00
986.8390, 51982.00
987.9520, 51725.21
989.0650, 51489.00
990.1780, 51182.00
991.2910, 50393.00
992.4030, 50044.00
993.5160, 49695.00
994.6280, 49556.00
995.7400, 48982.00
996.8520, 48409.00
997.9640, 47993.00
999.0750, 47884.00
1000.187, 47353.00
1001.298, 47616.00
1002.409, 47935.00
1003.520, 47049.00
1004.631, 47006.00
1005.741, 46339.00
1006.852, 46395.00
1007.962, 46382.00
1009.072, 46489.00
1010.182, 46258.00
1011.292, 46111.00
1012.402, 46079.00
1013.511, 46092.00
1014.621, 45959.59
1015.730, 46079.00
1016.839, 45826.00
1017.948, 45747.00
1019.056, 45781.00
1020.165, 45938.00
1021.273, 45606.00
1022.382, 45671.00
1023.490, 45611.00
1024.598, 45604.00
1025.706, 45551.00
1026.813, 45662.00
1027.921, 45727.00
1029.028, 45768.07
1030.135, 45685.00
1031.242, 45873.00
1032.349, 45767.00
1033.456, 45730.00
1034.562, 45788.00
1035.668, 45359.00
1036.775, 45851.00
1037.881, 45584.00
1038.987, 45396.00
1040.092, 45713.00
1041.198, 45763.00
1042.303, 45573.00
1043.408, 45908.00
1044.514, 45749.70
1045.618, 45704.00
1046.723, 45849.00
1047.828, 45482.00
1048.932, 45888.00
1050.037, 45669.00
1051.141, 45597.00
1052.245, 45449.00
1053.349, 45495.48
1054.452, 45446.46
1055.556, 45649.00
1056.659, 45616.00
1057.762, 45659.00
1058.865, 45701.61
1059.968, 45674.74
1061.071, 45749.00
1062.174, 45675.00
1063.276, 45786.00
1064.378, 45842.00
1065.480, 45695.00
1066.582, 45441.00
1067.684, 45599.00
1068.786, 45644.00
1069.887, 45907.00
1070.988, 45816.89
1072.090, 45648.00
1073.191, 45727.00
1074.291, 45444.00
1075.392, 45463.00
1076.493, 45613.00
1077.593, 45415.00
1078.693, 45575.00
1079.793, 45404.00
1080.893, 45688.00
1081.993, 45663.00
1083.092, 45547.00
1084.192, 45549.00
1085.291, 45374.00
1086.390, 45713.00
1087.489, 45440.00
1088.588, 45498.00
1089.686, 45298.00
1090.785, 45464.00
1091.883, 45707.00
1092.981, 45278.00
1094.079, 45317.00
1095.177, 45511.00
1096.275, 45215.00
1097.373, 45292.00
1098.470, 45552.00
1099.567, 45628.00
1100.664, 45543.00
1101.761, 45143.00
1102.858, 45276.00
1103.954, 45181.00
1105.051, 45328.00
1106.147, 45180.00
1107.243, 45345.00
1108.339, 45358.00
1109.435, 45435.00
1110.531, 45389.00
1111.626, 45358.00
1112.722, 45530.00
1113.817, 45419.00
1114.912, 45406.00
1116.007, 45278.00
1117.101, 45277.00
1118.196, 45250.00
1119.290, 45403.00
1120.385, 45192.00
1121.479, 45531.00
1122.573, 45429.00
1123.666, 45227.00
1124.760, 45217.00
1125.853, 45251.00
1126.947, 44818.00
1128.040, 45025.00
1129.133, 45113.00
1130.226, 45141.00
1131.318, 44667.00
1132.411, 44881.00
1133.503, 44781.00
1134.596, 44797.00
1135.688, 44997.00
1136.780, 45043.00
1137.871, 45009.09
1138.963, 44979.00
1140.054, 44863.00
1141.146, 44834.00
1142.237, 44704.00
1143.328, 44448.00
1144.419, 44667.00
1145.509, 44827.00
1146.600, 44508.00
1147.690, 44734.00
1148.780, 44712.00
1149.870, 44653.00
1150.960, 44617.00
1152.050, 44601.00
1153.139, 44849.00
1154.229, 44344.00
1155.318, 44482.00
1156.407, 44699.00
1157.496, 44543.00
1158.585, 44290.00
1159.674, 44578.00
1160.762, 44419.30
1161.850, 44519.00
1162.939, 44410.00
1164.027, 44526.00
1165.114, 44419.00
1166.202, 44373.00
1167.290, 44476.00
1168.377, 44352.00
1169.464, 44264.00
1170.551, 44284.00
1171.638, 44413.00
1172.725, 44347.00
1173.812, 44054.69
1174.898, 44354.20
1175.984, 44519.31
1177.071, 44557.24
1178.157, 44087.08
1179.242, 44273.02
1180.328, 44196.03
1181.414, 44108.25
1182.499, 44386.54
1183.584, 43990.29
1184.669, 44262.77
1185.754, 44268.30
1186.839, 44396.01
1187.924, 44259.16
1189.008, 44204.04
1190.092, 44413.55
1191.177, 44476.52
1192.260, 44309.24
1193.344, 44444.72
1194.428, 44039.23
1195.512, 44108.46
1196.595, 44382.50
1197.678, 44228.52
1198.761, 43946.00
1199.844, 44042.00
1200.927, 44279.00
1202.009, 43978.00
1203.092, 44351.00
1204.174, 43821.00
1205.256, 44429.00
1206.338, 44202.00
1207.420, 44093.00
1208.502, 44066.00
1209.583, 44287.00
1210.665, 44086.00
1211.746, 44395.00
1212.827, 44187.00
1213.908, 44104.00
1214.988, 44123.00
1216.069, 44207.00
1217.149, 44168.00
1218.230, 44125.00
1219.310, 44044.00
1220.390, 44483.00
1221.470, 44095.00
1222.549, 44364.00
1223.629, 44410.00
1224.708, 44169.00
1225.787, 44038.00
1226.866, 44216.00
1227.945, 44102.00
1229.024, 44148.00
1230.103, 43907.00
1231.181, 44237.00
1232.259, 44073.00
1233.337, 44116.00
1234.415, 44178.00
1235.493, 44101.00
1236.571, 44073.00
1237.648, 44118.04
1238.726, 44045.07
1239.803, 44284.00
1240.880, 43949.00
1241.957, 44218.00
1243.034, 44141.00
1244.110, 44495.00
1245.187, 44187.00
1246.263, 44315.00
1247.339, 44319.00
1248.415, 44026.00
1249.491, 44081.00
1250.566, 44148.00
1251.642, 44082.00
1252.717, 44128.13
1253.793, 44214.00
1254.868, 44125.00
1255.943, 44123.00
1257.017, 44122.03
1258.092, 44522.00
1259.166, 44171.00
1260.241, 44435.00
1261.315, 44304.00
1262.389, 44298.00
1263.462, 44072.00
1264.536, 44090.00
1265.610, 44276.00
1266.683, 44101.00
1267.756, 44074.00
1268.829, 43964.00
1269.902, 44174.00
1270.975, 44247.00
1272.048, 44042.00
1273.120, 44459.00
1274.192, 44237.00
1275.264, 44227.00
1276.336, 44008.00
1277.408, 44075.83
1278.480, 44006.00
1279.551, 44309.21
1280.623, 44342.88
1281.694, 44652.00
1282.765, 44540.00
1283.836, 44495.00
1284.907, 44631.00
1285.977, 44707.00
1287.048, 44622.02
1288.118, 44368.00
1289.188, 44505.00
1290.258, 44368.00
1291.328, 44374.00
1292.398, 44234.56
1293.467, 44429.00
1294.537, 44304.00
1295.606, 44169.00
1296.675, 44300.11
1297.744, 44519.00
1298.813, 44279.00
1299.882, 44586.00
1300.950, 44323.10
1302.018, 44328.00
1303.086, 44411.00
1304.155, 44437.00
1305.222, 44424.00
1306.290, 44636.00
1307.358, 44687.00
1308.425, 44291.00
1309.492, 44675.00
1310.559, 44707.00
1311.626, 44436.53
1312.693, 44720.08
1313.760, 44520.00
1314.826, 44405.00
1315.893, 44571.66
1316.959, 44483.71
1318.025, 44713.00
1319.091, 44579.00
1320.157, 44577.00
1321.222, 44691.00
1322.288, 44717.00
1323.353, 44496.00
1324.418, 44230.00
1325.483, 44640.00
1326.548, 44355.00
1327.612, 44522.00
1328.677, 44694.00
1329.741, 44455.00
1330.806, 44574.00
1331.870, 44501.00
1332.934, 44425.00
1333.997, 44534.00
1335.061, 44469.96
1336.124, 44856.00
1337.188, 44530.00
1338.251, 44685.00
1339.314, 44835.00
1340.377, 44593.00
1341.439, 44577.00
1342.502, 44540.00
1343.564, 44684.00
1344.627, 44717.00
1345.689, 44688.00
1346.751, 44696.00
1347.813, 45079.00
1348.874, 44884.00
1349.936, 44932.34
1350.997, 44316.00
1352.058, 44788.00
1353.119, 44614.00
1354.180, 44580.00
1355.241, 44580.00
1356.301, 44696.00
1357.362, 44753.00
1358.422, 44712.00
1359.482, 44805.00
1360.542, 44397.00
1361.602, 44562.00
1362.662, 44707.00
1363.721, 44478.00
1364.781, 44635.00
1365.840, 44590.00
1366.899, 44733.00
1367.958, 44681.00
1369.017, 44560.00
1370.075, 44734.00
1371.134, 44903.00
1372.192, 44710.00
1373.250, 44587.00
1374.308, 44855.00
1375.366, 44472.72
1376.424, 44790.13
1377.481, 44973.13
1378.539, 45028.96
1379.596, 44576.70
1380.653, 44780.53
1381.710, 44721.42
1382.767, 44651.54
1383.824, 44947.71
1384.880, 44569.33
1385.937, 44859.70
1386.993, 44883.11
1388.049, 45028.69
1389.105, 44909.72
1390.161, 44872.46
1391.216, 45099.83
1392.272, 45180.68
1393.327, 45031.24
1394.382, 45184.58
1395.437, 44796.96
1396.492, 44884.04
1397.547, 45175.93
1398.601, 45039.79
1399.656, 45197.96
1400.710, 45244.04
1401.764, 44780.71
1402.818, 45203.29
1403.872, 45242.75
1404.925, 44888.80
1405.979, 45281.03
1407.032, 44981.32
1408.085, 44928.58
1409.139, 45061.72
1410.191, 45001.09
1411.244, 45245.94
1412.297, 45196.50
1413.349, 44828.00
1414.402, 45094.00
1415.454, 44989.00
1416.506, 44815.00
1417.558, 45042.00
1418.609, 44803.00
1419.661, 44955.00
1420.712, 44935.00
1421.764, 45161.00
1422.815, 44801.00
1423.866, 44866.00
1424.916, 44837.00
1425.967, 44824.00
1427.018, 44739.00
1428.068, 45126.00
1429.118, 44975.00
1430.168, 45115.00
1431.218, 45179.00
1432.268, 45124.00
1433.318, 45089.00
1434.367, 45037.00
1435.416, 45067.00
1436.465, 44969.00
1437.514, 44875.00
1438.563, 45123.00
1439.612, 44862.00
1440.661, 45131.10
1441.709, 45067.68
1442.757, 45493.00
1443.805, 45070.00
1444.853, 45128.00
1445.901, 45191.00
1446.949, 45051.00
1447.996, 45174.00
1449.044, 44910.00
1450.091, 45045.00
1451.138, 45149.00
1452.185, 44950.00
1453.232, 44832.00
1454.278, 45125.00
1455.325, 44728.00
1456.371, 45174.00
1457.417, 45094.00
1458.463, 44947.00
1459.509, 45129.00
1460.555, 45124.00
1461.601, 44924.00
1462.646, 45512.00
1463.691, 45053.00
1464.737, 45080.00
1465.782, 44640.00
1466.826, 45036.00
1467.871, 44985.00
1468.916, 45017.00
1469.960, 45031.00
1471.004, 44971.00
1472.048, 44961.00
1473.092, 44841.00
1474.136, 44705.00
1475.180, 44971.00
1476.223, 44890.00
1477.267, 45083.00
1478.310, 45132.00
1479.353, 44927.00
1480.396, 44947.00
1481.439, 44727.00
1482.481, 45068.00
1483.524, 45237.00
1484.566, 44993.00
1485.608, 44758.00
1486.650, 45072.00
1487.692, 44532.00
1488.734, 44828.00
1489.775, 45059.00
1490.817, 45130.00
1491.858, 45070.00
1492.899, 45049.00
1493.940, 44898.00
1494.981, 45047.00
1496.022, 45029.00
1497.062, 44582.00
1498.103, 44964.00
1499.143, 44888.00
1500.183, 44738.00
1501.223, 44867.00
1502.263, 44763.00
1503.302, 44821.81
1504.342, 45021.00
1505.381, 44909.00
1506.420, 44867.00
1507.459, 44846.00
1508.498, 45005.00
1509.537, 45196.00
1510.576, 44912.00
1511.614, 44984.00
1512.652, 44823.00
1513.691, 45047.00
1514.729, 45034.00
1515.767, 45125.00
1516.804, 44983.00
1517.842, 45035.52
1518.879, 44905.00
1519.917, 45040.00
1520.954, 45019.00
1521.991, 45046.00
1523.028, 44684.00
1524.064, 44754.00
1525.101, 44978.00
1526.137, 44822.00
1527.173, 45070.00
1528.210, 45166.00
1529.245, 44948.00
1530.281, 45357.00
1531.317, 45106.00
1532.352, 44851.00
1533.388, 44949.00
1534.423, 44768.00
1535.458, 44870.00
1536.493, 44946.00
1537.528, 44780.82
1538.562, 45085.78
1539.597, 45256.33
1540.631, 45299.70
1541.665, 44834.98
1542.700, 45026.36
1543.733, 44954.80
1544.767, 44872.47
1545.801, 45156.19
1546.834, 44765.38
1547.868, 45043.29
1548.901, 45054.26
1549.934, 45187.41
1550.967, 45056.00
1551.999, 45006.30
1553.032, 45221.25
1554.064, 45289.66
1555.097, 45127.79
1556.129, 45268.71
1557.161, 44868.65
1558.193, 44943.30
1559.224, 45222.78
1560.256, 45074.21
1561.287, 45219.97
1562.318, 45253.63
1563.350, 44777.89
1564.380, 45188.05
1565.411, 45215.09
1566.442, 44848.75
1567.472, 45228.56
1568.503, 45181.00
1569.533, 44933.00
1570.563, 45051.00
##END=



