##NAMES=Inyoite
##RRUFFID=R040161
##IDEAL CHEMISTRY=CaB_3_O_3_(OH)_5_&#183;4H_2_O
##LOCALITY=Kramer deposit, Boron, Kern County, California, USA
##OWNER=RRUFF
##SOURCE=University of Arizona Mineral Museum
##DESCRIPTION=Group of colorless indistinct rounded crystals
##STATUS=The identification of this mineral has been confirmed by X-ray diffraction and chemical analysis
##URL=rruff.info/R040161
##MEASURED CHEMISTRY=Ca_1.00_B_3.00_O_3_(OH)_5_Â·4H_2_O
##PIN_ID=L00092
##ORIENTATION=Laser parallel to (1 0 1). Fiducial mark perpendicular to laser is parallel to b [0 1 0]
93.15500, 6692.000
94.39300, 6802.000
95.63100, 6776.000
96.86900, 6988.000
98.10600, 7287.000
99.34400, 7518.000
100.5810, 7824.000
101.8190, 8186.000
103.0560, 8532.000
104.2930, 8743.000
105.5290, 8597.000
106.7660, 8338.000
108.0020, 8252.000
109.2390, 8063.000
110.4750, 7988.000
111.7110, 7931.000
112.9460, 7923.852
114.1820, 7983.000
115.4170, 8045.000
116.6530, 8215.000
117.8880, 8348.000
119.1230, 8351.000
120.3580, 8530.000
121.5920, 8560.000
122.8270, 8842.000
124.0610, 9037.000
125.2950, 9170.000
126.5290, 9531.000
127.7630, 10101.00
128.9970, 10530.00
130.2300, 11251.00
131.4640, 12172.00
132.6970, 12641.00
133.9300, 12789.00
135.1630, 12256.00
136.3950, 11534.00
137.6280, 10969.00
138.8600, 10651.00
140.0920, 10710.00
141.3240, 10926.00
142.5560, 11161.00
143.7880, 11479.00
145.0190, 12131.00
146.2510, 13007.00
147.4820, 13940.00
148.7130, 15097.00
149.9440, 15853.00
151.1750, 16011.00
152.4050, 15419.00
153.6360, 13998.00
154.8660, 12785.00
156.0960, 11643.00
157.3260, 10839.00
158.5560, 10490.00
159.7850, 10207.00
161.0150, 10202.00
162.2440, 10304.00
163.4730, 10437.00
164.7020, 10599.00
165.9310, 10899.00
167.1590, 11132.00
168.3880, 11494.00
169.6160, 11826.00
170.8440, 12212.00
172.0720, 12797.00
173.3000, 13198.00
174.5280, 13426.00
175.7550, 13554.00
176.9820, 13595.00
178.2100, 13677.00
179.4370, 13971.00
180.6630, 14340.25
181.8900, 14796.00
183.1170, 15452.00
184.3430, 16164.00
185.5690, 16987.00
186.7950, 18243.00
188.0210, 19654.00
189.2470, 20857.00
190.4720, 22443.00
191.6970, 23552.00
192.9230, 24239.00
194.1480, 24501.00
195.3730, 23578.00
196.5970, 22215.00
197.8220, 20430.00
199.0460, 18633.00
200.2700, 16937.00
201.4940, 15577.00
202.7180, 14328.00
203.9420, 13483.00
205.1660, 12578.00
206.3890, 12272.00
207.6120, 11820.00
208.8350, 11475.00
210.0580, 11176.00
211.2810, 10874.61
212.5040, 10657.16
213.7260, 10429.00
214.9480, 10287.00
216.1700, 10160.00
217.3920, 10013.00
218.6140, 9975.000
219.8360, 9990.000
221.0570, 9776.000
222.2790, 9785.000
223.5000, 9770.000
224.7210, 9700.000
225.9410, 9704.000
227.1620, 9650.000
228.3820, 9596.000
229.6030, 9597.000
230.8230, 9656.000
232.0430, 9620.708
233.2630, 9788.000
234.4820, 9650.000
235.7020, 9736.000
236.9210, 9821.000
238.1400, 9688.000
239.3590, 9611.000
240.5780, 9867.000
241.7970, 9651.000
243.0150, 9748.000
244.2340, 9790.000
245.4520, 9690.000
246.6700, 9740.000
247.8880, 9655.000
249.1060, 9773.000
250.3230, 9713.000
251.5400, 9767.000
252.7580, 9965.000
253.9750, 9937.000
255.1920, 9864.000
256.4080, 9987.000
257.6250, 10010.00
258.8410, 10214.00
260.0580, 10156.00
261.2740, 10249.00
262.4900, 10354.00
263.7050, 10556.00
264.9210, 10506.00
266.1360, 10715.00
267.3520, 10933.00
268.5670, 10955.00
269.7820, 11032.00
270.9960, 11012.00
272.2110, 11217.00
273.4250, 11173.00
274.6400, 11136.00
275.8540, 11340.00
277.0680, 11182.00
278.2810, 11038.00
279.4950, 11038.00
280.7090, 10851.00
281.9220, 10746.00
283.1350, 10758.00
284.3480, 10561.00
285.5610, 10530.00
286.7730, 10481.00
287.9860, 10414.00
289.1980, 10446.00
290.4100, 10343.00
291.6220, 10423.00
292.8340, 10330.00
294.0460, 10285.00
295.2570, 10283.00
296.4690, 10335.00
297.6800, 10258.00
298.8910, 10359.00
300.1020, 10292.00
301.3120, 10277.00
302.5230, 10418.00
303.7330, 10347.00
304.9440, 10323.00
306.1540, 10376.00
307.3630, 10243.00
308.5730, 10431.00
309.7830, 10373.00
310.9920, 10369.00
312.2010, 10422.00
313.4100, 10400.00
314.6190, 10450.00
315.8280, 10589.00
317.0370, 10533.00
318.2450, 10590.00
319.4530, 10649.00
320.6610, 10580.00
321.8690, 10731.00
323.0770, 10808.00
324.2850, 10881.00
325.4920, 10882.00
326.6990, 10983.90
327.9060, 11062.00
329.1130, 11119.00
330.3200, 11166.00
331.5270, 11188.00
332.7330, 11075.00
333.9390, 11158.00
335.1450, 11054.00
336.3510, 11123.00
337.5570, 11350.00
338.7630, 11269.00
339.9680, 11247.00
341.1740, 11201.00
342.3790, 11225.83
343.5840, 11249.06
344.7890, 11336.00
345.9930, 11389.00
347.1980, 11503.00
348.4020, 11663.00
349.6060, 11656.00
350.8100, 11740.83
352.0140, 11726.00
353.2180, 11793.00
354.4210, 11855.00
355.6250, 11928.50
356.8280, 12019.00
358.0310, 12151.00
359.2340, 12281.00
360.4360, 12444.00
361.6390, 12722.00
362.8410, 12805.00
364.0430, 13089.00
365.2450, 13474.00
366.4470, 13783.00
367.6490, 14250.00
368.8510, 14608.00
370.0520, 15130.00
371.2530, 15482.00
372.4540, 15802.00
373.6550, 16120.00
374.8560, 16259.00
376.0560, 16254.00
377.2570, 16235.00
378.4570, 16062.00
379.6570, 16014.00
380.8570, 15998.00
382.0570, 16119.00
383.2560, 16177.00
384.4560, 16403.00
385.6550, 16797.00
386.8540, 17000.00
388.0530, 17238.00
389.2520, 17350.00
390.4510, 17301.00
391.6490, 17213.00
392.8470, 16754.00
394.0450, 16454.00
395.2430, 16010.00
396.4410, 15816.00
397.6390, 15476.00
398.8360, 15248.00
400.0340, 15215.00
401.2310, 14972.00
402.4280, 15289.00
403.6250, 15415.00
404.8210, 15550.00
406.0180, 15651.00
407.2140, 15838.00
408.4100, 15591.00
409.6060, 15611.00
410.8020, 15343.00
411.9980, 15089.00
413.1930, 14732.00
414.3890, 14461.00
415.5840, 14189.00
416.7790, 13947.69
417.9740, 13731.53
419.1680, 13567.00
420.3630, 13398.00
421.5570, 13292.00
422.7510, 13267.00
423.9450, 13246.00
425.1390, 13104.00
426.3330, 13046.00
427.5270, 13039.00
428.7200, 13056.00
429.9130, 13047.00
431.1060, 13023.00
432.2990, 13023.00
433.4920, 13012.00
434.6840, 13030.00
435.8770, 13009.25
437.0690, 12932.00
438.2610, 13000.00
439.4530, 12897.00
440.6450, 12929.00
441.8360, 13032.00
443.0280, 13079.00
444.2190, 12908.00
445.4100, 12993.00
446.6010, 12933.00
447.7920, 12991.00
448.9820, 13089.00
450.1730, 12997.00
451.3630, 12931.00
452.5530, 12935.00
453.7430, 13031.00
454.9330, 13088.00
456.1230, 12910.00
457.3120, 13027.00
458.5010, 12944.00
459.6910, 13183.00
460.8800, 13074.00
462.0680, 13043.00
463.2570, 12882.00
464.4460, 13093.00
465.6340, 13042.00
466.8220, 13129.00
468.0100, 13222.00
469.1980, 13053.00
470.3860, 13155.00
471.5730, 13288.00
472.7600, 13253.00
473.9480, 13330.00
475.1350, 13352.00
476.3210, 13241.00
477.5080, 13272.00
478.6950, 13382.00
479.8810, 13451.00
481.0670, 13377.00
482.2530, 13325.00
483.4390, 13519.00
484.6250, 13316.00
485.8100, 13430.00
486.9960, 13447.00
488.1810, 13611.00
489.3660, 13661.00
490.5510, 13544.00
491.7360, 13667.00
492.9200, 13696.00
494.1050, 13633.00
495.2890, 13682.00
496.4730, 13863.00
497.6570, 13806.00
498.8400, 13853.00
500.0240, 13782.00
501.2070, 13772.00
502.3910, 13823.00
503.5740, 13743.00
504.7570, 13846.00
505.9400, 13712.00
507.1220, 13760.00
508.3050, 13613.00
509.4870, 13792.00
510.6690, 13686.00
511.8510, 13642.00
513.0330, 13833.00
514.2140, 13836.00
515.3960, 13851.00
516.5770, 13823.00
517.7580, 13836.00
518.9390, 13959.00
520.1200, 14001.00
521.3010, 14076.00
522.4810, 14158.19
523.6610, 14205.33
524.8420, 14300.00
526.0220, 14288.00
527.2010, 14345.00
528.3810, 14318.00
529.5610, 14442.00
530.7400, 14477.00
531.9190, 14593.00
533.0980, 14698.00
534.2770, 14639.00
535.4560, 14592.00
536.6340, 14510.00
537.8120, 14660.00
538.9910, 14677.00
540.1690, 14711.00
541.3460, 14705.00
542.5240, 14705.00
543.7020, 14794.00
544.8790, 14584.00
546.0560, 14635.00
547.2330, 14692.00
548.4100, 14655.00
549.5870, 14680.00
550.7630, 14654.00
551.9400, 14700.00
553.1160, 14604.00
554.2920, 14578.00
555.4680, 14607.70
556.6440, 14631.02
557.8190, 14684.00
558.9950, 14792.00
560.1700, 14897.00
561.3450, 15010.00
562.5200, 15027.00
563.6950, 15100.00
564.8690, 15040.00
566.0440, 15306.00
567.2180, 15253.00
568.3920, 15382.00
569.5660, 15519.00
570.7400, 15734.00
571.9130, 15724.00
573.0870, 15892.00
574.2600, 15885.00
575.4330, 16122.00
576.6060, 16223.00
577.7790, 16298.00
578.9520, 16554.00
580.1240, 16487.00
581.2960, 16549.00
582.4690, 16620.00
583.6410, 16730.89
584.8120, 16985.00
585.9840, 17110.00
587.1560, 17244.00
588.3270, 17543.00
589.4980, 17609.00
590.6690, 17942.00
591.8400, 18320.00
593.0110, 18486.00
594.1810, 18628.00
595.3510, 19161.00
596.5220, 19613.00
597.6920, 20220.00
598.8610, 21032.00
600.0310, 22144.00
601.2010, 23289.00
602.3700, 24538.00
603.5390, 26323.00
604.7080, 28002.00
605.8770, 30638.00
607.0460, 33427.00
608.2140, 36763.00
609.3830, 40454.00
610.5510, 44350.00
611.7190, 48585.00
612.8870, 52285.00
614.0550, 55323.00
615.2220, 56690.00
616.3900, 56276.00
617.5570, 53768.00
618.7240, 49073.00
619.8910, 43675.00
621.0580, 38415.00
622.2240, 33791.00
623.3910, 29850.00
624.5570, 26725.00
625.7230, 24420.00
626.8890, 22511.00
628.0550, 21175.00
629.2200, 19833.00
630.3860, 19134.00
631.5510, 18504.00
632.7160, 17814.00
633.8810, 17399.00
635.0460, 16933.00
636.2100, 16750.00
637.3750, 16551.00
638.5390, 16324.00
639.7030, 16162.00
640.8670, 15930.00
642.0310, 15834.00
643.1950, 15802.00
644.3580, 15787.00
645.5210, 15669.00
646.6850, 15435.00
647.8480, 15434.00
649.0100, 15443.00
650.1730, 15313.00
651.3350, 15327.00
652.4980, 15496.00
653.6600, 15266.00
654.8220, 15322.00
655.9840, 15111.00
657.1450, 15149.00
658.3070, 15115.00
659.4680, 15045.00
660.6300, 15070.00
661.7910, 14844.00
662.9510, 15110.00
664.1120, 14982.00
665.2730, 15048.00
666.4330, 15160.00
667.5930, 14986.00
668.7530, 15035.00
669.9130, 15019.00
671.0730, 15024.00
672.2320, 15048.00
673.3920, 15129.00
674.5510, 15042.00
675.7100, 15164.00
676.8690, 15002.00
678.0280, 15000.00
679.1860, 15157.00
680.3450, 15169.00
681.5030, 15127.00
682.6610, 15158.00
683.8190, 15328.00
684.9770, 15206.00
686.1340, 15229.00
687.2920, 15078.00
688.4490, 15293.00
689.6060, 15057.00
690.7630, 15330.00
691.9200, 15346.00
693.0760, 15425.00
694.2330, 15389.00
695.3890, 15511.00
696.5450, 15526.00
697.7010, 15403.00
698.8570, 15620.00
700.0130, 15511.00
701.1680, 15589.00
702.3230, 15610.00
703.4780, 15589.00
704.6330, 15759.00
705.7880, 15802.00
706.9430, 15858.00
708.0970, 15906.00
709.2520, 16121.00
710.4060, 16183.00
711.5600, 16102.00
712.7140, 16374.00
713.8670, 16407.00
715.0210, 16586.00
716.1740, 16753.00
717.3270, 16860.00
718.4800, 17091.00
719.6330, 17550.00
720.7860, 17833.00
721.9380, 18400.00
723.0910, 18881.00
724.2430, 19345.00
725.3950, 20031.00
726.5470, 20516.00
727.6980, 21543.00
728.8500, 22124.00
730.0010, 22422.00
731.1530, 22475.00
732.3040, 22297.00
733.4550, 21689.00
734.6050, 20862.00
735.7560, 19835.00
736.9060, 19031.00
738.0560, 18638.00
739.2060, 17845.00
740.3560, 17497.00
741.5060, 17248.00
742.6560, 16911.00
743.8050, 16785.00
744.9540, 16581.00
746.1030, 16592.00
747.2520, 16346.00
748.4010, 16414.00
749.5500, 16351.00
750.6980, 16290.00
751.8460, 16227.00
752.9950, 16170.00
754.1420, 16217.00
755.2900, 16330.00
756.4380, 16181.00
757.5850, 16286.00
758.7330, 16408.00
759.8800, 16196.00
761.0270, 16140.00
762.1730, 16077.00
763.3200, 16145.00
764.4670, 16174.00
765.6130, 16134.00
766.7590, 16189.00
767.9050, 16143.64
769.0510, 16163.00
770.1960, 16132.00
771.3420, 16213.00
772.4870, 16337.00
773.6320, 16237.00
774.7770, 16197.00
775.9220, 16063.00
777.0670, 16103.00
778.2110, 16143.00
779.3560, 16099.00
780.5000, 16159.00
781.6440, 16171.00
782.7880, 16140.00
783.9320, 16294.00
785.0750, 16055.00
786.2180, 16024.00
787.3620, 16203.00
788.5050, 16184.00
789.6480, 16097.00
790.7900, 16194.00
791.9330, 16115.00
793.0750, 16045.00
794.2170, 16325.00
795.3590, 16284.00
796.5010, 16119.00
797.6430, 16278.00
798.7850, 16181.00
799.9260, 16188.00
801.0670, 16173.00
802.2080, 16229.00
803.3490, 16183.00
804.4900, 16301.00
805.6310, 16286.00
806.7710, 16180.00
807.9110, 16159.00
809.0510, 16245.00
810.1910, 16268.00
811.3310, 16370.00
812.4710, 16265.00
813.6100, 16349.00
814.7490, 16389.00
815.8880, 16485.00
817.0270, 16492.00
818.1660, 16424.00
819.3050, 16315.00
820.4430, 16405.00
821.5820, 16325.00
822.7200, 16547.00
823.8580, 16677.00
824.9950, 16688.00
826.1330, 16465.00
827.2710, 16584.00
828.4080, 16543.00
829.5450, 16566.00
830.6820, 16624.00
831.8190, 16640.00
832.9560, 16587.00
834.0920, 16619.00
835.2280, 16609.48
836.3650, 16544.00
837.5010, 16611.00
838.6360, 16580.00
839.7720, 16562.00
840.9080, 16613.00
842.0430, 16723.00
843.1780, 16690.00
844.3130, 16770.00
845.4480, 16777.00
846.5830, 16779.00
847.7170, 16716.00
848.8520, 16944.00
849.9860, 16854.00
851.1200, 17083.00
852.2540, 16889.00
853.3870, 17118.00
854.5210, 17031.00
855.6540, 17139.00
856.7880, 17120.00
857.9210, 17159.00
859.0540, 17190.00
860.1860, 17238.00
861.3190, 17099.00
862.4510, 17195.00
863.5840, 17192.00
864.7160, 17455.00
865.8480, 17426.58
866.9790, 17573.00
868.1110, 17462.00
869.2420, 17463.00
870.3740, 17409.00
871.5050, 17478.00
872.6360, 17480.00
873.7660, 17454.00
874.8970, 17495.00
876.0280, 17434.00
877.1580, 17519.00
878.2880, 17700.00
879.4180, 17572.00
880.5480, 17663.36
881.6770, 17514.00
882.8070, 17690.00
883.9360, 17625.00
885.0650, 17700.00
886.1940, 17611.00
887.3230, 17427.00
888.4520, 17527.00
889.5800, 17541.00
890.7090, 17507.00
891.8370, 17697.00
892.9650, 17521.00
894.0930, 17626.00
895.2200, 17464.00
896.3480, 17448.00
897.4750, 17648.00
898.6020, 17680.00
899.7290, 17676.00
900.8560, 17687.00
901.9830, 17670.00
903.1090, 17545.00
904.2360, 17582.00
905.3620, 17729.00
906.4880, 17635.00
907.6140, 17800.00
908.7400, 17635.00
909.8650, 17656.00
910.9900, 17602.00
912.1160, 17817.00
913.2410, 17808.00
914.3660, 17769.00
915.4900, 17851.00
916.6150, 17812.00
917.7390, 17911.00
918.8640, 18025.00
919.9880, 17889.00
921.1120, 17886.00
922.2350, 17952.00
923.3590, 17959.00
924.4820, 18021.00
925.6060, 18081.00
926.7290, 17973.00
927.8520, 18169.00
928.9740, 18348.00
930.0970, 18371.00
931.2190, 18245.00
932.3420, 18215.00
933.4640, 18273.00
934.5860, 18194.00
935.7080, 18321.00
936.8290, 18356.00
937.9510, 18154.00
939.0720, 18218.00
940.1930, 18260.00
941.3140, 18102.00
942.4350, 18356.00
943.5560, 18543.00
944.6760, 18311.00
945.7960, 18293.00
946.9170, 18381.00
948.0370, 18700.00
949.1560, 18552.00
950.2760, 18534.00
951.3960, 18517.00
952.5150, 18541.00
953.6340, 18594.00
954.7530, 18730.00
955.8720, 18785.00
956.9910, 18675.00
958.1090, 18603.00
959.2280, 18609.00
960.3460, 18765.00
961.4640, 18731.00
962.5820, 18706.84
963.6990, 18678.00
964.8170, 18583.00
965.9340, 18635.00
967.0510, 18606.00
968.1690, 18520.00
969.2850, 18683.00
970.4020, 18657.00
971.5190, 18525.00
972.6350, 18621.00
973.7510, 18693.00
974.8670, 18631.00
975.9830, 18648.00
977.0990, 18610.00
978.2150, 18504.00
979.3300, 18470.00
980.4450, 18402.00
981.5600, 18445.48
982.6750, 18441.52
983.7900, 18592.00
984.9050, 18528.00
986.0190, 18627.00
987.1340, 18715.00
988.2480, 18582.00
989.3620, 18641.00
990.4750, 18660.00
991.5890, 18697.00
992.7020, 18752.00
993.8160, 18815.00
994.9290, 18587.00
996.0420, 18768.00
997.1550, 18831.00
998.2670, 18838.00
999.3800, 18994.00
1000.492, 18992.00
1001.604, 18887.00
1002.716, 18894.00
1003.828, 19017.00
1004.940, 19055.00
1006.051, 19083.24
1007.163, 19014.00
1008.274, 19114.00
1009.385, 19129.00
1010.496, 19109.00
1011.606, 19250.00
1012.717, 19342.00
1013.827, 19372.00
1014.937, 19374.00
1016.047, 19315.00
1017.157, 19329.64
1018.267, 19298.00
1019.377, 19321.00
1020.486, 19338.00
1021.595, 19385.00
1022.704, 19362.75
1023.813, 19331.00
1024.922, 19326.00
1026.030, 19267.00
1027.139, 19244.00
1028.247, 19276.00
1029.355, 19346.00
1030.463, 19352.00
1031.571, 19316.00
1032.678, 19450.00
1033.786, 19186.00
1034.893, 19363.00
1036.000, 19459.00
1037.107, 19234.00
1038.214, 19319.00
1039.321, 19343.00
1040.427, 19207.00
1041.533, 19490.00
1042.639, 19623.00
1043.745, 19541.00
1044.851, 19707.00
1045.957, 19643.00
1047.062, 19871.00
1048.168, 19594.00
1049.273, 19682.00
1050.378, 19671.00
1051.482, 19831.00
1052.587, 19819.00
1053.692, 19805.00
1054.796, 19993.00
1055.900, 20005.00
1057.004, 20159.00
1058.108, 20293.00
1059.212, 20333.00
1060.315, 20293.00
1061.418, 20373.00
1062.522, 20444.00
1063.625, 20315.00
1064.728, 20384.00
1065.830, 20345.00
1066.933, 20164.00
1068.035, 20507.00
1069.137, 20331.00
1070.239, 20342.00
1071.341, 20199.00
1072.443, 20262.00
1073.545, 20198.00
1074.646, 20394.00
1075.747, 20215.00
1076.848, 20155.00
1077.949, 20275.00
1079.050, 20152.00
1080.150, 20116.00
1081.251, 20212.00
1082.351, 20128.00
1083.451, 20312.00
1084.551, 20153.00
1085.651, 20229.00
1086.750, 20292.00
1087.850, 20246.00
1088.949, 20173.00
1090.048, 20187.00
1091.147, 20240.00
1092.246, 20239.00
1093.345, 20372.00
1094.443, 20222.00
1095.541, 20291.00
1096.639, 20211.00
1097.737, 20399.00
1098.835, 20319.00
1099.933, 20408.00
1101.030, 20509.00
1102.128, 20361.00
1103.225, 20474.00
1104.322, 20485.00
1105.419, 20478.00
1106.515, 20471.00
1107.612, 20503.00
1108.708, 20515.00
1109.804, 20544.00
1110.900, 20560.60
1111.996, 20547.00
1113.092, 20589.00
1114.187, 20582.00
1115.283, 20583.00
1116.378, 20629.00
1117.473, 20654.00
1118.568, 20634.00
1119.662, 20613.00
1120.757, 20728.00
1121.851, 20570.00
1122.946, 20750.00
1124.040, 20795.00
1125.134, 20732.00
1126.227, 20774.44
1127.321, 20793.00
1128.414, 20704.00
1129.508, 20787.00
1130.601, 20795.00
1131.693, 20671.00
1132.786, 20696.00
1133.879, 20694.00
1134.971, 20834.00
1136.064, 20757.00
1137.156, 20513.00
1138.248, 20774.00
1139.339, 20686.00
1140.431, 20667.00
1141.522, 20795.00
1142.614, 20764.00
1143.705, 20820.46
1144.796, 20755.00
1145.887, 20821.00
1146.977, 20841.00
1148.068, 20680.00
1149.158, 20642.00
1150.248, 20820.00
1151.338, 20735.00
1152.428, 20791.00
1153.518, 20742.00
1154.607, 20710.00
1155.696, 20856.00
1156.785, 21009.00
1157.874, 20806.00
1158.963, 20904.00
1160.052, 20977.00
1161.141, 20852.00
1162.229, 20960.00
1163.317, 20963.00
1164.405, 21077.00
1165.493, 21030.00
1166.581, 21083.00
1167.668, 21069.00
1168.756, 21124.62
1169.843, 21174.00
1170.930, 21232.00
1172.017, 21304.00
1173.103, 21312.00
1174.190, 21156.00
1175.276, 21198.84
1176.363, 21263.00
1177.449, 21146.00
1178.535, 21262.00
1179.620, 21284.00
1180.706, 21427.00
1181.791, 21493.00
1182.877, 21418.00
1183.962, 21462.00
1185.047, 21457.41
1186.131, 21468.27
1187.216, 21442.00
1188.300, 21521.00
1189.385, 21481.00
1190.469, 21493.00
1191.553, 21475.00
1192.637, 21657.00
1193.720, 21507.00
1194.804, 21564.00
1195.887, 21422.00
1196.970, 21665.00
1198.053, 21797.00
1199.136, 21708.00
1200.219, 21720.00
1201.301, 21831.00
1202.383, 21950.00
1203.465, 21808.00
1204.547, 21850.00
1205.629, 21890.00
1206.711, 21808.00
1207.792, 22027.00
1208.874, 22066.00
1209.955, 21964.00
1211.036, 22146.00
1212.117, 22307.00
1213.198, 22181.00
1214.278, 22212.00
1215.359, 22236.95
1216.439, 22174.00
1217.519, 22234.00
1218.599, 22248.00
1219.678, 22213.00
1220.758, 22235.00
1221.837, 22151.00
1222.917, 22286.00
1223.996, 22484.00
1225.075, 22330.00
1226.153, 22226.00
1227.232, 22390.00
1228.310, 22256.00
1229.389, 22562.00
1230.467, 22397.00
1231.545, 22402.00
1232.622, 22225.00
1233.700, 22518.00
1234.777, 22148.00
1235.855, 22440.00
1236.932, 22357.00
1238.009, 22296.00
1239.086, 22354.00
1240.162, 22470.00
1241.239, 22373.00
1242.315, 22611.00
1243.391, 22495.00
1244.467, 22433.00
1245.543, 22541.00
1246.619, 22619.00
1247.694, 22548.00
1248.769, 22731.00
1249.844, 22742.00
1250.919, 22568.00
1251.994, 22561.00
1253.069, 22614.00
1254.144, 22579.00
1255.218, 22618.67
1256.292, 22601.00
1257.366, 22709.00
1258.440, 22738.00
1259.514, 22868.00
1260.587, 22703.00
1261.661, 22620.00
1262.734, 22735.00
1263.807, 22723.00
1264.880, 22681.00
1265.952, 22667.00
1267.025, 22647.00
1268.097, 22546.00
1269.170, 22758.00
1270.242, 22619.00
1271.314, 22880.00
1272.385, 22546.00
1273.457, 22699.00
1274.528, 22595.00
1275.600, 22662.00
1276.671, 22542.00
1277.742, 22668.00
1278.812, 22532.00
1279.883, 22528.00
1280.954, 22415.00
1282.024, 22429.66
1283.094, 22616.00
1284.164, 22467.00
1285.234, 22618.00
1286.303, 22639.00
1287.373, 22368.00
1288.442, 22320.00
1289.511, 22458.00
1290.580, 22386.00
1291.649, 22501.00
1292.718, 22431.00
1293.786, 22348.00
1294.855, 22508.00
1295.923, 22489.00
1296.991, 22578.00
1298.059, 22631.00
1299.126, 23009.00
1300.194, 22666.00
1301.261, 23034.00
1302.328, 22821.00
1303.395, 22665.00
1304.462, 22873.00
1305.529, 22716.00
1306.596, 22783.00
1307.662, 23003.00
1308.728, 22966.00
1309.794, 22999.00
1310.860, 23191.00
1311.926, 23130.00
1312.991, 23260.00
1314.057, 23063.00
1315.122, 23023.00
1316.187, 23174.00
1317.252, 23149.00
1318.317, 23201.00
1319.381, 23198.00
1320.446, 23079.00
1321.510, 23175.00
1322.574, 23180.00
1323.638, 23305.00
1324.702, 23374.00
1325.766, 23486.00
1326.829, 23092.00
1327.892, 23321.00
1328.956, 23339.00
1330.019, 23230.00
1331.081, 23479.00
1332.144, 23309.00
1333.206, 23350.00
1334.269, 23393.00
1335.331, 23222.00
1336.393, 23270.00
1337.455, 23218.00
1338.516, 23230.02
1339.578, 23417.00
1340.639, 23297.00
1341.701, 23415.00
1342.762, 23412.00
1343.822, 23431.00
1344.883, 23518.00
1345.944, 23505.11
1347.004, 23417.00
1348.064, 23546.00
1349.124, 23511.00
1350.184, 23548.00
1351.244, 23591.00
1352.304, 23496.00
1353.363, 23594.00
1354.422, 23556.00
1355.481, 23632.00
1356.540, 23681.00
1357.599, 23633.00
1358.657, 23584.00
1359.716, 23553.00
1360.774, 23735.00
1361.832, 23650.00
1362.890, 23712.00
1363.948, 23696.00
1365.006, 23697.00
1366.063, 23746.00
1367.120, 23738.00
1368.178, 23764.00
1369.234, 23808.00
1370.291, 23854.00
1371.348, 23653.00
1372.404, 23784.00
1373.461, 24030.00
1374.517, 23858.00
1375.573, 23791.00
1376.629, 23927.00
1377.684, 23719.00
1378.740, 23840.00
1379.795, 24043.00
1380.850, 24021.00
1381.905, 24116.71
1382.960, 24121.00
1384.015, 24168.00
1385.070, 24014.00
1386.124, 24022.00
1387.178, 23930.00
1388.232, 24011.00
1389.286, 24066.00
1390.340, 23866.00
1391.393, 23853.00
1392.447, 24038.00
1393.500, 23878.00
1394.553, 23901.00
1395.606, 23989.00
1396.659, 24087.00
1397.711, 24054.00
1398.764, 24131.00
1399.816, 24171.00
1400.868, 24183.00
1401.920, 24247.00
1402.972, 24257.00
1404.023, 24253.00
1405.075, 24103.00
1406.126, 24152.00
1407.177, 24098.00
1408.228, 24073.00
1409.279, 24403.00
1410.330, 24224.00
1411.380, 24288.00
1412.431, 24475.00
1413.481, 24127.00
1414.531, 24306.00
1415.580, 24339.00
1416.630, 24258.00
1417.680, 24266.00
1418.729, 24364.00
1419.778, 24253.00
1420.827, 24261.00
1421.876, 24442.00
1422.925, 24447.00
1423.973, 24469.00
1425.022, 24505.00
1426.070, 24408.00
1427.118, 24442.00
1428.166, 24577.00
1429.214, 24269.00
1430.261, 24598.00
1431.309, 24435.00
1432.356, 24585.00
1433.403, 24594.00
1434.450, 24432.00
1435.497, 24584.00
1436.543, 24424.00
1437.590, 24459.00
1438.636, 24534.00
1439.682, 24586.00
1440.728, 24572.00
1441.774, 24612.90
1442.819, 24669.00
1443.865, 24654.00
1444.910, 24735.00
1445.955, 24818.00
1447.000, 24819.00
1448.045, 24787.00
1449.090, 24738.00
1450.134, 24827.00
1451.178, 24786.11
1452.223, 24846.00
1453.267, 24787.00
1454.310, 24892.00
1455.354, 24879.00
1456.398, 25004.00
1457.441, 24892.00
1458.484, 25033.00
1459.527, 24953.00
1460.570, 24794.00
1461.613, 24957.00
1462.655, 24993.00
1463.698, 24952.00
1464.740, 25022.00
1465.782, 25013.29
1466.824, 24929.00
1467.866, 25078.00
1468.907, 25021.00
1469.948, 25140.00
1470.990, 25096.00
1472.031, 24954.00
1473.072, 25067.00
1474.112, 24970.00
1475.153, 24955.00
1476.194, 25100.00
1477.234, 25211.00
1478.274, 25089.00
1479.314, 25026.00
1480.354, 25290.00
1481.393, 25115.00
1482.433, 25107.00
1483.472, 24900.00
1484.511, 24955.46
1485.550, 25215.00
1486.589, 25073.00
1487.628, 25208.00
1488.666, 25331.00
1489.704, 25453.00
1490.743, 25444.00
1491.781, 25348.00
1492.819, 25357.00
1493.856, 25254.00
1494.894, 25208.00
1495.931, 25208.00
1496.968, 25264.00
1498.005, 25323.00
1499.042, 25448.00
1500.079, 25558.00
1501.115, 25324.00
1502.152, 25381.00
1503.188, 25490.00
1504.224, 25464.00
1505.260, 25544.00
1506.296, 25548.70
1507.331, 25532.48
1508.367, 25517.00
1509.402, 25518.00
1510.437, 25422.00
1511.472, 25467.00
1512.507, 25400.00
1513.541, 25718.00
1514.576, 25696.00
1515.610, 25641.00
1516.644, 25727.00
1517.678, 25516.00
1518.712, 25507.00
1519.746, 25707.00
1520.779, 25554.00
1521.813, 25618.00
1522.846, 25691.00
1523.879, 25621.00
1524.912, 25855.00
1525.944, 25611.00
1526.977, 25543.00
1528.009, 25848.00
1529.041, 25698.00
1530.073, 25720.00
1531.105, 25595.00
1532.137, 25908.00
1533.168, 25752.00
1534.200, 25805.00
1535.231, 25775.00
1536.262, 25847.00
1537.293, 25842.00
1538.324, 25743.00
1539.354, 25764.00
1540.385, 25803.00
1541.415, 25868.00
1542.445, 25900.12
1543.475, 25935.59
1544.505, 25961.00
1545.534, 25984.00
1546.564, 25942.00
1547.593, 25943.00
1548.622, 25891.00
1549.651, 25873.00
1550.680, 25861.00
1551.708, 25898.00
1552.737, 25864.44
1553.765, 25996.00
1554.793, 25845.00
1555.821, 26068.00
1556.849, 26106.00
1557.877, 26159.00
1558.904, 25987.00
1559.932, 26158.00
1560.959, 26128.00
1561.986, 26249.00
1563.013, 26104.00
1564.039, 26097.00
1565.066, 26194.00
1566.092, 26043.00
1567.119, 26268.00
1568.145, 26225.00
1569.170, 26287.00
1570.196, 26071.00
##END=



