##NAMES=Inyoite
##RRUFFID=R040161
##IDEAL CHEMISTRY=CaB_3_O_3_(OH)_5_&#183;4H_2_O
##LOCALITY=Kramer deposit, Boron, Kern County, California, USA
##OWNER=RRUFF
##SOURCE=University of Arizona Mineral Museum
##DESCRIPTION=Group of colorless indistinct rounded crystals
##STATUS=The identification of this mineral has been confirmed by X-ray diffraction and chemical analysis
##URL=rruff.info/R040161
##MEASURED CHEMISTRY=Ca_1.00_B_3.00_O_3_(OH)_5_Â·4H_2_O
##PIN_ID=L00339
##ORIENTATION=Laser parallel to a* (1 0 0). Fiducial mark perpendicular to laser is parallel to b [0 1 0]
94.39300, 4079.000
95.63100, 4064.000
96.86900, 4123.000
98.10600, 4344.000
99.34400, 4499.000
100.5810, 4940.000
101.8190, 5245.000
103.0560, 5574.000
104.2930, 5648.000
105.5290, 5398.000
106.7660, 5208.000
108.0020, 5142.000
109.2390, 4746.000
110.4750, 4739.000
111.7110, 4521.000
112.9460, 4661.000
114.1820, 4787.000
115.4170, 4856.000
116.6530, 4997.000
117.8880, 5256.000
119.1230, 5199.000
120.3580, 5131.000
121.5920, 5302.000
122.8270, 5481.000
124.0610, 5702.000
125.2950, 6154.000
126.5290, 6363.000
127.7630, 6976.000
128.9970, 7582.000
130.2300, 8457.000
131.4640, 9314.000
132.6970, 10108.00
133.9300, 10051.00
135.1630, 9395.000
136.3950, 8437.000
137.6280, 7907.000
138.8600, 7554.000
140.0920, 7466.000
141.3240, 7547.000
142.5560, 7918.158
143.7880, 8678.000
145.0190, 9287.000
146.2510, 10365.00
147.4820, 11538.00
148.7130, 12668.00
149.9440, 13872.00
151.1750, 13932.00
152.4050, 12971.00
153.6360, 11429.00
154.8660, 9599.000
156.0960, 8200.000
157.3260, 7449.000
158.5560, 6956.000
159.7850, 6655.000
161.0150, 6700.000
162.2440, 6834.000
163.4730, 6962.000
164.7020, 7182.678
165.9310, 7490.327
167.1590, 7796.000
168.3880, 8276.000
169.6160, 8805.000
170.8440, 9341.000
172.0720, 9868.000
173.3000, 10409.00
174.5280, 10655.00
175.7550, 10853.00
176.9820, 10954.00
178.2100, 10901.00
179.4370, 11136.00
180.6630, 11454.00
181.8900, 11943.00
183.1170, 12552.00
184.3430, 13511.00
185.5690, 14636.00
186.7950, 16053.00
188.0210, 17532.00
189.2470, 19262.00
190.4720, 21060.00
191.6970, 22271.00
192.9230, 23420.00
194.1480, 23293.00
195.3730, 22730.00
196.5970, 20607.00
197.8220, 18665.00
199.0460, 16358.00
200.2700, 14496.00
201.4940, 12625.00
202.7180, 11317.00
203.9420, 10267.00
205.1660, 9443.000
206.3890, 8777.000
207.6120, 8172.000
208.8350, 7787.000
210.0580, 7413.000
211.2810, 7103.000
212.5040, 6744.000
213.7260, 6508.000
214.9480, 6280.000
216.1700, 6029.000
217.3920, 5932.000
218.6140, 5768.000
219.8360, 5631.000
221.0570, 5515.000
222.2790, 5494.000
223.5000, 5524.000
224.7210, 5443.000
225.9410, 5423.000
227.1620, 5344.000
228.3820, 5392.000
229.6030, 5363.000
230.8230, 5290.000
232.0430, 5306.000
233.2630, 5279.163
234.4820, 5275.772
235.7020, 5294.000
236.9210, 5293.000
238.1400, 5344.000
239.3590, 5359.000
240.5780, 5388.000
241.7970, 5242.000
243.0150, 5223.000
244.2340, 5279.000
245.4520, 5297.000
246.6700, 5330.000
247.8880, 5276.000
249.1060, 5329.000
250.3230, 5334.000
251.5400, 5339.000
252.7580, 5380.000
253.9750, 5398.000
255.1920, 5441.000
256.4080, 5460.000
257.6250, 5542.000
258.8410, 5592.951
260.0580, 5752.000
261.2740, 5730.000
262.4900, 5861.000
263.7050, 5927.000
264.9210, 6138.000
266.1360, 6254.000
267.3520, 6420.000
268.5670, 6550.000
269.7820, 6688.000
270.9960, 6771.000
272.2110, 6784.000
273.4250, 6749.000
274.6400, 6654.000
275.8540, 6514.000
277.0680, 6621.000
278.2810, 6570.000
279.4950, 6426.000
280.7090, 6365.000
281.9220, 6273.000
283.1350, 6108.000
284.3480, 6057.000
285.5610, 5877.000
286.7730, 5745.000
287.9860, 5841.000
289.1980, 5693.000
290.4100, 5484.000
291.6220, 5677.000
292.8340, 5517.000
294.0460, 5564.000
295.2570, 5497.000
296.4690, 5583.000
297.6800, 5480.000
298.8910, 5552.000
300.1020, 5445.000
301.3120, 5490.000
302.5230, 5474.000
303.7330, 5474.000
304.9440, 5541.000
306.1540, 5495.000
307.3630, 5560.000
308.5730, 5589.000
309.7830, 5654.000
310.9920, 5710.443
312.2010, 5606.000
313.4100, 5818.000
314.6190, 5834.000
315.8280, 5852.000
317.0370, 6022.000
318.2450, 6043.000
319.4530, 6022.000
320.6610, 6120.000
321.8690, 6230.000
323.0770, 6358.000
324.2850, 6329.000
325.4920, 6412.000
326.6990, 6447.602
327.9060, 6637.000
329.1130, 6537.000
330.3200, 6555.000
331.5270, 6649.000
332.7330, 6578.000
333.9390, 6585.000
335.1450, 6545.000
336.3510, 6493.000
337.5570, 6448.000
338.7630, 6428.000
339.9680, 6401.000
341.1740, 6528.000
342.3790, 6532.000
343.5840, 6588.000
344.7890, 6576.000
345.9930, 6625.000
347.1980, 6667.000
348.4020, 6682.436
349.6060, 6802.000
350.8100, 6773.000
352.0140, 6834.000
353.2180, 6952.000
354.4210, 6978.000
355.6250, 7015.000
356.8280, 7138.000
358.0310, 7216.000
359.2340, 7442.000
360.4360, 7512.000
361.6390, 7759.000
362.8410, 8076.000
364.0430, 8356.000
365.2450, 8670.000
366.4470, 9093.000
367.6490, 9723.000
368.8510, 10218.00
370.0520, 10514.00
371.2530, 11091.00
372.4540, 11541.00
373.6550, 11956.00
374.8560, 12122.00
376.0560, 12229.00
377.2570, 12145.00
378.4570, 11901.00
379.6570, 11801.00
380.8570, 11688.00
382.0570, 11747.00
383.2560, 11786.00
384.4560, 12284.00
385.6550, 12523.00
386.8540, 12826.00
388.0530, 13070.00
389.2520, 13160.00
390.4510, 13264.00
391.6490, 12871.00
392.8470, 12403.00
394.0450, 11944.00
395.2430, 11626.00
396.4410, 11250.00
397.6390, 10815.00
398.8360, 10569.00
400.0340, 10326.00
401.2310, 10477.00
402.4280, 10466.00
403.6250, 10573.00
404.8210, 10980.00
406.0180, 11024.00
407.2140, 11145.00
408.4100, 11069.00
409.6060, 10780.00
410.8020, 10654.00
411.9980, 10173.00
413.1930, 9729.000
414.3890, 9542.000
415.5840, 8906.000
416.7790, 8956.000
417.9740, 8507.000
419.1680, 8278.000
420.3630, 8061.000
421.5570, 7885.000
422.7510, 7960.000
423.9450, 7832.000
425.1390, 7696.000
426.3330, 7756.000
427.5270, 7510.000
428.7200, 7610.000
429.9130, 7446.000
431.1060, 7468.000
432.2990, 7570.000
433.4920, 7411.000
434.6840, 7393.000
435.8770, 7397.000
437.0690, 7286.000
438.2610, 7351.000
439.4530, 7298.000
440.6450, 7301.000
441.8360, 7323.000
443.0280, 7207.000
444.2190, 7354.000
445.4100, 7393.000
446.6010, 7329.000
447.7920, 7345.000
448.9820, 7333.712
450.1730, 7328.000
451.3630, 7324.000
452.5530, 7346.000
453.7430, 7363.000
454.9330, 7310.000
456.1230, 7355.000
457.3120, 7344.852
458.5010, 7398.000
459.6910, 7377.000
460.8800, 7400.000
462.0680, 7451.000
463.2570, 7365.000
464.4460, 7365.000
465.6340, 7455.000
466.8220, 7337.000
468.0100, 7445.000
469.1980, 7567.000
470.3860, 7536.000
471.5730, 7672.000
472.7600, 7651.873
473.9480, 7433.000
475.1350, 7624.000
476.3210, 7611.000
477.5080, 7571.000
478.6950, 7726.000
479.8810, 7678.000
481.0670, 7716.000
482.2530, 7654.000
483.4390, 7705.000
484.6250, 7815.000
485.8100, 7743.000
486.9960, 7777.000
488.1810, 7835.000
489.3660, 7803.000
490.5510, 7947.000
491.7360, 7989.000
492.9200, 7941.000
494.1050, 7878.000
495.2890, 8010.000
496.4730, 8094.000
497.6570, 8001.000
498.8400, 8089.000
500.0240, 8173.000
501.2070, 8204.000
502.3910, 8198.000
503.5740, 8146.000
504.7570, 8218.000
505.9400, 8114.000
507.1220, 8150.000
508.3050, 7994.000
509.4870, 8116.000
510.6690, 8066.000
511.8510, 8009.000
513.0330, 8054.000
514.2140, 8058.173
515.3960, 8158.000
516.5770, 8174.000
517.7580, 8266.000
518.9390, 8373.000
520.1200, 8412.000
521.3010, 8443.000
522.4810, 8464.000
523.6610, 8508.000
524.8420, 8535.000
526.0220, 8606.000
527.2010, 8644.000
528.3810, 8604.000
529.5610, 8763.000
530.7400, 8802.000
531.9190, 8745.000
533.0980, 8748.000
534.2770, 8679.000
535.4560, 8764.000
536.6340, 8683.000
537.8120, 8672.000
538.9910, 8628.000
540.1690, 8564.000
541.3460, 8537.000
542.5240, 8650.000
543.7020, 8578.000
544.8790, 8531.000
546.0560, 8401.000
547.2330, 8391.288
548.4100, 8379.116
549.5870, 8367.000
550.7630, 8410.000
551.9400, 8469.000
553.1160, 8470.000
554.2920, 8408.000
555.4680, 8392.000
556.6440, 8512.000
557.8190, 8664.000
558.9950, 8600.000
560.1700, 8711.000
561.3450, 8711.000
562.5200, 8784.000
563.6950, 8911.000
564.8690, 8992.000
566.0440, 9001.000
567.2180, 9064.000
568.3920, 9248.000
569.5660, 9382.000
570.7400, 9579.000
571.9130, 9550.000
573.0870, 9724.000
574.2600, 9766.000
575.4330, 10038.00
576.6060, 9912.000
577.7790, 10257.00
578.9520, 10187.00
580.1240, 10466.00
581.2960, 10485.00
582.4690, 10595.00
583.6410, 10707.00
584.8120, 11042.00
585.9840, 11181.00
587.1560, 11333.00
588.3270, 11497.00
589.4980, 11710.00
590.6690, 11860.00
591.8400, 12254.00
593.0110, 12522.00
594.1810, 12885.00
595.3510, 13447.00
596.5220, 14200.00
597.6920, 14931.00
598.8610, 15651.00
600.0310, 16836.00
601.2010, 18105.00
602.3700, 19984.00
603.5390, 21839.00
604.7080, 24230.00
605.8770, 26803.00
607.0460, 30462.00
608.2140, 34410.00
609.3830, 38704.00
610.5510, 43806.00
611.7190, 48867.00
612.8870, 53298.00
614.0550, 57670.00
615.2220, 59484.00
616.3900, 58567.00
617.5570, 55618.00
618.7240, 49951.00
619.8910, 43387.00
621.0580, 37311.00
622.2240, 31025.00
623.3910, 26656.00
624.5570, 22559.00
625.7230, 19693.00
626.8890, 17484.00
628.0550, 15638.00
629.2200, 14276.00
630.3860, 13294.00
631.5510, 12383.00
632.7160, 11652.00
633.8810, 11092.00
635.0460, 10636.00
636.2100, 10254.00
637.3750, 9684.000
638.5390, 9695.000
639.7030, 9638.000
640.8670, 9296.000
642.0310, 9131.000
643.1950, 8929.000
644.3580, 8776.817
645.5210, 8742.000
646.6850, 8631.000
647.8480, 8578.000
649.0100, 8648.000
650.1730, 8577.000
651.3350, 8476.000
652.4980, 8367.000
653.6600, 8330.000
654.8220, 8386.000
655.9840, 8219.000
657.1450, 8216.000
658.3070, 8098.000
659.4680, 8090.000
660.6300, 8145.000
661.7910, 7984.000
662.9510, 7914.000
664.1120, 8019.000
665.2730, 7991.000
666.4330, 7853.000
667.5930, 7838.000
668.7530, 7806.000
669.9130, 7835.000
671.0730, 7910.000
672.2320, 7768.000
673.3920, 7884.000
674.5510, 7985.000
675.7100, 7887.000
676.8690, 7924.000
678.0280, 7796.000
679.1860, 7860.000
680.3450, 7915.000
681.5030, 7913.000
682.6610, 7979.000
683.8190, 8033.000
684.9770, 7995.000
686.1340, 8038.550
687.2920, 8014.000
688.4490, 8047.000
689.6060, 8011.000
690.7630, 8012.000
691.9200, 8112.000
693.0760, 8124.000
694.2330, 8110.000
695.3890, 8112.000
696.5450, 8167.000
697.7010, 8194.000
698.8570, 8326.000
700.0130, 8238.000
701.1680, 8358.000
702.3230, 8436.000
703.4780, 8378.000
704.6330, 8449.000
705.7880, 8443.000
706.9430, 8577.000
708.0970, 8718.000
709.2520, 8686.000
710.4060, 8866.000
711.5600, 8783.000
712.7140, 8983.000
713.8670, 9266.000
715.0210, 9276.000
716.1740, 9622.000
717.3270, 9692.000
718.4800, 10031.00
719.6330, 10568.00
720.7860, 10877.00
721.9380, 11339.00
723.0910, 12008.00
724.2430, 12715.00
725.3950, 13590.00
726.5470, 14309.00
727.6980, 15233.00
728.8500, 16051.00
730.0010, 16492.00
731.1530, 16593.00
732.3040, 16149.00
733.4550, 15497.00
734.6050, 14399.00
735.7560, 13269.00
736.9060, 12270.00
738.0560, 11466.00
739.2060, 10827.00
740.3560, 10141.00
741.5060, 9945.000
742.6560, 9634.000
743.8050, 9378.000
744.9540, 9214.000
746.1030, 9075.000
747.2520, 8964.000
748.4010, 8966.000
749.5500, 8875.000
750.6980, 8728.000
751.8460, 8591.000
752.9950, 8799.000
754.1420, 8639.000
755.2900, 8811.000
756.4380, 8604.000
757.5850, 8689.000
758.7330, 8619.000
759.8800, 8679.000
761.0270, 8646.000
762.1730, 8680.000
763.3200, 8590.000
764.4670, 8562.000
765.6130, 8597.000
766.7590, 8566.000
767.9050, 8593.000
769.0510, 8559.000
770.1960, 8514.000
771.3420, 8589.000
772.4870, 8427.000
773.6320, 8411.000
774.7770, 8405.000
775.9220, 8414.000
777.0670, 8420.000
778.2110, 8419.000
779.3560, 8427.190
780.5000, 8412.628
781.6440, 8429.000
782.7880, 8388.000
783.9320, 8368.000
785.0750, 8367.676
786.2180, 8225.000
787.3620, 8304.000
788.5050, 8257.000
789.6480, 8254.000
790.7900, 8301.000
791.9330, 8314.000
793.0750, 8367.000
794.2170, 8317.000
795.3590, 8319.000
796.5010, 8275.000
797.6430, 8267.000
798.7850, 8261.000
799.9260, 8247.000
801.0670, 8262.060
802.2080, 8305.000
803.3490, 8309.000
804.4900, 8314.000
805.6310, 8371.000
806.7710, 8449.000
807.9110, 8356.000
809.0510, 8432.000
810.1910, 8286.000
811.3310, 8308.000
812.4710, 8369.000
813.6100, 8309.000
814.7490, 8263.000
815.8880, 8201.000
817.0270, 8225.727
818.1660, 8274.000
819.3050, 8297.000
820.4430, 8242.000
821.5820, 8284.000
822.7200, 8315.000
823.8580, 8273.000
824.9950, 8366.000
826.1330, 8240.000
827.2710, 8324.000
828.4080, 8390.000
829.5450, 8324.000
830.6820, 8366.000
831.8190, 8314.000
832.9560, 8259.000
834.0920, 8352.000
835.2280, 8450.000
836.3650, 8380.000
837.5010, 8390.000
838.6360, 8398.000
839.7720, 8469.000
840.9080, 8508.000
842.0430, 8498.000
843.1780, 8479.000
844.3130, 8508.000
845.4480, 8504.000
846.5830, 8533.329
847.7170, 8586.000
848.8520, 8577.000
849.9860, 8630.000
851.1200, 8605.000
852.2540, 8612.000
853.3870, 8669.000
854.5210, 8644.000
855.6540, 8890.000
856.7880, 8750.000
857.9210, 8864.000
859.0540, 8950.000
860.1860, 8927.000
861.3190, 8929.000
862.4510, 8875.000
863.5840, 9044.000
864.7160, 9092.000
865.8480, 8939.000
866.9790, 9091.000
868.1110, 9046.000
869.2420, 9030.000
870.3740, 9059.000
871.5050, 9058.000
872.6360, 9036.000
873.7660, 9067.000
874.8970, 9074.000
876.0280, 9129.000
877.1580, 9069.000
878.2880, 9060.000
879.4180, 9156.000
880.5480, 8988.000
881.6770, 8955.000
882.8070, 9111.000
883.9360, 9001.000
885.0650, 9089.000
886.1940, 9073.000
887.3230, 8962.000
888.4520, 9019.000
889.5800, 9015.000
890.7090, 9059.000
891.8370, 8984.000
892.9650, 9044.000
894.0930, 9013.000
895.2200, 9039.000
896.3480, 8997.000
897.4750, 8962.000
898.6020, 8976.000
899.7290, 9069.000
900.8560, 8974.000
901.9830, 8998.000
903.1090, 8877.000
904.2360, 9035.000
905.3620, 9004.000
906.4880, 9067.000
907.6140, 9003.000
908.7400, 9060.000
909.8650, 9002.000
910.9900, 8976.000
912.1160, 9072.000
913.2410, 9013.000
914.3660, 9100.000
915.4900, 8982.000
916.6150, 9212.000
917.7390, 9095.000
918.8640, 8964.000
919.9880, 9011.000
921.1120, 9222.000
922.2350, 9192.000
923.3590, 9312.000
924.4820, 9249.000
925.6060, 9196.000
926.7290, 9408.000
927.8520, 9542.000
928.9740, 9498.000
930.0970, 9544.000
931.2190, 9504.000
932.3420, 9454.000
933.4640, 9564.000
934.5860, 9351.000
935.7080, 9541.000
936.8290, 9481.000
937.9510, 9297.000
939.0720, 9375.000
940.1930, 9379.000
941.3140, 9535.000
942.4350, 9473.000
943.5560, 9473.000
944.6760, 9612.000
945.7960, 9608.000
946.9170, 9576.000
948.0370, 9646.000
949.1560, 9615.000
950.2760, 9684.000
951.3960, 9889.000
952.5150, 9825.000
953.6340, 9937.000
954.7530, 9901.000
955.8720, 9920.000
956.9910, 9939.000
958.1090, 9946.000
959.2280, 9963.000
960.3460, 9703.000
961.4640, 9780.000
962.5820, 9743.000
963.6990, 9845.000
964.8170, 9625.000
965.9340, 9774.000
967.0510, 9732.000
968.1690, 9557.000
969.2850, 9649.000
970.4020, 9613.000
971.5190, 9547.000
972.6350, 9433.000
973.7510, 9436.000
974.8670, 9416.352
975.9830, 9406.438
977.0990, 9450.000
978.2150, 9470.000
979.3300, 9475.000
980.4450, 9560.000
981.5600, 9557.000
982.6750, 9487.000
983.7900, 9491.000
984.9050, 9535.000
986.0190, 9609.000
987.1340, 9660.000
988.2480, 9633.000
989.3620, 9657.925
990.4750, 9733.000
991.5890, 9651.000
992.7020, 9618.000
993.8160, 9662.000
994.9290, 9622.000
996.0420, 9643.000
997.1550, 9698.000
998.2670, 9629.000
999.3800, 9783.000
1000.492, 9731.000
1001.604, 9840.000
1002.716, 9828.000
1003.828, 9863.000
1004.940, 9877.000
1006.051, 9907.000
1007.163, 9943.761
1008.274, 9870.000
1009.385, 10003.00
1010.496, 10038.00
1011.606, 10029.00
1012.717, 10154.00
1013.827, 10075.00
1014.937, 9996.000
1016.047, 10159.00
1017.157, 10095.00
1018.267, 10091.00
1019.377, 10102.17
1020.486, 10059.00
1021.595, 9990.000
1022.704, 10027.00
1023.813, 9877.000
1024.922, 9776.000
1026.030, 9905.000
1027.139, 9847.000
1028.247, 9939.000
1029.355, 9837.000
1030.463, 9860.000
1031.571, 9934.000
1032.678, 9772.000
1033.786, 9834.000
1034.893, 9932.000
1036.000, 9967.000
1037.107, 9980.000
1038.214, 9908.000
1039.321, 9880.000
1040.427, 9972.000
1041.533, 10037.00
1042.639, 9998.000
1043.745, 10070.00
1044.851, 9990.000
1045.957, 10181.00
1047.062, 10111.00
1048.168, 10107.00
1049.273, 10257.00
1050.378, 10212.00
1051.482, 10318.00
1052.587, 10436.00
1053.692, 10467.00
1054.796, 10492.00
1055.900, 10635.00
1057.004, 10682.00
1058.108, 10739.00
1059.212, 10779.00
1060.315, 10702.00
1061.418, 10774.28
1062.522, 10896.00
1063.625, 10839.00
1064.728, 10919.00
1065.830, 10977.00
1066.933, 10870.00
1068.035, 11032.00
1069.137, 10668.00
1070.239, 10796.00
1071.341, 10749.00
1072.443, 10642.00
1073.545, 10579.00
1074.646, 10704.00
1075.747, 10567.00
1076.848, 10637.00
1077.949, 10555.00
1079.050, 10602.00
1080.150, 10381.00
1081.251, 10430.00
1082.351, 10382.00
1083.451, 10512.00
1084.551, 10406.00
1085.651, 10485.00
1086.750, 10468.00
1087.850, 10478.00
1088.949, 10581.00
1090.048, 10548.00
1091.147, 10481.00
1092.246, 10513.00
1093.345, 10421.00
1094.443, 10511.00
1095.541, 10627.00
1096.639, 10455.00
1097.737, 10477.00
1098.835, 10478.00
1099.933, 10464.00
1101.030, 10538.00
1102.128, 10603.00
1103.225, 10602.00
1104.322, 10589.00
1105.419, 10580.00
1106.515, 10458.00
1107.612, 10523.00
1108.708, 10471.00
1109.804, 10620.00
1110.900, 10677.00
1111.996, 10594.00
1113.092, 10443.00
1114.187, 10632.00
1115.283, 10633.00
1116.378, 10713.00
1117.473, 10558.00
1118.568, 10831.00
1119.662, 10757.00
1120.757, 10771.00
1121.851, 10816.00
1122.946, 10818.00
1124.040, 10712.00
1125.134, 10616.00
1126.227, 10665.00
1127.321, 10695.00
1128.414, 10625.00
1129.508, 10534.00
1130.601, 10544.00
1131.693, 10493.00
1132.786, 10599.00
1133.879, 10542.00
1134.971, 10465.00
1136.064, 10453.00
1137.156, 10624.00
1138.248, 10452.00
1139.339, 10630.00
1140.431, 10575.00
1141.522, 10483.00
1142.614, 10560.00
1143.705, 10484.00
1144.796, 10442.00
1145.887, 10482.00
1146.977, 10621.00
1148.068, 10497.00
1149.158, 10613.00
1150.248, 10630.00
1151.338, 10675.00
1152.428, 10552.00
1153.518, 10643.00
1154.607, 10487.00
1155.696, 10604.00
1156.785, 10628.00
1157.874, 10535.00
1158.963, 10675.00
1160.052, 10545.00
1161.141, 10431.00
1162.229, 10685.00
1163.317, 10643.00
1164.405, 10763.00
1165.493, 10734.00
1166.581, 10667.00
1167.668, 10827.00
1168.756, 10782.00
1169.843, 10742.00
1170.930, 10798.00
1172.017, 10754.00
1173.103, 10779.00
1174.190, 10781.15
1175.276, 10732.00
1176.363, 10797.00
1177.449, 10915.00
1178.535, 10966.00
1179.620, 10971.00
1180.706, 11016.58
1181.791, 11110.00
1182.877, 10966.00
1183.962, 11106.00
1185.047, 10960.00
1186.131, 11015.00
1187.216, 11036.00
1188.300, 11005.00
1189.385, 11032.00
1190.469, 11026.75
1191.553, 11056.10
1192.637, 11049.00
1193.720, 11139.00
1194.804, 11196.00
1195.887, 11258.00
1196.970, 11251.00
1198.053, 11184.00
1199.136, 11241.00
1200.219, 11099.00
1201.301, 11311.00
1202.383, 11245.00
1203.465, 11508.00
1204.547, 11221.00
1205.629, 11299.00
1206.711, 11377.00
1207.792, 11256.00
1208.874, 11424.00
1209.955, 11464.00
1211.036, 11587.00
1212.117, 11567.00
1213.198, 11644.34
1214.278, 11693.00
1215.359, 11713.00
1216.439, 11688.00
1217.519, 11665.00
1218.599, 11795.00
1219.678, 11484.00
1220.758, 11633.00
1221.837, 11879.00
1222.917, 11560.00
1223.996, 11754.00
1225.075, 11848.00
1226.153, 11793.00
1227.232, 11713.00
1228.310, 11721.00
1229.389, 11715.00
1230.467, 11696.18
1231.545, 11785.00
1232.622, 11718.00
1233.700, 11681.00
1234.777, 11727.00
1235.855, 11661.00
1236.932, 11710.72
1238.009, 11566.00
1239.086, 11748.00
1240.162, 11672.00
1241.239, 11605.00
1242.315, 11653.00
1243.391, 11581.00
1244.467, 11649.99
1245.543, 11688.00
1246.619, 11757.00
1247.694, 11801.00
1248.769, 11801.00
1249.844, 11759.00
1250.919, 11793.38
1251.994, 11687.00
1253.069, 11823.00
1254.144, 11801.00
1255.218, 11840.17
1256.292, 11984.00
1257.366, 11819.00
1258.440, 11885.00
1259.514, 11821.00
1260.587, 11680.00
1261.661, 11676.00
1262.734, 11821.00
1263.807, 11704.00
1264.880, 11799.00
1265.952, 11723.00
1267.025, 11713.00
1268.097, 11771.00
1269.170, 11681.00
1270.242, 11608.00
1271.314, 11709.00
1272.385, 11470.00
1273.457, 11570.00
1274.528, 11596.00
1275.600, 11629.00
1276.671, 11680.00
1277.742, 11594.00
1278.812, 11627.00
1279.883, 11434.00
1280.954, 11499.00
1282.024, 11560.00
1283.094, 11491.00
1284.164, 11688.00
1285.234, 11585.00
1286.303, 11449.00
1287.373, 11513.00
1288.442, 11541.00
1289.511, 11646.00
1290.580, 11463.00
1291.649, 11380.00
1292.718, 11526.00
1293.786, 11486.00
1294.855, 11459.00
1295.923, 11587.00
1296.991, 11537.00
1298.059, 11661.00
1299.126, 11741.00
1300.194, 11584.00
1301.261, 11679.00
1302.328, 11806.00
1303.395, 11760.00
1304.462, 11570.00
1305.529, 11545.00
1306.596, 11645.00
1307.662, 11889.00
1308.728, 11729.00
1309.794, 11753.00
1310.860, 11726.00
1311.926, 11791.00
1312.991, 11805.00
1314.057, 11792.00
1315.122, 11802.00
1316.187, 11865.00
1317.252, 11899.00
1318.317, 11934.00
1319.381, 11960.40
1320.446, 11963.96
1321.510, 11985.00
1322.574, 11932.00
1323.638, 11922.00
1324.702, 11851.00
1325.766, 11851.00
1326.829, 11912.00
1327.892, 11764.00
1328.956, 11831.00
1330.019, 11899.00
1331.081, 11972.00
1332.144, 11793.00
1333.206, 11875.00
1334.269, 11780.00
1335.331, 11989.00
1336.393, 11865.00
1337.455, 11948.00
1338.516, 11856.00
1339.578, 11880.00
1340.639, 11936.00
1341.701, 11942.00
1342.762, 11966.91
1343.822, 11992.00
1344.883, 11999.00
1345.944, 11991.00
1347.004, 12017.66
1348.064, 12005.29
1349.124, 11983.00
1350.184, 12008.00
1351.244, 11980.00
1352.304, 12007.00
1353.363, 12080.00
1354.422, 12045.00
1355.481, 11961.00
1356.540, 12041.00
1357.599, 11863.00
1358.657, 11945.00
1359.716, 12055.00
1360.774, 12089.00
1361.832, 12057.00
1362.890, 12038.00
1363.948, 12088.00
1365.006, 12107.00
1366.063, 12169.00
1367.120, 12315.00
1368.178, 12118.00
1369.234, 12232.00
1370.291, 12293.00
1371.348, 12222.00
1372.404, 12143.00
1373.461, 12209.00
1374.517, 12105.00
1375.573, 12274.00
1376.629, 12064.00
1377.684, 12238.00
1378.740, 12190.00
1379.795, 12257.00
1380.850, 12171.00
1381.905, 12280.00
1382.960, 12130.00
1384.015, 12274.00
1385.070, 12410.00
1386.124, 12104.00
1387.178, 12373.00
1388.232, 12244.00
1389.286, 12271.00
1390.340, 12149.00
1391.393, 12269.00
1392.447, 12341.00
1393.500, 12229.00
1394.553, 12314.00
1395.606, 12176.00
1396.659, 12206.00
1397.711, 12277.00
1398.764, 12366.00
1399.816, 12345.00
1400.868, 12282.00
1401.920, 12248.00
1402.972, 12238.00
1404.023, 12288.00
1405.075, 12233.00
1406.126, 12297.00
1407.177, 12334.00
1408.228, 12350.00
1409.279, 12286.00
1410.330, 12488.00
1411.380, 12318.00
1412.431, 12373.00
1413.481, 12470.00
1414.531, 12371.00
1415.580, 12439.00
1416.630, 12419.00
1417.680, 12405.00
1418.729, 12396.00
1419.778, 12467.00
1420.827, 12391.00
1421.876, 12511.00
1422.925, 12549.00
1423.973, 12512.00
1425.022, 12580.00
1426.070, 12494.00
1427.118, 12487.00
1428.166, 12591.00
1429.214, 12553.00
1430.261, 12581.00
1431.309, 12623.00
1432.356, 12542.00
1433.403, 12424.00
1434.450, 12415.00
1435.497, 12485.00
1436.543, 12511.00
1437.590, 12656.00
1438.636, 12685.00
1439.682, 12601.00
1440.728, 12514.00
1441.774, 12651.00
1442.819, 12607.00
1443.865, 12493.00
1444.910, 12642.00
1445.955, 12640.00
1447.000, 12605.00
1448.045, 12559.00
1449.090, 12632.00
1450.134, 12561.00
1451.178, 12552.00
1452.223, 12598.00
1453.267, 12586.00
1454.310, 12684.00
1455.354, 12639.00
1456.398, 12738.00
1457.441, 12687.00
1458.484, 12729.00
1459.527, 12525.00
1460.570, 12631.00
1461.613, 12820.00
1462.655, 12724.00
1463.698, 12501.00
1464.740, 12644.00
1465.782, 12689.00
1466.824, 12737.00
1467.866, 12708.00
1468.907, 12804.00
1469.948, 12711.00
1470.990, 12755.00
1472.031, 12586.00
1473.072, 12777.00
1474.112, 12665.00
1475.153, 12725.00
1476.194, 12834.00
1477.234, 12596.00
1478.274, 12677.00
1479.314, 12784.00
1480.354, 12715.00
1481.393, 12787.00
1482.433, 12727.00
1483.472, 12766.00
1484.511, 12838.00
1485.550, 12801.64
1486.589, 12799.00
1487.628, 12783.00
1488.666, 12798.00
1489.704, 12753.00
1490.743, 12687.00
1491.781, 12749.00
1492.819, 12721.00
1493.856, 12664.00
1494.894, 12770.00
1495.931, 12811.00
1496.968, 12909.00
1498.005, 12845.00
1499.042, 12644.00
1500.079, 12866.00
1501.115, 12881.00
1502.152, 12652.00
1503.188, 12873.00
1504.224, 12722.00
1505.260, 12907.00
1506.296, 12935.00
1507.331, 12860.00
1508.367, 12742.00
1509.402, 12778.00
1510.437, 12869.00
1511.472, 12897.00
1512.507, 12909.19
1513.541, 12892.00
1514.576, 12900.00
1515.610, 12867.00
1516.644, 12852.00
1517.678, 12957.00
1518.712, 12852.00
1519.746, 12950.00
1520.779, 12964.00
1521.813, 12933.00
1522.846, 13042.00
1523.879, 12950.00
1524.912, 12979.00
1525.944, 12911.00
1526.977, 13019.00
1528.009, 12927.00
1529.041, 12949.00
1530.073, 13087.00
1531.105, 12912.00
1532.137, 13108.00
1533.168, 12993.00
1534.200, 13106.00
1535.231, 12966.00
1536.262, 13038.00
1537.293, 13024.00
1538.324, 13100.00
1539.354, 13162.00
1540.385, 13092.00
1541.415, 13063.00
1542.445, 13019.00
1543.475, 13220.00
1544.505, 13151.00
1545.534, 13200.00
1546.564, 13157.00
1547.593, 13106.00
1548.622, 13167.00
1549.651, 13189.00
1550.680, 13214.00
1551.708, 13122.00
1552.737, 13183.00
1553.765, 13187.00
1554.793, 13098.00
1555.821, 13110.00
1556.849, 13162.00
1557.877, 13182.00
1558.904, 13086.00
1559.932, 13100.00
1560.959, 13120.23
1561.986, 13224.00
1563.013, 13221.00
1564.039, 13249.00
1565.066, 13356.00
1566.092, 13158.00
1567.119, 13232.00
1568.145, 13301.00
1569.170, 13114.00
1570.196, 13191.00
##END=



