##NAMES=Inyoite
##RRUFFID=R040161
##IDEAL CHEMISTRY=CaB_3_O_3_(OH)_5_&#183;4H_2_O
##LOCALITY=Kramer deposit, Boron, Kern County, California, USA
##OWNER=RRUFF
##SOURCE=University of Arizona Mineral Museum
##DESCRIPTION=Group of colorless indistinct rounded crystals
##STATUS=The identification of this mineral has been confirmed by X-ray diffraction and chemical analysis
##URL=rruff.info/R040161
##MEASURED CHEMISTRY=Ca_1.00_B_3.00_O_3_(OH)_5_Â·4H_2_O
##PIN_ID=L00339
##ORIENTATION=Laser parallel to a* (1 0 0). Fiducial mark perpendicular to laser is parallel to b [0 1 0]
94.39300, 8122.000
95.63100, 8512.000
96.86900, 8790.000
98.10600, 9219.000
99.34400, 9496.000
100.5810, 9768.000
101.8190, 10127.00
103.0560, 10381.56
104.2930, 10775.00
105.5290, 10910.00
106.7660, 11320.00
108.0020, 11515.00
109.2390, 11642.00
110.4750, 11730.00
111.7110, 12037.00
112.9460, 12268.68
114.1820, 12848.00
115.4170, 12955.00
116.6530, 13246.00
117.8880, 13695.00
119.1230, 13532.00
120.3580, 13607.00
121.5920, 13753.00
122.8270, 13558.00
124.0610, 13770.00
125.2950, 13760.00
126.5290, 13525.00
127.7630, 13581.00
128.9970, 13352.00
130.2300, 13236.00
131.4640, 13296.00
132.6970, 13269.00
133.9300, 13404.00
135.1630, 13554.00
136.3950, 13765.00
137.6280, 14175.00
138.8600, 14648.00
140.0920, 15046.00
141.3240, 15672.00
142.5560, 16240.00
143.7880, 16916.00
145.0190, 17951.00
146.2510, 19005.00
147.4820, 20588.00
148.7130, 21905.00
149.9440, 23027.00
151.1750, 23698.00
152.4050, 23562.00
153.6360, 22554.00
154.8660, 21718.00
156.0960, 20864.00
157.3260, 20054.00
158.5560, 19418.00
159.7850, 18890.00
161.0150, 18719.72
162.2440, 18578.00
163.4730, 18886.00
164.7020, 19401.00
165.9310, 19942.00
167.1590, 21192.00
168.3880, 22601.00
169.6160, 24378.00
170.8440, 26646.00
172.0720, 28365.00
173.3000, 30645.00
174.5280, 32556.00
175.7550, 34387.00
176.9820, 36127.00
178.2100, 37384.00
179.4370, 38398.00
180.6630, 38095.84
181.8900, 37940.00
183.1170, 35902.00
184.3430, 33314.00
185.5690, 30578.00
186.7950, 28094.00
188.0210, 26102.00
189.2470, 24358.00
190.4720, 23625.00
191.6970, 22867.00
192.9230, 22451.00
194.1480, 21905.00
195.3730, 21278.00
196.5970, 20885.00
197.8220, 19972.00
199.0460, 19307.00
200.2700, 18882.00
201.4940, 18219.00
202.7180, 17870.00
203.9420, 17482.00
205.1660, 17105.00
206.3890, 17004.00
207.6120, 16974.00
208.8350, 16511.00
210.0580, 16578.00
211.2810, 16549.00
212.5040, 16467.00
213.7260, 16276.00
214.9480, 16020.00
216.1700, 16157.00
217.3920, 15934.00
218.6140, 15959.00
219.8360, 16036.00
221.0570, 15751.00
222.2790, 15727.00
223.5000, 16002.00
224.7210, 15848.00
225.9410, 15855.00
227.1620, 15767.00
228.3820, 15833.00
229.6030, 15778.00
230.8230, 15812.00
232.0430, 15710.00
233.2630, 15708.00
234.4820, 15612.00
235.7020, 16079.00
236.9210, 15794.00
238.1400, 15930.00
239.3590, 16005.00
240.5780, 15891.00
241.7970, 16151.00
243.0150, 16189.00
244.2340, 16617.00
245.4520, 16701.00
246.6700, 16988.00
247.8880, 17217.00
249.1060, 17438.00
250.3230, 18010.00
251.5400, 18136.00
252.7580, 18768.00
253.9750, 19281.00
255.1920, 19553.00
256.4080, 19974.00
257.6250, 20502.00
258.8410, 20607.00
260.0580, 20845.00
261.2740, 20418.00
262.4900, 20448.00
263.7050, 20084.00
264.9210, 20088.00
266.1360, 19584.00
267.3520, 19658.00
268.5670, 19142.00
269.7820, 19107.00
270.9960, 18790.00
272.2110, 18560.00
273.4250, 18435.00
274.6400, 18414.00
275.8540, 18194.00
277.0680, 17748.00
278.2810, 17726.00
279.4950, 17463.00
280.7090, 17587.00
281.9220, 17441.00
283.1350, 17284.00
284.3480, 17154.00
285.5610, 17269.00
286.7730, 17066.00
287.9860, 17080.00
289.1980, 16906.00
290.4100, 17082.00
291.6220, 17181.00
292.8340, 17165.00
294.0460, 17180.00
295.2570, 17227.00
296.4690, 17221.59
297.6800, 17298.12
298.8910, 17273.00
300.1020, 17405.00
301.3120, 17490.00
302.5230, 17467.00
303.7330, 17716.00
304.9440, 17830.00
306.1540, 17919.00
307.3630, 17983.00
308.5730, 18224.00
309.7830, 18427.00
310.9920, 18634.00
312.2010, 18841.00
313.4100, 19177.00
314.6190, 19551.00
315.8280, 19734.00
317.0370, 20136.00
318.2450, 20329.00
319.4530, 20728.00
320.6610, 21389.00
321.8690, 21718.00
323.0770, 22180.00
324.2850, 22575.00
325.4920, 22787.00
326.6990, 22773.00
327.9060, 22756.00
329.1130, 22656.00
330.3200, 22096.00
331.5270, 21905.00
332.7330, 21245.00
333.9390, 20785.00
335.1450, 20110.00
336.3510, 19901.00
337.5570, 19402.00
338.7630, 19156.00
339.9680, 18853.00
341.1740, 18560.00
342.3790, 18444.00
343.5840, 18317.00
344.7890, 18385.00
345.9930, 18153.00
347.1980, 18293.00
348.4020, 18083.00
349.6060, 18147.00
350.8100, 18122.00
352.0140, 18110.00
353.2180, 18055.00
354.4210, 18098.00
355.6250, 18067.00
356.8280, 18159.00
358.0310, 18161.00
359.2340, 18135.00
360.4360, 18115.00
361.6390, 18410.00
362.8410, 18367.00
364.0430, 18418.00
365.2450, 18368.00
366.4470, 18452.00
367.6490, 18615.00
368.8510, 18659.00
370.0520, 19066.00
371.2530, 19017.00
372.4540, 19253.00
373.6550, 19329.00
374.8560, 19517.00
376.0560, 19611.00
377.2570, 20034.00
378.4570, 20476.00
379.6570, 20611.00
380.8570, 21097.00
382.0570, 21448.00
383.2560, 21783.00
384.4560, 22219.00
385.6550, 22601.00
386.8540, 22918.88
388.0530, 23196.92
389.2520, 23466.00
390.4510, 23615.00
391.6490, 23690.00
392.8470, 23826.00
394.0450, 23395.00
395.2430, 23167.00
396.4410, 23371.00
397.6390, 23271.00
398.8360, 23264.00
400.0340, 23487.00
401.2310, 23731.00
402.4280, 24125.00
403.6250, 24383.00
404.8210, 24533.00
406.0180, 24820.00
407.2140, 24880.00
408.4100, 24643.00
409.6060, 24243.00
410.8020, 23668.00
411.9980, 22907.00
413.1930, 22324.00
414.3890, 21804.00
415.5840, 21291.00
416.7790, 20906.71
417.9740, 20696.00
419.1680, 20242.00
420.3630, 20130.00
421.5570, 19865.01
422.7510, 19764.59
423.9450, 19692.00
425.1390, 19705.00
426.3330, 19787.00
427.5270, 19818.00
428.7200, 19740.00
429.9130, 19615.00
431.1060, 19778.00
432.2990, 19711.00
433.4920, 19757.00
434.6840, 19808.00
435.8770, 19799.00
437.0690, 19721.00
438.2610, 19891.00
439.4530, 19866.00
440.6450, 19902.00
441.8360, 20224.00
443.0280, 20057.00
444.2190, 20207.00
445.4100, 20368.00
446.6010, 20297.00
447.7920, 20742.00
448.9820, 21023.00
450.1730, 21231.00
451.3630, 21223.00
452.5530, 21727.00
453.7430, 22178.00
454.9330, 22570.00
456.1230, 23465.00
457.3120, 24186.00
458.5010, 25103.00
459.6910, 26394.00
460.8800, 27515.00
462.0680, 28643.00
463.2570, 29137.00
464.4460, 29749.00
465.6340, 29800.00
466.8220, 29003.00
468.0100, 27932.00
469.1980, 26500.00
470.3860, 25450.00
471.5730, 24086.00
472.7600, 23512.00
473.9480, 22782.00
475.1350, 22125.00
476.3210, 21858.00
477.5080, 21637.00
478.6950, 21453.00
479.8810, 21402.00
481.0670, 21279.00
482.2530, 21016.00
483.4390, 21150.00
484.6250, 21117.00
485.8100, 20919.00
486.9960, 21152.00
488.1810, 21221.00
489.3660, 21174.00
490.5510, 21252.00
491.7360, 21254.00
492.9200, 21200.00
494.1050, 21394.00
495.2890, 21643.00
496.4730, 21618.00
497.6570, 21993.00
498.8400, 22047.00
500.0240, 22252.00
501.2070, 22301.00
502.3910, 22450.00
503.5740, 22511.00
504.7570, 22522.85
505.9400, 22249.00
507.1220, 22454.00
508.3050, 22231.00
509.4870, 22051.00
510.6690, 22149.00
511.8510, 21867.00
513.0330, 21710.00
514.2140, 21679.00
515.3960, 21705.00
516.5770, 21809.00
517.7580, 21695.00
518.9390, 21792.00
520.1200, 21788.00
521.3010, 21594.00
522.4810, 21731.00
523.6610, 21741.00
524.8420, 21887.00
526.0220, 22021.00
527.2010, 21773.00
528.3810, 21970.00
529.5610, 21919.00
530.7400, 21812.00
531.9190, 21884.00
533.0980, 21942.00
534.2770, 22049.00
535.4560, 22090.00
536.6340, 22140.00
537.8120, 22138.00
538.9910, 21962.00
540.1690, 21852.00
541.3460, 21932.00
542.5240, 21867.10
543.7020, 21858.00
544.8790, 21974.00
546.0560, 21918.00
547.2330, 22051.00
548.4100, 21992.00
549.5870, 22030.00
550.7630, 22051.00
551.9400, 22066.32
553.1160, 22166.00
554.2920, 22183.00
555.4680, 22289.00
556.6440, 22438.00
557.8190, 22593.00
558.9950, 22522.00
560.1700, 22524.00
561.3450, 22632.00
562.5200, 22630.00
563.6950, 22752.00
564.8690, 22696.00
566.0440, 22954.00
567.2180, 22931.00
568.3920, 23004.00
569.5660, 23183.00
570.7400, 23112.00
571.9130, 23213.00
573.0870, 23336.00
574.2600, 23379.00
575.4330, 23576.00
576.6060, 23529.00
577.7790, 23731.00
578.9520, 23830.00
580.1240, 24141.00
581.2960, 24317.00
582.4690, 24375.00
583.6410, 24438.00
584.8120, 24454.00
585.9840, 24636.00
587.1560, 24876.00
588.3270, 25334.00
589.4980, 25157.00
590.6690, 25503.00
591.8400, 25918.00
593.0110, 25920.00
594.1810, 26381.00
595.3510, 26847.00
596.5220, 27194.00
597.6920, 27845.00
598.8610, 28179.00
600.0310, 29223.00
601.2010, 30033.00
602.3700, 30665.00
603.5390, 32317.00
604.7080, 33690.00
605.8770, 35492.00
607.0460, 37670.00
608.2140, 40131.00
609.3830, 42512.00
610.5510, 45646.00
611.7190, 48658.00
612.8870, 51150.00
614.0550, 53369.00
615.2220, 54323.00
616.3900, 53334.00
617.5570, 51313.00
618.7240, 48251.00
619.8910, 44305.00
621.0580, 40541.00
622.2240, 37002.00
623.3910, 34392.00
624.5570, 32066.00
625.7230, 30435.00
626.8890, 29138.00
628.0550, 28022.00
629.2200, 27200.00
630.3860, 26751.00
631.5510, 26184.00
632.7160, 25872.00
633.8810, 25534.00
635.0460, 25350.00
636.2100, 24983.00
637.3750, 24975.00
638.5390, 24827.00
639.7030, 24982.00
640.8670, 24758.00
642.0310, 24696.00
643.1950, 24659.00
644.3580, 24708.00
645.5210, 24658.11
646.6850, 24624.13
647.8480, 24661.00
649.0100, 24516.00
650.1730, 24561.00
651.3350, 24508.00
652.4980, 24735.00
653.6600, 24474.00
654.8220, 24297.00
655.9840, 24447.00
657.1450, 24635.00
658.3070, 24485.00
659.4680, 24606.00
660.6300, 24833.00
661.7910, 24622.00
662.9510, 24682.00
664.1120, 24431.00
665.2730, 24659.00
666.4330, 24670.00
667.5930, 24591.00
668.7530, 24719.00
669.9130, 24734.39
671.0730, 24634.00
672.2320, 24807.00
673.3920, 24821.00
674.5510, 24691.00
675.7100, 24692.00
676.8690, 24785.00
678.0280, 24800.00
679.1860, 25023.00
680.3450, 24859.00
681.5030, 24927.00
682.6610, 24849.00
683.8190, 25097.00
684.9770, 25107.00
686.1340, 25081.00
687.2920, 25094.00
688.4490, 25074.00
689.6060, 25255.00
690.7630, 25005.00
691.9200, 25276.00
693.0760, 25377.00
694.2330, 25111.00
695.3890, 25332.00
696.5450, 25292.00
697.7010, 25567.00
698.8570, 25583.00
700.0130, 25536.00
701.1680, 25512.00
702.3230, 25493.00
703.4780, 25521.00
704.6330, 25790.00
705.7880, 25507.00
706.9430, 25910.00
708.0970, 25773.00
709.2520, 25645.00
710.4060, 25895.00
711.5600, 26080.00
712.7140, 25927.00
713.8670, 26063.00
715.0210, 26459.00
716.1740, 26754.00
717.3270, 26860.00
718.4800, 27222.00
719.6330, 27549.66
720.7860, 27556.00
721.9380, 28361.00
723.0910, 28788.00
724.2430, 29275.00
725.3950, 30153.00
726.5470, 30736.00
727.6980, 31842.00
728.8500, 32365.00
730.0010, 32799.00
731.1530, 32961.00
732.3040, 32960.00
733.4550, 32158.00
734.6050, 31353.00
735.7560, 30330.00
736.9060, 29344.00
738.0560, 28571.00
739.2060, 28127.00
740.3560, 27767.00
741.5060, 27322.25
742.6560, 27089.00
743.8050, 26769.00
744.9540, 26513.00
746.1030, 26358.00
747.2520, 26468.00
748.4010, 26298.00
749.5500, 26295.00
750.6980, 26283.00
751.8460, 26191.00
752.9950, 26174.00
754.1420, 26304.00
755.2900, 26144.00
756.4380, 26224.00
757.5850, 26302.00
758.7330, 26152.00
759.8800, 26224.00
761.0270, 26451.00
762.1730, 26518.00
763.3200, 26225.00
764.4670, 26427.00
765.6130, 26566.00
766.7590, 26288.00
767.9050, 26493.00
769.0510, 26593.00
770.1960, 26674.00
771.3420, 26557.00
772.4870, 26514.00
773.6320, 26314.00
774.7770, 26522.00
775.9220, 26439.00
777.0670, 26542.00
778.2110, 26573.00
779.3560, 26572.67
780.5000, 26642.33
781.6440, 26585.00
782.7880, 26696.00
783.9320, 26642.00
785.0750, 26609.00
786.2180, 26552.00
787.3620, 26734.00
788.5050, 26590.00
789.6480, 26662.79
790.7900, 26409.00
791.9330, 26701.00
793.0750, 26710.00
794.2170, 26733.00
795.3590, 27047.00
796.5010, 26739.00
797.6430, 26955.00
798.7850, 27054.00
799.9260, 26975.00
801.0670, 26951.00
802.2080, 26932.00
803.3490, 27333.00
804.4900, 27182.00
805.6310, 27088.00
806.7710, 27483.00
807.9110, 27204.00
809.0510, 27447.00
810.1910, 27355.00
811.3310, 27502.00
812.4710, 27344.00
813.6100, 27524.00
814.7490, 27431.00
815.8880, 27095.00
817.0270, 27323.00
818.1660, 27323.00
819.3050, 27542.00
820.4430, 27245.00
821.5820, 27365.00
822.7200, 27406.00
823.8580, 27464.00
824.9950, 27471.00
826.1330, 27397.00
827.2710, 27670.00
828.4080, 27643.00
829.5450, 27777.00
830.6820, 27464.00
831.8190, 27626.00
832.9560, 27383.00
834.0920, 27427.00
835.2280, 27557.00
836.3650, 27980.00
837.5010, 27851.00
838.6360, 27873.00
839.7720, 27896.00
840.9080, 27753.00
842.0430, 27952.00
843.1780, 27967.00
844.3130, 27941.00
845.4480, 27855.00
846.5830, 28116.00
847.7170, 28207.00
848.8520, 28221.00
849.9860, 28166.00
851.1200, 28288.00
852.2540, 28411.00
853.3870, 28363.00
854.5210, 28421.00
855.6540, 28487.00
856.7880, 28655.00
857.9210, 28519.00
859.0540, 28727.00
860.1860, 28622.00
861.3190, 28712.00
862.4510, 28699.00
863.5840, 28830.00
864.7160, 28957.00
865.8480, 28791.00
866.9790, 28711.00
868.1110, 28882.00
869.2420, 29015.00
870.3740, 28913.00
871.5050, 28892.00
872.6360, 28948.00
873.7660, 29084.00
874.8970, 29045.00
876.0280, 29171.00
877.1580, 29174.00
878.2880, 29299.00
879.4180, 29241.00
880.5480, 29203.00
881.6770, 29151.00
882.8070, 29180.00
883.9360, 29314.00
885.0650, 29317.00
886.1940, 29339.00
887.3230, 29340.00
888.4520, 29338.65
889.5800, 29167.00
890.7090, 29333.00
891.8370, 29367.00
892.9650, 29380.00
894.0930, 29785.00
895.2200, 29480.00
896.3480, 29932.00
897.4750, 29847.00
898.6020, 29976.00
899.7290, 29843.00
900.8560, 30077.00
901.9830, 30156.00
903.1090, 30152.00
904.2360, 30611.00
905.3620, 30506.00
906.4880, 30707.00
907.6140, 30619.00
908.7400, 30822.00
909.8650, 30831.00
910.9900, 30987.00
912.1160, 30874.00
913.2410, 30834.00
914.3660, 31299.00
915.4900, 31004.00
916.6150, 31160.00
917.7390, 31330.00
918.8640, 31347.00
919.9880, 31441.00
921.1120, 31665.00
922.2350, 31743.00
923.3590, 31846.00
924.4820, 32133.00
925.6060, 32022.00
926.7290, 32524.00
927.8520, 32711.00
928.9740, 33002.00
930.0970, 32498.00
931.2190, 32612.00
932.3420, 32364.00
933.4640, 32305.00
934.5860, 32390.00
935.7080, 32049.00
936.8290, 31986.00
937.9510, 31966.00
939.0720, 31936.00
940.1930, 32002.00
941.3140, 31966.76
942.4350, 31751.00
943.5560, 31910.00
944.6760, 31801.00
945.7960, 31658.00
946.9170, 31682.00
948.0370, 31621.00
949.1560, 31653.00
950.2760, 31519.00
951.3960, 31632.00
952.5150, 31626.00
953.6340, 31322.00
954.7530, 31717.00
955.8720, 31582.00
956.9910, 31738.00
958.1090, 31493.00
959.2280, 31411.00
960.3460, 31535.00
961.4640, 31461.00
962.5820, 31370.00
963.6990, 31519.00
964.8170, 31190.00
965.9340, 31510.00
967.0510, 31314.00
968.1690, 31352.00
969.2850, 31294.00
970.4020, 31575.00
971.5190, 31417.00
972.6350, 31310.00
973.7510, 31569.00
974.8670, 31519.00
975.9830, 31540.00
977.0990, 31421.00
978.2150, 31571.00
979.3300, 31514.00
980.4450, 31449.00
981.5600, 31694.00
982.6750, 31542.00
983.7900, 31595.00
984.9050, 31483.00
986.0190, 31698.00
987.1340, 31511.00
988.2480, 31625.00
989.3620, 31707.00
990.4750, 31790.00
991.5890, 31740.00
992.7020, 31768.50
993.8160, 31607.00
994.9290, 31702.00
996.0420, 31721.00
997.1550, 31666.00
998.2670, 31873.00
999.3800, 31961.00
1000.492, 31784.00
1001.604, 31921.00
1002.716, 32043.00
1003.828, 32074.00
1004.940, 31932.00
1006.051, 32198.00
1007.163, 32010.00
1008.274, 31835.00
1009.385, 32010.00
1010.496, 31973.00
1011.606, 32163.00
1012.717, 32283.00
1013.827, 31967.00
1014.937, 32287.00
1016.047, 32085.00
1017.157, 32471.00
1018.267, 32081.00
1019.377, 32246.00
1020.486, 32287.00
1021.595, 32399.00
1022.704, 32470.00
1023.813, 32455.00
1024.922, 32232.00
1026.030, 32488.00
1027.139, 32060.00
1028.247, 32229.00
1029.355, 32314.00
1030.463, 32546.00
1031.571, 32431.00
1032.678, 32312.00
1033.786, 32192.00
1034.893, 32530.00
1036.000, 32586.00
1037.107, 32561.00
1038.214, 32407.00
1039.321, 32859.00
1040.427, 32652.00
1041.533, 32774.00
1042.639, 32950.00
1043.745, 32686.00
1044.851, 32619.00
1045.957, 32922.00
1047.062, 32875.00
1048.168, 32955.00
1049.273, 33005.00
1050.378, 32987.00
1051.482, 33014.12
1052.587, 32859.00
1053.692, 32995.00
1054.796, 33046.00
1055.900, 33047.55
1057.004, 33201.00
1058.108, 33035.00
1059.212, 32885.00
1060.315, 32929.00
1061.418, 33131.00
1062.522, 32951.00
1063.625, 32905.00
1064.728, 33044.00
1065.830, 33448.00
1066.933, 33216.00
1068.035, 33467.00
1069.137, 33109.00
1070.239, 33321.00
1071.341, 33602.00
1072.443, 33445.00
1073.545, 33617.00
1074.646, 33558.00
1075.747, 33407.00
1076.848, 33621.00
1077.949, 33775.00
1079.050, 33578.00
1080.150, 33515.00
1081.251, 33635.00
1082.351, 33847.00
1083.451, 33900.00
1084.551, 33844.00
1085.651, 33720.00
1086.750, 34087.00
1087.850, 33970.00
1088.949, 34014.00
1090.048, 34196.00
1091.147, 34042.00
1092.246, 34137.00
1093.345, 34136.00
1094.443, 34073.00
1095.541, 34053.00
1096.639, 34057.00
1097.737, 34074.32
1098.835, 34380.00
1099.933, 34232.00
1101.030, 34365.00
1102.128, 34595.00
1103.225, 34263.00
1104.322, 34511.00
1105.419, 34328.00
1106.515, 34454.00
1107.612, 34442.00
1108.708, 34518.00
1109.804, 34435.00
1110.900, 34472.00
1111.996, 34687.00
1113.092, 34471.00
1114.187, 34718.00
1115.283, 34439.00
1116.378, 34663.00
1117.473, 34746.00
1118.568, 34623.00
1119.662, 34674.00
1120.757, 34792.00
1121.851, 34728.00
1122.946, 34693.00
1124.040, 34902.00
1125.134, 34873.00
1126.227, 34782.00
1127.321, 34831.00
1128.414, 34823.79
1129.508, 34713.00
1130.601, 34910.00
1131.693, 34900.00
1132.786, 34976.00
1133.879, 34800.00
1134.971, 34653.00
1136.064, 34886.00
1137.156, 35019.00
1138.248, 35090.00
1139.339, 35152.56
1140.431, 35084.00
1141.522, 35157.00
1142.614, 35072.00
1143.705, 35088.00
1144.796, 34993.00
1145.887, 35298.00
1146.977, 35214.00
1148.068, 35272.00
1149.158, 35053.00
1150.248, 35074.00
1151.338, 35330.00
1152.428, 35326.00
1153.518, 35416.00
1154.607, 35375.00
1155.696, 35108.00
1156.785, 35349.00
1157.874, 35295.00
1158.963, 35679.00
1160.052, 35476.00
1161.141, 35422.00
1162.229, 35244.00
1163.317, 35466.00
1164.405, 35592.00
1165.493, 35759.00
1166.581, 35887.00
1167.668, 35612.00
1168.756, 35709.00
1169.843, 35760.00
1170.930, 35869.00
1172.017, 35712.00
1173.103, 35976.00
1174.190, 35660.00
1175.276, 35900.00
1176.363, 35916.00
1177.449, 35760.00
1178.535, 35973.00
1179.620, 35946.00
1180.706, 35721.00
1181.791, 35766.00
1182.877, 35866.00
1183.962, 36015.00
1185.047, 36012.02
1186.131, 36115.00
1187.216, 36117.00
1188.300, 36035.00
1189.385, 36216.00
1190.469, 36235.00
1191.553, 36138.00
1192.637, 36277.12
1193.720, 36056.00
1194.804, 36313.00
1195.887, 36455.00
1196.970, 36311.00
1198.053, 36138.00
1199.136, 36235.00
1200.219, 36246.00
1201.301, 36446.00
1202.383, 36407.00
1203.465, 36303.00
1204.547, 36680.00
1205.629, 36592.00
1206.711, 36495.00
1207.792, 36472.00
1208.874, 36281.00
1209.955, 36536.00
1211.036, 36336.00
1212.117, 36766.00
1213.198, 36781.00
1214.278, 36838.00
1215.359, 36807.00
1216.439, 36875.00
1217.519, 36923.00
1218.599, 36676.00
1219.678, 36830.00
1220.758, 36934.00
1221.837, 36722.00
1222.917, 36921.00
1223.996, 36764.00
1225.075, 37059.00
1226.153, 36986.00
1227.232, 36894.00
1228.310, 37010.00
1229.389, 37100.00
1230.467, 37157.00
1231.545, 37156.00
1232.622, 37247.31
1233.700, 37215.00
1234.777, 37355.00
1235.855, 37303.00
1236.932, 37307.00
1238.009, 37533.00
1239.086, 37313.00
1240.162, 37309.00
1241.239, 37743.00
1242.315, 37850.00
1243.391, 37759.00
1244.467, 37711.00
1245.543, 37630.00
1246.619, 37885.00
1247.694, 37592.00
1248.769, 37692.00
1249.844, 37859.00
1250.919, 37618.00
1251.994, 37823.00
1253.069, 37916.00
1254.144, 37729.00
1255.218, 38209.00
1256.292, 38044.00
1257.366, 37984.00
1258.440, 37882.00
1259.514, 37958.00
1260.587, 38004.00
1261.661, 37931.00
1262.734, 38023.00
1263.807, 37994.12
1264.880, 38200.00
1265.952, 37935.00
1267.025, 38005.00
1268.097, 37863.00
1269.170, 38161.00
1270.242, 37845.00
1271.314, 37962.00
1272.385, 37933.00
1273.457, 37934.00
1274.528, 37956.57
1275.600, 38020.00
1276.671, 38026.00
1277.742, 38046.00
1278.812, 38268.00
1279.883, 38168.00
1280.954, 38124.00
1282.024, 38314.00
1283.094, 37983.00
1284.164, 38243.00
1285.234, 38101.00
1286.303, 38268.00
1287.373, 38202.00
1288.442, 38234.00
1289.511, 37976.00
1290.580, 38016.00
1291.649, 38072.00
1292.718, 38300.00
1293.786, 38055.00
1294.855, 37988.00
1295.923, 38090.00
1296.991, 37902.00
1298.059, 38309.00
1299.126, 38470.00
1300.194, 38387.00
1301.261, 38586.00
1302.328, 38381.00
1303.395, 38363.00
1304.462, 38670.00
1305.529, 38365.00
1306.596, 38562.00
1307.662, 38485.00
1308.728, 38628.00
1309.794, 38784.00
1310.860, 39028.00
1311.926, 38901.00
1312.991, 38946.00
1314.057, 38922.00
1315.122, 38890.00
1316.187, 38810.00
1317.252, 39056.00
1318.317, 39006.00
1319.381, 39037.00
1320.446, 38970.00
1321.510, 39154.00
1322.574, 38891.00
1323.638, 38883.00
1324.702, 39279.00
1325.766, 39226.00
1326.829, 39421.00
1327.892, 39480.00
1328.956, 39176.00
1330.019, 39268.00
1331.081, 39421.00
1332.144, 39677.00
1333.206, 39303.00
1334.269, 39418.00
1335.331, 39384.00
1336.393, 39410.00
1337.455, 39547.00
1338.516, 39463.62
1339.578, 39419.00
1340.639, 39398.00
1341.701, 39428.00
1342.762, 39415.00
1343.822, 39631.00
1344.883, 39672.00
1345.944, 39798.00
1347.004, 39730.00
1348.064, 39911.00
1349.124, 39697.00
1350.184, 39696.00
1351.244, 39677.00
1352.304, 39779.00
1353.363, 39788.00
1354.422, 39772.00
1355.481, 39777.00
1356.540, 39773.00
1357.599, 39790.00
1358.657, 40108.00
1359.716, 40045.00
1360.774, 40049.00
1361.832, 39895.00
1362.890, 39928.00
1363.948, 40127.00
1365.006, 40097.00
1366.063, 40105.00
1367.120, 40169.00
1368.178, 40133.00
1369.234, 40104.00
1370.291, 40016.00
1371.348, 40177.00
1372.404, 40259.00
1373.461, 40312.00
1374.517, 40276.00
1375.573, 40374.00
1376.629, 40514.00
1377.684, 40350.00
1378.740, 40512.00
1379.795, 40344.00
1380.850, 40498.00
1381.905, 40477.00
1382.960, 40504.00
1384.015, 40463.00
1385.070, 40509.23
1386.124, 40522.00
1387.178, 40577.00
1388.232, 40548.00
1389.286, 40552.00
1390.340, 40608.43
1391.393, 40585.68
1392.447, 40723.00
1393.500, 40571.00
1394.553, 40636.00
1395.606, 40584.00
1396.659, 41074.00
1397.711, 40577.00
1398.764, 41012.00
1399.816, 41060.00
1400.868, 40921.00
1401.920, 40952.00
1402.972, 41316.00
1404.023, 40798.00
1405.075, 41144.00
1406.126, 41198.00
1407.177, 40874.00
1408.228, 41194.00
1409.279, 41124.00
1410.330, 41206.00
1411.380, 40976.00
1412.431, 41238.00
1413.481, 41445.00
1414.531, 41102.00
1415.580, 41334.00
1416.630, 41515.00
1417.680, 41576.00
1418.729, 41511.00
1419.778, 41379.00
1420.827, 41593.00
1421.876, 41593.00
1422.925, 41673.00
1423.973, 41835.00
1425.022, 41732.00
1426.070, 41801.00
1427.118, 41719.00
1428.166, 41847.00
1429.214, 41879.00
1430.261, 41877.00
1431.309, 42004.00
1432.356, 42033.00
1433.403, 41997.00
1434.450, 41732.00
1435.497, 42201.00
1436.543, 42316.00
1437.590, 42062.00
1438.636, 42111.00
1439.682, 41798.00
1440.728, 42163.00
1441.774, 42054.00
1442.819, 42064.00
1443.865, 42016.00
1444.910, 42084.00
1445.955, 42211.00
1447.000, 42157.27
1448.045, 42473.00
1449.090, 42123.00
1450.134, 42406.00
1451.178, 42377.00
1452.223, 42121.00
1453.267, 42213.00
1454.310, 42357.00
1455.354, 42225.00
1456.398, 42329.00
1457.441, 42574.00
1458.484, 42457.00
1459.527, 42537.00
1460.570, 42405.00
1461.613, 42616.00
1462.655, 42471.00
1463.698, 42548.00
1464.740, 42416.00
1465.782, 42752.00
1466.824, 42596.00
1467.866, 42700.00
1468.907, 42412.00
1469.948, 42781.00
1470.990, 42533.00
1472.031, 42808.00
1473.072, 42469.00
1474.112, 42676.00
1475.153, 42550.00
1476.194, 42915.00
1477.234, 43009.00
1478.274, 42542.00
1479.314, 42872.00
1480.354, 43026.00
1481.393, 42760.00
1482.433, 42834.00
1483.472, 42964.00
1484.511, 43020.00
1485.550, 42802.00
1486.589, 42854.00
1487.628, 42856.00
1488.666, 43080.00
1489.704, 42913.00
1490.743, 42616.00
1491.781, 42793.00
1492.819, 43106.00
1493.856, 42804.00
1494.894, 43279.00
1495.931, 43168.00
1496.968, 42901.00
1498.005, 43008.00
1499.042, 43210.00
1500.079, 42948.00
1501.115, 42968.00
1502.152, 43244.00
1503.188, 43139.00
1504.224, 43357.00
1505.260, 43290.00
1506.296, 43336.00
1507.331, 43288.00
1508.367, 43230.00
1509.402, 43189.00
1510.437, 43240.00
1511.472, 43414.00
1512.507, 43408.00
1513.541, 43474.00
1514.576, 43478.00
1515.610, 43479.00
1516.644, 43418.00
1517.678, 43623.00
1518.712, 43649.00
1519.746, 43433.00
1520.779, 43654.00
1521.813, 43650.00
1522.846, 43519.00
1523.879, 43450.00
1524.912, 43654.00
1525.944, 43883.00
1526.977, 43786.00
1528.009, 43411.00
1529.041, 44063.00
1530.073, 43689.00
1531.105, 43514.00
1532.137, 43667.00
1533.168, 43756.00
1534.200, 43936.00
1535.231, 43860.00
1536.262, 43816.00
1537.293, 43994.00
1538.324, 43803.00
1539.354, 44009.00
1540.385, 44071.00
1541.415, 44051.00
1542.445, 43952.00
1543.475, 44047.00
1544.505, 43990.00
1545.534, 43920.00
1546.564, 43879.00
1547.593, 44106.00
1548.622, 44142.00
1549.651, 44120.00
1550.680, 44132.00
1551.708, 43938.00
1552.737, 44177.00
1553.765, 44304.00
1554.793, 43993.00
1555.821, 44187.00
1556.849, 44608.00
1557.877, 44146.00
1558.904, 43987.00
1559.932, 44034.00
1560.959, 44415.00
1561.986, 44433.00
1563.013, 44322.00
1564.039, 44279.00
1565.066, 44396.00
1566.092, 44452.00
1567.119, 44393.00
1568.145, 44300.00
1569.170, 44466.00
1570.196, 44667.00
##END=



