##NAMES=Jacobsite
##RRUFFID=R060780
##IDEAL CHEMISTRY=Mn^2+^Fe^3+^_2_O_4_
##LOCALITY=Jakobsberg, Sweden
##OWNER=RRUFF
##SOURCE=Michael Scott
##DESCRIPTION=Black grains
##STATUS=The identification of this mineral is confirmed by single-crystal X-ray diffraction and chemical analysis.
##URL=rruff.info/R060780
##MEASURED CHEMISTRY=(Mn^2+^_0.75_Mg_0.25_)_Σ=1_(Fe^3+^_1.92_Mn^3+^_0.08_)_Σ=2_O_4_
##PIN_ID=M01488
##ORIENTATION=Laser parallel to a* (1 0 0). Fiducial mark perpendicular to laser is parallel to c [0 0 1]
200.2690, 90044.00
201.4910, 88651.00
202.7140, 88910.00
203.9360, 88499.00
205.1580, 87583.00
206.3800, 86805.00
207.6020, 86786.00
208.8240, 87180.00
210.0450, 87121.00
211.2670, 86445.00
212.4880, 86172.98
213.7090, 85852.00
214.9300, 85274.00
216.1510, 85588.00
217.3710, 86202.00
218.5920, 86423.00
219.8120, 85714.00
221.0320, 85384.00
222.2520, 86212.00
223.4720, 85529.00
224.6910, 85751.00
225.9110, 85212.00
227.1300, 85727.00
228.3490, 85242.00
229.5680, 84819.00
230.7870, 85565.00
232.0050, 85041.00
233.2240, 85792.00
234.4420, 84947.00
235.6600, 84714.00
236.8780, 85955.00
238.0960, 84950.00
239.3140, 84656.00
240.5310, 84377.44
241.7490, 84856.09
242.9660, 85123.52
244.1830, 85191.09
245.4000, 84460.14
246.6160, 84760.31
247.8330, 84647.26
249.0490, 84122.34
250.2660, 84638.14
251.4820, 84942.70
252.6980, 85047.38
253.9130, 84353.52
255.1290, 84690.80
256.3440, 84614.84
257.5600, 84521.95
258.7750, 85004.34
259.9900, 84426.62
261.2040, 84899.84
262.4190, 84953.57
263.6330, 85199.27
264.8480, 85029.23
266.0620, 84594.64
267.2760, 85145.09
268.4900, 85484.30
269.7030, 85623.59
270.9170, 84964.43
272.1300, 85336.32
273.3430, 85294.99
274.5560, 85236.72
275.7690, 85753.73
276.9820, 85210.66
278.1940, 85718.49
279.4070, 85806.86
280.6190, 86087.18
281.8310, 85951.73
283.0430, 85869.00
284.2550, 85906.18
285.4660, 86144.00
286.6770, 86113.00
287.8890, 85999.00
289.1000, 86328.00
290.3110, 86287.00
291.5210, 86336.80
292.7320, 86607.00
293.9420, 86434.00
295.1530, 86677.00
296.3630, 86844.00
297.5730, 86767.55
298.7830, 87419.00
299.9920, 86670.00
301.2020, 87075.00
302.4110, 86879.00
303.6200, 87430.00
304.8290, 87486.00
306.0380, 87803.00
307.2470, 87723.00
308.4550, 88212.00
309.6630, 87615.00
310.8720, 87944.00
312.0800, 88161.00
313.2880, 88320.00
314.4950, 88467.00
315.7030, 88167.00
316.9100, 88506.00
318.1170, 88298.00
319.3240, 88722.00
320.5310, 88550.00
321.7380, 88782.00
322.9450, 88590.00
324.1510, 88922.00
325.3570, 88783.00
326.5630, 88913.00
327.7690, 89116.00
328.9750, 89035.00
330.1810, 89141.00
331.3860, 89360.00
332.5910, 88919.00
333.7960, 88734.00
335.0010, 88782.00
336.2060, 89034.00
337.4110, 88696.00
338.6150, 89421.00
339.8200, 89367.00
341.0240, 89354.00
342.2280, 88822.68
343.4320, 89296.60
344.6350, 89559.30
345.8390, 89622.12
347.0420, 88886.43
348.2450, 89181.86
349.4480, 89064.06
350.6510, 88929.31
351.8540, 89369.87
353.0560, 88750.32
354.2590, 88888.00
355.4610, 88929.00
356.6630, 88399.03
357.8650, 88859.82
359.0670, 89109.38
360.2680, 89159.09
361.4700, 88410.27
362.6710, 88692.59
363.8720, 88561.67
365.0730, 88413.81
366.2740, 88841.25
367.4740, 88208.61
368.6750, 88626.92
369.8750, 88625.73
371.0750, 88816.54
372.2750, 88591.58
373.4750, 88495.03
374.6740, 88814.41
375.8740, 88903.49
377.0730, 88630.69
378.2720, 88833.72
379.4710, 88186.58
380.6700, 88285.48
381.8690, 89103.00
383.0670, 88465.00
384.2660, 88237.00
385.4640, 88621.00
386.6620, 88370.00
387.8600, 88727.00
389.0570, 88469.00
390.2550, 88403.00
391.4520, 88275.00
392.6490, 88353.00
393.8460, 88990.00
395.0430, 88575.00
396.2400, 88930.00
397.4370, 88966.00
398.6330, 88756.00
399.8290, 89248.00
401.0250, 88894.00
402.2210, 89155.64
403.4170, 90123.00
404.6130, 89295.00
405.8080, 89699.00
407.0030, 89431.00
408.1980, 90083.00
409.3930, 89911.00
410.5880, 89492.00
411.7830, 89365.00
412.9770, 89871.00
414.1720, 90145.00
415.3660, 90316.00
416.5600, 90850.00
417.7530, 90711.95
418.9470, 90946.00
420.1410, 90716.00
421.3340, 90887.00
422.5270, 91249.00
423.7200, 91166.00
424.9130, 91459.55
426.1060, 91236.00
427.2980, 91635.00
428.4900, 91857.00
429.6830, 91536.00
430.8750, 92460.00
432.0670, 92521.00
433.2580, 92933.00
434.4500, 92860.00
435.6410, 92600.93
436.8320, 93159.32
438.0240, 93541.81
439.2140, 93757.48
440.4050, 93307.86
441.5960, 93717.50
442.7860, 93782.65
443.9760, 93833.67
445.1670, 94364.23
446.3560, 94011.12
447.5460, 94533.96
448.7360, 94707.18
449.9250, 94846.00
451.1150, 94468.00
452.3040, 94302.00
453.4930, 95106.00
454.6810, 95233.00
455.8700, 95630.00
457.0590, 95301.00
458.2470, 95319.00
459.4350, 95500.00
460.6230, 95604.00
461.8110, 95717.00
462.9980, 95854.42
464.1860, 95520.00
465.3730, 95943.00
466.5600, 95994.00
467.7470, 95711.00
468.9340, 96028.00
470.1210, 95995.00
471.3080, 95858.00
472.4940, 95830.00
473.6800, 95794.00
474.8660, 96200.00
476.0520, 96031.00
477.2380, 96138.00
478.4230, 96083.00
479.6090, 96576.00
480.7940, 96527.57
481.9790, 96765.00
483.1640, 96682.00
484.3490, 97040.00
485.5330, 97036.00
486.7180, 96893.00
487.9020, 96538.52
489.0860, 97032.02
490.2700, 97349.51
491.4540, 97500.44
492.6370, 96985.85
493.8210, 97330.61
495.0040, 97330.94
496.1870, 97317.15
497.3700, 97782.77
498.5530, 97364.97
499.7360, 97822.98
500.9180, 97931.32
502.1000, 98199.66
503.2830, 98121.59
504.4650, 98396.00
505.6460, 98532.00
506.8280, 98098.00
508.0100, 97987.00
509.1910, 98701.00
510.3720, 98293.00
511.5530, 98652.00
512.7340, 98989.00
513.9150, 98860.00
515.0950, 99157.59
516.2760, 98978.00
517.4560, 99447.00
518.6360, 99370.00
519.8160, 99635.00
520.9950, 99889.00
522.1750, 99802.00
523.3540, 100354.0
524.5340, 100847.0
525.7130, 100700.0
526.8920, 101125.0
528.0700, 101171.0
529.2490, 100715.0
530.4270, 101080.0
531.6060, 100908.0
532.7840, 101570.0
533.9620, 101742.0
535.1390, 101880.0
536.3170, 102292.4
537.4940, 102301.0
538.6720, 102841.0
539.8490, 102895.0
541.0260, 103183.0
542.2030, 103247.0
543.3790, 103620.2
544.5560, 104095.0
545.7320, 104369.0
546.9080, 104673.0
548.0840, 105021.0
549.2600, 105371.0
550.4360, 105637.2
551.6110, 106335.7
552.7860, 106283.2
553.9620, 107047.6
555.1370, 107600.6
556.3110, 107953.4
557.4860, 107566.9
558.6610, 108506.4
559.8350, 109234.4
561.0090, 109762.4
562.1830, 109492.0
563.3570, 110252.7
564.5310, 110600.1
565.7040, 111459.0
566.8780, 111758.0
568.0510, 112692.0
569.2240, 112801.0
570.3970, 114377.0
571.5700, 114522.0
572.7420, 115964.0
573.9150, 116019.0
575.0870, 117051.0
576.2590, 117139.0
577.4310, 118514.0
578.6030, 119162.8
579.7740, 119155.0
580.9460, 120017.0
582.1170, 120966.0
583.2880, 121129.0
584.4590, 122561.0
585.6300, 123272.0
586.8010, 124687.0
587.9710, 125542.0
589.1410, 127018.0
590.3110, 127582.0
591.4810, 130146.0
592.6510, 131462.0
593.8210, 133255.0
594.9900, 134156.0
596.1600, 136040.0
597.3290, 137431.0
598.4980, 138985.0
599.6670, 140515.0
600.8350, 142445.0
602.0040, 143775.0
603.1720, 145457.0
604.3400, 147670.0
605.5080, 149343.0
606.6760, 150729.0
607.8440, 151524.0
609.0120, 152632.0
610.1790, 153308.0
611.3460, 154776.0
612.5130, 155515.0
613.6800, 156176.0
614.8470, 157221.0
616.0130, 157606.0
617.1800, 158254.0
618.3460, 159201.0
619.5120, 159059.8
620.6780, 159091.0
621.8440, 158591.0
623.0090, 158157.0
624.1750, 157069.0
625.3400, 156202.5
626.5050, 156084.0
627.6700, 155072.0
628.8350, 153490.0
629.9990, 153016.0
631.1640, 151546.0
632.3280, 150961.0
633.4920, 148792.0
634.6560, 147353.0
635.8200, 146036.0
636.9840, 144339.0
638.1470, 143144.0
639.3100, 141907.0
640.4730, 140654.0
641.6360, 139505.0
642.7990, 137099.0
643.9620, 135609.0
645.1240, 134321.0
646.2870, 132562.0
647.4490, 131260.0
648.6110, 129947.0
649.7730, 129060.0
650.9340, 128259.0
652.0960, 126926.0
653.2570, 126064.0
654.4180, 125045.8
655.5790, 124568.0
656.7400, 123457.0
657.9010, 121888.0
659.0620, 121845.0
660.2220, 120828.0
661.3820, 120192.0
662.5420, 119588.0
663.7020, 118528.0
664.8620, 118128.0
666.0210, 117515.0
667.1810, 116947.0
668.3400, 116133.0
669.4990, 115725.0
670.6580, 115122.8
671.8170, 114985.0
672.9750, 114122.0
674.1340, 113947.0
675.2920, 113503.0
676.4500, 113031.0
677.6080, 112413.0
678.7660, 112088.0
679.9230, 111730.0
681.0810, 111029.0
682.2380, 110408.0
683.3950, 109670.0
684.5520, 108924.0
685.7090, 108310.3
686.8660, 107676.3
688.0220, 106892.0
689.1780, 106637.0
690.3340, 105664.0
691.4900, 105341.0
692.6460, 104865.0
693.8020, 104825.0
694.9570, 103766.0
696.1130, 102998.0
697.2680, 102510.0
698.4230, 101714.0
699.5780, 101424.0
700.7320, 100541.0
701.8870, 100592.0
703.0410, 100626.0
704.1950, 99695.00
705.3490, 99070.00
706.5030, 98902.00
707.6570, 98070.00
708.8110, 97600.00
709.9640, 98210.00
711.1170, 97641.00
712.2700, 96900.00
713.4230, 96492.00
714.5760, 95839.00
715.7280, 95921.00
716.8810, 95331.00
718.0330, 95499.00
719.1850, 94701.00
720.3370, 94286.00
721.4890, 94196.00
722.6400, 93933.00
723.7920, 94245.00
724.9430, 93730.59
726.0940, 93578.12
727.2450, 93070.00
728.3960, 92927.00
729.5460, 92878.00
730.6970, 92575.00
731.8470, 92608.00
732.9970, 92507.00
734.1470, 92304.00
735.2970, 91909.00
736.4460, 92216.00
737.5960, 91954.00
738.7450, 91568.00
739.8940, 91899.00
741.0430, 91918.00
742.1920, 91818.00
743.3410, 91559.00
744.4890, 91063.00
745.6370, 91199.00
746.7850, 90828.00
747.9330, 90962.00
749.0810, 90921.00
750.2290, 90923.00
751.3760, 90973.00
752.5240, 90740.44
753.6710, 90702.00
754.8180, 90510.00
755.9650, 90969.00
757.1110, 91404.00
758.2580, 90644.00
759.4040, 90382.00
760.5510, 90531.00
761.6970, 90323.00
762.8420, 90718.00
763.9880, 90720.00
765.1340, 90555.00
766.2790, 89977.00
767.4240, 89696.00
768.5690, 89940.00
769.7140, 89905.00
770.8590, 90129.00
772.0030, 90630.00
773.1480, 90725.00
774.2920, 90186.00
775.4360, 90216.00
776.5800, 89769.00
777.7240, 89869.00
778.8670, 89572.00
780.0110, 89788.00
781.1540, 89700.00
782.2970, 89740.00
783.4400, 89904.00
784.5830, 89623.00
785.7250, 89406.00
786.8680, 89564.00
788.0100, 89654.00
789.1520, 89978.00
790.2940, 89595.00
791.4360, 89303.00
792.5780, 89584.00
793.7190, 89909.00
794.8600, 89973.00
796.0010, 89804.73
797.1420, 89724.48
798.2830, 89350.00
799.4240, 89421.00
800.5640, 89591.00
801.7050, 89989.00
802.8450, 89463.00
803.9850, 89647.00
805.1250, 89445.00
806.2640, 89259.00
807.4040, 89786.00
808.5430, 89535.00
809.6820, 90248.00
810.8210, 89705.00
811.9600, 89226.00
813.0990, 89337.00
814.2370, 89708.00
815.3760, 89505.00
816.5140, 89121.00
817.6520, 89302.00
818.7900, 89225.00
819.9270, 89408.00
821.0650, 89710.00
822.2020, 89148.91
823.3390, 89578.05
824.4760, 89831.17
825.6130, 89917.73
826.7500, 89338.88
827.8870, 89619.28
829.0230, 89804.00
830.1590, 88930.00
831.2950, 88912.00
832.4310, 89227.00
833.5670, 89555.00
834.7030, 89044.00
835.8380, 88994.00
836.9730, 89095.00
838.1080, 89461.00
839.2430, 89274.00
840.3780, 88766.05
841.5130, 89257.09
842.6470, 89536.91
843.7810, 89616.84
844.9150, 88898.27
846.0490, 89210.80
847.1830, 89110.12
848.3170, 88992.48
849.4500, 89450.14
850.5830, 88847.70
851.7160, 89296.23
852.8490, 89325.23
853.9820, 89546.24
855.1150, 89351.47
856.2470, 89285.12
857.3800, 89634.68
858.5120, 89753.95
859.6440, 89511.30
860.7760, 89744.51
861.9070, 89127.52
863.0390, 89256.59
864.1700, 89707.55
865.3010, 89171.00
866.4320, 89722.00
867.5630, 89548.00
868.6940, 89735.00
869.8240, 89728.34
870.9540, 89665.27
872.0850, 89687.00
873.2150, 89530.00
874.3450, 89816.00
875.4740, 89684.00
876.6040, 89741.00
877.7330, 89887.00
878.8620, 89742.00
879.9910, 89842.90
881.1200, 89968.56
882.2490, 89861.00
883.3770, 89789.00
884.5060, 89755.55
885.6340, 89743.26
886.7620, 89796.00
887.8900, 89923.00
889.0180, 89979.00
890.1450, 90005.09
891.2730, 90031.02
892.4000, 90004.00
893.5270, 89987.00
894.6540, 89931.00
895.7810, 89865.00
896.9070, 90003.04
898.0340, 90030.05
899.1600, 90275.00
900.2860, 90275.00
901.4120, 90356.00
902.5380, 90525.00
903.6630, 90470.25
904.7890, 90320.00
905.9140, 90425.00
907.0390, 90528.00
908.1640, 90471.00
909.2890, 90616.98
910.4130, 90441.00
911.5380, 90824.00
912.6620, 90734.62
913.7860, 90874.00
914.9100, 90790.00
916.0340, 90817.98
917.1580, 90864.00
918.2810, 90870.00
919.4040, 90875.00
920.5280, 90980.00
921.6510, 90944.00
922.7730, 91181.00
923.8960, 90991.00
925.0180, 90930.00
926.1410, 91092.00
927.2630, 90959.00
928.3850, 91389.00
929.5070, 91062.00
930.6280, 91171.00
931.7500, 91562.00
932.8710, 91492.56
933.9920, 91516.53
935.1130, 91719.00
936.2340, 91596.00
937.3550, 91495.00
938.4760, 92128.00
939.5960, 91809.00
940.7160, 91784.00
941.8360, 91351.00
942.9560, 91292.00
944.0760, 91590.00
945.1950, 91471.00
946.3150, 91565.69
947.4340, 91596.34
948.5530, 91571.00
949.6720, 91689.00
950.7900, 91565.89
951.9090, 91845.00
953.0270, 91478.00
954.1460, 91818.00
955.2640, 91796.00
956.3820, 91829.00
957.4990, 92061.00
958.6170, 92001.00
959.7340, 92081.00
960.8520, 92093.00
961.9690, 92116.84
963.0860, 92219.00
964.2020, 92176.00
965.3190, 92044.00
966.4350, 92022.00
967.5520, 92262.00
968.6680, 92650.00
969.7840, 92154.00
970.8990, 92641.00
972.0150, 92235.00
973.1310, 92461.00
974.2460, 92865.00
975.3610, 92493.00
976.4760, 92273.00
977.5910, 92468.00
978.7050, 92394.00
979.8200, 92783.00
980.9340, 92569.00
982.0480, 93537.00
983.1620, 93080.55
984.2760, 93725.00
985.3900, 92638.00
986.5030, 92758.00
987.6160, 92694.00
988.7300, 92797.00
989.8430, 92949.00
990.9550, 92826.00
992.0680, 93093.00
993.1810, 93441.00
994.2930, 93056.00
995.4050, 92941.00
996.5170, 93108.00
997.6290, 93681.00
998.7410, 93480.00
999.8520, 93325.00
1000.964, 93526.00
1002.075, 92976.00
1003.186, 93566.00
1004.297, 92806.00
1005.407, 93398.00
1006.518, 93338.00
1007.628, 93300.00
1008.738, 93365.00
1009.848, 93279.00
1010.958, 93461.00
1012.068, 93428.98
1013.178, 93252.00
1014.287, 93416.00
1015.396, 93484.00
1016.505, 93352.00
1017.614, 93502.00
1018.723, 93569.00
1019.831, 93787.00
1020.940, 93739.15
1022.048, 93886.00
1023.156, 93603.00
1024.264, 93989.00
1025.372, 93811.00
1026.479, 93265.00
1027.587, 93832.00
1028.694, 93538.00
1029.801, 93876.00
1030.908, 94371.00
1032.015, 93867.38
1033.121, 94835.00
1034.228, 93622.00
1035.334, 93628.00
1036.440, 94471.00
1037.546, 94800.00
1038.652, 93952.00
1039.758, 94233.00
1040.863, 94519.00
1041.968, 93885.37
1043.074, 94405.20
1044.178, 94713.73
1045.283, 94822.44
1046.388, 94132.62
1047.492, 94473.88
1048.597, 94401.96
1049.701, 94313.05
1050.805, 94799.44
1051.909, 94225.73
1053.012, 94702.95
1054.116, 94760.67
1055.219, 95010.38
1056.322, 94694.00
1057.425, 94704.00
1058.528, 94949.00
1059.631, 95047.00
1060.733, 95252.00
1061.836, 95033.00
1062.938, 95141.00
1064.040, 95107.00
1065.142, 95201.00
1066.243, 95490.00
1067.345, 94946.86
1068.446, 95357.52
1069.547, 95592.17
1070.648, 95660.25
1071.749, 95062.91
1072.850, 95324.83
1073.951, 95242.40
1075.051, 95145.83
1076.151, 95528.68
1077.251, 95028.11
1078.351, 95403.36
1079.451, 95428.99
1080.550, 95670.00
1081.650, 95278.88
1082.749, 95763.42
1083.848, 96036.75
1084.947, 96110.20
1086.046, 95385.15
1087.144, 95691.20
1088.243, 95584.02
1089.341, 95459.91
1090.439, 95911.09
1091.537, 95302.16
1092.635, 95744.21
1093.732, 95766.73
1094.830, 95981.25
1095.927, 95780.00
1097.024, 95803.00
1098.121, 95906.00
1099.218, 96089.00
1100.314, 95961.00
1101.411, 95881.00
1102.507, 95718.00
1103.603, 95996.00
1104.699, 95731.00
1105.795, 95836.00
1106.890, 96042.00
1107.986, 96042.00
1109.081, 96023.00
1110.176, 95937.00
1111.271, 95934.57
1112.366, 96264.00
1113.461, 95774.00
1114.555, 95951.00
1115.649, 95679.00
1116.744, 96097.00
1117.838, 95875.00
1118.931, 96097.00
1120.025, 96328.00
1121.119, 96118.00
1122.212, 96140.00
1123.305, 95840.00
1124.398, 95999.00
1125.491, 95718.00
1126.584, 95760.00
1127.676, 95653.00
1128.768, 95412.00
1129.861, 95885.00
1130.953, 95551.00
1132.044, 95618.00
1133.136, 95452.00
1134.228, 95334.00
1135.319, 95595.00
1136.410, 95558.00
1137.501, 95728.00
1138.592, 95986.00
1139.683, 95780.00
1140.773, 95231.00
1141.864, 96010.00
1142.954, 96176.00
1144.044, 95637.00
1145.134, 96149.00
1146.224, 95348.00
1147.313, 95751.00
1148.402, 95714.00
1149.492, 95900.00
1150.581, 95871.00
1151.670, 96152.00
1152.758, 95612.00
1153.847, 95315.63
1154.935, 95718.42
1156.024, 95945.20
1157.112, 96005.40
1158.200, 95400.18
1159.287, 95654.22
1160.375, 95563.91
1161.462, 95459.47
1162.550, 95834.45
1163.637, 95326.01
1164.724, 95693.38
1165.810, 95711.15
1166.897, 95888.92
1167.983, 95720.21
1169.070, 95658.52
1170.156, 95943.41
1171.242, 95979.00
1172.327, 95910.00
1173.413, 95976.00
1174.499, 95776.00
1175.584, 95967.00
1176.669, 96032.00
1177.754, 96229.00
1178.839, 95579.00
1179.923, 96374.00
1181.008, 96298.62
1182.092, 96147.23
1183.176, 96685.00
1184.260, 96024.00
1185.344, 95898.00
1186.428, 96049.00
1187.511, 95863.00
1188.595, 96283.00
1189.678, 96442.00
1190.761, 96325.52
1191.843, 96035.00
1192.926, 96202.00
1194.009, 96174.00
1195.091, 96190.00
1196.173, 95792.00
1197.255, 96074.00
1198.337, 96022.00
1199.419, 95698.00
1200.500, 96006.00
1201.582, 95604.00
1202.663, 95736.00
1203.744, 96243.00
1204.825, 96165.00
1205.905, 96028.00
1206.986, 96566.00
1208.066, 96914.00
1209.146, 95997.00
1210.226, 97091.00
1211.306, 96291.00
1212.386, 96222.00
1213.466, 96638.00
1214.545, 96223.00
1215.624, 96970.00
1216.703, 96123.00
1217.782, 96056.00
1218.861, 96293.00
1219.939, 95920.00
1221.018, 96249.00
1222.096, 96043.00
1223.174, 96503.00
1224.252, 96015.00
1225.330, 95758.00
1226.407, 96320.00
1227.485, 96060.00
1228.562, 95675.00
1229.639, 96031.00
1230.716, 96143.00
1231.793, 95675.00
1232.869, 95891.00
1233.946, 95832.00
1235.022, 95669.72
1236.098, 96036.00
1237.174, 95572.00
1238.250, 95842.00
1239.325, 95973.00
1240.401, 96404.00
1241.476, 95774.00
1242.551, 95739.00
1243.626, 96101.00
1244.701, 95578.00
1245.776, 96358.00
1246.850, 96426.00
1247.924, 95938.00
1248.999, 95576.00
1250.073, 95370.00
1251.146, 95721.00
1252.220, 95693.00
1253.293, 95745.00
1254.367, 95493.00
1255.440, 95657.00
1256.513, 95440.00
1257.586, 95705.00
1258.658, 95565.00
1259.731, 95526.00
1260.803, 95256.00
1261.875, 95389.00
1262.947, 95574.00
1264.019, 95400.00
1265.091, 95476.00
1266.162, 95778.00
1267.234, 95840.00
1268.305, 95724.00
1269.376, 95545.00
1270.447, 95334.00
1271.517, 95366.00
1272.588, 95032.00
1273.658, 94781.00
1274.729, 95097.00
1275.799, 95100.00
1276.868, 95224.00
1277.938, 95252.00
1279.008, 95265.00
1280.077, 95359.20
1281.146, 95332.00
1282.215, 95416.00
1283.284, 95376.52
1284.353, 95239.00
1285.421, 95226.00
1286.490, 95467.00
1287.558, 94950.00
1288.626, 94775.00
1289.694, 95725.00
1290.762, 95805.00
1291.829, 95463.00
1292.897, 95536.00
1293.964, 95304.87
1295.031, 95075.00
1296.098, 95044.00
1297.165, 94896.00
1298.231, 95086.00
1299.298, 95417.00
1300.364, 94874.00
1301.430, 95688.00
1302.496, 94900.00
1303.562, 94828.00
1304.627, 95914.00
1305.693, 94948.00
1306.758, 94999.00
1307.823, 94363.90
1308.888, 94750.05
1309.953, 94960.19
1311.018, 95003.76
1312.082, 94381.91
1313.146, 94619.34
1314.210, 94512.41
1315.274, 94391.35
1316.338, 94749.71
1317.402, 94224.66
1318.465, 94575.42
1319.529, 94576.57
1320.592, 94737.74
1321.655, 94552.43
1322.718, 94474.13
1323.780, 94742.45
1324.843, 94818.83
1325.905, 94593.65
1326.967, 94765.00
1328.029, 94227.87
1329.091, 94312.45
1330.153, 94665.25
1331.214, 94457.51
1332.275, 94635.20
1333.337, 94666.09
1334.398, 94029.85
1335.458, 94553.85
1336.519, 94576.08
1337.580, 94406.00
1338.640, 94412.00
1339.700, 94153.00
1340.760, 94675.00
1341.820, 94416.55
1342.880, 93954.00
1343.939, 94128.00
1344.999, 94381.00
1346.058, 93892.00
1347.117, 94116.00
1348.176, 94060.00
1349.235, 94232.00
1350.293, 94441.00
1351.351, 94269.00
1352.410, 94243.00
1353.468, 94087.00
1354.526, 94126.00
1355.583, 93968.00
1356.641, 94733.00
1357.698, 94025.00
1358.756, 94177.00
1359.813, 93782.00
1360.869, 94465.00
1361.926, 94155.00
1362.983, 94112.00
1364.039, 93490.00
1365.095, 94170.00
1366.152, 93972.00
1367.207, 93863.00
1368.263, 93831.00
1369.319, 93791.44
1370.374, 93938.00
1371.430, 93876.00
1372.485, 94023.00
1373.540, 94139.00
1374.594, 93807.00
1375.649, 93760.00
1376.703, 94010.00
1377.758, 93620.00
1378.812, 93415.00
1379.866, 93965.00
1380.920, 94052.00
1381.973, 93715.00
1383.027, 93791.00
1384.080, 94023.00
1385.133, 93416.00
1386.186, 93858.00
1387.239, 93506.00
1388.291, 93840.00
1389.344, 93771.00
1390.396, 93578.00
1391.448, 93284.00
1392.500, 93875.45
1393.552, 93617.18
1394.604, 93741.59
1395.655, 93803.00
1396.707, 93580.00
1397.758, 93876.00
1398.809, 93273.00
1399.860, 93827.00
1400.910, 93747.00
1401.961, 93557.00
1403.011, 93942.00
1404.061, 93487.00
1405.111, 93528.00
1406.161, 93979.00
1407.211, 93632.00
1408.260, 93694.30
1409.310, 94024.00
1410.359, 93708.00
1411.408, 93275.00
1412.457, 93910.00
1413.506, 93581.00
1414.554, 94169.00
1415.603, 93390.00
1416.651, 93857.00
1417.699, 93264.00
1418.747, 93530.00
1419.794, 93805.00
1420.842, 93759.00
1421.889, 93882.51
1422.937, 94196.00
1423.984, 93734.30
1425.031, 93812.00
1426.077, 93477.00
1427.124, 93395.00
1428.170, 93254.00
1429.217, 93481.00
1430.263, 93471.00
1431.309, 93034.00
1432.354, 93690.00
1433.400, 93291.00
1434.445, 93481.00
1435.491, 93157.00
1436.536, 93352.00
1437.581, 93557.00
1438.625, 93229.00
1439.670, 93240.00
1440.714, 94274.00
1441.759, 93880.76
1442.803, 93964.00
1443.847, 93783.00
1444.890, 93846.00
1445.934, 93387.00
1446.978, 93466.00
1448.021, 93225.00
1449.064, 93474.00
1450.107, 93777.00
1451.150, 93480.00
1452.192, 93754.00
1453.235, 93548.00
1454.277, 93326.00
1455.319, 93642.00
1456.361, 93205.00
1457.403, 93384.00
1458.445, 93676.00
1459.486, 93467.00
1460.528, 93365.00
1461.569, 93290.00
1462.610, 93462.00
1463.651, 93192.00
1464.691, 93385.00
1465.732, 93640.00
1466.772, 93357.00
1467.812, 93654.00
1468.852, 93606.00
1469.892, 93766.00
1470.932, 93389.00
1471.971, 93020.00
1473.011, 93067.00
1474.050, 93529.00
1475.089, 93239.00
1476.128, 93736.00
1477.166, 94242.00
1478.205, 93565.00
1479.243, 93410.00
1480.282, 93613.00
1481.320, 93082.00
1482.357, 93545.00
1483.395, 93574.00
1484.433, 93517.00
1485.470, 93906.00
1486.507, 93484.00
1487.544, 93267.00
1488.581, 93549.00
1489.618, 93115.00
1490.655, 93353.00
1491.691, 93399.00
1492.727, 93910.00
1493.763, 93923.00
1494.799, 93824.00
1495.835, 93137.00
1496.871, 92941.00
1497.906, 93061.00
1498.941, 93537.00
1499.976, 93066.00
1501.011, 93354.00
1502.046, 93785.00
1503.081, 93742.00
1504.115, 93476.00
1505.149, 93894.00
1506.183, 93271.00
1507.217, 93172.00
1508.251, 93314.00
1509.285, 93427.00
1510.318, 93512.00
1511.352, 94264.00
1512.385, 93741.00
1513.418, 94023.00
1514.450, 93403.00
1515.483, 93356.00
1516.516, 93285.73
1517.548, 92873.00
1518.580, 93257.00
1519.612, 93198.00
1520.644, 93507.00
1521.675, 93619.00
1522.707, 93398.00
1523.738, 93586.00
1524.769, 93363.00
1525.800, 93917.00
1526.831, 93915.35
1527.862, 93732.00
1528.892, 94201.00
1529.923, 93587.00
1530.953, 93517.00
1531.983, 93604.00
1533.013, 93674.00
1534.042, 93375.00
1535.072, 93604.00
1536.101, 93251.00
1537.131, 93617.00
1538.160, 93735.00
1539.188, 93403.00
1540.217, 93659.00
1541.246, 93564.00
1542.274, 93396.00
1543.302, 93560.00
1544.330, 93635.00
##END=



