##NAMES=Jacobsite
##RRUFFID=R060780
##IDEAL CHEMISTRY=Mn^2+^Fe^3+^_2_O_4_
##LOCALITY=Jakobsberg, Sweden
##OWNER=RRUFF
##SOURCE=Michael Scott
##DESCRIPTION=Black grains
##STATUS=The identification of this mineral is confirmed by single-crystal X-ray diffraction and chemical analysis.
##URL=rruff.info/R060780
##MEASURED CHEMISTRY=(Mn^2+^_0.75_Mg_0.25_)_Σ=1_(Fe^3+^_1.92_Mn^3+^_0.08_)_Σ=2_O_4_
##PIN_ID=M01488
##ORIENTATION=Laser parallel to a* (1 0 0). Fiducial mark perpendicular to laser is parallel to c [0 0 1]
200.2690, 90230.00
201.4910, 89795.00
202.7140, 89208.14
203.9360, 88997.66
205.1580, 88669.84
206.3800, 88230.99
207.6020, 87808.00
208.8240, 87857.00
210.0450, 88213.00
211.2670, 87303.00
212.4880, 87200.71
213.7090, 87235.00
214.9300, 86350.00
216.1510, 86779.00
217.3710, 86867.00
218.5920, 87277.00
219.8120, 86916.00
221.0320, 86599.00
222.2520, 86125.00
223.4720, 86292.00
224.6910, 87014.00
225.9110, 86116.00
227.1300, 86778.00
228.3490, 86348.00
229.5680, 85952.77
230.7870, 86205.71
232.0050, 86341.32
233.2240, 86365.88
234.4420, 85946.83
235.6600, 86100.62
236.8780, 86024.84
238.0960, 85939.66
239.3140, 86174.07
240.5310, 85819.56
241.7490, 86157.00
242.9660, 86179.00
244.1830, 85837.00
245.4000, 86169.00
246.6160, 85727.82
247.8330, 86018.01
249.0490, 86197.59
250.2660, 86272.93
251.4820, 85911.38
252.6980, 86129.43
253.9130, 86124.62
255.1290, 86117.20
256.3440, 86436.09
257.5600, 86172.84
258.7750, 86500.16
259.9900, 86601.16
261.2040, 86815.49
262.4190, 86805.66
263.6330, 86847.00
264.8480, 86768.00
266.0620, 86799.00
267.2760, 87003.00
268.4900, 86865.00
269.7030, 86860.70
270.9170, 87092.72
272.1300, 87207.43
273.3430, 87211.11
274.5560, 86771.16
275.7690, 86904.05
276.9820, 86807.38
278.1940, 86701.32
279.4070, 86914.84
280.6190, 86973.59
281.8310, 87459.00
283.0430, 87380.00
284.2550, 87208.00
285.4660, 87673.00
286.6770, 87697.00
287.8890, 87662.00
289.1000, 88070.00
290.3110, 88191.00
291.5210, 87948.00
292.7320, 88326.00
293.9420, 88475.00
295.1530, 88588.00
296.3630, 88638.00
297.5730, 88774.00
298.7830, 88423.00
299.9920, 88852.00
301.2020, 89104.00
302.4110, 88768.00
303.6200, 89471.00
304.8290, 89593.00
306.0380, 90061.00
307.2470, 90341.00
308.4550, 90186.00
309.6630, 90296.00
310.8720, 90172.00
312.0800, 90361.00
313.2880, 90533.00
314.4950, 90663.00
315.7030, 91027.00
316.9100, 91318.00
318.1170, 91005.00
319.3240, 91314.00
320.5310, 91486.00
321.7380, 91479.00
322.9450, 91653.41
324.1510, 91521.00
325.3570, 91743.00
326.5630, 91764.67
327.7690, 91728.68
328.9750, 91563.00
330.1810, 92065.00
331.3860, 91875.00
332.5910, 91410.72
333.7960, 91739.98
335.0010, 91951.90
336.2060, 92052.77
337.4110, 91710.02
338.6150, 91940.06
339.8200, 91940.59
341.0240, 91931.64
342.2280, 92100.00
343.4320, 91982.00
344.6350, 92263.00
345.8390, 92209.00
347.0420, 92154.00
348.2450, 91977.00
349.4480, 91877.85
350.6510, 91432.00
351.8540, 91536.00
353.0560, 91478.00
354.2590, 91226.00
355.4610, 91484.00
356.6630, 91356.34
357.8650, 91318.00
359.0670, 91426.00
360.2680, 91084.00
361.4700, 91186.00
362.6710, 90874.69
363.8720, 91062.93
365.0730, 91133.83
366.2740, 91093.68
367.4740, 90609.98
368.6750, 90699.06
369.8750, 90558.63
371.0750, 90408.80
372.2750, 90578.56
373.4750, 90159.39
374.6740, 90324.16
375.8740, 90255.79
377.0730, 90018.00
378.2720, 90130.00
379.4710, 89904.00
380.6700, 89994.58
381.8690, 89764.00
383.0670, 90115.00
384.2660, 90133.00
385.4640, 90168.00
386.6620, 90515.00
387.8600, 90065.00
389.0570, 90337.00
390.2550, 90043.00
391.4520, 89990.00
392.6490, 90222.00
393.8460, 90300.00
395.0430, 90061.00
396.2400, 90441.00
397.4370, 90571.00
398.6330, 90267.00
399.8290, 90650.00
401.0250, 90525.00
402.2210, 90802.19
403.4170, 90952.00
404.6130, 91352.00
405.8080, 91009.00
407.0030, 91101.00
408.1980, 91174.00
409.3930, 91460.00
410.5880, 91448.00
411.7830, 91742.00
412.9770, 91464.00
414.1720, 91679.00
415.3660, 91988.00
416.5600, 91442.00
417.7530, 92114.00
418.9470, 92069.00
420.1410, 92522.00
421.3340, 92963.00
422.5270, 93041.00
423.7200, 93024.74
424.9130, 93385.12
426.1060, 93628.15
427.2980, 93760.07
428.4900, 93448.37
429.6830, 93709.59
430.8750, 93741.15
432.0670, 93763.30
433.2580, 94104.99
434.4500, 93857.81
435.6410, 94194.43
436.8320, 94838.00
438.0240, 94779.34
439.2140, 94923.00
440.4050, 94925.00
441.5960, 95618.00
442.7860, 95288.00
443.9760, 95649.00
445.1670, 95913.00
446.3560, 95476.00
447.5460, 95991.00
448.7360, 95911.00
449.9250, 96044.00
451.1150, 96197.00
452.3040, 96210.62
453.4930, 96309.00
454.6810, 96418.00
455.8700, 96434.00
457.0590, 96647.00
458.2470, 96758.00
459.4350, 96634.00
460.6230, 96725.00
461.8110, 97046.00
462.9980, 97070.00
464.1860, 97237.59
465.3730, 97472.00
466.5600, 97412.00
467.7470, 97512.00
468.9340, 97479.00
470.1210, 97205.00
471.3080, 97422.80
472.4940, 97303.02
473.6800, 97616.00
474.8660, 97504.00
476.0520, 97498.00
477.2380, 98022.00
478.4230, 97775.00
479.6090, 97755.00
480.7940, 97521.00
481.9790, 98287.00
483.1640, 97991.00
484.3490, 98326.00
485.5330, 98258.00
486.7180, 98133.00
487.9020, 98468.60
489.0860, 98434.49
490.2700, 98817.00
491.4540, 98780.00
492.6370, 98687.00
493.8210, 99029.00
495.0040, 99468.00
496.1870, 98933.00
497.3700, 99459.00
498.5530, 99461.00
499.7360, 99537.00
500.9180, 99864.00
502.1000, 100198.0
503.2830, 100432.0
504.4650, 99898.00
505.6460, 99869.00
506.8280, 100247.0
508.0100, 100392.0
509.1910, 100493.0
510.3720, 100578.0
511.5530, 100650.0
512.7340, 100537.0
513.9150, 100789.0
515.0950, 101125.0
516.2760, 101312.0
517.4560, 101188.0
518.6360, 101704.0
519.8160, 101960.0
520.9950, 101769.0
522.1750, 101897.0
523.3540, 102393.0
524.5340, 102993.0
525.7130, 103102.0
526.8920, 103434.1
528.0700, 102953.0
529.2490, 103549.0
530.4270, 103670.0
531.6060, 103323.0
532.7840, 103611.0
533.9620, 103719.0
535.1390, 103990.0
536.3170, 104137.0
537.4940, 104064.0
538.6720, 104719.0
539.8490, 104718.0
541.0260, 105106.0
542.2030, 105450.0
543.3790, 105794.0
544.5560, 106710.0
545.7320, 106703.0
546.9080, 107151.0
548.0840, 107099.0
549.2600, 107344.0
550.4360, 107473.0
551.6110, 108262.0
552.7860, 109003.0
553.9620, 109276.0
555.1370, 109461.0
556.3110, 109755.0
557.4860, 110265.0
558.6610, 110428.0
559.8350, 111112.0
561.0090, 111308.0
562.1830, 112372.0
563.3570, 112629.0
564.5310, 113187.9
565.7040, 113890.0
566.8780, 114016.0
568.0510, 115060.0
569.2240, 115214.0
570.3970, 115900.0
571.5700, 117282.0
572.7420, 118163.0
573.9150, 118959.0
575.0870, 119007.0
576.2590, 120056.0
577.4310, 120280.0
578.6030, 120899.0
579.7740, 121434.0
580.9460, 122332.0
582.1170, 123701.0
583.2880, 124373.0
584.4590, 125298.0
585.6300, 126299.0
586.8010, 127129.9
587.9710, 128028.0
589.1410, 129070.0
590.3110, 130893.0
591.4810, 132103.0
592.6510, 133633.5
593.8210, 135681.0
594.9900, 136653.0
596.1600, 138779.0
597.3290, 140265.0
598.4980, 141626.0
599.6670, 144155.0
600.8350, 145396.0
602.0040, 146707.0
603.1720, 148186.0
604.3400, 149674.0
605.5080, 150864.0
606.6760, 152497.0
607.8440, 153445.0
609.0120, 154782.0
610.1790, 156554.8
611.3460, 157528.2
612.5130, 158384.3
613.6800, 159129.4
614.8470, 159430.9
616.0130, 160304.6
617.1800, 160857.0
618.3460, 161160.0
619.5120, 161250.1
620.6780, 161133.6
621.8440, 160478.0
623.0090, 160300.0
624.1750, 159796.7
625.3400, 159188.9
626.5050, 158323.9
627.6700, 157872.0
628.8350, 156012.0
629.9990, 155166.0
631.1640, 153833.0
632.3280, 152770.0
633.4920, 151451.8
634.6560, 150290.0
635.8200, 148576.0
636.9840, 146963.0
638.1470, 145252.0
639.3100, 143674.8
640.4730, 141929.0
641.6360, 140625.0
642.7990, 138910.0
643.9620, 137588.5
645.1240, 136029.0
646.2870, 134919.0
647.4490, 134379.1
648.6110, 133466.8
649.7730, 132437.1
650.9340, 131297.4
652.0960, 129713.1
653.2570, 128702.7
654.4180, 127462.6
655.5790, 126198.0
656.7400, 125315.0
657.9010, 124103.0
659.0620, 123682.0
660.2220, 123132.0
661.3820, 122362.0
662.5420, 120986.0
663.7020, 120641.0
664.8620, 119930.0
666.0210, 119320.0
667.1810, 118989.0
668.3400, 118562.0
669.4990, 117713.0
670.6580, 117567.0
671.8170, 117053.0
672.9750, 116281.0
674.1340, 116210.0
675.2920, 115501.0
676.4500, 115393.0
677.6080, 114391.0
678.7660, 113792.0
679.9230, 113417.4
681.0810, 113470.0
682.2380, 112411.0
683.3950, 111823.0
684.5520, 111054.0
685.7090, 110557.0
686.8660, 110161.0
688.0220, 108943.0
689.1780, 108527.0
690.3340, 108179.0
691.4900, 108068.0
692.6460, 106951.0
693.8020, 106019.0
694.9570, 106034.0
696.1130, 105074.0
697.2680, 104710.0
698.4230, 104049.0
699.5780, 103294.0
700.7320, 103164.0
701.8870, 102130.0
703.0410, 102015.0
704.1950, 100952.0
705.3490, 101311.0
706.5030, 100744.0
707.6570, 99772.00
708.8110, 100032.0
709.9640, 99393.00
711.1170, 98883.00
712.2700, 98717.00
713.4230, 98544.00
714.5760, 98213.00
715.7280, 97814.00
716.8810, 97416.00
718.0330, 97105.23
719.1850, 96786.01
720.3370, 96523.00
721.4890, 96242.00
722.6400, 96086.00
723.7920, 95844.00
724.9430, 95703.47
726.0940, 95477.00
727.2450, 95413.00
728.3960, 95238.00
729.5460, 94819.05
730.6970, 94918.20
731.8470, 94900.16
732.9970, 94771.08
734.1470, 94198.38
735.2970, 94198.52
736.4460, 93969.23
737.5960, 93730.39
738.7450, 93811.30
739.8940, 93556.00
741.0430, 93684.00
742.1920, 93300.00
743.3410, 93511.00
744.4890, 93149.00
745.6370, 93117.00
746.7850, 92905.00
747.9330, 92784.00
749.0810, 92814.00
750.2290, 92797.22
751.3760, 92813.00
752.5240, 92828.00
753.6710, 92907.00
754.8180, 92634.00
755.9650, 92654.00
757.1110, 92969.00
758.2580, 92742.00
759.4040, 92668.00
760.5510, 92488.00
761.6970, 92747.00
762.8420, 92581.00
763.9880, 92551.00
765.1340, 92410.00
766.2790, 92404.00
767.4240, 92363.00
768.5690, 92545.00
769.7140, 92243.00
770.8590, 92108.00
772.0030, 92425.00
773.1480, 91737.00
774.2920, 91967.00
775.4360, 92023.00
776.5800, 91728.00
777.7240, 91667.00
778.8670, 91814.00
780.0110, 91745.00
781.1540, 92013.00
782.2970, 91821.00
783.4400, 91828.00
784.5830, 91777.00
785.7250, 91793.01
786.8680, 91839.45
788.0100, 91906.00
789.1520, 91919.00
790.2940, 91947.41
791.4360, 91879.11
792.5780, 91971.00
793.7190, 91541.00
794.8600, 91914.00
796.0010, 91794.00
797.1420, 91473.00
798.2830, 91778.00
799.4240, 91540.00
800.5640, 91698.60
801.7050, 91921.77
802.8450, 92027.63
803.9850, 92022.45
805.1250, 91573.65
806.2640, 91697.73
807.4040, 91592.20
808.5430, 91477.30
809.6820, 91682.01
810.8210, 91297.77
811.9600, 91703.00
813.0990, 91085.00
814.2370, 91335.00
815.3760, 91160.00
816.5140, 91566.00
817.6520, 91613.00
818.7900, 91399.00
819.9270, 91226.00
821.0650, 91402.00
822.2020, 91340.00
823.3390, 91303.00
824.4760, 91155.00
825.6130, 91308.00
826.7500, 91132.00
827.8870, 90975.48
829.0230, 91434.81
830.1590, 91700.51
831.2950, 91783.00
832.4310, 91133.52
833.5670, 91429.22
834.7030, 91346.13
835.8380, 91247.49
836.9730, 91676.21
838.1080, 91133.18
839.2430, 91553.53
840.3780, 91589.31
841.5130, 91801.11
842.6470, 91409.00
843.7810, 91427.00
844.9150, 91969.00
846.0490, 91209.00
847.1830, 91159.00
848.3170, 91396.00
849.4500, 91900.00
850.5830, 91322.00
851.7160, 91606.00
852.8490, 91516.00
853.9820, 91394.00
855.1150, 91451.80
856.2470, 91462.27
857.3800, 91371.00
858.5120, 91567.00
859.6440, 91632.00
860.7760, 91551.00
861.9070, 91850.00
863.0390, 91691.00
864.1700, 91765.00
865.3010, 91263.52
866.4320, 91719.70
867.5630, 91982.26
868.6940, 92061.59
869.8240, 91408.95
870.9540, 91701.48
872.0850, 91615.25
873.2150, 91513.47
874.3450, 91939.04
875.4740, 91392.84
876.6040, 91810.05
877.7330, 91842.66
878.8620, 92113.00
879.9910, 92023.24
881.1200, 91924.00
882.2490, 91883.00
883.3770, 91962.00
884.5060, 91982.00
885.6340, 92132.00
886.7620, 92245.00
887.8900, 91998.00
889.0180, 92161.00
890.1450, 92057.00
891.2730, 91875.00
892.4000, 92072.45
893.5270, 91990.91
894.6540, 92387.00
895.7810, 92073.00
896.9070, 92363.00
898.0340, 92405.00
899.1600, 92659.00
900.2860, 92775.00
901.4120, 92494.00
902.5380, 92592.75
903.6630, 92725.00
904.7890, 92522.00
905.9140, 92692.00
907.0390, 92940.00
908.1640, 92759.00
909.2890, 92714.00
910.4130, 92914.00
911.5380, 92679.00
912.6620, 92894.00
913.7860, 92944.00
914.9100, 93238.00
916.0340, 92687.00
917.1580, 92874.00
918.2810, 93176.00
919.4040, 92835.00
920.5280, 93004.00
921.6510, 92646.00
922.7730, 92957.00
923.8960, 93087.00
925.0180, 93181.00
926.1410, 93551.00
927.2630, 93142.00
928.3850, 92960.00
929.5070, 93165.00
930.6280, 93298.00
931.7500, 93399.00
932.8710, 93494.00
933.9920, 93424.00
935.1130, 93413.00
936.2340, 93445.00
937.3550, 93421.00
938.4760, 93725.00
939.5960, 93454.00
940.7160, 93216.00
941.8360, 93815.00
942.9560, 93647.00
944.0760, 94184.00
945.1950, 93851.00
946.3150, 93440.00
947.4340, 93903.00
948.5530, 93686.00
949.6720, 93383.00
950.7900, 94003.00
951.9090, 93997.00
953.0270, 94237.00
954.1460, 94291.00
955.2640, 94294.00
956.3820, 94146.00
957.4990, 94009.00
958.6170, 93859.00
959.7340, 93803.13
960.8520, 94329.00
961.9690, 93833.00
963.0860, 94025.00
964.2020, 94324.00
965.3190, 94107.00
966.4350, 94529.00
967.5520, 94571.12
968.6680, 95087.00
969.7840, 94713.00
970.8990, 94513.00
972.0150, 94262.00
973.1310, 94345.00
974.2460, 94451.00
975.3610, 94403.00
976.4760, 94849.00
977.5910, 94643.00
978.7050, 94829.00
979.8200, 94791.00
980.9340, 94779.00
982.0480, 94827.00
983.1620, 94876.00
984.2760, 95062.00
985.3900, 95047.95
986.5030, 94880.00
987.6160, 95022.00
988.7300, 95204.00
989.8430, 95024.00
990.9550, 95479.00
992.0680, 95188.09
993.1810, 95120.00
994.2930, 94975.00
995.4050, 95001.54
996.5170, 94627.79
997.6290, 95102.49
998.7410, 95383.57
999.8520, 95481.41
1000.964, 94847.30
1002.075, 95158.34
1003.186, 95090.61
1004.297, 95007.34
1005.407, 95451.39
1006.518, 94923.71
1007.628, 95359.40
1008.738, 95410.52
1009.848, 95637.64
1010.958, 95594.00
1012.068, 95584.00
1013.178, 95477.00
1014.287, 95623.00
1015.396, 95388.00
1016.505, 95119.49
1017.614, 95598.08
1018.723, 95883.05
1019.831, 95984.76
1020.940, 95354.53
1022.048, 95669.46
1023.156, 95605.61
1024.264, 95526.22
1025.372, 95974.18
1026.479, 95450.35
1027.587, 95889.95
1028.694, 95944.95
1029.801, 96175.95
1030.908, 96025.83
1032.015, 95993.43
1033.121, 96342.23
1034.228, 96479.98
1035.334, 96285.95
1036.440, 96214.00
1037.546, 96215.00
1038.652, 96100.00
1039.758, 96212.00
1040.863, 96242.00
1041.968, 96239.00
1043.074, 96331.78
1044.178, 96797.69
1045.283, 97069.98
1046.388, 97159.07
1047.492, 96516.16
1048.597, 96818.47
1049.701, 96741.97
1050.805, 96649.93
1051.909, 97085.24
1053.012, 96548.78
1054.116, 96975.73
1055.219, 97018.09
1056.322, 97236.47
1057.425, 97073.71
1058.528, 97228.00
1059.631, 97465.00
1060.733, 97112.00
1061.836, 97104.00
1062.938, 97463.00
1064.040, 97413.00
1065.142, 97644.00
1066.243, 97692.17
1067.345, 97312.00
1068.446, 97614.00
1069.547, 97887.00
1070.648, 97580.00
1071.749, 97336.00
1072.850, 97662.00
1073.951, 97787.00
1075.051, 97239.00
1076.151, 97137.00
1077.251, 97356.00
1078.351, 97247.00
1079.451, 97578.00
1080.550, 97525.00
1081.650, 97709.00
1082.749, 97634.00
1083.848, 97620.48
1084.947, 97690.09
1086.046, 97636.95
1087.144, 97747.00
1088.243, 97617.00
1089.341, 97650.00
1090.439, 97630.00
1091.537, 97612.00
1092.635, 98100.00
1093.732, 98010.00
1094.830, 98115.00
1095.927, 98011.00
1097.024, 97853.00
1098.121, 98080.00
1099.218, 98195.00
1100.314, 98100.29
1101.411, 98002.00
1102.507, 98172.00
1103.603, 97565.00
1104.699, 97915.00
1105.795, 98091.00
1106.890, 97827.00
1107.986, 98244.00
1109.081, 98105.00
1110.176, 97863.00
1111.271, 97966.00
1112.366, 98356.00
1113.461, 97617.00
1114.555, 97961.00
1115.649, 97774.00
1116.744, 97653.15
1117.838, 97829.00
1118.931, 97739.00
1120.025, 97871.00
1121.119, 98175.00
1122.212, 97696.00
1123.305, 97809.00
1124.398, 97870.00
1125.491, 98666.00
1126.584, 97716.00
1127.676, 97621.00
1128.768, 98226.00
1129.861, 97455.00
1130.953, 97394.00
1132.044, 97389.00
1133.136, 97695.00
1134.228, 97559.00
1135.319, 97488.00
1136.410, 97855.00
1137.501, 97716.00
1138.592, 97619.00
1139.683, 97633.00
1140.773, 97996.00
1141.864, 97885.00
1142.954, 97676.00
1144.044, 98190.00
1145.134, 97498.00
1146.224, 97490.00
1147.313, 97628.00
1148.402, 98042.00
1149.492, 97873.00
1150.581, 97642.00
1151.670, 98202.00
1152.758, 97612.00
1153.847, 97734.97
1154.935, 98345.00
1156.024, 97769.00
1157.112, 97375.00
1158.200, 97843.00
1159.287, 98075.00
1160.375, 98724.00
1161.462, 97572.00
1162.550, 98168.00
1163.637, 97612.00
1164.724, 97974.00
1165.810, 97381.00
1166.897, 97791.00
1167.983, 97382.00
1169.070, 97637.00
1170.156, 97585.00
1171.242, 97532.00
1172.327, 97767.00
1173.413, 97911.15
1174.499, 97887.34
1175.584, 98277.00
1176.669, 98091.00
1177.754, 97839.00
1178.839, 98330.00
1179.923, 98126.00
1181.008, 98167.00
1182.092, 98194.03
1183.176, 98132.37
1184.260, 98114.00
1185.344, 98144.00
1186.428, 98305.00
1187.511, 98341.00
1188.595, 98207.00
1189.678, 98232.00
1190.761, 98012.00
1191.843, 98262.00
1192.926, 98465.00
1194.009, 98173.00
1195.091, 98234.00
1196.173, 98046.00
1197.255, 98326.00
1198.337, 97907.00
1199.419, 98182.00
1200.500, 98452.00
1201.582, 98285.00
1202.663, 98341.00
1203.744, 98339.00
1204.825, 98118.00
1205.905, 98211.00
1206.986, 97931.00
1208.066, 98443.00
1209.146, 98197.00
1210.226, 97666.00
1211.306, 98227.00
1212.386, 98554.00
1213.466, 98536.00
1214.545, 98078.00
1215.624, 97893.00
1216.703, 98196.00
1217.782, 98022.00
1218.861, 98517.00
1219.939, 98206.00
1221.018, 98429.00
1222.096, 98298.00
1223.174, 98359.00
1224.252, 97901.00
1225.330, 97694.00
1226.407, 97901.00
1227.485, 98255.00
1228.562, 97978.00
1229.639, 98125.48
1230.716, 98063.70
1231.793, 98113.00
1232.869, 98068.15
1233.946, 98078.00
1235.022, 97934.00
1236.098, 97873.00
1237.174, 97584.89
1238.250, 98008.95
1239.325, 98239.41
1240.401, 98286.64
1241.476, 97601.92
1242.551, 97862.38
1243.626, 97744.05
1244.701, 97610.20
1245.776, 98003.69
1246.850, 97425.45
1247.924, 97810.59
1248.999, 97811.16
1250.073, 97987.74
1251.146, 97783.22
1252.220, 97696.39
1253.293, 97990.84
1254.367, 98074.16
1255.440, 97825.77
1256.513, 97599.00
1257.586, 97409.70
1258.658, 97710.00
1259.731, 97478.00
1260.803, 97543.00
1261.875, 97907.00
1262.947, 97279.00
1264.019, 97371.00
1265.091, 97633.00
1266.162, 97388.00
1267.234, 97509.00
1268.305, 97355.00
1269.376, 97317.00
1270.447, 97067.00
1271.517, 97219.00
1272.588, 97265.00
1273.658, 97309.00
1274.729, 97078.00
1275.799, 97570.00
1276.868, 97244.00
1277.938, 97530.00
1279.008, 97123.00
1280.077, 97227.00
1281.146, 97317.00
1282.215, 97351.00
1283.284, 97196.00
1284.353, 96787.00
1285.421, 96795.00
1286.490, 97146.00
1287.558, 96846.00
1288.626, 97128.00
1289.694, 97282.00
1290.762, 97330.00
1291.829, 97330.00
1292.897, 96979.00
1293.964, 97410.00
1295.031, 97035.00
1296.098, 96994.00
1297.165, 97062.00
1298.231, 97162.00
1299.298, 97038.00
1300.364, 96859.00
1301.430, 96791.00
1302.496, 96795.00
1303.562, 96891.00
1304.627, 96955.00
1305.693, 96971.00
1306.758, 96918.00
1307.823, 97132.00
1308.888, 97053.00
1309.953, 97246.00
1311.018, 96715.00
1312.082, 96594.00
1313.146, 96443.00
1314.210, 96612.00
1315.274, 96071.00
1316.338, 96385.79
1317.402, 96977.00
1318.465, 96441.00
1319.529, 96596.00
1320.592, 95981.00
1321.655, 96278.00
1322.718, 96486.00
1323.780, 96397.00
1324.843, 96175.00
1325.905, 96513.00
1326.967, 96193.00
1328.029, 96511.00
1329.091, 96401.00
1330.153, 96352.00
1331.214, 96580.00
1332.275, 96264.00
1333.337, 96397.00
1334.398, 96419.00
1335.458, 96636.00
1336.519, 97139.00
1337.580, 96389.00
1338.640, 96400.00
1339.700, 96169.00
1340.760, 96577.00
1341.820, 96502.00
1342.880, 96263.00
1343.939, 96167.00
1344.999, 96335.00
1346.058, 96776.00
1347.117, 97224.00
1348.176, 96364.00
1349.235, 96360.00
1350.293, 95941.00
1351.351, 96103.00
1352.410, 96372.00
1353.468, 96097.00
1354.526, 95783.00
1355.583, 96317.00
1356.641, 96102.00
1357.698, 96053.79
1358.756, 96107.00
1359.813, 95800.00
1360.869, 96300.00
1361.926, 96180.00
1362.983, 96049.00
1364.039, 95923.00
1365.095, 96079.00
1366.152, 95970.00
1367.207, 95899.00
1368.263, 95917.00
1369.319, 95856.00
1370.374, 95661.30
1371.430, 96089.45
1372.485, 96323.99
1373.540, 96375.32
1374.594, 95694.70
1375.649, 95959.23
1376.703, 95845.00
1377.758, 95715.22
1378.812, 96112.80
1379.866, 95538.63
1380.920, 95927.84
1381.973, 95932.51
1383.027, 96039.00
1384.080, 95546.00
1385.133, 95113.57
1386.186, 95551.77
1387.239, 95796.34
1388.291, 95857.71
1389.344, 95187.10
1390.396, 95461.68
1391.448, 95357.47
1392.500, 95237.73
1393.552, 95645.34
1394.604, 95081.20
1395.655, 95480.45
1396.707, 95495.12
1397.758, 95685.81
1398.809, 95495.38
1399.860, 95422.66
1400.910, 95731.19
1401.961, 95828.62
1403.011, 95594.31
1404.061, 95796.19
1405.111, 95218.73
1406.161, 95325.16
1407.211, 95726.64
1408.260, 95511.50
1409.310, 95441.00
1410.359, 95709.00
1411.408, 95445.00
1412.457, 95548.00
1413.506, 95903.00
1414.554, 95349.00
1415.603, 95565.00
1416.651, 95004.00
1417.699, 95688.00
1418.747, 95444.00
1419.794, 95368.00
1420.842, 95549.00
1421.889, 95604.00
1422.937, 95537.00
1423.984, 95825.00
1425.031, 95579.00
1426.077, 95946.00
1427.124, 95833.36
1428.170, 95592.88
1429.217, 95827.00
1430.263, 95164.00
1431.309, 95296.00
1432.354, 95443.00
1433.400, 95171.00
1434.445, 95622.00
1435.491, 95223.00
1436.536, 95205.00
1437.581, 95271.00
1438.625, 95370.00
1439.670, 95660.00
1440.714, 95617.00
1441.759, 95471.00
1442.803, 95248.00
1443.847, 95230.00
1444.890, 95435.00
1445.934, 95145.00
1446.978, 95443.00
1448.021, 95613.00
1449.064, 95526.00
1450.107, 95479.00
1451.150, 96388.00
1452.192, 95302.00
1453.235, 95874.00
1454.277, 95329.00
1455.319, 95299.00
1456.361, 95197.00
1457.403, 95665.00
1458.445, 95479.00
1459.486, 95536.42
1460.528, 95708.00
1461.569, 95255.00
1462.610, 95589.00
1463.651, 95077.00
1464.691, 95364.00
1465.732, 95359.00
1466.772, 95702.00
1467.812, 95197.00
1468.852, 95739.41
1469.892, 96281.84
1470.932, 96333.84
1471.971, 95379.00
1473.011, 95253.00
1474.050, 95278.00
1475.089, 95052.00
1476.128, 95354.00
1477.166, 95255.00
1478.205, 95611.00
1479.243, 95463.00
1480.282, 95306.00
1481.320, 95895.00
1482.357, 95115.00
1483.395, 95084.00
1484.433, 95289.00
1485.470, 95371.00
1486.507, 95366.00
1487.544, 95252.00
1488.581, 95301.00
1489.618, 95381.00
1490.655, 95271.00
1491.691, 95335.00
1492.727, 95594.00
1493.763, 95582.00
1494.799, 95229.00
1495.835, 95447.00
1496.871, 95254.00
1497.906, 95416.00
1498.941, 95421.00
1499.976, 95589.00
1501.011, 95451.00
1502.046, 95271.00
1503.081, 95811.00
1504.115, 95731.00
1505.149, 95629.00
1506.183, 96010.00
1507.217, 95597.00
1508.251, 95392.00
1509.285, 94976.00
1510.318, 95175.00
1511.352, 95481.08
1512.385, 95858.00
1513.418, 96247.00
1514.450, 95994.00
1515.483, 95573.00
1516.516, 95300.00
1517.548, 95858.00
1518.580, 95579.00
1519.612, 95514.00
1520.644, 95486.00
1521.675, 95341.41
1522.707, 96055.00
1523.738, 95540.00
1524.769, 94895.00
1525.800, 95669.00
1526.831, 95279.00
1527.862, 95783.00
1528.892, 95358.00
1529.923, 95459.00
1530.953, 95404.00
1531.983, 95574.00
1533.013, 95243.00
1534.042, 95895.00
1535.072, 95543.00
1536.101, 95542.00
1537.131, 95911.00
1538.160, 95739.00
1539.188, 95519.00
1540.217, 95392.00
1541.246, 95455.00
1542.274, 95682.00
1543.302, 95530.00
1544.330, 95407.00
##END=



