##NAMES=Jacobsite
##RRUFFID=R060780
##IDEAL CHEMISTRY=Mn^2+^Fe^3+^_2_O_4_
##LOCALITY=Jakobsberg, Sweden
##OWNER=RRUFF
##SOURCE=Michael Scott
##DESCRIPTION=Black grains
##STATUS=The identification of this mineral is confirmed by single-crystal X-ray diffraction and chemical analysis.
##URL=rruff.info/R060780
##MEASURED CHEMISTRY=(Mn^2+^_0.75_Mg_0.25_)_Σ=1_(Fe^3+^_1.92_Mn^3+^_0.08_)_Σ=2_O_4_
##PIN_ID=M01488
##ORIENTATION=Laser parallel to a* (1 0 0). Fiducial mark perpendicular to laser is parallel to c [0 0 1]
200.2690, 89755.00
201.4910, 88552.00
202.7140, 88479.00
203.9360, 87786.00
205.1580, 86811.00
206.3800, 86948.00
207.6020, 87143.00
208.8240, 87187.00
210.0450, 87021.00
211.2670, 86385.00
212.4880, 85710.00
213.7090, 85544.00
214.9300, 85328.00
216.1510, 85464.91
217.3710, 85806.62
218.5920, 85972.27
219.8120, 85971.40
221.0320, 85305.10
222.2520, 85498.07
223.4720, 85346.69
224.6910, 85181.23
225.9110, 85495.14
227.1300, 84925.68
228.3490, 85232.03
229.5680, 85296.00
230.7870, 85249.00
232.0050, 85135.00
233.2240, 85832.00
234.4420, 85288.00
235.6600, 85219.00
236.8780, 86182.00
238.0960, 85542.00
239.3140, 85820.00
240.5310, 85000.00
241.7490, 85271.00
242.9660, 85110.00
244.1830, 84761.00
245.4000, 85253.00
246.6160, 85315.00
247.8330, 84556.61
249.0490, 84925.38
250.2660, 85126.55
251.4820, 85169.64
252.6980, 84555.75
253.9130, 84809.56
255.1290, 84727.48
256.3440, 84639.70
257.5600, 85039.78
258.7750, 84564.88
259.9900, 84974.21
261.2040, 85042.33
262.4190, 85278.93
263.6330, 85177.42
264.8480, 85191.42
266.0620, 85560.38
267.2760, 85745.84
268.4900, 85638.13
269.7030, 86061.00
270.9170, 85939.00
272.1300, 86224.00
273.3430, 85930.00
274.5560, 86407.00
275.7690, 86629.00
276.9820, 85875.00
278.1940, 86411.00
279.4070, 86128.00
280.6190, 87162.00
281.8310, 86694.45
283.0430, 86472.00
284.2550, 86533.00
285.4660, 86176.00
286.6770, 86927.00
287.8890, 86900.00
289.1000, 87623.00
290.3110, 86902.00
291.5210, 87370.00
292.7320, 87997.00
293.9420, 87631.00
295.1530, 87972.00
296.3630, 87879.00
297.5730, 88110.00
298.7830, 88296.00
299.9920, 88423.00
301.2020, 88761.15
302.4110, 88879.84
303.6200, 89355.00
304.8290, 89208.00
306.0380, 89364.00
307.2470, 89474.77
308.4550, 89843.00
309.6630, 89896.00
310.8720, 90039.00
312.0800, 90266.00
313.2880, 90220.00
314.4950, 90301.00
315.7030, 90812.00
316.9100, 90965.00
318.1170, 91107.71
319.3240, 91094.00
320.5310, 91197.00
321.7380, 91522.00
322.9450, 91318.00
324.1510, 91905.00
325.3570, 92067.00
326.5630, 91983.00
327.7690, 91976.00
328.9750, 91946.00
330.1810, 92061.77
331.3860, 92307.00
332.5910, 92303.00
333.7960, 92129.00
335.0010, 92103.00
336.2060, 91790.00
337.4110, 92422.00
338.6150, 92699.00
339.8200, 92691.00
341.0240, 92739.66
342.2280, 92484.02
343.4320, 92360.00
344.6350, 91968.00
345.8390, 91823.00
347.0420, 92024.00
348.2450, 91650.00
349.4480, 91705.22
350.6510, 91141.00
351.8540, 91267.00
353.0560, 91346.00
354.2590, 90460.00
355.4610, 90604.64
356.6630, 90322.00
357.8650, 90610.00
359.0670, 90026.23
360.2680, 90344.93
361.4700, 90487.55
362.6710, 90463.68
363.8720, 89774.38
365.0730, 89944.34
366.2740, 89769.96
367.4740, 90097.00
368.6750, 90007.00
369.8750, 89242.00
371.0750, 89464.00
372.2750, 89391.00
373.4750, 89617.00
374.6740, 89728.00
375.8740, 89173.00
377.0730, 89021.00
378.2720, 89241.00
379.4710, 88986.00
380.6700, 89330.00
381.8690, 88820.00
383.0670, 89021.00
384.2660, 89028.00
385.4640, 88766.00
386.6620, 89641.00
387.8600, 89242.00
389.0570, 89306.00
390.2550, 88705.00
391.4520, 89352.00
392.6490, 89453.00
393.8460, 88865.00
395.0430, 88955.00
396.2400, 89275.00
397.4370, 89080.00
398.6330, 89103.81
399.8290, 89799.00
401.0250, 88924.00
402.2210, 89350.00
403.4170, 89468.00
404.6130, 89245.00
405.8080, 89923.00
407.0030, 90536.00
408.1980, 89673.00
409.3930, 90018.00
410.5880, 89996.00
411.7830, 90252.00
412.9770, 90248.00
414.1720, 90232.00
415.3660, 90281.06
416.5600, 90318.00
417.7530, 90266.00
418.9470, 90855.00
420.1410, 91019.00
421.3340, 90908.00
422.5270, 91398.00
423.7200, 91500.00
424.9130, 91551.00
426.1060, 91546.00
427.2980, 91957.82
428.4900, 92256.00
429.6830, 92759.00
430.8750, 92500.00
432.0670, 92761.00
433.2580, 93055.00
434.4500, 92931.00
435.6410, 92988.00
436.8320, 93159.00
438.0240, 93442.00
439.2140, 93503.00
440.4050, 93587.00
441.5960, 93921.00
442.7860, 93560.00
443.9760, 94082.00
445.1670, 94469.00
446.3560, 94901.00
447.5460, 94293.00
448.7360, 94460.00
449.9250, 94698.45
451.1150, 95149.70
452.3040, 95424.88
453.4930, 95533.50
454.6810, 94976.67
455.8700, 95279.15
457.0590, 95075.00
458.2470, 95478.00
459.4350, 95625.00
460.6230, 95748.00
461.8110, 95807.63
462.9980, 95708.59
464.1860, 95629.00
465.3730, 95578.00
466.5600, 95301.00
467.7470, 95625.00
468.9340, 95268.00
470.1210, 95002.00
471.3080, 95230.00
472.4940, 95081.17
473.6800, 95190.23
474.8660, 95443.00
476.0520, 95373.00
477.2380, 95977.00
478.4230, 95990.00
479.6090, 95980.00
480.7940, 96043.00
481.9790, 95920.86
483.1640, 96267.00
484.3490, 95923.00
485.5330, 96464.00
486.7180, 97026.00
487.9020, 96879.23
489.0860, 97031.00
490.2700, 96828.00
491.4540, 96977.66
492.6370, 96984.97
493.8210, 97149.00
495.0040, 97258.00
496.1870, 97206.00
497.3700, 97367.24
498.5530, 97451.00
499.7360, 97618.00
500.9180, 97766.00
502.1000, 98048.00
503.2830, 98200.00
504.4650, 98373.00
505.6460, 98420.97
506.8280, 98080.00
508.0100, 98292.00
509.1910, 98654.00
510.3720, 98347.00
511.5530, 98919.00
512.7340, 99002.00
513.9150, 98803.00
515.0950, 99091.00
516.2760, 99001.00
517.4560, 99404.00
518.6360, 99284.00
519.8160, 99371.00
520.9950, 100053.0
522.1750, 100408.0
523.3540, 100416.0
524.5340, 100859.0
525.7130, 100582.0
526.8920, 100295.0
528.0700, 100543.0
529.2490, 101180.0
530.4270, 101064.0
531.6060, 101812.0
532.7840, 101391.0
533.9620, 101763.0
535.1390, 101958.0
536.3170, 102057.0
537.4940, 102163.0
538.6720, 102211.0
539.8490, 102661.0
541.0260, 103302.0
542.2030, 103032.0
543.3790, 103564.0
544.5560, 104435.0
545.7320, 104323.0
546.9080, 104498.0
548.0840, 105039.0
549.2600, 104729.0
550.4360, 105410.0
551.6110, 105852.0
552.7860, 106366.0
553.9620, 106825.0
555.1370, 107314.0
556.3110, 107458.0
557.4860, 108429.0
558.6610, 108759.7
559.8350, 108871.0
561.0090, 109817.0
562.1830, 110126.0
563.3570, 110563.0
564.5310, 111737.0
565.7040, 111691.0
566.8780, 111922.0
568.0510, 112743.0
569.2240, 113568.0
570.3970, 114094.0
571.5700, 115162.0
572.7420, 115486.0
573.9150, 116847.0
575.0870, 117020.0
576.2590, 118251.0
577.4310, 118425.0
578.6030, 119495.0
579.7740, 120370.0
580.9460, 121014.0
582.1170, 122655.0
583.2880, 124198.0
584.4590, 124093.0
585.6300, 124486.0
586.8010, 125473.0
587.9710, 126936.0
589.1410, 128192.0
590.3110, 129487.0
591.4810, 131315.0
592.6510, 132831.0
593.8210, 134335.0
594.9900, 136268.0
596.1600, 137781.0
597.3290, 139889.0
598.4980, 141236.8
599.6670, 142872.0
600.8350, 144114.0
602.0040, 145955.0
603.1720, 147565.0
604.3400, 149182.0
605.5080, 150997.0
606.6760, 151684.0
607.8440, 153063.0
609.0120, 154187.0
610.1790, 156268.0
611.3460, 156666.8
612.5130, 157463.2
613.6800, 158142.2
614.8470, 158710.3
616.0130, 158834.2
617.1800, 159531.4
618.3460, 159356.7
619.5120, 159475.7
620.6780, 159041.6
621.8440, 159070.8
623.0090, 158761.1
624.1750, 158332.4
625.3400, 157543.0
626.5050, 156303.0
627.6700, 155870.0
628.8350, 154595.0
629.9990, 153549.0
631.1640, 152054.0
632.3280, 150892.0
633.4920, 149060.0
634.6560, 147946.0
635.8200, 145872.0
636.9840, 144631.0
638.1470, 143425.0
639.3100, 142249.0
640.4730, 139786.0
641.6360, 138664.0
642.7990, 137299.0
643.9620, 136069.0
645.1240, 134504.0
646.2870, 133610.0
647.4490, 131312.0
648.6110, 130754.0
649.7730, 130258.0
650.9340, 128125.0
652.0960, 126923.0
653.2570, 126640.0
654.4180, 125157.0
655.5790, 124754.0
656.7400, 123258.0
657.9010, 122469.0
659.0620, 122114.0
660.2220, 121196.0
661.3820, 120201.0
662.5420, 119754.0
663.7020, 118717.0
664.8620, 118460.0
666.0210, 117575.0
667.1810, 117102.6
668.3400, 116984.0
669.4990, 116049.0
670.6580, 115887.0
671.8170, 115151.5
672.9750, 114713.0
674.1340, 114566.0
675.2920, 114164.0
676.4500, 113606.0
677.6080, 113285.0
678.7660, 112362.0
679.9230, 112159.0
681.0810, 111433.3
682.2380, 110949.0
683.3950, 109975.0
684.5520, 109646.0
685.7090, 108539.0
686.8660, 108110.0
688.0220, 107666.0
689.1780, 106745.0
690.3340, 106468.0
691.4900, 105767.0
692.6460, 105027.0
693.8020, 104892.0
694.9570, 104002.0
696.1130, 103721.0
697.2680, 102515.0
698.4230, 102320.0
699.5780, 101987.0
700.7320, 101043.0
701.8870, 100379.0
703.0410, 100257.0
704.1950, 99231.00
705.3490, 100087.0
706.5030, 98630.00
707.6570, 99161.00
708.8110, 97928.00
709.9640, 97821.00
711.1170, 97150.00
712.2700, 96975.00
713.4230, 96953.00
714.5760, 96336.00
715.7280, 95782.00
716.8810, 95611.00
718.0330, 95465.00
719.1850, 95085.00
720.3370, 94891.62
721.4890, 94791.00
722.6400, 94289.00
723.7920, 94121.00
724.9430, 93727.30
726.0940, 93586.00
727.2450, 93309.00
728.3960, 93087.22
729.5460, 93570.00
730.6970, 92675.00
731.8470, 92641.00
732.9970, 92414.00
734.1470, 92901.00
735.2970, 92373.00
736.4460, 92301.00
737.5960, 92183.00
738.7450, 91915.00
739.8940, 91936.00
741.0430, 91682.07
742.1920, 91941.00
743.3410, 91584.00
744.4890, 91415.00
745.6370, 91994.00
746.7850, 91174.00
747.9330, 91163.00
749.0810, 91286.00
750.2290, 91502.00
751.3760, 91694.00
752.5240, 91837.00
753.6710, 91627.00
754.8180, 91135.00
755.9650, 91211.00
757.1110, 90987.83
758.2580, 90863.52
759.4040, 90892.00
760.5510, 90746.00
761.6970, 90799.00
762.8420, 90803.00
763.9880, 90775.00
765.1340, 90720.00
766.2790, 90494.00
767.4240, 90206.00
768.5690, 90419.00
769.7140, 90442.00
770.8590, 90253.10
772.0030, 90478.00
773.1480, 89956.00
774.2920, 90396.00
775.4360, 90273.00
776.5800, 89877.00
777.7240, 90029.00
778.8670, 90080.00
780.0110, 89957.00
781.1540, 89715.00
782.2970, 89854.00
783.4400, 90099.00
784.5830, 89869.00
785.7250, 89595.00
786.8680, 90179.00
788.0100, 89695.00
789.1520, 89984.00
790.2940, 89474.00
791.4360, 89502.00
792.5780, 89662.00
793.7190, 89143.00
794.8600, 89793.00
796.0010, 89721.00
797.1420, 89815.00
798.2830, 90023.00
799.4240, 89891.00
800.5640, 89590.00
801.7050, 89579.00
802.8450, 89738.00
803.9850, 90212.00
805.1250, 89648.00
806.2640, 89845.05
807.4040, 90185.00
808.5430, 89591.00
809.6820, 89624.00
810.8210, 89467.00
811.9600, 89657.00
813.0990, 89652.00
814.2370, 89668.00
815.3760, 89505.00
816.5140, 89737.00
817.6520, 89152.00
818.7900, 89507.30
819.9270, 89373.98
821.0650, 90173.00
822.2020, 89383.00
823.3390, 90200.00
824.4760, 90295.00
825.6130, 89115.00
826.7500, 89175.00
827.8870, 88770.00
829.0230, 88983.00
830.1590, 89287.00
831.2950, 89042.00
832.4310, 88975.00
833.5670, 89194.00
834.7030, 89421.00
835.8380, 89493.00
836.9730, 89747.00
838.1080, 89548.00
839.2430, 89892.00
840.3780, 89352.00
841.5130, 89597.00
842.6470, 89616.00
843.7810, 89263.00
844.9150, 89239.00
846.0490, 89316.00
847.1830, 89862.00
848.3170, 89993.00
849.4500, 89702.00
850.5830, 89970.00
851.7160, 89676.00
852.8490, 89329.00
853.9820, 89666.00
855.1150, 89749.00
856.2470, 89804.00
857.3800, 90181.00
858.5120, 90045.00
859.6440, 89978.00
860.7760, 89707.00
861.9070, 89783.00
863.0390, 89992.00
864.1700, 89750.00
865.3010, 89936.00
866.4320, 89612.00
867.5630, 89897.00
868.6940, 90008.00
869.8240, 89902.00
870.9540, 89748.00
872.0850, 89704.00
873.2150, 89538.00
874.3450, 89972.00
875.4740, 89999.00
876.6040, 89846.00
877.7330, 89953.00
878.8620, 89969.00
879.9910, 89988.00
881.1200, 89933.00
882.2490, 90029.00
883.3770, 89849.00
884.5060, 90067.00
885.6340, 89959.17
886.7620, 90068.00
887.8900, 90050.00
889.0180, 90070.00
890.1450, 90501.00
891.2730, 90303.00
892.4000, 90232.00
893.5270, 90520.00
894.6540, 90125.00
895.7810, 90455.00
896.9070, 90443.00
898.0340, 90499.00
899.1600, 90458.00
900.2860, 90812.00
901.4120, 90429.00
902.5380, 90550.00
903.6630, 90783.00
904.7890, 90188.00
905.9140, 90562.00
907.0390, 90600.00
908.1640, 90968.00
909.2890, 90908.00
910.4130, 90902.00
911.5380, 90636.00
912.6620, 90394.00
913.7860, 91133.00
914.9100, 90674.00
916.0340, 90926.00
917.1580, 90958.00
918.2810, 90894.00
919.4040, 90895.00
920.5280, 91106.00
921.6510, 91290.00
922.7730, 90967.00
923.8960, 91365.00
925.0180, 90917.00
926.1410, 91397.00
927.2630, 90930.00
928.3850, 91244.00
929.5070, 91282.00
930.6280, 91038.00
931.7500, 91308.00
932.8710, 91313.00
933.9920, 91410.00
935.1130, 91492.00
936.2340, 91372.00
937.3550, 91270.00
938.4760, 91704.00
939.5960, 91748.00
940.7160, 91545.00
941.8360, 91231.91
942.9560, 91540.00
944.0760, 91730.73
945.1950, 91810.39
946.3150, 91446.47
947.4340, 91655.35
948.5530, 91634.67
949.6720, 91604.57
950.7900, 91894.05
951.9090, 91594.61
953.0270, 91879.02
954.1460, 91930.39
955.2640, 92088.39
956.3820, 92015.41
957.4990, 92013.74
958.6170, 92243.16
959.7340, 92344.62
960.8520, 92245.05
961.9690, 92349.00
963.0860, 92460.00
964.2020, 92469.88
965.3190, 92557.09
966.4350, 92425.00
967.5520, 92464.00
968.6680, 92512.00
969.7840, 92284.00
970.8990, 92383.00
972.0150, 92326.16
973.1310, 92447.00
974.2460, 92307.00
975.3610, 92613.00
976.4760, 92615.00
977.5910, 92589.55
978.7050, 92591.00
979.8200, 92508.00
980.9340, 92582.00
982.0480, 92509.00
983.1620, 92942.00
984.2760, 92464.00
985.3900, 92664.00
986.5030, 92745.00
987.6160, 92494.00
988.7300, 93165.00
989.8430, 92949.00
990.9550, 93034.00
992.0680, 92642.00
993.1810, 93051.00
994.2930, 93048.00
995.4050, 93160.00
996.5170, 92896.00
997.6290, 93270.00
998.7410, 93106.00
999.8520, 93018.00
1000.964, 92836.71
1002.075, 93136.47
1003.186, 93318.88
1004.297, 93390.26
1005.407, 93017.98
1006.518, 93218.58
1007.628, 93189.57
1008.738, 93151.16
1009.848, 93432.34
1010.958, 93124.59
1012.068, 93400.71
1013.178, 93443.76
1014.287, 93593.45
1015.396, 93512.16
1016.505, 93502.20
1017.614, 93723.30
1018.723, 93816.48
1019.831, 93708.55
1020.940, 93865.02
1022.048, 93549.14
1023.156, 93330.00
1024.264, 93488.69
1025.372, 93499.48
1026.479, 93776.00
1027.587, 93540.00
1028.694, 93779.00
1029.801, 93607.00
1030.908, 94081.00
1032.015, 94047.00
1033.121, 93780.00
1034.228, 94366.00
1035.334, 93846.00
1036.440, 93931.00
1037.546, 93801.00
1038.652, 94149.00
1039.758, 94132.00
1040.863, 94156.00
1041.968, 94239.00
1043.074, 94476.00
1044.178, 94293.00
1045.283, 94073.00
1046.388, 94389.00
1047.492, 94277.00
1048.597, 94291.00
1049.701, 94950.00
1050.805, 94986.00
1051.909, 95084.40
1053.012, 94646.00
1054.116, 94973.00
1055.219, 95073.00
1056.322, 94735.00
1057.425, 94772.00
1058.528, 94922.00
1059.631, 95026.00
1060.733, 95175.00
1061.836, 95313.00
1062.938, 95382.93
1064.040, 95332.00
1065.142, 95511.00
1066.243, 95462.70
1067.345, 95487.30
1068.446, 95580.00
1069.547, 95224.00
1070.648, 95320.00
1071.749, 95030.00
1072.850, 95505.00
1073.951, 95355.00
1075.051, 95289.06
1076.151, 95567.31
1077.251, 95728.22
1078.351, 95778.08
1079.451, 95384.32
1080.550, 95563.40
1081.650, 95512.91
1082.749, 95453.01
1083.848, 95712.71
1084.947, 95383.47
1086.046, 95638.10
1087.144, 95659.65
1088.243, 95787.88
1089.341, 95685.11
1090.439, 95653.70
1091.537, 95853.33
1092.635, 96091.00
1093.732, 96185.00
1094.830, 95976.00
1095.927, 95542.00
1097.024, 95547.00
1098.121, 95632.00
1099.218, 96001.00
1100.314, 95713.00
1101.411, 95816.00
1102.507, 95364.70
1103.603, 95638.00
1104.699, 95793.95
1105.795, 95838.84
1106.890, 95440.12
1107.986, 95614.26
1109.081, 95558.81
1110.176, 95493.95
1111.271, 95748.70
1112.366, 95414.50
1113.461, 95664.18
1114.555, 95680.78
1115.649, 95804.05
1116.744, 95696.35
1117.838, 95659.98
1118.931, 95854.66
1120.025, 95921.42
1121.119, 95787.12
1122.212, 95917.16
1123.305, 95574.89
1124.398, 95448.00
1125.491, 95841.00
1126.584, 95783.00
1127.676, 95417.00
1128.768, 95825.00
1129.861, 95467.76
1130.953, 95228.00
1132.044, 95237.00
1133.136, 95224.00
1134.228, 95366.00
1135.319, 95256.00
1136.410, 95419.04
1137.501, 95676.79
1138.592, 95817.20
1139.683, 95846.55
1140.773, 95432.31
1141.864, 95590.90
1142.954, 95519.93
1144.044, 95439.55
1145.134, 95678.77
1146.224, 95329.05
1147.313, 95563.21
1148.402, 95194.00
1149.492, 95536.00
1150.581, 95525.00
1151.670, 95258.00
1152.758, 95637.00
1153.847, 95690.00
1154.935, 95639.67
1156.024, 95540.00
1157.112, 95598.00
1158.200, 95559.00
1159.287, 95489.00
1160.375, 95597.00
1161.462, 95447.00
1162.550, 95674.00
1163.637, 95490.10
1164.724, 95529.79
1165.810, 95305.00
1166.897, 95470.00
1167.983, 95583.00
1169.070, 95480.00
1170.156, 95717.00
1171.242, 95481.00
1172.327, 95818.00
1173.413, 95739.03
1174.499, 95892.00
1175.584, 95604.00
1176.669, 95116.47
1177.754, 95411.81
1178.839, 95589.80
1179.923, 95656.73
1181.008, 95280.06
1182.092, 95476.21
1183.176, 95442.79
1184.260, 95399.95
1185.344, 95676.73
1186.428, 95364.55
1187.511, 95636.23
1188.595, 95674.85
1189.678, 95495.00
1190.761, 95852.00
1191.843, 95900.00
1192.926, 95550.00
1194.009, 95797.00
1195.091, 96255.00
1196.173, 96191.00
1197.255, 96154.41
1198.337, 95818.00
1199.419, 95683.00
1200.500, 95977.00
1201.582, 95726.00
1202.663, 95718.00
1203.744, 96306.00
1204.825, 96080.00
1205.905, 95886.00
1206.986, 95872.00
1208.066, 95653.00
1209.146, 95537.61
1210.226, 96027.00
1211.306, 95406.00
1212.386, 95899.00
1213.466, 96222.00
1214.545, 96092.00
1215.624, 96229.15
1216.703, 96090.00
1217.782, 96050.00
1218.861, 96065.51
1219.939, 95765.00
1221.018, 96006.00
1222.096, 96084.00
1223.174, 96022.00
1224.252, 96336.00
1225.330, 96126.16
1226.407, 95506.00
1227.485, 95877.00
1228.562, 95877.00
1229.639, 95813.00
1230.716, 95944.00
1231.793, 95947.91
1232.869, 96133.00
1233.946, 96035.00
1235.022, 95937.00
1236.098, 95882.00
1237.174, 95797.69
1238.250, 95767.00
1239.325, 95678.00
1240.401, 95787.00
1241.476, 95771.00
1242.551, 95671.00
1243.626, 95823.00
1244.701, 95806.00
1245.776, 95419.00
1246.850, 95311.00
1247.924, 95562.00
1248.999, 95649.00
1250.073, 95641.00
1251.146, 95184.00
1252.220, 95470.00
1253.293, 95758.00
1254.367, 95174.00
1255.440, 95023.00
1256.513, 95789.00
1257.586, 95698.00
1258.658, 95431.00
1259.731, 95088.00
1260.803, 95349.00
1261.875, 95360.00
1262.947, 95625.00
1264.019, 95297.00
1265.091, 95181.00
1266.162, 94839.48
1267.234, 95091.23
1268.305, 95225.65
1269.376, 95249.03
1270.447, 94828.80
1271.517, 94981.42
1272.588, 94904.45
1273.658, 94818.09
1274.729, 95051.33
1275.799, 94695.63
1276.868, 94923.82
1277.938, 94918.93
1279.008, 95020.71
1280.077, 94891.52
1281.146, 94833.66
1282.215, 95006.88
1283.284, 95052.15
1284.353, 94896.37
1285.421, 95004.96
1286.490, 94641.21
1287.558, 94691.95
1288.626, 94921.52
1289.694, 94777.36
1290.762, 94820.00
1291.829, 94912.00
1292.897, 94942.02
1293.964, 94657.00
1295.031, 95439.00
1296.098, 94463.00
1297.165, 95167.00
1298.231, 94818.00
1299.298, 94721.18
1300.364, 94790.97
1301.430, 94577.00
1302.496, 94736.00
1303.562, 94490.00
1304.627, 94913.00
1305.693, 94667.00
1306.758, 94918.00
1307.823, 94068.00
1308.888, 94791.00
1309.953, 94389.00
1311.018, 94610.00
1312.082, 94584.00
1313.146, 94170.00
1314.210, 94260.00
1315.274, 94225.00
1316.338, 94585.00
1317.402, 94125.00
1318.465, 94319.00
1319.529, 94017.00
1320.592, 94223.00
1321.655, 93610.00
1322.718, 94109.00
1323.780, 93802.00
1324.843, 93962.00
1325.905, 93912.00
1326.967, 94276.00
1328.029, 94229.47
1329.091, 93982.00
1330.153, 94293.00
1331.214, 94464.00
1332.275, 94484.00
1333.337, 93623.00
1334.398, 93934.00
1335.458, 94002.00
1336.519, 93982.00
1337.580, 94264.00
1338.640, 93970.00
1339.700, 93955.00
1340.760, 93891.00
1341.820, 93904.00
1342.880, 93815.00
1343.939, 93877.88
1344.999, 93745.00
1346.058, 94069.00
1347.117, 93782.00
1348.176, 94013.00
1349.235, 94077.00
1350.293, 94631.00
1351.351, 94166.51
1352.410, 94170.00
1353.468, 93662.00
1354.526, 93732.00
1355.583, 94177.00
1356.641, 93340.00
1357.698, 93776.00
1358.756, 93661.00
1359.813, 92933.00
1360.869, 93715.00
1361.926, 93428.00
1362.983, 94015.00
1364.039, 93123.94
1365.095, 93852.00
1366.152, 93412.00
1367.207, 94684.00
1368.263, 94114.45
1369.319, 93889.00
1370.374, 93610.00
1371.430, 93362.00
1372.485, 93501.00
1373.540, 94298.00
1374.594, 93324.00
1375.649, 93258.00
1376.703, 94495.00
1377.758, 93293.00
1378.812, 93834.00
1379.866, 93874.00
1380.920, 93785.00
1381.973, 93613.00
1383.027, 93399.00
1384.080, 93339.00
1385.133, 93310.00
1386.186, 93119.00
1387.239, 93473.00
1388.291, 93282.00
1389.344, 93021.00
1390.396, 93116.55
1391.448, 93456.00
1392.500, 92939.00
1393.552, 93156.00
1394.604, 93036.00
1395.655, 93515.00
1396.707, 93240.00
1397.758, 92910.00
1398.809, 93351.00
1399.860, 93071.00
1400.910, 93278.00
1401.961, 93343.00
1403.011, 93353.00
1404.061, 93536.00
1405.111, 93240.00
1406.161, 93203.00
1407.211, 93531.00
1408.260, 92992.00
1409.310, 92715.00
1410.359, 92958.00
1411.408, 93351.00
1412.457, 93275.00
1413.506, 94052.00
1414.554, 92908.00
1415.603, 93265.00
1416.651, 92681.00
1417.699, 92951.00
1418.747, 92852.00
1419.794, 92960.00
1420.842, 93124.00
1421.889, 92897.00
1422.937, 93099.87
1423.984, 92880.00
1425.031, 93283.00
1426.077, 93159.00
1427.124, 93275.00
1428.170, 93047.00
1429.217, 93214.00
1430.263, 92545.18
1431.309, 92916.46
1432.354, 93157.28
1433.400, 93274.10
1434.445, 92934.20
1435.491, 93154.16
1436.536, 93131.49
1437.581, 93086.38
1438.625, 93347.86
1439.670, 93007.38
1440.714, 93237.80
1441.759, 93222.10
1442.803, 93300.11
1443.847, 93134.12
1444.890, 93026.57
1445.934, 93137.03
1446.978, 93106.55
1448.021, 92853.00
1449.064, 93208.00
1450.107, 93149.00
1451.150, 93183.00
1452.192, 93106.00
1453.235, 93199.00
1454.277, 93016.00
1455.319, 93160.00
1456.361, 93545.00
1457.403, 93078.00
1458.445, 93122.00
1459.486, 93035.00
1460.528, 92777.00
1461.569, 93181.00
1462.610, 92988.00
1463.651, 92803.00
1464.691, 93070.00
1465.732, 93140.00
1466.772, 93361.00
1467.812, 94180.00
1468.852, 93448.00
1469.892, 93194.00
1470.932, 92659.00
1471.971, 93167.00
1473.011, 92847.00
1474.050, 93094.00
1475.089, 92741.00
1476.128, 92861.23
1477.166, 93270.00
1478.205, 92913.00
1479.243, 93259.00
1480.282, 93114.00
1481.320, 92955.00
1482.357, 93242.00
1483.395, 93260.00
1484.433, 93746.00
1485.470, 92872.00
1486.507, 92954.00
1487.544, 92775.00
1488.581, 93099.00
1489.618, 93093.00
1490.655, 93661.00
1491.691, 92966.00
1492.727, 93341.00
1493.763, 93073.00
1494.799, 92747.00
1495.835, 92797.00
1496.871, 92597.00
1497.906, 92919.00
1498.941, 92842.00
1499.976, 92824.00
1501.011, 93219.00
1502.046, 92620.00
1503.081, 92971.00
1504.115, 93199.00
1505.149, 93161.00
1506.183, 92758.00
1507.217, 93277.00
1508.251, 92914.00
1509.285, 93091.00
1510.318, 93074.00
1511.352, 92699.00
1512.385, 92743.00
1513.418, 93027.00
1514.450, 93150.00
1515.483, 93154.00
1516.516, 93363.00
1517.548, 93320.00
1518.580, 93045.00
1519.612, 92953.00
1520.644, 92789.00
1521.675, 92893.00
1522.707, 93026.00
1523.738, 92890.00
1524.769, 93011.00
1525.800, 92858.00
1526.831, 93285.00
1527.862, 92785.00
1528.892, 92705.00
1529.923, 93089.00
1530.953, 92958.00
1531.983, 92813.00
1533.013, 93274.00
1534.042, 92844.95
1535.072, 92614.00
1536.101, 92718.00
1537.131, 92660.95
1538.160, 92880.82
1539.188, 92880.00
1540.217, 93215.00
1541.246, 93145.00
1542.274, 92770.00
1543.302, 92581.00
1544.330, 93011.00
##END=



