##NAMES=Jadeite
##RRUFFID=R050220
##IDEAL CHEMISTRY=NaAlSi_2_O_6_
##LOCALITY=Clear Creek, San Benito County, California, USA
##OWNER=RRUFF
##SOURCE=Hatt Yoder
##DESCRIPTION=Aggregate of colorless bladed crystals
##STATUS=The identification of this mineral has been confirmed by X-ray diffraction and chemical analysis
##URL=rruff.info/R050220
##MEASURED CHEMISTRY=Na_1.00_Al_1.00_(Si_0.99_Al_0.01_)_2_O_6_
##PIN_ID=L00826
##ORIENTATION=Laser parallel to c* (0 0 1). Fiducial mark perpendicular to laser is parallel to a [1 0 0]
112.9460, 5904.000
114.1820, 6168.000
115.4170, 6367.000
116.6530, 6417.000
117.8880, 6485.000
119.1230, 6411.000
120.3580, 6314.000
121.5920, 6449.000
122.8270, 6803.000
124.0610, 6920.000
125.2950, 6933.000
126.5290, 7050.000
127.7630, 7234.000
128.9970, 7464.914
130.2300, 7972.000
131.4640, 8184.000
132.6970, 8619.000
133.9300, 9224.000
135.1630, 10027.00
136.3950, 11046.00
137.6280, 12341.00
138.8600, 13996.00
140.0920, 15556.00
141.3240, 17022.00
142.5560, 17891.00
143.7880, 17614.00
145.0190, 16842.00
146.2510, 15385.00
147.4820, 13583.00
148.7130, 11732.00
149.9440, 10297.00
151.1750, 9276.000
152.4050, 8705.000
153.6360, 8115.000
154.8660, 7945.000
156.0960, 7756.000
157.3260, 7418.000
158.5560, 7295.000
159.7850, 7268.000
161.0150, 7167.000
162.2440, 7104.000
163.4730, 7059.000
164.7020, 7046.805
165.9310, 7010.343
167.1590, 7090.000
168.3880, 6997.000
169.6160, 7044.000
170.8440, 7088.000
172.0720, 7071.000
173.3000, 7009.000
174.5280, 6953.000
175.7550, 6949.000
176.9820, 7010.000
178.2100, 7058.000
179.4370, 7045.000
180.6630, 7085.000
181.8900, 7234.000
183.1170, 7239.000
184.3430, 7264.000
185.5690, 7356.000
186.7950, 7581.000
188.0210, 7882.000
189.2470, 8386.676
190.4720, 8888.000
191.6970, 9751.000
192.9230, 10466.00
194.1480, 11455.00
195.3730, 12049.00
196.5970, 13093.00
197.8220, 15043.00
199.0460, 17718.00
200.2700, 20689.00
201.4940, 24138.00
202.7180, 26589.00
203.9420, 27498.00
205.1660, 25541.00
206.3890, 22399.00
207.6120, 18570.00
208.8350, 15342.00
210.0580, 12405.00
211.2810, 10589.00
212.5040, 9688.000
213.7260, 9304.000
214.9480, 9367.000
216.1700, 9383.000
217.3920, 10112.00
218.6140, 11448.00
219.8360, 13094.00
221.0570, 14660.00
222.2790, 15709.00
223.5000, 16153.00
224.7210, 15522.00
225.9410, 13558.00
227.1620, 11479.00
228.3820, 9760.000
229.6030, 8556.000
230.8230, 7928.000
232.0430, 7685.000
233.2630, 7575.000
234.4820, 7576.000
235.7020, 7456.000
236.9210, 7514.000
238.1400, 7521.000
239.3590, 7508.000
240.5780, 7600.000
241.7970, 7699.000
243.0150, 7958.000
244.2340, 8146.000
245.4520, 8643.000
246.6700, 9144.000
247.8880, 9824.000
249.1060, 11104.64
250.3230, 11945.00
251.5400, 14243.00
252.7580, 16533.00
253.9750, 18697.00
255.1920, 20180.00
256.4080, 20361.00
257.6250, 19302.00
258.8410, 16718.00
260.0580, 13432.00
261.2740, 10845.00
262.4900, 9253.000
263.7050, 8329.000
264.9210, 7979.000
266.1360, 7874.000
267.3520, 7810.000
268.5670, 7631.000
269.7820, 7646.000
270.9960, 7654.000
272.2110, 7796.000
273.4250, 7798.000
274.6400, 7787.000
275.8540, 7900.000
277.0680, 8054.000
278.2810, 8223.000
279.4950, 8332.000
280.7090, 8520.742
281.9220, 8724.877
283.1350, 8947.000
284.3480, 9257.000
285.5610, 9649.000
286.7730, 10102.00
287.9860, 10623.00
289.1980, 11200.00
290.4100, 11685.00
291.6220, 12128.00
292.8340, 12315.00
294.0460, 12823.00
295.2570, 12076.00
296.4690, 11578.00
297.6800, 11136.00
298.8910, 10881.00
300.1020, 10475.00
301.3120, 10542.00
302.5230, 10356.00
303.7330, 10395.00
304.9440, 10761.00
306.1540, 10973.00
307.3630, 11302.00
308.5730, 11735.00
309.7830, 12049.00
310.9920, 12186.00
312.2010, 12050.00
313.4100, 11690.00
314.6190, 11319.00
315.8280, 11089.00
317.0370, 10757.00
318.2450, 10985.00
319.4530, 11463.00
320.6610, 12195.00
321.8690, 12984.00
323.0770, 14262.00
324.2850, 15712.00
325.4920, 17582.00
326.6990, 19659.00
327.9060, 20963.00
329.1130, 21239.00
330.3200, 20881.00
331.5270, 19054.00
332.7330, 16539.00
333.9390, 14973.00
335.1450, 12255.00
336.3510, 10955.00
337.5570, 10012.00
338.7630, 9487.000
339.9680, 9365.000
341.1740, 9049.000
342.3790, 9045.000
343.5840, 8849.000
344.7890, 8742.000
345.9930, 8852.000
347.1980, 8772.000
348.4020, 8794.000
349.6060, 8784.000
350.8100, 8988.000
352.0140, 9141.000
353.2180, 9234.000
354.4210, 9343.000
355.6250, 9537.000
356.8280, 9926.000
358.0310, 10251.00
359.2340, 10760.00
360.4360, 11517.00
361.6390, 12380.00
362.8410, 13771.00
364.0430, 15455.00
365.2450, 17717.00
366.4470, 20390.00
367.6490, 23385.00
368.8510, 27355.00
370.0520, 31919.00
371.2530, 37381.00
372.4540, 42619.00
373.6550, 46430.00
374.8560, 48433.00
376.0560, 47619.00
377.2570, 45290.00
378.4570, 41036.00
379.6570, 36905.00
380.8570, 33449.00
382.0570, 31490.00
383.2560, 30427.00
384.4560, 29829.00
385.6550, 28959.00
386.8540, 27657.00
388.0530, 25394.00
389.2520, 22743.00
390.4510, 20138.00
391.6490, 17815.00
392.8470, 16010.00
394.0450, 14618.00
395.2430, 13533.00
396.4410, 12809.00
397.6390, 12246.00
398.8360, 11945.00
400.0340, 11671.00
401.2310, 11472.00
402.4280, 11267.00
403.6250, 11341.00
404.8210, 11282.00
406.0180, 11409.00
407.2140, 11476.00
408.4100, 11857.00
409.6060, 12098.00
410.8020, 12520.00
411.9980, 13011.00
413.1930, 13577.00
414.3890, 14045.00
415.5840, 14764.00
416.7790, 15010.00
417.9740, 15160.00
419.1680, 15188.00
420.3630, 14786.00
421.5570, 14412.00
422.7510, 14060.00
423.9450, 13704.00
425.1390, 13781.00
426.3330, 13968.00
427.5270, 14147.00
428.7200, 14660.00
429.9130, 15102.00
431.1060, 15601.00
432.2990, 16038.00
433.4920, 16066.00
434.6840, 16002.00
435.8770, 15467.00
437.0690, 14653.00
438.2610, 13817.00
439.4530, 13158.00
440.6450, 12268.00
441.8360, 11637.00
443.0280, 10999.00
444.2190, 10729.00
445.4100, 10274.00
446.6010, 10186.00
447.7920, 9942.000
448.9820, 9807.000
450.1730, 9610.000
451.3630, 9618.000
452.5530, 9403.000
453.7430, 9367.000
454.9330, 9366.000
456.1230, 9253.000
457.3120, 9347.504
458.5010, 9326.413
459.6910, 9472.000
460.8800, 9361.000
462.0680, 9345.000
463.2570, 9304.000
464.4460, 9360.000
465.6340, 9283.000
466.8220, 9411.000
468.0100, 9346.000
469.1980, 9561.000
470.3860, 9625.000
471.5730, 9614.000
472.7600, 9610.000
473.9480, 9705.000
475.1350, 9857.000
476.3210, 9873.000
477.5080, 10078.00
478.6950, 10086.00
479.8810, 10233.00
481.0670, 10292.00
482.2530, 10211.00
483.4390, 10197.00
484.6250, 10189.00
485.8100, 10024.00
486.9960, 9896.000
488.1810, 10001.00
489.3660, 9714.000
490.5510, 9883.000
491.7360, 9887.000
492.9200, 9789.000
494.1050, 9680.000
495.2890, 9685.000
496.4730, 9708.000
497.6570, 9777.000
498.8400, 9740.000
500.0240, 9797.000
501.2070, 9767.000
502.3910, 9780.000
503.5740, 9906.000
504.7570, 10014.00
505.9400, 9927.000
507.1220, 10171.00
508.3050, 10243.00
509.4870, 10443.00
510.6690, 10657.00
511.8510, 10704.00
513.0330, 10943.00
514.2140, 11350.00
515.3960, 11694.00
516.5770, 11927.00
517.7580, 12525.00
518.9390, 12961.00
520.1200, 13646.00
521.3010, 14408.00
522.4810, 14904.00
523.6610, 15236.00
524.8420, 15310.00
526.0220, 14923.00
527.2010, 14262.00
528.3810, 13118.00
529.5610, 12424.00
530.7400, 11555.00
531.9190, 11033.00
533.0980, 10523.00
534.2770, 10343.00
535.4560, 10203.00
536.6340, 10231.00
537.8120, 10133.00
538.9910, 9884.000
540.1690, 9963.000
541.3460, 9890.000
542.5240, 9975.000
543.7020, 9885.000
544.8790, 9820.000
546.0560, 9732.000
547.2330, 9825.000
548.4100, 9979.000
549.5870, 9976.000
550.7630, 9917.000
551.9400, 10015.00
553.1160, 10038.00
554.2920, 10172.00
555.4680, 10246.00
556.6440, 10392.00
557.8190, 10584.00
558.9950, 10556.00
560.1700, 10675.00
561.3450, 10688.00
562.5200, 10759.00
563.6950, 10793.00
564.8690, 10940.00
566.0440, 11159.00
567.2180, 11498.00
568.3920, 11992.00
569.5660, 12547.00
570.7400, 13050.00
571.9130, 13812.00
573.0870, 14461.00
574.2600, 15025.00
575.4330, 15123.00
576.6060, 14990.00
577.7790, 14281.00
578.9520, 13597.00
580.1240, 12893.00
581.2960, 12223.00
582.4690, 11892.00
583.6410, 11530.00
584.8120, 11386.00
585.9840, 11464.00
587.1560, 11551.00
588.3270, 11608.00
589.4980, 11616.00
590.6690, 11512.98
591.8400, 11516.00
593.0110, 11160.00
594.1810, 10937.00
595.3510, 10647.00
596.5220, 10430.00
597.6920, 10322.00
598.8610, 10180.00
600.0310, 10258.00
601.2010, 10209.00
602.3700, 10293.00
603.5390, 10157.00
604.7080, 10097.00
605.8770, 10081.00
607.0460, 10051.60
608.2140, 10211.00
609.3830, 10102.00
610.5510, 10199.00
611.7190, 10270.00
612.8870, 10194.00
614.0550, 10334.00
615.2220, 10351.00
616.3900, 10291.00
617.5570, 10264.00
618.7240, 10323.00
619.8910, 10308.00
621.0580, 10382.65
622.2240, 10502.00
623.3910, 10517.00
624.5570, 10617.00
625.7230, 10640.00
626.8890, 10579.00
628.0550, 10739.00
629.2200, 10933.00
630.3860, 10875.00
631.5510, 11023.00
632.7160, 11083.00
633.8810, 11250.00
635.0460, 11081.00
636.2100, 11242.00
637.3750, 11249.00
638.5390, 11320.00
639.7030, 11335.00
640.8670, 11373.00
642.0310, 11347.00
643.1950, 11145.00
644.3580, 11210.00
645.5210, 11126.00
646.6850, 11304.00
647.8480, 10976.00
649.0100, 11032.00
650.1730, 11033.00
651.3350, 10969.00
652.4980, 11014.00
653.6600, 10962.00
654.8220, 10949.00
655.9840, 10965.00
657.1450, 10961.98
658.3070, 11003.17
659.4680, 11020.00
660.6300, 11088.00
661.7910, 11151.00
662.9510, 11175.09
664.1120, 11097.00
665.2730, 11137.00
666.4330, 11152.00
667.5930, 11180.65
668.7530, 11271.95
669.9130, 11320.00
671.0730, 11492.00
672.2320, 11624.19
673.3920, 11790.00
674.5510, 11884.00
675.7100, 12010.00
676.8690, 12121.00
678.0280, 12323.00
679.1860, 12526.00
680.3450, 12743.00
681.5030, 13072.00
682.6610, 13427.00
683.8190, 13946.00
684.9770, 14572.00
686.1340, 15217.00
687.2920, 16462.00
688.4490, 17946.00
689.6060, 19663.00
690.7630, 22111.00
691.9200, 25121.00
693.0760, 28729.00
694.2330, 33235.00
695.3890, 38413.00
696.5450, 44133.00
697.7010, 49193.00
698.8570, 53137.00
700.0130, 54107.00
701.1680, 52494.00
702.3230, 48017.00
703.4780, 42067.00
704.6330, 35930.00
705.7880, 30450.00
706.9430, 25818.00
708.0970, 22416.00
709.2520, 19847.00
710.4060, 18198.00
711.5600, 17010.00
712.7140, 15954.00
713.8670, 15068.00
715.0210, 14364.00
716.1740, 14082.00
717.3270, 13586.00
718.4800, 13194.00
719.6330, 12775.00
720.7860, 12749.00
721.9380, 12635.00
723.0910, 12517.00
724.2430, 12285.00
725.3950, 11999.00
726.5470, 11979.00
727.6980, 11831.34
728.8500, 12043.00
730.0010, 11801.00
731.1530, 11790.00
732.3040, 11926.00
733.4550, 11693.00
734.6050, 11653.00
735.7560, 11600.00
736.9060, 11587.00
738.0560, 11545.00
739.2060, 11454.00
740.3560, 11433.00
741.5060, 11456.93
742.6560, 11457.25
743.8050, 11523.00
744.9540, 11503.00
746.1030, 11466.00
747.2520, 11396.00
748.4010, 11376.00
749.5500, 11368.83
750.6980, 11426.00
751.8460, 11411.00
752.9950, 11480.00
754.1420, 11561.00
755.2900, 11391.00
756.4380, 11344.00
757.5850, 11444.00
758.7330, 11408.00
759.8800, 11501.00
761.0270, 11463.00
762.1730, 11484.00
763.3200, 11375.00
764.4670, 11392.00
765.6130, 11490.00
766.7590, 11647.00
767.9050, 11600.00
769.0510, 11619.00
770.1960, 11624.00
771.3420, 11730.00
772.4870, 11840.00
773.6320, 11997.00
774.7770, 12175.00
775.9220, 12199.00
777.0670, 12412.00
778.2110, 12632.00
779.3560, 12725.00
780.5000, 12781.00
781.6440, 12616.00
782.7880, 12332.00
783.9320, 12255.00
785.0750, 12046.00
786.2180, 11908.00
787.3620, 11732.00
788.5050, 11702.00
789.6480, 11641.00
790.7900, 11727.00
791.9330, 11593.00
793.0750, 11595.00
794.2170, 11492.00
795.3590, 11501.00
796.5010, 11670.00
797.6430, 11706.00
798.7850, 11537.00
799.9260, 11713.00
801.0670, 11594.00
802.2080, 11533.00
803.3490, 11511.00
804.4900, 11541.00
805.6310, 11606.00
806.7710, 11696.00
807.9110, 11616.00
809.0510, 11647.00
810.1910, 11766.00
811.3310, 11765.00
812.4710, 11892.00
813.6100, 11819.00
814.7490, 11723.00
815.8880, 11805.00
817.0270, 11632.00
818.1660, 11939.00
819.3050, 11624.00
820.4430, 11958.00
821.5820, 11685.00
822.7200, 11935.00
823.8580, 11912.00
824.9950, 11799.00
826.1330, 11891.00
827.2710, 11879.00
828.4080, 11863.00
829.5450, 11856.00
830.6820, 11980.00
831.8190, 11877.00
832.9560, 11942.00
834.0920, 11943.00
835.2280, 11924.00
836.3650, 12008.00
837.5010, 11944.00
838.6360, 11973.00
839.7720, 11954.00
840.9080, 12042.00
842.0430, 12034.00
843.1780, 12031.00
844.3130, 12039.00
845.4480, 12129.00
846.5830, 12117.00
847.7170, 12214.00
848.8520, 12252.00
849.9860, 12188.00
851.1200, 12297.00
852.2540, 12231.00
853.3870, 12222.00
854.5210, 12245.00
855.6540, 12406.00
856.7880, 12382.00
857.9210, 12456.00
859.0540, 12272.00
860.1860, 12377.00
861.3190, 12286.00
862.4510, 12485.00
863.5840, 12418.00
864.7160, 12459.00
865.8480, 12391.00
866.9790, 12529.00
868.1110, 12698.00
869.2420, 12680.00
870.3740, 12672.00
871.5050, 12795.00
872.6360, 12722.00
873.7660, 12857.00
874.8970, 12956.00
876.0280, 13095.00
877.1580, 13227.00
878.2880, 13380.00
879.4180, 13383.00
880.5480, 13786.00
881.6770, 14128.00
882.8070, 14223.00
883.9360, 14708.00
885.0650, 14882.00
886.1940, 15144.00
887.3230, 15295.00
888.4520, 15180.00
889.5800, 15010.00
890.7090, 14645.00
891.8370, 14509.00
892.9650, 14166.00
894.0930, 13831.00
895.2200, 13566.00
896.3480, 13367.00
897.4750, 13094.00
898.6020, 13067.04
899.7290, 13080.00
900.8560, 13074.00
901.9830, 12961.00
903.1090, 13016.00
904.2360, 13130.00
905.3620, 12894.00
906.4880, 12779.00
907.6140, 12964.00
908.7400, 12868.00
909.8650, 12863.00
910.9900, 12826.00
912.1160, 12583.00
913.2410, 12831.00
914.3660, 12733.00
915.4900, 12823.00
916.6150, 12985.00
917.7390, 12879.00
918.8640, 12936.00
919.9880, 12925.00
921.1120, 12934.00
922.2350, 12961.38
923.3590, 12998.26
924.4820, 12999.00
925.6060, 13070.00
926.7290, 13101.19
927.8520, 13058.00
928.9740, 13124.00
930.0970, 13145.00
931.2190, 13125.00
932.3420, 13120.00
933.4640, 13096.00
934.5860, 13043.00
935.7080, 13047.00
936.8290, 12965.00
937.9510, 12951.00
939.0720, 13161.00
940.1930, 13092.00
941.3140, 13202.00
942.4350, 13306.00
943.5560, 13360.00
944.6760, 13408.06
945.7960, 13282.00
946.9170, 13439.00
948.0370, 13341.00
949.1560, 13325.00
950.2760, 13368.00
951.3960, 13577.00
952.5150, 13478.00
953.6340, 13567.00
954.7530, 13568.00
955.8720, 13606.00
956.9910, 13625.07
958.1090, 13598.00
959.2280, 13676.00
960.3460, 13729.00
961.4640, 13843.00
962.5820, 13818.00
963.6990, 14071.00
964.8170, 14092.00
965.9340, 14191.00
967.0510, 14111.00
968.1690, 14332.10
969.2850, 14596.00
970.4020, 14763.00
971.5190, 15038.00
972.6350, 15342.00
973.7510, 15422.00
974.8670, 15912.00
975.9830, 16229.00
977.0990, 16814.00
978.2150, 17582.00
979.3300, 18544.00
980.4450, 19896.00
981.5600, 21366.00
982.6750, 23511.00
983.7900, 25549.00
984.9050, 27295.00
986.0190, 28910.00
987.1340, 29468.00
988.2480, 29540.00
989.3620, 29081.00
990.4750, 28780.00
991.5890, 28011.00
992.7020, 27184.00
993.8160, 25876.00
994.9290, 24103.00
996.0420, 22130.00
997.1550, 20806.00
998.2670, 19379.00
999.3800, 18231.00
1000.492, 17547.00
1001.604, 17025.00
1002.716, 16501.00
1003.828, 16185.00
1004.940, 15881.00
1006.051, 15544.00
1007.163, 15588.00
1008.274, 15636.00
1009.385, 15556.00
1010.496, 15449.00
1011.606, 15478.00
1012.717, 15546.00
1013.827, 15624.00
1014.937, 15638.00
1016.047, 15811.00
1017.157, 15848.00
1018.267, 16065.00
1019.377, 16440.00
1020.486, 16575.00
1021.595, 17017.00
1022.704, 17396.00
1023.813, 18090.00
1024.922, 18574.00
1026.030, 19561.00
1027.139, 20484.00
1028.247, 21698.00
1029.355, 23171.00
1030.463, 25124.00
1031.571, 27498.00
1032.678, 30976.00
1033.786, 34541.00
1034.893, 39766.00
1036.000, 45954.00
1037.107, 51422.00
1038.214, 57240.00
1039.321, 60033.00
1040.427, 60439.00
1041.533, 57501.00
1042.639, 51815.00
1043.745, 44726.00
1044.851, 38374.00
1045.957, 32717.00
1047.062, 28394.00
1048.168, 25270.00
1049.273, 22890.00
1050.378, 21343.00
1051.482, 20180.00
1052.587, 19036.00
1053.692, 18140.00
1054.796, 17789.00
1055.900, 17180.00
1057.004, 16865.00
1058.108, 16662.00
1059.212, 16392.00
1060.315, 16274.00
1061.418, 16175.00
1062.522, 15999.40
1063.625, 15845.00
1064.728, 15787.00
1065.830, 15649.00
1066.933, 15623.00
1068.035, 15460.00
1069.137, 15423.00
1070.239, 15396.68
1071.341, 15453.00
1072.443, 15433.00
1073.545, 15503.00
1074.646, 15640.00
1075.747, 15884.00
1076.848, 16275.00
1077.949, 16667.00
1079.050, 17313.00
1080.150, 17770.00
1081.251, 18059.00
1082.351, 18054.00
1083.451, 17524.00
1084.551, 17276.00
1085.651, 17128.00
1086.750, 16661.46
1087.850, 16696.00
1088.949, 15944.00
1090.048, 15529.00
1091.147, 15185.00
1092.246, 15043.00
1093.345, 14826.00
1094.443, 14868.00
1095.541, 14698.00
1096.639, 14830.00
1097.737, 14979.00
1098.835, 14811.00
1099.933, 14782.00
1101.030, 14720.00
1102.128, 14741.00
1103.225, 14830.00
1104.322, 14840.00
1105.419, 14838.00
1106.515, 14634.00
1107.612, 14775.00
1108.708, 14692.00
1109.804, 14716.00
1110.900, 14822.00
1111.996, 14892.00
1113.092, 14756.00
1114.187, 14876.00
1115.283, 14715.00
1116.378, 14839.00
1117.473, 14997.00
1118.568, 14895.00
1119.662, 15046.00
1120.757, 14946.00
1121.851, 14897.00
1122.946, 15110.00
1124.040, 15003.00
1125.134, 14812.00
1126.227, 14945.00
1127.321, 14924.00
1128.414, 14960.00
1129.508, 14966.00
1130.601, 14847.00
1131.693, 14915.37
1132.786, 14898.00
1133.879, 14946.00
1134.971, 14952.00
1136.064, 14946.00
1137.156, 14935.00
1138.248, 15118.00
1139.339, 14950.00
1140.431, 15077.00
1141.522, 14891.00
1142.614, 15046.00
1143.705, 15000.00
1144.796, 14926.00
1145.887, 15026.00
1146.977, 15142.00
1148.068, 14939.00
1149.158, 15118.00
1150.248, 15037.00
1151.338, 14915.00
1152.428, 15104.00
1153.518, 14951.00
1154.607, 15030.00
1155.696, 15135.00
1156.785, 15272.00
1157.874, 15282.13
1158.963, 15131.00
1160.052, 15317.00
1161.141, 15190.00
1162.229, 15190.00
1163.317, 15193.00
1164.405, 15101.00
1165.493, 15141.31
1166.581, 15194.00
1167.668, 15173.00
1168.756, 15254.00
1169.843, 15297.00
1170.930, 15271.00
1172.017, 15348.00
1173.103, 15319.00
1174.190, 15272.00
1175.276, 15175.00
1176.363, 15349.00
1177.449, 15313.00
1178.535, 15279.00
1179.620, 15348.00
1180.706, 15303.00
1181.791, 15378.00
1182.877, 15302.00
1183.962, 15466.00
1185.047, 15248.00
1186.131, 15375.00
1187.216, 15339.00
1188.300, 15368.00
1189.385, 15376.00
1190.469, 15368.77
1191.553, 15293.00
1192.637, 15376.00
1193.720, 15341.00
1194.804, 15348.00
1195.887, 15414.00
1196.970, 15423.00
1198.053, 15323.00
1199.136, 15532.00
1200.219, 15537.00
1201.301, 15453.00
1202.383, 15555.00
1203.465, 15511.00
1204.547, 15552.00
1205.629, 15446.00
1206.711, 15472.00
1207.792, 15546.00
1208.874, 15548.00
1209.955, 15567.00
1211.036, 15596.15
1212.117, 15572.00
1213.198, 15634.00
1214.278, 15629.40
1215.359, 15664.00
1216.439, 15611.00
1217.519, 15670.00
1218.599, 15637.00
1219.678, 15673.00
1220.758, 15741.00
1221.837, 15724.00
1222.917, 15777.95
1223.996, 15780.00
1225.075, 15811.00
1226.153, 15785.00
1227.232, 15733.00
1228.310, 15758.00
1229.389, 15803.00
1230.467, 15697.00
1231.545, 15925.00
1232.622, 15799.00
1233.700, 16010.00
1234.777, 15851.00
1235.855, 15786.00
1236.932, 15836.00
1238.009, 15953.00
1239.086, 15885.00
1240.162, 16021.00
1241.239, 16038.00
1242.315, 15942.00
1243.391, 16027.00
1244.467, 15939.00
1245.543, 15873.00
1246.619, 15859.00
1247.694, 15878.00
1248.769, 15870.81
1249.844, 16035.00
1250.919, 15932.00
1251.994, 15965.00
1253.069, 16028.00
1254.144, 15942.00
1255.218, 15793.00
1256.292, 15970.00
1257.366, 15898.00
1258.440, 15900.00
1259.514, 15954.00
1260.587, 16048.00
1261.661, 16025.66
1262.734, 16084.00
1263.807, 16051.00
1264.880, 16095.00
1265.952, 16165.00
1267.025, 16177.00
1268.097, 16038.00
1269.170, 16230.00
1270.242, 16144.00
1271.314, 16145.00
1272.385, 16245.00
1273.457, 16122.00
1274.528, 16149.00
1275.600, 16317.00
1276.671, 16390.00
1277.742, 16357.00
1278.812, 16287.00
1279.883, 16319.00
1280.954, 16288.00
1282.024, 16348.00
1283.094, 16288.00
1284.164, 16318.00
1285.234, 16325.00
1286.303, 16378.00
1287.373, 16386.05
1288.442, 16403.95
1289.511, 16426.00
1290.580, 16439.00
1291.649, 16469.00
1292.718, 16511.00
1293.786, 16529.00
1294.855, 16448.00
1295.923, 16478.00
1296.991, 16474.25
1298.059, 16560.00
1299.126, 16480.00
1300.194, 16651.00
1301.261, 16619.00
1302.328, 16531.00
1303.395, 16533.00
1304.462, 16633.00
1305.529, 16722.00
1306.596, 16727.00
1307.662, 16730.00
1308.728, 16781.63
1309.794, 16759.00
1310.860, 16819.00
1311.926, 16796.00
1312.991, 16767.00
1314.057, 16783.00
1315.122, 16808.00
1316.187, 16796.00
1317.252, 16838.00
1318.317, 16889.00
1319.381, 16974.00
1320.446, 16862.00
1321.510, 16901.84
1322.574, 16808.00
1323.638, 16886.00
1324.702, 16898.00
1325.766, 16977.00
1326.829, 16986.10
1327.892, 17012.00
1328.956, 17016.00
1330.019, 16973.00
1331.081, 16998.00
1332.144, 17006.00
1333.206, 17165.00
1334.269, 16966.00
1335.331, 17166.00
1336.393, 17121.00
1337.455, 17105.00
1338.516, 17255.00
1339.578, 17066.00
1340.639, 17171.00
1341.701, 17346.00
1342.762, 17087.00
1343.822, 17229.00
1344.883, 17219.00
1345.944, 17179.00
1347.004, 17119.00
1348.064, 17097.00
1349.124, 17294.00
1350.184, 17293.00
1351.244, 17251.00
1352.304, 17365.00
1353.363, 17172.00
1354.422, 17313.00
1355.481, 17266.00
1356.540, 17392.00
1357.599, 17396.00
1358.657, 17369.00
1359.716, 17424.00
1360.774, 17171.00
1361.832, 17477.00
1362.890, 17364.00
1363.948, 17175.00
1365.006, 17323.00
1366.063, 17351.00
1367.120, 17605.00
1368.178, 17420.00
1369.234, 17534.00
1370.291, 17384.00
1371.348, 17469.00
1372.404, 17450.00
1373.461, 17369.00
1374.517, 17364.00
1375.573, 17558.00
1376.629, 17602.00
1377.684, 17446.00
1378.740, 17576.00
1379.795, 17496.00
1380.850, 17610.00
1381.905, 17531.00
1382.960, 17721.00
1384.015, 17573.00
1385.070, 17605.00
1386.124, 17509.00
1387.178, 17570.00
1388.232, 17569.00
1389.286, 17673.00
1390.340, 17650.00
1391.393, 17716.00
1392.447, 17621.00
1393.500, 17847.00
1394.553, 17746.00
1395.606, 17818.00
1396.659, 17846.00
1397.711, 17842.00
1398.764, 17716.00
1399.816, 17705.00
1400.868, 17684.00
1401.920, 17950.00
1402.972, 17881.00
1404.023, 17733.00
1405.075, 18036.00
1406.126, 17881.00
1407.177, 17976.00
1408.228, 17928.00
1409.279, 17800.00
1410.330, 17726.00
1411.380, 17837.00
1412.431, 17950.00
1413.481, 17936.00
1414.531, 18084.00
1415.580, 17948.00
1416.630, 18069.00
1417.680, 18185.00
1418.729, 18119.00
1419.778, 18069.00
1420.827, 17979.00
1421.876, 17984.00
1422.925, 18233.00
1423.973, 18089.00
1425.022, 18206.00
1426.070, 18260.00
1427.118, 18123.00
1428.166, 18101.00
1429.214, 18212.00
1430.261, 18191.00
1431.309, 18257.00
1432.356, 18291.00
1433.403, 18433.00
1434.450, 18417.00
1435.497, 18392.00
1436.543, 18249.00
1437.590, 18450.00
1438.636, 18431.00
1439.682, 18646.00
1440.728, 18520.00
1441.774, 18548.00
1442.819, 18530.00
1443.865, 18529.00
1444.910, 18520.00
1445.955, 18609.00
1447.000, 18603.00
1448.045, 18600.00
1449.090, 18531.00
1450.134, 18678.00
1451.178, 18662.00
1452.223, 18779.00
1453.267, 18636.00
1454.310, 18544.00
1455.354, 18571.00
1456.398, 18698.00
1457.441, 18635.00
1458.484, 18785.00
1459.527, 18653.00
1460.570, 18641.00
1461.613, 18768.00
1462.655, 18836.00
1463.698, 18775.87
1464.740, 18764.00
1465.782, 18699.00
1466.824, 18735.00
1467.866, 18794.00
1468.907, 18762.00
1469.948, 18682.00
1470.990, 18853.00
1472.031, 18631.00
1473.072, 18618.00
1474.112, 18543.00
1475.153, 18654.00
1476.194, 18828.00
1477.234, 18807.00
1478.274, 18767.00
1479.314, 18682.00
1480.354, 18939.00
1481.393, 18971.00
1482.433, 18648.00
1483.472, 18804.00
1484.511, 18649.00
1485.550, 18906.00
1486.589, 18793.00
1487.628, 18850.00
1488.666, 18831.00
1489.704, 18951.00
1490.743, 18915.00
1491.781, 18873.00
1492.819, 18913.00
1493.856, 18828.00
1494.894, 18888.00
1495.931, 18846.00
1496.968, 18874.00
1498.005, 18835.33
1499.042, 18892.00
1500.079, 18764.00
1501.115, 18848.00
1502.152, 18869.00
1503.188, 18894.43
1504.224, 18995.00
1505.260, 18988.00
1506.296, 19099.00
1507.331, 19070.00
1508.367, 19142.00
1509.402, 19121.00
1510.437, 19105.00
1511.472, 19205.00
1512.507, 19081.00
1513.541, 19114.00
1514.576, 19181.00
1515.610, 19228.00
1516.644, 19100.00
1517.678, 19120.00
1518.712, 19303.00
1519.746, 19214.00
1520.779, 19323.00
1521.813, 19149.00
1522.846, 19087.00
1523.879, 19022.00
1524.912, 19391.00
1525.944, 19389.00
1526.977, 19278.00
1528.009, 19515.00
1529.041, 19325.00
1530.073, 19373.00
1531.105, 19149.00
1532.137, 19356.00
1533.168, 19357.00
1534.200, 19369.00
1535.231, 19596.00
1536.262, 19286.00
1537.293, 19310.00
1538.324, 19417.00
1539.354, 19340.00
1540.385, 19397.00
1541.415, 19293.00
1542.445, 19354.20
1543.475, 19489.00
1544.505, 19465.00
1545.534, 19522.00
1546.564, 19615.00
1547.593, 19491.00
1548.622, 19589.00
1549.651, 19531.00
1550.680, 19465.00
1551.708, 19716.00
1552.737, 19908.00
1553.765, 19807.00
1554.793, 19641.00
1555.821, 19707.00
1556.849, 19559.00
1557.877, 19553.00
1558.904, 19676.00
1559.932, 19796.00
1560.959, 19678.00
1561.986, 19556.00
1563.013, 19677.00
1564.039, 19573.00
1565.066, 19847.00
1566.092, 19714.00
1567.119, 19813.00
1568.145, 19717.00
1569.170, 19887.00
1570.196, 19952.00
##END=



