##NAMES=Jadeite
##RRUFFID=R050220
##IDEAL CHEMISTRY=NaAlSi_2_O_6_
##LOCALITY=Clear Creek, San Benito County, California, USA
##OWNER=RRUFF
##SOURCE=Hatt Yoder
##DESCRIPTION=Aggregate of colorless bladed crystals
##STATUS=The identification of this mineral has been confirmed by X-ray diffraction and chemical analysis
##URL=rruff.info/R050220
##MEASURED CHEMISTRY=Na_1.00_Al_1.00_(Si_0.99_Al_0.01_)_2_O_6_
##PIN_ID=L00822
##ORIENTATION=Laser parallel to (1 0 1). Fiducial mark perpendicular to laser is parallel to -b [0 -1 0]
112.9460, 13222.00
114.1820, 13620.00
115.4170, 13659.00
116.6530, 13761.00
117.8880, 13602.00
119.1230, 13759.00
120.3580, 13900.00
121.5920, 13874.00
122.8270, 14099.00
124.0610, 14246.00
125.2950, 14415.00
126.5290, 14489.00
127.7630, 14668.00
128.9970, 14764.68
130.2300, 14839.02
131.4640, 14994.00
132.6970, 14964.00
133.9300, 15101.00
135.1630, 15156.00
136.3950, 15332.00
137.6280, 15554.00
138.8600, 15907.00
140.0920, 16028.00
141.3240, 16586.00
142.5560, 16902.00
143.7880, 17235.00
145.0190, 17260.71
146.2510, 17502.00
147.4820, 17039.00
148.7130, 16443.00
149.9440, 16180.00
151.1750, 16065.00
152.4050, 15993.00
153.6360, 15733.00
154.8660, 15879.00
156.0960, 15645.00
157.3260, 15884.00
158.5560, 15722.00
159.7850, 15676.00
161.0150, 15575.00
162.2440, 15654.18
163.4730, 15858.00
164.7020, 15879.00
165.9310, 16023.00
167.1590, 16134.00
168.3880, 16088.00
169.6160, 16221.55
170.8440, 16226.00
172.0720, 16288.00
173.3000, 16222.00
174.5280, 16247.54
175.7550, 16260.77
176.9820, 16221.00
178.2100, 16285.00
179.4370, 16252.00
180.6630, 16250.00
181.8900, 16359.00
183.1170, 16390.00
184.3430, 16471.00
185.5690, 16487.00
186.7950, 16673.00
188.0210, 16783.00
189.2470, 16922.00
190.4720, 17370.00
191.6970, 17932.00
192.9230, 18788.00
194.1480, 19040.00
195.3730, 18542.00
196.5970, 18271.00
197.8220, 18470.00
199.0460, 18683.00
200.2700, 19576.00
201.4940, 21165.00
202.7180, 23675.00
203.9420, 25542.00
205.1660, 25206.00
206.3890, 23730.00
207.6120, 21862.00
208.8350, 19977.00
210.0580, 18627.00
211.2810, 17861.00
212.5040, 17652.00
213.7260, 17303.00
214.9480, 17126.00
216.1700, 16998.00
217.3920, 17282.00
218.6140, 17265.00
219.8360, 17239.00
221.0570, 17335.00
222.2790, 17440.00
223.5000, 17497.00
224.7210, 17588.00
225.9410, 17473.00
227.1620, 17447.00
228.3820, 17205.00
229.6030, 17179.00
230.8230, 17339.00
232.0430, 17254.00
233.2630, 17418.00
234.4820, 17457.00
235.7020, 17411.00
236.9210, 17561.00
238.1400, 17332.00
239.3590, 17353.00
240.5780, 17489.00
241.7970, 17507.00
243.0150, 17632.00
244.2340, 17615.00
245.4520, 17737.41
246.6700, 17913.00
247.8880, 18021.00
249.1060, 18322.00
250.3230, 18637.00
251.5400, 18941.00
252.7580, 19571.00
253.9750, 20394.00
255.1920, 21702.00
256.4080, 22717.00
257.6250, 21844.00
258.8410, 20834.00
260.0580, 19489.00
261.2740, 18803.00
262.4900, 18499.00
263.7050, 18227.00
264.9210, 18193.00
266.1360, 18138.00
267.3520, 18167.00
268.5670, 18168.00
269.7820, 18113.00
270.9960, 18188.00
272.2110, 18173.00
273.4250, 18312.00
274.6400, 18304.80
275.8540, 18364.39
277.0680, 18378.00
278.2810, 18430.00
279.4950, 18537.00
280.7090, 18515.00
281.9220, 18534.00
283.1350, 18617.00
284.3480, 18582.00
285.5610, 18767.66
286.7730, 19104.00
287.9860, 19105.00
289.1980, 19342.00
290.4100, 19483.00
291.6220, 19866.00
292.8340, 20069.00
294.0460, 20081.00
295.2570, 20472.00
296.4690, 20282.00
297.6800, 20220.00
298.8910, 20085.00
300.1020, 20144.00
301.3120, 20447.00
302.5230, 20630.00
303.7330, 21216.00
304.9440, 21593.00
306.1540, 22449.00
307.3630, 23519.00
308.5730, 24972.00
309.7830, 25985.00
310.9920, 26264.00
312.2010, 25608.00
313.4100, 24544.00
314.6190, 23486.00
315.8280, 22649.00
317.0370, 21935.00
318.2450, 21355.00
319.4530, 21404.00
320.6610, 21568.00
321.8690, 21785.00
323.0770, 21829.00
324.2850, 22332.00
325.4920, 23335.00
326.6990, 24051.00
327.9060, 25284.00
329.1130, 26038.00
330.3200, 25658.00
331.5270, 24500.00
332.7330, 23121.00
333.9390, 22185.00
335.1450, 21348.00
336.3510, 20934.00
337.5570, 20566.00
338.7630, 20497.00
339.9680, 20411.00
341.1740, 20374.00
342.3790, 20251.00
343.5840, 20410.00
344.7890, 20289.00
345.9930, 20030.00
347.1980, 20324.00
348.4020, 20180.00
349.6060, 20378.00
350.8100, 20419.00
352.0140, 20306.00
353.2180, 20456.00
354.4210, 20651.00
355.6250, 20585.00
356.8280, 20783.00
358.0310, 20966.00
359.2340, 21237.00
360.4360, 21760.00
361.6390, 22238.02
362.8410, 22941.30
364.0430, 23641.00
365.2450, 24596.00
366.4470, 25645.00
367.6490, 26639.00
368.8510, 27940.00
370.0520, 30192.00
371.2530, 32942.00
372.4540, 36753.00
373.6550, 40073.00
374.8560, 42462.00
376.0560, 41960.00
377.2570, 39707.00
378.4570, 36681.00
379.6570, 34068.00
380.8570, 32242.00
382.0570, 30794.00
383.2560, 30416.00
384.4560, 30251.00
385.6550, 30171.00
386.8540, 29773.00
388.0530, 28904.00
389.2520, 28322.00
390.4510, 27259.00
391.6490, 25885.00
392.8470, 24618.00
394.0450, 23706.00
395.2430, 23071.00
396.4410, 22572.00
397.6390, 22327.00
398.8360, 22088.00
400.0340, 21871.00
401.2310, 21713.00
402.4280, 21689.00
403.6250, 21817.00
404.8210, 21743.00
406.0180, 21654.00
407.2140, 21800.00
408.4100, 21798.00
409.6060, 21553.00
410.8020, 21837.00
411.9980, 21775.00
413.1930, 21688.00
414.3890, 21808.00
415.5840, 22159.00
416.7790, 22165.00
417.9740, 22114.00
419.1680, 22459.00
420.3630, 22246.00
421.5570, 22574.00
422.7510, 22649.00
423.9450, 22534.00
425.1390, 22878.00
426.3330, 23112.00
427.5270, 23384.00
428.7200, 24070.00
429.9130, 24189.00
431.1060, 24666.00
432.2990, 24858.00
433.4920, 25063.00
434.6840, 25000.00
435.8770, 24866.00
437.0690, 24432.00
438.2610, 24236.00
439.4530, 23777.00
440.6450, 23510.00
441.8360, 23193.00
443.0280, 22938.80
444.2190, 22635.00
445.4100, 22580.00
446.6010, 22419.00
447.7920, 22362.00
448.9820, 22282.13
450.1730, 22108.00
451.3630, 22151.00
452.5530, 22105.00
453.7430, 22044.88
454.9330, 22184.00
456.1230, 22143.00
457.3120, 22166.00
458.5010, 22298.00
459.6910, 22291.00
460.8800, 22297.00
462.0680, 22263.00
463.2570, 22367.00
464.4460, 22202.00
465.6340, 22336.00
466.8220, 22302.00
468.0100, 22340.00
469.1980, 22543.00
470.3860, 22322.00
471.5730, 22521.00
472.7600, 22502.00
473.9480, 22491.00
475.1350, 22380.00
476.3210, 22543.00
477.5080, 22549.00
478.6950, 22772.00
479.8810, 22518.00
481.0670, 22754.00
482.2530, 22512.00
483.4390, 22577.00
484.6250, 22720.00
485.8100, 22716.00
486.9960, 22898.00
488.1810, 22622.00
489.3660, 22843.00
490.5510, 22818.00
491.7360, 22869.00
492.9200, 22900.00
494.1050, 22764.00
495.2890, 22838.00
496.4730, 22909.00
497.6570, 22839.00
498.8400, 23046.00
500.0240, 23153.00
501.2070, 23093.00
502.3910, 23202.00
503.5740, 23382.00
504.7570, 23565.00
505.9400, 23365.00
507.1220, 23448.00
508.3050, 23371.00
509.4870, 23615.00
510.6690, 23559.00
511.8510, 23687.00
513.0330, 24107.00
514.2140, 24199.00
515.3960, 24407.00
516.5770, 24579.00
517.7580, 24894.00
518.9390, 25146.00
520.1200, 25362.00
521.3010, 25944.00
522.4810, 26551.00
523.6610, 27168.00
524.8420, 27309.00
526.0220, 27113.00
527.2010, 26581.00
528.3810, 25877.00
529.5610, 25375.00
530.7400, 25068.00
531.9190, 24551.00
533.0980, 24462.00
534.2770, 24482.00
535.4560, 24378.00
536.6340, 24473.00
537.8120, 24406.00
538.9910, 24348.00
540.1690, 24125.00
541.3460, 24231.00
542.5240, 24247.00
543.7020, 24147.00
544.8790, 24274.00
546.0560, 24220.00
547.2330, 24419.00
548.4100, 24354.00
549.5870, 24566.00
550.7630, 24570.00
551.9400, 24631.00
553.1160, 24413.00
554.2920, 24726.00
555.4680, 24699.00
556.6440, 24869.00
557.8190, 25080.00
558.9950, 25118.00
560.1700, 25402.00
561.3450, 25213.00
562.5200, 25410.00
563.6950, 25181.00
564.8690, 25117.00
566.0440, 25317.00
567.2180, 25267.00
568.3920, 25358.00
569.5660, 25363.00
570.7400, 25661.00
571.9130, 25888.00
573.0870, 26067.00
574.2600, 26148.00
575.4330, 26233.85
576.6060, 26187.89
577.7790, 26203.00
578.9520, 25963.00
580.1240, 25766.00
581.2960, 25561.00
582.4690, 25523.00
583.6410, 25397.00
584.8120, 25502.00
585.9840, 25412.00
587.1560, 25565.00
588.3270, 25513.00
589.4980, 25561.00
590.6690, 25496.00
591.8400, 25619.00
593.0110, 25399.00
594.1810, 25604.00
595.3510, 25493.00
596.5220, 25469.00
597.6920, 25633.00
598.8610, 25465.00
600.0310, 25628.00
601.2010, 25484.00
602.3700, 25526.00
603.5390, 25720.00
604.7080, 25636.00
605.8770, 25555.00
607.0460, 25557.00
608.2140, 25745.00
609.3830, 25593.00
610.5510, 25649.00
611.7190, 25708.00
612.8870, 25634.00
614.0550, 25768.00
615.2220, 25913.00
616.3900, 25831.00
617.5570, 25917.00
618.7240, 25789.00
619.8910, 25942.00
621.0580, 25938.00
622.2240, 26045.00
623.3910, 26178.00
624.5570, 26050.00
625.7230, 26276.00
626.8890, 26221.00
628.0550, 26276.00
629.2200, 26597.00
630.3860, 26515.00
631.5510, 26323.00
632.7160, 26457.00
633.8810, 26459.00
635.0460, 26574.00
636.2100, 26512.00
637.3750, 26585.00
638.5390, 26443.00
639.7030, 26694.00
640.8670, 26605.00
642.0310, 26505.00
643.1950, 26858.00
644.3580, 26817.00
645.5210, 26858.00
646.6850, 26759.00
647.8480, 26798.00
649.0100, 26811.00
650.1730, 26829.00
651.3350, 26977.00
652.4980, 26984.00
653.6600, 26788.00
654.8220, 26904.00
655.9840, 27076.00
657.1450, 26902.00
658.3070, 26970.00
659.4680, 27078.00
660.6300, 27080.00
661.7910, 26964.00
662.9510, 27004.00
664.1120, 27218.00
665.2730, 27112.00
666.4330, 27238.00
667.5930, 27139.00
668.7530, 27113.00
669.9130, 27358.00
671.0730, 27394.00
672.2320, 27738.00
673.3920, 27402.00
674.5510, 27543.00
675.7100, 27729.00
676.8690, 27894.00
678.0280, 27528.00
679.1860, 27996.00
680.3450, 27986.00
681.5030, 28305.00
682.6610, 28444.00
683.8190, 28525.00
684.9770, 29035.00
686.1340, 29312.00
687.2920, 29479.00
688.4490, 29841.00
689.6060, 30382.00
690.7630, 31177.00
691.9200, 31881.00
693.0760, 33221.00
694.2330, 34592.00
695.3890, 36750.00
696.5450, 38760.00
697.7010, 41148.00
698.8570, 43531.00
700.0130, 44381.00
701.1680, 44294.00
702.3230, 42354.00
703.4780, 39979.00
704.6330, 37526.00
705.7880, 35345.00
706.9430, 33735.00
708.0970, 32476.27
709.2520, 31909.00
710.4060, 31008.00
711.5600, 30425.00
712.7140, 30166.00
713.8670, 29881.00
715.0210, 29634.00
716.1740, 29361.00
717.3270, 29342.00
718.4800, 29193.00
719.6330, 29273.00
720.7860, 29146.00
721.9380, 29118.00
723.0910, 29297.00
724.2430, 29217.00
725.3950, 29315.00
726.5470, 29099.00
727.6980, 29046.00
728.8500, 29055.00
730.0010, 28996.00
731.1530, 29050.00
732.3040, 29126.00
733.4550, 28959.00
734.6050, 29195.00
735.7560, 29118.00
736.9060, 29180.00
738.0560, 29037.00
739.2060, 28992.00
740.3560, 29046.96
741.5060, 29027.22
742.6560, 29154.00
743.8050, 29174.00
744.9540, 29249.00
746.1030, 29411.00
747.2520, 29452.00
748.4010, 29348.00
749.5500, 29120.00
750.6980, 29332.00
751.8460, 29190.00
752.9950, 29494.00
754.1420, 29324.00
755.2900, 29394.00
756.4380, 29605.00
757.5850, 29625.00
758.7330, 29665.00
759.8800, 29514.00
761.0270, 29587.00
762.1730, 29672.41
763.3200, 29739.72
764.4670, 29954.00
765.6130, 30000.00
766.7590, 30160.00
767.9050, 30224.00
769.0510, 30144.00
770.1960, 30030.00
771.3420, 30403.00
772.4870, 30432.00
773.6320, 30795.00
774.7770, 30823.00
775.9220, 31328.00
777.0670, 31683.00
778.2110, 32283.00
779.3560, 32775.00
780.5000, 32468.00
781.6440, 31880.00
782.7880, 31410.00
783.9320, 31270.00
785.0750, 30968.00
786.2180, 30973.00
787.3620, 30553.00
788.5050, 30638.00
789.6480, 30612.00
790.7900, 30670.00
791.9330, 30627.00
793.0750, 30601.00
794.2170, 30406.00
795.3590, 30714.00
796.5010, 30551.00
797.6430, 30515.00
798.7850, 30652.00
799.9260, 30456.00
801.0670, 30847.00
802.2080, 30914.00
803.3490, 30647.00
804.4900, 30753.00
805.6310, 30875.00
806.7710, 30832.00
807.9110, 31022.00
809.0510, 30897.00
810.1910, 30820.00
811.3310, 30841.00
812.4710, 31040.00
813.6100, 31080.00
814.7490, 31049.00
815.8880, 31095.00
817.0270, 31028.00
818.1660, 31020.00
819.3050, 31334.00
820.4430, 31172.00
821.5820, 31336.00
822.7200, 31617.00
823.8580, 31276.00
824.9950, 31522.00
826.1330, 31490.00
827.2710, 31450.00
828.4080, 31231.00
829.5450, 31453.00
830.6820, 31527.00
831.8190, 31530.00
832.9560, 31623.00
834.0920, 31646.00
835.2280, 31894.00
836.3650, 31670.00
837.5010, 31759.00
838.6360, 31999.00
839.7720, 31653.00
840.9080, 31669.00
842.0430, 31838.00
843.1780, 32038.00
844.3130, 32136.00
845.4480, 32131.00
846.5830, 32191.00
847.7170, 32392.00
848.8520, 32237.00
849.9860, 32084.00
851.1200, 32371.00
852.2540, 32688.00
853.3870, 32312.00
854.5210, 32339.00
855.6540, 32483.00
856.7880, 32477.00
857.9210, 32800.00
859.0540, 32644.00
860.1860, 32778.00
861.3190, 32840.00
862.4510, 32664.00
863.5840, 32845.00
864.7160, 32749.00
865.8480, 32865.00
866.9790, 32820.00
868.1110, 32888.00
869.2420, 32816.00
870.3740, 32948.00
871.5050, 32903.00
872.6360, 33069.00
873.7660, 33196.00
874.8970, 32918.00
876.0280, 32940.00
877.1580, 32963.00
878.2880, 33113.00
879.4180, 33242.00
880.5480, 32932.00
881.6770, 33345.00
882.8070, 33178.00
883.9360, 33239.00
885.0650, 33378.00
886.1940, 33186.00
887.3230, 33269.00
888.4520, 33476.00
889.5800, 33229.00
890.7090, 33377.00
891.8370, 33372.00
892.9650, 33573.00
894.0930, 33313.00
895.2200, 33374.00
896.3480, 33430.00
897.4750, 33414.00
898.6020, 33509.00
899.7290, 33621.00
900.8560, 33420.00
901.9830, 33621.00
903.1090, 33574.00
904.2360, 33777.00
905.3620, 33568.00
906.4880, 33709.00
907.6140, 33602.00
908.7400, 33814.00
909.8650, 33655.00
910.9900, 33943.00
912.1160, 33820.00
913.2410, 33864.00
914.3660, 33958.00
915.4900, 33942.00
916.6150, 34068.00
917.7390, 34300.00
918.8640, 34004.00
919.9880, 34144.00
921.1120, 34144.00
922.2350, 33983.00
923.3590, 34276.00
924.4820, 34315.00
925.6060, 34044.00
926.7290, 34357.00
927.8520, 34211.00
928.9740, 34489.00
930.0970, 34233.00
931.2190, 34335.00
932.3420, 34479.00
933.4640, 34666.00
934.5860, 34253.00
935.7080, 34741.00
936.8290, 34463.00
937.9510, 34408.00
939.0720, 34844.00
940.1930, 34577.00
941.3140, 34568.00
942.4350, 34787.00
943.5560, 34926.00
944.6760, 34862.00
945.7960, 34830.00
946.9170, 34927.00
948.0370, 34853.00
949.1560, 35064.00
950.2760, 34981.00
951.3960, 35021.00
952.5150, 35094.00
953.6340, 35100.00
954.7530, 35140.00
955.8720, 35304.00
956.9910, 35113.00
958.1090, 35398.00
959.2280, 35423.00
960.3460, 35393.00
961.4640, 35336.00
962.5820, 35617.00
963.6990, 35502.00
964.8170, 35536.00
965.9340, 35688.00
967.0510, 35504.00
968.1690, 35733.00
969.2850, 35818.00
970.4020, 35861.00
971.5190, 36027.12
972.6350, 35938.00
973.7510, 36232.00
974.8670, 36193.00
975.9830, 36238.00
977.0990, 36548.00
978.2150, 36778.00
979.3300, 37025.00
980.4450, 37347.00
981.5600, 37705.83
982.6750, 38202.00
983.7900, 38566.00
984.9050, 39169.00
986.0190, 39717.00
987.1340, 39032.00
988.2480, 38720.00
989.3620, 38159.00
990.4750, 37901.00
991.5890, 37759.00
992.7020, 37195.00
993.8160, 37116.00
994.9290, 36930.00
996.0420, 37084.00
997.1550, 37076.00
998.2670, 36776.00
999.3800, 36986.00
1000.492, 36891.00
1001.604, 36910.00
1002.716, 36988.00
1003.828, 36925.00
1004.940, 36984.00
1006.051, 37007.91
1007.163, 37024.00
1008.274, 37112.00
1009.385, 37165.00
1010.496, 37300.00
1011.606, 37279.00
1012.717, 37310.00
1013.827, 37438.00
1014.937, 37200.00
1016.047, 37490.00
1017.157, 37854.00
1018.267, 37989.00
1019.377, 37790.00
1020.486, 38119.00
1021.595, 38079.00
1022.704, 38037.00
1023.813, 38428.00
1024.922, 38446.00
1026.030, 38728.40
1027.139, 39368.00
1028.247, 39347.00
1029.355, 39974.00
1030.463, 40460.00
1031.571, 41399.00
1032.678, 42245.00
1033.786, 43276.00
1034.893, 44604.00
1036.000, 46223.00
1037.107, 48080.00
1038.214, 49879.00
1039.321, 50705.00
1040.427, 51055.00
1041.533, 50076.00
1042.639, 48337.00
1043.745, 46448.00
1044.851, 44582.00
1045.957, 42924.00
1047.062, 42036.00
1048.168, 41214.00
1049.273, 40450.00
1050.378, 40354.00
1051.482, 40059.00
1052.587, 39458.00
1053.692, 39691.00
1054.796, 39383.00
1055.900, 39110.00
1057.004, 39247.00
1058.108, 39088.00
1059.212, 39086.00
1060.315, 38935.00
1061.418, 39038.00
1062.522, 39155.00
1063.625, 38859.00
1064.728, 39167.00
1065.830, 39086.00
1066.933, 39218.00
1068.035, 38959.00
1069.137, 39099.00
1070.239, 38866.00
1071.341, 39015.00
1072.443, 39151.00
1073.545, 39081.00
1074.646, 39178.00
1075.747, 39242.00
1076.848, 39411.00
1077.949, 39511.00
1079.050, 39431.00
1080.150, 39564.00
1081.251, 39588.00
1082.351, 39412.00
1083.451, 39366.00
1084.551, 39671.00
1085.651, 39454.00
1086.750, 39422.00
1087.850, 39714.00
1088.949, 39467.00
1090.048, 39504.00
1091.147, 39739.00
1092.246, 39431.00
1093.345, 39461.00
1094.443, 39617.00
1095.541, 39507.00
1096.639, 39814.00
1097.737, 39414.00
1098.835, 39848.00
1099.933, 39835.00
1101.030, 39890.00
1102.128, 39790.00
1103.225, 39758.00
1104.322, 40001.00
1105.419, 39747.00
1106.515, 40004.00
1107.612, 39992.00
1108.708, 40038.00
1109.804, 39929.00
1110.900, 40146.00
1111.996, 39753.00
1113.092, 40109.00
1114.187, 40001.00
1115.283, 40057.00
1116.378, 40378.00
1117.473, 40142.00
1118.568, 40564.00
1119.662, 40664.00
1120.757, 40509.00
1121.851, 40270.00
1122.946, 40329.00
1124.040, 40557.00
1125.134, 40403.00
1126.227, 40667.00
1127.321, 40572.00
1128.414, 40456.00
1129.508, 40747.00
1130.601, 40897.00
1131.693, 40611.00
1132.786, 40775.00
1133.879, 40587.00
1134.971, 40943.00
1136.064, 40900.00
1137.156, 40722.00
1138.248, 40906.00
1139.339, 40822.00
1140.431, 41020.00
1141.522, 40873.00
1142.614, 40950.00
1143.705, 41172.00
1144.796, 40870.00
1145.887, 41268.00
1146.977, 41290.00
1148.068, 40994.00
1149.158, 41173.00
1150.248, 41261.00
1151.338, 41276.00
1152.428, 41358.46
1153.518, 41372.47
1154.607, 41405.00
1155.696, 41379.00
1156.785, 41393.00
1157.874, 41445.17
1158.963, 41475.03
1160.052, 41568.00
1161.141, 41593.00
1162.229, 41669.00
1163.317, 41728.00
1164.405, 41936.00
1165.493, 41634.00
1166.581, 41765.00
1167.668, 41794.00
1168.756, 41638.00
1169.843, 42130.00
1170.930, 42134.00
1172.017, 42055.00
1173.103, 41762.00
1174.190, 42161.00
1175.276, 42375.00
1176.363, 41970.00
1177.449, 42012.00
1178.535, 42047.00
1179.620, 42161.00
1180.706, 42200.00
1181.791, 42307.00
1182.877, 42257.00
1183.962, 42319.02
1185.047, 42386.00
1186.131, 42375.00
1187.216, 42282.00
1188.300, 42330.68
1189.385, 42685.00
1190.469, 42476.00
1191.553, 42675.00
1192.637, 42814.00
1193.720, 42487.00
1194.804, 42670.00
1195.887, 42885.00
1196.970, 43025.00
1198.053, 42664.00
1199.136, 42698.00
1200.219, 42872.00
1201.301, 43009.00
1202.383, 43015.00
1203.465, 43102.28
1204.547, 42911.00
1205.629, 43138.00
1206.711, 42982.00
1207.792, 42975.00
1208.874, 43092.00
1209.955, 43108.00
1211.036, 43195.02
1212.117, 43236.00
1213.198, 43326.00
1214.278, 43336.00
1215.359, 43302.00
1216.439, 43351.70
1217.519, 43306.47
1218.599, 43382.00
1219.678, 43340.00
1220.758, 43364.96
1221.837, 43588.00
1222.917, 43358.00
1223.996, 43642.00
1225.075, 43468.00
1226.153, 43749.00
1227.232, 43832.00
1228.310, 43719.00
1229.389, 44041.00
1230.467, 44054.00
1231.545, 43884.00
1232.622, 43926.00
1233.700, 44149.00
1234.777, 44105.00
1235.855, 44237.00
1236.932, 44035.00
1238.009, 44378.00
1239.086, 44520.00
1240.162, 44125.00
1241.239, 44482.00
1242.315, 44476.00
1243.391, 44183.00
1244.467, 44668.00
1245.543, 44371.00
1246.619, 44243.00
1247.694, 44644.00
1248.769, 44409.00
1249.844, 44494.00
1250.919, 44765.00
1251.994, 44652.00
1253.069, 44682.00
1254.144, 44578.00
1255.218, 44468.00
1256.292, 44818.00
1257.366, 44717.00
1258.440, 44541.00
1259.514, 44922.00
1260.587, 45132.00
1261.661, 45018.00
1262.734, 44869.00
1263.807, 45187.00
1264.880, 45424.00
1265.952, 45102.00
1267.025, 45360.00
1268.097, 45483.00
1269.170, 44992.00
1270.242, 45178.00
1271.314, 45154.00
1272.385, 45168.00
1273.457, 45345.00
1274.528, 45459.00
1275.600, 45569.00
1276.671, 45473.00
1277.742, 45367.00
1278.812, 45680.00
1279.883, 45778.00
1280.954, 45856.00
1282.024, 45538.00
1283.094, 45713.00
1284.164, 45880.00
1285.234, 45746.00
1286.303, 45884.00
1287.373, 45620.00
1288.442, 46066.00
1289.511, 45728.00
1290.580, 46136.00
1291.649, 45913.00
1292.718, 46062.00
1293.786, 46018.00
1294.855, 46071.00
1295.923, 46219.00
1296.991, 46201.00
1298.059, 46173.00
1299.126, 46135.00
1300.194, 46289.00
1301.261, 46259.46
1302.328, 46502.00
1303.395, 46355.00
1304.462, 46570.00
1305.529, 46669.00
1306.596, 46606.00
1307.662, 46718.00
1308.728, 46628.00
1309.794, 46815.00
1310.860, 46785.00
1311.926, 46784.00
1312.991, 46642.00
1314.057, 47003.00
1315.122, 47172.00
1316.187, 47186.00
1317.252, 47153.00
1318.317, 47203.00
1319.381, 47278.00
1320.446, 47040.00
1321.510, 47288.00
1322.574, 47158.00
1323.638, 47106.00
1324.702, 47195.00
1325.766, 47282.00
1326.829, 47282.00
1327.892, 47371.00
1328.956, 47418.32
1330.019, 47392.00
1331.081, 47516.00
1332.144, 47434.00
1333.206, 47435.00
1334.269, 47498.00
1335.331, 47524.00
1336.393, 47506.36
1337.455, 47621.00
1338.516, 47539.00
1339.578, 47607.00
1340.639, 47790.00
1341.701, 48016.00
1342.762, 47850.00
1343.822, 47972.00
1344.883, 47756.00
1345.944, 47852.00
1347.004, 47639.00
1348.064, 47727.39
1349.124, 47936.00
1350.184, 47912.00
1351.244, 48008.00
1352.304, 48167.00
1353.363, 48138.00
1354.422, 48137.00
1355.481, 48429.00
1356.540, 48152.00
1357.599, 48089.00
1358.657, 48311.00
1359.716, 48582.00
1360.774, 48383.00
1361.832, 48128.00
1362.890, 48493.00
1363.948, 48332.00
1365.006, 48592.00
1366.063, 48483.00
1367.120, 48861.00
1368.178, 48671.00
1369.234, 48785.00
1370.291, 48982.00
1371.348, 48782.00
1372.404, 48894.00
1373.461, 48846.00
1374.517, 48898.00
1375.573, 48907.00
1376.629, 49100.00
1377.684, 48979.00
1378.740, 49151.00
1379.795, 49045.00
1380.850, 49231.00
1381.905, 49005.00
1382.960, 49258.00
1384.015, 49076.00
1385.070, 48943.00
1386.124, 49324.00
1387.178, 49138.00
1388.232, 49356.00
1389.286, 49689.00
1390.340, 49679.00
1391.393, 49209.00
1392.447, 49524.00
1393.500, 49436.00
1394.553, 49446.00
1395.606, 49543.00
1396.659, 49581.00
1397.711, 49414.00
1398.764, 49369.00
1399.816, 49446.00
1400.868, 49583.00
1401.920, 49591.00
1402.972, 49718.00
1404.023, 49745.00
1405.075, 49688.00
1406.126, 49787.00
1407.177, 49675.00
1408.228, 49735.00
1409.279, 49602.00
1410.330, 49664.89
1411.380, 50012.00
1412.431, 49812.00
1413.481, 49981.00
1414.531, 50169.00
1415.580, 50036.00
1416.630, 49927.00
1417.680, 50492.00
1418.729, 50105.00
1419.778, 50685.00
1420.827, 50285.00
1421.876, 50267.00
1422.925, 50277.00
1423.973, 50361.00
1425.022, 50546.00
1426.070, 50628.00
1427.118, 50542.00
1428.166, 50773.00
1429.214, 50378.00
1430.261, 50548.00
1431.309, 50586.00
1432.356, 50930.00
1433.403, 50856.00
1434.450, 50965.00
1435.497, 51015.00
1436.543, 50836.00
1437.590, 51029.00
1438.636, 51026.47
1439.682, 51162.00
1440.728, 51209.00
1441.774, 51390.00
1442.819, 51533.00
1443.865, 51663.00
1444.910, 51443.00
1445.955, 51482.00
1447.000, 51799.00
1448.045, 52044.00
1449.090, 51822.00
1450.134, 52051.00
1451.178, 51816.00
1452.223, 52038.00
1453.267, 51939.00
1454.310, 51972.00
1455.354, 51981.00
1456.398, 52025.00
1457.441, 52233.00
1458.484, 52231.00
1459.527, 52220.00
1460.570, 52203.00
1461.613, 52071.00
1462.655, 52288.00
1463.698, 52128.00
1464.740, 52018.00
1465.782, 52138.00
1466.824, 52151.00
1467.866, 51934.00
1468.907, 52307.00
1469.948, 52255.00
1470.990, 52186.00
1472.031, 52062.00
1473.072, 52123.33
1474.112, 52297.00
1475.153, 52331.00
1476.194, 52293.00
1477.234, 52612.00
1478.274, 52190.00
1479.314, 52397.00
1480.354, 52457.00
1481.393, 52583.00
1482.433, 52760.00
1483.472, 52596.00
1484.511, 52752.00
1485.550, 52670.00
1486.589, 52632.00
1487.628, 52917.00
1488.666, 52535.00
1489.704, 52681.00
1490.743, 52881.00
1491.781, 52789.00
1492.819, 52683.00
1493.856, 52829.00
1494.894, 52871.00
1495.931, 52754.00
1496.968, 52646.00
1498.005, 52889.00
1499.042, 52929.00
1500.079, 53069.00
1501.115, 53317.00
1502.152, 53145.00
1503.188, 52962.00
1504.224, 53266.00
1505.260, 53251.00
1506.296, 53302.00
1507.331, 53165.00
1508.367, 53181.91
1509.402, 53103.00
1510.437, 53213.00
1511.472, 53240.00
1512.507, 53477.00
1513.541, 53785.00
1514.576, 53250.00
1515.610, 53533.00
1516.644, 53678.00
1517.678, 53525.00
1518.712, 53537.00
1519.746, 53715.00
1520.779, 53539.00
1521.813, 54088.00
1522.846, 53906.00
1523.879, 53563.00
1524.912, 53477.00
1525.944, 54027.00
1526.977, 53890.00
1528.009, 54306.00
1529.041, 54037.00
1530.073, 53631.00
1531.105, 53965.00
1532.137, 53972.00
1533.168, 54035.00
1534.200, 53882.00
1535.231, 54521.00
1536.262, 54226.00
1537.293, 54267.00
1538.324, 54249.00
1539.354, 53949.00
1540.385, 54239.00
1541.415, 54598.00
1542.445, 54253.00
1543.475, 54454.00
1544.505, 54672.00
1545.534, 54657.00
1546.564, 54702.04
1547.593, 54666.00
1548.622, 54627.00
1549.651, 54622.00
1550.680, 54674.00
1551.708, 54624.00
1552.737, 54906.00
1553.765, 54627.00
1554.793, 54818.00
1555.821, 54859.00
1556.849, 54763.00
1557.877, 54867.00
1558.904, 54729.00
1559.932, 54761.00
1560.959, 54922.00
1561.986, 55227.00
1563.013, 55103.00
1564.039, 54913.00
1565.066, 55283.00
1566.092, 55005.00
1567.119, 55368.00
1568.145, 55274.00
1569.170, 55294.00
1570.196, 55563.00
##END=



