##NAMES=Jadeite
##RRUFFID=R050220
##IDEAL CHEMISTRY=NaAlSi_2_O_6_
##LOCALITY=Clear Creek, San Benito County, California, USA
##OWNER=RRUFF
##SOURCE=Hatt Yoder
##DESCRIPTION=Aggregate of colorless bladed crystals
##STATUS=The identification of this mineral has been confirmed by X-ray diffraction and chemical analysis
##URL=rruff.info/R050220
##MEASURED CHEMISTRY=Na_1.00_Al_1.00_(Si_0.99_Al_0.01_)_2_O_6_
##PIN_ID=L01047
##ORIENTATION=Laser parallel to b* (0 1 0). Fiducial mark perpendicular to laser is parallel to c [0 0 1]
105.5290, 7023.000
106.7660, 7640.000
108.0020, 8112.000
109.2390, 7802.000
110.4750, 7552.000
111.7110, 7502.000
112.9460, 7671.000
114.1820, 7912.000
115.4170, 7891.000
116.6530, 7941.000
117.8880, 7833.000
119.1230, 7883.000
120.3580, 7860.000
121.5920, 7921.000
122.8270, 8022.000
124.0610, 8067.000
125.2950, 8029.000
126.5290, 8126.000
127.7630, 8158.000
128.9970, 8276.000
130.2300, 8462.000
131.4640, 8546.000
132.6970, 8637.000
133.9300, 8667.000
135.1630, 8923.000
136.3950, 9065.000
137.6280, 9480.000
138.8600, 9898.000
140.0920, 10471.00
141.3240, 11281.00
142.5560, 12794.00
143.7880, 14940.00
145.0190, 16262.00
146.2510, 15431.00
147.4820, 13303.00
148.7130, 11577.00
149.9440, 10289.00
151.1750, 9791.000
152.4050, 9481.000
153.6360, 9279.000
154.8660, 9155.000
156.0960, 9077.000
157.3260, 9047.000
158.5560, 9006.621
159.7850, 8936.000
161.0150, 9059.000
162.2440, 9126.000
163.4730, 9281.000
164.7020, 9304.000
165.9310, 9346.672
167.1590, 9229.000
168.3880, 9327.000
169.6160, 9351.000
170.8440, 9262.000
172.0720, 9282.000
173.3000, 9246.000
174.5280, 9218.000
175.7550, 9278.269
176.9820, 9294.672
178.2100, 9399.000
179.4370, 9422.000
180.6630, 9495.000
181.8900, 9587.000
183.1170, 9561.000
184.3430, 9609.000
185.5690, 9801.000
186.7950, 9794.000
188.0210, 9944.000
189.2470, 10271.00
190.4720, 10721.00
191.6970, 11151.00
192.9230, 11900.00
194.1480, 12524.00
195.3730, 12946.00
196.5970, 13619.00
197.8220, 15231.00
199.0460, 17531.00
200.2700, 21357.00
201.4940, 27684.00
202.7180, 37964.00
203.9420, 44882.00
205.1660, 39563.00
206.3890, 30128.00
207.6120, 22738.00
208.8350, 17316.00
210.0580, 14299.00
211.2810, 12165.00
212.5040, 11588.00
213.7260, 10939.00
214.9480, 10741.00
216.1700, 10546.00
217.3920, 10486.00
218.6140, 10667.00
219.8360, 10945.00
221.0570, 11197.00
222.2790, 11740.00
223.5000, 11615.10
224.7210, 12264.00
225.9410, 11423.00
227.1620, 10713.00
228.3820, 10467.00
229.6030, 10082.00
230.8230, 10030.00
232.0430, 9975.000
233.2630, 9972.000
234.4820, 9923.000
235.7020, 10021.00
236.9210, 9918.000
238.1400, 10010.00
239.3590, 9948.000
240.5780, 10047.00
241.7970, 10103.00
243.0150, 10150.00
244.2340, 10274.00
245.4520, 10354.00
246.6700, 10452.00
247.8880, 10462.00
249.1060, 10670.00
250.3230, 11116.00
251.5400, 11301.00
252.7580, 11981.00
253.9750, 12906.00
255.1920, 14197.00
256.4080, 14929.00
257.6250, 14454.00
258.8410, 13153.00
260.0580, 11962.00
261.2740, 11111.00
262.4900, 10672.00
263.7050, 10489.00
264.9210, 10326.00
266.1360, 10350.00
267.3520, 10166.00
268.5670, 10322.00
269.7820, 10286.00
270.9960, 10518.00
272.2110, 10378.00
273.4250, 10509.00
274.6400, 10634.00
275.8540, 10532.00
277.0680, 10492.00
278.2810, 10892.00
279.4950, 10808.00
280.7090, 10913.00
281.9220, 11136.00
283.1350, 11292.00
284.3480, 11494.00
285.5610, 11792.00
286.7730, 12162.00
287.9860, 12631.00
289.1980, 13414.00
290.4100, 13786.00
291.6220, 14541.00
292.8340, 14795.00
294.0460, 14837.00
295.2570, 14397.00
296.4690, 13821.00
297.6800, 13206.00
298.8910, 12710.00
300.1020, 12402.00
301.3120, 12087.00
302.5230, 11921.74
303.7330, 11793.00
304.9440, 11828.00
306.1540, 11830.00
307.3630, 11963.00
308.5730, 12190.00
309.7830, 12250.00
310.9920, 12327.00
312.2010, 12302.00
313.4100, 12176.00
314.6190, 11973.00
315.8280, 11817.00
317.0370, 11472.00
318.2450, 11496.00
319.4530, 11566.00
320.6610, 11379.00
321.8690, 11603.00
323.0770, 11724.00
324.2850, 11832.00
325.4920, 12032.00
326.6990, 12495.00
327.9060, 12712.00
329.1130, 12701.17
330.3200, 12752.00
331.5270, 12488.00
332.7330, 12135.00
333.9390, 11866.00
335.1450, 11650.00
336.3510, 11521.00
337.5570, 11366.00
338.7630, 11323.00
339.9680, 11241.00
341.1740, 11224.08
342.3790, 11212.00
343.5840, 11267.00
344.7890, 11340.00
345.9930, 11419.00
347.1980, 11510.00
348.4020, 11508.00
349.6060, 11577.00
350.8100, 11596.00
352.0140, 11648.00
353.2180, 11737.60
354.4210, 11952.00
355.6250, 11980.00
356.8280, 12118.00
358.0310, 12359.00
359.2340, 12472.00
360.4360, 13010.00
361.6390, 13490.00
362.8410, 14023.00
364.0430, 14921.00
365.2450, 15959.00
366.4470, 17475.00
367.6490, 18898.00
368.8510, 21130.00
370.0520, 24287.00
371.2530, 28068.00
372.4540, 32932.00
373.6550, 37183.00
374.8560, 40106.00
376.0560, 39719.00
377.2570, 36008.00
378.4570, 31349.00
379.6570, 26597.00
380.8570, 23042.00
382.0570, 20431.00
383.2560, 18720.00
384.4560, 17721.00
385.6550, 17010.00
386.8540, 16347.00
388.0530, 15800.00
389.2520, 15182.62
390.4510, 14670.45
391.6490, 14137.00
392.8470, 13761.00
394.0450, 13381.00
395.2430, 13109.00
396.4410, 12756.00
397.6390, 12642.00
398.8360, 12555.00
400.0340, 12520.00
401.2310, 12315.00
402.4280, 12535.00
403.6250, 12375.00
404.8210, 12511.00
406.0180, 12542.00
407.2140, 12579.00
408.4100, 12609.00
409.6060, 12734.64
410.8020, 12869.00
411.9980, 12994.00
413.1930, 13125.00
414.3890, 13226.00
415.5840, 13481.00
416.7790, 13831.00
417.9740, 14014.00
419.1680, 14135.00
420.3630, 14245.00
421.5570, 14328.00
422.7510, 14307.00
423.9450, 14786.00
425.1390, 14767.00
426.3330, 15212.00
427.5270, 15807.18
428.7200, 16413.00
429.9130, 17201.00
431.1060, 18019.00
432.2990, 18806.00
433.4920, 19152.00
434.6840, 19254.00
435.8770, 18658.00
437.0690, 18051.00
438.2610, 17084.00
439.4530, 16209.00
440.6450, 15366.00
441.8360, 14879.00
443.0280, 14345.00
444.2190, 13765.00
445.4100, 13631.00
446.6010, 13363.00
447.7920, 13077.00
448.9820, 12978.00
450.1730, 12879.00
451.3630, 12701.00
452.5530, 12611.00
453.7430, 12645.00
454.9330, 12551.00
456.1230, 12606.00
457.3120, 12581.00
458.5010, 12465.00
459.6910, 12544.00
460.8800, 12459.00
462.0680, 12483.00
463.2570, 12472.00
464.4460, 12565.00
465.6340, 12536.00
466.8220, 12451.00
468.0100, 12530.00
469.1980, 12526.00
470.3860, 12646.00
471.5730, 12636.00
472.7600, 12653.68
473.9480, 12653.00
475.1350, 12605.00
476.3210, 12732.00
477.5080, 12623.00
478.6950, 12743.00
479.8810, 12770.00
481.0670, 12779.47
482.2530, 12813.89
483.4390, 12837.00
484.6250, 12818.00
485.8100, 12805.00
486.9960, 12824.00
488.1810, 12659.00
489.3660, 12764.00
490.5510, 12667.00
491.7360, 12730.00
492.9200, 12751.00
494.1050, 12745.00
495.2890, 12868.00
496.4730, 12882.00
497.6570, 12750.00
498.8400, 12713.00
500.0240, 12786.00
501.2070, 12844.00
502.3910, 12837.00
503.5740, 12921.36
504.7570, 13037.00
505.9400, 13034.00
507.1220, 12982.00
508.3050, 13019.00
509.4870, 12953.00
510.6690, 13312.00
511.8510, 13240.00
513.0330, 13417.00
514.2140, 13386.00
515.3960, 13583.00
516.5770, 14121.00
517.7580, 14321.00
518.9390, 14545.00
520.1200, 15000.00
521.3010, 15750.00
522.4810, 16179.00
523.6610, 17001.00
524.8420, 17274.00
526.0220, 17021.00
527.2010, 16366.00
528.3810, 15605.00
529.5610, 15035.00
530.7400, 14528.69
531.9190, 14116.74
533.0980, 13742.00
534.2770, 13552.00
535.4560, 13374.00
536.6340, 13198.00
537.8120, 13199.00
538.9910, 13304.00
540.1690, 13249.00
541.3460, 13437.00
542.5240, 13217.00
543.7020, 13359.00
544.8790, 13272.00
546.0560, 13416.00
547.2330, 13350.00
548.4100, 13344.00
549.5870, 13289.00
550.7630, 13525.00
551.9400, 13491.00
553.1160, 13642.00
554.2920, 13715.00
555.4680, 13623.00
556.6440, 13639.00
557.8190, 13797.00
558.9950, 14025.00
560.1700, 14078.00
561.3450, 14276.00
562.5200, 14294.00
563.6950, 14550.00
564.8690, 14758.00
566.0440, 15100.00
567.2180, 15675.00
568.3920, 16093.00
569.5660, 17097.00
570.7400, 18034.00
571.9130, 19418.00
573.0870, 21162.00
574.2600, 22903.00
575.4330, 24259.00
576.6060, 24007.00
577.7790, 22550.00
578.9520, 20503.00
580.1240, 18561.00
581.2960, 17276.00
582.4690, 16141.00
583.6410, 15543.00
584.8120, 15139.00
585.9840, 14773.00
587.1560, 14790.00
588.3270, 14571.00
589.4980, 14409.00
590.6690, 14414.00
591.8400, 14296.00
593.0110, 14275.00
594.1810, 14212.00
595.3510, 14107.00
596.5220, 13967.00
597.6920, 13964.00
598.8610, 13823.00
600.0310, 13749.00
601.2010, 13794.00
602.3700, 13873.00
603.5390, 13974.00
604.7080, 13869.00
605.8770, 13723.00
607.0460, 13870.00
608.2140, 13790.00
609.3830, 13921.00
610.5510, 13923.00
611.7190, 13923.00
612.8870, 13853.00
614.0550, 13920.00
615.2220, 13916.00
616.3900, 13865.00
617.5570, 13857.00
618.7240, 13907.00
619.8910, 13927.00
621.0580, 13868.00
622.2240, 14024.00
623.3910, 13968.00
624.5570, 13963.00
625.7230, 14023.00
626.8890, 14003.00
628.0550, 14020.00
629.2200, 14040.82
630.3860, 14068.00
631.5510, 14073.00
632.7160, 13993.00
633.8810, 14014.35
635.0460, 14081.00
636.2100, 14052.00
637.3750, 14203.00
638.5390, 14193.00
639.7030, 14197.00
640.8670, 14272.00
642.0310, 14176.00
643.1950, 14233.00
644.3580, 14256.00
645.5210, 14265.00
646.6850, 14393.00
647.8480, 14397.00
649.0100, 14459.00
650.1730, 14510.90
651.3350, 14382.00
652.4980, 14537.00
653.6600, 14578.00
654.8220, 14484.00
655.9840, 14567.00
657.1450, 14577.00
658.3070, 14447.00
659.4680, 14617.00
660.6300, 14723.00
661.7910, 14883.00
662.9510, 14853.00
664.1120, 14743.00
665.2730, 14818.00
666.4330, 14908.00
667.5930, 15101.00
668.7530, 15134.00
669.9130, 15365.00
671.0730, 15339.00
672.2320, 15339.00
673.3920, 15688.00
674.5510, 15624.00
675.7100, 15804.00
676.8690, 15820.00
678.0280, 16042.00
679.1860, 16233.00
680.3450, 16455.00
681.5030, 16733.00
682.6610, 17162.00
683.8190, 17459.00
684.9770, 18065.00
686.1340, 18709.00
687.2920, 19174.00
688.4490, 20580.00
689.6060, 21791.00
690.7630, 23358.00
691.9200, 25653.00
693.0760, 28881.00
694.2330, 32454.00
695.3890, 37552.00
696.5450, 42930.00
697.7010, 49597.00
698.8570, 55609.00
700.0130, 59765.00
701.1680, 59688.00
702.3230, 55816.00
703.4780, 49541.00
704.6330, 42262.00
705.7880, 35730.00
706.9430, 31134.00
708.0970, 27196.00
709.2520, 24579.00
710.4060, 22813.00
711.5600, 21245.00
712.7140, 20112.00
713.8670, 19241.00
715.0210, 18605.00
716.1740, 17985.00
717.3270, 17651.00
718.4800, 17379.00
719.6330, 17028.00
720.7860, 16864.00
721.9380, 16791.00
723.0910, 16578.00
724.2430, 16522.00
725.3950, 16411.00
726.5470, 16165.00
727.6980, 16271.00
728.8500, 16153.00
730.0010, 15966.00
731.1530, 15965.00
732.3040, 16052.00
733.4550, 15922.00
734.6050, 15887.00
735.7560, 15800.00
736.9060, 15774.00
738.0560, 15889.00
739.2060, 15789.00
740.3560, 15861.00
741.5060, 15961.00
742.6560, 15927.00
743.8050, 15868.00
744.9540, 15896.00
746.1030, 15757.00
747.2520, 15646.00
748.4010, 15688.20
749.5500, 15902.00
750.6980, 15794.00
751.8460, 15879.00
752.9950, 16079.00
754.1420, 15850.00
755.2900, 15848.00
756.4380, 15876.00
757.5850, 16044.00
758.7330, 15905.00
759.8800, 15832.00
761.0270, 15940.00
762.1730, 15846.00
763.3200, 15931.00
764.4670, 15981.00
765.6130, 15936.71
766.7590, 16046.00
767.9050, 15955.00
769.0510, 16012.00
770.1960, 16126.00
771.3420, 16079.00
772.4870, 16052.00
773.6320, 16247.00
774.7770, 16327.00
775.9220, 16224.00
777.0670, 16332.00
778.2110, 16571.00
779.3560, 16534.00
780.5000, 16477.00
781.6440, 16394.00
782.7880, 16308.00
783.9320, 16295.00
785.0750, 16222.00
786.2180, 16272.00
787.3620, 16207.76
788.5050, 16195.00
789.6480, 16114.00
790.7900, 16131.00
791.9330, 16049.00
793.0750, 16126.00
794.2170, 16223.00
795.3590, 15983.00
796.5010, 16069.00
797.6430, 16126.00
798.7850, 16027.00
799.9260, 16089.00
801.0670, 16112.00
802.2080, 16096.00
803.3490, 16239.00
804.4900, 16198.00
805.6310, 16101.00
806.7710, 15950.00
807.9110, 16264.00
809.0510, 16198.00
810.1910, 16312.00
811.3310, 16097.00
812.4710, 16301.00
813.6100, 16281.00
814.7490, 16347.00
815.8880, 16321.00
817.0270, 16346.01
818.1660, 16321.00
819.3050, 16354.00
820.4430, 16390.00
821.5820, 16351.00
822.7200, 16350.00
823.8580, 16367.00
824.9950, 16434.00
826.1330, 16526.00
827.2710, 16560.00
828.4080, 16472.00
829.5450, 16390.00
830.6820, 16443.00
831.8190, 16658.00
832.9560, 16498.00
834.0920, 16576.00
835.2280, 16515.00
836.3650, 16517.91
837.5010, 16596.00
838.6360, 16605.00
839.7720, 16653.00
840.9080, 16794.00
842.0430, 16744.00
843.1780, 16891.00
844.3130, 16720.00
845.4480, 16893.00
846.5830, 16716.00
847.7170, 16804.00
848.8520, 16932.00
849.9860, 16800.00
851.1200, 17093.00
852.2540, 17008.00
853.3870, 16992.00
854.5210, 16915.00
855.6540, 17007.00
856.7880, 16913.00
857.9210, 16870.00
859.0540, 17004.00
860.1860, 16911.00
861.3190, 17035.00
862.4510, 16989.00
863.5840, 17256.00
864.7160, 17078.00
865.8480, 17206.00
866.9790, 17122.00
868.1110, 17194.00
869.2420, 17211.00
870.3740, 17219.00
871.5050, 17263.00
872.6360, 17287.61
873.7660, 17314.00
874.8970, 17359.00
876.0280, 17385.00
877.1580, 17414.00
878.2880, 17343.00
879.4180, 17311.00
880.5480, 17592.00
881.6770, 17527.00
882.8070, 17744.00
883.9360, 17806.00
885.0650, 17664.00
886.1940, 17903.00
887.3230, 17903.00
888.4520, 17848.00
889.5800, 17799.00
890.7090, 17891.00
891.8370, 17776.00
892.9650, 17734.00
894.0930, 17505.00
895.2200, 17761.00
896.3480, 17528.00
897.4750, 17532.00
898.6020, 17687.00
899.7290, 17507.00
900.8560, 17429.00
901.9830, 17359.00
903.1090, 17432.00
904.2360, 17502.00
905.3620, 17458.00
906.4880, 17493.00
907.6140, 17574.00
908.7400, 17503.00
909.8650, 17471.00
910.9900, 17379.00
912.1160, 17530.00
913.2410, 17474.00
914.3660, 17473.00
915.4900, 17510.00
916.6150, 17482.00
917.7390, 17540.25
918.8640, 17574.00
919.9880, 17606.00
921.1120, 17651.00
922.2350, 17673.63
923.3590, 17783.00
924.4820, 17715.00
925.6060, 17773.00
926.7290, 17775.00
927.8520, 17665.00
928.9740, 17727.00
930.0970, 17919.00
931.2190, 17812.00
932.3420, 17679.00
933.4640, 17895.00
934.5860, 17876.00
935.7080, 17815.00
936.8290, 17910.00
937.9510, 17963.00
939.0720, 17804.00
940.1930, 17962.00
941.3140, 17965.00
942.4350, 18015.00
943.5560, 17997.00
944.6760, 18109.00
945.7960, 18067.00
946.9170, 18106.00
948.0370, 18004.00
949.1560, 18285.00
950.2760, 18334.00
951.3960, 18253.00
952.5150, 18296.00
953.6340, 18307.00
954.7530, 18441.00
955.8720, 18273.00
956.9910, 18465.00
958.1090, 18514.00
959.2280, 18422.00
960.3460, 18437.00
961.4640, 18704.00
962.5820, 18763.00
963.6990, 18765.00
964.8170, 18659.00
965.9340, 18959.00
967.0510, 19095.00
968.1690, 19230.00
969.2850, 19233.00
970.4020, 19317.00
971.5190, 19592.00
972.6350, 19974.00
973.7510, 20051.00
974.8670, 20238.00
975.9830, 20697.00
977.0990, 21223.00
978.2150, 21641.00
979.3300, 22376.00
980.4450, 23523.00
981.5600, 24833.00
982.6750, 26277.00
983.7900, 28422.00
984.9050, 30568.00
986.0190, 32488.00
987.1340, 33367.00
988.2480, 33469.00
989.3620, 33178.00
990.4750, 33199.00
991.5890, 33353.00
992.7020, 32924.00
993.8160, 31757.00
994.9290, 30054.00
996.0420, 27939.00
997.1550, 26020.00
998.2670, 24520.00
999.3800, 23438.00
1000.492, 22199.00
1001.604, 21775.00
1002.716, 20985.00
1003.828, 20834.00
1004.940, 20315.00
1006.051, 20184.00
1007.163, 19972.00
1008.274, 19861.00
1009.385, 19680.00
1010.496, 19479.00
1011.606, 19608.00
1012.717, 19388.00
1013.827, 19588.00
1014.937, 19465.00
1016.047, 19445.00
1017.157, 19553.00
1018.267, 19471.00
1019.377, 19440.00
1020.486, 19520.00
1021.595, 19598.00
1022.704, 19645.00
1023.813, 19871.00
1024.922, 19954.00
1026.030, 20202.00
1027.139, 20431.00
1028.247, 20770.00
1029.355, 20896.00
1030.463, 21396.00
1031.571, 21759.00
1032.678, 22765.00
1033.786, 23708.48
1034.893, 24441.00
1036.000, 26314.00
1037.107, 27875.00
1038.214, 29608.00
1039.321, 30906.00
1040.427, 31772.00
1041.533, 31027.00
1042.639, 29692.00
1043.745, 27665.00
1044.851, 25716.00
1045.957, 24371.00
1047.062, 23207.00
1048.168, 22295.00
1049.273, 21724.00
1050.378, 21314.00
1051.482, 20967.00
1052.587, 20613.00
1053.692, 20375.13
1054.796, 20279.00
1055.900, 20031.00
1057.004, 20042.00
1058.108, 20032.00
1059.212, 19753.00
1060.315, 19901.00
1061.418, 19853.00
1062.522, 19849.00
1063.625, 19943.00
1064.728, 19913.00
1065.830, 19852.00
1066.933, 19973.00
1068.035, 19920.00
1069.137, 19850.00
1070.239, 19848.00
1071.341, 19808.00
1072.443, 19803.00
1073.545, 19816.27
1074.646, 19792.00
1075.747, 19921.00
1076.848, 19945.00
1077.949, 20135.00
1079.050, 20133.00
1080.150, 20342.00
1081.251, 20336.00
1082.351, 20379.00
1083.451, 20381.00
1084.551, 20198.00
1085.651, 20072.00
1086.750, 19869.00
1087.850, 20015.00
1088.949, 19851.00
1090.048, 19707.00
1091.147, 19878.00
1092.246, 19912.00
1093.345, 19805.00
1094.443, 19825.00
1095.541, 19820.00
1096.639, 19865.00
1097.737, 19873.54
1098.835, 19905.00
1099.933, 19895.00
1101.030, 19890.00
1102.128, 19857.00
1103.225, 19960.00
1104.322, 19826.00
1105.419, 19882.00
1106.515, 19934.00
1107.612, 19838.00
1108.708, 20033.00
1109.804, 19856.00
1110.900, 20036.00
1111.996, 20077.00
1113.092, 19887.00
1114.187, 20102.00
1115.283, 20050.00
1116.378, 20206.00
1117.473, 20118.00
1118.568, 20228.00
1119.662, 20034.00
1120.757, 19964.00
1121.851, 20114.00
1122.946, 20419.00
1124.040, 20342.00
1125.134, 20378.00
1126.227, 20211.00
1127.321, 20046.00
1128.414, 20180.00
1129.508, 20262.00
1130.601, 20261.00
1131.693, 20147.00
1132.786, 20151.00
1133.879, 20220.00
1134.971, 20233.00
1136.064, 20393.00
1137.156, 20308.00
1138.248, 20444.00
1139.339, 20357.00
1140.431, 20178.00
1141.522, 20368.00
1142.614, 20397.00
1143.705, 20354.00
1144.796, 20447.00
1145.887, 20449.99
1146.977, 20435.00
1148.068, 20469.00
1149.158, 20472.00
1150.248, 20369.00
1151.338, 20462.00
1152.428, 20557.00
1153.518, 20395.00
1154.607, 20517.00
1155.696, 20766.00
1156.785, 20520.00
1157.874, 20489.00
1158.963, 20727.00
1160.052, 20566.00
1161.141, 20671.00
1162.229, 20538.00
1163.317, 20770.00
1164.405, 20757.00
1165.493, 20904.00
1166.581, 20961.00
1167.668, 20874.00
1168.756, 20683.00
1169.843, 20779.00
1170.930, 20645.00
1172.017, 20929.00
1173.103, 20852.00
1174.190, 20771.00
1175.276, 20696.00
1176.363, 20842.00
1177.449, 21010.00
1178.535, 20718.00
1179.620, 21028.00
1180.706, 20784.00
1181.791, 20856.00
1182.877, 20845.00
1183.962, 20876.00
1185.047, 20831.00
1186.131, 20997.00
1187.216, 20971.00
1188.300, 21018.00
1189.385, 20942.00
1190.469, 20881.00
1191.553, 20996.00
1192.637, 21018.00
1193.720, 21037.25
1194.804, 20917.00
1195.887, 21046.00
1196.970, 21058.00
1198.053, 20945.00
1199.136, 21016.00
1200.219, 21197.00
1201.301, 21079.00
1202.383, 21186.00
1203.465, 21300.00
1204.547, 21193.00
1205.629, 21176.00
1206.711, 21230.00
1207.792, 21189.00
1208.874, 21155.00
1209.955, 21232.00
1211.036, 21178.00
1212.117, 21299.00
1213.198, 21618.00
1214.278, 21228.00
1215.359, 21451.00
1216.439, 21441.00
1217.519, 21260.00
1218.599, 21450.00
1219.678, 21350.00
1220.758, 21400.00
1221.837, 21360.00
1222.917, 21281.00
1223.996, 21330.00
1225.075, 21249.00
1226.153, 21347.00
1227.232, 21557.00
1228.310, 21388.00
1229.389, 21359.00
1230.467, 21611.00
1231.545, 21462.00
1232.622, 21450.00
1233.700, 21578.00
1234.777, 21394.00
1235.855, 21488.00
1236.932, 21424.00
1238.009, 21540.00
1239.086, 21620.00
1240.162, 21691.00
1241.239, 21706.74
1242.315, 21478.00
1243.391, 21638.00
1244.467, 21708.00
1245.543, 21566.00
1246.619, 21725.00
1247.694, 21792.00
1248.769, 21822.00
1249.844, 21777.00
1250.919, 21680.00
1251.994, 21847.00
1253.069, 21673.00
1254.144, 21941.00
1255.218, 21773.00
1256.292, 21833.00
1257.366, 21826.00
1258.440, 21665.00
1259.514, 21819.00
1260.587, 21569.00
1261.661, 21909.00
1262.734, 21878.00
1263.807, 21874.00
1264.880, 21953.00
1265.952, 21914.00
1267.025, 21838.00
1268.097, 21995.00
1269.170, 21957.00
1270.242, 21875.00
1271.314, 21978.00
1272.385, 21969.00
1273.457, 21972.00
1274.528, 21877.00
1275.600, 21959.84
1276.671, 21946.00
1277.742, 22090.00
1278.812, 22128.00
1279.883, 22210.00
1280.954, 22530.00
1282.024, 22376.25
1283.094, 22188.00
1284.164, 22279.00
1285.234, 22016.00
1286.303, 22090.00
1287.373, 22064.00
1288.442, 22222.00
1289.511, 22324.00
1290.580, 22208.00
1291.649, 22257.00
1292.718, 22225.00
1293.786, 22108.00
1294.855, 22474.00
1295.923, 22302.00
1296.991, 22372.00
1298.059, 22311.00
1299.126, 22488.00
1300.194, 22341.00
1301.261, 22449.00
1302.328, 22348.00
1303.395, 22393.00
1304.462, 22489.00
1305.529, 22503.00
1306.596, 22440.00
1307.662, 22440.00
1308.728, 22526.00
1309.794, 22654.00
1310.860, 22613.00
1311.926, 22721.00
1312.991, 22517.00
1314.057, 22831.00
1315.122, 22593.00
1316.187, 22787.00
1317.252, 22539.00
1318.317, 22988.00
1319.381, 23327.00
1320.446, 23086.17
1321.510, 23767.00
1322.574, 22895.00
1323.638, 22573.00
1324.702, 22637.00
1325.766, 22777.00
1326.829, 22952.00
1327.892, 22873.00
1328.956, 22869.00
1330.019, 22804.00
1331.081, 22828.00
1332.144, 22905.00
1333.206, 22960.00
1334.269, 23017.00
1335.331, 23106.00
1336.393, 23205.00
1337.455, 23161.80
1338.516, 23186.00
1339.578, 23082.00
1340.639, 23068.00
1341.701, 23055.00
1342.762, 22958.00
1343.822, 23068.00
1344.883, 23157.00
1345.944, 23037.00
1347.004, 23124.00
1348.064, 23349.00
1349.124, 23193.00
1350.184, 23067.00
1351.244, 23262.00
1352.304, 23332.00
1353.363, 23156.00
1354.422, 23319.00
1355.481, 23032.00
1356.540, 23406.00
1357.599, 23371.00
1358.657, 23252.00
1359.716, 23453.00
1360.774, 23319.00
1361.832, 23469.00
1362.890, 23264.00
1363.948, 23278.00
1365.006, 23468.00
1366.063, 23312.00
1367.120, 23379.00
1368.178, 23340.00
1369.234, 23515.00
1370.291, 23347.00
1371.348, 23531.00
1372.404, 23391.00
1373.461, 23531.00
1374.517, 23666.00
1375.573, 23542.00
1376.629, 23334.00
1377.684, 23434.00
1378.740, 23513.00
1379.795, 23675.00
1380.850, 23512.00
1381.905, 23854.00
1382.960, 23472.00
1384.015, 23486.00
1385.070, 23604.00
1386.124, 23725.00
1387.178, 23708.00
1388.232, 23615.00
1389.286, 23751.00
1390.340, 23791.00
1391.393, 23776.00
1392.447, 23816.36
1393.500, 23653.00
1394.553, 23779.00
1395.606, 23774.00
1396.659, 23727.00
1397.711, 23832.50
1398.764, 23681.00
1399.816, 23907.00
1400.868, 23984.00
1401.920, 23924.00
1402.972, 23922.00
1404.023, 23936.00
1405.075, 24080.00
1406.126, 24108.00
1407.177, 24119.00
1408.228, 23865.00
1409.279, 24188.00
1410.330, 24060.00
1411.380, 23952.00
1412.431, 24213.00
1413.481, 24199.00
1414.531, 23900.00
1415.580, 24098.00
1416.630, 24000.00
1417.680, 24085.00
1418.729, 24078.00
1419.778, 23955.00
1420.827, 24113.00
1421.876, 24196.00
1422.925, 24208.00
1423.973, 24145.00
1425.022, 24204.00
1426.070, 24348.00
1427.118, 24366.00
1428.166, 24440.00
1429.214, 24440.41
1430.261, 24322.00
1431.309, 24392.00
1432.356, 24274.00
1433.403, 24237.00
1434.450, 24336.00
1435.497, 24355.00
1436.543, 24290.00
1437.590, 24336.00
1438.636, 24606.00
1439.682, 24461.00
1440.728, 24531.00
1441.774, 24625.00
1442.819, 24478.00
1443.865, 24386.00
1444.910, 24504.00
1445.955, 24500.00
1447.000, 24511.00
1448.045, 24479.00
1449.090, 24526.00
1450.134, 24689.00
1451.178, 24682.00
1452.223, 24751.00
1453.267, 24645.00
1454.310, 24684.00
1455.354, 24722.00
1456.398, 24694.00
1457.441, 24584.00
1458.484, 24606.00
1459.527, 25050.00
1460.570, 24558.00
1461.613, 24909.00
1462.655, 24826.00
1463.698, 24640.00
1464.740, 24831.00
1465.782, 24841.00
1466.824, 24952.00
1467.866, 24866.00
1468.907, 24723.00
1469.948, 24816.00
1470.990, 24960.00
1472.031, 24891.00
1473.072, 25026.00
1474.112, 24945.00
1475.153, 25072.00
1476.194, 25318.00
1477.234, 25030.00
1478.274, 25015.00
1479.314, 24968.00
1480.354, 25309.00
1481.393, 24971.00
1482.433, 25053.00
1483.472, 25180.00
1484.511, 24955.00
1485.550, 25087.00
1486.589, 25169.00
1487.628, 25106.00
1488.666, 25026.00
1489.704, 25301.00
1490.743, 25267.00
1491.781, 25210.00
1492.819, 25119.00
1493.856, 25152.00
1494.894, 25238.00
1495.931, 25193.00
1496.968, 25194.00
1498.005, 25324.00
1499.042, 25237.00
1500.079, 25339.00
1501.115, 25405.00
1502.152, 25355.00
1503.188, 25328.00
1504.224, 25285.00
1505.260, 25379.00
1506.296, 25410.00
1507.331, 25412.00
1508.367, 25355.00
1509.402, 25479.00
1510.437, 25412.37
1511.472, 25524.00
1512.507, 25430.00
1513.541, 25404.00
1514.576, 25538.00
1515.610, 25425.00
1516.644, 25522.00
1517.678, 25620.00
1518.712, 25786.00
1519.746, 25563.00
1520.779, 25626.00
1521.813, 25596.00
1522.846, 25693.00
1523.879, 25761.00
1524.912, 25731.77
1525.944, 25694.00
1526.977, 25682.00
1528.009, 25825.00
1529.041, 25765.00
1530.073, 25849.00
1531.105, 25866.00
1532.137, 25848.00
1533.168, 25840.00
1534.200, 25876.00
1535.231, 25903.16
1536.262, 25820.00
1537.293, 25925.00
1538.324, 25961.00
1539.354, 25798.00
1540.385, 25942.00
1541.415, 25930.00
1542.445, 25721.00
1543.475, 26020.00
1544.505, 25803.00
1545.534, 25923.00
1546.564, 25996.00
1547.593, 25886.00
1548.622, 26083.00
1549.651, 26083.00
1550.680, 25947.00
1551.708, 26053.00
1552.737, 26204.00
1553.765, 26110.00
1554.793, 26060.00
1555.821, 26009.00
1556.849, 25987.25
1557.877, 26001.00
1558.904, 26016.00
1559.932, 26089.00
1560.959, 26188.00
1561.986, 25983.00
1563.013, 26057.00
1564.039, 26068.00
1565.066, 26231.00
1566.092, 26345.00
1567.119, 26333.00
1568.145, 26023.00
1569.170, 26082.00
1570.196, 26320.00
##END=



