##NAMES=Jadeite
##RRUFFID=R050220
##IDEAL CHEMISTRY=NaAlSi_2_O_6_
##LOCALITY=Clear Creek, San Benito County, California, USA
##OWNER=RRUFF
##SOURCE=Hatt Yoder
##DESCRIPTION=Aggregate of colorless bladed crystals
##STATUS=The identification of this mineral has been confirmed by X-ray diffraction and chemical analysis
##URL=rruff.info/R050220
##MEASURED CHEMISTRY=Na_1.00_Al_1.00_(Si_0.99_Al_0.01_)_2_O_6_
##PIN_ID=L00896
##ORIENTATION=Laser parallel to a* (1 0 0). Fiducial mark perpendicular to laser is parallel to b [0 1 0]
112.9460, 7913.000
114.1820, 8227.000
115.4170, 8348.000
116.6530, 8368.000
117.8880, 8309.000
119.1230, 8354.000
120.3580, 8425.946
121.5920, 8355.000
122.8270, 8612.000
124.0610, 8745.000
125.2950, 8808.000
126.5290, 9038.000
127.7630, 9133.000
128.9970, 9359.000
130.2300, 9256.000
131.4640, 9146.000
132.6970, 8960.000
133.9300, 8757.000
135.1630, 8824.000
136.3950, 8860.000
137.6280, 9049.000
138.8600, 9327.000
140.0920, 9671.000
141.3240, 10003.00
142.5560, 10313.00
143.7880, 10712.00
145.0190, 10841.00
146.2510, 10935.00
147.4820, 10482.00
148.7130, 9974.000
149.9440, 9399.000
151.1750, 9113.000
152.4050, 9000.000
153.6360, 8803.000
154.8660, 8824.000
156.0960, 8839.000
157.3260, 8663.000
158.5560, 8790.000
159.7850, 8773.000
161.0150, 8832.000
162.2440, 8692.000
163.4730, 8945.000
164.7020, 8995.000
165.9310, 8863.000
167.1590, 8912.000
168.3880, 8969.000
169.6160, 8939.000
170.8440, 8899.000
172.0720, 9062.000
173.3000, 8894.000
174.5280, 8933.000
175.7550, 8948.000
176.9820, 9053.000
178.2100, 9055.000
179.4370, 9170.000
180.6630, 9245.000
181.8900, 9363.729
183.1170, 9515.000
184.3430, 9656.000
185.5690, 9839.000
186.7950, 10006.00
188.0210, 10299.00
189.2470, 11080.00
190.4720, 11752.00
191.6970, 12684.00
192.9230, 13657.00
194.1480, 14171.00
195.3730, 14078.00
196.5970, 14178.00
197.8220, 14874.00
199.0460, 16260.00
200.2700, 18017.00
201.4940, 20666.00
202.7180, 23045.00
203.9420, 25071.00
205.1660, 24808.00
206.3890, 22753.00
207.6120, 19765.00
208.8350, 16581.00
210.0580, 13733.00
211.2810, 12027.00
212.5040, 10898.00
213.7260, 10430.00
214.9480, 10129.00
216.1700, 9908.000
217.3920, 10059.00
218.6140, 10038.00
219.8360, 10172.00
221.0570, 10278.00
222.2790, 10466.00
223.5000, 10356.00
224.7210, 10321.00
225.9410, 10067.00
227.1620, 9795.000
228.3820, 9793.000
229.6030, 9463.000
230.8230, 9587.000
232.0430, 9620.000
233.2630, 9587.000
234.4820, 9540.000
235.7020, 9432.000
236.9210, 9470.000
238.1400, 9508.000
239.3590, 9507.587
240.5780, 9629.000
241.7970, 9647.000
243.0150, 9828.000
244.2340, 10022.00
245.4520, 10274.17
246.6700, 10827.00
247.8880, 11030.00
249.1060, 11391.00
250.3230, 12019.00
251.5400, 12998.00
252.7580, 13851.00
253.9750, 14734.00
255.1920, 15462.00
256.4080, 15604.00
257.6250, 14922.00
258.8410, 13542.00
260.0580, 12269.00
261.2740, 11145.00
262.4900, 10492.00
263.7050, 10109.00
264.9210, 9936.000
266.1360, 10047.00
267.3520, 9850.000
268.5670, 9832.000
269.7820, 9804.000
270.9960, 9824.000
272.2110, 9980.000
273.4250, 10020.00
274.6400, 9850.000
275.8540, 10102.00
277.0680, 9921.000
278.2810, 10117.00
279.4950, 10289.00
280.7090, 10426.00
281.9220, 10644.00
283.1350, 10822.00
284.3480, 11092.00
285.5610, 11330.00
286.7730, 11599.00
287.9860, 11981.00
289.1980, 12329.00
290.4100, 12884.00
291.6220, 13147.00
292.8340, 13458.00
294.0460, 13591.00
295.2570, 13603.00
296.4690, 13679.00
297.6800, 14130.00
298.8910, 14316.00
300.1020, 14968.00
301.3120, 15835.00
302.5230, 16917.00
303.7330, 18269.29
304.9440, 19726.00
306.1540, 21671.00
307.3630, 23699.00
308.5730, 26021.00
309.7830, 27043.00
310.9920, 26940.00
312.2010, 25760.00
313.4100, 23414.00
314.6190, 20979.00
315.8280, 18952.00
317.0370, 17454.00
318.2450, 16621.00
319.4530, 16576.00
320.6610, 16622.00
321.8690, 17018.00
323.0770, 17793.00
324.2850, 18747.00
325.4920, 20033.00
326.6990, 21285.00
327.9060, 22029.00
329.1130, 22282.00
330.3200, 21753.00
331.5270, 19630.00
332.7330, 17515.00
333.9390, 15597.00
335.1450, 14272.00
336.3510, 13151.00
337.5570, 12554.00
338.7630, 12245.00
339.9680, 12004.00
341.1740, 11688.00
342.3790, 11540.82
343.5840, 11524.00
344.7890, 11361.00
345.9930, 11383.00
347.1980, 11523.00
348.4020, 11509.00
349.6060, 11623.00
350.8100, 11559.00
352.0140, 11828.00
353.2180, 12101.00
354.4210, 12291.00
355.6250, 12672.00
356.8280, 13311.00
358.0310, 13729.00
359.2340, 14714.00
360.4360, 15827.00
361.6390, 17524.00
362.8410, 19589.00
364.0430, 22226.00
365.2450, 24985.00
366.4470, 27873.00
367.6490, 30622.00
368.8510, 34088.00
370.0520, 38374.00
371.2530, 43504.00
372.4540, 48981.00
373.6550, 53606.00
374.8560, 55835.00
376.0560, 55331.00
377.2570, 51713.00
378.4570, 47928.00
379.6570, 42353.00
380.8570, 37311.00
382.0570, 34388.00
383.2560, 32840.00
384.4560, 32238.00
385.6550, 31282.00
386.8540, 30028.00
388.0530, 28144.00
389.2520, 26138.00
390.4510, 23614.00
391.6490, 21177.00
392.8470, 18916.00
394.0450, 16922.00
395.2430, 15605.00
396.4410, 14424.00
397.6390, 13712.00
398.8360, 13294.00
400.0340, 13019.00
401.2310, 12674.00
402.4280, 12562.00
403.6250, 12466.00
404.8210, 12361.00
406.0180, 12304.72
407.2140, 12245.00
408.4100, 12226.00
409.6060, 12248.00
410.8020, 12257.00
411.9980, 12310.00
413.1930, 12417.00
414.3890, 12487.00
415.5840, 12597.00
416.7790, 12825.00
417.9740, 12994.00
419.1680, 13061.00
420.3630, 13418.00
421.5570, 13669.00
422.7510, 14211.00
423.9450, 14761.00
425.1390, 15380.00
426.3330, 16024.00
427.5270, 16779.00
428.7200, 17472.00
429.9130, 18247.00
431.1060, 19046.00
432.2990, 19609.00
433.4920, 19757.00
434.6840, 19788.00
435.8770, 19255.00
437.0690, 18381.00
438.2610, 17332.00
439.4530, 16438.00
440.6450, 15557.00
441.8360, 14794.43
443.0280, 13966.00
444.2190, 13567.00
445.4100, 13048.00
446.6010, 12773.00
447.7920, 12606.00
448.9820, 12404.00
450.1730, 12279.00
451.3630, 12193.00
452.5530, 11964.00
453.7430, 11899.00
454.9330, 11807.00
456.1230, 11950.00
457.3120, 11866.00
458.5010, 11901.00
459.6910, 11685.00
460.8800, 11824.00
462.0680, 11772.00
463.2570, 11710.00
464.4460, 11727.00
465.6340, 11629.00
466.8220, 11670.00
468.0100, 11742.00
469.1980, 11634.00
470.3860, 11789.00
471.5730, 11751.00
472.7600, 11841.00
473.9480, 11825.00
475.1350, 11819.26
476.3210, 11765.00
477.5080, 11802.00
478.6950, 11857.00
479.8810, 11879.00
481.0670, 11911.17
482.2530, 11804.00
483.4390, 11901.00
484.6250, 11920.00
485.8100, 11794.00
486.9960, 11899.00
488.1810, 11890.00
489.3660, 11895.00
490.5510, 11888.00
491.7360, 11865.00
492.9200, 11987.00
494.1050, 11889.00
495.2890, 12090.00
496.4730, 12132.00
497.6570, 12006.00
498.8400, 12120.00
500.0240, 12254.00
501.2070, 12142.00
502.3910, 12370.00
503.5740, 12248.00
504.7570, 12460.00
505.9400, 12492.00
507.1220, 12745.00
508.3050, 12845.00
509.4870, 12990.00
510.6690, 13276.00
511.8510, 13652.00
513.0330, 13961.00
514.2140, 14561.00
515.3960, 15021.00
516.5770, 16018.00
517.7580, 16720.00
518.9390, 17591.00
520.1200, 18935.00
521.3010, 19766.00
522.4810, 21187.00
523.6610, 21891.00
524.8420, 22112.00
526.0220, 21456.00
527.2010, 20103.00
528.3810, 18480.00
529.5610, 17114.00
530.7400, 15817.00
531.9190, 14733.00
533.0980, 14232.00
534.2770, 13905.00
535.4560, 13405.00
536.6340, 13150.00
537.8120, 12968.00
538.9910, 12961.00
540.1690, 12831.00
541.3460, 12767.17
542.5240, 12683.00
543.7020, 12693.00
544.8790, 12702.00
546.0560, 12761.00
547.2330, 12807.00
548.4100, 12798.00
549.5870, 12860.00
550.7630, 13001.00
551.9400, 13028.00
553.1160, 13249.00
554.2920, 13325.00
555.4680, 13718.00
556.6440, 13647.00
557.8190, 13867.50
558.9950, 14014.85
560.1700, 14064.00
561.3450, 14149.00
562.5200, 14096.00
563.6950, 13886.00
564.8690, 13734.00
566.0440, 13850.00
567.2180, 13831.00
568.3920, 14011.00
569.5660, 14197.00
570.7400, 14378.00
571.9130, 14813.00
573.0870, 15227.00
574.2600, 15588.00
575.4330, 15796.00
576.6060, 15685.00
577.7790, 15293.00
578.9520, 14988.00
580.1240, 14729.00
581.2960, 14191.00
582.4690, 13966.00
583.6410, 13887.00
584.8120, 13946.00
585.9840, 14026.00
587.1560, 14264.00
588.3270, 14254.00
589.4980, 14107.00
590.6690, 14185.00
591.8400, 13918.00
593.0110, 13662.00
594.1810, 13349.00
595.3510, 13217.00
596.5220, 13057.00
597.6920, 13120.00
598.8610, 12885.00
600.0310, 13017.00
601.2010, 13087.00
602.3700, 12928.00
603.5390, 13031.00
604.7080, 12844.00
605.8770, 12843.00
607.0460, 13028.00
608.2140, 13072.00
609.3830, 13088.08
610.5510, 13105.18
611.7190, 13050.00
612.8870, 13066.00
614.0550, 12947.00
615.2220, 13024.00
616.3900, 13261.00
617.5570, 13051.00
618.7240, 13118.00
619.8910, 13087.00
621.0580, 13367.00
622.2240, 13237.00
623.3910, 13407.00
624.5570, 13191.00
625.7230, 13388.00
626.8890, 13499.00
628.0550, 13306.00
629.2200, 13297.00
630.3860, 13279.00
631.5510, 13368.00
632.7160, 13352.36
633.8810, 13327.00
635.0460, 13359.00
636.2100, 13256.00
637.3750, 13172.00
638.5390, 13407.00
639.7030, 13394.00
640.8670, 13237.00
642.0310, 13433.00
643.1950, 13513.00
644.3580, 13662.00
645.5210, 13623.00
646.6850, 13567.00
647.8480, 13653.00
649.0100, 13700.00
650.1730, 13689.00
651.3350, 13851.00
652.4980, 13649.00
653.6600, 13664.00
654.8220, 13675.00
655.9840, 13748.00
657.1450, 13772.00
658.3070, 13782.00
659.4680, 13747.00
660.6300, 13801.00
661.7910, 13774.00
662.9510, 13947.00
664.1120, 13983.00
665.2730, 14052.00
666.4330, 14065.00
667.5930, 14063.00
668.7530, 14235.00
669.9130, 14188.00
671.0730, 14319.00
672.2320, 14457.00
673.3920, 14529.00
674.5510, 14707.00
675.7100, 14808.00
676.8690, 14995.23
678.0280, 15116.00
679.1860, 15383.00
680.3450, 15684.00
681.5030, 15881.00
682.6610, 16443.00
683.8190, 16916.00
684.9770, 17751.00
686.1340, 18481.00
687.2920, 19411.00
688.4490, 20852.00
689.6060, 22625.00
690.7630, 25050.00
691.9200, 27946.00
693.0760, 31813.00
694.2330, 35875.00
695.3890, 41023.00
696.5450, 46122.00
697.7010, 51126.00
698.8570, 55300.00
700.0130, 57070.00
701.1680, 55698.00
702.3230, 51962.00
703.4780, 45781.00
704.6330, 39465.00
705.7880, 33989.00
706.9430, 29403.00
708.0970, 25922.00
709.2520, 23308.00
710.4060, 21486.00
711.5600, 20029.00
712.7140, 19135.00
713.8670, 18091.00
715.0210, 17650.00
716.1740, 17036.00
717.3270, 16764.00
718.4800, 16326.00
719.6330, 16169.00
720.7860, 15929.00
721.9380, 15713.00
723.0910, 15434.00
724.2430, 15335.00
725.3950, 15310.00
726.5470, 15342.00
727.6980, 15020.00
728.8500, 15258.00
730.0010, 15032.00
731.1530, 15137.00
732.3040, 14964.00
733.4550, 14971.00
734.6050, 14933.00
735.7560, 14975.00
736.9060, 14892.00
738.0560, 15003.00
739.2060, 14768.00
740.3560, 14749.00
741.5060, 14876.00
742.6560, 14720.00
743.8050, 14928.00
744.9540, 14924.00
746.1030, 14951.00
747.2520, 14966.00
748.4010, 14873.00
749.5500, 14791.00
750.6980, 14817.00
751.8460, 14843.00
752.9950, 14890.00
754.1420, 14942.00
755.2900, 14973.85
756.4380, 14998.00
757.5850, 15042.00
758.7330, 15070.00
759.8800, 15083.00
761.0270, 15187.00
762.1730, 15158.00
763.3200, 15187.00
764.4670, 15457.00
765.6130, 15450.00
766.7590, 15561.00
767.9050, 15593.00
769.0510, 15953.00
770.1960, 16075.00
771.3420, 16510.00
772.4870, 17020.00
773.6320, 17601.00
774.7770, 18292.00
775.9220, 19027.00
777.0670, 20153.00
778.2110, 20912.00
779.3560, 21289.00
780.5000, 20880.00
781.6440, 20034.00
782.7880, 19217.00
783.9320, 18192.00
785.0750, 17236.00
786.2180, 16507.00
787.3620, 16016.00
788.5050, 15880.00
789.6480, 15642.00
790.7900, 15472.00
791.9330, 15385.00
793.0750, 15215.00
794.2170, 15369.00
795.3590, 15335.00
796.5010, 15322.00
797.6430, 15107.00
798.7850, 15201.00
799.9260, 15130.00
801.0670, 15216.00
802.2080, 15206.00
803.3490, 15124.00
804.4900, 15162.00
805.6310, 15140.00
806.7710, 15146.26
807.9110, 15140.00
809.0510, 15178.00
810.1910, 15186.00
811.3310, 15183.00
812.4710, 15133.00
813.6100, 15220.00
814.7490, 15244.00
815.8880, 15246.59
817.0270, 15310.02
818.1660, 15297.00
819.3050, 15334.00
820.4430, 15408.00
821.5820, 15305.00
822.7200, 15226.00
823.8580, 15370.00
824.9950, 15338.00
826.1330, 15515.00
827.2710, 15314.00
828.4080, 15321.00
829.5450, 15366.00
830.6820, 15430.00
831.8190, 15475.00
832.9560, 15401.00
834.0920, 15471.87
835.2280, 15427.00
836.3650, 15538.00
837.5010, 15576.00
838.6360, 15650.00
839.7720, 15515.00
840.9080, 15575.00
842.0430, 15638.00
843.1780, 15687.00
844.3130, 15700.84
845.4480, 15682.00
846.5830, 15708.00
847.7170, 15724.24
848.8520, 15688.00
849.9860, 15779.00
851.1200, 15816.00
852.2540, 15848.57
853.3870, 15844.00
854.5210, 15909.00
855.6540, 15916.65
856.7880, 15968.33
857.9210, 15968.00
859.0540, 16074.00
860.1860, 16120.00
861.3190, 16176.00
862.4510, 16168.00
863.5840, 16162.32
864.7160, 16200.00
865.8480, 16123.00
866.9790, 16053.00
868.1110, 16091.00
869.2420, 16148.00
870.3740, 16092.00
871.5050, 16067.00
872.6360, 16220.00
873.7660, 16023.00
874.8970, 16123.00
876.0280, 16149.00
877.1580, 16010.00
878.2880, 16046.00
879.4180, 16227.00
880.5480, 16303.00
881.6770, 16269.00
882.8070, 16321.00
883.9360, 16320.20
885.0650, 16254.00
886.1940, 16293.00
887.3230, 16312.00
888.4520, 16248.00
889.5800, 16463.00
890.7090, 16318.00
891.8370, 16279.00
892.9650, 16401.00
894.0930, 16580.00
895.2200, 16448.00
896.3480, 16331.00
897.4750, 16337.00
898.6020, 16500.00
899.7290, 16281.00
900.8560, 16420.00
901.9830, 16152.00
903.1090, 16340.00
904.2360, 16320.00
905.3620, 16204.00
906.4880, 16310.00
907.6140, 16364.00
908.7400, 16412.00
909.8650, 16388.00
910.9900, 16567.00
912.1160, 16281.00
913.2410, 16372.00
914.3660, 16514.00
915.4900, 16355.00
916.6150, 16424.00
917.7390, 16387.00
918.8640, 16694.00
919.9880, 16392.00
921.1120, 16531.00
922.2350, 16485.00
923.3590, 16448.00
924.4820, 16493.00
925.6060, 16382.00
926.7290, 16446.48
927.8520, 16582.00
928.9740, 16558.00
930.0970, 16583.00
931.2190, 16720.00
932.3420, 16559.00
933.4640, 16696.00
934.5860, 16525.00
935.7080, 16741.00
936.8290, 16552.00
937.9510, 16739.00
939.0720, 16781.00
940.1930, 16708.00
941.3140, 16869.00
942.4350, 16839.00
943.5560, 16739.00
944.6760, 16829.00
945.7960, 16697.00
946.9170, 16842.00
948.0370, 17049.00
949.1560, 16873.00
950.2760, 17003.00
951.3960, 16973.00
952.5150, 16927.00
953.6340, 17055.00
954.7530, 16973.00
955.8720, 17024.79
956.9910, 17018.00
958.1090, 17117.00
959.2280, 17217.00
960.3460, 17371.00
961.4640, 17255.00
962.5820, 17168.00
963.6990, 17236.00
964.8170, 17542.00
965.9340, 17463.00
967.0510, 17529.00
968.1690, 17576.00
969.2850, 17478.00
970.4020, 17734.00
971.5190, 17700.00
972.6350, 17826.00
973.7510, 17978.00
974.8670, 18175.00
975.9830, 18412.00
977.0990, 18741.00
978.2150, 19054.00
979.3300, 19827.00
980.4450, 20094.00
981.5600, 21098.00
982.6750, 21738.00
983.7900, 22455.00
984.9050, 23271.00
986.0190, 23405.00
987.1340, 23019.00
988.2480, 22284.00
989.3620, 21511.00
990.4750, 20519.00
991.5890, 19956.00
992.7020, 19422.00
993.8160, 19338.00
994.9290, 19035.00
996.0420, 18682.00
997.1550, 18718.00
998.2670, 18656.00
999.3800, 18658.00
1000.492, 18710.31
1001.604, 18549.00
1002.716, 18668.00
1003.828, 18694.00
1004.940, 18332.00
1006.051, 18295.00
1007.163, 18296.00
1008.274, 18524.00
1009.385, 18552.00
1010.496, 18475.00
1011.606, 18380.00
1012.717, 18623.00
1013.827, 18774.00
1014.937, 18697.00
1016.047, 19052.00
1017.157, 18773.00
1018.267, 19196.00
1019.377, 19477.00
1020.486, 19788.00
1021.595, 20048.00
1022.704, 20460.78
1023.813, 20474.00
1024.922, 21294.00
1026.030, 21713.00
1027.139, 22129.00
1028.247, 23129.00
1029.355, 24075.00
1030.463, 25261.00
1031.571, 27232.00
1032.678, 29230.00
1033.786, 31888.00
1034.893, 35243.00
1036.000, 38368.00
1037.107, 41545.00
1038.214, 44127.00
1039.321, 45502.00
1040.427, 45145.00
1041.533, 43073.00
1042.639, 39689.00
1043.745, 35685.00
1044.851, 31884.00
1045.957, 28782.00
1047.062, 26542.00
1048.168, 24769.00
1049.273, 23471.00
1050.378, 22641.00
1051.482, 21945.00
1052.587, 20922.00
1053.692, 20782.00
1054.796, 20364.00
1055.900, 19930.00
1057.004, 20007.00
1058.108, 19728.00
1059.212, 19488.00
1060.315, 19616.00
1061.418, 19299.00
1062.522, 19248.00
1063.625, 19168.00
1064.728, 19068.00
1065.830, 19119.00
1066.933, 19001.00
1068.035, 19118.00
1069.137, 19092.00
1070.239, 18950.00
1071.341, 19035.00
1072.443, 18907.00
1073.545, 19067.00
1074.646, 19216.00
1075.747, 18941.00
1076.848, 19082.00
1077.949, 19132.00
1079.050, 19205.00
1080.150, 19259.97
1081.251, 19271.72
1082.351, 19283.00
1083.451, 19220.00
1084.551, 19128.00
1085.651, 18961.74
1086.750, 18973.00
1087.850, 18677.00
1088.949, 18781.00
1090.048, 18626.00
1091.147, 18686.00
1092.246, 18641.00
1093.345, 18765.00
1094.443, 18783.00
1095.541, 18619.00
1096.639, 18728.00
1097.737, 18880.00
1098.835, 18640.00
1099.933, 18770.00
1101.030, 18805.00
1102.128, 18635.00
1103.225, 18705.00
1104.322, 18779.00
1105.419, 18877.00
1106.515, 18837.00
1107.612, 18804.00
1108.708, 18845.00
1109.804, 18846.00
1110.900, 18827.00
1111.996, 18862.00
1113.092, 18696.00
1114.187, 19030.00
1115.283, 18869.00
1116.378, 19094.00
1117.473, 19184.00
1118.568, 19187.00
1119.662, 19392.00
1120.757, 19386.00
1121.851, 19653.00
1122.946, 19559.22
1124.040, 19493.21
1125.134, 19475.00
1126.227, 19381.78
1127.321, 19300.00
1128.414, 19243.00
1129.508, 19209.00
1130.601, 19144.00
1131.693, 19004.00
1132.786, 19032.00
1133.879, 18969.00
1134.971, 19266.00
1136.064, 19190.65
1137.156, 19194.00
1138.248, 19146.00
1139.339, 19198.00
1140.431, 18971.00
1141.522, 19027.00
1142.614, 19095.00
1143.705, 19251.00
1144.796, 19040.00
1145.887, 19262.00
1146.977, 19317.00
1148.068, 19164.00
1149.158, 19137.00
1150.248, 19165.00
1151.338, 19137.00
1152.428, 19136.87
1153.518, 19163.00
1154.607, 19114.00
1155.696, 19134.00
1156.785, 19101.79
1157.874, 19208.00
1158.963, 19111.00
1160.052, 19297.00
1161.141, 19370.00
1162.229, 19434.00
1163.317, 19209.00
1164.405, 19400.00
1165.493, 19659.00
1166.581, 19308.00
1167.668, 19193.00
1168.756, 19521.00
1169.843, 19521.00
1170.930, 19605.00
1172.017, 19529.00
1173.103, 19520.00
1174.190, 19479.00
1175.276, 19432.00
1176.363, 19467.19
1177.449, 19467.59
1178.535, 19543.00
1179.620, 19535.00
1180.706, 19595.00
1181.791, 19626.00
1182.877, 19589.00
1183.962, 19641.00
1185.047, 19738.00
1186.131, 19661.00
1187.216, 19742.00
1188.300, 19675.00
1189.385, 19673.00
1190.469, 19558.00
1191.553, 19762.00
1192.637, 19669.00
1193.720, 19545.00
1194.804, 19739.00
1195.887, 19752.00
1196.970, 19599.00
1198.053, 19726.00
1199.136, 19786.00
1200.219, 19553.00
1201.301, 19896.00
1202.383, 19889.00
1203.465, 19640.00
1204.547, 20090.00
1205.629, 19736.00
1206.711, 19920.00
1207.792, 19562.00
1208.874, 19933.00
1209.955, 19969.00
1211.036, 20029.00
1212.117, 19837.00
1213.198, 19951.00
1214.278, 20011.00
1215.359, 20039.00
1216.439, 19930.00
1217.519, 20032.00
1218.599, 19991.00
1219.678, 19993.41
1220.758, 20016.00
1221.837, 20012.00
1222.917, 20016.73
1223.996, 20017.61
1225.075, 20021.00
1226.153, 20033.00
1227.232, 20048.00
1228.310, 20108.00
1229.389, 20137.00
1230.467, 20333.00
1231.545, 20145.00
1232.622, 20162.00
1233.700, 20454.00
1234.777, 20097.00
1235.855, 20220.00
1236.932, 20386.00
1238.009, 20355.00
1239.086, 20305.00
1240.162, 20339.00
1241.239, 20384.00
1242.315, 20361.00
1243.391, 20376.00
1244.467, 20287.00
1245.543, 20320.00
1246.619, 20333.00
1247.694, 20362.00
1248.769, 20450.00
1249.844, 20411.52
1250.919, 20295.00
1251.994, 20413.00
1253.069, 20406.00
1254.144, 20496.00
1255.218, 20492.00
1256.292, 20404.00
1257.366, 20547.00
1258.440, 20449.00
1259.514, 20473.00
1260.587, 20652.00
1261.661, 20529.00
1262.734, 20733.00
1263.807, 20580.00
1264.880, 20691.00
1265.952, 20647.00
1267.025, 20709.00
1268.097, 20890.00
1269.170, 20577.00
1270.242, 20905.00
1271.314, 20584.00
1272.385, 20804.00
1273.457, 20945.00
1274.528, 20813.00
1275.600, 20824.00
1276.671, 20846.00
1277.742, 20779.73
1278.812, 20793.00
1279.883, 20746.00
1280.954, 20793.00
1282.024, 20814.00
1283.094, 20990.00
1284.164, 20959.00
1285.234, 20784.00
1286.303, 20920.00
1287.373, 21121.00
1288.442, 20908.00
1289.511, 21060.00
1290.580, 20930.00
1291.649, 20947.00
1292.718, 21125.00
1293.786, 21017.00
1294.855, 21007.00
1295.923, 21009.00
1296.991, 21034.00
1298.059, 21170.00
1299.126, 21144.00
1300.194, 21085.00
1301.261, 21291.00
1302.328, 21287.00
1303.395, 21266.00
1304.462, 21294.00
1305.529, 21258.12
1306.596, 21321.55
1307.662, 21265.00
1308.728, 21364.00
1309.794, 21501.00
1310.860, 21360.00
1311.926, 21441.00
1312.991, 21384.00
1314.057, 21461.00
1315.122, 21346.00
1316.187, 21362.00
1317.252, 21460.00
1318.317, 21608.00
1319.381, 21456.00
1320.446, 21557.00
1321.510, 21660.00
1322.574, 21591.00
1323.638, 21393.00
1324.702, 21448.00
1325.766, 21501.00
1326.829, 21554.00
1327.892, 21608.00
1328.956, 21572.00
1330.019, 21570.00
1331.081, 21444.00
1332.144, 21491.00
1333.206, 21482.39
1334.269, 21479.00
1335.331, 21548.00
1336.393, 21668.00
1337.455, 21725.00
1338.516, 21782.00
1339.578, 21659.00
1340.639, 21823.00
1341.701, 21693.00
1342.762, 21671.00
1343.822, 21845.00
1344.883, 21688.00
1345.944, 21750.00
1347.004, 21768.00
1348.064, 21836.00
1349.124, 21836.00
1350.184, 21819.00
1351.244, 21827.12
1352.304, 21803.00
1353.363, 21795.00
1354.422, 21811.00
1355.481, 21814.00
1356.540, 21823.00
1357.599, 21878.00
1358.657, 21987.00
1359.716, 21778.00
1360.774, 21883.00
1361.832, 21788.00
1362.890, 21954.00
1363.948, 21933.00
1365.006, 21930.00
1366.063, 21814.00
1367.120, 21991.00
1368.178, 22044.00
1369.234, 21953.00
1370.291, 21972.00
1371.348, 22066.00
1372.404, 22145.00
1373.461, 22101.00
1374.517, 21991.00
1375.573, 22054.00
1376.629, 22087.00
1377.684, 22150.00
1378.740, 22228.00
1379.795, 22163.00
1380.850, 22296.00
1381.905, 22264.00
1382.960, 22201.00
1384.015, 22032.00
1385.070, 22225.00
1386.124, 22225.00
1387.178, 22143.00
1388.232, 22224.00
1389.286, 22235.00
1390.340, 22143.00
1391.393, 22191.89
1392.447, 22310.00
1393.500, 22159.00
1394.553, 22207.00
1395.606, 22158.00
1396.659, 22294.00
1397.711, 22247.00
1398.764, 22258.00
1399.816, 22113.00
1400.868, 22346.00
1401.920, 22334.00
1402.972, 22349.00
1404.023, 22432.00
1405.075, 22466.00
1406.126, 22572.00
1407.177, 22282.00
1408.228, 22289.00
1409.279, 22405.00
1410.330, 22524.00
1411.380, 22463.00
1412.431, 22515.00
1413.481, 22352.00
1414.531, 22459.00
1415.580, 22429.00
1416.630, 22563.00
1417.680, 22433.00
1418.729, 22553.00
1419.778, 22666.00
1420.827, 22590.00
1421.876, 22627.00
1422.925, 22674.00
1423.973, 22687.20
1425.022, 22582.00
1426.070, 22727.00
1427.118, 22799.00
1428.166, 22685.00
1429.214, 22696.00
1430.261, 22937.00
1431.309, 22861.00
1432.356, 22939.00
1433.403, 22950.00
1434.450, 23047.00
1435.497, 22845.00
1436.543, 23214.00
1437.590, 23328.00
1438.636, 23078.00
1439.682, 23201.00
1440.728, 23203.00
1441.774, 23336.00
1442.819, 23329.00
1443.865, 23293.00
1444.910, 23517.00
1445.955, 23768.00
1447.000, 23696.00
1448.045, 23641.00
1449.090, 23456.00
1450.134, 23642.00
1451.178, 23815.00
1452.223, 23902.00
1453.267, 23940.74
1454.310, 23979.15
1455.354, 23873.00
1456.398, 23862.00
1457.441, 23745.00
1458.484, 23488.00
1459.527, 23693.00
1460.570, 23519.00
1461.613, 23722.00
1462.655, 23540.00
1463.698, 23603.00
1464.740, 23599.00
1465.782, 23472.00
1466.824, 23213.00
1467.866, 23414.00
1468.907, 23518.00
1469.948, 23189.00
1470.990, 23441.00
1472.031, 23318.00
1473.072, 23438.00
1474.112, 23278.00
1475.153, 23482.00
1476.194, 23323.00
1477.234, 23514.00
1478.274, 23528.00
1479.314, 23289.00
1480.354, 23365.00
1481.393, 23404.00
1482.433, 23255.00
1483.472, 23489.00
1484.511, 23453.00
1485.550, 23279.00
1486.589, 23260.00
1487.628, 23448.00
1488.666, 23311.00
1489.704, 23488.00
1490.743, 23276.00
1491.781, 23265.00
1492.819, 23356.64
1493.856, 23262.86
1494.894, 23428.00
1495.931, 23335.00
1496.968, 23189.00
1498.005, 23364.00
1499.042, 23467.00
1500.079, 23482.00
1501.115, 23321.00
1502.152, 23331.00
1503.188, 23313.00
1504.224, 23490.00
1505.260, 23455.00
1506.296, 23332.00
1507.331, 23760.00
1508.367, 23497.00
1509.402, 23555.00
1510.437, 23576.00
1511.472, 23466.00
1512.507, 23610.00
1513.541, 23523.00
1514.576, 23409.00
1515.610, 23587.00
1516.644, 23829.00
1517.678, 23789.00
1518.712, 23737.00
1519.746, 23753.00
1520.779, 23772.00
1521.813, 23762.34
1522.846, 23656.00
1523.879, 23759.00
1524.912, 23502.00
1525.944, 23424.00
1526.977, 23740.00
1528.009, 23677.00
1529.041, 23825.00
1530.073, 23723.00
1531.105, 23860.00
1532.137, 23797.00
1533.168, 23798.00
1534.200, 23705.00
1535.231, 23913.00
1536.262, 23776.00
1537.293, 23838.00
1538.324, 23866.00
1539.354, 23626.00
1540.385, 23896.00
1541.415, 23787.00
1542.445, 23873.00
1543.475, 23796.00
1544.505, 23996.00
1545.534, 23793.00
1546.564, 23885.00
1547.593, 23979.00
1548.622, 23944.00
1549.651, 23939.00
1550.680, 24055.00
1551.708, 24188.00
1552.737, 24084.00
1553.765, 24123.00
1554.793, 24266.00
1555.821, 23996.00
1556.849, 24194.00
1557.877, 24337.00
1558.904, 23972.00
1559.932, 24126.00
1560.959, 24188.00
1561.986, 24226.00
1563.013, 24193.00
1564.039, 24090.00
1565.066, 24079.00
1566.092, 24029.00
1567.119, 24237.00
1568.145, 24201.00
1569.170, 24278.00
1570.196, 24212.00
##END=



