##NAMES=Jadeite
##RRUFFID=R050220
##IDEAL CHEMISTRY=NaAlSi_2_O_6_
##LOCALITY=Clear Creek, San Benito County, California, USA
##OWNER=RRUFF
##SOURCE=Hatt Yoder
##DESCRIPTION=Aggregate of colorless bladed crystals
##STATUS=The identification of this mineral has been confirmed by X-ray diffraction and chemical analysis
##URL=rruff.info/R050220
##MEASURED CHEMISTRY=Na_1.00_Al_1.00_(Si_0.99_Al_0.01_)_2_O_6_
##PIN_ID=L01047
##ORIENTATION=Laser parallel to b* (0 1 0). Fiducial mark perpendicular to laser is parallel to c [0 0 1]
105.5290, 6184.000
106.7660, 6860.000
108.0020, 7230.000
109.2390, 6811.000
110.4750, 6661.000
111.7110, 6657.000
112.9460, 6776.000
114.1820, 7063.000
115.4170, 7143.000
116.6530, 7054.000
117.8880, 7130.000
119.1230, 7018.000
120.3580, 7004.000
121.5920, 7061.000
122.8270, 7166.000
124.0610, 7261.000
125.2950, 7225.000
126.5290, 7239.000
127.7630, 7421.000
128.9970, 7476.000
130.2300, 7595.000
131.4640, 7604.000
132.6970, 7725.000
133.9300, 7820.000
135.1630, 8004.000
136.3950, 8087.000
137.6280, 8313.000
138.8600, 8495.000
140.0920, 8923.000
141.3240, 9658.000
142.5560, 10547.00
143.7880, 12149.00
145.0190, 13710.00
146.2510, 13978.00
147.4820, 12713.00
148.7130, 11009.00
149.9440, 9813.000
151.1750, 9064.000
152.4050, 8427.000
153.6360, 8336.000
154.8660, 8165.000
156.0960, 8169.000
157.3260, 8186.000
158.5560, 7955.000
159.7850, 8061.000
161.0150, 7967.000
162.2440, 8076.000
163.4730, 8221.000
164.7020, 8349.000
165.9310, 8147.000
167.1590, 8241.000
168.3880, 8272.000
169.6160, 8177.000
170.8440, 8258.000
172.0720, 8293.000
173.3000, 8382.000
174.5280, 8447.000
175.7550, 8372.000
176.9820, 8401.000
178.2100, 8352.000
179.4370, 8388.000
180.6630, 8393.000
181.8900, 8573.000
183.1170, 8476.000
184.3430, 8675.000
185.5690, 8657.000
186.7950, 8825.000
188.0210, 8834.000
189.2470, 9038.000
190.4720, 9499.000
191.6970, 9916.000
192.9230, 10589.00
194.1480, 11196.00
195.3730, 11564.00
196.5970, 11833.00
197.8220, 12694.00
199.0460, 14171.00
200.2700, 17070.00
201.4940, 21525.00
202.7180, 29123.00
203.9420, 37209.00
205.1660, 38392.00
206.3890, 33667.00
207.6120, 28156.00
208.8350, 21673.00
210.0580, 16255.00
211.2810, 13013.00
212.5040, 11271.00
213.7260, 10252.00
214.9480, 9800.000
216.1700, 9395.000
217.3920, 9302.000
218.6140, 9317.000
219.8360, 9350.000
221.0570, 9881.000
222.2790, 9922.000
223.5000, 10035.00
224.7210, 9995.000
225.9410, 9714.000
227.1620, 9223.000
228.3820, 9076.000
229.6030, 8879.000
230.8230, 8800.000
232.0430, 8839.000
233.2630, 8802.000
234.4820, 8873.000
235.7020, 8761.000
236.9210, 8848.000
238.1400, 8821.000
239.3590, 8874.000
240.5780, 8781.000
241.7970, 8797.000
243.0150, 9011.000
244.2340, 8971.000
245.4520, 9042.000
246.6700, 9154.000
247.8880, 9117.000
249.1060, 9288.000
250.3230, 9320.000
251.5400, 9600.000
252.7580, 10091.00
253.9750, 10395.00
255.1920, 11031.00
256.4080, 11171.00
257.6250, 11053.00
258.8410, 10660.00
260.0580, 9990.000
261.2740, 9497.000
262.4900, 9210.000
263.7050, 9190.000
264.9210, 9163.000
266.1360, 9154.000
267.3520, 9077.000
268.5670, 9199.000
269.7820, 8989.000
270.9960, 9180.000
272.2110, 9149.000
273.4250, 9295.000
274.6400, 9298.000
275.8540, 9334.000
277.0680, 9397.000
278.2810, 9408.000
279.4950, 9512.000
280.7090, 9765.000
281.9220, 9817.000
283.1350, 10019.00
284.3480, 10275.00
285.5610, 10469.00
286.7730, 10742.00
287.9860, 11217.00
289.1980, 11834.00
290.4100, 12503.00
291.6220, 13103.00
292.8340, 13278.00
294.0460, 13468.00
295.2570, 13110.00
296.4690, 12626.00
297.6800, 12092.00
298.8910, 11536.00
300.1020, 11213.00
301.3120, 11019.00
302.5230, 10711.00
303.7330, 10690.00
304.9440, 10627.00
306.1540, 10790.00
307.3630, 11052.00
308.5730, 11333.00
309.7830, 11468.00
310.9920, 11498.00
312.2010, 11366.00
313.4100, 11091.00
314.6190, 10911.00
315.8280, 10718.10
317.0370, 10581.97
318.2450, 10385.00
319.4530, 10411.00
320.6610, 10385.00
321.8690, 10384.00
323.0770, 10596.00
324.2850, 10772.00
325.4920, 11254.00
326.6990, 11776.00
327.9060, 12364.00
329.1130, 12843.00
330.3200, 12867.00
331.5270, 12438.00
332.7330, 11895.00
333.9390, 11098.00
335.1450, 10696.00
336.3510, 10450.00
337.5570, 10359.00
338.7630, 10101.00
339.9680, 10143.00
341.1740, 10169.00
342.3790, 10074.00
343.5840, 10017.00
344.7890, 10029.00
345.9930, 9992.000
347.1980, 10045.00
348.4020, 10219.00
349.6060, 10179.00
350.8100, 10291.00
352.0140, 10230.00
353.2180, 10435.00
354.4210, 10324.00
355.6250, 10502.00
356.8280, 10679.00
358.0310, 10792.00
359.2340, 10960.00
360.4360, 11287.00
361.6390, 11645.00
362.8410, 12222.00
364.0430, 12946.00
365.2450, 13676.00
366.4470, 14747.00
367.6490, 16031.00
368.8510, 17344.00
370.0520, 19542.00
371.2530, 22346.00
372.4540, 25868.00
373.6550, 29753.00
374.8560, 32726.00
376.0560, 33528.00
377.2570, 31767.00
378.4570, 28491.00
379.6570, 24460.00
380.8570, 21433.00
382.0570, 18762.00
383.2560, 17231.00
384.4560, 16131.00
385.6550, 15556.00
386.8540, 14932.00
388.0530, 14343.00
389.2520, 13871.00
390.4510, 13173.00
391.6490, 12614.00
392.8470, 12054.00
394.0450, 11675.00
395.2430, 11425.00
396.4410, 11205.00
397.6390, 11143.00
398.8360, 10946.00
400.0340, 10954.00
401.2310, 10877.00
402.4280, 10937.00
403.6250, 10873.00
404.8210, 10841.00
406.0180, 10920.00
407.2140, 10848.00
408.4100, 10928.00
409.6060, 11113.00
410.8020, 11023.00
411.9980, 11105.00
413.1930, 11297.00
414.3890, 11348.00
415.5840, 11573.00
416.7790, 11617.00
417.9740, 11749.00
419.1680, 11984.00
420.3630, 12034.00
421.5570, 12019.00
422.7510, 12088.00
423.9450, 12316.48
425.1390, 12587.39
426.3330, 12947.00
427.5270, 13458.00
428.7200, 13993.00
429.9130, 14663.00
431.1060, 15379.00
432.2990, 16053.00
433.4920, 16571.00
434.6840, 16906.00
435.8770, 16759.00
437.0690, 16030.00
438.2610, 15399.00
439.4530, 14559.00
440.6450, 13860.00
441.8360, 13195.00
443.0280, 12634.00
444.2190, 12280.00
445.4100, 12067.00
446.6010, 11799.00
447.7920, 11591.00
448.9820, 11519.00
450.1730, 11242.00
451.3630, 11369.00
452.5530, 11136.00
453.7430, 11152.00
454.9330, 11133.00
456.1230, 11040.00
457.3120, 10978.00
458.5010, 10945.00
459.6910, 11054.00
460.8800, 10937.00
462.0680, 10978.00
463.2570, 10982.00
464.4460, 10897.00
465.6340, 10915.00
466.8220, 10951.00
468.0100, 10879.00
469.1980, 11038.00
470.3860, 11019.00
471.5730, 10978.00
472.7600, 11079.00
473.9480, 11074.00
475.1350, 10886.00
476.3210, 10961.00
477.5080, 11017.00
478.6950, 11116.00
479.8810, 11061.00
481.0670, 11100.68
482.2530, 11145.12
483.4390, 11076.00
484.6250, 11164.00
485.8100, 11152.00
486.9960, 11023.00
488.1810, 11056.00
489.3660, 11039.86
490.5510, 11144.00
491.7360, 11100.00
492.9200, 11118.00
494.1050, 11195.00
495.2890, 11213.00
496.4730, 11139.00
497.6570, 11189.00
498.8400, 11220.00
500.0240, 11111.00
501.2070, 11333.00
502.3910, 11334.00
503.5740, 11204.00
504.7570, 11440.00
505.9400, 11478.00
507.1220, 11369.00
508.3050, 11511.00
509.4870, 11590.00
510.6690, 11714.00
511.8510, 11825.00
513.0330, 11916.00
514.2140, 12090.91
515.3960, 12282.00
516.5770, 12478.00
517.7580, 12792.00
518.9390, 13093.00
520.1200, 13572.00
521.3010, 14136.00
522.4810, 14892.00
523.6610, 15744.00
524.8420, 16288.00
526.0220, 16299.00
527.2010, 15596.00
528.3810, 14707.00
529.5610, 13846.00
530.7400, 13384.00
531.9190, 12752.00
533.0980, 12437.00
534.2770, 11896.00
535.4560, 11878.00
536.6340, 11923.00
537.8120, 11774.00
538.9910, 11703.00
540.1690, 11919.00
541.3460, 11771.00
542.5240, 11739.00
543.7020, 11762.00
544.8790, 11684.00
546.0560, 11763.00
547.2330, 11723.00
548.4100, 11760.00
549.5870, 11753.00
550.7630, 11868.00
551.9400, 12005.00
553.1160, 11767.00
554.2920, 11976.00
555.4680, 11921.00
556.6440, 12171.00
557.8190, 12256.00
558.9950, 12215.00
560.1700, 12270.00
561.3450, 12459.00
562.5200, 12455.00
563.6950, 12534.00
564.8690, 12817.00
566.0440, 13122.00
567.2180, 13506.00
568.3920, 13896.00
569.5660, 14482.00
570.7400, 15272.00
571.9130, 16277.00
573.0870, 17610.00
574.2600, 18946.00
575.4330, 20216.00
576.6060, 20683.00
577.7790, 19734.00
578.9520, 18415.00
580.1240, 16794.00
581.2960, 15621.00
582.4690, 14577.00
583.6410, 13835.00
584.8120, 13578.00
585.9840, 13122.00
587.1560, 13037.00
588.3270, 12964.00
589.4980, 12803.00
590.6690, 12687.00
591.8400, 12590.00
593.0110, 12571.00
594.1810, 12467.00
595.3510, 12479.00
596.5220, 12276.00
597.6920, 12195.00
598.8610, 12149.00
600.0310, 12141.00
601.2010, 12121.19
602.3700, 12081.00
603.5390, 12166.00
604.7080, 12213.00
605.8770, 12295.00
607.0460, 12227.00
608.2140, 12212.00
609.3830, 12230.00
610.5510, 12372.00
611.7190, 12388.00
612.8870, 12097.00
614.0550, 12357.00
615.2220, 12362.00
616.3900, 12175.00
617.5570, 12269.00
618.7240, 12422.00
619.8910, 12341.00
621.0580, 12428.00
622.2240, 12253.00
623.3910, 12320.00
624.5570, 12275.00
625.7230, 12296.00
626.8890, 12323.43
628.0550, 12362.00
629.2200, 12354.00
630.3860, 12398.00
631.5510, 12379.00
632.7160, 12419.72
633.8810, 12358.00
635.0460, 12491.00
636.2100, 12404.00
637.3750, 12435.00
638.5390, 12465.00
639.7030, 12591.00
640.8670, 12645.00
642.0310, 12637.00
643.1950, 12590.00
644.3580, 12641.00
645.5210, 12714.00
646.6850, 12593.00
647.8480, 12701.00
649.0100, 12579.00
650.1730, 12762.00
651.3350, 12840.00
652.4980, 12813.00
653.6600, 12828.00
654.8220, 12783.00
655.9840, 12864.00
657.1450, 12836.00
658.3070, 12967.00
659.4680, 12909.00
660.6300, 13145.00
661.7910, 13202.00
662.9510, 13121.00
664.1120, 13206.00
665.2730, 13278.00
666.4330, 13203.00
667.5930, 13240.00
668.7530, 13272.00
669.9130, 13563.00
671.0730, 13680.00
672.2320, 13491.00
673.3920, 13844.00
674.5510, 13846.00
675.7100, 13980.00
676.8690, 14124.00
678.0280, 14255.58
679.1860, 14435.00
680.3450, 14665.00
681.5030, 14987.00
682.6610, 15314.00
683.8190, 15722.00
684.9770, 16215.00
686.1340, 16576.00
687.2920, 17559.00
688.4490, 18377.00
689.6060, 19673.00
690.7630, 20976.00
691.9200, 23440.00
693.0760, 26018.00
694.2330, 29206.00
695.3890, 33106.00
696.5450, 38215.00
697.7010, 44553.00
698.8570, 50698.00
700.0130, 55632.00
701.1680, 57320.00
702.3230, 55006.00
703.4780, 49340.00
704.6330, 42427.00
705.7880, 36078.00
706.9430, 30936.00
708.0970, 26503.00
709.2520, 23686.00
710.4060, 21604.00
711.5600, 19900.00
712.7140, 18681.00
713.8670, 17773.00
715.0210, 17112.00
716.1740, 16537.00
717.3270, 16188.00
718.4800, 15706.00
719.6330, 15514.00
720.7860, 15317.00
721.9380, 15068.00
723.0910, 14804.00
724.2430, 14642.00
725.3950, 14489.00
726.5470, 14619.00
727.6980, 14392.00
728.8500, 14622.00
730.0010, 14455.00
731.1530, 14345.00
732.3040, 14411.00
733.4550, 14161.00
734.6050, 14129.00
735.7560, 14249.00
736.9060, 14200.00
738.0560, 14135.00
739.2060, 14102.00
740.3560, 14193.00
741.5060, 14150.00
742.6560, 14047.00
743.8050, 14167.00
744.9540, 14025.00
746.1030, 14022.00
747.2520, 14131.00
748.4010, 14086.00
749.5500, 14052.00
750.6980, 14063.00
751.8460, 14156.00
752.9950, 14240.00
754.1420, 14047.00
755.2900, 14177.00
756.4380, 14076.00
757.5850, 14162.00
758.7330, 14179.00
759.8800, 14161.00
761.0270, 14245.00
762.1730, 14225.00
763.3200, 14259.00
764.4670, 14235.00
765.6130, 14360.00
766.7590, 14150.00
767.9050, 14349.00
769.0510, 14251.00
770.1960, 14446.00
771.3420, 14516.00
772.4870, 14387.00
773.6320, 14521.00
774.7770, 14509.00
775.9220, 14714.00
777.0670, 14703.00
778.2110, 14924.00
779.3560, 14972.00
780.5000, 15016.00
781.6440, 14731.00
782.7880, 14590.00
783.9320, 14657.00
785.0750, 14670.00
786.2180, 14547.00
787.3620, 14566.31
788.5050, 14405.00
789.6480, 14413.00
790.7900, 14394.00
791.9330, 14198.00
793.0750, 14245.00
794.2170, 14305.00
795.3590, 14415.00
796.5010, 14399.09
797.6430, 14345.00
798.7850, 14396.00
799.9260, 14378.00
801.0670, 14380.00
802.2080, 14439.00
803.3490, 14247.00
804.4900, 14442.00
805.6310, 14399.00
806.7710, 14500.00
807.9110, 14388.00
809.0510, 14407.00
810.1910, 14346.00
811.3310, 14365.22
812.4710, 14522.00
813.6100, 14459.00
814.7490, 14480.00
815.8880, 14584.00
817.0270, 14496.00
818.1660, 14495.00
819.3050, 14488.00
820.4430, 14766.00
821.5820, 14613.00
822.7200, 14731.00
823.8580, 14606.00
824.9950, 14697.00
826.1330, 14583.00
827.2710, 14618.00
828.4080, 14751.00
829.5450, 14478.00
830.6820, 14758.00
831.8190, 14779.00
832.9560, 14841.00
834.0920, 14839.00
835.2280, 14812.00
836.3650, 14912.00
837.5010, 14872.00
838.6360, 14781.00
839.7720, 14822.00
840.9080, 14907.00
842.0430, 14984.00
843.1780, 15058.00
844.3130, 14980.00
845.4480, 14883.00
846.5830, 15083.00
847.7170, 14963.00
848.8520, 14979.00
849.9860, 15077.00
851.1200, 14964.00
852.2540, 15090.00
853.3870, 15136.00
854.5210, 15196.00
855.6540, 15230.00
856.7880, 15201.05
857.9210, 15193.00
859.0540, 15147.00
860.1860, 15177.00
861.3190, 15234.00
862.4510, 15269.00
863.5840, 15455.00
864.7160, 15439.00
865.8480, 15344.00
866.9790, 15453.00
868.1110, 15284.00
869.2420, 15387.00
870.3740, 15367.00
871.5050, 15513.00
872.6360, 15324.00
873.7660, 15524.00
874.8970, 15620.00
876.0280, 15493.00
877.1580, 15551.00
878.2880, 15527.00
879.4180, 15528.00
880.5480, 15631.00
881.6770, 15642.00
882.8070, 15761.00
883.9360, 15656.00
885.0650, 15938.00
886.1940, 15718.00
887.3230, 15795.00
888.4520, 15891.00
889.5800, 15848.00
890.7090, 15839.00
891.8370, 15661.00
892.9650, 15733.00
894.0930, 15693.00
895.2200, 15560.00
896.3480, 15633.00
897.4750, 15575.00
898.6020, 15617.00
899.7290, 15761.00
900.8560, 15644.00
901.9830, 15700.00
903.1090, 15969.00
904.2360, 15727.58
905.3620, 16161.00
906.4880, 15482.00
907.6140, 15720.00
908.7400, 15714.00
909.8650, 15697.00
910.9900, 15707.00
912.1160, 15681.97
913.2410, 15655.00
914.3660, 15655.00
915.4900, 15657.00
916.6150, 15672.00
917.7390, 15688.78
918.8640, 15776.00
919.9880, 15724.00
921.1120, 15859.00
922.2350, 15858.00
923.3590, 15838.00
924.4820, 15786.00
925.6060, 15782.00
926.7290, 15821.00
927.8520, 15923.00
928.9740, 15854.00
930.0970, 15831.00
931.2190, 15962.00
932.3420, 15873.00
933.4640, 15989.00
934.5860, 16007.00
935.7080, 16015.00
936.8290, 16031.00
937.9510, 15988.00
939.0720, 15928.00
940.1930, 16227.00
941.3140, 16259.00
942.4350, 16206.00
943.5560, 16159.00
944.6760, 16328.00
945.7960, 16224.00
946.9170, 16244.00
948.0370, 16213.00
949.1560, 16238.36
950.2760, 16408.00
951.3960, 16390.00
952.5150, 16382.00
953.6340, 16570.00
954.7530, 16449.00
955.8720, 16542.00
956.9910, 16742.00
958.1090, 16647.00
959.2280, 16855.00
960.3460, 16773.00
961.4640, 16886.00
962.5820, 16791.00
963.6990, 16776.00
964.8170, 17035.00
965.9340, 17098.00
967.0510, 17226.00
968.1690, 17305.00
969.2850, 17443.00
970.4020, 17592.73
971.5190, 17763.13
972.6350, 17959.00
973.7510, 18191.00
974.8670, 18461.00
975.9830, 18747.00
977.0990, 19054.00
978.2150, 19829.00
979.3300, 20507.00
980.4450, 21454.00
981.5600, 22562.00
982.6750, 23752.00
983.7900, 25923.00
984.9050, 28060.00
986.0190, 30214.00
987.1340, 31327.00
988.2480, 32451.00
989.3620, 32831.00
990.4750, 33265.00
991.5890, 33872.00
992.7020, 33821.00
993.8160, 32921.00
994.9290, 30826.00
996.0420, 28862.00
997.1550, 26494.00
998.2670, 24514.00
999.3800, 22939.00
1000.492, 21536.00
1001.604, 20717.00
1002.716, 20030.00
1003.828, 19465.00
1004.940, 18872.00
1006.051, 18578.00
1007.163, 18419.00
1008.274, 18151.00
1009.385, 17964.00
1010.496, 17817.00
1011.606, 17745.18
1012.717, 17636.00
1013.827, 17709.00
1014.937, 17747.00
1016.047, 17722.00
1017.157, 17708.00
1018.267, 17713.26
1019.377, 17670.00
1020.486, 17697.00
1021.595, 17741.00
1022.704, 17736.00
1023.813, 17859.00
1024.922, 18110.00
1026.030, 18232.00
1027.139, 18206.00
1028.247, 18606.00
1029.355, 18851.00
1030.463, 19143.00
1031.571, 19709.00
1032.678, 20216.00
1033.786, 21238.00
1034.893, 22223.00
1036.000, 23234.00
1037.107, 24896.00
1038.214, 26586.00
1039.321, 27803.00
1040.427, 28596.00
1041.533, 28325.00
1042.639, 26843.00
1043.745, 25286.00
1044.851, 23447.00
1045.957, 22138.00
1047.062, 21059.00
1048.168, 20496.00
1049.273, 19682.00
1050.378, 19149.00
1051.482, 19122.00
1052.587, 18734.00
1053.692, 18554.00
1054.796, 18235.00
1055.900, 18011.00
1057.004, 17992.00
1058.108, 17979.00
1059.212, 17884.00
1060.315, 17926.00
1061.418, 17910.00
1062.522, 17822.74
1063.625, 17799.00
1064.728, 17733.00
1065.830, 17760.00
1066.933, 17872.00
1068.035, 17833.00
1069.137, 17876.00
1070.239, 17905.00
1071.341, 17774.00
1072.443, 17844.00
1073.545, 17824.00
1074.646, 17808.00
1075.747, 17903.00
1076.848, 17991.00
1077.949, 17941.00
1079.050, 18104.00
1080.150, 18251.00
1081.251, 18138.00
1082.351, 18004.00
1083.451, 18224.00
1084.551, 18081.00
1085.651, 17996.00
1086.750, 17942.00
1087.850, 17855.00
1088.949, 18055.00
1090.048, 17928.00
1091.147, 17886.00
1092.246, 17671.00
1093.345, 17749.00
1094.443, 17926.00
1095.541, 17806.00
1096.639, 17846.00
1097.737, 18047.00
1098.835, 17892.00
1099.933, 17787.00
1101.030, 17930.00
1102.128, 18010.00
1103.225, 17863.00
1104.322, 17843.00
1105.419, 17927.00
1106.515, 18028.00
1107.612, 17962.00
1108.708, 18029.00
1109.804, 17970.00
1110.900, 17940.00
1111.996, 18071.00
1113.092, 18304.00
1114.187, 18119.00
1115.283, 18046.00
1116.378, 17948.00
1117.473, 18261.00
1118.568, 18175.00
1119.662, 18257.00
1120.757, 18202.00
1121.851, 18150.00
1122.946, 18175.00
1124.040, 18302.00
1125.134, 18251.00
1126.227, 18287.00
1127.321, 18217.00
1128.414, 18237.79
1129.508, 18227.00
1130.601, 18258.00
1131.693, 18322.00
1132.786, 18343.00
1133.879, 18356.60
1134.971, 18449.00
1136.064, 18387.00
1137.156, 18349.00
1138.248, 18416.00
1139.339, 18396.00
1140.431, 18286.00
1141.522, 18481.00
1142.614, 18375.00
1143.705, 18429.00
1144.796, 18411.00
1145.887, 18478.00
1146.977, 18422.00
1148.068, 18374.00
1149.158, 18409.00
1150.248, 18384.12
1151.338, 18411.00
1152.428, 18451.00
1153.518, 18478.00
1154.607, 18607.00
1155.696, 18653.00
1156.785, 18646.15
1157.874, 18614.00
1158.963, 18610.00
1160.052, 18644.00
1161.141, 18642.00
1162.229, 18545.00
1163.317, 18732.00
1164.405, 18636.00
1165.493, 18617.00
1166.581, 18850.00
1167.668, 18860.00
1168.756, 18809.00
1169.843, 18673.00
1170.930, 18692.00
1172.017, 18934.00
1173.103, 18844.00
1174.190, 18779.00
1175.276, 18945.00
1176.363, 18787.00
1177.449, 18807.00
1178.535, 18796.00
1179.620, 18989.00
1180.706, 19038.00
1181.791, 19100.00
1182.877, 19001.00
1183.962, 19062.46
1185.047, 18908.00
1186.131, 19030.00
1187.216, 19037.00
1188.300, 18925.00
1189.385, 19195.00
1190.469, 18819.00
1191.553, 18976.00
1192.637, 19253.00
1193.720, 19001.00
1194.804, 19069.00
1195.887, 19199.00
1196.970, 18885.00
1198.053, 19066.00
1199.136, 19068.00
1200.219, 19164.00
1201.301, 19012.00
1202.383, 19199.00
1203.465, 19112.00
1204.547, 19173.00
1205.629, 18990.00
1206.711, 19294.00
1207.792, 19216.00
1208.874, 19189.00
1209.955, 19279.00
1211.036, 19284.00
1212.117, 19101.00
1213.198, 19227.00
1214.278, 19175.41
1215.359, 19400.00
1216.439, 19267.00
1217.519, 19233.00
1218.599, 19399.00
1219.678, 19351.00
1220.758, 19368.00
1221.837, 19303.00
1222.917, 19306.00
1223.996, 19309.00
1225.075, 19320.13
1226.153, 19372.82
1227.232, 19406.00
1228.310, 19469.00
1229.389, 19549.00
1230.467, 19539.00
1231.545, 19538.00
1232.622, 19439.00
1233.700, 19550.00
1234.777, 19643.00
1235.855, 19581.00
1236.932, 19407.00
1238.009, 19455.00
1239.086, 19440.89
1240.162, 19441.02
1241.239, 19576.00
1242.315, 19536.00
1243.391, 19667.00
1244.467, 19732.00
1245.543, 19624.00
1246.619, 19526.00
1247.694, 19772.00
1248.769, 19586.00
1249.844, 19736.00
1250.919, 19700.00
1251.994, 19594.00
1253.069, 19635.00
1254.144, 19712.00
1255.218, 19550.00
1256.292, 19877.00
1257.366, 19672.00
1258.440, 19826.00
1259.514, 19857.00
1260.587, 19889.00
1261.661, 19986.00
1262.734, 19844.00
1263.807, 19997.00
1264.880, 19851.00
1265.952, 19806.00
1267.025, 19928.00
1268.097, 19911.00
1269.170, 19967.00
1270.242, 19941.00
1271.314, 19850.00
1272.385, 19915.00
1273.457, 19853.00
1274.528, 20034.00
1275.600, 19958.00
1276.671, 20038.00
1277.742, 20201.00
1278.812, 20140.92
1279.883, 20173.61
1280.954, 20134.00
1282.024, 20131.00
1283.094, 20091.00
1284.164, 20144.00
1285.234, 20167.00
1286.303, 20164.00
1287.373, 20195.23
1288.442, 20146.21
1289.511, 20209.00
1290.580, 20113.00
1291.649, 20086.00
1292.718, 20218.00
1293.786, 20372.00
1294.855, 20382.00
1295.923, 20452.46
1296.991, 20464.76
1298.059, 20446.00
1299.126, 20434.00
1300.194, 20355.00
1301.261, 20324.00
1302.328, 20245.00
1303.395, 20389.00
1304.462, 20357.00
1305.529, 20646.00
1306.596, 20487.00
1307.662, 20389.00
1308.728, 20621.00
1309.794, 20468.00
1310.860, 20439.00
1311.926, 20536.00
1312.991, 20634.00
1314.057, 20497.00
1315.122, 20486.00
1316.187, 20549.00
1317.252, 20547.00
1318.317, 20760.00
1319.381, 20506.00
1320.446, 20679.00
1321.510, 20718.00
1322.574, 20635.00
1323.638, 20748.00
1324.702, 20786.00
1325.766, 20751.00
1326.829, 20650.00
1327.892, 20803.00
1328.956, 20805.00
1330.019, 20666.00
1331.081, 20984.00
1332.144, 20899.00
1333.206, 20896.00
1334.269, 20899.00
1335.331, 20848.00
1336.393, 20922.00
1337.455, 20945.00
1338.516, 20943.00
1339.578, 20981.00
1340.639, 20960.44
1341.701, 21054.00
1342.762, 20939.00
1343.822, 20997.00
1344.883, 21017.00
1345.944, 21162.00
1347.004, 21156.00
1348.064, 21185.78
1349.124, 21238.00
1350.184, 21197.00
1351.244, 21158.00
1352.304, 21180.00
1353.363, 21157.63
1354.422, 21079.00
1355.481, 21190.00
1356.540, 21208.00
1357.599, 21282.00
1358.657, 21256.12
1359.716, 21263.01
1360.774, 21184.00
1361.832, 21248.00
1362.890, 21245.00
1363.948, 21292.00
1365.006, 21393.00
1366.063, 21230.00
1367.120, 21437.00
1368.178, 21470.00
1369.234, 21370.00
1370.291, 21204.00
1371.348, 21412.00
1372.404, 21255.00
1373.461, 21569.00
1374.517, 21266.00
1375.573, 21425.00
1376.629, 21443.00
1377.684, 21524.00
1378.740, 21541.00
1379.795, 21554.48
1380.850, 21310.00
1381.905, 21493.00
1382.960, 21532.00
1384.015, 21363.00
1385.070, 21549.00
1386.124, 21507.00
1387.178, 21504.00
1388.232, 21470.00
1389.286, 21486.10
1390.340, 21549.00
1391.393, 21598.00
1392.447, 21468.00
1393.500, 21665.00
1394.553, 21604.00
1395.606, 21696.00
1396.659, 21925.00
1397.711, 21695.00
1398.764, 21787.00
1399.816, 21751.00
1400.868, 21821.00
1401.920, 21887.00
1402.972, 21805.00
1404.023, 21880.00
1405.075, 21894.00
1406.126, 21801.00
1407.177, 21771.00
1408.228, 21694.00
1409.279, 21885.00
1410.330, 21966.00
1411.380, 21949.00
1412.431, 21967.00
1413.481, 21980.00
1414.531, 21973.00
1415.580, 22002.00
1416.630, 22021.51
1417.680, 22068.00
1418.729, 22073.00
1419.778, 22119.06
1420.827, 22130.00
1421.876, 22120.00
1422.925, 22119.00
1423.973, 22138.65
1425.022, 22095.00
1426.070, 22159.00
1427.118, 22130.00
1428.166, 22095.00
1429.214, 22140.48
1430.261, 22242.00
1431.309, 22167.00
1432.356, 22270.00
1433.403, 22254.00
1434.450, 22271.00
1435.497, 22279.66
1436.543, 22368.00
1437.590, 22233.00
1438.636, 22373.00
1439.682, 22330.00
1440.728, 22423.00
1441.774, 22406.00
1442.819, 22435.00
1443.865, 22247.00
1444.910, 22317.00
1445.955, 22187.00
1447.000, 22433.00
1448.045, 22337.00
1449.090, 22337.00
1450.134, 22491.00
1451.178, 22570.00
1452.223, 22579.28
1453.267, 22599.00
1454.310, 22566.00
1455.354, 22538.00
1456.398, 22437.00
1457.441, 22577.00
1458.484, 22692.00
1459.527, 22434.00
1460.570, 22530.00
1461.613, 22561.00
1462.655, 22460.00
1463.698, 22610.00
1464.740, 22612.00
1465.782, 22658.00
1466.824, 22741.00
1467.866, 22481.00
1468.907, 22770.00
1469.948, 22686.00
1470.990, 22732.00
1472.031, 22963.00
1473.072, 22678.00
1474.112, 22661.00
1475.153, 22936.00
1476.194, 22860.00
1477.234, 22916.00
1478.274, 22627.00
1479.314, 22890.00
1480.354, 22903.00
1481.393, 23009.00
1482.433, 22955.00
1483.472, 22911.00
1484.511, 22999.00
1485.550, 22887.00
1486.589, 23011.00
1487.628, 22772.00
1488.666, 22922.00
1489.704, 23128.00
1490.743, 23019.00
1491.781, 23050.00
1492.819, 23058.00
1493.856, 23135.00
1494.894, 23042.00
1495.931, 23029.00
1496.968, 23233.00
1498.005, 22881.00
1499.042, 23198.00
1500.079, 23186.00
1501.115, 23094.00
1502.152, 23114.00
1503.188, 23126.00
1504.224, 23103.00
1505.260, 22749.00
1506.296, 23166.00
1507.331, 23025.00
1508.367, 23112.00
1509.402, 23318.00
1510.437, 23230.00
1511.472, 23268.00
1512.507, 23253.00
1513.541, 23296.00
1514.576, 23210.00
1515.610, 23206.00
1516.644, 23382.00
1517.678, 23242.00
1518.712, 23588.00
1519.746, 23311.00
1520.779, 23272.00
1521.813, 23461.00
1522.846, 23573.00
1523.879, 23315.00
1524.912, 23282.00
1525.944, 23230.00
1526.977, 23376.00
1528.009, 23488.00
1529.041, 23637.00
1530.073, 23522.00
1531.105, 23607.00
1532.137, 23700.00
1533.168, 23484.00
1534.200, 23661.00
1535.231, 23542.00
1536.262, 23449.00
1537.293, 23317.00
1538.324, 23466.00
1539.354, 23402.00
1540.385, 23448.00
1541.415, 23500.88
1542.445, 23708.00
1543.475, 23561.00
1544.505, 23626.00
1545.534, 23627.00
1546.564, 23589.00
1547.593, 23491.00
1548.622, 23803.00
1549.651, 23695.93
1550.680, 23892.00
1551.708, 23754.00
1552.737, 23781.00
1553.765, 23834.00
1554.793, 23777.00
1555.821, 23640.00
1556.849, 23668.00
1557.877, 23597.00
1558.904, 23925.00
1559.932, 23847.00
1560.959, 24045.00
1561.986, 24097.00
1563.013, 23807.00
1564.039, 23976.00
1565.066, 23733.00
1566.092, 23924.00
1567.119, 23895.00
1568.145, 23921.00
1569.170, 24059.00
1570.196, 23979.00
##END=



