##NAMES=Jadeite
##RRUFFID=R050220
##IDEAL CHEMISTRY=NaAlSi_2_O_6_
##LOCALITY=Clear Creek, San Benito County, California, USA
##OWNER=RRUFF
##SOURCE=Hatt Yoder
##DESCRIPTION=Aggregate of colorless bladed crystals
##STATUS=The identification of this mineral has been confirmed by X-ray diffraction and chemical analysis
##URL=rruff.info/R050220
##MEASURED CHEMISTRY=Na_1.00_Al_1.00_(Si_0.99_Al_0.01_)_2_O_6_
##PIN_ID=L00826
##ORIENTATION=Laser parallel to c* (0 0 1). Fiducial mark perpendicular to laser is parallel to a [1 0 0]
112.9460, 4070.000
114.1820, 4244.000
115.4170, 4303.000
116.6530, 4459.000
117.8880, 4375.000
119.1230, 4393.000
120.3580, 4472.000
121.5920, 4588.000
122.8270, 4813.000
124.0610, 4910.000
125.2950, 4886.000
126.5290, 5063.000
127.7630, 5355.000
128.9970, 5640.000
130.2300, 6146.000
131.4640, 6481.000
132.6970, 7117.000
133.9300, 7873.000
135.1630, 9090.000
136.3950, 10342.00
137.6280, 12008.00
138.8600, 14526.00
140.0920, 17128.00
141.3240, 19374.00
142.5560, 20131.00
143.7880, 19791.00
145.0190, 18244.00
146.2510, 16141.00
147.4820, 13672.00
148.7130, 11274.00
149.9440, 9133.000
151.1750, 7760.000
152.4050, 6843.000
153.6360, 6298.000
154.8660, 5863.000
156.0960, 5668.000
157.3260, 5429.000
158.5560, 5254.000
159.7850, 5051.000
161.0150, 5047.000
162.2440, 5122.000
163.4730, 4950.000
164.7020, 4917.000
165.9310, 4856.000
167.1590, 4881.000
168.3880, 4825.000
169.6160, 4746.000
170.8440, 4927.000
172.0720, 4834.000
173.3000, 4787.000
174.5280, 4794.000
175.7550, 4726.000
176.9820, 4851.000
178.2100, 4816.000
179.4370, 4856.000
180.6630, 4847.000
181.8900, 4851.000
183.1170, 4908.000
184.3430, 5062.000
185.5690, 5088.000
186.7950, 5207.000
188.0210, 5385.000
189.2470, 5730.000
190.4720, 6177.000
191.6970, 7171.000
192.9230, 8456.000
194.1480, 9771.000
195.3730, 10610.00
196.5970, 12105.00
197.8220, 15344.00
199.0460, 19556.00
200.2700, 24477.00
201.4940, 29409.00
202.7180, 33351.00
203.9420, 35546.00
205.1660, 33285.00
206.3890, 28190.00
207.6120, 21073.00
208.8350, 15184.00
210.0580, 10942.00
211.2810, 8473.000
212.5040, 7126.000
213.7260, 6385.000
214.9480, 5961.000
216.1700, 5750.000
217.3920, 5817.000
218.6140, 5732.000
219.8360, 5794.000
221.0570, 5892.000
222.2790, 5964.000
223.5000, 5993.000
224.7210, 5952.000
225.9410, 5681.000
227.1620, 5482.000
228.3820, 5235.000
229.6030, 5029.000
230.8230, 4951.000
232.0430, 4846.000
233.2630, 4859.000
234.4820, 4854.000
235.7020, 4846.000
236.9210, 4866.000
238.1400, 4899.000
239.3590, 4815.000
240.5780, 4890.000
241.7970, 4823.000
243.0150, 4995.000
244.2340, 4964.000
245.4520, 5165.000
246.6700, 5200.000
247.8880, 5297.000
249.1060, 5442.000
250.3230, 5528.000
251.5400, 5838.000
252.7580, 6090.000
253.9750, 6297.000
255.1920, 6323.000
256.4080, 6474.000
257.6250, 6408.000
258.8410, 6174.000
260.0580, 5927.000
261.2740, 5410.000
262.4900, 5199.000
263.7050, 5061.000
264.9210, 5045.000
266.1360, 5101.000
267.3520, 5118.000
268.5670, 5180.000
269.7820, 5142.000
270.9960, 5216.000
272.2110, 5232.000
273.4250, 5265.000
274.6400, 5378.000
275.8540, 5386.000
277.0680, 5530.000
278.2810, 5656.000
279.4950, 5815.000
280.7090, 5974.000
281.9220, 6343.000
283.1350, 6639.000
284.3480, 7016.638
285.5610, 7439.236
286.7730, 7892.000
287.9860, 8337.000
289.1980, 8845.000
290.4100, 9318.000
291.6220, 9819.000
292.8340, 10053.00
294.0460, 9814.000
295.2570, 9469.000
296.4690, 8773.000
297.6800, 8203.000
298.8910, 7432.000
300.1020, 6957.000
301.3120, 6615.000
302.5230, 6361.000
303.7330, 6172.000
304.9440, 6147.000
306.1540, 5979.000
307.3630, 6065.000
308.5730, 5976.000
309.7830, 5927.000
310.9920, 5942.000
312.2010, 5833.000
313.4100, 5736.000
314.6190, 5582.000
315.8280, 5491.000
317.0370, 5445.000
318.2450, 5522.000
319.4530, 5489.000
320.6610, 5568.000
321.8690, 5600.000
323.0770, 5709.000
324.2850, 5803.000
325.4920, 5957.000
326.6990, 5958.000
327.9060, 6062.000
329.1130, 6139.000
330.3200, 6175.000
331.5270, 5950.000
332.7330, 6009.000
333.9390, 5791.000
335.1450, 5671.000
336.3510, 5524.000
337.5570, 5585.000
338.7630, 5541.000
339.9680, 5480.000
341.1740, 5463.000
342.3790, 5476.162
343.5840, 5483.000
344.7890, 5546.000
345.9930, 5586.000
347.1980, 5629.000
348.4020, 5667.000
349.6060, 5775.000
350.8100, 5870.000
352.0140, 5865.000
353.2180, 5968.000
354.4210, 6100.000
355.6250, 6221.000
356.8280, 6400.000
358.0310, 6511.000
359.2340, 6887.000
360.4360, 7305.000
361.6390, 7837.000
362.8410, 8703.000
364.0430, 9694.000
365.2450, 10818.00
366.4470, 12294.00
367.6490, 14256.00
368.8510, 16304.00
370.0520, 18982.00
371.2530, 21803.00
372.4540, 24383.00
373.6550, 25973.00
374.8560, 26604.00
376.0560, 25759.00
377.2570, 23804.00
378.4570, 20851.00
379.6570, 17674.00
380.8570, 14789.00
382.0570, 12728.00
383.2560, 11354.00
384.4560, 10179.00
385.6550, 9578.000
386.8540, 9060.000
388.0530, 8715.000
389.2520, 8374.000
390.4510, 8118.000
391.6490, 7775.000
392.8470, 7523.000
394.0450, 7370.000
395.2430, 7129.000
396.4410, 7076.000
397.6390, 6909.000
398.8360, 6835.000
400.0340, 6674.000
401.2310, 6677.000
402.4280, 6687.000
403.6250, 6603.000
404.8210, 6624.000
406.0180, 6595.000
407.2140, 6518.000
408.4100, 6620.000
409.6060, 6620.000
410.8020, 6759.000
411.9980, 6726.000
413.1930, 6917.000
414.3890, 7016.000
415.5840, 7110.000
416.7790, 7278.000
417.9740, 7486.000
419.1680, 7588.000
420.3630, 7828.000
421.5570, 8117.000
422.7510, 8268.000
423.9450, 8516.000
425.1390, 9017.000
426.3330, 9443.000
427.5270, 10247.00
428.7200, 11281.00
429.9130, 11493.00
431.1060, 12035.00
432.2990, 12444.00
433.4920, 12817.00
434.6840, 12692.00
435.8770, 12298.00
437.0690, 11500.00
438.2610, 10771.00
439.4530, 9982.000
440.6450, 9227.000
441.8360, 8553.000
443.0280, 8051.000
444.2190, 7651.000
445.4100, 7302.000
446.6010, 7096.000
447.7920, 6874.000
448.9820, 6768.000
450.1730, 6579.000
451.3630, 6560.000
452.5530, 6498.000
453.7430, 6507.000
454.9330, 6348.000
456.1230, 6238.000
457.3120, 6259.000
458.5010, 6219.000
459.6910, 6275.000
460.8800, 6200.000
462.0680, 6379.000
463.2570, 6204.000
464.4460, 6316.000
465.6340, 6319.000
466.8220, 6344.000
468.0100, 6273.000
469.1980, 6373.000
470.3860, 6466.000
471.5730, 6548.000
472.7600, 6427.000
473.9480, 6511.000
475.1350, 6512.000
476.3210, 6725.000
477.5080, 6773.000
478.6950, 6807.000
479.8810, 6829.000
481.0670, 6881.000
482.2530, 6869.000
483.4390, 6883.000
484.6250, 6925.000
485.8100, 6839.000
486.9960, 6862.000
488.1810, 6865.000
489.3660, 6791.000
490.5510, 6705.000
491.7360, 6685.000
492.9200, 6576.000
494.1050, 6665.000
495.2890, 6540.000
496.4730, 6461.000
497.6570, 6578.000
498.8400, 6551.000
500.0240, 6519.000
501.2070, 6613.000
502.3910, 6672.000
503.5740, 6652.000
504.7570, 6716.000
505.9400, 6804.000
507.1220, 6736.000
508.3050, 6907.000
509.4870, 6890.000
510.6690, 7073.000
511.8510, 7232.000
513.0330, 7306.000
514.2140, 7535.000
515.3960, 7847.000
516.5770, 8051.000
517.7580, 8436.000
518.9390, 8738.000
520.1200, 9071.000
521.3010, 9766.000
522.4810, 10369.00
523.6610, 10590.00
524.8420, 10459.00
526.0220, 10485.00
527.2010, 9761.000
528.3810, 9187.000
529.5610, 8412.000
530.7400, 7808.000
531.9190, 7376.000
533.0980, 7121.000
534.2770, 6987.000
535.4560, 6824.000
536.6340, 6763.000
537.8120, 6681.000
538.9910, 6670.000
540.1690, 6655.000
541.3460, 6568.000
542.5240, 6593.000
543.7020, 6652.000
544.8790, 6604.000
546.0560, 6530.000
547.2330, 6708.000
548.4100, 6610.000
549.5870, 6593.000
550.7630, 6711.000
551.9400, 6722.000
553.1160, 6721.000
554.2920, 6892.000
555.4680, 7003.000
556.6440, 6988.000
557.8190, 6974.000
558.9950, 7180.000
560.1700, 7343.000
561.3450, 7554.000
562.5200, 7635.000
563.6950, 7925.000
564.8690, 8448.000
566.0440, 9013.000
567.2180, 9619.000
568.3920, 10452.00
569.5660, 11676.00
570.7400, 12858.00
571.9130, 14575.00
573.0870, 15826.00
574.2600, 17128.00
575.4330, 17651.00
576.6060, 17237.00
577.7790, 15885.00
578.9520, 14168.00
580.1240, 12652.00
581.2960, 10887.00
582.4690, 9768.000
583.6410, 8958.000
584.8120, 8474.000
585.9840, 8153.000
587.1560, 7870.000
588.3270, 7766.000
589.4980, 7596.000
590.6690, 7461.952
591.8400, 7344.000
593.0110, 7254.000
594.1810, 7197.000
595.3510, 7091.000
596.5220, 7064.000
597.6920, 7027.000
598.8610, 7044.000
600.0310, 6994.000
601.2010, 6979.000
602.3700, 6849.000
603.5390, 6911.000
604.7080, 6967.000
605.8770, 6851.000
607.0460, 6825.000
608.2140, 6833.000
609.3830, 6838.890
610.5510, 6883.000
611.7190, 6917.000
612.8870, 7000.000
614.0550, 6984.000
615.2220, 6956.000
616.3900, 7075.000
617.5570, 7058.000
618.7240, 7022.000
619.8910, 7071.000
621.0580, 7193.000
622.2240, 7208.000
623.3910, 7232.000
624.5570, 7400.000
625.7230, 7399.000
626.8890, 7516.000
628.0550, 7682.000
629.2200, 7541.000
630.3860, 7794.000
631.5510, 7779.000
632.7160, 7830.000
633.8810, 8010.000
635.0460, 7988.000
636.2100, 8090.000
637.3750, 8033.000
638.5390, 8041.000
639.7030, 8105.000
640.8670, 8109.000
642.0310, 7995.000
643.1950, 8074.000
644.3580, 7815.000
645.5210, 7934.000
646.6850, 7718.000
647.8480, 7693.000
649.0100, 7709.000
650.1730, 7727.000
651.3350, 7590.000
652.4980, 7645.000
653.6600, 7546.000
654.8220, 7508.000
655.9840, 7493.000
657.1450, 7649.000
658.3070, 7499.000
659.4680, 7621.000
660.6300, 7735.000
661.7910, 7686.000
662.9510, 7709.000
664.1120, 7849.000
665.2730, 7804.000
666.4330, 7900.000
667.5930, 7936.000
668.7530, 7898.000
669.9130, 8017.000
671.0730, 8183.000
672.2320, 8216.000
673.3920, 8431.000
674.5510, 8576.000
675.7100, 8611.000
676.8690, 8931.000
678.0280, 9109.000
679.1860, 9345.000
680.3450, 9720.000
681.5030, 9942.000
682.6610, 10526.00
683.8190, 10939.00
684.9770, 11724.00
686.1340, 12586.00
687.2920, 13568.00
688.4490, 15047.00
689.6060, 17325.00
690.7630, 19656.00
691.9200, 23142.00
693.0760, 27461.00
694.2330, 32350.00
695.3890, 38152.00
696.5450, 44736.00
697.7010, 51210.00
698.8570, 55967.00
700.0130, 58120.00
701.1680, 56849.00
702.3230, 52393.00
703.4780, 45492.00
704.6330, 38077.00
705.7880, 30965.00
706.9430, 25586.00
708.0970, 21195.00
709.2520, 18305.00
710.4060, 16217.00
711.5600, 14635.00
712.7140, 13338.00
713.8670, 12191.00
715.0210, 11510.00
716.1740, 10833.00
717.3270, 10397.00
718.4800, 10010.00
719.6330, 9602.000
720.7860, 9354.000
721.9380, 9221.000
723.0910, 8982.000
724.2430, 8801.000
725.3950, 8758.000
726.5470, 8520.000
727.6980, 8375.000
728.8500, 8349.000
730.0010, 8289.000
731.1530, 8132.000
732.3040, 8125.000
733.4550, 8199.000
734.6050, 8036.000
735.7560, 8037.000
736.9060, 7941.000
738.0560, 7998.000
739.2060, 7866.000
740.3560, 7949.000
741.5060, 7823.000
742.6560, 7805.000
743.8050, 7877.000
744.9540, 7795.000
746.1030, 7772.000
747.2520, 7823.000
748.4010, 7825.000
749.5500, 7684.000
750.6980, 7672.000
751.8460, 7743.000
752.9950, 7780.000
754.1420, 7682.000
755.2900, 7799.000
756.4380, 7668.000
757.5850, 7745.000
758.7330, 7651.000
759.8800, 7691.000
761.0270, 7727.000
762.1730, 7642.000
763.3200, 7593.000
764.4670, 7593.000
765.6130, 7651.000
766.7590, 7715.000
767.9050, 7780.000
769.0510, 7598.000
770.1960, 7629.000
771.3420, 7646.000
772.4870, 7669.000
773.6320, 7673.000
774.7770, 7789.000
775.9220, 7799.000
777.0670, 7874.000
778.2110, 7786.000
779.3560, 7768.000
780.5000, 7844.000
781.6440, 7834.000
782.7880, 7710.000
783.9320, 7673.000
785.0750, 7651.000
786.2180, 7656.000
787.3620, 7635.000
788.5050, 7628.493
789.6480, 7633.967
790.7900, 7613.000
791.9330, 7642.000
793.0750, 7641.000
794.2170, 7638.000
795.3590, 7619.000
796.5010, 7676.000
797.6430, 7612.000
798.7850, 7743.000
799.9260, 7740.000
801.0670, 7661.000
802.2080, 7776.000
803.3490, 7717.000
804.4900, 7728.000
805.6310, 7699.000
806.7710, 7693.000
807.9110, 7817.000
809.0510, 7813.000
810.1910, 7820.000
811.3310, 7754.000
812.4710, 7712.000
813.6100, 7733.000
814.7490, 7807.000
815.8880, 7863.000
817.0270, 7814.000
818.1660, 7833.000
819.3050, 7808.000
820.4430, 7859.000
821.5820, 7783.000
822.7200, 7796.000
823.8580, 7794.000
824.9950, 7918.000
826.1330, 7838.000
827.2710, 7808.000
828.4080, 7968.000
829.5450, 7927.000
830.6820, 7861.000
831.8190, 7784.000
832.9560, 7874.000
834.0920, 7870.000
835.2280, 7901.000
836.3650, 7906.000
837.5010, 7911.000
838.6360, 7936.000
839.7720, 7957.000
840.9080, 7974.161
842.0430, 7940.000
843.1780, 8007.000
844.3130, 8042.000
845.4480, 8038.414
846.5830, 7997.000
847.7170, 8035.000
848.8520, 7972.000
849.9860, 8016.000
851.1200, 7934.000
852.2540, 8141.000
853.3870, 8006.000
854.5210, 8150.000
855.6540, 8151.000
856.7880, 8052.000
857.9210, 8227.000
859.0540, 8136.000
860.1860, 8233.000
861.3190, 8133.000
862.4510, 8121.000
863.5840, 8141.000
864.7160, 8209.000
865.8480, 8238.000
866.9790, 8097.000
868.1110, 8241.000
869.2420, 8142.000
870.3740, 8318.000
871.5050, 8179.000
872.6360, 8227.000
873.7660, 8348.000
874.8970, 8237.000
876.0280, 8219.000
877.1580, 8198.000
878.2880, 8356.000
879.4180, 8340.000
880.5480, 8437.000
881.6770, 8603.000
882.8070, 8600.000
883.9360, 8578.000
885.0650, 8634.000
886.1940, 8679.000
887.3230, 8800.000
888.4520, 8749.000
889.5800, 8794.000
890.7090, 8667.000
891.8370, 8546.000
892.9650, 8555.000
894.0930, 8504.000
895.2200, 8550.000
896.3480, 8499.000
897.4750, 8422.000
898.6020, 8432.000
899.7290, 8506.000
900.8560, 8462.000
901.9830, 8505.000
903.1090, 8238.000
904.2360, 8430.000
905.3620, 8529.000
906.4880, 8285.000
907.6140, 8451.000
908.7400, 8428.000
909.8650, 8447.000
910.9900, 8329.000
912.1160, 8453.000
913.2410, 8367.000
914.3660, 8394.000
915.4900, 8415.000
916.6150, 8416.000
917.7390, 8453.000
918.8640, 8455.249
919.9880, 8373.000
921.1120, 8486.000
922.2350, 8443.000
923.3590, 8481.000
924.4820, 8554.000
925.6060, 8603.000
926.7290, 8593.000
927.8520, 8621.468
928.9740, 8616.000
930.0970, 8607.000
931.2190, 8535.000
932.3420, 8508.000
933.4640, 8661.000
934.5860, 8594.000
935.7080, 8700.000
936.8290, 8681.000
937.9510, 8795.000
939.0720, 8805.516
940.1930, 8812.514
941.3140, 8830.000
942.4350, 8801.000
943.5560, 8768.000
944.6760, 8737.000
945.7960, 8738.238
946.9170, 8802.000
948.0370, 8771.000
949.1560, 8904.000
950.2760, 8980.000
951.3960, 8965.000
952.5150, 8952.000
953.6340, 9185.000
954.7530, 9114.000
955.8720, 9231.000
956.9910, 9106.000
958.1090, 9306.000
959.2280, 9226.000
960.3460, 9232.000
961.4640, 9379.000
962.5820, 9522.000
963.6990, 9470.000
964.8170, 9659.000
965.9340, 9738.000
967.0510, 10032.00
968.1690, 9912.000
969.2850, 10216.00
970.4020, 10263.00
971.5190, 10456.00
972.6350, 10875.00
973.7510, 11033.00
974.8670, 11532.00
975.9830, 11881.00
977.0990, 12565.00
978.2150, 13464.00
979.3300, 14396.00
980.4450, 15757.00
981.5600, 17349.00
982.6750, 19225.00
983.7900, 21395.00
984.9050, 23744.00
986.0190, 25548.00
987.1340, 26947.00
988.2480, 27873.00
989.3620, 29096.00
990.4750, 29536.00
991.5890, 29795.00
992.7020, 28910.00
993.8160, 27502.00
994.9290, 25059.00
996.0420, 22974.00
997.1550, 20131.00
998.2670, 17366.00
999.3800, 15593.00
1000.492, 14383.00
1001.604, 13397.00
1002.716, 12644.00
1003.828, 11892.00
1004.940, 11517.00
1006.051, 11154.00
1007.163, 10766.00
1008.274, 10606.00
1009.385, 10440.00
1010.496, 10333.00
1011.606, 10125.00
1012.717, 10108.00
1013.827, 9873.000
1014.937, 9982.000
1016.047, 10045.00
1017.157, 9985.000
1018.267, 9981.000
1019.377, 9990.000
1020.486, 10067.00
1021.595, 10083.00
1022.704, 10164.36
1023.813, 10340.00
1024.922, 10367.00
1026.030, 10532.00
1027.139, 10723.00
1028.247, 11088.00
1029.355, 11544.00
1030.463, 11816.00
1031.571, 12669.00
1032.678, 13197.00
1033.786, 14316.00
1034.893, 15571.00
1036.000, 17146.00
1037.107, 18632.00
1038.214, 20217.00
1039.321, 21386.00
1040.427, 21650.00
1041.533, 21083.00
1042.639, 19528.00
1043.745, 17915.00
1044.851, 16107.00
1045.957, 14604.00
1047.062, 13400.00
1048.168, 12536.00
1049.273, 11885.00
1050.378, 11461.00
1051.482, 11139.00
1052.587, 10777.00
1053.692, 10498.00
1054.796, 10391.00
1055.900, 10327.00
1057.004, 10347.00
1058.108, 10193.00
1059.212, 10107.00
1060.315, 10121.00
1061.418, 10071.00
1062.522, 10037.00
1063.625, 9905.000
1064.728, 9956.000
1065.830, 9881.000
1066.933, 9752.000
1068.035, 9814.000
1069.137, 9896.000
1070.239, 9750.000
1071.341, 9849.000
1072.443, 9770.000
1073.545, 9882.000
1074.646, 9872.000
1075.747, 10052.00
1076.848, 10177.00
1077.949, 10219.00
1079.050, 10259.00
1080.150, 10430.00
1081.251, 10709.00
1082.351, 10800.00
1083.451, 10998.00
1084.551, 11514.00
1085.651, 11206.78
1086.750, 11637.00
1087.850, 10758.00
1088.949, 10333.00
1090.048, 10063.00
1091.147, 9806.000
1092.246, 9839.000
1093.345, 9800.000
1094.443, 9714.000
1095.541, 9800.000
1096.639, 9819.000
1097.737, 9672.000
1098.835, 9694.000
1099.933, 9748.000
1101.030, 9635.000
1102.128, 9724.000
1103.225, 9648.000
1104.322, 9782.000
1105.419, 9669.000
1106.515, 9698.000
1107.612, 9734.000
1108.708, 9704.000
1109.804, 9703.000
1110.900, 9777.000
1111.996, 9735.000
1113.092, 9775.000
1114.187, 9781.000
1115.283, 9793.768
1116.378, 9972.000
1117.473, 9874.000
1118.568, 10007.00
1119.662, 10125.00
1120.757, 10003.00
1121.851, 10215.00
1122.946, 10258.00
1124.040, 10176.00
1125.134, 9902.000
1126.227, 10067.00
1127.321, 9935.000
1128.414, 9936.000
1129.508, 9909.000
1130.601, 9822.000
1131.693, 9890.000
1132.786, 9681.000
1133.879, 10148.00
1134.971, 9913.000
1136.064, 9979.000
1137.156, 9844.000
1138.248, 9834.000
1139.339, 9816.000
1140.431, 9820.000
1141.522, 9920.000
1142.614, 9994.000
1143.705, 9792.000
1144.796, 9732.000
1145.887, 9843.000
1146.977, 9922.000
1148.068, 9956.000
1149.158, 9880.000
1150.248, 9863.000
1151.338, 9927.000
1152.428, 9922.000
1153.518, 9918.284
1154.607, 9935.000
1155.696, 9922.000
1156.785, 9957.000
1157.874, 10017.00
1158.963, 9927.000
1160.052, 9998.000
1161.141, 10072.00
1162.229, 10025.00
1163.317, 9821.000
1164.405, 9941.000
1165.493, 9933.000
1166.581, 10053.00
1167.668, 10161.00
1168.756, 9994.000
1169.843, 10027.00
1170.930, 10001.00
1172.017, 10000.00
1173.103, 10001.00
1174.190, 10101.00
1175.276, 10070.00
1176.363, 9929.000
1177.449, 10037.00
1178.535, 10022.00
1179.620, 10000.00
1180.706, 10050.00
1181.791, 10039.11
1182.877, 10009.00
1183.962, 10088.00
1185.047, 10060.00
1186.131, 10122.00
1187.216, 10034.00
1188.300, 10020.00
1189.385, 10104.00
1190.469, 10105.00
1191.553, 10085.00
1192.637, 10133.00
1193.720, 10076.00
1194.804, 10002.00
1195.887, 10106.00
1196.970, 10044.04
1198.053, 10196.00
1199.136, 10069.00
1200.219, 10141.00
1201.301, 10214.00
1202.383, 10315.00
1203.465, 10157.00
1204.547, 10240.00
1205.629, 10221.00
1206.711, 10303.00
1207.792, 10244.00
1208.874, 10262.00
1209.955, 10262.00
1211.036, 10168.00
1212.117, 10144.00
1213.198, 10199.00
1214.278, 10235.00
1215.359, 10308.00
1216.439, 10271.00
1217.519, 10263.00
1218.599, 10409.00
1219.678, 10313.00
1220.758, 10335.00
1221.837, 10286.00
1222.917, 10257.00
1223.996, 10354.00
1225.075, 10425.00
1226.153, 10430.00
1227.232, 10343.00
1228.310, 10386.00
1229.389, 10372.00
1230.467, 10332.00
1231.545, 10479.00
1232.622, 10348.00
1233.700, 10353.00
1234.777, 10306.00
1235.855, 10409.00
1236.932, 10433.00
1238.009, 10490.00
1239.086, 10360.00
1240.162, 10336.00
1241.239, 10386.00
1242.315, 10450.00
1243.391, 10478.00
1244.467, 10611.00
1245.543, 10469.00
1246.619, 10484.00
1247.694, 10513.00
1248.769, 10609.00
1249.844, 10514.00
1250.919, 10391.00
1251.994, 10467.00
1253.069, 10451.00
1254.144, 10458.00
1255.218, 10417.00
1256.292, 10516.00
1257.366, 10559.00
1258.440, 10402.00
1259.514, 10587.00
1260.587, 10397.00
1261.661, 10578.00
1262.734, 10441.00
1263.807, 10560.00
1264.880, 10576.00
1265.952, 10502.00
1267.025, 10571.00
1268.097, 10564.00
1269.170, 10525.00
1270.242, 10581.00
1271.314, 10606.00
1272.385, 10551.00
1273.457, 10539.00
1274.528, 10656.00
1275.600, 10465.00
1276.671, 10594.00
1277.742, 10704.00
1278.812, 10480.00
1279.883, 10606.00
1280.954, 10557.00
1282.024, 10722.00
1283.094, 10614.00
1284.164, 10779.00
1285.234, 10795.00
1286.303, 10632.00
1287.373, 10634.00
1288.442, 10717.00
1289.511, 10876.00
1290.580, 10625.00
1291.649, 10832.00
1292.718, 10740.00
1293.786, 10704.00
1294.855, 10892.00
1295.923, 10806.00
1296.991, 10757.00
1298.059, 10855.00
1299.126, 10741.00
1300.194, 10962.00
1301.261, 10821.00
1302.328, 10856.00
1303.395, 10700.00
1304.462, 10809.00
1305.529, 10760.00
1306.596, 10852.00
1307.662, 10744.00
1308.728, 10951.00
1309.794, 10872.00
1310.860, 10903.00
1311.926, 10992.00
1312.991, 10840.00
1314.057, 10919.00
1315.122, 11037.00
1316.187, 11120.00
1317.252, 10901.00
1318.317, 11097.00
1319.381, 11003.00
1320.446, 10894.00
1321.510, 11088.00
1322.574, 11140.00
1323.638, 10982.00
1324.702, 10981.00
1325.766, 11051.00
1326.829, 10968.00
1327.892, 11116.00
1328.956, 10983.00
1330.019, 11065.00
1331.081, 11143.00
1332.144, 11067.00
1333.206, 11136.00
1334.269, 11085.00
1335.331, 11071.00
1336.393, 11113.00
1337.455, 11187.00
1338.516, 11196.00
1339.578, 11215.00
1340.639, 11206.00
1341.701, 11231.00
1342.762, 11181.00
1343.822, 11267.00
1344.883, 11288.00
1345.944, 11303.00
1347.004, 11140.00
1348.064, 11198.00
1349.124, 11165.00
1350.184, 11205.00
1351.244, 11297.00
1352.304, 11364.00
1353.363, 11277.00
1354.422, 11326.00
1355.481, 11312.00
1356.540, 11348.00
1357.599, 11279.00
1358.657, 11385.00
1359.716, 11146.00
1360.774, 11151.00
1361.832, 11305.00
1362.890, 11382.00
1363.948, 11253.00
1365.006, 11273.00
1366.063, 11281.00
1367.120, 11381.00
1368.178, 11350.00
1369.234, 11457.00
1370.291, 11385.00
1371.348, 11426.00
1372.404, 11358.00
1373.461, 11490.00
1374.517, 11334.00
1375.573, 11409.00
1376.629, 11322.00
1377.684, 11526.00
1378.740, 11342.00
1379.795, 11412.00
1380.850, 11338.00
1381.905, 11513.00
1382.960, 11398.00
1384.015, 11452.00
1385.070, 11561.00
1386.124, 11569.00
1387.178, 11635.00
1388.232, 11565.00
1389.286, 11595.18
1390.340, 11484.00
1391.393, 11587.00
1392.447, 11590.00
1393.500, 11592.00
1394.553, 11521.00
1395.606, 11564.00
1396.659, 11608.00
1397.711, 11650.00
1398.764, 11696.25
1399.816, 11604.00
1400.868, 11759.00
1401.920, 11614.00
1402.972, 11566.00
1404.023, 11655.00
1405.075, 11618.00
1406.126, 11589.00
1407.177, 11619.00
1408.228, 11658.00
1409.279, 11529.00
1410.330, 11670.00
1411.380, 11764.00
1412.431, 11773.00
1413.481, 11660.00
1414.531, 11715.00
1415.580, 11839.00
1416.630, 11633.00
1417.680, 11686.00
1418.729, 11852.00
1419.778, 11792.00
1420.827, 11751.00
1421.876, 11744.00
1422.925, 11845.00
1423.973, 11832.00
1425.022, 11949.00
1426.070, 11832.00
1427.118, 11896.00
1428.166, 12034.00
1429.214, 11910.00
1430.261, 11980.00
1431.309, 11963.00
1432.356, 11908.00
1433.403, 11872.00
1434.450, 12046.00
1435.497, 11955.00
1436.543, 12048.00
1437.590, 12041.00
1438.636, 12049.84
1439.682, 12033.00
1440.728, 12074.00
1441.774, 12104.00
1442.819, 12072.00
1443.865, 12061.00
1444.910, 12140.00
1445.955, 12058.00
1447.000, 12056.00
1448.045, 12171.00
1449.090, 12055.00
1450.134, 12057.00
1451.178, 12178.00
1452.223, 12103.00
1453.267, 12107.00
1454.310, 12036.00
1455.354, 12146.00
1456.398, 12150.00
1457.441, 12188.00
1458.484, 12172.00
1459.527, 12123.00
1460.570, 12234.00
1461.613, 12109.00
1462.655, 12253.00
1463.698, 12151.00
1464.740, 12095.00
1465.782, 12178.00
1466.824, 12211.00
1467.866, 12112.00
1468.907, 12173.00
1469.948, 12080.00
1470.990, 12247.00
1472.031, 12175.00
1473.072, 12095.00
1474.112, 12137.00
1475.153, 12308.00
1476.194, 12201.00
1477.234, 12038.00
1478.274, 12239.00
1479.314, 12432.00
1480.354, 12199.00
1481.393, 12177.00
1482.433, 12238.00
1483.472, 12238.00
1484.511, 12205.00
1485.550, 12102.00
1486.589, 12219.00
1487.628, 12167.00
1488.666, 12288.00
1489.704, 12271.00
1490.743, 12349.00
1491.781, 12373.00
1492.819, 12276.00
1493.856, 12329.00
1494.894, 12201.00
1495.931, 12403.00
1496.968, 12337.00
1498.005, 12269.00
1499.042, 12274.00
1500.079, 12393.00
1501.115, 12372.00
1502.152, 12451.00
1503.188, 12422.00
1504.224, 12413.86
1505.260, 12469.00
1506.296, 12406.00
1507.331, 12348.00
1508.367, 12435.00
1509.402, 12502.00
1510.437, 12413.00
1511.472, 12471.00
1512.507, 12522.00
1513.541, 12587.00
1514.576, 12505.00
1515.610, 12538.00
1516.644, 12506.31
1517.678, 12470.91
1518.712, 12453.00
1519.746, 12419.00
1520.779, 12414.00
1521.813, 12406.00
1522.846, 12440.00
1523.879, 12433.55
1524.912, 12488.00
1525.944, 12472.00
1526.977, 12515.00
1528.009, 12584.00
1529.041, 12504.00
1530.073, 12546.00
1531.105, 12528.00
1532.137, 12462.00
1533.168, 12528.00
1534.200, 12469.00
1535.231, 12580.00
1536.262, 12721.00
1537.293, 12503.00
1538.324, 12682.00
1539.354, 12552.00
1540.385, 12649.00
1541.415, 12682.00
1542.445, 12619.00
1543.475, 12755.00
1544.505, 12630.00
1545.534, 12589.00
1546.564, 12589.00
1547.593, 12680.00
1548.622, 12684.00
1549.651, 12713.00
1550.680, 12742.99
1551.708, 12746.00
1552.737, 12777.00
1553.765, 12840.00
1554.793, 12876.00
1555.821, 12695.00
1556.849, 12797.00
1557.877, 12779.00
1558.904, 12697.00
1559.932, 12873.00
1560.959, 12769.00
1561.986, 12878.00
1563.013, 12797.00
1564.039, 12923.00
1565.066, 12769.00
1566.092, 12829.00
1567.119, 12906.00
1568.145, 12916.00
1569.170, 12866.00
1570.196, 12807.00
##END=



