##NAMES=Jadeite
##RRUFFID=R050220
##IDEAL CHEMISTRY=NaAlSi_2_O_6_
##LOCALITY=Clear Creek, San Benito County, California, USA
##OWNER=RRUFF
##SOURCE=Hatt Yoder
##DESCRIPTION=Aggregate of colorless bladed crystals
##STATUS=The identification of this mineral has been confirmed by X-ray diffraction and chemical analysis
##URL=rruff.info/R050220
##MEASURED CHEMISTRY=Na_1.00_Al_1.00_(Si_0.99_Al_0.01_)_2_O_6_
##PIN_ID=L00822
##ORIENTATION=Laser parallel to (1 0 1). Fiducial mark perpendicular to laser is parallel to -b [0 -1 0]
112.9460, 13088.00
114.1820, 13252.00
115.4170, 13502.00
116.6530, 13557.00
117.8880, 13590.00
119.1230, 13470.00
120.3580, 13586.00
121.5920, 13700.00
122.8270, 13913.00
124.0610, 14064.00
125.2950, 14052.00
126.5290, 14075.00
127.7630, 14408.00
128.9970, 14604.00
130.2300, 14629.00
131.4640, 14600.00
132.6970, 14899.00
133.9300, 14879.00
135.1630, 15236.00
136.3950, 15248.00
137.6280, 15465.00
138.8600, 15703.00
140.0920, 16021.00
141.3240, 16433.00
142.5560, 16690.00
143.7880, 16868.00
145.0190, 16872.00
146.2510, 16652.00
147.4820, 16376.00
148.7130, 16030.00
149.9440, 15804.00
151.1750, 15762.00
152.4050, 15665.00
153.6360, 15609.00
154.8660, 15625.00
156.0960, 15574.00
157.3260, 15520.00
158.5560, 15681.00
159.7850, 15658.00
161.0150, 15685.00
162.2440, 15606.00
163.4730, 15732.00
164.7020, 15793.00
165.9310, 15760.00
167.1590, 15823.00
168.3880, 15921.00
169.6160, 15902.00
170.8440, 15807.00
172.0720, 15941.00
173.3000, 16031.00
174.5280, 15841.00
175.7550, 15941.00
176.9820, 16229.00
178.2100, 16347.00
179.4370, 16193.00
180.6630, 16051.00
181.8900, 16033.00
183.1170, 16121.00
184.3430, 16319.00
185.5690, 16281.00
186.7950, 16395.00
188.0210, 16411.00
189.2470, 16570.00
190.4720, 16856.00
191.6970, 17105.00
192.9230, 17425.00
194.1480, 17606.00
195.3730, 17433.00
196.5970, 17297.00
197.8220, 17459.00
199.0460, 17780.00
200.2700, 18466.00
201.4940, 19418.00
202.7180, 20781.00
203.9420, 22250.00
205.1660, 22385.00
206.3890, 22549.00
207.6120, 21456.00
208.8350, 19489.00
210.0580, 18105.00
211.2810, 17452.00
212.5040, 17315.00
213.7260, 17086.00
214.9480, 17076.00
216.1700, 17045.00
217.3920, 16946.00
218.6140, 17023.00
219.8360, 17168.00
221.0570, 17282.00
222.2790, 17170.00
223.5000, 17366.00
224.7210, 17295.00
225.9410, 17355.00
227.1620, 17063.00
228.3820, 17052.00
229.6030, 16982.00
230.8230, 17217.00
232.0430, 17073.00
233.2630, 17294.00
234.4820, 17203.00
235.7020, 17112.00
236.9210, 17198.00
238.1400, 17440.00
239.3590, 17395.00
240.5780, 17203.00
241.7970, 17529.00
243.0150, 17374.00
244.2340, 17423.00
245.4520, 17568.00
246.6700, 17604.00
247.8880, 17723.63
249.1060, 17897.00
250.3230, 17984.00
251.5400, 18166.00
252.7580, 18397.00
253.9750, 18975.00
255.1920, 19558.00
256.4080, 19575.00
257.6250, 19391.00
258.8410, 18797.00
260.0580, 18374.00
261.2740, 18208.00
262.4900, 18053.00
263.7050, 17898.00
264.9210, 17925.00
266.1360, 17888.00
267.3520, 18022.00
268.5670, 18048.00
269.7820, 17935.00
270.9960, 18105.00
272.2110, 18168.00
273.4250, 18064.00
274.6400, 17942.00
275.8540, 18089.00
277.0680, 18234.00
278.2810, 18503.00
279.4950, 18218.00
280.7090, 18340.00
281.9220, 18384.00
283.1350, 18418.00
284.3480, 18659.00
285.5610, 18774.00
286.7730, 18866.00
287.9860, 19052.00
289.1980, 19431.00
290.4100, 19716.00
291.6220, 19891.00
292.8340, 20135.00
294.0460, 20309.00
295.2570, 20116.00
296.4690, 20081.00
297.6800, 19981.00
298.8910, 19947.00
300.1020, 19803.00
301.3120, 19986.00
302.5230, 19955.00
303.7330, 20232.00
304.9440, 20456.00
306.1540, 20862.00
307.3630, 21151.00
308.5730, 21731.00
309.7830, 22112.00
310.9920, 22319.00
312.2010, 21906.00
313.4100, 21773.00
314.6190, 21385.00
315.8280, 21082.00
317.0370, 20816.00
318.2450, 20919.00
319.4530, 20963.00
320.6610, 21327.00
321.8690, 21729.00
323.0770, 22463.00
324.2850, 23212.00
325.4920, 24649.00
326.6990, 26441.00
327.9060, 28731.00
329.1130, 29921.00
330.3200, 29354.00
331.5270, 26994.00
332.7330, 24758.00
333.9390, 23166.00
335.1450, 21980.00
336.3510, 21351.00
337.5570, 20827.00
338.7630, 20715.00
339.9680, 20638.00
341.1740, 20156.00
342.3790, 20163.00
343.5840, 20187.00
344.7890, 20187.00
345.9930, 20110.00
347.1980, 20046.00
348.4020, 20149.00
349.6060, 20090.00
350.8100, 20194.00
352.0140, 20252.00
353.2180, 20431.00
354.4210, 20497.50
355.6250, 20572.00
356.8280, 20693.00
358.0310, 20899.49
359.2340, 20867.00
360.4360, 21475.00
361.6390, 21812.00
362.8410, 22299.00
364.0430, 23146.00
365.2450, 24046.00
366.4470, 24954.00
367.6490, 26002.00
368.8510, 28047.00
370.0520, 30491.00
371.2530, 33984.00
372.4540, 37745.00
373.6550, 42183.00
374.8560, 44474.00
376.0560, 44005.00
377.2570, 41573.00
378.4570, 38494.00
379.6570, 35842.00
380.8570, 34383.00
382.0570, 33454.00
383.2560, 33686.00
384.4560, 34150.00
385.6550, 34203.00
386.8540, 33019.00
388.0530, 31042.00
389.2520, 28517.00
390.4510, 26847.00
391.6490, 25241.00
392.8470, 24071.00
394.0450, 23375.00
395.2430, 22666.00
396.4410, 22482.00
397.6390, 22159.00
398.8360, 22211.00
400.0340, 21770.00
401.2310, 21856.00
402.4280, 21479.00
403.6250, 21598.00
404.8210, 21519.00
406.0180, 21546.00
407.2140, 21587.00
408.4100, 21586.59
409.6060, 21617.55
410.8020, 21641.00
411.9980, 21645.00
413.1930, 21629.00
414.3890, 21617.00
415.5840, 21848.00
416.7790, 21881.00
417.9740, 22074.00
419.1680, 21889.00
420.3630, 22075.00
421.5570, 22325.00
422.7510, 22282.00
423.9450, 22484.00
425.1390, 22642.00
426.3330, 22873.00
427.5270, 23147.00
428.7200, 23492.00
429.9130, 23761.00
431.1060, 24226.00
432.2990, 24447.00
433.4920, 24350.00
434.6840, 24427.00
435.8770, 24221.00
437.0690, 24107.00
438.2610, 23732.00
439.4530, 23463.77
440.6450, 22959.00
441.8360, 22782.00
443.0280, 22585.00
444.2190, 22312.00
445.4100, 22403.00
446.6010, 22188.00
447.7920, 22058.00
448.9820, 22183.00
450.1730, 22077.00
451.3630, 21978.00
452.5530, 22217.00
453.7430, 21904.00
454.9330, 22221.00
456.1230, 22098.00
457.3120, 22010.00
458.5010, 22148.00
459.6910, 22179.00
460.8800, 22158.00
462.0680, 22002.00
463.2570, 22189.00
464.4460, 22196.00
465.6340, 22359.00
466.8220, 22262.00
468.0100, 22303.00
469.1980, 22379.00
470.3860, 22444.00
471.5730, 22468.00
472.7600, 22230.00
473.9480, 22329.00
475.1350, 22468.00
476.3210, 22361.00
477.5080, 22524.00
478.6950, 22373.00
479.8810, 22364.00
481.0670, 22526.00
482.2530, 22478.00
483.4390, 22490.00
484.6250, 22522.00
485.8100, 22547.00
486.9960, 22542.00
488.1810, 22565.00
489.3660, 22582.06
490.5510, 22684.00
491.7360, 22669.00
492.9200, 22653.00
494.1050, 22793.00
495.2890, 22912.00
496.4730, 22776.00
497.6570, 23036.00
498.8400, 22839.00
500.0240, 22908.00
501.2070, 22965.00
502.3910, 23133.00
503.5740, 23181.00
504.7570, 23269.00
505.9400, 23172.00
507.1220, 23290.00
508.3050, 23264.00
509.4870, 23533.00
510.6690, 23525.00
511.8510, 23408.00
513.0330, 23482.00
514.2140, 23948.00
515.3960, 23851.00
516.5770, 24025.00
517.7580, 24022.00
518.9390, 24481.00
520.1200, 24935.00
521.3010, 25384.00
522.4810, 25749.00
523.6610, 26047.00
524.8420, 26077.47
526.0220, 26188.00
527.2010, 25752.00
528.3810, 25318.00
529.5610, 24704.00
530.7400, 24306.00
531.9190, 24249.00
533.0980, 24295.00
534.2770, 24163.00
535.4560, 24083.00
536.6340, 23925.00
537.8120, 23880.00
538.9910, 24042.00
540.1690, 23989.00
541.3460, 23977.00
542.5240, 23867.00
543.7020, 24065.00
544.8790, 23951.00
546.0560, 23823.00
547.2330, 24180.00
548.4100, 24100.00
549.5870, 24142.00
550.7630, 24172.00
551.9400, 24159.00
553.1160, 24133.00
554.2920, 24216.73
555.4680, 24310.27
556.6440, 24361.00
557.8190, 24568.00
558.9950, 24631.00
560.1700, 24684.00
561.3450, 24622.00
562.5200, 24592.00
563.6950, 24574.00
564.8690, 24882.00
566.0440, 24656.00
567.2180, 24900.00
568.3920, 24777.00
569.5660, 24773.00
570.7400, 24880.00
571.9130, 24918.00
573.0870, 25009.00
574.2600, 25030.00
575.4330, 25150.00
576.6060, 25227.00
577.7790, 24971.00
578.9520, 25151.00
580.1240, 24931.00
581.2960, 24909.00
582.4690, 24948.00
583.6410, 24992.00
584.8120, 25183.00
585.9840, 24954.00
587.1560, 25134.00
588.3270, 25076.00
589.4980, 25265.00
590.6690, 25223.00
591.8400, 25197.00
593.0110, 25198.00
594.1810, 25095.00
595.3510, 25151.00
596.5220, 25108.00
597.6920, 25126.00
598.8610, 25143.37
600.0310, 25352.00
601.2010, 25205.00
602.3700, 25287.00
603.5390, 25393.00
604.7080, 25214.00
605.8770, 25612.00
607.0460, 25344.00
608.2140, 25624.00
609.3830, 25679.00
610.5510, 25688.00
611.7190, 25640.00
612.8870, 25464.00
614.0550, 25636.00
615.2220, 25578.00
616.3900, 25592.00
617.5570, 25964.00
618.7240, 25904.00
619.8910, 26001.00
621.0580, 25813.00
622.2240, 25945.00
623.3910, 26273.00
624.5570, 26035.00
625.7230, 26331.00
626.8890, 26312.00
628.0550, 26266.00
629.2200, 26118.00
630.3860, 26078.00
631.5510, 26323.00
632.7160, 26349.00
633.8810, 26260.00
635.0460, 26183.00
636.2100, 26461.00
637.3750, 26371.00
638.5390, 26438.00
639.7030, 26283.00
640.8670, 26421.06
642.0310, 26454.00
643.1950, 26657.00
644.3580, 26691.00
645.5210, 26805.00
646.6850, 26539.00
647.8480, 26797.00
649.0100, 26678.00
650.1730, 26760.00
651.3350, 26804.00
652.4980, 27034.00
653.6600, 26585.00
654.8220, 26928.00
655.9840, 26777.00
657.1450, 26843.00
658.3070, 26826.00
659.4680, 26835.00
660.6300, 26872.03
661.7910, 26954.00
662.9510, 26895.00
664.1120, 27110.00
665.2730, 27076.00
666.4330, 26999.00
667.5930, 27303.00
668.7530, 27213.00
669.9130, 27142.00
671.0730, 27217.00
672.2320, 27289.00
673.3920, 27376.00
674.5510, 27513.00
675.7100, 27490.00
676.8690, 27482.00
678.0280, 27629.00
679.1860, 27610.00
680.3450, 27930.00
681.5030, 28010.00
682.6610, 28058.00
683.8190, 28099.00
684.9770, 28314.00
686.1340, 28634.00
687.2920, 29120.00
688.4490, 29274.00
689.6060, 29563.00
690.7630, 30336.00
691.9200, 31154.00
693.0760, 31937.00
694.2330, 33033.00
695.3890, 34834.00
696.5450, 36499.00
697.7010, 38616.00
698.8570, 40137.00
700.0130, 41249.00
701.1680, 40792.00
702.3230, 38933.00
703.4780, 36852.00
704.6330, 35229.00
705.7880, 33268.00
706.9430, 32289.00
708.0970, 31294.00
709.2520, 30683.00
710.4060, 30385.00
711.5600, 29803.00
712.7140, 29652.00
713.8670, 29313.00
715.0210, 29254.00
716.1740, 29158.00
717.3270, 28849.00
718.4800, 29061.00
719.6330, 28852.00
720.7860, 28948.00
721.9380, 28841.00
723.0910, 28753.00
724.2430, 28729.00
725.3950, 28872.00
726.5470, 28724.00
727.6980, 28752.00
728.8500, 28711.00
730.0010, 28943.00
731.1530, 28847.00
732.3040, 28947.00
733.4550, 28789.00
734.6050, 28797.00
735.7560, 28851.96
736.9060, 28831.98
738.0560, 28937.00
739.2060, 28935.00
740.3560, 28909.00
741.5060, 28964.00
742.6560, 28725.00
743.8050, 29066.00
744.9540, 28870.00
746.1030, 29006.00
747.2520, 29274.00
748.4010, 29170.00
749.5500, 29277.00
750.6980, 29312.00
751.8460, 29263.00
752.9950, 29308.00
754.1420, 29459.00
755.2900, 29377.00
756.4380, 29486.00
757.5850, 29473.00
758.7330, 29517.00
759.8800, 29644.00
761.0270, 29768.00
762.1730, 29777.00
763.3200, 29811.00
764.4670, 29768.00
765.6130, 29794.00
766.7590, 29781.00
767.9050, 30102.00
769.0510, 29902.00
770.1960, 29944.00
771.3420, 30294.00
772.4870, 30318.00
773.6320, 30239.00
774.7770, 30435.00
775.9220, 30313.00
777.0670, 30780.00
778.2110, 30997.00
779.3560, 31003.00
780.5000, 30904.00
781.6440, 31084.00
782.7880, 30950.00
783.9320, 30761.00
785.0750, 30439.00
786.2180, 30427.00
787.3620, 30201.00
788.5050, 30124.00
789.6480, 30144.00
790.7900, 30354.00
791.9330, 30028.00
793.0750, 30455.00
794.2170, 30433.00
795.3590, 30256.00
796.5010, 30585.00
797.6430, 30428.00
798.7850, 30440.00
799.9260, 30673.00
801.0670, 30580.00
802.2080, 30658.00
803.3490, 30581.00
804.4900, 30571.00
805.6310, 30681.00
806.7710, 30895.00
807.9110, 30791.00
809.0510, 30934.00
810.1910, 30842.00
811.3310, 30790.00
812.4710, 30821.00
813.6100, 31023.00
814.7490, 31018.00
815.8880, 31164.00
817.0270, 31197.00
818.1660, 31059.00
819.3050, 31068.00
820.4430, 31208.00
821.5820, 31208.00
822.7200, 31262.00
823.8580, 31322.80
824.9950, 31382.00
826.1330, 31352.00
827.2710, 31287.00
828.4080, 31176.00
829.5450, 31472.00
830.6820, 31551.00
831.8190, 31298.00
832.9560, 31520.00
834.0920, 31389.00
835.2280, 31750.00
836.3650, 31682.00
837.5010, 31505.00
838.6360, 31639.00
839.7720, 31665.00
840.9080, 31922.00
842.0430, 31758.00
843.1780, 31737.00
844.3130, 31845.00
845.4480, 32082.00
846.5830, 32077.00
847.7170, 32031.00
848.8520, 32178.00
849.9860, 32158.00
851.1200, 32041.00
852.2540, 32169.00
853.3870, 32413.00
854.5210, 32530.00
855.6540, 32504.00
856.7880, 32508.00
857.9210, 32605.00
859.0540, 32535.00
860.1860, 32487.00
861.3190, 32626.00
862.4510, 32793.00
863.5840, 32835.00
864.7160, 32855.59
865.8480, 32620.00
866.9790, 32808.00
868.1110, 32743.00
869.2420, 32764.00
870.3740, 32872.00
871.5050, 32777.00
872.6360, 32897.57
873.7660, 33071.00
874.8970, 33084.00
876.0280, 33093.00
877.1580, 33254.00
878.2880, 33242.00
879.4180, 32876.00
880.5480, 33341.00
881.6770, 33082.00
882.8070, 33268.00
883.9360, 33078.00
885.0650, 33325.00
886.1940, 33050.00
887.3230, 33384.00
888.4520, 33142.00
889.5800, 33360.00
890.7090, 33090.00
891.8370, 33394.00
892.9650, 33220.00
894.0930, 33176.00
895.2200, 33382.00
896.3480, 33473.00
897.4750, 33461.00
898.6020, 33513.00
899.7290, 33331.00
900.8560, 33437.00
901.9830, 33550.00
903.1090, 33548.00
904.2360, 33762.00
905.3620, 33518.00
906.4880, 33725.00
907.6140, 33632.00
908.7400, 33749.00
909.8650, 33557.00
910.9900, 33661.00
912.1160, 33637.00
913.2410, 33750.00
914.3660, 33959.00
915.4900, 33932.00
916.6150, 33951.00
917.7390, 34027.00
918.8640, 33824.00
919.9880, 34015.00
921.1120, 33851.00
922.2350, 33825.00
923.3590, 34110.00
924.4820, 34095.00
925.6060, 33958.00
926.7290, 34088.00
927.8520, 34143.00
928.9740, 34144.00
930.0970, 34339.00
931.2190, 34341.00
932.3420, 34401.00
933.4640, 34397.00
934.5860, 34471.00
935.7080, 34309.00
936.8290, 34648.00
937.9510, 34429.00
939.0720, 34490.00
940.1930, 34598.00
941.3140, 34531.00
942.4350, 34762.00
943.5560, 34781.00
944.6760, 34675.00
945.7960, 34889.00
946.9170, 34898.00
948.0370, 34931.00
949.1560, 34679.00
950.2760, 34833.00
951.3960, 35069.00
952.5150, 34828.00
953.6340, 35184.00
954.7530, 35351.00
955.8720, 35245.00
956.9910, 35235.00
958.1090, 35293.00
959.2280, 35324.00
960.3460, 35223.00
961.4640, 35336.44
962.5820, 35622.00
963.6990, 35447.00
964.8170, 35653.00
965.9340, 35674.00
967.0510, 35744.00
968.1690, 35686.00
969.2850, 35764.69
970.4020, 35801.93
971.5190, 35889.00
972.6350, 35968.00
973.7510, 36090.00
974.8670, 36289.00
975.9830, 36413.08
977.0990, 36655.00
978.2150, 36892.00
979.3300, 37119.00
980.4450, 37673.00
981.5600, 37691.00
982.6750, 38356.00
983.7900, 39068.00
984.9050, 39686.00
986.0190, 39676.00
987.1340, 39263.00
988.2480, 38913.00
989.3620, 38413.00
990.4750, 38153.72
991.5890, 37795.00
992.7020, 37623.00
993.8160, 37458.00
994.9290, 37275.00
996.0420, 37213.00
997.1550, 37379.00
998.2670, 37293.00
999.3800, 37327.00
1000.492, 37255.00
1001.604, 37296.00
1002.716, 37342.00
1003.828, 37335.00
1004.940, 37313.00
1006.051, 37337.00
1007.163, 37514.00
1008.274, 37356.00
1009.385, 37537.00
1010.496, 37450.00
1011.606, 37592.00
1012.717, 37775.00
1013.827, 37672.00
1014.937, 37755.00
1016.047, 38106.00
1017.157, 38021.00
1018.267, 38271.00
1019.377, 38493.00
1020.486, 38415.00
1021.595, 38779.00
1022.704, 39098.00
1023.813, 39255.00
1024.922, 39711.00
1026.030, 40264.00
1027.139, 40662.00
1028.247, 40926.00
1029.355, 41739.00
1030.463, 42591.00
1031.571, 44206.00
1032.678, 45630.00
1033.786, 47228.00
1034.893, 49819.00
1036.000, 52767.00
1037.107, 55783.00
1038.214, 58638.00
1039.321, 60547.00
1040.427, 60509.00
1041.533, 58480.00
1042.639, 55491.00
1043.745, 52375.00
1044.851, 49426.00
1045.957, 46748.00
1047.062, 45177.00
1048.168, 43714.00
1049.273, 42394.00
1050.378, 41718.00
1051.482, 41216.00
1052.587, 40570.00
1053.692, 40629.00
1054.796, 39827.00
1055.900, 40314.00
1057.004, 39743.00
1058.108, 39855.00
1059.212, 39315.00
1060.315, 39643.00
1061.418, 39381.00
1062.522, 39238.00
1063.625, 39097.00
1064.728, 39082.00
1065.830, 39179.00
1066.933, 39235.00
1068.035, 39567.00
1069.137, 39345.00
1070.239, 39142.00
1071.341, 39344.00
1072.443, 39084.00
1073.545, 39110.00
1074.646, 39322.00
1075.747, 39389.00
1076.848, 39402.00
1077.949, 39547.00
1079.050, 39458.00
1080.150, 39556.00
1081.251, 39496.45
1082.351, 39528.58
1083.451, 39573.29
1084.551, 39598.00
1085.651, 39637.00
1086.750, 39702.00
1087.850, 39704.00
1088.949, 39527.00
1090.048, 39436.00
1091.147, 39497.00
1092.246, 39666.00
1093.345, 39527.00
1094.443, 39563.00
1095.541, 39531.00
1096.639, 39396.00
1097.737, 39735.00
1098.835, 39341.00
1099.933, 39559.00
1101.030, 39830.00
1102.128, 39702.00
1103.225, 39797.00
1104.322, 39720.00
1105.419, 39666.00
1106.515, 39971.00
1107.612, 39651.00
1108.708, 39691.00
1109.804, 39888.00
1110.900, 39884.00
1111.996, 39983.00
1113.092, 40074.00
1114.187, 40157.98
1115.283, 40142.00
1116.378, 40372.00
1117.473, 40707.00
1118.568, 40805.00
1119.662, 40756.00
1120.757, 41147.00
1121.851, 41003.00
1122.946, 41156.00
1124.040, 41029.00
1125.134, 40688.00
1126.227, 40877.00
1127.321, 40548.00
1128.414, 40424.00
1129.508, 40584.00
1130.601, 40474.00
1131.693, 40557.00
1132.786, 40549.00
1133.879, 40373.00
1134.971, 40314.00
1136.064, 40529.00
1137.156, 40565.00
1138.248, 40819.00
1139.339, 40731.00
1140.431, 40570.00
1141.522, 40943.00
1142.614, 40787.00
1143.705, 40893.00
1144.796, 40886.00
1145.887, 41117.00
1146.977, 40971.00
1148.068, 40859.00
1149.158, 41143.00
1150.248, 40696.00
1151.338, 41247.00
1152.428, 40958.00
1153.518, 41174.00
1154.607, 41331.00
1155.696, 41133.00
1156.785, 41183.00
1157.874, 41185.00
1158.963, 41453.00
1160.052, 41063.00
1161.141, 41327.00
1162.229, 41497.00
1163.317, 41325.00
1164.405, 41487.00
1165.493, 41661.00
1166.581, 41556.00
1167.668, 41504.00
1168.756, 41715.00
1169.843, 41961.00
1170.930, 41764.00
1172.017, 41633.00
1173.103, 41865.00
1174.190, 41584.00
1175.276, 41816.00
1176.363, 41767.00
1177.449, 42051.00
1178.535, 42077.00
1179.620, 41893.00
1180.706, 42234.00
1181.791, 42268.00
1182.877, 42059.00
1183.962, 42063.00
1185.047, 42066.00
1186.131, 42082.00
1187.216, 42331.00
1188.300, 42381.00
1189.385, 42163.00
1190.469, 42254.00
1191.553, 42103.00
1192.637, 42517.00
1193.720, 42427.00
1194.804, 42310.00
1195.887, 42607.00
1196.970, 42448.00
1198.053, 42665.00
1199.136, 42781.00
1200.219, 42466.00
1201.301, 42641.00
1202.383, 42559.00
1203.465, 42727.00
1204.547, 42811.00
1205.629, 42672.00
1206.711, 42855.00
1207.792, 43158.00
1208.874, 42893.00
1209.955, 43130.00
1211.036, 42819.00
1212.117, 42895.00
1213.198, 42892.00
1214.278, 43176.00
1215.359, 42998.00
1216.439, 42841.00
1217.519, 43045.00
1218.599, 43286.00
1219.678, 43167.00
1220.758, 43341.00
1221.837, 43473.00
1222.917, 43382.00
1223.996, 43292.00
1225.075, 43441.00
1226.153, 43587.00
1227.232, 43554.00
1228.310, 43384.00
1229.389, 43592.00
1230.467, 43693.00
1231.545, 43494.00
1232.622, 43579.00
1233.700, 43828.00
1234.777, 43774.00
1235.855, 43696.00
1236.932, 43577.00
1238.009, 43911.00
1239.086, 43842.00
1240.162, 44043.00
1241.239, 43861.00
1242.315, 44024.00
1243.391, 43967.00
1244.467, 44358.00
1245.543, 44171.00
1246.619, 44185.00
1247.694, 44295.00
1248.769, 44139.00
1249.844, 44395.00
1250.919, 44378.00
1251.994, 44262.00
1253.069, 44208.00
1254.144, 44220.00
1255.218, 44161.17
1256.292, 44214.00
1257.366, 44176.00
1258.440, 44333.00
1259.514, 44448.00
1260.587, 44365.00
1261.661, 44530.00
1262.734, 44689.00
1263.807, 44654.00
1264.880, 44996.00
1265.952, 44871.00
1267.025, 44932.00
1268.097, 44943.00
1269.170, 44837.00
1270.242, 45126.00
1271.314, 44978.00
1272.385, 45164.00
1273.457, 44825.00
1274.528, 45150.00
1275.600, 45161.00
1276.671, 45027.00
1277.742, 45197.00
1278.812, 45275.00
1279.883, 45257.00
1280.954, 45163.00
1282.024, 45474.00
1283.094, 45303.00
1284.164, 45227.00
1285.234, 45511.00
1286.303, 45436.00
1287.373, 45383.00
1288.442, 45686.00
1289.511, 45628.00
1290.580, 45340.00
1291.649, 45513.00
1292.718, 45777.00
1293.786, 45444.00
1294.855, 45718.00
1295.923, 45762.00
1296.991, 45902.00
1298.059, 45869.00
1299.126, 45966.00
1300.194, 45771.00
1301.261, 45786.00
1302.328, 45875.01
1303.395, 46028.00
1304.462, 46057.00
1305.529, 46133.00
1306.596, 46160.00
1307.662, 46145.17
1308.728, 46048.00
1309.794, 46177.00
1310.860, 46228.00
1311.926, 46442.00
1312.991, 46659.00
1314.057, 46510.00
1315.122, 46660.00
1316.187, 46607.00
1317.252, 46614.00
1318.317, 46879.00
1319.381, 46773.00
1320.446, 46937.00
1321.510, 46838.00
1322.574, 46750.00
1323.638, 46840.00
1324.702, 46902.00
1325.766, 47022.00
1326.829, 46662.00
1327.892, 47095.00
1328.956, 47095.00
1330.019, 46821.00
1331.081, 47058.00
1332.144, 47157.00
1333.206, 46882.00
1334.269, 47267.00
1335.331, 46988.00
1336.393, 47112.00
1337.455, 47294.00
1338.516, 47503.00
1339.578, 47114.00
1340.639, 47257.00
1341.701, 47380.00
1342.762, 47616.00
1343.822, 47438.00
1344.883, 47504.00
1345.944, 47315.00
1347.004, 47350.00
1348.064, 47407.02
1349.124, 47732.00
1350.184, 47615.00
1351.244, 47645.00
1352.304, 47821.00
1353.363, 47748.00
1354.422, 47969.00
1355.481, 47664.00
1356.540, 47585.00
1357.599, 47733.00
1358.657, 47654.75
1359.716, 47710.00
1360.774, 47907.00
1361.832, 47923.00
1362.890, 48236.00
1363.948, 47872.00
1365.006, 47832.00
1366.063, 48195.00
1367.120, 48104.00
1368.178, 48133.00
1369.234, 48147.00
1370.291, 48458.00
1371.348, 48319.00
1372.404, 47918.00
1373.461, 48077.00
1374.517, 48385.00
1375.573, 48660.00
1376.629, 48513.00
1377.684, 48457.00
1378.740, 48262.00
1379.795, 48518.00
1380.850, 48447.00
1381.905, 48630.00
1382.960, 48777.00
1384.015, 48626.00
1385.070, 48613.00
1386.124, 48500.00
1387.178, 48619.00
1388.232, 49150.00
1389.286, 48733.00
1390.340, 48894.00
1391.393, 48509.00
1392.447, 49063.00
1393.500, 48859.00
1394.553, 49074.00
1395.606, 48954.00
1396.659, 49115.00
1397.711, 48867.00
1398.764, 48895.00
1399.816, 48997.00
1400.868, 49193.00
1401.920, 49020.00
1402.972, 49011.00
1404.023, 49260.00
1405.075, 49380.00
1406.126, 49288.00
1407.177, 49244.00
1408.228, 49488.00
1409.279, 49499.00
1410.330, 49399.00
1411.380, 49599.00
1412.431, 49591.00
1413.481, 49640.00
1414.531, 49857.00
1415.580, 49426.00
1416.630, 49804.00
1417.680, 49490.00
1418.729, 49589.00
1419.778, 49610.00
1420.827, 49636.00
1421.876, 49734.00
1422.925, 49883.00
1423.973, 49662.00
1425.022, 49969.00
1426.070, 50043.00
1427.118, 49792.00
1428.166, 50273.00
1429.214, 50108.00
1430.261, 50047.00
1431.309, 49871.00
1432.356, 50273.00
1433.403, 50277.00
1434.450, 50538.00
1435.497, 50483.00
1436.543, 50529.00
1437.590, 50701.00
1438.636, 50587.00
1439.682, 50570.00
1440.728, 50713.20
1441.774, 50820.00
1442.819, 50945.00
1443.865, 50800.00
1444.910, 50892.00
1445.955, 50734.00
1447.000, 50962.00
1448.045, 51274.00
1449.090, 51129.00
1450.134, 50984.00
1451.178, 51254.00
1452.223, 51298.00
1453.267, 51445.00
1454.310, 51313.00
1455.354, 51354.00
1456.398, 51435.00
1457.441, 51464.00
1458.484, 51597.00
1459.527, 51468.00
1460.570, 51447.00
1461.613, 51461.00
1462.655, 51311.00
1463.698, 51160.00
1464.740, 51349.00
1465.782, 51289.00
1466.824, 51215.00
1467.866, 51642.00
1468.907, 51392.00
1469.948, 51336.00
1470.990, 51545.00
1472.031, 51402.00
1473.072, 51239.00
1474.112, 51873.00
1475.153, 51844.00
1476.194, 51931.00
1477.234, 51726.00
1478.274, 51570.00
1479.314, 51814.00
1480.354, 52010.00
1481.393, 51868.00
1482.433, 51748.00
1483.472, 51884.00
1484.511, 51917.00
1485.550, 51857.00
1486.589, 52044.00
1487.628, 52119.00
1488.666, 51882.00
1489.704, 52006.00
1490.743, 52113.00
1491.781, 51908.00
1492.819, 52156.00
1493.856, 52227.00
1494.894, 52118.00
1495.931, 52388.00
1496.968, 52071.00
1498.005, 52324.00
1499.042, 52268.00
1500.079, 52616.00
1501.115, 52463.00
1502.152, 52510.00
1503.188, 52428.00
1504.224, 52453.79
1505.260, 52486.35
1506.296, 52510.00
1507.331, 52560.00
1508.367, 52529.00
1509.402, 52529.00
1510.437, 52568.00
1511.472, 52483.00
1512.507, 52549.00
1513.541, 52429.00
1514.576, 52890.00
1515.610, 52848.00
1516.644, 52867.00
1517.678, 52826.00
1518.712, 52848.00
1519.746, 53114.00
1520.779, 52858.00
1521.813, 52676.00
1522.846, 53353.00
1523.879, 52593.00
1524.912, 53144.00
1525.944, 53355.00
1526.977, 53321.00
1528.009, 53183.00
1529.041, 53406.00
1530.073, 53315.00
1531.105, 53330.00
1532.137, 53521.00
1533.168, 53375.00
1534.200, 53505.00
1535.231, 53512.00
1536.262, 53318.00
1537.293, 53409.00
1538.324, 53719.00
1539.354, 53791.00
1540.385, 53632.00
1541.415, 53964.00
1542.445, 53593.00
1543.475, 53791.00
1544.505, 53664.00
1545.534, 53845.00
1546.564, 53609.00
1547.593, 53749.00
1548.622, 53890.00
1549.651, 53793.00
1550.680, 54190.00
1551.708, 53848.00
1552.737, 54389.00
1553.765, 54216.00
1554.793, 54352.00
1555.821, 54123.00
1556.849, 54144.00
1557.877, 54307.00
1558.904, 54271.00
1559.932, 54258.00
1560.959, 54331.00
1561.986, 54402.00
1563.013, 54237.00
1564.039, 54614.00
1565.066, 54395.00
1566.092, 54443.00
1567.119, 54281.00
1568.145, 54679.00
1569.170, 54213.00
1570.196, 54912.00
##END=



