##NAMES=Jadeite
##RRUFFID=R050220
##IDEAL CHEMISTRY=NaAlSi_2_O_6_
##LOCALITY=Clear Creek, San Benito County, California, USA
##OWNER=RRUFF
##SOURCE=Hatt Yoder
##DESCRIPTION=Aggregate of colorless bladed crystals
##STATUS=The identification of this mineral has been confirmed by X-ray diffraction and chemical analysis
##URL=rruff.info/R050220
##MEASURED CHEMISTRY=Na_1.00_Al_1.00_(Si_0.99_Al_0.01_)_2_O_6_
##PIN_ID=L00822
##ORIENTATION=Laser parallel to (1 0 1). Fiducial mark perpendicular to laser is parallel to -b [0 -1 0]
112.9460, 13994.00
114.1820, 14131.00
115.4170, 14252.29
116.6530, 14492.00
117.8880, 14512.00
119.1230, 14606.00
120.3580, 14637.00
121.5920, 14750.00
122.8270, 14826.29
124.0610, 15035.00
125.2950, 15072.00
126.5290, 15191.00
127.7630, 15451.00
128.9970, 15534.00
130.2300, 15715.00
131.4640, 15679.00
132.6970, 15883.00
133.9300, 16083.00
135.1630, 16133.00
136.3950, 16355.00
137.6280, 16520.00
138.8600, 17188.00
140.0920, 17662.00
141.3240, 17948.00
142.5560, 18870.00
143.7880, 19883.00
145.0190, 20976.00
146.2510, 20620.00
147.4820, 19602.00
148.7130, 18257.00
149.9440, 17689.00
151.1750, 17136.00
152.4050, 16892.00
153.6360, 16773.00
154.8660, 16473.00
156.0960, 16550.00
157.3260, 16528.00
158.5560, 16480.00
159.7850, 16644.00
161.0150, 16647.00
162.2440, 16703.00
163.4730, 16558.00
164.7020, 16887.00
165.9310, 16697.00
167.1590, 16785.00
168.3880, 16916.00
169.6160, 16958.00
170.8440, 16967.00
172.0720, 17110.00
173.3000, 16855.00
174.5280, 17025.00
175.7550, 16988.00
176.9820, 17248.00
178.2100, 17272.00
179.4370, 17088.00
180.6630, 17162.00
181.8900, 17114.00
183.1170, 17216.00
184.3430, 17428.00
185.5690, 17367.00
186.7950, 17453.00
188.0210, 17529.00
189.2470, 17856.00
190.4720, 18114.00
191.6970, 18425.00
192.9230, 18799.00
194.1480, 19124.00
195.3730, 19254.00
196.5970, 19370.00
197.8220, 19870.00
199.0460, 20841.00
200.2700, 22225.00
201.4940, 25079.00
202.7180, 29787.00
203.9420, 33852.00
205.1660, 32487.00
206.3890, 28973.00
207.6120, 25441.00
208.8350, 22663.00
210.0580, 20466.00
211.2810, 19459.00
212.5040, 18831.00
213.7260, 18550.00
214.9480, 18300.00
216.1700, 18277.00
217.3920, 18161.00
218.6140, 18335.00
219.8360, 18164.00
221.0570, 18242.00
222.2790, 18367.00
223.5000, 18440.00
224.7210, 18387.00
225.9410, 18361.00
227.1620, 18362.23
228.3820, 18218.00
229.6030, 18287.00
230.8230, 18350.00
232.0430, 18261.00
233.2630, 18361.00
234.4820, 18262.00
235.7020, 18380.00
236.9210, 18371.00
238.1400, 18360.00
239.3590, 18431.00
240.5780, 18431.00
241.7970, 18538.00
243.0150, 18474.00
244.2340, 18595.23
245.4520, 18656.00
246.6700, 18801.00
247.8880, 18816.00
249.1060, 18944.00
250.3230, 19084.00
251.5400, 19140.00
252.7580, 19615.00
253.9750, 20284.00
255.1920, 20676.00
256.4080, 20889.00
257.6250, 20730.00
258.8410, 20344.00
260.0580, 19854.00
261.2740, 19293.00
262.4900, 19212.00
263.7050, 19131.00
264.9210, 19103.00
266.1360, 19156.00
267.3520, 19134.00
268.5670, 19087.00
269.7820, 19106.00
270.9960, 19243.00
272.2110, 19071.00
273.4250, 19262.00
274.6400, 19320.00
275.8540, 19349.00
277.0680, 19230.00
278.2810, 19391.00
279.4950, 19324.00
280.7090, 19516.00
281.9220, 19553.00
283.1350, 19716.00
284.3480, 19706.00
285.5610, 19809.00
286.7730, 19985.00
287.9860, 20039.00
289.1980, 20507.00
290.4100, 20613.00
291.6220, 20928.00
292.8340, 21069.00
294.0460, 21273.00
295.2570, 21105.00
296.4690, 20992.00
297.6800, 20838.00
298.8910, 20836.41
300.1020, 20820.00
301.3120, 20924.00
302.5230, 21044.00
303.7330, 21300.88
304.9440, 21559.00
306.1540, 22019.00
307.3630, 22501.00
308.5730, 23031.00
309.7830, 23375.00
310.9920, 23525.00
312.2010, 23386.00
313.4100, 22805.00
314.6190, 22253.00
315.8280, 22120.00
317.0370, 21657.00
318.2450, 21629.00
319.4530, 21520.00
320.6610, 21628.00
321.8690, 21595.00
323.0770, 21953.00
324.2850, 22282.00
325.4920, 22937.00
326.6990, 23608.00
327.9060, 24452.00
329.1130, 24684.00
330.3200, 24441.00
331.5270, 23724.00
332.7330, 22793.00
333.9390, 22118.00
335.1450, 21592.00
336.3510, 21155.00
337.5570, 21422.00
338.7630, 21040.00
339.9680, 21160.00
341.1740, 21065.00
342.3790, 21189.00
343.5840, 20987.00
344.7890, 21211.00
345.9930, 21231.00
347.1980, 21348.00
348.4020, 21105.00
349.6060, 21309.00
350.8100, 21354.00
352.0140, 21488.00
353.2180, 21494.00
354.4210, 21642.00
355.6250, 21754.00
356.8280, 21964.86
358.0310, 22103.00
359.2340, 22501.00
360.4360, 22869.00
361.6390, 23212.00
362.8410, 23814.00
364.0430, 24656.00
365.2450, 25615.00
366.4470, 26730.00
367.6490, 28364.00
368.8510, 30216.00
370.0520, 33158.00
371.2530, 36769.00
372.4540, 41184.00
373.6550, 45751.00
374.8560, 48423.00
376.0560, 47913.00
377.2570, 44895.00
378.4570, 40476.00
379.6570, 36767.00
380.8570, 33599.00
382.0570, 31602.00
383.2560, 29971.00
384.4560, 29106.00
385.6550, 28552.00
386.8540, 27697.00
388.0530, 27055.00
389.2520, 26473.00
390.4510, 25745.00
391.6490, 25006.00
392.8470, 24495.00
394.0450, 24023.00
395.2430, 23641.00
396.4410, 23378.00
397.6390, 23201.00
398.8360, 23019.00
400.0340, 23053.00
401.2310, 22734.00
402.4280, 22966.00
403.6250, 22742.00
404.8210, 22686.00
406.0180, 22720.00
407.2140, 22659.63
408.4100, 22736.00
409.6060, 22801.00
410.8020, 22986.00
411.9980, 23251.00
413.1930, 23274.02
414.3890, 22949.00
415.5840, 23354.00
416.7790, 23351.00
417.9740, 23247.00
419.1680, 23416.00
420.3630, 23627.00
421.5570, 23820.00
422.7510, 23971.00
423.9450, 24477.00
425.1390, 24774.00
426.3330, 25120.00
427.5270, 25718.00
428.7200, 26136.00
429.9130, 26665.00
431.1060, 27594.00
432.2990, 27956.00
433.4920, 28186.00
434.6840, 28253.00
435.8770, 27945.00
437.0690, 27360.00
438.2610, 26693.00
439.4530, 25991.00
440.6450, 25820.00
441.8360, 25219.00
443.0280, 24879.45
444.2190, 24360.00
445.4100, 24302.00
446.6010, 24022.00
447.7920, 23971.00
448.9820, 23861.00
450.1730, 23691.00
451.3630, 23609.00
452.5530, 23540.00
453.7430, 23725.00
454.9330, 23664.00
456.1230, 23572.00
457.3120, 23654.00
458.5010, 23535.00
459.6910, 23588.26
460.8800, 23490.00
462.0680, 23614.00
463.2570, 23676.00
464.4460, 23604.00
465.6340, 23468.00
466.8220, 23721.00
468.0100, 23854.00
469.1980, 23655.00
470.3860, 23671.00
471.5730, 23882.00
472.7600, 23718.00
473.9480, 23701.00
475.1350, 23896.00
476.3210, 23958.00
477.5080, 23909.00
478.6950, 24180.00
479.8810, 24123.00
481.0670, 24125.00
482.2530, 23919.00
483.4390, 23819.00
484.6250, 23902.00
485.8100, 23947.00
486.9960, 24184.00
488.1810, 24040.00
489.3660, 24174.00
490.5510, 24260.00
491.7360, 24275.00
492.9200, 24303.00
494.1050, 24226.00
495.2890, 24237.00
496.4730, 24357.00
497.6570, 24284.00
498.8400, 24535.00
500.0240, 24593.00
501.2070, 24481.00
502.3910, 24569.00
503.5740, 24702.00
504.7570, 24690.00
505.9400, 24736.00
507.1220, 24835.00
508.3050, 24874.00
509.4870, 25075.00
510.6690, 25141.00
511.8510, 25486.00
513.0330, 25489.00
514.2140, 25786.00
515.3960, 25894.00
516.5770, 26217.00
517.7580, 26628.65
518.9390, 27054.30
520.1200, 27658.00
521.3010, 28310.00
522.4810, 29046.00
523.6610, 30053.00
524.8420, 30262.00
526.0220, 29909.00
527.2010, 29200.00
528.3810, 28215.00
529.5610, 27359.00
530.7400, 26785.00
531.9190, 26461.00
533.0980, 26289.00
534.2770, 26038.00
535.4560, 25964.00
536.6340, 25580.00
537.8120, 25712.00
538.9910, 25609.00
540.1690, 25603.00
541.3460, 25705.00
542.5240, 25688.00
543.7020, 25685.00
544.8790, 25765.00
546.0560, 25624.00
547.2330, 25704.00
548.4100, 25735.00
549.5870, 25817.00
550.7630, 25714.00
551.9400, 25836.00
553.1160, 25911.00
554.2920, 26001.00
555.4680, 26210.00
556.6440, 26237.00
557.8190, 26369.00
558.9950, 26568.00
560.1700, 26607.00
561.3450, 26593.00
562.5200, 26647.00
563.6950, 26662.00
564.8690, 26823.00
566.0440, 26901.00
567.2180, 26888.00
568.3920, 27279.00
569.5660, 27494.00
570.7400, 27785.00
571.9130, 28578.00
573.0870, 28991.00
574.2600, 29867.00
575.4330, 30116.00
576.6060, 29651.00
577.7790, 29522.00
578.9520, 28763.00
580.1240, 28339.00
581.2960, 27841.00
582.4690, 27499.00
583.6410, 27235.00
584.8120, 27205.00
585.9840, 27135.00
587.1560, 27204.00
588.3270, 27113.00
589.4980, 27042.00
590.6690, 27126.00
591.8400, 26955.00
593.0110, 26994.00
594.1810, 26952.00
595.3510, 27028.00
596.5220, 26877.00
597.6920, 26979.00
598.8610, 26934.00
600.0310, 27118.00
601.2010, 27052.00
602.3700, 27231.00
603.5390, 27197.00
604.7080, 27157.00
605.8770, 27149.00
607.0460, 27231.00
608.2140, 27177.00
609.3830, 27394.00
610.5510, 27252.00
611.7190, 27174.00
612.8870, 27332.00
614.0550, 27419.00
615.2220, 27591.00
616.3900, 27356.00
617.5570, 27699.00
618.7240, 27568.00
619.8910, 27521.00
621.0580, 27708.00
622.2240, 27578.00
623.3910, 27647.00
624.5570, 27797.00
625.7230, 27740.00
626.8890, 27788.00
628.0550, 27766.00
629.2200, 27956.00
630.3860, 27927.00
631.5510, 27856.00
632.7160, 27934.00
633.8810, 27853.00
635.0460, 27936.00
636.2100, 28017.00
637.3750, 28203.00
638.5390, 27953.00
639.7030, 28188.00
640.8670, 27922.00
642.0310, 28241.00
643.1950, 28298.00
644.3580, 28106.00
645.5210, 28311.00
646.6850, 28338.00
647.8480, 28501.00
649.0100, 28471.00
650.1730, 28346.00
651.3350, 28596.00
652.4980, 28625.00
653.6600, 28401.00
654.8220, 28681.00
655.9840, 28506.00
657.1450, 28552.00
658.3070, 28663.00
659.4680, 28679.00
660.6300, 28633.00
661.7910, 28462.00
662.9510, 28814.00
664.1120, 28851.00
665.2730, 29112.00
666.4330, 29088.00
667.5930, 28895.00
668.7530, 29077.00
669.9130, 28993.00
671.0730, 29153.00
672.2320, 29330.00
673.3920, 29353.00
674.5510, 29448.00
675.7100, 29602.00
676.8690, 29661.00
678.0280, 29856.00
679.1860, 30168.00
680.3450, 30310.00
681.5030, 30185.00
682.6610, 30638.00
683.8190, 30717.00
684.9770, 31058.00
686.1340, 31638.00
687.2920, 32169.00
688.4490, 32669.00
689.6060, 33426.00
690.7630, 34697.00
691.9200, 35773.00
693.0760, 37846.00
694.2330, 40091.00
695.3890, 43027.00
696.5450, 46724.00
697.7010, 50789.00
698.8570, 54210.00
700.0130, 55887.00
701.1680, 55077.00
702.3230, 52368.00
703.4780, 48572.00
704.6330, 44566.00
705.7880, 41056.00
706.9430, 38879.00
708.0970, 36821.00
709.2520, 35353.00
710.4060, 34257.00
711.5600, 33467.00
712.7140, 32909.00
713.8670, 32614.00
715.0210, 32292.00
716.1740, 32026.00
717.3270, 31840.00
718.4800, 31497.00
719.6330, 31412.00
720.7860, 31274.00
721.9380, 30997.00
723.0910, 31298.00
724.2430, 31035.00
725.3950, 31032.00
726.5470, 31018.00
727.6980, 30901.00
728.8500, 30861.00
730.0010, 31069.00
731.1530, 30913.00
732.3040, 31053.00
733.4550, 31038.00
734.6050, 31000.00
735.7560, 30910.00
736.9060, 30936.00
738.0560, 31094.00
739.2060, 30977.00
740.3560, 31104.00
741.5060, 31094.00
742.6560, 30997.00
743.8050, 30878.00
744.9540, 31039.00
746.1030, 31054.00
747.2520, 31312.00
748.4010, 31111.00
749.5500, 31169.00
750.6980, 31245.00
751.8460, 31122.00
752.9950, 31001.00
754.1420, 31213.00
755.2900, 31495.00
756.4380, 31433.00
757.5850, 31446.00
758.7330, 31429.00
759.8800, 31516.00
761.0270, 31439.00
762.1730, 31721.00
763.3200, 31722.00
764.4670, 31800.00
765.6130, 31670.00
766.7590, 31906.00
767.9050, 31660.00
769.0510, 31851.00
770.1960, 32058.00
771.3420, 32127.00
772.4870, 32155.00
773.6320, 32299.00
774.7770, 32500.00
775.9220, 32565.00
777.0670, 32938.00
778.2110, 33110.87
779.3560, 33328.00
780.5000, 33413.00
781.6440, 33109.00
782.7880, 32767.00
783.9320, 32558.00
785.0750, 32373.69
786.2180, 32403.00
787.3620, 32199.00
788.5050, 32216.80
789.6480, 32315.00
790.7900, 32187.00
791.9330, 32237.00
793.0750, 32242.00
794.2170, 32550.00
795.3590, 32401.00
796.5010, 32433.00
797.6430, 32175.00
798.7850, 32331.00
799.9260, 32496.00
801.0670, 32428.00
802.2080, 32377.00
803.3490, 32408.00
804.4900, 32525.00
805.6310, 32505.52
806.7710, 32598.00
807.9110, 32664.00
809.0510, 32638.00
810.1910, 32909.00
811.3310, 32841.00
812.4710, 32891.00
813.6100, 32983.19
814.7490, 32931.00
815.8880, 33053.00
817.0270, 33053.00
818.1660, 33049.00
819.3050, 32997.00
820.4430, 32959.00
821.5820, 32983.40
822.7200, 33317.00
823.8580, 33090.00
824.9950, 33268.00
826.1330, 33463.00
827.2710, 33255.00
828.4080, 33361.00
829.5450, 33441.00
830.6820, 33695.00
831.8190, 33355.00
832.9560, 33537.00
834.0920, 33607.00
835.2280, 33418.00
836.3650, 33571.00
837.5010, 33492.00
838.6360, 33548.16
839.7720, 33580.00
840.9080, 33657.00
842.0430, 33676.58
843.1780, 33838.00
844.3130, 33769.00
845.4480, 33843.00
846.5830, 33977.00
847.7170, 34256.00
848.8520, 34149.00
849.9860, 34029.00
851.1200, 34188.00
852.2540, 34474.00
853.3870, 34610.00
854.5210, 34646.00
855.6540, 34353.00
856.7880, 34360.00
857.9210, 34579.00
859.0540, 34739.00
860.1860, 34578.00
861.3190, 34594.00
862.4510, 34487.00
863.5840, 34880.00
864.7160, 34879.00
865.8480, 34934.00
866.9790, 34796.00
868.1110, 34719.00
869.2420, 35146.00
870.3740, 34798.00
871.5050, 35211.00
872.6360, 35185.00
873.7660, 34907.00
874.8970, 34935.00
876.0280, 34890.00
877.1580, 35120.00
878.2880, 35029.00
879.4180, 35096.00
880.5480, 35084.00
881.6770, 35197.00
882.8070, 35208.00
883.9360, 34974.00
885.0650, 35139.00
886.1940, 35107.00
887.3230, 35342.00
888.4520, 35085.00
889.5800, 35425.00
890.7090, 35099.00
891.8370, 35242.00
892.9650, 35350.00
894.0930, 35371.00
895.2200, 35365.00
896.3480, 35438.00
897.4750, 35464.23
898.6020, 35666.00
899.7290, 35600.00
900.8560, 35733.00
901.9830, 35882.00
903.1090, 35440.00
904.2360, 35534.00
905.3620, 35581.00
906.4880, 35999.00
907.6140, 35783.00
908.7400, 35814.00
909.8650, 36043.00
910.9900, 35777.00
912.1160, 35690.00
913.2410, 35950.00
914.3660, 35902.00
915.4900, 36063.00
916.6150, 35996.00
917.7390, 36094.00
918.8640, 36238.00
919.9880, 36103.00
921.1120, 35984.00
922.2350, 36287.00
923.3590, 36231.00
924.4820, 36137.00
925.6060, 36212.00
926.7290, 36290.00
927.8520, 36376.00
928.9740, 36458.00
930.0970, 36453.00
931.2190, 36467.00
932.3420, 36306.00
933.4640, 36537.00
934.5860, 36360.00
935.7080, 36643.00
936.8290, 36724.00
937.9510, 36548.00
939.0720, 36671.00
940.1930, 36710.00
941.3140, 36802.00
942.4350, 36687.00
943.5560, 36812.00
944.6760, 36802.00
945.7960, 37080.00
946.9170, 37291.00
948.0370, 36904.00
949.1560, 37312.00
950.2760, 37034.00
951.3960, 37160.00
952.5150, 37246.00
953.6340, 37388.00
954.7530, 37385.86
955.8720, 37260.00
956.9910, 37408.00
958.1090, 37394.00
959.2280, 37477.00
960.3460, 37588.00
961.4640, 37594.00
962.5820, 37538.00
963.6990, 37507.00
964.8170, 37600.00
965.9340, 37795.00
967.0510, 37711.00
968.1690, 37755.00
969.2850, 38124.00
970.4020, 37931.00
971.5190, 38315.00
972.6350, 38043.00
973.7510, 38376.00
974.8670, 38291.00
975.9830, 38716.00
977.0990, 38829.00
978.2150, 39037.00
979.3300, 39173.00
980.4450, 39625.00
981.5600, 40273.00
982.6750, 40687.00
983.7900, 41467.00
984.9050, 41905.00
986.0190, 42129.00
987.1340, 41713.00
988.2480, 41084.00
989.3620, 40527.00
990.4750, 40224.00
991.5890, 39905.00
992.7020, 39609.00
993.8160, 39493.91
994.9290, 39373.00
996.0420, 39271.00
997.1550, 39293.00
998.2670, 39082.00
999.3800, 39235.00
1000.492, 38959.00
1001.604, 39020.00
1002.716, 39462.00
1003.828, 39112.00
1004.940, 38932.00
1006.051, 39256.00
1007.163, 39008.00
1008.274, 39241.00
1009.385, 39235.00
1010.496, 39305.00
1011.606, 39113.00
1012.717, 39499.00
1013.827, 39464.00
1014.937, 39343.00
1016.047, 39463.00
1017.157, 39349.00
1018.267, 39484.00
1019.377, 39544.00
1020.486, 39286.00
1021.595, 39806.00
1022.704, 39968.00
1023.813, 39925.00
1024.922, 39930.00
1026.030, 40122.00
1027.139, 40172.00
1028.247, 40321.00
1029.355, 40494.00
1030.463, 40771.00
1031.571, 40997.00
1032.678, 41497.00
1033.786, 41682.00
1034.893, 42304.00
1036.000, 42914.00
1037.107, 43819.00
1038.214, 43967.00
1039.321, 44151.00
1040.427, 44438.00
1041.533, 44274.00
1042.639, 43738.00
1043.745, 43200.00
1044.851, 42661.00
1045.957, 42299.23
1047.062, 41849.00
1048.168, 41695.00
1049.273, 41281.00
1050.378, 41137.00
1051.482, 41206.00
1052.587, 40960.00
1053.692, 41166.00
1054.796, 41126.00
1055.900, 40833.00
1057.004, 40886.00
1058.108, 41010.00
1059.212, 40911.00
1060.315, 41046.00
1061.418, 41086.00
1062.522, 41250.00
1063.625, 41033.00
1064.728, 41209.00
1065.830, 41005.00
1066.933, 41103.00
1068.035, 41276.00
1069.137, 41221.00
1070.239, 41421.00
1071.341, 41263.00
1072.443, 41388.00
1073.545, 41680.00
1074.646, 41601.00
1075.747, 41754.00
1076.848, 41779.00
1077.949, 41903.00
1079.050, 41766.00
1080.150, 41999.00
1081.251, 41861.00
1082.351, 42191.00
1083.451, 42051.00
1084.551, 42049.00
1085.651, 42005.00
1086.750, 42116.00
1087.850, 42087.70
1088.949, 41971.00
1090.048, 42107.00
1091.147, 42054.00
1092.246, 42026.00
1093.345, 42332.00
1094.443, 42193.00
1095.541, 42318.00
1096.639, 42399.00
1097.737, 41836.00
1098.835, 42124.00
1099.933, 42118.00
1101.030, 42330.00
1102.128, 42342.00
1103.225, 42341.00
1104.322, 42314.00
1105.419, 42531.00
1106.515, 42740.00
1107.612, 42081.00
1108.708, 42598.00
1109.804, 42409.00
1110.900, 42761.00
1111.996, 42703.00
1113.092, 42726.00
1114.187, 42802.00
1115.283, 42910.00
1116.378, 42789.00
1117.473, 42825.00
1118.568, 42956.00
1119.662, 42929.00
1120.757, 42999.00
1121.851, 43276.00
1122.946, 43348.00
1124.040, 43416.00
1125.134, 43301.00
1126.227, 43262.00
1127.321, 43295.00
1128.414, 43541.00
1129.508, 43462.00
1130.601, 43545.96
1131.693, 43472.00
1132.786, 43661.00
1133.879, 43426.00
1134.971, 43648.00
1136.064, 43757.00
1137.156, 43709.00
1138.248, 43755.00
1139.339, 43938.00
1140.431, 43690.00
1141.522, 43725.00
1142.614, 43888.00
1143.705, 43946.00
1144.796, 44036.00
1145.887, 44036.15
1146.977, 43968.00
1148.068, 43983.00
1149.158, 44220.00
1150.248, 44232.00
1151.338, 43975.00
1152.428, 44331.00
1153.518, 44190.00
1154.607, 44331.00
1155.696, 44288.00
1156.785, 44194.00
1157.874, 44307.00
1158.963, 44359.00
1160.052, 44336.00
1161.141, 44507.00
1162.229, 44596.00
1163.317, 44353.00
1164.405, 44698.00
1165.493, 44554.00
1166.581, 44875.00
1167.668, 44794.00
1168.756, 45066.00
1169.843, 44798.00
1170.930, 44774.00
1172.017, 44793.00
1173.103, 45069.00
1174.190, 44998.00
1175.276, 44746.00
1176.363, 45261.00
1177.449, 45098.00
1178.535, 45260.00
1179.620, 45231.00
1180.706, 45132.00
1181.791, 45143.00
1182.877, 45453.00
1183.962, 44918.00
1185.047, 45205.00
1186.131, 45517.00
1187.216, 45473.00
1188.300, 45684.25
1189.385, 45384.00
1190.469, 45681.00
1191.553, 45831.00
1192.637, 45507.00
1193.720, 45734.00
1194.804, 45689.00
1195.887, 45497.00
1196.970, 45703.00
1198.053, 45859.00
1199.136, 45829.00
1200.219, 46044.00
1201.301, 46068.00
1202.383, 45820.00
1203.465, 46145.00
1204.547, 45845.00
1205.629, 45777.00
1206.711, 46028.00
1207.792, 46236.00
1208.874, 46125.00
1209.955, 46263.00
1211.036, 46288.00
1212.117, 46446.00
1213.198, 46261.00
1214.278, 46461.00
1215.359, 46506.00
1216.439, 46731.00
1217.519, 46455.00
1218.599, 46568.00
1219.678, 46738.00
1220.758, 46715.00
1221.837, 46860.00
1222.917, 46902.00
1223.996, 46850.00
1225.075, 46966.59
1226.153, 46892.00
1227.232, 47115.00
1228.310, 46968.00
1229.389, 47099.00
1230.467, 46887.00
1231.545, 47195.00
1232.622, 46957.00
1233.700, 47233.00
1234.777, 47077.00
1235.855, 47421.00
1236.932, 47141.00
1238.009, 47051.00
1239.086, 47367.00
1240.162, 47523.00
1241.239, 47453.00
1242.315, 47477.00
1243.391, 47422.00
1244.467, 47483.00
1245.543, 47388.00
1246.619, 47641.00
1247.694, 47738.00
1248.769, 47655.00
1249.844, 48053.00
1250.919, 47511.00
1251.994, 47994.00
1253.069, 47844.00
1254.144, 47835.00
1255.218, 48038.00
1256.292, 48158.00
1257.366, 48216.90
1258.440, 48054.00
1259.514, 48374.00
1260.587, 48495.00
1261.661, 48568.00
1262.734, 48143.00
1263.807, 48845.00
1264.880, 48199.00
1265.952, 48463.00
1267.025, 48485.00
1268.097, 48592.00
1269.170, 48865.00
1270.242, 48813.00
1271.314, 48490.00
1272.385, 48520.00
1273.457, 48818.00
1274.528, 48747.00
1275.600, 49079.00
1276.671, 48833.00
1277.742, 48942.00
1278.812, 48993.00
1279.883, 49022.00
1280.954, 49305.00
1282.024, 49052.00
1283.094, 49268.00
1284.164, 48938.00
1285.234, 49278.00
1286.303, 49182.00
1287.373, 49386.00
1288.442, 49289.00
1289.511, 49299.00
1290.580, 49298.00
1291.649, 49659.00
1292.718, 49532.00
1293.786, 49770.00
1294.855, 49601.00
1295.923, 49538.00
1296.991, 49891.00
1298.059, 50014.00
1299.126, 49970.00
1300.194, 50116.23
1301.261, 49960.00
1302.328, 50083.00
1303.395, 50185.00
1304.462, 50059.00
1305.529, 50320.00
1306.596, 50175.00
1307.662, 49812.00
1308.728, 50278.00
1309.794, 50490.00
1310.860, 49990.00
1311.926, 50507.00
1312.991, 50228.00
1314.057, 50352.00
1315.122, 50788.00
1316.187, 50730.00
1317.252, 50674.00
1318.317, 50450.00
1319.381, 50865.00
1320.446, 50794.00
1321.510, 51077.00
1322.574, 50860.00
1323.638, 50744.00
1324.702, 50994.00
1325.766, 51002.00
1326.829, 51066.00
1327.892, 50938.00
1328.956, 51434.00
1330.019, 50962.00
1331.081, 51080.00
1332.144, 50940.00
1333.206, 51428.00
1334.269, 51139.00
1335.331, 51365.00
1336.393, 51102.00
1337.455, 51182.00
1338.516, 51359.00
1339.578, 51645.00
1340.639, 51732.00
1341.701, 51632.00
1342.762, 51489.00
1343.822, 51488.00
1344.883, 51751.00
1345.944, 51535.00
1347.004, 51469.00
1348.064, 51554.00
1349.124, 52004.00
1350.184, 51871.00
1351.244, 52176.00
1352.304, 52082.00
1353.363, 51595.00
1354.422, 51754.00
1355.481, 51892.00
1356.540, 51899.00
1357.599, 52154.00
1358.657, 52164.55
1359.716, 51978.00
1360.774, 52225.00
1361.832, 52279.00
1362.890, 52185.00
1363.948, 52389.00
1365.006, 52516.00
1366.063, 52316.00
1367.120, 52595.00
1368.178, 52492.00
1369.234, 52528.00
1370.291, 52670.00
1371.348, 52597.00
1372.404, 52650.36
1373.461, 52556.00
1374.517, 52667.00
1375.573, 52750.00
1376.629, 52810.00
1377.684, 53111.00
1378.740, 53089.00
1379.795, 52643.00
1380.850, 52960.00
1381.905, 52858.00
1382.960, 53010.00
1384.015, 52957.00
1385.070, 53002.00
1386.124, 53174.00
1387.178, 53207.00
1388.232, 53215.00
1389.286, 53263.00
1390.340, 53218.00
1391.393, 53424.00
1392.447, 53356.00
1393.500, 53329.00
1394.553, 53002.00
1395.606, 53818.00
1396.659, 53578.00
1397.711, 53610.00
1398.764, 53177.00
1399.816, 53654.00
1400.868, 53622.00
1401.920, 53677.00
1402.972, 53804.00
1404.023, 53943.00
1405.075, 53905.00
1406.126, 53897.00
1407.177, 53833.00
1408.228, 54251.00
1409.279, 54056.00
1410.330, 53856.00
1411.380, 53805.00
1412.431, 54308.00
1413.481, 54229.00
1414.531, 54426.00
1415.580, 54256.00
1416.630, 53923.00
1417.680, 54292.00
1418.729, 54159.00
1419.778, 54329.00
1420.827, 54561.00
1421.876, 54436.00
1422.925, 54552.00
1423.973, 54703.00
1425.022, 54480.00
1426.070, 54745.00
1427.118, 54585.00
1428.166, 54950.00
1429.214, 54866.00
1430.261, 54867.00
1431.309, 54887.00
1432.356, 54920.00
1433.403, 54834.00
1434.450, 54952.00
1435.497, 55214.00
1436.543, 55375.00
1437.590, 55192.00
1438.636, 55561.00
1439.682, 55741.00
1440.728, 55337.00
1441.774, 55433.00
1442.819, 55710.00
1443.865, 55737.00
1444.910, 56052.00
1445.955, 55871.00
1447.000, 55885.00
1448.045, 56336.00
1449.090, 55717.00
1450.134, 55981.00
1451.178, 56096.00
1452.223, 56364.00
1453.267, 56099.00
1454.310, 56189.00
1455.354, 56251.00
1456.398, 56363.00
1457.441, 56483.00
1458.484, 56697.00
1459.527, 56461.00
1460.570, 56304.00
1461.613, 56504.00
1462.655, 56475.00
1463.698, 56274.00
1464.740, 56263.00
1465.782, 56642.00
1466.824, 56345.00
1467.866, 56580.00
1468.907, 56810.00
1469.948, 56604.00
1470.990, 56752.00
1472.031, 56541.00
1473.072, 56602.00
1474.112, 56890.00
1475.153, 56660.00
1476.194, 56919.00
1477.234, 56620.00
1478.274, 56842.00
1479.314, 57026.00
1480.354, 57035.00
1481.393, 57083.00
1482.433, 56779.00
1483.472, 57052.00
1484.511, 56964.00
1485.550, 57108.00
1486.589, 57177.00
1487.628, 57095.00
1488.666, 57301.00
1489.704, 57107.00
1490.743, 57477.00
1491.781, 57123.00
1492.819, 57474.00
1493.856, 57098.00
1494.894, 57298.00
1495.931, 57244.00
1496.968, 57430.00
1498.005, 57448.54
1499.042, 57433.00
1500.079, 57504.00
1501.115, 57644.00
1502.152, 57663.00
1503.188, 57692.28
1504.224, 57857.00
1505.260, 57685.00
1506.296, 57862.00
1507.331, 57886.00
1508.367, 57789.00
1509.402, 57969.00
1510.437, 58100.00
1511.472, 58065.00
1512.507, 58039.00
1513.541, 58041.00
1514.576, 58330.00
1515.610, 58312.67
1516.644, 58045.00
1517.678, 58445.00
1518.712, 58395.00
1519.746, 58322.00
1520.779, 58419.00
1521.813, 58276.00
1522.846, 58210.00
1523.879, 58152.00
1524.912, 58264.32
1525.944, 58532.00
1526.977, 58565.00
1528.009, 58743.00
1529.041, 58838.00
1530.073, 58710.00
1531.105, 58860.00
1532.137, 58968.00
1533.168, 59215.00
1534.200, 58863.00
1535.231, 59289.00
1536.262, 59073.00
1537.293, 59304.00
1538.324, 59044.00
1539.354, 59118.00
1540.385, 58959.00
1541.415, 59156.00
1542.445, 59359.00
1543.475, 59166.00
1544.505, 59148.00
1545.534, 59387.00
1546.564, 59043.00
1547.593, 59284.00
1548.622, 59382.00
1549.651, 59044.00
1550.680, 59459.00
1551.708, 59839.00
1552.737, 59768.00
1553.765, 59668.00
1554.793, 59563.00
1555.821, 59581.48
1556.849, 59602.56
1557.877, 59684.00
1558.904, 59746.00
1559.932, 59926.00
1560.959, 59966.00
1561.986, 59882.00
1563.013, 60010.00
1564.039, 59877.00
1565.066, 60169.00
1566.092, 59928.00
1567.119, 60106.00
1568.145, 60401.00
1569.170, 60384.00
1570.196, 60585.00
##END=



