##NAMES=Jadeite
##RRUFFID=R050220
##IDEAL CHEMISTRY=NaAlSi_2_O_6_
##LOCALITY=Clear Creek, San Benito County, California, USA
##OWNER=RRUFF
##SOURCE=Hatt Yoder
##DESCRIPTION=Aggregate of colorless bladed crystals
##STATUS=The identification of this mineral has been confirmed by X-ray diffraction and chemical analysis
##URL=rruff.info/R050220
##MEASURED CHEMISTRY=Na_1.00_Al_1.00_(Si_0.99_Al_0.01_)_2_O_6_
##PIN_ID=L00822
##ORIENTATION=Laser parallel to (1 0 1). Fiducial mark perpendicular to laser is parallel to -b [0 -1 0]
112.9460, 13983.00
114.1820, 14352.00
115.4170, 14600.00
116.6530, 14640.00
117.8880, 14804.00
119.1230, 14848.00
120.3580, 14875.00
121.5920, 15097.00
122.8270, 15280.00
124.0610, 15362.00
125.2950, 15655.00
126.5290, 15785.00
127.7630, 15983.00
128.9970, 16319.00
130.2300, 16552.00
131.4640, 16854.00
132.6970, 17159.00
133.9300, 17452.00
135.1630, 17866.00
136.3950, 18794.00
137.6280, 19575.00
138.8600, 20833.00
140.0920, 22465.00
141.3240, 24506.00
142.5560, 26399.00
143.7880, 27703.00
145.0190, 27534.00
146.2510, 26076.00
147.4820, 23904.00
148.7130, 22218.00
149.9440, 20678.00
151.1750, 19709.00
152.4050, 19071.00
153.6360, 18397.00
154.8660, 18108.00
156.0960, 17832.00
157.3260, 17502.00
158.5560, 17475.00
159.7850, 17161.00
161.0150, 17183.00
162.2440, 17275.00
163.4730, 17163.00
164.7020, 17193.00
165.9310, 17053.00
167.1590, 17333.00
168.3880, 17224.63
169.6160, 17198.92
170.8440, 17246.00
172.0720, 17117.00
173.3000, 17187.00
174.5280, 17274.00
175.7550, 17219.00
176.9820, 17325.00
178.2100, 17286.00
179.4370, 17187.00
180.6630, 17322.00
181.8900, 17318.00
183.1170, 17405.00
184.3430, 17439.00
185.5690, 17288.00
186.7950, 17610.00
188.0210, 17790.00
189.2470, 17692.00
190.4720, 17873.00
191.6970, 18297.00
192.9230, 18773.00
194.1480, 18837.00
195.3730, 18853.00
196.5970, 18874.00
197.8220, 19043.00
199.0460, 19367.00
200.2700, 19931.00
201.4940, 20875.00
202.7180, 22457.00
203.9420, 23547.00
205.1660, 23763.00
206.3890, 22719.00
207.6120, 21539.00
208.8350, 20184.00
210.0580, 19075.00
211.2810, 18573.00
212.5040, 18400.00
213.7260, 18142.00
214.9480, 18275.00
216.1700, 18000.00
217.3920, 18257.00
218.6140, 18276.00
219.8360, 18304.00
221.0570, 18273.00
222.2790, 18370.00
223.5000, 18340.00
224.7210, 18365.00
225.9410, 18441.00
227.1620, 18363.00
228.3820, 18399.98
229.6030, 18354.37
230.8230, 18406.00
232.0430, 18395.63
233.2630, 18334.00
234.4820, 18395.00
235.7020, 18404.00
236.9210, 18392.00
238.1400, 18288.00
239.3590, 18278.00
240.5780, 18463.00
241.7970, 18578.00
243.0150, 18469.00
244.2340, 18654.00
245.4520, 18716.00
246.6700, 18657.00
247.8880, 18747.00
249.1060, 18895.00
250.3230, 19135.00
251.5400, 19508.00
252.7580, 19712.00
253.9750, 19964.00
255.1920, 20587.00
256.4080, 20881.00
257.6250, 20765.00
258.8410, 20340.00
260.0580, 19842.00
261.2740, 19231.00
262.4900, 18928.00
263.7050, 18996.00
264.9210, 19247.00
266.1360, 19018.00
267.3520, 19052.00
268.5670, 19133.00
269.7820, 19091.00
270.9960, 19262.00
272.2110, 19222.00
273.4250, 19285.00
274.6400, 19122.00
275.8540, 19380.00
277.0680, 19655.00
278.2810, 19558.00
279.4950, 19624.00
280.7090, 19728.00
281.9220, 19883.00
283.1350, 19900.00
284.3480, 19856.00
285.5610, 19934.00
286.7730, 19933.00
287.9860, 20089.00
289.1980, 20211.00
290.4100, 20293.15
291.6220, 20654.00
292.8340, 20570.00
294.0460, 20692.00
295.2570, 20942.00
296.4690, 20919.00
297.6800, 20735.00
298.8910, 20784.00
300.1020, 20553.00
301.3120, 20983.00
302.5230, 20922.00
303.7330, 21212.00
304.9440, 21473.00
306.1540, 21761.00
307.3630, 22366.00
308.5730, 22670.00
309.7830, 23197.00
310.9920, 23474.00
312.2010, 23173.00
313.4100, 22845.00
314.6190, 22372.00
315.8280, 22144.00
317.0370, 21733.00
318.2450, 21641.00
319.4530, 21748.00
320.6610, 21654.00
321.8690, 21932.00
323.0770, 22165.00
324.2850, 22314.00
325.4920, 23156.00
326.6990, 23820.00
327.9060, 25592.00
329.1130, 25508.00
330.3200, 25218.00
331.5270, 24230.00
332.7330, 24048.00
333.9390, 23473.00
335.1450, 22021.00
336.3510, 21584.00
337.5570, 21466.00
338.7630, 21296.00
339.9680, 21260.00
341.1740, 21235.00
342.3790, 21128.00
343.5840, 21102.00
344.7890, 21160.00
345.9930, 21155.00
347.1980, 21241.00
348.4020, 21115.00
349.6060, 21432.00
350.8100, 21318.00
352.0140, 21412.00
353.2180, 21544.00
354.4210, 21441.00
355.6250, 21412.00
356.8280, 21603.00
358.0310, 21919.00
359.2340, 22004.00
360.4360, 22437.00
361.6390, 22620.00
362.8410, 23193.00
364.0430, 23543.00
365.2450, 24289.00
366.4470, 24835.00
367.6490, 25528.00
368.8510, 26918.00
370.0520, 28454.00
371.2530, 30373.00
372.4540, 33277.00
373.6550, 35666.00
374.8560, 37143.00
376.0560, 37258.00
377.2570, 35591.00
378.4570, 33448.00
379.6570, 31608.00
380.8570, 30032.00
382.0570, 29299.00
383.2560, 29169.00
384.4560, 28963.00
385.6550, 28734.00
386.8540, 28232.22
388.0530, 27864.00
389.2520, 27016.00
390.4510, 26114.00
391.6490, 25328.00
392.8470, 24724.00
394.0450, 24402.00
395.2430, 23706.00
396.4410, 23768.00
397.6390, 23343.00
398.8360, 23130.00
400.0340, 23248.00
401.2310, 23194.00
402.4280, 23159.00
403.6250, 23167.00
404.8210, 22994.00
406.0180, 22815.00
407.2140, 22783.00
408.4100, 22741.85
409.6060, 22915.00
410.8020, 22761.00
411.9980, 22948.00
413.1930, 22889.00
414.3890, 22890.00
415.5840, 23091.00
416.7790, 22899.00
417.9740, 23090.00
419.1680, 23309.00
420.3630, 23324.00
421.5570, 23238.00
422.7510, 23534.00
423.9450, 23586.00
425.1390, 23846.00
426.3330, 23977.00
427.5270, 24183.00
428.7200, 24396.00
429.9130, 24691.00
431.1060, 25072.00
432.2990, 25204.00
433.4920, 25504.00
434.6840, 25342.00
435.8770, 25148.00
437.0690, 24788.00
438.2610, 24595.00
439.4530, 24363.00
440.6450, 24178.00
441.8360, 23797.00
443.0280, 23926.00
444.2190, 23883.00
445.4100, 23270.00
446.6010, 23449.00
447.7920, 23326.00
448.9820, 23269.00
450.1730, 23475.00
451.3630, 23357.35
452.5530, 23369.00
453.7430, 23229.00
454.9330, 23252.73
456.1230, 23325.00
457.3120, 23228.00
458.5010, 23428.00
459.6910, 23326.00
460.8800, 23445.00
462.0680, 23565.00
463.2570, 23496.00
464.4460, 23694.00
465.6340, 23725.00
466.8220, 23629.00
468.0100, 23681.00
469.1980, 23510.00
470.3860, 23757.00
471.5730, 23625.00
472.7600, 23672.00
473.9480, 23796.00
475.1350, 23823.00
476.3210, 23748.00
477.5080, 23702.00
478.6950, 23982.00
479.8810, 23947.00
481.0670, 23671.00
482.2530, 23745.00
483.4390, 24212.00
484.6250, 24133.00
485.8100, 23912.00
486.9960, 24313.00
488.1810, 24229.00
489.3660, 24088.00
490.5510, 24308.00
491.7360, 24068.00
492.9200, 24255.00
494.1050, 24652.00
495.2890, 24928.00
496.4730, 24143.00
497.6570, 24446.00
498.8400, 24523.00
500.0240, 24427.00
501.2070, 24580.00
502.3910, 24612.00
503.5740, 24713.00
504.7570, 24827.00
505.9400, 24956.00
507.1220, 24965.00
508.3050, 25113.00
509.4870, 25188.34
510.6690, 25156.00
511.8510, 25388.00
513.0330, 25522.00
514.2140, 25645.00
515.3960, 25684.00
516.5770, 25835.00
517.7580, 26067.00
518.9390, 26242.00
520.1200, 26517.00
521.3010, 26596.00
522.4810, 27008.00
523.6610, 27517.00
524.8420, 27519.00
526.0220, 27711.00
527.2010, 27153.00
528.3810, 26818.00
529.5610, 26172.00
530.7400, 26054.00
531.9190, 26024.00
533.0980, 25631.00
534.2770, 25552.00
535.4560, 25634.00
536.6340, 25773.00
537.8120, 25647.00
538.9910, 25667.00
540.1690, 25469.00
541.3460, 25841.00
542.5240, 25515.00
543.7020, 25510.00
544.8790, 25640.00
546.0560, 25472.00
547.2330, 25685.00
548.4100, 25440.00
549.5870, 25651.00
550.7630, 25872.00
551.9400, 25841.00
553.1160, 25946.00
554.2920, 25866.00
555.4680, 25882.00
556.6440, 25947.00
557.8190, 26028.00
558.9950, 26016.00
560.1700, 26094.00
561.3450, 26077.00
562.5200, 26230.00
563.6950, 26319.00
564.8690, 26432.00
566.0440, 26227.00
567.2180, 26262.00
568.3920, 26498.00
569.5660, 26502.00
570.7400, 26681.00
571.9130, 26953.00
573.0870, 27132.00
574.2600, 27024.00
575.4330, 27163.00
576.6060, 27212.00
577.7790, 27290.00
578.9520, 27033.00
580.1240, 27050.00
581.2960, 26796.00
582.4690, 26769.00
583.6410, 26672.00
584.8120, 26838.00
585.9840, 26710.00
587.1560, 26800.00
588.3270, 26772.00
589.4980, 26615.00
590.6690, 26915.00
591.8400, 26702.00
593.0110, 26915.00
594.1810, 26756.00
595.3510, 26678.00
596.5220, 26688.00
597.6920, 26664.00
598.8610, 26866.00
600.0310, 26967.00
601.2010, 26901.00
602.3700, 26860.00
603.5390, 26916.00
604.7080, 26974.00
605.8770, 27203.00
607.0460, 27091.00
608.2140, 26964.00
609.3830, 27145.00
610.5510, 27049.00
611.7190, 27317.00
612.8870, 27061.00
614.0550, 27375.00
615.2220, 27366.00
616.3900, 27606.00
617.5570, 27509.00
618.7240, 27589.00
619.8910, 27739.00
621.0580, 27604.00
622.2240, 27681.00
623.3910, 27639.00
624.5570, 27847.00
625.7230, 27792.00
626.8890, 28115.00
628.0550, 28318.00
629.2200, 28289.00
630.3860, 28347.00
631.5510, 28683.00
632.7160, 28328.00
633.8810, 28675.00
635.0460, 28817.00
636.2100, 28629.00
637.3750, 28798.00
638.5390, 28816.00
639.7030, 28787.00
640.8670, 28891.00
642.0310, 28709.00
643.1950, 28785.00
644.3580, 29004.00
645.5210, 29000.00
646.6850, 28750.00
647.8480, 28719.00
649.0100, 28742.00
650.1730, 28508.00
651.3350, 28696.00
652.4980, 28653.00
653.6600, 28813.00
654.8220, 28790.00
655.9840, 28753.00
657.1450, 28569.00
658.3070, 28568.00
659.4680, 28630.00
660.6300, 28662.00
661.7910, 28725.00
662.9510, 28856.00
664.1120, 28629.00
665.2730, 28733.00
666.4330, 28717.00
667.5930, 28477.00
668.7530, 28828.00
669.9130, 28970.00
671.0730, 29054.00
672.2320, 28878.00
673.3920, 29252.00
674.5510, 29021.00
675.7100, 29169.00
676.8690, 29267.00
678.0280, 29151.00
679.1860, 29319.00
680.3450, 29322.00
681.5030, 29588.00
682.6610, 29533.00
683.8190, 29944.00
684.9770, 30101.00
686.1340, 29942.00
687.2920, 30399.00
688.4490, 30815.00
689.6060, 31169.00
690.7630, 31663.00
691.9200, 32251.00
693.0760, 33201.17
694.2330, 33993.00
695.3890, 35591.00
696.5450, 37037.00
697.7010, 38714.00
698.8570, 40268.00
700.0130, 41026.00
701.1680, 40852.00
702.3230, 39524.00
703.4780, 37898.00
704.6330, 36520.00
705.7880, 34784.00
706.9430, 33571.00
708.0970, 32856.00
709.2520, 32332.00
710.4060, 31871.00
711.5600, 31398.00
712.7140, 31167.00
713.8670, 30930.00
715.0210, 30979.00
716.1740, 30805.00
717.3270, 30757.00
718.4800, 30587.00
719.6330, 30579.00
720.7860, 30445.00
721.9380, 30371.00
723.0910, 30669.00
724.2430, 30545.00
725.3950, 30553.00
726.5470, 30526.00
727.6980, 30448.00
728.8500, 30358.00
730.0010, 30280.00
731.1530, 30421.00
732.3040, 30570.00
733.4550, 30523.00
734.6050, 30359.00
735.7560, 30592.00
736.9060, 30346.00
738.0560, 30614.00
739.2060, 30438.00
740.3560, 30724.00
741.5060, 30619.00
742.6560, 30491.00
743.8050, 30628.00
744.9540, 30594.00
746.1030, 30726.00
747.2520, 30924.00
748.4010, 30767.00
749.5500, 30811.00
750.6980, 30939.00
751.8460, 30848.00
752.9950, 30956.00
754.1420, 30938.00
755.2900, 31252.00
756.4380, 31232.00
757.5850, 31170.00
758.7330, 30916.00
759.8800, 30940.00
761.0270, 31122.00
762.1730, 31395.00
763.3200, 31234.00
764.4670, 31298.00
765.6130, 31328.00
766.7590, 31553.00
767.9050, 31504.00
769.0510, 31585.00
770.1960, 31361.00
771.3420, 31673.00
772.4870, 31782.00
773.6320, 32080.00
774.7770, 31904.00
775.9220, 32266.00
777.0670, 32350.00
778.2110, 32581.00
779.3560, 32884.00
780.5000, 32627.00
781.6440, 32750.00
782.7880, 32316.00
783.9320, 32266.00
785.0750, 31939.00
786.2180, 32167.00
787.3620, 31890.00
788.5050, 31855.00
789.6480, 31919.00
790.7900, 32051.00
791.9330, 31980.00
793.0750, 31942.00
794.2170, 31897.00
795.3590, 31876.00
796.5010, 31997.00
797.6430, 32266.00
798.7850, 32374.00
799.9260, 32198.00
801.0670, 32127.00
802.2080, 32260.00
803.3490, 32304.00
804.4900, 32325.00
805.6310, 32412.00
806.7710, 32432.00
807.9110, 32329.00
809.0510, 32580.00
810.1910, 32391.00
811.3310, 32683.00
812.4710, 32742.00
813.6100, 32850.00
814.7490, 32939.84
815.8880, 32647.00
817.0270, 32887.00
818.1660, 32899.00
819.3050, 32611.00
820.4430, 32850.00
821.5820, 32853.00
822.7200, 32900.00
823.8580, 32822.00
824.9950, 33107.00
826.1330, 33146.00
827.2710, 33207.00
828.4080, 33016.00
829.5450, 32997.00
830.6820, 33170.00
831.8190, 33335.00
832.9560, 33157.00
834.0920, 32984.00
835.2280, 33299.00
836.3650, 33230.00
837.5010, 33329.00
838.6360, 33536.00
839.7720, 33681.00
840.9080, 33242.00
842.0430, 33578.00
843.1780, 33484.00
844.3130, 33579.00
845.4480, 33694.00
846.5830, 33954.00
847.7170, 33820.00
848.8520, 34038.00
849.9860, 33979.00
851.1200, 33788.00
852.2540, 33802.00
853.3870, 33792.56
854.5210, 34301.00
855.6540, 33995.00
856.7880, 34085.00
857.9210, 34429.00
859.0540, 34213.00
860.1860, 34125.00
861.3190, 34384.00
862.4510, 34533.00
863.5840, 34312.00
864.7160, 34418.00
865.8480, 34377.00
866.9790, 34335.00
868.1110, 34572.00
869.2420, 34480.00
870.3740, 34452.00
871.5050, 34556.00
872.6360, 34666.00
873.7660, 34625.00
874.8970, 34717.00
876.0280, 34737.00
877.1580, 34692.00
878.2880, 34759.00
879.4180, 34609.00
880.5480, 34995.00
881.6770, 34580.00
882.8070, 35023.00
883.9360, 34967.00
885.0650, 35110.00
886.1940, 35049.00
887.3230, 35069.00
888.4520, 34973.00
889.5800, 34987.33
890.7090, 34903.00
891.8370, 35002.00
892.9650, 35003.00
894.0930, 35051.90
895.2200, 35018.00
896.3480, 35074.00
897.4750, 35077.00
898.6020, 35012.00
899.7290, 35142.00
900.8560, 35027.00
901.9830, 35361.00
903.1090, 35457.00
904.2360, 35234.00
905.3620, 35487.00
906.4880, 35463.00
907.6140, 35244.00
908.7400, 35665.00
909.8650, 35606.00
910.9900, 35583.00
912.1160, 35546.00
913.2410, 35853.00
914.3660, 35595.00
915.4900, 35905.00
916.6150, 35811.00
917.7390, 35727.00
918.8640, 35840.00
919.9880, 35884.00
921.1120, 35891.00
922.2350, 35809.00
923.3590, 35944.00
924.4820, 35880.00
925.6060, 35951.00
926.7290, 36072.00
927.8520, 36029.00
928.9740, 36066.00
930.0970, 36172.00
931.2190, 36019.00
932.3420, 36192.00
933.4640, 36368.00
934.5860, 36264.00
935.7080, 36142.00
936.8290, 36510.00
937.9510, 36392.00
939.0720, 36507.00
940.1930, 36416.00
941.3140, 36598.00
942.4350, 36341.00
943.5560, 36505.00
944.6760, 36537.68
945.7960, 36745.00
946.9170, 36708.00
948.0370, 36570.00
949.1560, 36664.00
950.2760, 36953.00
951.3960, 36842.00
952.5150, 36796.00
953.6340, 36702.00
954.7530, 36763.96
955.8720, 36808.00
956.9910, 36967.00
958.1090, 37015.00
959.2280, 37208.00
960.3460, 36958.00
961.4640, 37009.00
962.5820, 37181.00
963.6990, 37481.00
964.8170, 37284.00
965.9340, 37624.00
967.0510, 37393.00
968.1690, 37218.00
969.2850, 37699.00
970.4020, 37532.00
971.5190, 37589.00
972.6350, 37707.00
973.7510, 37626.00
974.8670, 37825.00
975.9830, 38158.00
977.0990, 38343.00
978.2150, 38045.00
979.3300, 38488.00
980.4450, 38633.00
981.5600, 39261.00
982.6750, 39394.00
983.7900, 40178.00
984.9050, 40194.00
986.0190, 40556.00
987.1340, 40390.00
988.2480, 40404.00
989.3620, 39781.00
990.4750, 39381.00
991.5890, 39162.00
992.7020, 38912.00
993.8160, 38786.00
994.9290, 38900.00
996.0420, 38701.00
997.1550, 38476.00
998.2670, 38649.00
999.3800, 39061.00
1000.492, 38798.00
1001.604, 38778.00
1002.716, 38984.00
1003.828, 38774.00
1004.940, 38918.00
1006.051, 38882.00
1007.163, 38483.00
1008.274, 39079.00
1009.385, 38947.00
1010.496, 39086.00
1011.606, 38726.00
1012.717, 39100.00
1013.827, 39056.00
1014.937, 39187.00
1016.047, 39205.00
1017.157, 39452.00
1018.267, 39362.00
1019.377, 39389.00
1020.486, 39539.00
1021.595, 39853.00
1022.704, 39932.00
1023.813, 40174.00
1024.922, 40398.00
1026.030, 40148.00
1027.139, 40520.00
1028.247, 40828.00
1029.355, 41258.00
1030.463, 41721.00
1031.571, 42089.00
1032.678, 42799.00
1033.786, 43524.00
1034.893, 44787.00
1036.000, 46078.00
1037.107, 47229.00
1038.214, 48532.00
1039.321, 49085.00
1040.427, 49656.00
1041.533, 48558.00
1042.639, 47405.00
1043.745, 46141.00
1044.851, 44811.00
1045.957, 43592.00
1047.062, 43038.00
1048.168, 42294.00
1049.273, 42161.00
1050.378, 41576.00
1051.482, 41438.00
1052.587, 41199.00
1053.692, 41233.00
1054.796, 40734.00
1055.900, 40899.00
1057.004, 40765.00
1058.108, 40922.00
1059.212, 40915.75
1060.315, 40863.00
1061.418, 40899.00
1062.522, 40907.00
1063.625, 40948.22
1064.728, 41007.00
1065.830, 41049.00
1066.933, 41058.00
1068.035, 41058.00
1069.137, 40846.00
1070.239, 41073.00
1071.341, 40975.00
1072.443, 41122.00
1073.545, 41172.00
1074.646, 41168.00
1075.747, 41065.00
1076.848, 41095.00
1077.949, 41429.00
1079.050, 41213.00
1080.150, 41441.00
1081.251, 41627.00
1082.351, 41376.00
1083.451, 41675.00
1084.551, 41945.00
1085.651, 42448.00
1086.750, 43009.00
1087.850, 42968.00
1088.949, 42676.00
1090.048, 42050.00
1091.147, 41763.00
1092.246, 41469.00
1093.345, 41590.00
1094.443, 41441.00
1095.541, 41524.00
1096.639, 41450.00
1097.737, 41786.00
1098.835, 41789.00
1099.933, 41756.00
1101.030, 41661.00
1102.128, 41757.00
1103.225, 41757.00
1104.322, 41814.00
1105.419, 41960.00
1106.515, 42089.00
1107.612, 41923.00
1108.708, 41883.00
1109.804, 41955.00
1110.900, 41931.41
1111.996, 41920.00
1113.092, 42119.00
1114.187, 42286.00
1115.283, 42525.00
1116.378, 42246.00
1117.473, 42469.00
1118.568, 42276.00
1119.662, 42559.00
1120.757, 42621.00
1121.851, 42624.00
1122.946, 42629.00
1124.040, 42680.31
1125.134, 42632.00
1126.227, 42681.00
1127.321, 42662.00
1128.414, 42494.00
1129.508, 42798.00
1130.601, 42854.00
1131.693, 42489.00
1132.786, 43053.00
1133.879, 43021.00
1134.971, 42700.00
1136.064, 42618.00
1137.156, 43152.00
1138.248, 43053.00
1139.339, 43141.00
1140.431, 42981.00
1141.522, 43316.00
1142.614, 43395.00
1143.705, 43054.00
1144.796, 43328.00
1145.887, 43318.00
1146.977, 43051.00
1148.068, 43296.00
1149.158, 43425.00
1150.248, 43448.00
1151.338, 43447.00
1152.428, 43374.00
1153.518, 43576.00
1154.607, 43711.00
1155.696, 43600.00
1156.785, 43694.00
1157.874, 43774.00
1158.963, 43826.00
1160.052, 43872.00
1161.141, 43756.00
1162.229, 43868.00
1163.317, 43810.00
1164.405, 43940.00
1165.493, 43947.00
1166.581, 43907.00
1167.668, 43816.00
1168.756, 44028.00
1169.843, 44146.00
1170.930, 44088.00
1172.017, 44339.00
1173.103, 44302.00
1174.190, 44721.00
1175.276, 44322.00
1176.363, 44438.00
1177.449, 44301.00
1178.535, 44510.00
1179.620, 44487.00
1180.706, 44454.00
1181.791, 44427.00
1182.877, 44683.00
1183.962, 44597.00
1185.047, 44528.00
1186.131, 44943.00
1187.216, 44715.00
1188.300, 44803.00
1189.385, 44898.00
1190.469, 44831.00
1191.553, 44906.00
1192.637, 44677.00
1193.720, 44888.00
1194.804, 44851.00
1195.887, 45007.00
1196.970, 45063.00
1198.053, 45016.00
1199.136, 45121.00
1200.219, 45217.00
1201.301, 45484.00
1202.383, 45235.00
1203.465, 45399.00
1204.547, 45441.00
1205.629, 45368.00
1206.711, 45469.00
1207.792, 45375.00
1208.874, 45462.00
1209.955, 45432.58
1211.036, 45462.00
1212.117, 45422.00
1213.198, 45441.00
1214.278, 45498.71
1215.359, 45584.42
1216.439, 45764.00
1217.519, 45867.00
1218.599, 45894.00
1219.678, 46083.00
1220.758, 46056.00
1221.837, 45923.00
1222.917, 46165.00
1223.996, 46134.00
1225.075, 46144.00
1226.153, 46173.00
1227.232, 46230.00
1228.310, 46312.00
1229.389, 46301.00
1230.467, 46306.00
1231.545, 46176.00
1232.622, 46356.00
1233.700, 46502.00
1234.777, 46417.00
1235.855, 46607.00
1236.932, 46497.00
1238.009, 46650.00
1239.086, 46617.00
1240.162, 46842.00
1241.239, 46499.00
1242.315, 46793.00
1243.391, 46669.00
1244.467, 46979.00
1245.543, 46829.00
1246.619, 46862.00
1247.694, 46860.00
1248.769, 47113.00
1249.844, 47280.00
1250.919, 47066.00
1251.994, 46940.00
1253.069, 46997.00
1254.144, 47189.00
1255.218, 46876.00
1256.292, 47331.00
1257.366, 46921.00
1258.440, 47517.00
1259.514, 47625.00
1260.587, 47209.00
1261.661, 47339.00
1262.734, 47737.00
1263.807, 47360.00
1264.880, 47349.00
1265.952, 47443.00
1267.025, 47584.00
1268.097, 47613.00
1269.170, 47722.00
1270.242, 47783.00
1271.314, 47875.00
1272.385, 47737.00
1273.457, 47807.00
1274.528, 47651.00
1275.600, 47831.00
1276.671, 48068.00
1277.742, 48185.00
1278.812, 48233.00
1279.883, 48185.00
1280.954, 48225.28
1282.024, 48149.00
1283.094, 48234.00
1284.164, 48164.00
1285.234, 48265.00
1286.303, 47999.00
1287.373, 48117.00
1288.442, 48460.00
1289.511, 48609.00
1290.580, 48399.00
1291.649, 48305.00
1292.718, 48311.00
1293.786, 48829.00
1294.855, 48713.00
1295.923, 48543.00
1296.991, 48735.00
1298.059, 48577.00
1299.126, 49022.00
1300.194, 48608.00
1301.261, 49193.00
1302.328, 48932.00
1303.395, 49179.00
1304.462, 49161.00
1305.529, 49088.00
1306.596, 49229.00
1307.662, 49173.00
1308.728, 49515.00
1309.794, 49218.00
1310.860, 49421.00
1311.926, 49277.00
1312.991, 49499.00
1314.057, 49317.00
1315.122, 49584.00
1316.187, 49948.00
1317.252, 49765.00
1318.317, 49857.00
1319.381, 50006.00
1320.446, 49902.00
1321.510, 49674.00
1322.574, 49727.00
1323.638, 49684.00
1324.702, 49820.00
1325.766, 49798.00
1326.829, 49899.00
1327.892, 50234.00
1328.956, 49808.00
1330.019, 50374.00
1331.081, 50271.00
1332.144, 50258.00
1333.206, 50071.00
1334.269, 50199.00
1335.331, 50007.00
1336.393, 50175.00
1337.455, 50411.00
1338.516, 50570.00
1339.578, 50519.00
1340.639, 50419.00
1341.701, 50321.00
1342.762, 50531.00
1343.822, 50570.00
1344.883, 50612.00
1345.944, 50592.00
1347.004, 50820.00
1348.064, 50922.00
1349.124, 50719.00
1350.184, 50835.00
1351.244, 51098.00
1352.304, 50825.00
1353.363, 50843.00
1354.422, 51043.00
1355.481, 51003.00
1356.540, 50895.00
1357.599, 51137.00
1358.657, 51082.00
1359.716, 51134.00
1360.774, 51186.00
1361.832, 51288.00
1362.890, 51453.00
1363.948, 51214.00
1365.006, 51011.00
1366.063, 51238.00
1367.120, 51430.00
1368.178, 51268.00
1369.234, 51746.00
1370.291, 51613.00
1371.348, 51580.00
1372.404, 51574.00
1373.461, 51608.00
1374.517, 51592.79
1375.573, 51620.00
1376.629, 51618.00
1377.684, 51664.00
1378.740, 51701.98
1379.795, 51723.07
1380.850, 51790.00
1381.905, 51799.00
1382.960, 51950.00
1384.015, 52028.00
1385.070, 51861.00
1386.124, 51992.00
1387.178, 51741.00
1388.232, 52220.00
1389.286, 52033.00
1390.340, 51868.00
1391.393, 52169.00
1392.447, 52164.00
1393.500, 52295.00
1394.553, 52257.00
1395.606, 52227.00
1396.659, 52324.00
1397.711, 52425.00
1398.764, 51983.00
1399.816, 52231.00
1400.868, 52068.00
1401.920, 52613.00
1402.972, 52568.00
1404.023, 52441.00
1405.075, 52339.00
1406.126, 52793.00
1407.177, 52816.00
1408.228, 52607.00
1409.279, 52857.00
1410.330, 52783.00
1411.380, 52693.00
1412.431, 52752.00
1413.481, 53150.00
1414.531, 52858.00
1415.580, 53178.00
1416.630, 52944.00
1417.680, 53088.00
1418.729, 53269.00
1419.778, 53064.00
1420.827, 53002.00
1421.876, 53253.00
1422.925, 53202.00
1423.973, 53251.00
1425.022, 53514.00
1426.070, 53572.00
1427.118, 53457.00
1428.166, 53687.00
1429.214, 53700.00
1430.261, 53434.00
1431.309, 53563.00
1432.356, 53921.00
1433.403, 54070.00
1434.450, 53927.00
1435.497, 54256.00
1436.543, 54118.00
1437.590, 54321.00
1438.636, 53916.00
1439.682, 54047.00
1440.728, 54231.00
1441.774, 54479.00
1442.819, 54577.00
1443.865, 54655.63
1444.910, 54719.69
1445.955, 54711.00
1447.000, 54775.00
1448.045, 54826.00
1449.090, 54965.00
1450.134, 54802.00
1451.178, 54787.00
1452.223, 54692.00
1453.267, 54500.00
1454.310, 54649.00
1455.354, 54957.00
1456.398, 54955.00
1457.441, 54657.00
1458.484, 55102.00
1459.527, 54757.00
1460.570, 55092.00
1461.613, 54939.00
1462.655, 55032.00
1463.698, 54946.00
1464.740, 55231.00
1465.782, 55020.00
1466.824, 55224.00
1467.866, 55013.00
1468.907, 55177.00
1469.948, 55167.00
1470.990, 55088.00
1472.031, 55109.00
1473.072, 55124.00
1474.112, 55313.00
1475.153, 55423.00
1476.194, 55483.00
1477.234, 55252.00
1478.274, 55404.00
1479.314, 55075.00
1480.354, 55251.00
1481.393, 55332.00
1482.433, 55721.00
1483.472, 55392.00
1484.511, 55490.00
1485.550, 55546.00
1486.589, 55585.00
1487.628, 55807.00
1488.666, 55697.00
1489.704, 55621.00
1490.743, 55749.00
1491.781, 56019.00
1492.819, 56031.00
1493.856, 55943.00
1494.894, 55933.00
1495.931, 55834.00
1496.968, 55768.00
1498.005, 55800.00
1499.042, 55975.00
1500.079, 55945.00
1501.115, 55983.00
1502.152, 56133.00
1503.188, 56085.73
1504.224, 56218.62
1505.260, 56086.00
1506.296, 56380.00
1507.331, 56379.00
1508.367, 56390.00
1509.402, 56260.00
1510.437, 56405.00
1511.472, 56448.00
1512.507, 56452.00
1513.541, 56538.07
1514.576, 56560.00
1515.610, 56576.00
1516.644, 56696.00
1517.678, 56618.00
1518.712, 56612.00
1519.746, 56833.00
1520.779, 56601.00
1521.813, 56839.00
1522.846, 57189.00
1523.879, 56889.00
1524.912, 57074.00
1525.944, 56651.00
1526.977, 56894.00
1528.009, 56908.00
1529.041, 56972.00
1530.073, 57096.00
1531.105, 57135.70
1532.137, 57304.00
1533.168, 57294.00
1534.200, 57255.00
1535.231, 57340.00
1536.262, 57399.00
1537.293, 57161.00
1538.324, 57768.00
1539.354, 57335.00
1540.385, 57506.00
1541.415, 57570.00
1542.445, 57430.00
1543.475, 57594.00
1544.505, 57581.00
1545.534, 57565.00
1546.564, 57719.00
1547.593, 57776.00
1548.622, 57754.05
1549.651, 57625.00
1550.680, 57737.00
1551.708, 57757.00
1552.737, 57815.82
1553.765, 57935.00
1554.793, 57810.00
1555.821, 58041.00
1556.849, 57988.00
1557.877, 58230.00
1558.904, 58378.00
1559.932, 58110.00
1560.959, 58280.00
1561.986, 58428.00
1563.013, 58142.00
1564.039, 57848.00
1565.066, 58369.00
1566.092, 58251.00
1567.119, 58312.00
1568.145, 58356.00
1569.170, 58523.00
1570.196, 58585.00
##END=



