##NAMES=Jadeite
##RRUFFID=R050220
##IDEAL CHEMISTRY=NaAlSi_2_O_6_
##LOCALITY=Clear Creek, San Benito County, California, USA
##OWNER=RRUFF
##SOURCE=Hatt Yoder
##DESCRIPTION=Aggregate of colorless bladed crystals
##STATUS=The identification of this mineral has been confirmed by X-ray diffraction and chemical analysis
##URL=rruff.info/R050220
##MEASURED CHEMISTRY=Na_1.00_Al_1.00_(Si_0.99_Al_0.01_)_2_O_6_
##PIN_ID=L00826
##ORIENTATION=Laser parallel to c* (0 0 1). Fiducial mark perpendicular to laser is parallel to a [1 0 0]
112.9460, 4871.000
114.1820, 5168.000
115.4170, 5262.000
116.6530, 5192.000
117.8880, 5321.000
119.1230, 5249.000
120.3580, 5255.000
121.5920, 5382.000
122.8270, 5455.000
124.0610, 5668.000
125.2950, 5712.000
126.5290, 5798.000
127.7630, 5937.000
128.9970, 6281.000
130.2300, 6503.000
131.4640, 7007.000
132.6970, 7441.000
133.9300, 8084.000
135.1630, 8898.000
136.3950, 9710.000
137.6280, 11161.00
138.8600, 12676.00
140.0920, 14579.00
141.3240, 15853.00
142.5560, 16662.00
143.7880, 16736.00
145.0190, 16121.00
146.2510, 14641.00
147.4820, 12743.00
148.7130, 10969.00
149.9440, 9322.000
151.1750, 8176.000
152.4050, 7405.000
153.6360, 6909.000
154.8660, 6679.000
156.0960, 6333.000
157.3260, 6184.000
158.5560, 5944.000
159.7850, 5823.000
161.0150, 5788.000
162.2440, 5586.000
163.4730, 5633.000
164.7020, 5662.000
165.9310, 5643.000
167.1590, 5567.000
168.3880, 5523.000
169.6160, 5528.000
170.8440, 5628.000
172.0720, 5496.000
173.3000, 5498.000
174.5280, 5426.000
175.7550, 5535.000
176.9820, 5527.000
178.2100, 5485.000
179.4370, 5544.000
180.6630, 5539.000
181.8900, 5572.000
183.1170, 5558.000
184.3430, 5784.000
185.5690, 5753.000
186.7950, 5963.000
188.0210, 6099.000
189.2470, 6421.000
190.4720, 6931.000
191.6970, 7737.000
192.9230, 8867.000
194.1480, 9888.000
195.3730, 10693.00
196.5970, 11835.00
197.8220, 14029.00
199.0460, 17079.00
200.2700, 20510.00
201.4940, 23672.00
202.7180, 26295.00
203.9420, 27490.00
205.1660, 26106.00
206.3890, 22842.00
207.6120, 18940.00
208.8350, 14718.00
210.0580, 11445.00
211.2810, 9272.000
212.5040, 8035.000
213.7260, 7467.000
214.9480, 7092.000
216.1700, 7118.000
217.3920, 7232.000
218.6140, 7989.000
219.8360, 8602.000
221.0570, 9287.000
222.2790, 9819.000
223.5000, 10274.00
224.7210, 9823.000
225.9410, 8912.000
227.1620, 7863.000
228.3820, 6979.000
229.6030, 6126.000
230.8230, 5950.000
232.0430, 5672.000
233.2630, 5740.000
234.4820, 5699.000
235.7020, 5649.000
236.9210, 5587.000
238.1400, 5587.000
239.3590, 5618.266
240.5780, 5678.195
241.7970, 5766.970
243.0150, 5898.000
244.2340, 6031.000
245.4520, 6368.000
246.6700, 6710.000
247.8880, 7041.000
249.1060, 7238.000
250.3230, 7756.000
251.5400, 8619.000
252.7580, 9698.000
253.9750, 10630.00
255.1920, 11150.00
256.4080, 11344.00
257.6250, 10743.00
258.8410, 9760.000
260.0580, 8496.000
261.2740, 7225.000
262.4900, 6419.000
263.7050, 6105.000
264.9210, 5922.000
266.1360, 5835.000
267.3520, 5800.000
268.5670, 5845.000
269.7820, 5730.000
270.9960, 5938.000
272.2110, 5907.000
273.4250, 5911.000
274.6400, 6007.000
275.8540, 5971.000
277.0680, 6179.000
278.2810, 6227.000
279.4950, 6554.000
280.7090, 6623.000
281.9220, 6828.000
283.1350, 7213.000
284.3480, 7450.000
285.5610, 7800.000
286.7730, 8420.000
287.9860, 8954.000
289.1980, 9502.000
290.4100, 10027.00
291.6220, 10445.00
292.8340, 10607.00
294.0460, 10448.00
295.2570, 10258.00
296.4690, 9882.000
297.6800, 9106.000
298.8910, 8806.000
300.1020, 8386.000
301.3120, 8127.000
302.5230, 8021.000
303.7330, 7920.000
304.9440, 7974.000
306.1540, 7979.000
307.3630, 8033.000
308.5730, 8303.000
309.7830, 8288.000
310.9920, 8276.000
312.2010, 8239.000
313.4100, 8106.000
314.6190, 8073.000
315.8280, 7854.000
317.0370, 8143.000
318.2450, 8386.000
319.4530, 8947.000
320.6610, 9615.000
321.8690, 10341.00
323.0770, 11180.00
324.2850, 12696.00
325.4920, 14444.00
326.6990, 15765.00
327.9060, 17006.00
329.1130, 17468.00
330.3200, 16779.00
331.5270, 15183.00
332.7330, 13233.00
333.9390, 11336.00
335.1450, 9621.000
336.3510, 8464.000
337.5570, 7861.000
338.7630, 7371.000
339.9680, 7182.000
341.1740, 6931.000
342.3790, 6814.000
343.5840, 6765.000
344.7890, 6673.000
345.9930, 6706.000
347.1980, 6772.000
348.4020, 6762.854
349.6060, 6834.853
350.8100, 6872.000
352.0140, 6976.000
353.2180, 7101.000
354.4210, 7240.000
355.6250, 7294.000
356.8280, 7583.000
358.0310, 8055.000
359.2340, 8468.000
360.4360, 9239.000
361.6390, 10093.00
362.8410, 11521.00
364.0430, 13194.00
365.2450, 15386.00
366.4470, 17878.00
367.6490, 21554.00
368.8510, 24892.00
370.0520, 28549.00
371.2530, 33426.00
372.4540, 37977.00
373.6550, 41372.00
374.8560, 43106.00
376.0560, 42425.00
377.2570, 40054.00
378.4570, 36047.00
379.6570, 31959.00
380.8570, 28916.00
382.0570, 26717.00
383.2560, 25458.00
384.4560, 24406.00
385.6550, 23241.00
386.8540, 21738.00
388.0530, 19773.00
389.2520, 17295.00
390.4510, 15121.00
391.6490, 13151.00
392.8470, 11624.00
394.0450, 10694.00
395.2430, 9992.000
396.4410, 9406.000
397.6390, 9103.000
398.8360, 8718.000
400.0340, 8712.000
401.2310, 8404.000
402.4280, 8459.000
403.6250, 8265.000
404.8210, 8262.000
406.0180, 8231.000
407.2140, 8333.000
408.4100, 8459.000
409.6060, 8494.000
410.8020, 8843.000
411.9980, 8917.000
413.1930, 9420.000
414.3890, 9644.000
415.5840, 9888.000
416.7790, 10156.00
417.9740, 10423.00
419.1680, 10546.00
420.3630, 10456.00
421.5570, 10348.00
422.7510, 10381.00
423.9450, 10570.00
425.1390, 10776.00
426.3330, 11092.00
427.5270, 11547.00
428.7200, 12066.00
429.9130, 12687.00
431.1060, 13305.00
432.2990, 13595.00
433.4920, 13608.29
434.6840, 13451.00
435.8770, 13010.00
437.0690, 12473.00
438.2610, 11658.00
439.4530, 10893.00
440.6450, 9950.000
441.8360, 9387.000
443.0280, 8799.000
444.2190, 8514.000
445.4100, 8054.000
446.6010, 7798.000
447.7920, 7636.000
448.9820, 7596.000
450.1730, 7309.000
451.3630, 7258.000
452.5530, 7229.000
453.7430, 7123.000
454.9330, 7076.000
456.1230, 6977.000
457.3120, 7010.000
458.5010, 6890.000
459.6910, 6991.000
460.8800, 6943.000
462.0680, 6929.000
463.2570, 6969.000
464.4460, 6967.000
465.6340, 6931.000
466.8220, 6960.000
468.0100, 7002.000
469.1980, 7064.000
470.3860, 6983.000
471.5730, 7059.000
472.7600, 7068.000
473.9480, 7116.000
475.1350, 7205.000
476.3210, 7260.000
477.5080, 7324.000
478.6950, 7299.000
479.8810, 7446.000
481.0670, 7346.000
482.2530, 7348.000
483.4390, 7494.000
484.6250, 7433.000
485.8100, 7371.000
486.9960, 7359.000
488.1810, 7296.803
489.3660, 7294.000
490.5510, 7216.000
491.7360, 7193.000
492.9200, 7170.000
494.1050, 7204.000
495.2890, 7161.000
496.4730, 7170.000
497.6570, 7210.000
498.8400, 7187.000
500.0240, 7113.000
501.2070, 7164.000
502.3910, 7206.000
503.5740, 7257.388
504.7570, 7376.000
505.9400, 7468.000
507.1220, 7560.000
508.3050, 7732.000
509.4870, 7900.000
510.6690, 7918.000
511.8510, 8101.000
513.0330, 8377.000
514.2140, 8632.000
515.3960, 8924.000
516.5770, 9349.000
517.7580, 9741.000
518.9390, 10213.00
520.1200, 10857.00
521.3010, 11511.00
522.4810, 12037.00
523.6610, 12380.00
524.8420, 12293.00
526.0220, 12017.00
527.2010, 11330.00
528.3810, 10486.00
529.5610, 9461.000
530.7400, 8932.000
531.9190, 8429.000
533.0980, 8080.000
534.2770, 7817.000
535.4560, 7493.000
536.6340, 7476.000
537.8120, 7410.000
538.9910, 7329.000
540.1690, 7368.000
541.3460, 7327.000
542.5240, 7232.000
543.7020, 7206.000
544.8790, 7339.000
546.0560, 7213.000
547.2330, 7245.000
548.4100, 7111.000
549.5870, 7167.688
550.7630, 7322.000
551.9400, 7290.000
553.1160, 7348.000
554.2920, 7453.000
555.4680, 7462.000
556.6440, 7537.000
557.8190, 7582.000
558.9950, 7698.000
560.1700, 7890.000
561.3450, 7952.000
562.5200, 7996.000
563.6950, 8064.000
564.8690, 8455.000
566.0440, 8734.000
567.2180, 9067.000
568.3920, 9483.000
569.5660, 10188.00
570.7400, 10894.00
571.9130, 11613.00
573.0870, 12473.00
574.2600, 12913.00
575.4330, 13171.00
576.6060, 13089.00
577.7790, 12274.00
578.9520, 11441.00
580.1240, 10505.00
581.2960, 9720.000
582.4690, 9115.000
583.6410, 8822.000
584.8120, 8658.000
585.9840, 8545.000
587.1560, 8642.000
588.3270, 8476.000
589.4980, 8482.000
590.6690, 8387.000
591.8400, 8297.000
593.0110, 8097.000
594.1810, 8022.000
595.3510, 7763.000
596.5220, 7655.000
597.6920, 7663.000
598.8610, 7652.000
600.0310, 7500.000
601.2010, 7534.000
602.3700, 7476.000
603.5390, 7429.000
604.7080, 7501.000
605.8770, 7581.000
607.0460, 7486.000
608.2140, 7424.000
609.3830, 7498.000
610.5510, 7433.000
611.7190, 7540.000
612.8870, 7660.000
614.0550, 7625.000
615.2220, 7627.000
616.3900, 7599.000
617.5570, 7624.000
618.7240, 7781.000
619.8910, 7704.000
621.0580, 7809.000
622.2240, 7780.000
623.3910, 7770.000
624.5570, 7880.000
625.7230, 7855.000
626.8890, 8019.000
628.0550, 8060.000
629.2200, 8198.000
630.3860, 8247.000
631.5510, 8274.000
632.7160, 8372.000
633.8810, 8432.000
635.0460, 8463.000
636.2100, 8573.000
637.3750, 8556.000
638.5390, 8686.000
639.7030, 8493.000
640.8670, 8568.000
642.0310, 8538.000
643.1950, 8435.000
644.3580, 8381.000
645.5210, 8348.000
646.6850, 8296.000
647.8480, 8324.000
649.0100, 8249.000
650.1730, 8299.000
651.3350, 8245.000
652.4980, 8188.000
653.6600, 8195.000
654.8220, 8170.000
655.9840, 8121.000
657.1450, 8219.000
658.3070, 8182.000
659.4680, 8144.000
660.6300, 8261.000
661.7910, 8269.000
662.9510, 8275.000
664.1120, 8363.000
665.2730, 8371.000
666.4330, 8397.000
667.5930, 8398.000
668.7530, 8547.000
669.9130, 8635.000
671.0730, 8570.000
672.2320, 8681.000
673.3920, 8886.000
674.5510, 8963.000
675.7100, 9160.000
676.8690, 9358.000
678.0280, 9561.496
679.1860, 9879.000
680.3450, 10094.00
681.5030, 10391.00
682.6610, 10754.00
683.8190, 11296.00
684.9770, 12104.00
686.1340, 12831.00
687.2920, 13933.00
688.4490, 15254.00
689.6060, 17504.00
690.7630, 19915.00
691.9200, 23143.00
693.0760, 27201.00
694.2330, 31779.00
695.3890, 37032.00
696.5450, 42738.00
697.7010, 48015.00
698.8570, 51893.00
700.0130, 53487.00
701.1680, 51798.00
702.3230, 47168.00
703.4780, 41191.00
704.6330, 34617.00
705.7880, 28696.00
706.9430, 23771.00
708.0970, 20332.00
709.2520, 17615.00
710.4060, 15652.00
711.5600, 14213.00
712.7140, 13236.00
713.8670, 12196.00
715.0210, 11525.00
716.1740, 11017.00
717.3270, 10536.00
718.4800, 10314.00
719.6330, 10051.00
720.7860, 9789.000
721.9380, 9456.000
723.0910, 9346.000
724.2430, 9287.000
725.3950, 9193.000
726.5470, 8959.000
727.6980, 8991.000
728.8500, 8914.000
730.0010, 8749.000
731.1530, 8759.000
732.3040, 8726.000
733.4550, 8574.000
734.6050, 8562.000
735.7560, 8604.000
736.9060, 8496.000
738.0560, 8585.000
739.2060, 8413.000
740.3560, 8459.000
741.5060, 8558.000
742.6560, 8356.000
743.8050, 8487.000
744.9540, 8426.000
746.1030, 8327.000
747.2520, 8434.000
748.4010, 8186.000
749.5500, 8403.000
750.6980, 8333.000
751.8460, 8326.000
752.9950, 8301.000
754.1420, 8252.000
755.2900, 8336.000
756.4380, 8314.000
757.5850, 8315.000
758.7330, 8325.000
759.8800, 8247.000
761.0270, 8285.000
762.1730, 8216.000
763.3200, 8294.000
764.4670, 8365.000
765.6130, 8396.000
766.7590, 8339.000
767.9050, 8493.000
769.0510, 8383.000
770.1960, 8439.000
771.3420, 8518.000
772.4870, 8465.000
773.6320, 8689.000
774.7770, 8685.000
775.9220, 8868.000
777.0670, 8749.000
778.2110, 8919.000
779.3560, 8981.000
780.5000, 9000.000
781.6440, 8911.000
782.7880, 8640.000
783.9320, 8679.000
785.0750, 8509.000
786.2180, 8475.000
787.3620, 8450.000
788.5050, 8412.000
789.6480, 8380.000
790.7900, 8257.000
791.9330, 8372.000
793.0750, 8316.000
794.2170, 8411.000
795.3590, 8411.610
796.5010, 8394.000
797.6430, 8408.000
798.7850, 8427.000
799.9260, 8390.000
801.0670, 8406.000
802.2080, 8382.000
803.3490, 8430.000
804.4900, 8334.000
805.6310, 8353.004
806.7710, 8321.000
807.9110, 8351.000
809.0510, 8391.000
810.1910, 8450.000
811.3310, 8434.000
812.4710, 8386.000
813.6100, 8390.000
814.7490, 8396.000
815.8880, 8347.000
817.0270, 8470.000
818.1660, 8510.000
819.3050, 8547.000
820.4430, 8393.000
821.5820, 8516.000
822.7200, 8451.000
823.8580, 8529.000
824.9950, 8483.000
826.1330, 8535.000
827.2710, 8454.000
828.4080, 8521.000
829.5450, 8573.000
830.6820, 8621.000
831.8190, 8625.519
832.9560, 8626.000
834.0920, 8628.000
835.2280, 8612.000
836.3650, 8652.000
837.5010, 8561.000
838.6360, 8706.000
839.7720, 8604.000
840.9080, 8680.000
842.0430, 8626.000
843.1780, 8655.000
844.3130, 8659.000
845.4480, 8676.000
846.5830, 8629.000
847.7170, 8713.000
848.8520, 8775.000
849.9860, 8806.770
851.1200, 8723.000
852.2540, 8882.000
853.3870, 8874.000
854.5210, 8807.000
855.6540, 8891.000
856.7880, 8781.000
857.9210, 8903.000
859.0540, 8927.000
860.1860, 8899.000
861.3190, 8897.000
862.4510, 8917.000
863.5840, 8996.000
864.7160, 9025.000
865.8480, 8986.000
866.9790, 8973.000
868.1110, 9066.000
869.2420, 9018.000
870.3740, 9085.000
871.5050, 9127.000
872.6360, 9227.000
873.7660, 9146.000
874.8970, 9285.000
876.0280, 9298.000
877.1580, 9491.000
878.2880, 9478.000
879.4180, 9717.000
880.5480, 9776.000
881.6770, 9894.000
882.8070, 10073.00
883.9360, 10068.00
885.0650, 10175.00
886.1940, 10384.00
887.3230, 10385.00
888.4520, 10499.00
889.5800, 10369.00
890.7090, 10259.00
891.8370, 10102.00
892.9650, 9910.000
894.0930, 9790.000
895.2200, 9655.000
896.3480, 9496.000
897.4750, 9481.000
898.6020, 9374.000
899.7290, 9394.000
900.8560, 9375.000
901.9830, 9328.000
903.1090, 9339.727
904.2360, 9305.183
905.3620, 9307.000
906.4880, 9279.000
907.6140, 9224.000
908.7400, 9240.000
909.8650, 9193.000
910.9900, 9285.000
912.1160, 9196.000
913.2410, 9205.000
914.3660, 9164.000
915.4900, 9106.000
916.6150, 9234.000
917.7390, 9257.000
918.8640, 9231.000
919.9880, 9233.000
921.1120, 9187.000
922.2350, 9368.000
923.3590, 9164.000
924.4820, 9229.000
925.6060, 9354.000
926.7290, 9183.000
927.8520, 9246.000
928.9740, 9341.000
930.0970, 9262.000
931.2190, 9386.000
932.3420, 9403.000
933.4640, 9412.000
934.5860, 9313.000
935.7080, 9463.000
936.8290, 9363.000
937.9510, 9378.000
939.0720, 9452.000
940.1930, 9485.000
941.3140, 9487.000
942.4350, 9452.000
943.5560, 9499.000
944.6760, 9562.000
945.7960, 9463.000
946.9170, 9494.000
948.0370, 9494.000
949.1560, 9567.000
950.2760, 9661.000
951.3960, 9691.000
952.5150, 9846.000
953.6340, 9736.000
954.7530, 9756.000
955.8720, 9767.000
956.9910, 9924.000
958.1090, 9883.000
959.2280, 9941.000
960.3460, 10062.00
961.4640, 9936.000
962.5820, 10068.00
963.6990, 10227.00
964.8170, 10285.00
965.9340, 10323.00
967.0510, 10623.00
968.1690, 10601.00
969.2850, 10787.00
970.4020, 11038.00
971.5190, 11195.00
972.6350, 11387.00
973.7510, 11601.00
974.8670, 11952.00
975.9830, 12447.00
977.0990, 13196.00
978.2150, 13807.00
979.3300, 14955.00
980.4450, 16195.00
981.5600, 17519.00
982.6750, 19269.00
983.7900, 21237.00
984.9050, 23209.00
986.0190, 24637.00
987.1340, 25802.00
988.2480, 25976.00
989.3620, 25965.00
990.4750, 25885.00
991.5890, 25470.00
992.7020, 24774.00
993.8160, 23496.00
994.9290, 21860.00
996.0420, 19853.00
997.1550, 17919.00
998.2670, 16268.00
999.3800, 15027.00
1000.492, 13921.00
1001.604, 13392.00
1002.716, 12892.00
1003.828, 12377.00
1004.940, 11968.00
1006.051, 11878.00
1007.163, 11714.00
1008.274, 11672.00
1009.385, 11413.00
1010.496, 11392.00
1011.606, 11311.00
1012.717, 11379.00
1013.827, 11379.00
1014.937, 11461.00
1016.047, 11481.00
1017.157, 11555.00
1018.267, 11749.62
1019.377, 11959.00
1020.486, 12224.00
1021.595, 12550.00
1022.704, 12887.00
1023.813, 13298.00
1024.922, 13727.00
1026.030, 14468.00
1027.139, 15359.00
1028.247, 16419.00
1029.355, 17627.00
1030.463, 19329.00
1031.571, 21623.00
1032.678, 24474.00
1033.786, 27961.00
1034.893, 32317.00
1036.000, 37476.00
1037.107, 42531.00
1038.214, 47096.00
1039.321, 49836.00
1040.427, 50286.00
1041.533, 47388.00
1042.639, 42376.00
1043.745, 36353.00
1044.851, 30659.00
1045.957, 25866.00
1047.062, 22304.00
1048.168, 19519.00
1049.273, 17567.00
1050.378, 16074.00
1051.482, 14879.00
1052.587, 14209.00
1053.692, 13518.00
1054.796, 13010.00
1055.900, 12624.00
1057.004, 12402.00
1058.108, 12156.00
1059.212, 11912.00
1060.315, 11881.00
1061.418, 11590.00
1062.522, 11581.00
1063.625, 11422.00
1064.728, 11325.00
1065.830, 11326.00
1066.933, 11194.00
1068.035, 11111.00
1069.137, 11134.00
1070.239, 11036.00
1071.341, 11087.00
1072.443, 11113.00
1073.545, 11130.00
1074.646, 11093.00
1075.747, 11347.00
1076.848, 11386.00
1077.949, 11713.00
1079.050, 11887.00
1080.150, 12231.00
1081.251, 12498.00
1082.351, 12394.00
1083.451, 12388.00
1084.551, 12168.00
1085.651, 12088.00
1086.750, 11894.00
1087.850, 11464.00
1088.949, 11092.00
1090.048, 10850.00
1091.147, 10738.00
1092.246, 10715.00
1093.345, 10549.00
1094.443, 10595.00
1095.541, 10635.00
1096.639, 10385.00
1097.737, 10545.00
1098.835, 10457.00
1099.933, 10486.00
1101.030, 10512.22
1102.128, 10461.00
1103.225, 10491.00
1104.322, 10465.00
1105.419, 10486.14
1106.515, 10496.00
1107.612, 10539.00
1108.708, 10557.00
1109.804, 10582.92
1110.900, 10559.00
1111.996, 10590.00
1113.092, 10519.00
1114.187, 10544.00
1115.283, 10444.00
1116.378, 10655.00
1117.473, 10535.00
1118.568, 10556.00
1119.662, 10647.00
1120.757, 10481.00
1121.851, 10375.00
1122.946, 10579.00
1124.040, 10478.00
1125.134, 10651.00
1126.227, 10644.00
1127.321, 10516.00
1128.414, 10478.00
1129.508, 10637.00
1130.601, 10590.00
1131.693, 10567.00
1132.786, 10533.00
1133.879, 10583.00
1134.971, 10507.00
1136.064, 10547.00
1137.156, 10655.00
1138.248, 10523.00
1139.339, 10436.00
1140.431, 10471.00
1141.522, 10638.00
1142.614, 10549.00
1143.705, 10567.00
1144.796, 10545.00
1145.887, 10533.00
1146.977, 10523.29
1148.068, 10561.00
1149.158, 10526.00
1150.248, 10528.00
1151.338, 10613.00
1152.428, 10664.00
1153.518, 10663.00
1154.607, 10729.00
1155.696, 10751.00
1156.785, 10590.00
1157.874, 10669.00
1158.963, 10653.00
1160.052, 10633.00
1161.141, 10675.00
1162.229, 10731.00
1163.317, 10738.00
1164.405, 10733.00
1165.493, 10694.00
1166.581, 10693.56
1167.668, 10796.00
1168.756, 10674.00
1169.843, 10767.00
1170.930, 10795.00
1172.017, 10733.00
1173.103, 10785.00
1174.190, 10861.00
1175.276, 10726.00
1176.363, 10842.00
1177.449, 10816.00
1178.535, 10782.00
1179.620, 10743.00
1180.706, 10855.00
1181.791, 10794.00
1182.877, 10863.00
1183.962, 10871.00
1185.047, 10740.00
1186.131, 10831.00
1187.216, 10787.00
1188.300, 10775.00
1189.385, 10832.00
1190.469, 10796.00
1191.553, 10813.00
1192.637, 10863.00
1193.720, 10849.00
1194.804, 10812.00
1195.887, 10876.00
1196.970, 10898.00
1198.053, 10786.00
1199.136, 10730.00
1200.219, 10838.00
1201.301, 10860.00
1202.383, 10863.89
1203.465, 10795.00
1204.547, 10883.00
1205.629, 10927.00
1206.711, 10922.00
1207.792, 11135.00
1208.874, 11003.00
1209.955, 10796.00
1211.036, 11051.00
1212.117, 11007.00
1213.198, 11051.00
1214.278, 11098.00
1215.359, 11042.00
1216.439, 11017.00
1217.519, 10914.00
1218.599, 10964.00
1219.678, 11067.00
1220.758, 11184.00
1221.837, 10972.00
1222.917, 11126.00
1223.996, 11196.00
1225.075, 11062.00
1226.153, 11129.00
1227.232, 11142.00
1228.310, 11152.00
1229.389, 11087.00
1230.467, 11134.00
1231.545, 11088.00
1232.622, 11201.00
1233.700, 11163.00
1234.777, 11296.00
1235.855, 11222.00
1236.932, 11258.32
1238.009, 11136.00
1239.086, 11276.00
1240.162, 11192.00
1241.239, 11212.00
1242.315, 11354.00
1243.391, 11267.00
1244.467, 11151.00
1245.543, 11352.00
1246.619, 11280.00
1247.694, 11171.00
1248.769, 11220.00
1249.844, 11384.00
1250.919, 11342.00
1251.994, 11386.00
1253.069, 11295.00
1254.144, 11281.00
1255.218, 11319.00
1256.292, 11236.00
1257.366, 11232.00
1258.440, 11306.00
1259.514, 11484.00
1260.587, 11318.00
1261.661, 11466.00
1262.734, 11417.00
1263.807, 11387.00
1264.880, 11420.00
1265.952, 11386.27
1267.025, 11401.00
1268.097, 11404.00
1269.170, 11431.00
1270.242, 11500.00
1271.314, 11521.00
1272.385, 11531.21
1273.457, 11507.00
1274.528, 11536.00
1275.600, 11567.00
1276.671, 11586.55
1277.742, 11602.00
1278.812, 11596.00
1279.883, 11539.00
1280.954, 11598.00
1282.024, 11641.00
1283.094, 11588.00
1284.164, 11736.00
1285.234, 11697.00
1286.303, 11611.00
1287.373, 11581.00
1288.442, 11668.00
1289.511, 11503.00
1290.580, 11684.00
1291.649, 11689.00
1292.718, 11715.00
1293.786, 11676.00
1294.855, 11730.00
1295.923, 11700.00
1296.991, 11659.00
1298.059, 11707.00
1299.126, 11974.00
1300.194, 11804.00
1301.261, 11869.00
1302.328, 12013.00
1303.395, 11731.00
1304.462, 11924.00
1305.529, 11869.00
1306.596, 11831.00
1307.662, 11844.00
1308.728, 11863.00
1309.794, 12012.00
1310.860, 11866.00
1311.926, 11906.00
1312.991, 12021.00
1314.057, 11982.00
1315.122, 12015.00
1316.187, 11948.00
1317.252, 11882.00
1318.317, 12129.00
1319.381, 12028.00
1320.446, 12048.00
1321.510, 12187.00
1322.574, 12127.00
1323.638, 11923.00
1324.702, 12143.00
1325.766, 12037.00
1326.829, 12086.00
1327.892, 12133.00
1328.956, 12077.00
1330.019, 12079.00
1331.081, 12080.00
1332.144, 12172.00
1333.206, 12135.00
1334.269, 11995.00
1335.331, 12168.00
1336.393, 12052.00
1337.455, 12332.00
1338.516, 12033.00
1339.578, 12228.00
1340.639, 12241.00
1341.701, 12169.00
1342.762, 12093.00
1343.822, 12057.00
1344.883, 12199.00
1345.944, 12235.00
1347.004, 12310.00
1348.064, 12245.00
1349.124, 12209.00
1350.184, 12104.00
1351.244, 12163.93
1352.304, 12224.00
1353.363, 12271.00
1354.422, 12243.00
1355.481, 12278.00
1356.540, 12246.00
1357.599, 12294.48
1358.657, 12315.00
1359.716, 12373.00
1360.774, 12328.00
1361.832, 12329.00
1362.890, 12348.63
1363.948, 12313.00
1365.006, 12381.00
1366.063, 12358.00
1367.120, 12395.69
1368.178, 12268.00
1369.234, 12331.00
1370.291, 12350.00
1371.348, 12228.00
1372.404, 12404.00
1373.461, 12540.00
1374.517, 12428.00
1375.573, 12386.00
1376.629, 12358.00
1377.684, 12281.00
1378.740, 12313.22
1379.795, 12444.00
1380.850, 12384.00
1381.905, 12494.00
1382.960, 12575.00
1384.015, 12327.00
1385.070, 12550.00
1386.124, 12305.00
1387.178, 12572.00
1388.232, 12611.00
1389.286, 12389.00
1390.340, 12389.00
1391.393, 12444.00
1392.447, 12382.00
1393.500, 12623.00
1394.553, 12299.00
1395.606, 12357.00
1396.659, 12465.00
1397.711, 12625.00
1398.764, 12548.00
1399.816, 12541.00
1400.868, 12610.00
1401.920, 12576.00
1402.972, 12520.00
1404.023, 12560.00
1405.075, 12499.00
1406.126, 12545.00
1407.177, 12602.00
1408.228, 12559.00
1409.279, 12653.00
1410.330, 12548.00
1411.380, 12699.00
1412.431, 12586.00
1413.481, 12686.00
1414.531, 12784.00
1415.580, 12712.00
1416.630, 12526.00
1417.680, 12685.00
1418.729, 12623.00
1419.778, 12674.00
1420.827, 12712.00
1421.876, 12717.00
1422.925, 12708.00
1423.973, 12779.00
1425.022, 12647.00
1426.070, 12591.00
1427.118, 12713.00
1428.166, 12713.00
1429.214, 12831.00
1430.261, 12815.00
1431.309, 12689.00
1432.356, 12848.00
1433.403, 12688.00
1434.450, 12954.00
1435.497, 12894.00
1436.543, 12966.00
1437.590, 12951.00
1438.636, 12868.00
1439.682, 13053.00
1440.728, 13074.00
1441.774, 13007.00
1442.819, 12981.00
1443.865, 13007.00
1444.910, 13154.00
1445.955, 13075.00
1447.000, 13168.00
1448.045, 13118.00
1449.090, 13094.00
1450.134, 13254.00
1451.178, 13084.00
1452.223, 13252.00
1453.267, 13051.00
1454.310, 13140.00
1455.354, 13264.00
1456.398, 13105.00
1457.441, 13094.00
1458.484, 13076.00
1459.527, 13085.00
1460.570, 13141.00
1461.613, 13047.00
1462.655, 13144.00
1463.698, 13166.00
1464.740, 13146.00
1465.782, 13038.00
1466.824, 12979.00
1467.866, 13093.00
1468.907, 13175.00
1469.948, 13011.00
1470.990, 12993.00
1472.031, 13125.00
1473.072, 13136.00
1474.112, 13075.00
1475.153, 13065.00
1476.194, 13099.00
1477.234, 12987.00
1478.274, 13096.00
1479.314, 13036.00
1480.354, 13039.00
1481.393, 13197.00
1482.433, 13165.00
1483.472, 12931.00
1484.511, 13109.00
1485.550, 13047.00
1486.589, 13078.00
1487.628, 13104.00
1488.666, 13065.00
1489.704, 13109.00
1490.743, 12984.00
1491.781, 12996.00
1492.819, 13166.00
1493.856, 13253.00
1494.894, 13067.00
1495.931, 13130.00
1496.968, 13085.00
1498.005, 13186.00
1499.042, 13096.00
1500.079, 13215.00
1501.115, 13064.00
1502.152, 13199.00
1503.188, 13109.00
1504.224, 13192.00
1505.260, 13189.00
1506.296, 13287.00
1507.331, 13202.00
1508.367, 13329.00
1509.402, 13248.00
1510.437, 13262.83
1511.472, 13207.00
1512.507, 13234.00
1513.541, 13286.00
1514.576, 13239.00
1515.610, 13236.00
1516.644, 13365.00
1517.678, 13273.00
1518.712, 13203.00
1519.746, 13374.00
1520.779, 13372.00
1521.813, 13416.00
1522.846, 13425.00
1523.879, 13349.00
1524.912, 13420.00
1525.944, 13360.00
1526.977, 13490.00
1528.009, 13399.00
1529.041, 13340.00
1530.073, 13367.00
1531.105, 13562.00
1532.137, 13319.00
1533.168, 13464.00
1534.200, 13336.00
1535.231, 13541.00
1536.262, 13387.00
1537.293, 13535.00
1538.324, 13538.00
1539.354, 13456.00
1540.385, 13512.00
1541.415, 13482.00
1542.445, 13505.00
1543.475, 13469.00
1544.505, 13504.00
1545.534, 13601.00
1546.564, 13488.00
1547.593, 13588.00
1548.622, 13556.00
1549.651, 13446.00
1550.680, 13540.00
1551.708, 13689.00
1552.737, 13732.00
1553.765, 13916.00
1554.793, 13735.00
1555.821, 13660.00
1556.849, 13681.00
1557.877, 13761.00
1558.904, 13743.00
1559.932, 13688.00
1560.959, 13660.00
1561.986, 13582.00
1563.013, 13620.00
1564.039, 13740.00
1565.066, 13789.00
1566.092, 13666.00
1567.119, 13778.00
1568.145, 13768.00
1569.170, 13850.00
1570.196, 13850.00
##END=



