##NAMES=Jadeite
##RRUFFID=R050220
##IDEAL CHEMISTRY=NaAlSi_2_O_6_
##LOCALITY=Clear Creek, San Benito County, California, USA
##OWNER=RRUFF
##SOURCE=Hatt Yoder
##DESCRIPTION=Aggregate of colorless bladed crystals
##STATUS=The identification of this mineral has been confirmed by X-ray diffraction and chemical analysis
##URL=rruff.info/R050220
##MEASURED CHEMISTRY=Na_1.00_Al_1.00_(Si_0.99_Al_0.01_)_2_O_6_
##PIN_ID=L00896
##ORIENTATION=Laser parallel to a* (1 0 0). Fiducial mark perpendicular to laser is parallel to b [0 1 0]
112.9460, 7444.000
114.1820, 7598.000
115.4170, 7740.000
116.6530, 7763.000
117.8880, 7881.000
119.1230, 7756.000
120.3580, 7808.000
121.5920, 7801.000
122.8270, 7827.000
124.0610, 7850.000
125.2950, 7911.695
126.5290, 7945.000
127.7630, 8097.000
128.9970, 8167.000
130.2300, 8330.000
131.4640, 8267.000
132.6970, 8387.000
133.9300, 8359.000
135.1630, 8596.000
136.3950, 8603.000
137.6280, 8676.000
138.8600, 9037.000
140.0920, 9434.000
141.3240, 9909.000
142.5560, 10265.00
143.7880, 10596.00
145.0190, 10487.00
146.2510, 10322.00
147.4820, 9892.000
148.7130, 9324.000
149.9440, 8972.000
151.1750, 8495.000
152.4050, 8460.000
153.6360, 8351.000
154.8660, 8150.000
156.0960, 8247.000
157.3260, 8188.000
158.5560, 8184.000
159.7850, 8163.000
161.0150, 8189.000
162.2440, 8354.000
163.4730, 8292.000
164.7020, 8372.000
165.9310, 8392.000
167.1590, 8296.000
168.3880, 8350.000
169.6160, 8347.000
170.8440, 8318.000
172.0720, 8413.000
173.3000, 8366.000
174.5280, 8344.000
175.7550, 8479.000
176.9820, 8457.000
178.2100, 8418.000
179.4370, 8579.000
180.6630, 8586.000
181.8900, 8564.000
183.1170, 8652.000
184.3430, 8837.000
185.5690, 8764.000
186.7950, 8967.000
188.0210, 9184.000
189.2470, 9641.000
190.4720, 10075.00
191.6970, 10823.00
192.9230, 11613.00
194.1480, 12385.00
195.3730, 12969.00
196.5970, 13204.00
197.8220, 14356.00
199.0460, 16283.00
200.2700, 18803.00
201.4940, 21642.00
202.7180, 23938.00
203.9420, 24820.00
205.1660, 24023.00
206.3890, 21523.00
207.6120, 18516.00
208.8350, 15323.00
210.0580, 12844.00
211.2810, 11192.00
212.5040, 10213.00
213.7260, 9686.000
214.9480, 9451.000
216.1700, 9128.000
217.3920, 9206.000
218.6140, 9195.000
219.8360, 9085.000
221.0570, 9143.000
222.2790, 9210.000
223.5000, 9320.000
224.7210, 9267.000
225.9410, 9059.000
227.1620, 9128.000
228.3820, 9024.000
229.6030, 9020.000
230.8230, 8915.000
232.0430, 8809.000
233.2630, 8913.000
234.4820, 8987.000
235.7020, 8971.000
236.9210, 8965.533
238.1400, 8938.000
239.3590, 8864.000
240.5780, 8883.000
241.7970, 8873.316
243.0150, 9127.000
244.2340, 9091.000
245.4520, 9277.000
246.6700, 9481.000
247.8880, 9558.000
249.1060, 9546.000
250.3230, 9742.000
251.5400, 10142.00
252.7580, 10521.00
253.9750, 10830.00
255.1920, 11204.00
256.4080, 11270.00
257.6250, 11171.00
258.8410, 10893.00
260.0580, 10278.00
261.2740, 9743.000
262.4900, 9453.000
263.7050, 9296.000
264.9210, 9156.000
266.1360, 9292.000
267.3520, 9109.000
268.5670, 9293.000
269.7820, 9165.000
270.9960, 9275.000
272.2110, 9179.000
273.4250, 9379.000
274.6400, 9133.000
275.8540, 9338.000
277.0680, 9399.000
278.2810, 9447.000
279.4950, 9716.000
280.7090, 9657.000
281.9220, 9754.000
283.1350, 9863.000
284.3480, 10167.00
285.5610, 10278.00
286.7730, 10553.00
287.9860, 10965.00
289.1980, 11165.00
290.4100, 11640.00
291.6220, 11921.00
292.8340, 11888.00
294.0460, 12026.00
295.2570, 11880.00
296.4690, 11806.00
297.6800, 11798.00
298.8910, 11838.25
300.1020, 11899.00
301.3120, 12077.00
302.5230, 12288.00
303.7330, 12486.00
304.9440, 13285.00
306.1540, 13974.00
307.3630, 15024.00
308.5730, 15976.00
309.7830, 16300.00
310.9920, 16873.00
312.2010, 16399.00
313.4100, 15781.00
314.6190, 14743.00
315.8280, 14016.00
317.0370, 13249.00
318.2450, 12821.00
319.4530, 12791.00
320.6610, 12913.00
321.8690, 13103.00
323.0770, 13531.00
324.2850, 14151.00
325.4920, 15215.00
326.6990, 16199.00
327.9060, 16771.00
329.1130, 16863.00
330.3200, 16351.00
331.5270, 15582.00
332.7330, 14299.00
333.9390, 13004.00
335.1450, 12089.00
336.3510, 11465.00
337.5570, 11094.00
338.7630, 10771.00
339.9680, 10681.00
341.1740, 10446.00
342.3790, 10526.00
343.5840, 10528.00
344.7890, 10327.00
345.9930, 10416.00
347.1980, 10354.00
348.4020, 10501.00
349.6060, 10504.00
350.8100, 10627.00
352.0140, 10823.00
353.2180, 11027.00
354.4210, 11219.00
355.6250, 11309.00
356.8280, 11746.00
358.0310, 12076.00
359.2340, 12966.00
360.4360, 13671.00
361.6390, 14823.00
362.8410, 16405.00
364.0430, 18308.00
365.2450, 20812.00
366.4470, 23354.00
367.6490, 25927.00
368.8510, 29669.00
370.0520, 33925.00
371.2530, 39356.00
372.4540, 43872.00
373.6550, 47435.00
374.8560, 49037.00
376.0560, 47569.00
377.2570, 43896.00
378.4570, 38689.00
379.6570, 33508.00
380.8570, 29670.00
382.0570, 26702.00
383.2560, 24584.00
384.4560, 23227.00
385.6550, 22100.00
386.8540, 21170.00
388.0530, 20065.00
389.2520, 18814.00
390.4510, 17305.00
391.6490, 16058.00
392.8470, 14863.00
394.0450, 14019.00
395.2430, 13127.00
396.4410, 12579.00
397.6390, 12102.00
398.8360, 11890.00
400.0340, 11678.00
401.2310, 11550.00
402.4280, 11435.00
403.6250, 11438.00
404.8210, 11417.00
406.0180, 11200.00
407.2140, 11350.00
408.4100, 11104.00
409.6060, 11358.00
410.8020, 11274.00
411.9980, 11384.00
413.1930, 11458.00
414.3890, 11560.00
415.5840, 11760.56
416.7790, 11775.00
417.9740, 12154.00
419.1680, 12373.00
420.3630, 12492.00
421.5570, 12832.00
422.7510, 13465.00
423.9450, 13907.00
425.1390, 14520.00
426.3330, 15245.00
427.5270, 16006.00
428.7200, 16914.00
429.9130, 17770.00
431.1060, 18728.00
432.2990, 19263.00
433.4920, 19346.00
434.6840, 19270.00
435.8770, 18732.00
437.0690, 17760.00
438.2610, 16977.00
439.4530, 15833.00
440.6450, 14875.00
441.8360, 13957.00
443.0280, 13342.00
444.2190, 13004.00
445.4100, 12603.00
446.6010, 12288.00
447.7920, 12025.00
448.9820, 11791.00
450.1730, 11703.00
451.3630, 11589.00
452.5530, 11285.00
453.7430, 11354.00
454.9330, 11170.00
456.1230, 11302.00
457.3120, 11125.00
458.5010, 11285.00
459.6910, 11018.00
460.8800, 11074.00
462.0680, 11020.00
463.2570, 11072.00
464.4460, 11057.00
465.6340, 10981.00
466.8220, 11075.00
468.0100, 11201.00
469.1980, 10958.00
470.3860, 11081.00
471.5730, 11115.00
472.7600, 11041.00
473.9480, 10950.00
475.1350, 11140.00
476.3210, 10975.00
477.5080, 11024.00
478.6950, 11023.00
479.8810, 11139.00
481.0670, 11124.00
482.2530, 11158.15
483.4390, 11135.00
484.6250, 11171.00
485.8100, 11249.00
486.9960, 11227.00
488.1810, 11239.00
489.3660, 11231.00
490.5510, 11204.00
491.7360, 11213.00
492.9200, 11174.00
494.1050, 11203.02
495.2890, 11374.00
496.4730, 11225.00
497.6570, 11327.00
498.8400, 11281.00
500.0240, 11247.00
501.2070, 11563.00
502.3910, 11559.00
503.5740, 11461.00
504.7570, 11650.00
505.9400, 11576.00
507.1220, 11695.00
508.3050, 11952.00
509.4870, 11961.00
510.6690, 12282.00
511.8510, 12711.00
513.0330, 13075.00
514.2140, 13496.00
515.3960, 14034.00
516.5770, 14868.00
517.7580, 15638.00
518.9390, 16609.00
520.1200, 17599.00
521.3010, 19031.00
522.4810, 20375.00
523.6610, 21293.00
524.8420, 21224.00
526.0220, 20618.00
527.2010, 19169.00
528.3810, 17445.00
529.5610, 16034.00
530.7400, 14643.00
531.9190, 13824.00
533.0980, 13221.00
534.2770, 12753.00
535.4560, 12508.00
536.6340, 12309.00
537.8120, 12175.00
538.9910, 12025.61
540.1690, 11936.00
541.3460, 11844.00
542.5240, 11782.00
543.7020, 11750.00
544.8790, 11755.00
546.0560, 11693.00
547.2330, 11700.00
548.4100, 11671.00
549.5870, 11932.00
550.7630, 12003.00
551.9400, 11966.00
553.1160, 12050.00
554.2920, 11982.00
555.4680, 12051.72
556.6440, 12133.00
557.8190, 12226.00
558.9950, 12294.00
560.1700, 12533.00
561.3450, 12297.00
562.5200, 12641.00
563.6950, 12626.00
564.8690, 12633.00
566.0440, 12895.00
567.2180, 13054.00
568.3920, 13301.00
569.5660, 13532.00
570.7400, 13913.00
571.9130, 14366.00
573.0870, 14600.00
574.2600, 15078.00
575.4330, 15128.00
576.6060, 14891.00
577.7790, 14331.00
578.9520, 14137.00
580.1240, 13654.00
581.2960, 13229.00
582.4690, 12890.00
583.6410, 12669.00
584.8120, 12529.50
585.9840, 12603.00
587.1560, 12509.00
588.3270, 12676.00
589.4980, 12819.00
590.6690, 12633.00
591.8400, 12680.00
593.0110, 12519.00
594.1810, 12305.00
595.3510, 12343.00
596.5220, 12226.00
597.6920, 12223.00
598.8610, 12183.00
600.0310, 12216.00
601.2010, 12093.00
602.3700, 12065.00
603.5390, 12174.00
604.7080, 12332.00
605.8770, 12099.00
607.0460, 12190.00
608.2140, 12191.00
609.3830, 12015.00
610.5510, 12039.00
611.7190, 12229.00
612.8870, 12165.00
614.0550, 12262.00
615.2220, 12320.00
616.3900, 12239.00
617.5570, 12400.00
618.7240, 12167.00
619.8910, 12396.00
621.0580, 12504.00
622.2240, 12355.00
623.3910, 12469.00
624.5570, 12492.00
625.7230, 12553.00
626.8890, 12652.00
628.0550, 12519.00
629.2200, 12497.00
630.3860, 12524.00
631.5510, 12406.00
632.7160, 12438.00
633.8810, 12551.00
635.0460, 12489.00
636.2100, 12593.00
637.3750, 12476.00
638.5390, 12408.00
639.7030, 12424.00
640.8670, 12574.00
642.0310, 12657.00
643.1950, 12853.00
644.3580, 12671.00
645.5210, 12856.00
646.6850, 12823.00
647.8480, 12858.00
649.0100, 12861.00
650.1730, 12914.00
651.3350, 12904.00
652.4980, 12903.00
653.6600, 12919.00
654.8220, 12864.00
655.9840, 12891.00
657.1450, 13067.00
658.3070, 12944.00
659.4680, 13026.00
660.6300, 12967.00
661.7910, 13028.00
662.9510, 13053.00
664.1120, 13245.00
665.2730, 13272.00
666.4330, 13374.44
667.5930, 13324.00
668.7530, 13524.00
669.9130, 13504.00
671.0730, 13523.00
672.2320, 13664.00
673.3920, 13614.00
674.5510, 13936.00
675.7100, 14117.00
676.8690, 14147.00
678.0280, 14257.00
679.1860, 14578.00
680.3450, 14960.00
681.5030, 15266.00
682.6610, 15608.00
683.8190, 16144.00
684.9770, 16872.00
686.1340, 17617.00
687.2920, 18981.00
688.4490, 20162.00
689.6060, 22177.00
690.7630, 24733.00
691.9200, 27793.00
693.0760, 31722.00
694.2330, 36428.00
695.3890, 42794.00
696.5450, 46944.00
697.7010, 52055.00
698.8570, 56429.00
700.0130, 57777.00
701.1680, 56188.00
702.3230, 51592.00
703.4780, 45311.00
704.6330, 38959.00
705.7880, 33336.00
706.9430, 28746.00
708.0970, 25102.00
709.2520, 22573.00
710.4060, 20750.00
711.5600, 19371.00
712.7140, 18273.00
713.8670, 17493.00
715.0210, 16754.00
716.1740, 16316.00
717.3270, 15811.00
718.4800, 15474.00
719.6330, 15158.00
720.7860, 14981.00
721.9380, 14847.00
723.0910, 14620.00
724.2430, 14450.00
725.3950, 14523.00
726.5470, 14328.00
727.6980, 14364.00
728.8500, 14362.00
730.0010, 14154.00
731.1530, 14173.00
732.3040, 14144.00
733.4550, 13927.00
734.6050, 14057.00
735.7560, 14036.00
736.9060, 14003.00
738.0560, 13996.00
739.2060, 14020.00
740.3560, 13976.00
741.5060, 13897.00
742.6560, 13905.00
743.8050, 13803.00
744.9540, 13980.00
746.1030, 13841.00
747.2520, 13847.00
748.4010, 13932.00
749.5500, 13794.00
750.6980, 13917.00
751.8460, 13849.00
752.9950, 13887.00
754.1420, 13896.00
755.2900, 13854.00
756.4380, 13869.00
757.5850, 13804.00
758.7330, 13842.00
759.8800, 13929.00
761.0270, 13990.00
762.1730, 13893.00
763.3200, 13980.00
764.4670, 14116.00
765.6130, 13939.00
766.7590, 13999.00
767.9050, 14197.00
769.0510, 14343.00
770.1960, 14465.00
771.3420, 14578.00
772.4870, 14790.32
773.6320, 14930.00
774.7770, 15259.00
775.9220, 15635.00
777.0670, 15977.00
778.2110, 16293.00
779.3560, 16480.00
780.5000, 16551.00
781.6440, 16435.00
782.7880, 15961.00
783.9320, 15514.00
785.0750, 14911.00
786.2180, 14870.00
787.3620, 14600.00
788.5050, 14326.00
789.6480, 14213.00
790.7900, 14060.00
791.9330, 14087.00
793.0750, 14039.00
794.2170, 14048.00
795.3590, 13975.00
796.5010, 13949.00
797.6430, 13967.11
798.7850, 13965.00
799.9260, 14026.00
801.0670, 14020.00
802.2080, 14089.00
803.3490, 13983.00
804.4900, 13988.00
805.6310, 14002.00
806.7710, 13989.58
807.9110, 14102.00
809.0510, 14043.00
810.1910, 14116.00
811.3310, 14151.00
812.4710, 14119.00
813.6100, 14219.00
814.7490, 14156.00
815.8880, 14041.00
817.0270, 14163.00
818.1660, 14100.00
819.3050, 14285.00
820.4430, 14163.00
821.5820, 14182.00
822.7200, 14240.00
823.8580, 14200.00
824.9950, 14187.00
826.1330, 14218.00
827.2710, 14242.00
828.4080, 14253.00
829.5450, 14278.00
830.6820, 14375.00
831.8190, 14274.00
832.9560, 14435.00
834.0920, 14503.00
835.2280, 14421.00
836.3650, 14223.00
837.5010, 14222.00
838.6360, 14415.00
839.7720, 14400.00
840.9080, 14424.00
842.0430, 14466.00
843.1780, 14519.00
844.3130, 14504.00
845.4480, 14486.00
846.5830, 14512.00
847.7170, 14524.37
848.8520, 14645.00
849.9860, 14615.00
851.1200, 14688.00
852.2540, 14796.00
853.3870, 14687.00
854.5210, 14751.00
855.6540, 14717.00
856.7880, 14782.00
857.9210, 14851.00
859.0540, 14752.00
860.1860, 14974.00
861.3190, 14899.00
862.4510, 14837.00
863.5840, 14746.00
864.7160, 14751.00
865.8480, 14786.00
866.9790, 14634.00
868.1110, 14806.00
869.2420, 14773.00
870.3740, 14770.00
871.5050, 14832.00
872.6360, 14839.00
873.7660, 14891.00
874.8970, 14753.00
876.0280, 14766.00
877.1580, 14830.00
878.2880, 14903.00
879.4180, 14788.00
880.5480, 14849.00
881.6770, 14769.00
882.8070, 14951.00
883.9360, 14936.00
885.0650, 14856.00
886.1940, 15075.00
887.3230, 14972.00
888.4520, 14928.00
889.5800, 14792.00
890.7090, 14755.00
891.8370, 14930.00
892.9650, 14782.00
894.0930, 15028.00
895.2200, 14950.00
896.3480, 14805.00
897.4750, 14984.00
898.6020, 14948.00
899.7290, 14978.00
900.8560, 15026.00
901.9830, 14792.00
903.1090, 14881.00
904.2360, 14798.00
905.3620, 14995.00
906.4880, 15121.00
907.6140, 15124.00
908.7400, 14934.00
909.8650, 15169.00
910.9900, 14980.00
912.1160, 15019.00
913.2410, 15150.00
914.3660, 15066.00
915.4900, 15046.00
916.6150, 15055.00
917.7390, 15118.00
918.8640, 15025.00
919.9880, 15054.00
921.1120, 15034.00
922.2350, 15028.00
923.3590, 15003.00
924.4820, 15048.00
925.6060, 15049.00
926.7290, 15037.00
927.8520, 15121.00
928.9740, 15206.00
930.0970, 15280.00
931.2190, 15256.00
932.3420, 15223.00
933.4640, 15218.03
934.5860, 15180.50
935.7080, 15133.00
936.8290, 15207.00
937.9510, 15157.00
939.0720, 15357.00
940.1930, 15329.00
941.3140, 15303.00
942.4350, 15369.00
943.5560, 15360.00
944.6760, 15339.00
945.7960, 15332.00
946.9170, 15264.00
948.0370, 15439.00
949.1560, 15389.00
950.2760, 15577.00
951.3960, 15394.00
952.5150, 15478.00
953.6340, 15566.00
954.7530, 15422.00
955.8720, 15544.00
956.9910, 15362.00
958.1090, 15600.00
959.2280, 15455.00
960.3460, 15562.00
961.4640, 15606.00
962.5820, 15523.00
963.6990, 15845.00
964.8170, 15605.00
965.9340, 15793.00
967.0510, 15716.00
968.1690, 15767.00
969.2850, 15723.00
970.4020, 15849.00
971.5190, 16018.00
972.6350, 15945.00
973.7510, 16066.00
974.8670, 16165.00
975.9830, 16273.00
977.0990, 16611.00
978.2150, 16845.00
979.3300, 17130.00
980.4450, 17642.00
981.5600, 18078.00
982.6750, 18735.00
983.7900, 19077.00
984.9050, 19591.00
986.0190, 19710.00
987.1340, 19294.00
988.2480, 18830.00
989.3620, 18247.00
990.4750, 17875.00
991.5890, 17306.00
992.7020, 16838.00
993.8160, 17020.00
994.9290, 16749.00
996.0420, 16536.00
997.1550, 16598.00
998.2670, 16582.00
999.3800, 16547.00
1000.492, 16603.00
1001.604, 16550.00
1002.716, 16528.21
1003.828, 16376.00
1004.940, 16402.00
1006.051, 16373.00
1007.163, 16219.00
1008.274, 16276.00
1009.385, 16191.00
1010.496, 16182.00
1011.606, 16246.00
1012.717, 16285.00
1013.827, 16261.00
1014.937, 16338.66
1016.047, 16427.00
1017.157, 16463.00
1018.267, 16533.00
1019.377, 16645.00
1020.486, 16635.00
1021.595, 16663.00
1022.704, 16892.00
1023.813, 16968.13
1024.922, 16937.00
1026.030, 17309.00
1027.139, 17533.00
1028.247, 17713.00
1029.355, 18049.00
1030.463, 18366.00
1031.571, 18689.00
1032.678, 19497.00
1033.786, 19965.00
1034.893, 20666.00
1036.000, 21850.00
1037.107, 22965.00
1038.214, 24014.00
1039.321, 24549.00
1040.427, 24565.00
1041.533, 23989.00
1042.639, 23114.00
1043.745, 22110.00
1044.851, 21001.00
1045.957, 20056.00
1047.062, 19263.00
1048.168, 18648.00
1049.273, 17989.00
1050.378, 17826.00
1051.482, 17583.00
1052.587, 17373.00
1053.692, 16999.00
1054.796, 17252.00
1055.900, 16990.00
1057.004, 16978.00
1058.108, 17163.00
1059.212, 16846.00
1060.315, 16784.00
1061.418, 16914.00
1062.522, 16894.00
1063.625, 16839.00
1064.728, 16873.00
1065.830, 16845.00
1066.933, 16839.00
1068.035, 16853.00
1069.137, 16878.00
1070.239, 16857.00
1071.341, 16967.00
1072.443, 16803.00
1073.545, 16819.00
1074.646, 16871.00
1075.747, 16792.00
1076.848, 16927.00
1077.949, 17004.00
1079.050, 17048.00
1080.150, 17152.00
1081.251, 17100.00
1082.351, 17063.00
1083.451, 17118.00
1084.551, 17000.00
1085.651, 17018.00
1086.750, 17017.00
1087.850, 16863.00
1088.949, 17069.00
1090.048, 16924.80
1091.147, 16886.52
1092.246, 16837.00
1093.345, 16786.00
1094.443, 16815.00
1095.541, 16896.00
1096.639, 16835.00
1097.737, 17103.00
1098.835, 17036.00
1099.933, 16957.00
1101.030, 17068.00
1102.128, 16911.00
1103.225, 16894.00
1104.322, 16930.00
1105.419, 16838.00
1106.515, 16931.00
1107.612, 16889.00
1108.708, 16782.00
1109.804, 17107.00
1110.900, 17103.00
1111.996, 16999.00
1113.092, 17037.00
1114.187, 17194.00
1115.283, 17129.00
1116.378, 17320.00
1117.473, 17376.00
1118.568, 17348.00
1119.662, 17474.00
1120.757, 17539.00
1121.851, 17412.00
1122.946, 17508.00
1124.040, 17617.00
1125.134, 17469.00
1126.227, 17501.00
1127.321, 17388.00
1128.414, 17375.00
1129.508, 17294.00
1130.601, 17326.00
1131.693, 17344.00
1132.786, 17255.00
1133.879, 17079.00
1134.971, 17192.00
1136.064, 17263.00
1137.156, 17262.00
1138.248, 17548.00
1139.339, 17244.00
1140.431, 17149.00
1141.522, 17217.00
1142.614, 17396.00
1143.705, 17263.00
1144.796, 17321.00
1145.887, 17287.00
1146.977, 17368.00
1148.068, 17237.00
1149.158, 17376.00
1150.248, 17424.00
1151.338, 17240.00
1152.428, 17414.00
1153.518, 17352.00
1154.607, 17420.00
1155.696, 17473.00
1156.785, 17363.00
1157.874, 17417.00
1158.963, 17420.00
1160.052, 17400.00
1161.141, 17508.00
1162.229, 17410.00
1163.317, 17476.00
1164.405, 17671.00
1165.493, 17650.00
1166.581, 17654.00
1167.668, 17522.00
1168.756, 17587.00
1169.843, 17547.00
1170.930, 17562.51
1172.017, 17562.00
1173.103, 17632.00
1174.190, 17679.00
1175.276, 17709.00
1176.363, 17753.00
1177.449, 17705.00
1178.535, 17771.00
1179.620, 17789.00
1180.706, 17715.00
1181.791, 17694.00
1182.877, 17806.00
1183.962, 17604.00
1185.047, 17701.00
1186.131, 17760.00
1187.216, 17624.00
1188.300, 17691.00
1189.385, 17688.00
1190.469, 17769.00
1191.553, 17781.00
1192.637, 17733.00
1193.720, 17899.00
1194.804, 17705.00
1195.887, 17757.00
1196.970, 17587.00
1198.053, 17808.00
1199.136, 17805.00
1200.219, 17813.00
1201.301, 17957.00
1202.383, 17923.00
1203.465, 17766.00
1204.547, 17902.00
1205.629, 18106.00
1206.711, 17986.00
1207.792, 18098.00
1208.874, 17879.00
1209.955, 18155.00
1211.036, 18071.00
1212.117, 18022.00
1213.198, 17892.00
1214.278, 17985.00
1215.359, 17999.00
1216.439, 18046.00
1217.519, 18117.00
1218.599, 18126.07
1219.678, 18146.00
1220.758, 18186.00
1221.837, 18117.00
1222.917, 18164.00
1223.996, 18200.00
1225.075, 18155.00
1226.153, 18180.00
1227.232, 18255.00
1228.310, 18313.00
1229.389, 18320.30
1230.467, 18210.00
1231.545, 18328.00
1232.622, 18293.39
1233.700, 18271.00
1234.777, 18463.00
1235.855, 18338.00
1236.932, 18585.00
1238.009, 18298.00
1239.086, 18247.00
1240.162, 18250.00
1241.239, 18226.00
1242.315, 18182.00
1243.391, 18306.00
1244.467, 18364.00
1245.543, 18411.00
1246.619, 18410.00
1247.694, 18393.00
1248.769, 18564.00
1249.844, 18437.00
1250.919, 18382.00
1251.994, 18542.00
1253.069, 18332.00
1254.144, 18412.00
1255.218, 18427.00
1256.292, 18270.00
1257.366, 18287.00
1258.440, 18464.00
1259.514, 18514.00
1260.587, 18662.00
1261.661, 18579.00
1262.734, 18755.00
1263.807, 18595.00
1264.880, 18649.00
1265.952, 18807.00
1267.025, 18612.00
1268.097, 18644.00
1269.170, 18762.00
1270.242, 18592.00
1271.314, 18622.00
1272.385, 18867.00
1273.457, 18788.00
1274.528, 18549.00
1275.600, 18981.00
1276.671, 18680.00
1277.742, 18753.00
1278.812, 18812.00
1279.883, 18589.00
1280.954, 18892.00
1282.024, 18739.00
1283.094, 18754.00
1284.164, 18782.00
1285.234, 18604.00
1286.303, 18781.00
1287.373, 18670.00
1288.442, 18854.00
1289.511, 18853.00
1290.580, 18797.00
1291.649, 18831.00
1292.718, 18931.00
1293.786, 18983.00
1294.855, 19008.00
1295.923, 18939.00
1296.991, 19041.00
1298.059, 18902.00
1299.126, 18915.00
1300.194, 19054.00
1301.261, 18906.00
1302.328, 19093.00
1303.395, 18907.00
1304.462, 19127.00
1305.529, 19212.00
1306.596, 19233.00
1307.662, 19282.00
1308.728, 19327.92
1309.794, 19199.00
1310.860, 19369.00
1311.926, 19344.00
1312.991, 19284.00
1314.057, 19373.00
1315.122, 19382.00
1316.187, 19181.00
1317.252, 19374.00
1318.317, 19400.00
1319.381, 19211.00
1320.446, 19388.00
1321.510, 19473.00
1322.574, 19248.00
1323.638, 19257.00
1324.702, 19428.00
1325.766, 19198.00
1326.829, 19291.00
1327.892, 19406.00
1328.956, 19377.00
1330.019, 19341.00
1331.081, 19330.00
1332.144, 19198.00
1333.206, 19237.00
1334.269, 19258.00
1335.331, 19599.00
1336.393, 19540.00
1337.455, 19322.00
1338.516, 19476.00
1339.578, 19282.00
1340.639, 19309.00
1341.701, 19473.00
1342.762, 19443.00
1343.822, 19382.00
1344.883, 19533.00
1345.944, 19468.00
1347.004, 19472.00
1348.064, 19724.00
1349.124, 19440.00
1350.184, 19575.00
1351.244, 19560.00
1352.304, 19677.00
1353.363, 19520.00
1354.422, 19709.00
1355.481, 19561.00
1356.540, 19588.00
1357.599, 19558.00
1358.657, 19684.00
1359.716, 19640.00
1360.774, 19547.00
1361.832, 19734.00
1362.890, 19678.00
1363.948, 19684.00
1365.006, 19575.00
1366.063, 19581.00
1367.120, 19807.00
1368.178, 19742.00
1369.234, 19819.00
1370.291, 19737.00
1371.348, 19734.00
1372.404, 19654.00
1373.461, 19718.00
1374.517, 19813.00
1375.573, 19761.00
1376.629, 19811.00
1377.684, 19827.00
1378.740, 19817.00
1379.795, 19783.00
1380.850, 19899.00
1381.905, 19769.00
1382.960, 19670.00
1384.015, 19758.00
1385.070, 19779.00
1386.124, 19748.00
1387.178, 19816.00
1388.232, 19858.00
1389.286, 19858.00
1390.340, 19937.00
1391.393, 19871.00
1392.447, 20002.00
1393.500, 19958.00
1394.553, 19897.00
1395.606, 19839.00
1396.659, 19951.00
1397.711, 19929.00
1398.764, 19804.00
1399.816, 19931.00
1400.868, 20029.00
1401.920, 19919.00
1402.972, 20005.00
1404.023, 19916.00
1405.075, 20021.00
1406.126, 20014.00
1407.177, 20008.00
1408.228, 20051.40
1409.279, 20022.00
1410.330, 20091.00
1411.380, 20037.00
1412.431, 20081.00
1413.481, 20205.00
1414.531, 20079.00
1415.580, 20169.00
1416.630, 19973.00
1417.680, 20093.00
1418.729, 20162.00
1419.778, 20096.00
1420.827, 20132.00
1421.876, 20122.35
1422.925, 20097.72
1423.973, 20145.00
1425.022, 20116.00
1426.070, 20216.00
1427.118, 20339.00
1428.166, 20316.00
1429.214, 20330.00
1430.261, 20259.00
1431.309, 20294.58
1432.356, 20296.00
1433.403, 20343.00
1434.450, 20362.00
1435.497, 20407.64
1436.543, 20509.00
1437.590, 20585.00
1438.636, 20606.00
1439.682, 20706.00
1440.728, 20880.00
1441.774, 20854.00
1442.819, 20786.00
1443.865, 20981.00
1444.910, 21036.00
1445.955, 20909.00
1447.000, 20984.00
1448.045, 21174.00
1449.090, 21126.00
1450.134, 21064.00
1451.178, 20973.00
1452.223, 20944.00
1453.267, 21070.00
1454.310, 21198.00
1455.354, 21003.00
1456.398, 21160.00
1457.441, 21063.00
1458.484, 21112.00
1459.527, 20981.00
1460.570, 20919.00
1461.613, 21161.00
1462.655, 21054.00
1463.698, 20848.00
1464.740, 21052.00
1465.782, 20807.00
1466.824, 21057.00
1467.866, 20789.00
1468.907, 20965.00
1469.948, 20975.00
1470.990, 21429.00
1472.031, 21089.37
1473.072, 20910.00
1474.112, 20601.00
1475.153, 20950.00
1476.194, 20890.00
1477.234, 20833.00
1478.274, 20928.00
1479.314, 20758.00
1480.354, 20866.00
1481.393, 20884.00
1482.433, 20941.00
1483.472, 20927.00
1484.511, 21088.00
1485.550, 20847.00
1486.589, 20650.00
1487.628, 20849.00
1488.666, 20662.00
1489.704, 20895.00
1490.743, 20839.00
1491.781, 20736.00
1492.819, 20777.00
1493.856, 20790.00
1494.894, 20741.00
1495.931, 20778.00
1496.968, 20845.00
1498.005, 20835.00
1499.042, 20764.00
1500.079, 20900.00
1501.115, 20972.00
1502.152, 20809.00
1503.188, 20835.00
1504.224, 20936.00
1505.260, 20932.00
1506.296, 20968.79
1507.331, 20964.53
1508.367, 20982.00
1509.402, 20909.00
1510.437, 20873.00
1511.472, 20829.00
1512.507, 20737.00
1513.541, 20762.14
1514.576, 20760.24
1515.610, 20855.00
1516.644, 20838.00
1517.678, 21023.00
1518.712, 21083.00
1519.746, 21010.00
1520.779, 21058.00
1521.813, 21069.00
1522.846, 21036.00
1523.879, 21072.00
1524.912, 21079.50
1525.944, 21111.00
1526.977, 21131.00
1528.009, 21162.00
1529.041, 21198.00
1530.073, 21065.00
1531.105, 21179.00
1532.137, 21157.00
1533.168, 21349.00
1534.200, 21257.00
1535.231, 21292.97
1536.262, 21442.00
1537.293, 21285.00
1538.324, 21208.00
1539.354, 21257.00
1540.385, 21141.00
1541.415, 21199.00
1542.445, 21445.00
1543.475, 21411.00
1544.505, 21363.00
1545.534, 21472.00
1546.564, 21370.00
1547.593, 21314.00
1548.622, 21313.00
1549.651, 21332.00
1550.680, 21311.28
1551.708, 21389.00
1552.737, 21348.00
1553.765, 21396.00
1554.793, 21486.00
1555.821, 21520.00
1556.849, 21492.00
1557.877, 21361.00
1558.904, 21398.00
1559.932, 21326.00
1560.959, 21277.00
1561.986, 21473.00
1563.013, 21367.00
1564.039, 21411.00
1565.066, 21476.00
1566.092, 21428.00
1567.119, 21551.00
1568.145, 21580.00
1569.170, 21501.00
1570.196, 21716.00
##END=



