##NAMES=Kanoite
##RRUFFID=R061134
##IDEAL CHEMISTRY=Mn^2+^MgSi_2_O_6_
##LOCALITY=Balmat, St. Lawrence County, New York, USA
##OWNER=RRUFF
##SOURCE=Michael Scott
##DESCRIPTION=Yellowish brown granular aggregate
##STATUS=The identification of this mineral has been confirmed by X-ray diffraction and chemical analysis
##URL=rruff.info/R061134
##MEASURED CHEMISTRY=(Mn^2+^_0.88_Ca_0.12_)_Σ=1_(Mg_0.98_Fe^3+^_0.02_)_Σ=1_(Si_0.98_Al_0.02_)_2_O_6_
##PIN_ID=M00204
##ORIENTATION=Laser parallel to (-1 0 -1). Fiducial mark perpendicular to laser is parallel to -b [0 -1 0]
111.5030, 10743.00
112.7420, 10651.00
113.9810, 11038.00
115.2200, 11097.00
116.4580, 11217.00
117.6970, 11234.00
118.9350, 11204.00
120.1730, 11421.00
121.4100, 11544.00
122.6480, 11801.00
123.8850, 11929.00
125.1230, 12058.00
126.3600, 12341.00
127.5960, 12484.00
128.8330, 12788.00
130.0700, 13055.00
131.3060, 13480.00
132.5420, 13725.00
133.7780, 13922.00
135.0140, 14352.00
136.2500, 14370.00
137.4850, 14721.00
138.7200, 15067.00
139.9550, 14854.00
141.1900, 14514.00
142.4250, 14058.00
143.6600, 14173.00
144.8940, 13924.00
146.1280, 13883.00
147.3620, 13875.00
148.5960, 13662.00
149.8300, 13556.00
151.0630, 13258.00
152.2960, 13103.00
153.5300, 12983.00
154.7620, 12701.00
155.9950, 12772.00
157.2280, 12463.00
158.4600, 12484.00
159.6920, 12688.00
160.9250, 12518.00
162.1560, 12685.00
163.3880, 12615.00
164.6200, 12647.00
165.8510, 12624.00
167.0820, 12621.00
168.3130, 12701.00
169.5440, 12716.00
170.7750, 12779.00
172.0050, 12920.00
173.2350, 12945.00
174.4650, 12950.00
175.6950, 12945.00
176.9250, 12738.00
178.1550, 12746.00
179.3840, 12858.00
180.6130, 12995.00
181.8420, 13042.00
183.0710, 13020.00
184.3000, 12912.00
185.5280, 13082.00
186.7570, 13052.00
187.9850, 13082.00
189.2130, 13206.00
190.4400, 13220.00
191.6680, 13324.00
192.8960, 13243.00
194.1230, 13329.00
195.3500, 13377.00
196.5770, 13316.00
197.8030, 13405.00
199.0300, 13487.00
200.2560, 13446.00
201.4830, 13772.00
202.7090, 13770.00
203.9340, 13814.00
205.1600, 13920.00
206.3860, 13864.00
207.6110, 14034.00
208.8360, 14173.11
210.0610, 14459.00
211.2860, 14588.00
212.5100, 14907.00
213.7350, 15185.00
214.9590, 15461.95
216.1830, 15546.96
217.4070, 15671.32
218.6310, 15580.00
219.8540, 15651.00
221.0780, 15541.00
222.3010, 15331.00
223.5240, 15379.00
224.7470, 15327.00
225.9690, 15445.00
227.1920, 15358.00
228.4140, 15383.00
229.6360, 15381.00
230.8580, 15286.00
232.0800, 15102.00
233.3020, 15132.00
234.5230, 14953.00
235.7440, 14695.00
236.9650, 14714.00
238.1860, 14630.00
239.4070, 14467.00
240.6280, 14557.00
241.8480, 14443.00
243.0680, 14432.00
244.2880, 14443.00
245.5080, 14358.00
246.7280, 14433.00
247.9470, 14428.00
249.1660, 14274.00
250.3860, 14347.00
251.6040, 14198.00
252.8230, 14332.00
254.0420, 14212.00
255.2600, 14188.00
256.4790, 14197.00
257.6970, 14288.00
258.9150, 14247.00
260.1320, 14233.00
261.3500, 14263.91
262.5670, 14065.00
263.7840, 14248.00
265.0010, 13967.00
266.2180, 13875.00
267.4350, 13862.00
268.6510, 13948.00
269.8680, 14000.00
271.0840, 13919.00
272.3000, 14159.00
273.5160, 14046.00
274.7310, 14250.00
275.9470, 14348.00
277.1620, 14479.00
278.3770, 14594.00
279.5920, 14573.00
280.8070, 14469.00
282.0210, 14576.00
283.2360, 14490.00
284.4500, 14661.00
285.6640, 14725.00
286.8780, 14603.00
288.0920, 14738.00
289.3050, 14811.00
290.5180, 14886.00
291.7320, 15057.00
292.9450, 15126.00
294.1570, 15309.00
295.3700, 15500.00
296.5830, 15506.00
297.7950, 15901.00
299.0070, 16148.00
300.2190, 16240.00
301.4310, 16431.00
302.6420, 16784.00
303.8540, 17164.00
305.0650, 17452.00
306.2760, 17642.00
307.4870, 17970.00
308.6980, 18501.00
309.9080, 19180.00
311.1190, 19924.00
312.3290, 20544.00
313.5390, 21392.00
314.7490, 22424.00
315.9580, 23504.00
317.1680, 24704.00
318.3770, 25807.00
319.5860, 26692.00
320.7950, 27675.00
322.0040, 28299.00
323.2130, 28518.00
324.4210, 28267.00
325.6290, 28011.00
326.8380, 27369.00
328.0460, 26534.00
329.2530, 25295.00
330.4610, 24764.00
331.6680, 23583.00
332.8760, 22809.00
334.0830, 21836.00
335.2890, 21286.00
336.4960, 20553.00
337.7030, 19889.00
338.9090, 19528.00
340.1150, 18889.00
341.3210, 18525.00
342.5270, 18284.00
343.7330, 18174.00
344.9380, 18156.00
346.1440, 17912.00
347.3490, 17880.00
348.5540, 17717.00
349.7590, 17714.00
350.9630, 17698.00
352.1680, 17759.00
353.3720, 17819.00
354.5760, 17686.00
355.7800, 17705.00
356.9840, 17731.00
358.1870, 17530.00
359.3910, 17488.00
360.5940, 17501.00
361.7970, 17197.00
363.0000, 17182.00
364.2030, 17329.00
365.4050, 17303.00
366.6080, 17350.00
367.8100, 17499.00
369.0120, 17779.00
370.2140, 17846.00
371.4150, 17854.00
372.6170, 18122.00
373.8180, 18065.00
375.0190, 18089.00
376.2200, 17777.00
377.4210, 17899.00
378.6220, 17790.00
379.8220, 17831.00
381.0230, 17991.00
382.2230, 18254.00
383.4230, 18394.00
384.6220, 18865.00
385.8220, 19274.00
387.0220, 19773.00
388.2210, 20245.00
389.4200, 20583.00
390.6190, 20825.00
391.8180, 21031.00
393.0160, 20859.00
394.2150, 20457.00
395.4130, 19880.00
396.6110, 19104.00
397.8090, 18256.00
399.0060, 17600.00
400.2040, 17203.00
401.4010, 16661.00
402.5980, 16442.00
403.7950, 16131.00
404.9920, 15880.00
406.1890, 15873.00
407.3860, 15814.00
408.5820, 15867.00
409.7780, 15695.00
410.9740, 15882.00
412.1700, 15737.00
413.3650, 15629.00
414.5610, 15731.00
415.7560, 15523.00
416.9510, 15647.00
418.1460, 15632.00
419.3410, 15525.00
420.5360, 15275.00
421.7300, 15303.00
422.9240, 15294.00
424.1180, 15046.00
425.3120, 15108.00
426.5060, 14999.00
427.7000, 15088.00
428.8930, 14908.00
430.0860, 14784.00
431.2790, 14766.00
432.4720, 14835.00
433.6650, 14712.00
434.8580, 14758.00
436.0500, 14649.00
437.2420, 14713.00
438.4340, 14694.12
439.6260, 14700.00
440.8180, 14735.00
442.0090, 14633.00
443.2010, 14711.00
444.3920, 14716.00
445.5830, 14474.00
446.7740, 14731.00
447.9640, 14563.00
449.1550, 14694.00
450.3450, 14678.00
451.5350, 14646.00
452.7250, 14864.00
453.9150, 14683.00
455.1050, 14941.00
456.2940, 14847.00
457.4830, 14903.00
458.6720, 14760.00
459.8610, 14879.00
461.0500, 14825.00
462.2390, 15013.00
463.4270, 14933.00
464.6150, 15034.00
465.8040, 15033.00
466.9910, 14997.58
468.1790, 15149.00
469.3670, 14986.00
470.5540, 14941.00
471.7410, 15038.00
472.9280, 15063.00
474.1150, 15032.88
475.3020, 14760.00
476.4890, 14959.00
477.6750, 14885.00
478.8610, 14795.00
480.0470, 15009.00
481.2330, 14739.00
482.4190, 14867.00
483.6040, 14873.00
484.7900, 14929.00
485.9750, 14995.04
487.1600, 14990.00
488.3450, 15049.00
489.5290, 15041.00
490.7140, 14958.00
491.8980, 15066.00
493.0820, 15226.00
494.2660, 15142.00
495.4500, 15363.00
496.6340, 15594.00
497.8170, 15702.00
499.0010, 15836.00
500.1840, 16038.10
501.3670, 16199.00
502.5500, 16327.00
503.7320, 16215.00
504.9150, 16171.00
506.0970, 16284.00
507.2790, 16202.00
508.4610, 16250.00
509.6430, 16317.00
510.8250, 16282.00
512.0060, 16496.00
513.1870, 16438.00
514.3680, 16725.00
515.5490, 16566.00
516.7300, 16599.00
517.9110, 16607.00
519.0910, 16874.00
520.2710, 16765.00
521.4510, 16702.00
522.6310, 16459.00
523.8110, 16607.00
524.9910, 16286.00
526.1700, 16302.00
527.3490, 16244.00
528.5280, 16222.00
529.7070, 16304.30
530.8860, 16391.00
532.0650, 16532.00
533.2430, 16544.00
534.4210, 16759.00
535.5990, 16828.82
536.7770, 17002.00
537.9550, 17051.00
539.1320, 17114.00
540.3100, 17229.00
541.4870, 17221.00
542.6640, 17013.00
543.8410, 16930.00
545.0170, 16986.00
546.1940, 16876.00
547.3700, 16819.00
548.5470, 16930.00
549.7230, 17139.00
550.8980, 17032.00
552.0740, 17373.00
553.2500, 17367.00
554.4250, 17463.00
555.6000, 17615.00
556.7750, 17281.00
557.9500, 17199.00
559.1250, 16992.00
560.2990, 16622.00
561.4730, 16265.00
562.6480, 16224.00
563.8220, 15987.00
564.9950, 15746.00
566.1690, 15879.00
567.3430, 15780.00
568.5160, 15685.00
569.6890, 15663.00
570.8620, 15443.00
572.0350, 15608.00
573.2070, 15556.00
574.3800, 15642.00
575.5520, 15472.00
576.7240, 15495.00
577.8960, 15461.00
579.0680, 15530.00
580.2400, 15472.00
581.4110, 15324.00
582.5830, 15361.00
583.7540, 15489.00
584.9250, 15313.00
586.0950, 15322.00
587.2660, 15357.00
588.4370, 15142.00
589.6070, 15263.00
590.7770, 15390.00
591.9470, 15329.00
593.1170, 15202.00
594.2860, 15199.00
595.4560, 15167.00
596.6250, 15235.00
597.7940, 15342.00
598.9630, 15256.00
600.1320, 15363.94
601.3000, 15371.00
602.4690, 15426.00
603.6370, 15389.00
604.8050, 15333.00
605.9730, 15368.00
607.1410, 15491.00
608.3090, 15346.00
609.4760, 15498.00
610.6430, 15402.00
611.8100, 15475.00
612.9770, 15587.00
614.1440, 15587.00
615.3110, 15617.00
616.4770, 15489.00
617.6430, 15527.00
618.8090, 15625.00
619.9750, 15444.00
621.1410, 15743.00
622.3070, 15551.00
623.4720, 15931.00
624.6370, 15728.00
625.8020, 15933.00
626.9670, 15850.00
628.1320, 15899.00
629.2970, 16028.00
630.4610, 15983.00
631.6250, 16280.00
632.7890, 16175.00
633.9530, 16443.00
635.1170, 16544.00
636.2810, 16666.00
637.4440, 16973.00
638.6070, 17032.00
639.7700, 17229.00
640.9330, 17566.00
642.0960, 17787.00
643.2590, 18104.00
644.4210, 18721.00
645.5830, 19149.00
646.7450, 19586.00
647.9070, 20367.00
649.0690, 21126.00
650.2310, 22172.00
651.3920, 23073.00
652.5530, 24642.00
653.7140, 25795.00
654.8750, 27162.00
656.0360, 28463.00
657.1970, 29901.00
658.3570, 31426.00
659.5170, 32615.00
660.6770, 33924.00
661.8370, 35316.00
662.9970, 36841.00
664.1570, 38102.00
665.3160, 39182.00
666.4750, 40101.00
667.6340, 39746.00
668.7930, 38735.00
669.9520, 37239.00
671.1110, 34927.00
672.2690, 32542.00
673.4270, 30515.00
674.5850, 28140.00
675.7430, 26360.00
676.9010, 24715.00
678.0590, 23565.00
679.2160, 22412.00
680.3730, 21698.00
681.5300, 20811.00
682.6870, 19922.00
683.8440, 19607.00
685.0010, 19153.00
686.1570, 18781.00
687.3130, 18567.00
688.4690, 18161.00
689.6250, 18275.00
690.7810, 17845.00
691.9370, 17752.00
693.0920, 17526.00
694.2470, 17348.00
695.4020, 17170.00
696.5570, 17083.00
697.7120, 16981.00
698.8670, 16906.00
700.0210, 16943.00
701.1750, 16790.00
702.3290, 16826.00
703.4830, 16612.00
704.6370, 16808.00
705.7910, 16538.00
706.9440, 16613.00
708.0970, 16335.00
709.2510, 16417.00
710.4030, 16732.00
711.5560, 16453.00
712.7090, 16553.00
713.8610, 16417.00
715.0140, 16252.00
716.1660, 16343.00
717.3180, 16316.00
718.4690, 16524.00
719.6210, 16254.00
720.7730, 16367.00
721.9240, 16496.00
723.0750, 16348.00
724.2260, 16414.00
725.3770, 16509.00
726.5270, 16432.00
727.6780, 16347.00
728.8280, 16461.00
729.9780, 16426.00
731.1280, 16321.00
732.2780, 16233.00
733.4280, 16490.00
734.5770, 16206.00
735.7260, 16395.00
736.8760, 16287.00
738.0250, 16244.00
739.1730, 16326.00
740.3220, 16116.00
741.4700, 16371.00
742.6190, 16059.00
743.7670, 16188.00
744.9150, 16114.00
746.0630, 16215.00
747.2100, 16096.00
748.3580, 16142.00
749.5050, 16082.00
750.6520, 16286.00
751.7990, 16156.00
752.9460, 16089.00
754.0930, 15976.00
755.2390, 16269.00
756.3860, 16243.00
757.5320, 16290.00
758.6780, 16112.00
759.8240, 16259.00
760.9690, 16097.00
762.1150, 16265.00
763.2600, 16168.00
764.4060, 16222.00
765.5510, 16225.00
766.6950, 16279.00
767.8400, 16186.00
768.9850, 16317.00
770.1290, 16250.00
771.2730, 16452.00
772.4170, 16337.00
773.5610, 16255.00
774.7050, 16248.00
775.8480, 16225.00
776.9920, 16193.00
778.1350, 16193.00
779.2780, 16306.00
780.4210, 16355.00
781.5640, 16322.00
782.7060, 16331.00
783.8490, 16292.00
784.9910, 16416.00
786.1330, 16303.00
787.2750, 16357.00
788.4170, 16448.00
789.5580, 16393.00
790.7000, 16510.00
791.8410, 16295.00
792.9820, 16399.00
794.1230, 16377.00
795.2640, 16489.00
796.4040, 16518.00
797.5450, 16644.00
798.6850, 16645.00
799.8250, 16614.00
800.9650, 16616.00
802.1050, 16686.00
803.2450, 16553.00
804.3840, 16437.00
805.5230, 16701.00
806.6630, 16495.00
807.8020, 16607.00
808.9400, 16622.00
810.0790, 16655.00
811.2170, 16723.00
812.3560, 16658.00
813.4940, 16556.00
814.6320, 16563.00
815.7700, 16656.00
816.9070, 16548.00
818.0450, 16545.00
819.1820, 16718.00
820.3190, 16549.00
821.4560, 16776.00
822.5930, 16710.00
823.7300, 16738.00
824.8670, 16720.00
826.0030, 16860.00
827.1390, 16831.69
828.2750, 16717.00
829.4110, 16889.00
830.5470, 16850.00
831.6820, 16939.00
832.8180, 16752.00
833.9530, 16788.00
835.0880, 16712.00
836.2230, 16767.00
837.3580, 16876.00
838.4920, 16967.00
839.6270, 16815.00
840.7610, 16933.00
841.8950, 16822.00
843.0290, 16847.66
844.1630, 16940.00
845.2960, 16878.00
846.4300, 17019.00
847.5630, 17027.00
848.6960, 17101.00
849.8290, 17147.00
850.9620, 16982.00
852.0940, 17225.00
853.2270, 17288.00
854.3590, 17221.00
855.4910, 17072.00
856.6230, 17159.00
857.7550, 17264.00
858.8870, 17159.00
860.0180, 17179.00
861.1500, 17154.00
862.2810, 17292.00
863.4120, 17206.00
864.5430, 17291.00
865.6730, 17464.00
866.8040, 17468.00
867.9340, 17396.00
869.0640, 17384.00
870.1940, 17363.00
871.3240, 17346.00
872.4540, 17488.00
873.5830, 17508.00
874.7130, 17519.00
875.8420, 17622.00
876.9710, 17635.81
878.1000, 17594.00
879.2290, 17690.00
880.3570, 17678.67
881.4860, 17422.00
882.6140, 17745.00
883.7420, 17673.00
884.8700, 17733.00
885.9980, 17904.00
887.1250, 17768.00
888.2530, 17827.00
889.3800, 17825.00
890.5070, 17848.00
891.6340, 17810.00
892.7610, 17995.00
893.8880, 17857.00
895.0140, 17786.00
896.1400, 17888.00
897.2670, 17793.00
898.3930, 17811.00
899.5180, 17941.00
900.6440, 17959.00
901.7700, 18037.00
902.8950, 17898.00
904.0200, 17985.00
905.1450, 18019.00
906.2700, 18062.00
907.3950, 18173.00
908.5190, 18179.46
909.6440, 18235.14
910.7680, 18231.00
911.8920, 18313.00
913.0160, 18325.00
914.1400, 18389.00
915.2630, 18420.42
916.3870, 18481.00
917.5100, 18413.00
918.6330, 18611.00
919.7560, 18478.00
920.8790, 18740.00
922.0010, 18909.00
923.1240, 19054.00
924.2460, 19038.00
925.3680, 19312.00
926.4900, 19263.00
927.6120, 19350.90
928.7340, 19345.00
929.8550, 19382.00
930.9760, 19478.00
932.0980, 19387.00
933.2190, 19414.00
934.3390, 19601.00
935.4600, 19505.00
936.5810, 19681.00
937.7010, 19741.00
938.8210, 19762.00
939.9410, 19727.00
941.0610, 19743.00
942.1810, 19776.00
943.3010, 19636.00
944.4200, 19499.00
945.5390, 19391.00
946.6580, 19182.00
947.7770, 19184.00
948.8960, 19227.00
950.0150, 18964.00
951.1330, 18974.00
952.2510, 19035.00
953.3690, 18901.00
954.4870, 18968.00
955.6050, 18790.00
956.7230, 19085.00
957.8400, 19084.00
958.9580, 19002.00
960.0750, 19185.00
961.1920, 19341.00
962.3090, 19108.00
963.4250, 19499.00
964.5420, 19596.00
965.6580, 19599.00
966.7740, 19604.00
967.8900, 19930.00
969.0060, 19947.00
970.1220, 20184.00
971.2380, 20132.00
972.3530, 20386.00
973.4680, 20556.00
974.5830, 20765.00
975.6980, 20900.00
976.8130, 21162.00
977.9280, 21374.00
979.0420, 21559.00
980.1560, 22075.00
981.2710, 22328.00
982.3850, 22711.00
983.4980, 23547.00
984.6120, 24127.00
985.7260, 25268.00
986.8390, 26071.00
987.9520, 27317.00
989.0650, 29170.00
990.1780, 31172.00
991.2910, 33619.00
992.4030, 36569.00
993.5160, 39968.00
994.6280, 43626.00
995.7400, 47781.00
996.8520, 51940.00
997.9640, 55477.00
999.0750, 58882.00
1000.187, 61287.00
1001.298, 62526.00
1002.409, 63019.00
1003.520, 62010.00
1004.631, 59984.00
1005.741, 57826.00
1006.852, 55350.00
1007.962, 51864.00
1009.072, 48675.00
1010.182, 45493.00
1011.292, 42304.00
1012.402, 39965.00
1013.511, 37569.00
1014.621, 35516.00
1015.730, 33756.00
1016.839, 32020.27
1017.948, 30494.00
1019.056, 29269.00
1020.165, 28158.00
1021.273, 27229.00
1022.382, 26333.00
1023.490, 25536.00
1024.598, 24971.00
1025.706, 24341.00
1026.813, 23768.00
1027.921, 23182.00
1029.028, 22962.00
1030.135, 22661.00
1031.242, 22371.00
1032.349, 21909.00
1033.456, 21602.00
1034.562, 21415.00
1035.668, 21369.00
1036.775, 21013.00
1037.881, 21118.00
1038.987, 20979.00
1040.092, 20724.00
1041.198, 20682.00
1042.303, 20625.00
1043.408, 20567.00
1044.514, 20435.00
1045.618, 20420.00
1046.723, 20418.00
1047.828, 20284.00
1048.932, 20308.00
1050.037, 20260.00
1051.141, 20292.00
1052.245, 20249.00
1053.349, 20079.00
1054.452, 19967.00
1055.556, 20040.00
1056.659, 19920.00
1057.762, 19995.00
1058.865, 19836.00
1059.968, 19894.00
1061.071, 19734.00
1062.174, 19772.00
1063.276, 19762.00
1064.378, 19807.00
1065.480, 19740.00
1066.582, 19719.00
1067.684, 19723.00
1068.786, 19646.00
1069.887, 19597.00
1070.988, 19602.99
1072.090, 19661.00
1073.191, 19612.00
1074.291, 19726.00
1075.392, 19760.00
1076.493, 19962.00
1077.593, 19795.00
1078.693, 19942.00
1079.793, 20087.00
1080.893, 20036.00
1081.993, 20109.53
1083.092, 20104.00
1084.192, 20072.00
1085.291, 20014.00
1086.390, 19948.00
1087.489, 19965.00
1088.588, 19777.00
1089.686, 20034.00
1090.785, 19765.00
1091.883, 19875.00
1092.981, 19817.00
1094.079, 19724.00
1095.177, 19888.00
1096.275, 19795.00
1097.373, 19713.00
1098.470, 19756.00
1099.567, 19685.00
1100.664, 19585.00
1101.761, 19656.00
1102.858, 19605.58
1103.954, 19597.13
1105.051, 19625.00
1106.147, 19638.00
1107.243, 19649.00
1108.339, 19786.00
1109.435, 19635.00
1110.531, 19811.00
1111.626, 19553.00
1112.722, 19762.00
1113.817, 19893.00
1114.912, 19865.00
1116.007, 19822.00
1117.101, 20148.00
1118.196, 20080.00
1119.290, 20019.00
1120.385, 20157.00
1121.479, 19975.00
1122.573, 20148.00
1123.666, 20049.00
1124.760, 20047.00
1125.853, 19989.00
1126.947, 20068.00
1128.040, 19954.20
1129.133, 19912.21
1130.226, 19788.00
1131.318, 19765.00
1132.411, 19712.00
1133.503, 19681.00
1134.596, 19644.00
1135.688, 19521.00
1136.780, 19662.00
1137.871, 19512.00
1138.963, 19734.00
1140.054, 19670.00
1141.146, 19673.00
1142.237, 19496.00
1143.328, 19617.00
1144.419, 19603.00
1145.509, 19670.00
1146.600, 19548.00
1147.690, 19525.00
1148.780, 19596.00
1149.870, 19570.00
1150.960, 19578.00
1152.050, 19609.00
1153.139, 19728.00
1154.229, 19776.00
1155.318, 19705.00
1156.407, 19604.00
1157.496, 19863.00
1158.585, 19694.00
1159.674, 19733.00
1160.762, 19836.00
1161.850, 19616.00
1162.939, 19683.00
1164.027, 19766.00
1165.114, 19763.00
1166.202, 19734.00
1167.290, 19662.00
1168.377, 19769.00
1169.464, 19918.00
1170.551, 19781.00
1171.638, 19823.00
1172.725, 19614.00
1173.812, 19832.00
1174.898, 19472.00
1175.984, 19633.00
1177.071, 19822.00
1178.157, 19810.00
1179.242, 19905.73
1180.328, 19637.00
1181.414, 19891.00
1182.499, 19848.00
1183.584, 19723.00
1184.669, 19848.00
1185.754, 19916.00
1186.839, 19735.00
1187.924, 19916.00
1189.008, 19657.00
1190.092, 19752.00
1191.177, 19978.00
1192.260, 19894.00
1193.344, 19902.00
1194.428, 20048.00
1195.512, 19917.00
1196.595, 20084.00
1197.678, 19927.00
1198.761, 20057.00
1199.844, 19866.00
1200.927, 19845.00
1202.009, 19886.00
1203.092, 20128.00
1204.174, 19898.00
1205.256, 20128.00
1206.338, 20007.00
1207.420, 19945.00
1208.502, 19916.00
1209.583, 20074.00
1210.665, 20161.00
1211.746, 20159.00
1212.827, 20270.00
1213.908, 20216.00
1214.988, 20239.00
1216.069, 20070.00
1217.149, 20191.00
1218.230, 20197.00
1219.310, 20119.00
1220.390, 20213.00
1221.470, 20242.00
1222.549, 20294.00
1223.629, 20063.00
1224.708, 20326.00
1225.787, 20155.00
1226.866, 20232.00
1227.945, 20434.00
1229.024, 20240.00
1230.103, 20106.00
1231.181, 20145.01
1232.259, 20263.00
1233.337, 20160.00
1234.415, 20253.41
1235.493, 20253.00
1236.571, 20342.00
1237.648, 20380.00
1238.726, 20465.00
1239.803, 20382.00
1240.880, 20368.00
1241.957, 20511.00
1243.034, 20193.00
1244.110, 20406.00
1245.187, 20399.00
1246.263, 20444.00
1247.339, 20347.00
1248.415, 20441.00
1249.491, 20381.00
1250.566, 20469.00
1251.642, 20436.00
1252.717, 20577.00
1253.793, 20552.00
1254.868, 20427.00
1255.943, 20517.00
1257.017, 20697.00
1258.092, 20445.00
1259.166, 20560.00
1260.241, 20388.00
1261.315, 20534.00
1262.389, 20637.00
1263.462, 20686.00
1264.536, 20765.00
1265.610, 20767.76
1266.683, 20737.00
1267.756, 20687.00
1268.829, 20707.00
1269.902, 20721.96
1270.975, 20680.00
1272.048, 20826.00
1273.120, 20789.00
1274.192, 20874.28
1275.264, 20536.00
1276.336, 20831.00
1277.408, 20769.00
1278.480, 20599.00
1279.551, 20825.00
1280.623, 20730.00
1281.694, 20736.00
1282.765, 20747.00
1283.836, 20728.00
1284.907, 20738.00
1285.977, 20897.00
1287.048, 20797.00
1288.118, 20828.00
1289.188, 20758.00
1290.258, 20902.00
1291.328, 20853.21
1292.398, 20703.00
1293.467, 20873.00
1294.537, 20757.00
1295.606, 20802.00
1296.675, 20893.00
1297.744, 20602.00
1298.813, 20783.00
1299.882, 20913.00
1300.950, 20763.00
1302.018, 20703.00
1303.086, 20882.00
1304.155, 20922.00
1305.222, 20926.00
1306.290, 20908.00
1307.358, 20942.46
1308.425, 20978.00
1309.492, 20939.00
1310.559, 21005.00
1311.626, 20922.00
1312.693, 21167.00
1313.760, 20994.00
1314.826, 21060.00
1315.893, 21132.00
1316.959, 20950.00
1318.025, 21079.00
1319.091, 21112.00
1320.157, 21202.00
1321.222, 21133.00
1322.288, 21137.00
1323.353, 20940.00
1324.418, 21197.00
1325.483, 21126.00
1326.548, 21041.00
1327.612, 21280.00
1328.677, 21227.00
1329.741, 21179.00
1330.806, 21211.00
1331.870, 21117.00
1332.934, 21267.00
1333.997, 21335.00
1335.061, 21253.00
1336.124, 21447.00
1337.188, 21281.00
1338.251, 21404.00
1339.314, 21431.00
1340.377, 21425.00
1341.439, 21358.00
1342.502, 21445.00
1343.564, 21374.00
1344.627, 21515.00
1345.689, 21384.00
1346.751, 21617.00
1347.813, 21604.00
1348.874, 21755.00
1349.936, 22005.00
1350.997, 21466.00
1352.058, 21428.00
1353.119, 21313.00
1354.180, 21419.00
1355.241, 21375.00
1356.301, 21495.00
1357.362, 21399.00
1358.422, 21485.00
1359.482, 21252.00
1360.542, 21532.00
1361.602, 21400.00
1362.662, 21456.00
1363.721, 21656.00
1364.781, 21611.00
1365.840, 21650.00
1366.899, 21476.00
1367.958, 21603.00
1369.017, 21408.00
1370.075, 21620.00
1371.134, 21499.00
1372.192, 21544.00
1373.250, 21780.00
1374.308, 21696.00
1375.366, 21611.00
1376.424, 21613.00
1377.481, 21666.00
1378.539, 21646.00
1379.596, 21628.00
1380.653, 21743.00
1381.710, 21499.00
1382.767, 21543.00
1383.824, 21700.00
1384.880, 21697.00
1385.937, 21509.00
1386.993, 21832.00
1388.049, 21882.00
1389.105, 21733.00
1390.161, 21863.00
1391.216, 21692.00
1392.272, 21634.00
1393.327, 21781.00
1394.382, 21810.00
1395.437, 21661.00
1396.492, 21767.00
1397.547, 21739.50
1398.601, 21741.00
1399.656, 21801.00
1400.710, 21797.00
1401.764, 21859.00
1402.818, 21832.00
1403.872, 21857.00
1404.925, 21841.00
1405.979, 21800.00
1407.032, 21801.00
1408.085, 21936.00
1409.139, 21945.00
1410.191, 21875.00
1411.244, 22031.00
1412.297, 22024.00
1413.349, 22096.00
1414.402, 22100.00
1415.454, 21883.00
1416.506, 22081.00
1417.558, 21957.00
1418.609, 22099.00
1419.661, 21884.00
1420.712, 21957.00
1421.764, 22144.00
1422.815, 22108.00
1423.866, 22125.40
1424.916, 21935.00
1425.967, 22037.00
1427.018, 22112.00
1428.068, 22097.00
1429.118, 22145.00
1430.168, 22255.00
1431.218, 22164.00
1432.268, 21982.00
1433.318, 22107.00
1434.367, 22301.00
1435.416, 22021.00
1436.465, 22168.00
1437.514, 22218.00
1438.563, 22176.00
1439.612, 22201.00
1440.661, 22241.00
1441.709, 22178.39
1442.757, 22167.00
1443.805, 22096.00
1444.853, 22139.00
1445.901, 22125.00
1446.949, 22180.00
1447.996, 22170.55
1449.044, 22367.00
1450.091, 22257.00
1451.138, 22215.00
1452.185, 22450.00
1453.232, 22353.00
1454.278, 22441.00
1455.325, 22276.00
1456.371, 22443.00
1457.417, 22424.00
1458.463, 22407.00
1459.509, 22485.00
1460.555, 22296.00
1461.601, 22248.00
1462.646, 22342.00
1463.691, 22383.00
1464.737, 22379.00
1465.782, 22468.00
1466.826, 22397.00
1467.871, 22409.00
1468.916, 22460.00
1469.960, 22666.00
1471.004, 22723.00
1472.048, 22373.00
1473.092, 22335.00
1474.136, 22628.00
1475.180, 22410.00
1476.223, 22613.00
1477.267, 22337.00
1478.310, 22500.00
1479.353, 22409.00
1480.396, 22508.00
1481.439, 22575.00
1482.481, 22331.00
1483.524, 22423.00
1484.566, 22421.74
1485.608, 22555.00
1486.650, 22530.00
1487.692, 22530.00
1488.734, 22597.00
1489.775, 22566.00
1490.817, 22657.00
1491.858, 22554.00
1492.899, 22757.00
1493.940, 22743.00
1494.981, 22511.00
1496.022, 22666.00
1497.062, 22723.00
1498.103, 22933.00
1499.143, 22645.00
1500.183, 22760.00
1501.223, 22621.00
1502.263, 22674.00
1503.302, 22749.00
1504.342, 22673.00
1505.381, 22673.00
1506.420, 22864.00
1507.459, 22857.00
1508.498, 22899.00
1509.537, 22679.00
1510.576, 22766.00
1511.614, 22739.00
1512.652, 22841.00
1513.691, 22680.00
1514.729, 22838.00
1515.767, 22757.00
1516.804, 22903.00
1517.842, 23052.00
1518.879, 22956.00
1519.917, 22901.00
1520.954, 22832.00
1521.991, 23041.00
1523.028, 22961.00
1524.064, 23109.00
1525.101, 22898.00
1526.137, 22973.00
1527.173, 22932.00
1528.210, 23089.00
1529.245, 23068.00
1530.281, 23095.00
1531.317, 22976.00
1532.352, 22746.00
1533.388, 23035.00
1534.423, 22855.00
1535.458, 23102.00
1536.493, 23153.00
1537.528, 23100.00
1538.562, 23132.00
1539.597, 22993.00
1540.631, 23140.00
1541.665, 23040.00
1542.700, 23171.00
1543.733, 23118.00
1544.767, 23139.00
1545.801, 23167.00
1546.834, 23144.00
1547.868, 23165.18
1548.901, 23241.00
1549.934, 23171.00
1550.967, 23078.00
1551.999, 23069.00
1553.032, 23107.25
1554.064, 23141.00
1555.097, 23264.00
1556.129, 23310.00
1557.161, 23386.00
1558.193, 23200.00
1559.224, 23221.00
1560.256, 23192.00
1561.287, 23275.00
1562.318, 23376.00
1563.350, 23319.00
1564.380, 23326.00
1565.411, 23437.00
1566.442, 23277.00
1567.472, 23109.00
1568.503, 23259.00
1569.533, 23443.00
1570.563, 23432.00
##END=



