##NAMES=Kanoite
##RRUFFID=R061134
##IDEAL CHEMISTRY=Mn^2+^MgSi_2_O_6_
##LOCALITY=Balmat, St. Lawrence County, New York, USA
##OWNER=RRUFF
##SOURCE=Michael Scott
##DESCRIPTION=Yellowish brown granular aggregate
##STATUS=The identification of this mineral has been confirmed by X-ray diffraction and chemical analysis
##URL=rruff.info/R061134
##MEASURED CHEMISTRY=(Mn^2+^_0.88_Ca_0.12_)_Σ=1_(Mg_0.98_Fe^3+^_0.02_)_Σ=1_(Si_0.98_Al_0.02_)_2_O_6_
##PIN_ID=M00204
##ORIENTATION=Laser parallel to (-1 0 -1). Fiducial mark perpendicular to laser is parallel to -b [0 -1 0]
111.5030, 8793.000
112.7420, 8977.000
113.9810, 9112.000
115.2200, 9163.000
116.4580, 9181.000
117.6970, 9452.000
118.9350, 9381.000
120.1730, 9488.000
121.4100, 9660.000
122.6480, 9705.000
123.8850, 10123.00
125.1230, 10096.00
126.3600, 10173.00
127.5960, 10591.00
128.8330, 10801.00
130.0700, 11130.00
131.3060, 11361.00
132.5420, 11625.00
133.7780, 11994.00
135.0140, 12182.00
136.2500, 12422.00
137.4850, 12674.00
138.7200, 12656.96
139.9550, 12928.00
141.1900, 12563.00
142.4250, 12300.00
143.6600, 12151.00
144.8940, 12070.00
146.1280, 11990.00
147.3620, 12001.00
148.5960, 11936.00
149.8300, 11718.00
151.0630, 11594.00
152.2960, 11329.00
153.5300, 10969.00
154.7620, 10907.00
155.9950, 10613.00
157.2280, 10366.00
158.4600, 10449.00
159.6920, 10413.00
160.9250, 10411.00
162.1560, 10408.00
163.3880, 10411.06
164.6200, 10415.00
165.8510, 10408.00
167.0820, 10493.00
168.3130, 10428.00
169.5440, 10744.00
170.7750, 10638.00
172.0050, 11057.00
173.2350, 10881.00
174.4650, 10876.00
175.6950, 10927.00
176.9250, 10851.00
178.1550, 10762.00
179.3840, 10730.00
180.6130, 10651.00
181.8420, 10703.00
183.0710, 10789.00
184.3000, 10788.31
185.5280, 10832.00
186.7570, 10874.00
187.9850, 10900.00
189.2130, 10915.00
190.4400, 10947.00
191.6680, 10905.00
192.8960, 10929.00
194.1230, 10935.00
195.3500, 11079.00
196.5770, 11082.00
197.8030, 11217.00
199.0300, 11245.00
200.2560, 11257.00
201.4830, 11480.00
202.7090, 11641.00
203.9340, 11597.00
205.1600, 11627.00
206.3860, 11862.00
207.6110, 12045.00
208.8360, 12142.00
210.0610, 12369.00
211.2860, 12727.00
212.5100, 12814.00
213.7350, 13126.00
214.9590, 13548.00
216.1830, 13871.00
217.4070, 13786.00
218.6310, 14011.00
219.8540, 13788.00
221.0780, 13522.00
222.3010, 13302.00
223.5240, 13071.00
224.7470, 13183.00
225.9690, 13068.00
227.1920, 13031.00
228.4140, 12992.00
229.6360, 12953.00
230.8580, 12980.00
232.0800, 12753.00
233.3020, 12732.00
234.5230, 12520.00
235.7440, 12544.00
236.9650, 12461.00
238.1860, 12282.00
239.4070, 12177.00
240.6280, 12122.52
241.8480, 12036.00
243.0680, 12040.00
244.2880, 12025.00
245.5080, 11995.00
246.7280, 11946.00
247.9470, 12141.00
249.1660, 11915.00
250.3860, 12168.00
251.6040, 12029.00
252.8230, 11813.00
254.0420, 11965.00
255.2600, 11780.00
256.4790, 11851.00
257.6970, 11808.00
258.9150, 11738.06
260.1320, 11701.00
261.3500, 11646.00
262.5670, 11661.00
263.7840, 11614.00
265.0010, 11602.00
266.2180, 11646.00
267.4350, 11554.00
268.6510, 11719.00
269.8680, 11624.00
271.0840, 11737.00
272.3000, 11519.00
273.5160, 11704.00
274.7310, 11806.00
275.9470, 11941.00
277.1620, 11910.00
278.3770, 12035.00
279.5920, 12014.00
280.8070, 12227.00
282.0210, 12080.00
283.2360, 12156.00
284.4500, 12305.00
285.6640, 12130.00
286.8780, 12190.00
288.0920, 12288.00
289.3050, 12318.00
290.5180, 12481.00
291.7320, 12668.00
292.9450, 12666.00
294.1570, 12879.15
295.3700, 13164.00
296.5830, 13178.00
297.7950, 13397.00
299.0070, 13530.00
300.2190, 13682.00
301.4310, 14040.00
302.6420, 14332.00
303.8540, 14565.00
305.0650, 14856.00
306.2760, 15166.00
307.4870, 15571.00
308.6980, 15882.00
309.9080, 16445.00
311.1190, 17083.00
312.3290, 17776.00
313.5390, 18579.00
314.7490, 19384.00
315.9580, 20417.00
317.1680, 21648.00
318.3770, 22676.00
319.5860, 23785.00
320.7950, 24615.00
322.0040, 25033.00
323.2130, 25529.00
324.4210, 25516.00
325.6290, 25284.00
326.8380, 24348.00
328.0460, 23836.00
329.2530, 22727.00
330.4610, 22042.00
331.6680, 21086.00
332.8760, 20287.00
334.0830, 19386.00
335.2890, 18730.00
336.4960, 18122.00
337.7030, 17605.00
338.9090, 17057.01
340.1150, 16477.00
341.3210, 16148.00
342.5270, 15864.00
343.7330, 15582.00
344.9380, 15642.00
346.1440, 15569.00
347.3490, 15481.00
348.5540, 15483.00
349.7590, 15663.00
350.9630, 15720.00
352.1680, 15838.00
353.3720, 15800.00
354.5760, 15761.00
355.7800, 15829.00
356.9840, 15725.00
358.1870, 15752.00
359.3910, 15617.00
360.5940, 15488.00
361.7970, 15463.99
363.0000, 15331.00
364.2030, 15350.00
365.4050, 15350.40
366.6080, 15417.05
367.8100, 15502.00
369.0120, 15621.00
370.2140, 15869.00
371.4150, 15920.00
372.6170, 16048.00
373.8180, 16058.00
375.0190, 16084.00
376.2200, 15938.00
377.4210, 15753.00
378.6220, 15532.00
379.8220, 15590.00
381.0230, 15841.00
382.2230, 15949.00
383.4230, 16272.00
384.6220, 16531.00
385.8220, 17077.00
387.0220, 17593.00
388.2210, 17895.00
389.4200, 18310.00
390.6190, 18649.00
391.8180, 18630.00
393.0160, 18430.00
394.2150, 18101.00
395.4130, 17333.00
396.6110, 16603.00
397.8090, 16043.00
399.0060, 15473.00
400.2040, 14920.00
401.4010, 14335.00
402.5980, 14182.00
403.7950, 13958.00
404.9920, 13708.00
406.1890, 13751.00
407.3860, 13708.00
408.5820, 13670.00
409.7780, 13492.00
410.9740, 13712.00
412.1700, 13941.00
413.3650, 13798.00
414.5610, 13834.00
415.7560, 13714.00
416.9510, 13669.00
418.1460, 13603.00
419.3410, 13482.00
420.5360, 13234.00
421.7300, 12939.00
422.9240, 12786.00
424.1180, 12668.00
425.3120, 12657.00
426.5060, 12503.00
427.7000, 12540.00
428.8930, 12421.00
430.0860, 12324.00
431.2790, 12248.00
432.4720, 12182.14
433.6650, 12130.00
434.8580, 12130.00
436.0500, 12086.00
437.2420, 12149.00
438.4340, 12008.00
439.6260, 11932.00
440.8180, 11951.00
442.0090, 11963.00
443.2010, 11872.00
444.3920, 11975.00
445.5830, 12024.00
446.7740, 11915.00
447.9640, 12048.00
449.1550, 12008.00
450.3450, 11903.00
451.5350, 12008.00
452.7250, 12088.00
453.9150, 11999.00
455.1050, 12105.00
456.2940, 12149.00
457.4830, 12176.00
458.6720, 12322.00
459.8610, 12251.00
461.0500, 12324.00
462.2390, 12464.00
463.4270, 12450.00
464.6150, 12646.00
465.8040, 12750.00
466.9910, 12621.00
468.1790, 12601.00
469.3670, 12658.00
470.5540, 12707.00
471.7410, 12641.00
472.9280, 12493.00
474.1150, 12466.00
475.3020, 12352.00
476.4890, 12403.00
477.6750, 12201.00
478.8610, 12296.00
480.0470, 12153.00
481.2330, 12259.00
482.4190, 12233.00
483.6040, 12194.00
484.7900, 12163.00
485.9750, 12090.00
487.1600, 12168.00
488.3450, 12216.00
489.5290, 12113.00
490.7140, 12279.00
491.8980, 12339.00
493.0820, 12491.00
494.2660, 12609.00
495.4500, 12702.00
496.6340, 12720.00
497.8170, 12981.00
499.0010, 13071.00
500.1840, 13511.00
501.3670, 13448.00
502.5500, 13700.00
503.7320, 13778.00
504.9150, 13890.00
506.0970, 13867.00
507.2790, 14240.00
508.4610, 14071.00
509.6430, 14320.00
510.8250, 14208.00
512.0060, 14357.00
513.1870, 14420.00
514.3680, 14335.00
515.5490, 14486.00
516.7300, 14600.00
517.9110, 14748.00
519.0910, 14758.00
520.2710, 14809.00
521.4510, 14794.00
522.6310, 14437.00
523.8110, 14480.00
524.9910, 14272.00
526.1700, 13998.00
527.3490, 14049.00
528.5280, 13803.00
529.7070, 13726.00
530.8860, 13598.00
532.0650, 13760.00
533.2430, 13947.00
534.4210, 13923.00
535.5990, 13980.00
536.7770, 14172.00
537.9550, 14427.00
539.1320, 14564.00
540.3100, 14470.00
541.4870, 14590.00
542.6640, 14693.00
543.8410, 14488.00
545.0170, 14404.00
546.1940, 14566.00
547.3700, 14662.00
548.5470, 14721.00
549.7230, 15185.00
550.8980, 15332.00
552.0740, 15741.00
553.2500, 15911.00
554.4250, 16322.00
555.6000, 16260.00
556.7750, 16212.00
557.9500, 15986.00
559.1250, 15270.00
560.2990, 14736.00
561.4730, 14336.00
562.6480, 14002.00
563.8220, 13753.00
564.9950, 13490.67
566.1690, 13286.90
567.3430, 13142.00
568.5160, 13005.00
569.6890, 12945.00
570.8620, 12860.50
572.0350, 12823.00
573.2070, 12787.00
574.3800, 12776.00
575.5520, 12785.00
576.7240, 12714.00
577.8960, 12612.00
579.0680, 12480.00
580.2400, 12415.00
581.4110, 12385.00
582.5830, 12527.00
583.7540, 12457.00
584.9250, 12395.00
586.0950, 12433.00
587.2660, 12296.00
588.4370, 12385.00
589.6070, 12253.00
590.7770, 12322.00
591.9470, 12234.00
593.1170, 12427.00
594.2860, 12405.00
595.4560, 12221.00
596.6250, 12461.00
597.7940, 12313.00
598.9630, 12379.00
600.1320, 12203.00
601.3000, 12273.00
602.4690, 12302.00
603.6370, 12325.00
604.8050, 12432.00
605.9730, 12417.00
607.1410, 12412.00
608.3090, 12316.00
609.4760, 12383.00
610.6430, 12512.00
611.8100, 12449.00
612.9770, 12493.00
614.1440, 12388.00
615.3110, 12512.00
616.4770, 12713.00
617.6430, 12545.00
618.8090, 12525.00
619.9750, 12615.00
621.1410, 12473.00
622.3070, 12732.00
623.4720, 12726.00
624.6370, 12799.00
625.8020, 12804.00
626.9670, 12814.00
628.1320, 12874.00
629.2970, 13033.00
630.4610, 13089.00
631.6250, 13050.00
632.7890, 13194.00
633.9530, 13498.00
635.1170, 13493.00
636.2810, 13511.00
637.4440, 13807.00
638.6070, 13812.00
639.7700, 14178.00
640.9330, 14522.00
642.0960, 14653.00
643.2590, 15129.00
644.4210, 15326.00
645.5830, 15828.00
646.7450, 16406.00
647.9070, 17018.43
649.0690, 17828.00
650.2310, 18689.00
651.3920, 19754.00
652.5530, 20954.00
653.7140, 22382.00
654.8750, 23641.00
656.0360, 24942.00
657.1970, 26500.00
658.3570, 27654.00
659.5170, 29233.00
660.6770, 30341.00
661.8370, 31600.00
662.9970, 33053.00
664.1570, 34415.00
665.3160, 35890.00
666.4750, 36630.00
667.6340, 36652.00
668.7930, 35865.00
669.9520, 34477.00
671.1110, 32424.00
672.2690, 30045.00
673.4270, 27563.00
674.5850, 25702.00
675.7430, 23726.00
676.9010, 22281.00
678.0590, 20669.00
679.2160, 19583.00
680.3730, 18876.00
681.5300, 18248.00
682.6870, 17605.00
683.8440, 16871.00
685.0010, 16888.00
686.1570, 16380.00
687.3130, 16632.00
688.4690, 15792.00
689.6250, 15621.00
690.7810, 15201.00
691.9370, 15026.00
693.0920, 14804.00
694.2470, 14657.00
695.4020, 14462.00
696.5570, 14257.00
697.7120, 14204.00
698.8670, 14119.00
700.0210, 13846.00
701.1750, 13843.00
702.3290, 13667.00
703.4830, 13593.00
704.6370, 13644.00
705.7910, 13630.00
706.9440, 13541.00
708.0970, 13563.00
709.2510, 13498.88
710.4030, 13569.00
711.5560, 13463.00
712.7090, 13306.00
713.8610, 13394.00
715.0140, 13403.00
716.1660, 13347.00
717.3180, 13497.00
718.4690, 13393.00
719.6210, 13312.00
720.7730, 13348.00
721.9240, 13279.89
723.0750, 13279.00
724.2260, 13283.00
725.3770, 13319.00
726.5270, 13398.00
727.6780, 13242.00
728.8280, 13393.00
729.9780, 13219.00
731.1280, 13284.00
732.2780, 13162.00
733.4280, 13158.00
734.5770, 13177.00
735.7260, 13072.00
736.8760, 13021.00
738.0250, 13033.38
739.1730, 13060.00
740.3220, 13052.00
741.4700, 12999.00
742.6190, 13018.00
743.7670, 12986.00
744.9150, 12996.00
746.0630, 12917.00
747.2100, 13106.00
748.3580, 12927.00
749.5050, 13017.00
750.6520, 12922.00
751.7990, 12977.00
752.9460, 13132.00
754.0930, 13005.00
755.2390, 13149.00
756.3860, 12916.00
757.5320, 12970.00
758.6780, 13036.00
759.8240, 13011.00
760.9690, 13099.00
762.1150, 12879.00
763.2600, 13012.00
764.4060, 13030.00
765.5510, 13065.00
766.6950, 12864.00
767.8400, 13132.00
768.9850, 12973.00
770.1290, 12902.00
771.2730, 12947.00
772.4170, 13095.00
773.5610, 13091.00
774.7050, 13074.00
775.8480, 13052.00
776.9920, 12963.00
778.1350, 13037.00
779.2780, 13062.00
780.4210, 13131.00
781.5640, 12984.00
782.7060, 13192.00
783.8490, 13062.00
784.9910, 13136.00
786.1330, 13244.00
787.2750, 13111.00
788.4170, 13148.00
789.5580, 13245.00
790.7000, 13116.00
791.8410, 13089.00
792.9820, 13128.00
794.1230, 13142.00
795.2640, 13330.00
796.4040, 13222.00
797.5450, 13347.00
798.6850, 13304.24
799.8250, 13290.73
800.9650, 13195.00
802.1050, 13296.00
803.2450, 13221.00
804.3840, 13296.00
805.5230, 13311.00
806.6630, 13299.00
807.8020, 13280.00
808.9400, 13314.00
810.0790, 13311.76
811.2170, 13244.00
812.3560, 13345.00
813.4940, 13430.00
814.6320, 13450.00
815.7700, 13294.00
816.9070, 13294.00
818.0450, 13298.00
819.1820, 13169.00
820.3190, 13327.00
821.4560, 13336.00
822.5930, 13341.00
823.7300, 13381.00
824.8670, 13232.00
826.0030, 13455.00
827.1390, 13375.00
828.2750, 13539.00
829.4110, 13531.00
830.5470, 13352.00
831.6820, 13523.00
832.8180, 13437.00
833.9530, 13458.00
835.0880, 13369.00
836.2230, 13566.00
837.3580, 13537.00
838.4920, 13392.00
839.6270, 13624.00
840.7610, 13528.00
841.8950, 13536.00
843.0290, 13527.00
844.1630, 13569.00
845.2960, 13665.00
846.4300, 13591.00
847.5630, 13590.00
848.6960, 13681.00
849.8290, 13808.00
850.9620, 13693.00
852.0940, 13702.00
853.2270, 13851.00
854.3590, 13668.00
855.4910, 13936.00
856.6230, 13908.00
857.7550, 13852.00
858.8870, 13934.00
860.0180, 13894.00
861.1500, 13819.00
862.2810, 13856.00
863.4120, 13995.00
864.5430, 13942.00
865.6730, 14005.00
866.8040, 13993.00
867.9340, 14093.00
869.0640, 13853.00
870.1940, 13958.00
871.3240, 13918.00
872.4540, 14076.00
873.5830, 13982.00
874.7130, 14012.00
875.8420, 14205.00
876.9710, 14131.00
878.1000, 14193.00
879.2290, 14274.00
880.3570, 14201.00
881.4860, 14255.00
882.6140, 14439.00
883.7420, 14211.00
884.8700, 14253.00
885.9980, 14419.00
887.1250, 14335.00
888.2530, 14466.00
889.3800, 14336.00
890.5070, 14606.00
891.6340, 14516.00
892.7610, 14472.00
893.8880, 14502.00
895.0140, 14543.00
896.1400, 14674.00
897.2670, 14774.00
898.3930, 14655.00
899.5180, 14520.00
900.6440, 14646.00
901.7700, 14532.00
902.8950, 14535.00
904.0200, 14443.00
905.1450, 14595.00
906.2700, 14559.00
907.3950, 14611.00
908.5190, 14692.00
909.6440, 14669.00
910.7680, 14702.00
911.8920, 14953.00
913.0160, 14964.00
914.1400, 14945.00
915.2630, 15069.00
916.3870, 14980.00
917.5100, 15125.00
918.6330, 15194.00
919.7560, 15176.00
920.8790, 15357.00
922.0010, 15429.00
923.1240, 15473.00
924.2460, 15643.00
925.3680, 15881.00
926.4900, 15781.00
927.6120, 15986.00
928.7340, 16278.00
929.8550, 16082.00
930.9760, 16028.00
932.0980, 16265.00
933.2190, 16232.00
934.3390, 16310.00
935.4600, 16271.00
936.5810, 16448.00
937.7010, 16429.00
938.8210, 16351.00
939.9410, 16509.00
941.0610, 16333.00
942.1810, 16184.00
943.3010, 16229.00
944.4200, 16143.00
945.5390, 15779.00
946.6580, 15853.00
947.7770, 15733.00
948.8960, 15728.00
950.0150, 15720.00
951.1330, 15665.00
952.2510, 15428.00
953.3690, 15605.00
954.4870, 15532.00
955.6050, 15510.00
956.7230, 15674.00
957.8400, 15615.00
958.9580, 15633.00
960.0750, 15763.00
961.1920, 15854.22
962.3090, 15983.00
963.4250, 16164.00
964.5420, 16315.00
965.6580, 16414.00
966.7740, 16255.00
967.8900, 16467.00
969.0060, 16620.00
970.1220, 16875.00
971.2380, 16931.00
972.3530, 17121.00
973.4680, 17098.00
974.5830, 17395.00
975.6980, 17603.00
976.8130, 17803.00
977.9280, 18030.00
979.0420, 18360.00
980.1560, 18658.00
981.2710, 19073.00
982.3850, 19473.00
983.4980, 20187.00
984.6120, 20775.00
985.7260, 21867.00
986.8390, 22913.00
987.9520, 24274.00
989.0650, 25870.00
990.1780, 28107.00
991.2910, 30710.00
992.4030, 33517.00
993.5160, 37098.00
994.6280, 41118.00
995.7400, 45489.00
996.8520, 49758.00
997.9640, 54037.00
999.0750, 57766.00
1000.187, 60721.00
1001.298, 61934.00
1002.409, 62775.00
1003.520, 62093.00
1004.631, 60183.00
1005.741, 57488.00
1006.852, 55026.00
1007.962, 51170.00
1009.072, 47470.00
1010.182, 44450.00
1011.292, 41357.00
1012.402, 38296.00
1013.511, 36129.00
1014.621, 33891.00
1015.730, 31773.00
1016.839, 30215.00
1017.948, 28322.00
1019.056, 26970.00
1020.165, 25429.00
1021.273, 24830.00
1022.382, 23824.00
1023.490, 22823.00
1024.598, 22021.00
1025.706, 21596.00
1026.813, 20985.00
1027.921, 20267.00
1029.028, 19927.00
1030.135, 19399.00
1031.242, 19109.00
1032.349, 18716.00
1033.456, 18596.00
1034.562, 18230.00
1035.668, 18098.00
1036.775, 17762.00
1037.881, 17793.00
1038.987, 17397.00
1040.092, 17441.00
1041.198, 17389.00
1042.303, 17227.00
1043.408, 17168.00
1044.514, 16971.00
1045.618, 17118.00
1046.723, 16916.00
1047.828, 16773.00
1048.932, 16573.00
1050.037, 16698.00
1051.141, 16918.00
1052.245, 16607.00
1053.349, 16569.00
1054.452, 16709.00
1055.556, 16460.00
1056.659, 16423.00
1057.762, 16509.00
1058.865, 16305.00
1059.968, 16301.00
1061.071, 16173.00
1062.174, 16189.00
1063.276, 16174.00
1064.378, 16297.00
1065.480, 16256.00
1066.582, 16154.00
1067.684, 16266.00
1068.786, 16178.00
1069.887, 16259.00
1070.988, 16191.00
1072.090, 16206.00
1073.191, 16040.00
1074.291, 16157.00
1075.392, 16012.00
1076.493, 16203.00
1077.593, 16213.00
1078.693, 16195.00
1079.793, 16298.00
1080.893, 16318.00
1081.993, 16308.00
1083.092, 16412.00
1084.192, 16445.00
1085.291, 16413.00
1086.390, 16386.00
1087.489, 16401.00
1088.588, 16314.00
1089.686, 16257.00
1090.785, 16238.00
1091.883, 16234.00
1092.981, 16264.00
1094.079, 16134.00
1095.177, 16303.00
1096.275, 16183.00
1097.373, 16085.00
1098.470, 16047.00
1099.567, 16119.00
1100.664, 16094.00
1101.761, 16013.00
1102.858, 16106.00
1103.954, 16096.00
1105.051, 15966.00
1106.147, 16001.00
1107.243, 16039.00
1108.339, 16108.00
1109.435, 16028.00
1110.531, 16166.00
1111.626, 15923.00
1112.722, 16120.00
1113.817, 16226.00
1114.912, 16182.00
1116.007, 16310.00
1117.101, 16218.00
1118.196, 16424.00
1119.290, 16460.00
1120.385, 16552.00
1121.479, 16509.00
1122.573, 16381.00
1123.666, 16493.00
1124.760, 16322.00
1125.853, 16337.00
1126.947, 16256.00
1128.040, 16178.56
1129.133, 16094.00
1130.226, 16046.00
1131.318, 15969.00
1132.411, 15886.00
1133.503, 16059.00
1134.596, 16055.00
1135.688, 16083.00
1136.780, 15849.00
1137.871, 16031.00
1138.963, 15797.00
1140.054, 15822.00
1141.146, 15819.00
1142.237, 15987.00
1143.328, 15727.00
1144.419, 15810.00
1145.509, 15888.00
1146.600, 15877.00
1147.690, 15896.00
1148.780, 15924.00
1149.870, 15882.00
1150.960, 15816.00
1152.050, 15845.00
1153.139, 15889.00
1154.229, 15793.00
1155.318, 15881.00
1156.407, 15929.00
1157.496, 15884.00
1158.585, 15854.00
1159.674, 15827.00
1160.762, 15915.00
1161.850, 15982.00
1162.939, 15938.00
1164.027, 15912.00
1165.114, 15922.00
1166.202, 15980.00
1167.290, 16033.00
1168.377, 16129.00
1169.464, 15898.00
1170.551, 15985.00
1171.638, 15913.00
1172.725, 15947.00
1173.812, 15947.00
1174.898, 15920.47
1175.984, 16006.00
1177.071, 15923.00
1178.157, 15880.00
1179.242, 15933.00
1180.328, 15898.00
1181.414, 15870.00
1182.499, 15967.00
1183.584, 15959.00
1184.669, 16002.00
1185.754, 16008.00
1186.839, 16063.00
1187.924, 16022.00
1189.008, 15957.00
1190.092, 15896.00
1191.177, 16128.00
1192.260, 16172.00
1193.344, 16090.00
1194.428, 15930.00
1195.512, 15905.00
1196.595, 16003.00
1197.678, 16050.00
1198.761, 16143.00
1199.844, 16107.00
1200.927, 16108.00
1202.009, 16125.00
1203.092, 15980.00
1204.174, 16053.00
1205.256, 16186.00
1206.338, 16133.00
1207.420, 16273.00
1208.502, 16161.00
1209.583, 16108.00
1210.665, 16224.00
1211.746, 16053.00
1212.827, 16087.00
1213.908, 16199.00
1214.988, 16365.00
1216.069, 16246.00
1217.149, 16171.00
1218.230, 16295.00
1219.310, 16165.00
1220.390, 16097.00
1221.470, 16102.00
1222.549, 16110.05
1223.629, 16167.32
1224.708, 16216.00
1225.787, 16318.00
1226.866, 16321.00
1227.945, 16329.00
1229.024, 16368.00
1230.103, 16343.00
1231.181, 16251.00
1232.259, 16470.00
1233.337, 16345.00
1234.415, 16545.00
1235.493, 16284.00
1236.571, 16392.00
1237.648, 16359.00
1238.726, 16479.00
1239.803, 16481.00
1240.880, 16468.00
1241.957, 16471.00
1243.034, 16472.99
1244.110, 16431.00
1245.187, 16472.00
1246.263, 16409.00
1247.339, 16380.00
1248.415, 16409.00
1249.491, 16407.69
1250.566, 16467.00
1251.642, 16489.00
1252.717, 16502.00
1253.793, 16565.00
1254.868, 16448.00
1255.943, 16497.00
1257.017, 16603.00
1258.092, 16503.00
1259.166, 16580.00
1260.241, 16745.00
1261.315, 16610.00
1262.389, 16753.00
1263.462, 16666.00
1264.536, 16758.00
1265.610, 16648.00
1266.683, 16691.00
1267.756, 16697.00
1268.829, 16564.00
1269.902, 16622.00
1270.975, 16836.00
1272.048, 16707.00
1273.120, 16706.00
1274.192, 16810.00
1275.264, 16614.00
1276.336, 16812.00
1277.408, 16794.00
1278.480, 16756.00
1279.551, 16716.00
1280.623, 16683.00
1281.694, 16668.00
1282.765, 16720.00
1283.836, 16917.00
1284.907, 16784.00
1285.977, 16707.00
1287.048, 16858.00
1288.118, 16748.00
1289.188, 16709.00
1290.258, 16679.00
1291.328, 16725.00
1292.398, 16655.00
1293.467, 16783.00
1294.537, 16656.00
1295.606, 16740.00
1296.675, 16752.00
1297.744, 16864.00
1298.813, 17041.00
1299.882, 16754.00
1300.950, 16984.00
1302.018, 17003.00
1303.086, 16779.00
1304.155, 16886.00
1305.222, 17022.00
1306.290, 16800.00
1307.358, 16897.00
1308.425, 16891.00
1309.492, 16955.00
1310.559, 17013.00
1311.626, 16984.00
1312.693, 17121.00
1313.760, 16922.00
1314.826, 16993.00
1315.893, 17068.00
1316.959, 17089.00
1318.025, 17205.00
1319.091, 17132.00
1320.157, 17176.00
1321.222, 17183.00
1322.288, 17305.00
1323.353, 17087.00
1324.418, 17143.00
1325.483, 17240.00
1326.548, 17099.00
1327.612, 17304.00
1328.677, 17195.00
1329.741, 17117.00
1330.806, 17307.00
1331.870, 17331.00
1332.934, 17387.00
1333.997, 17275.00
1335.061, 17325.00
1336.124, 17290.00
1337.188, 17356.00
1338.251, 17393.00
1339.314, 17340.00
1340.377, 17300.00
1341.439, 17488.00
1342.502, 17253.00
1343.564, 17316.00
1344.627, 17463.00
1345.689, 17419.00
1346.751, 17458.00
1347.813, 17465.00
1348.874, 17469.00
1349.936, 17344.00
1350.997, 17499.00
1352.058, 17329.00
1353.119, 17303.00
1354.180, 17493.00
1355.241, 17481.00
1356.301, 17450.00
1357.362, 17524.00
1358.422, 17406.00
1359.482, 17564.00
1360.542, 17428.00
1361.602, 17591.00
1362.662, 17379.00
1363.721, 17590.00
1364.781, 17531.00
1365.840, 17552.00
1366.899, 17535.00
1367.958, 17543.00
1369.017, 17554.04
1370.075, 17545.53
1371.134, 17558.00
1372.192, 17574.00
1373.250, 17537.00
1374.308, 17614.00
1375.366, 17412.00
1376.424, 17612.00
1377.481, 17786.00
1378.539, 17722.00
1379.596, 17545.00
1380.653, 17608.00
1381.710, 17592.00
1382.767, 17570.00
1383.824, 17750.00
1384.880, 17559.00
1385.937, 17534.00
1386.993, 17653.00
1388.049, 17703.00
1389.105, 17567.00
1390.161, 17553.00
1391.216, 17589.00
1392.272, 17508.00
1393.327, 17706.00
1394.382, 17700.00
1395.437, 17754.00
1396.492, 17705.00
1397.547, 17628.00
1398.601, 17636.00
1399.656, 17620.00
1400.710, 17745.00
1401.764, 17777.00
1402.818, 17629.00
1403.872, 17808.00
1404.925, 17761.00
1405.979, 17821.00
1407.032, 17806.00
1408.085, 17853.30
1409.139, 17795.00
1410.191, 17898.00
1411.244, 17958.00
1412.297, 17847.00
1413.349, 17832.00
1414.402, 17854.00
1415.454, 17938.00
1416.506, 17891.10
1417.558, 17946.60
1418.609, 17845.00
1419.661, 17963.00
1420.712, 17940.00
1421.764, 17876.00
1422.815, 17932.00
1423.866, 17934.00
1424.916, 17791.00
1425.967, 18115.00
1427.018, 18119.00
1428.068, 17974.00
1429.118, 17943.00
1430.168, 18054.00
1431.218, 18030.00
1432.268, 17974.00
1433.318, 18095.00
1434.367, 18148.00
1435.416, 18083.00
1436.465, 18137.10
1437.514, 18151.00
1438.563, 18108.00
1439.612, 18050.00
1440.661, 18021.00
1441.709, 18190.00
1442.757, 18180.00
1443.805, 18125.00
1444.853, 18161.00
1445.901, 18070.00
1446.949, 18174.00
1447.996, 18129.00
1449.044, 18144.00
1450.091, 18140.00
1451.138, 18176.00
1452.185, 18273.00
1453.232, 18189.00
1454.278, 18243.00
1455.325, 18247.00
1456.371, 18189.00
1457.417, 18173.00
1458.463, 18175.69
1459.509, 18203.00
1460.555, 18191.00
1461.601, 18149.00
1462.646, 18162.96
1463.691, 18309.00
1464.737, 18234.00
1465.782, 18320.00
1466.826, 18389.00
1467.871, 18349.00
1468.916, 18308.00
1469.960, 18358.00
1471.004, 18405.00
1472.048, 18387.00
1473.092, 18501.00
1474.136, 18136.00
1475.180, 18357.00
1476.223, 18458.00
1477.267, 18235.00
1478.310, 18447.00
1479.353, 18243.00
1480.396, 18365.00
1481.439, 18209.00
1482.481, 18381.00
1483.524, 18291.00
1484.566, 18473.00
1485.608, 18434.00
1486.650, 18392.00
1487.692, 18464.00
1488.734, 18590.00
1489.775, 18544.00
1490.817, 18659.00
1491.858, 18557.00
1492.899, 18490.00
1493.940, 18692.00
1494.981, 18902.12
1496.022, 18705.33
1497.062, 18708.75
1498.103, 18512.00
1499.143, 18436.00
1500.183, 18594.00
1501.223, 18632.00
1502.263, 18419.00
1503.302, 18763.00
1504.342, 18483.00
1505.381, 18420.00
1506.420, 18590.00
1507.459, 18473.00
1508.498, 18559.00
1509.537, 18602.00
1510.576, 18632.00
1511.614, 18687.00
1512.652, 18685.00
1513.691, 18546.00
1514.729, 18402.00
1515.767, 18669.00
1516.804, 18747.00
1517.842, 18552.00
1518.879, 18724.00
1519.917, 18760.00
1520.954, 18711.00
1521.991, 18751.00
1523.028, 18616.00
1524.064, 18698.00
1525.101, 18648.38
1526.137, 18590.00
1527.173, 18680.00
1528.210, 18632.00
1529.245, 18785.00
1530.281, 18765.00
1531.317, 18721.00
1532.352, 18871.00
1533.388, 18800.00
1534.423, 18883.64
1535.458, 18800.00
1536.493, 18977.00
1537.528, 18850.00
1538.562, 18832.00
1539.597, 18821.00
1540.631, 18913.00
1541.665, 18815.00
1542.700, 18907.00
1543.733, 18879.00
1544.767, 18783.00
1545.801, 18850.54
1546.834, 18873.00
1547.868, 18913.00
1548.901, 18928.00
1549.934, 19031.00
1550.967, 18961.00
1551.999, 19003.00
1553.032, 18969.00
1554.064, 18778.00
1555.097, 19185.00
1556.129, 19191.00
1557.161, 19043.00
1558.193, 19064.00
1559.224, 19038.00
1560.256, 19067.00
1561.287, 19183.00
1562.318, 18982.00
1563.350, 19147.00
1564.380, 18818.00
1565.411, 18950.00
1566.442, 19049.00
1567.472, 18940.00
1568.503, 19144.00
1569.533, 19064.00
1570.563, 19162.00
##END=



