##NAMES=Kanoite
##RRUFFID=R061134
##IDEAL CHEMISTRY=Mn^2+^MgSi_2_O_6_
##LOCALITY=Balmat, St. Lawrence County, New York, USA
##OWNER=RRUFF
##SOURCE=Michael Scott
##DESCRIPTION=Yellowish brown granular aggregate
##STATUS=The identification of this mineral has been confirmed by X-ray diffraction and chemical analysis
##URL=rruff.info/R061134
##MEASURED CHEMISTRY=(Mn^2+^_0.88_Ca_0.12_)_Σ=1_(Mg_0.98_Fe^3+^_0.02_)_Σ=1_(Si_0.98_Al_0.02_)_2_O_6_
##PIN_ID=M00204
##ORIENTATION=Laser parallel to (-1 0 -1). Fiducial mark perpendicular to laser is parallel to -b [0 -1 0]
111.5030, 9946.000
112.7420, 10092.00
113.9810, 10283.00
115.2200, 10370.00
116.4580, 10568.00
117.6970, 10680.00
118.9350, 10711.00
120.1730, 10930.00
121.4100, 11179.00
122.6480, 11649.00
123.8850, 11798.00
125.1230, 12161.00
126.3600, 12528.00
127.5960, 13201.00
128.8330, 13626.00
130.0700, 14157.00
131.3060, 14708.00
132.5420, 15070.00
133.7780, 15449.00
135.0140, 15997.00
136.2500, 16215.00
137.4850, 16687.00
138.7200, 16949.00
139.9550, 16779.00
141.1900, 16006.00
142.4250, 15278.00
143.6600, 14828.00
144.8940, 14639.00
146.1280, 14355.00
147.3620, 14007.00
148.5960, 13782.00
149.8300, 13326.00
151.0630, 13195.00
152.2960, 12635.00
153.5300, 12297.00
154.7620, 12164.00
155.9950, 11872.00
157.2280, 11744.00
158.4600, 11508.00
159.6920, 11495.00
160.9250, 11582.00
162.1560, 11475.00
163.3880, 11528.00
164.6200, 11560.00
165.8510, 11643.00
167.0820, 11567.00
168.3130, 11703.00
169.5440, 11572.00
170.7750, 11588.00
172.0050, 11591.00
173.2350, 11665.00
174.4650, 11584.00
175.6950, 11537.00
176.9250, 11572.00
178.1550, 11631.00
179.3840, 11582.00
180.6130, 11589.00
181.8420, 11667.00
183.0710, 11679.11
184.3000, 11761.00
185.5280, 11794.00
186.7570, 11826.00
187.9850, 11880.20
189.2130, 11917.00
190.4400, 12067.00
191.6680, 12101.00
192.8960, 12202.00
194.1230, 12187.00
195.3500, 12266.00
196.5770, 12339.00
197.8030, 12374.00
199.0300, 12295.00
200.2560, 12634.00
201.4830, 12568.00
202.7090, 12834.00
203.9340, 12892.00
205.1600, 13237.00
206.3860, 13402.00
207.6110, 13609.19
208.8360, 13801.00
210.0610, 14095.00
211.2860, 14384.00
212.5100, 14736.00
213.7350, 15046.00
214.9590, 15638.00
216.1830, 15845.00
217.4070, 16035.00
218.6310, 15669.00
219.8540, 15457.00
221.0780, 15272.00
222.3010, 14910.00
223.5240, 14714.00
224.7470, 14692.00
225.9690, 14633.00
227.1920, 14343.00
228.4140, 14349.00
229.6360, 14467.00
230.8580, 14172.00
232.0800, 14107.00
233.3020, 13929.00
234.5230, 13870.00
235.7440, 13650.00
236.9650, 13492.00
238.1860, 13287.00
239.4070, 13355.00
240.6280, 13387.00
241.8480, 13197.00
243.0680, 13154.00
244.2880, 12997.00
245.5080, 13021.00
246.7280, 13135.00
247.9470, 12987.00
249.1660, 13064.00
250.3860, 13043.00
251.6040, 13206.00
252.8230, 13144.00
254.0420, 13171.00
255.2600, 13111.00
256.4790, 13225.00
257.6970, 13338.00
258.9150, 13393.00
260.1320, 13360.00
261.3500, 13360.94
262.5670, 13242.00
263.7840, 13275.00
265.0010, 13223.00
266.2180, 13244.00
267.4350, 13205.00
268.6510, 13119.00
269.8680, 13175.00
271.0840, 13237.00
272.3000, 13301.00
273.5160, 13419.00
274.7310, 13524.00
275.9470, 13675.00
277.1620, 13712.00
278.3770, 13797.00
279.5920, 13833.00
280.8070, 13828.00
282.0210, 13893.61
283.2360, 13967.00
284.4500, 13944.00
285.6640, 13923.00
286.8780, 13889.00
288.0920, 14187.00
289.3050, 14152.00
290.5180, 14217.00
291.7320, 14310.00
292.9450, 14375.00
294.1570, 14700.00
295.3700, 14870.00
296.5830, 14990.00
297.7950, 15297.00
299.0070, 15496.00
300.2190, 15781.00
301.4310, 16252.00
302.6420, 16742.00
303.8540, 17146.00
305.0650, 17700.00
306.2760, 18108.00
307.4870, 18988.00
308.6980, 19670.00
309.9080, 20881.00
311.1190, 22028.00
312.3290, 23390.00
313.5390, 25005.00
314.7490, 26815.00
315.9580, 28587.00
317.1680, 30529.00
318.3770, 32517.00
319.5860, 34454.00
320.7950, 35819.00
322.0040, 36989.00
323.2130, 37280.00
324.4210, 37077.00
325.6290, 36506.00
326.8380, 35518.00
328.0460, 34143.00
329.2530, 32842.00
330.4610, 31418.00
331.6680, 29837.00
332.8760, 28445.00
334.0830, 27167.00
335.2890, 25964.00
336.4960, 25036.00
337.7030, 23928.00
338.9090, 23092.00
340.1150, 22193.00
341.3210, 21562.00
342.5270, 21262.00
343.7330, 20724.00
344.9380, 20453.00
346.1440, 20400.00
347.3490, 20235.00
348.5540, 20086.00
349.7590, 20510.00
350.9630, 20246.00
352.1680, 20332.00
353.3720, 20133.00
354.5760, 20097.00
355.7800, 19658.00
356.9840, 19549.00
358.1870, 19319.00
359.3910, 19319.00
360.5940, 19415.00
361.7970, 19117.00
363.0000, 19198.00
364.2030, 19054.00
365.4050, 19340.00
366.6080, 19406.00
367.8100, 19649.00
369.0120, 19995.00
370.2140, 20548.00
371.4150, 20807.00
372.6170, 20900.00
373.8180, 20889.00
375.0190, 20956.00
376.2200, 20909.00
377.4210, 21005.00
378.6220, 20845.00
379.8220, 21275.00
381.0230, 21645.00
382.2230, 22085.00
383.4230, 22809.00
384.6220, 23800.00
385.8220, 24658.00
387.0220, 25744.00
388.2210, 26954.00
389.4200, 27925.00
390.6190, 28918.00
391.8180, 29270.00
393.0160, 28616.00
394.2150, 27641.00
395.4130, 26122.00
396.6110, 24282.00
397.8090, 22513.00
399.0060, 20753.00
400.2040, 19257.00
401.4010, 18231.00
402.5980, 17290.00
403.7950, 16570.00
404.9920, 16271.00
406.1890, 15870.00
407.3860, 15360.00
408.5820, 15223.00
409.7780, 14983.00
410.9740, 14812.00
412.1700, 14600.00
413.3650, 14675.00
414.5610, 14489.00
415.7560, 14487.00
416.9510, 14351.00
418.1460, 14286.69
419.3410, 14243.00
420.5360, 14186.00
421.7300, 14257.00
422.9240, 14261.00
424.1180, 14228.00
425.3120, 14315.00
426.5060, 14135.00
427.7000, 14051.00
428.8930, 13954.00
430.0860, 14082.00
431.2790, 13856.00
432.4720, 13829.00
433.6650, 13944.00
434.8580, 13760.00
436.0500, 13780.00
437.2420, 13611.00
438.4340, 13629.00
439.6260, 13520.00
440.8180, 13521.00
442.0090, 13465.00
443.2010, 13416.00
444.3920, 13494.00
445.5830, 13497.00
446.7740, 13439.00
447.9640, 13500.57
449.1550, 13434.00
450.3450, 13535.00
451.5350, 13471.00
452.7250, 13463.00
453.9150, 13551.00
455.1050, 13484.00
456.2940, 13578.00
457.4830, 13614.00
458.6720, 13617.00
459.8610, 13731.00
461.0500, 13696.00
462.2390, 13585.00
463.4270, 13652.00
464.6150, 13693.00
465.8040, 13707.00
466.9910, 13764.00
468.1790, 13738.00
469.3670, 13707.00
470.5540, 13794.00
471.7410, 13792.00
472.9280, 13821.93
474.1150, 13734.00
475.3020, 13807.00
476.4890, 13778.00
477.6750, 13609.00
478.8610, 13628.00
480.0470, 13624.00
481.2330, 13766.00
482.4190, 13729.00
483.6040, 13698.00
484.7900, 13630.00
485.9750, 13729.00
487.1600, 13766.00
488.3450, 13727.00
489.5290, 13842.00
490.7140, 13798.00
491.8980, 14030.00
493.0820, 14228.00
494.2660, 14295.00
495.4500, 14452.00
496.6340, 14657.00
497.8170, 14759.00
499.0010, 15023.00
500.1840, 15002.00
501.3670, 15443.00
502.5500, 15385.00
503.7320, 15467.00
504.9150, 15329.00
506.0970, 15098.00
507.2790, 14977.00
508.4610, 15043.00
509.6430, 14999.00
510.8250, 15241.00
512.0060, 15332.00
513.1870, 15365.00
514.3680, 15568.00
515.5490, 15909.00
516.7300, 16001.00
517.9110, 15963.00
519.0910, 16063.00
520.2710, 15937.00
521.4510, 15950.00
522.6310, 15877.00
523.8110, 15782.00
524.9910, 15704.00
526.1700, 15761.00
527.3490, 15711.00
528.5280, 15631.00
529.7070, 16033.00
530.8860, 16284.00
532.0650, 16374.00
533.2430, 16757.00
534.4210, 17092.00
535.5990, 17312.00
536.7770, 17851.00
537.9550, 18145.00
539.1320, 18185.00
540.3100, 18181.00
541.4870, 17752.00
542.6640, 17615.00
543.8410, 17165.00
545.0170, 16777.00
546.1940, 16611.00
547.3700, 16641.00
548.5470, 16466.00
549.7230, 16303.00
550.8980, 16196.00
552.0740, 16165.00
553.2500, 16365.00
554.4250, 16290.00
555.6000, 16163.00
556.7750, 16168.00
557.9500, 15746.00
559.1250, 15571.00
560.2990, 15411.00
561.4730, 15142.00
562.6480, 14889.00
563.8220, 14696.00
564.9950, 14671.00
566.1690, 14488.00
567.3430, 14432.00
568.5160, 14521.00
569.6890, 14324.00
570.8620, 14341.00
572.0350, 14310.00
573.2070, 14221.03
574.3800, 14193.00
575.5520, 14148.00
576.7240, 13991.00
577.8960, 13998.00
579.0680, 14092.00
580.2400, 14093.00
581.4110, 13959.00
582.5830, 14039.00
583.7540, 13979.00
584.9250, 13907.00
586.0950, 13988.00
587.2660, 13866.00
588.4370, 13695.00
589.6070, 13798.00
590.7770, 13722.00
591.9470, 13784.00
593.1170, 13707.00
594.2860, 13778.00
595.4560, 13670.00
596.6250, 13744.00
597.7940, 13651.00
598.9630, 13771.00
600.1320, 13666.00
601.3000, 13764.00
602.4690, 13721.00
603.6370, 13733.00
604.8050, 13840.00
605.9730, 13928.00
607.1410, 13706.00
608.3090, 13997.00
609.4760, 13807.00
610.6430, 13730.00
611.8100, 13859.00
612.9770, 13877.00
614.1440, 13845.00
615.3110, 14018.00
616.4770, 13984.00
617.6430, 14022.46
618.8090, 14137.00
619.9750, 14041.00
621.1410, 14024.00
622.3070, 14014.00
623.4720, 14135.00
624.6370, 14065.00
625.8020, 14248.00
626.9670, 14362.00
628.1320, 14276.00
629.2970, 14329.00
630.4610, 14484.00
631.6250, 14601.00
632.7890, 14651.00
633.9530, 14836.00
635.1170, 14887.00
636.2810, 14957.00
637.4440, 15186.00
638.6070, 15345.00
639.7700, 15631.00
640.9330, 15917.00
642.0960, 16145.00
643.2590, 16499.00
644.4210, 16777.00
645.5830, 17434.00
646.7450, 17932.00
647.9070, 18757.00
649.0690, 19652.00
650.2310, 20493.00
651.3920, 21711.00
652.5530, 22816.00
653.7140, 24150.00
654.8750, 25196.00
656.0360, 26605.00
657.1970, 27521.00
658.3570, 28782.00
659.5170, 29816.00
660.6770, 30827.00
661.8370, 31612.00
662.9970, 32784.00
664.1570, 33734.00
665.3160, 34830.00
666.4750, 34795.00
667.6340, 34906.00
668.7930, 33991.00
669.9520, 32443.00
671.1110, 30675.00
672.2690, 28605.00
673.4270, 26914.00
674.5850, 25123.00
675.7430, 23836.00
676.9010, 22381.00
678.0590, 21395.00
679.2160, 20783.00
680.3730, 19844.00
681.5300, 19508.00
682.6870, 18742.00
683.8440, 18663.00
685.0010, 18426.00
686.1570, 17951.00
687.3130, 17653.00
688.4690, 17634.00
689.6250, 17409.00
690.7810, 16954.00
691.9370, 16722.00
693.0920, 16643.00
694.2470, 16338.00
695.4020, 16457.00
696.5570, 16170.00
697.7120, 15771.00
698.8670, 15912.00
700.0210, 15573.00
701.1750, 15584.00
702.3290, 15364.00
703.4830, 15355.00
704.6370, 15427.00
705.7910, 15457.00
706.9440, 15432.00
708.0970, 15309.00
709.2510, 15361.00
710.4030, 15133.00
711.5560, 15097.00
712.7090, 15141.00
713.8610, 15094.00
715.0140, 14955.00
716.1660, 15134.00
717.3180, 15055.00
718.4690, 15186.00
719.6210, 15167.00
720.7730, 15132.00
721.9240, 15129.00
723.0750, 15198.00
724.2260, 15181.43
725.3770, 15120.00
726.5270, 15214.00
727.6780, 15203.00
728.8280, 15205.00
729.9780, 15017.00
731.1280, 14816.00
732.2780, 15008.00
733.4280, 14890.00
734.5770, 14889.00
735.7260, 14902.00
736.8760, 14695.00
738.0250, 14790.00
739.1730, 14544.00
740.3220, 14778.00
741.4700, 14539.00
742.6190, 14750.00
743.7670, 14567.00
744.9150, 14615.00
746.0630, 14706.00
747.2100, 14707.00
748.3580, 14641.00
749.5050, 14691.00
750.6520, 14652.00
751.7990, 14493.00
752.9460, 14591.00
754.0930, 14482.00
755.2390, 14524.00
756.3860, 14669.00
757.5320, 14604.00
758.6780, 14543.00
759.8240, 14528.00
760.9690, 14480.00
762.1150, 14561.00
763.2600, 14656.00
764.4060, 14668.86
765.5510, 14536.00
766.6950, 14778.00
767.8400, 14667.00
768.9850, 14717.00
770.1290, 14531.00
771.2730, 14687.00
772.4170, 14630.00
773.5610, 14534.00
774.7050, 14616.00
775.8480, 14730.00
776.9920, 14651.00
778.1350, 14698.00
779.2780, 14645.00
780.4210, 14745.00
781.5640, 14640.00
782.7060, 14751.00
783.8490, 14810.00
784.9910, 14586.00
786.1330, 14760.00
787.2750, 14794.00
788.4170, 14722.00
789.5580, 14754.00
790.7000, 14575.00
791.8410, 14814.00
792.9820, 14861.00
794.1230, 14689.00
795.2640, 14825.00
796.4040, 14873.00
797.5450, 14837.00
798.6850, 14871.00
799.8250, 14747.00
800.9650, 14847.00
802.1050, 14872.00
803.2450, 15013.00
804.3840, 14890.00
805.5230, 14712.00
806.6630, 14940.00
807.8020, 14903.00
808.9400, 14865.00
810.0790, 14951.00
811.2170, 14868.00
812.3560, 14920.00
813.4940, 14942.00
814.6320, 14959.00
815.7700, 14902.00
816.9070, 14950.00
818.0450, 15162.00
819.1820, 15004.00
820.3190, 15037.00
821.4560, 14940.00
822.5930, 14895.00
823.7300, 15003.00
824.8670, 14916.00
826.0030, 15152.00
827.1390, 15165.00
828.2750, 15139.00
829.4110, 15114.00
830.5470, 15159.00
831.6820, 15125.00
832.8180, 15082.00
833.9530, 15118.83
835.0880, 15219.00
836.2230, 15140.00
837.3580, 15194.00
838.4920, 15184.00
839.6270, 15228.00
840.7610, 15124.00
841.8950, 15353.00
843.0290, 15270.00
844.1630, 15453.00
845.2960, 15173.00
846.4300, 15406.00
847.5630, 15348.00
848.6960, 15512.00
849.8290, 15434.00
850.9620, 15368.00
852.0940, 15524.00
853.2270, 15522.00
854.3590, 15402.00
855.4910, 15528.00
856.6230, 15593.00
857.7550, 15697.00
858.8870, 15653.00
860.0180, 15633.00
861.1500, 15636.00
862.2810, 15711.00
863.4120, 15772.00
864.5430, 15717.00
865.6730, 15928.00
866.8040, 15964.00
867.9340, 15941.00
869.0640, 15863.00
870.1940, 15930.00
871.3240, 15825.00
872.4540, 15820.00
873.5830, 15977.00
874.7130, 15946.00
875.8420, 16065.00
876.9710, 16054.00
878.1000, 16186.00
879.2290, 16144.00
880.3570, 15950.00
881.4860, 16251.00
882.6140, 16148.00
883.7420, 16078.00
884.8700, 16227.00
885.9980, 16309.00
887.1250, 16481.00
888.2530, 16479.00
889.3800, 16374.00
890.5070, 16612.00
891.6340, 16523.00
892.7610, 16589.00
893.8880, 16450.00
895.0140, 16543.00
896.1400, 16481.00
897.2670, 16381.00
898.3930, 16446.00
899.5180, 16549.00
900.6440, 16540.78
901.7700, 16446.00
902.8950, 16496.00
904.0200, 16454.74
905.1450, 16352.00
906.2700, 16468.00
907.3950, 16555.00
908.5190, 16640.00
909.6440, 16791.00
910.7680, 16713.00
911.8920, 16802.00
913.0160, 16875.00
914.1400, 17002.00
915.2630, 17047.00
916.3870, 17345.00
917.5100, 17419.00
918.6330, 17444.00
919.7560, 17792.00
920.8790, 17795.00
922.0010, 18042.00
923.1240, 18359.00
924.2460, 18403.00
925.3680, 18506.00
926.4900, 18880.00
927.6120, 18911.00
928.7340, 18947.00
929.8550, 18743.00
930.9760, 18652.00
932.0980, 18648.00
933.2190, 18660.00
934.3390, 18523.00
935.4600, 18545.00
936.5810, 18522.00
937.7010, 18698.00
938.8210, 18483.00
939.9410, 18457.00
941.0610, 18301.00
942.1810, 18263.00
943.3010, 18167.00
944.4200, 18036.00
945.5390, 17875.00
946.6580, 17723.00
947.7770, 17624.00
948.8960, 17571.00
950.0150, 17469.17
951.1330, 17414.00
952.2510, 17381.00
953.3690, 17347.00
954.4870, 17406.00
955.6050, 17485.00
956.7230, 17392.00
957.8400, 17401.00
958.9580, 17535.00
960.0750, 17732.00
961.1920, 17628.00
962.3090, 17612.00
963.4250, 17812.00
964.5420, 17997.00
965.6580, 18115.00
966.7740, 18203.00
967.8900, 18307.00
969.0060, 18288.00
970.1220, 18550.00
971.2380, 18560.00
972.3530, 18866.00
973.4680, 19019.00
974.5830, 19174.00
975.6980, 19377.00
976.8130, 19368.00
977.9280, 19908.00
979.0420, 19981.00
980.1560, 20410.00
981.2710, 20813.00
982.3850, 21166.00
983.4980, 21878.00
984.6120, 22606.00
985.7260, 23642.00
986.8390, 24600.00
987.9520, 26071.00
989.0650, 27966.00
990.1780, 29994.00
991.2910, 32484.00
992.4030, 35650.00
993.5160, 39072.00
994.6280, 42873.00
995.7400, 47543.00
996.8520, 52012.00
997.9640, 55994.00
999.0750, 59838.00
1000.187, 62544.00
1001.298, 64209.00
1002.409, 64789.00
1003.520, 64653.00
1004.631, 63394.00
1005.741, 61606.00
1006.852, 59054.00
1007.962, 55770.00
1009.072, 52667.00
1010.182, 49227.00
1011.292, 45867.00
1012.402, 42797.00
1013.511, 40577.00
1014.621, 38235.00
1015.730, 36000.00
1016.839, 33968.00
1017.948, 32247.00
1019.056, 30821.00
1020.165, 29048.00
1021.273, 27687.00
1022.382, 26761.00
1023.490, 25571.00
1024.598, 24553.00
1025.706, 24132.00
1026.813, 23374.00
1027.921, 22604.00
1029.028, 22153.00
1030.135, 21757.00
1031.242, 21280.00
1032.349, 20967.00
1033.456, 20644.00
1034.562, 20250.00
1035.668, 19989.00
1036.775, 19940.00
1037.881, 19724.00
1038.987, 19581.00
1040.092, 19604.00
1041.198, 19263.00
1042.303, 19181.00
1043.408, 19285.00
1044.514, 18995.00
1045.618, 19087.00
1046.723, 19023.00
1047.828, 18915.00
1048.932, 18871.00
1050.037, 18764.00
1051.141, 18736.00
1052.245, 18575.00
1053.349, 18620.00
1054.452, 18400.00
1055.556, 18348.00
1056.659, 18320.00
1057.762, 18322.00
1058.865, 18244.00
1059.968, 18249.00
1061.071, 18214.00
1062.174, 18315.00
1063.276, 18107.00
1064.378, 18043.00
1065.480, 18197.00
1066.582, 17989.00
1067.684, 18153.00
1068.786, 17857.00
1069.887, 17832.00
1070.988, 18134.00
1072.090, 17998.00
1073.191, 18066.00
1074.291, 17933.00
1075.392, 17984.00
1076.493, 17898.00
1077.593, 17951.00
1078.693, 18060.00
1079.793, 18256.00
1080.893, 18355.00
1081.993, 18513.00
1083.092, 18527.00
1084.192, 18557.00
1085.291, 18368.00
1086.390, 18357.00
1087.489, 18270.00
1088.588, 18198.13
1089.686, 18064.00
1090.785, 18083.00
1091.883, 18118.00
1092.981, 18028.00
1094.079, 18060.00
1095.177, 17819.00
1096.275, 17863.00
1097.373, 17796.00
1098.470, 17850.00
1099.567, 17900.00
1100.664, 17923.00
1101.761, 17821.00
1102.858, 17763.00
1103.954, 17820.00
1105.051, 17651.00
1106.147, 17856.00
1107.243, 17857.00
1108.339, 17754.00
1109.435, 17865.00
1110.531, 17818.00
1111.626, 17916.00
1112.722, 17854.00
1113.817, 17976.00
1114.912, 17912.00
1116.007, 17905.00
1117.101, 18062.00
1118.196, 18139.00
1119.290, 18248.00
1120.385, 18180.00
1121.479, 18240.00
1122.573, 18255.00
1123.666, 18282.00
1124.760, 18232.84
1125.853, 18094.00
1126.947, 18056.00
1128.040, 17936.00
1129.133, 17755.00
1130.226, 17822.00
1131.318, 17756.00
1132.411, 17684.00
1133.503, 17867.00
1134.596, 17807.00
1135.688, 17753.00
1136.780, 17693.00
1137.871, 17756.00
1138.963, 17604.00
1140.054, 17735.00
1141.146, 17547.00
1142.237, 17626.00
1143.328, 17673.00
1144.419, 17582.00
1145.509, 17599.00
1146.600, 17501.00
1147.690, 17576.00
1148.780, 17634.00
1149.870, 17541.00
1150.960, 17605.00
1152.050, 17765.00
1153.139, 17516.00
1154.229, 17537.00
1155.318, 17679.00
1156.407, 17693.00
1157.496, 17586.00
1158.585, 17729.00
1159.674, 17469.00
1160.762, 17672.00
1161.850, 17610.00
1162.939, 17687.00
1164.027, 17636.00
1165.114, 17597.00
1166.202, 17730.00
1167.290, 17622.00
1168.377, 17640.00
1169.464, 17822.00
1170.551, 17573.00
1171.638, 17704.00
1172.725, 17698.00
1173.812, 17813.00
1174.898, 17696.00
1175.984, 17721.00
1177.071, 17576.00
1178.157, 17754.00
1179.242, 17999.00
1180.328, 18276.00
1181.414, 17860.00
1182.499, 17550.00
1183.584, 17748.00
1184.669, 17777.00
1185.754, 17550.00
1186.839, 17662.00
1187.924, 17788.00
1189.008, 17687.00
1190.092, 17699.00
1191.177, 17712.00
1192.260, 17664.05
1193.344, 17823.00
1194.428, 17713.00
1195.512, 17681.00
1196.595, 17884.00
1197.678, 17868.00
1198.761, 17704.00
1199.844, 17723.00
1200.927, 17823.00
1202.009, 17806.00
1203.092, 17752.00
1204.174, 17978.00
1205.256, 17895.00
1206.338, 17980.60
1207.420, 17858.00
1208.502, 18018.00
1209.583, 17955.00
1210.665, 17844.00
1211.746, 17937.00
1212.827, 17923.00
1213.908, 17846.00
1214.988, 17865.00
1216.069, 18057.00
1217.149, 18078.00
1218.230, 17913.00
1219.310, 18116.00
1220.390, 17960.00
1221.470, 18061.00
1222.549, 18047.00
1223.629, 17947.00
1224.708, 18078.00
1225.787, 18064.00
1226.866, 18020.00
1227.945, 18028.00
1229.024, 18016.56
1230.103, 17897.00
1231.181, 18012.00
1232.259, 18006.00
1233.337, 17985.00
1234.415, 18151.00
1235.493, 18079.00
1236.571, 18098.00
1237.648, 18165.00
1238.726, 18092.00
1239.803, 18140.00
1240.880, 18297.00
1241.957, 18136.00
1243.034, 18304.00
1244.110, 18300.00
1245.187, 18214.00
1246.263, 18286.00
1247.339, 18296.00
1248.415, 18334.00
1249.491, 18423.00
1250.566, 18399.86
1251.642, 18391.77
1252.717, 18382.00
1253.793, 18317.00
1254.868, 18276.00
1255.943, 18271.00
1257.017, 18151.00
1258.092, 18201.00
1259.166, 18362.00
1260.241, 18339.00
1261.315, 18505.00
1262.389, 18452.00
1263.462, 18399.00
1264.536, 18418.00
1265.610, 18376.00
1266.683, 18468.00
1267.756, 18293.00
1268.829, 18333.00
1269.902, 18604.00
1270.975, 18183.00
1272.048, 18491.00
1273.120, 18454.00
1274.192, 18540.00
1275.264, 18643.00
1276.336, 18488.00
1277.408, 18553.00
1278.480, 18537.00
1279.551, 18528.00
1280.623, 18586.00
1281.694, 18613.00
1282.765, 18686.00
1283.836, 18513.00
1284.907, 18763.00
1285.977, 18608.00
1287.048, 18452.00
1288.118, 18538.00
1289.188, 18671.00
1290.258, 18604.00
1291.328, 18604.00
1292.398, 18728.00
1293.467, 18584.00
1294.537, 18588.00
1295.606, 18731.00
1296.675, 18640.00
1297.744, 18834.00
1298.813, 18805.00
1299.882, 18607.00
1300.950, 18418.00
1302.018, 18805.00
1303.086, 18707.00
1304.155, 18663.00
1305.222, 18587.00
1306.290, 18705.00
1307.358, 18754.00
1308.425, 18583.00
1309.492, 18676.00
1310.559, 18949.00
1311.626, 18718.00
1312.693, 18747.00
1313.760, 18933.00
1314.826, 18871.00
1315.893, 18875.00
1316.959, 18913.00
1318.025, 18930.00
1319.091, 18920.15
1320.157, 18997.00
1321.222, 18886.00
1322.288, 18878.00
1323.353, 18841.00
1324.418, 18912.00
1325.483, 18904.33
1326.548, 18944.77
1327.612, 18966.00
1328.677, 19004.00
1329.741, 19055.00
1330.806, 19026.00
1331.870, 19057.00
1332.934, 18999.00
1333.997, 19041.71
1335.061, 18999.25
1336.124, 19011.24
1337.188, 18970.00
1338.251, 19025.00
1339.314, 19096.00
1340.377, 19094.00
1341.439, 19138.37
1342.502, 19197.00
1343.564, 19185.00
1344.627, 19217.90
1345.689, 19150.00
1346.751, 19230.00
1347.813, 19149.00
1348.874, 19138.00
1349.936, 19178.00
1350.997, 19219.00
1352.058, 19099.00
1353.119, 19312.00
1354.180, 19307.00
1355.241, 19149.00
1356.301, 19094.00
1357.362, 19184.00
1358.422, 19234.00
1359.482, 19145.00
1360.542, 19292.00
1361.602, 19458.00
1362.662, 19380.00
1363.721, 19223.00
1364.781, 19320.00
1365.840, 19167.00
1366.899, 19361.00
1367.958, 19341.00
1369.017, 19439.00
1370.075, 19323.00
1371.134, 19505.00
1372.192, 19359.00
1373.250, 19261.00
1374.308, 19296.00
1375.366, 19447.00
1376.424, 19406.00
1377.481, 19425.00
1378.539, 19518.00
1379.596, 19457.00
1380.653, 19304.00
1381.710, 19457.00
1382.767, 19375.00
1383.824, 19362.00
1384.880, 19508.00
1385.937, 19327.00
1386.993, 19402.00
1388.049, 19515.00
1389.105, 19603.00
1390.161, 19595.93
1391.216, 19579.00
1392.272, 19550.00
1393.327, 19527.00
1394.382, 19486.00
1395.437, 19582.00
1396.492, 19572.00
1397.547, 19535.00
1398.601, 19456.00
1399.656, 19655.00
1400.710, 19435.00
1401.764, 19649.00
1402.818, 19611.00
1403.872, 19625.00
1404.925, 19653.00
1405.979, 19614.00
1407.032, 19618.54
1408.085, 19600.82
1409.139, 19590.00
1410.191, 19606.00
1411.244, 19613.00
1412.297, 19720.00
1413.349, 19666.00
1414.402, 19736.00
1415.454, 19750.00
1416.506, 19661.00
1417.558, 19518.00
1418.609, 19569.00
1419.661, 19681.00
1420.712, 19723.00
1421.764, 19577.00
1422.815, 19762.00
1423.866, 19759.00
1424.916, 19901.00
1425.967, 19887.00
1427.018, 19863.00
1428.068, 19803.00
1429.118, 19819.00
1430.168, 19705.00
1431.218, 19765.91
1432.268, 20006.00
1433.318, 19816.00
1434.367, 19829.00
1435.416, 19771.00
1436.465, 20081.00
1437.514, 19746.00
1438.563, 19879.00
1439.612, 20021.00
1440.661, 19925.00
1441.709, 19941.00
1442.757, 19857.00
1443.805, 19789.00
1444.853, 19903.00
1445.901, 19905.00
1446.949, 19927.00
1447.996, 19877.00
1449.044, 20024.00
1450.091, 20032.00
1451.138, 19980.00
1452.185, 19946.00
1453.232, 19989.00
1454.278, 20047.00
1455.325, 20130.00
1456.371, 20133.32
1457.417, 20040.00
1458.463, 20174.00
1459.509, 20033.00
1460.555, 20082.00
1461.601, 20214.00
1462.646, 20075.00
1463.691, 20037.00
1464.737, 20303.00
1465.782, 19922.00
1466.826, 20107.00
1467.871, 20116.00
1468.916, 20140.00
1469.960, 20282.00
1471.004, 20082.00
1472.048, 20251.00
1473.092, 20245.00
1474.136, 20134.00
1475.180, 20125.00
1476.223, 19997.00
1477.267, 20083.00
1478.310, 20051.12
1479.353, 20191.00
1480.396, 20145.00
1481.439, 20128.00
1482.481, 20288.00
1483.524, 20025.00
1484.566, 20295.00
1485.608, 20216.00
1486.650, 20356.00
1487.692, 20172.00
1488.734, 20122.00
1489.775, 20308.00
1490.817, 20399.00
1491.858, 20143.00
1492.899, 20280.00
1493.940, 20256.00
1494.981, 20300.00
1496.022, 20340.08
1497.062, 20454.00
1498.103, 20392.00
1499.143, 20331.00
1500.183, 20377.00
1501.223, 20307.00
1502.263, 20347.00
1503.302, 20202.00
1504.342, 20439.00
1505.381, 20396.00
1506.420, 20366.00
1507.459, 20516.00
1508.498, 20396.00
1509.537, 20581.00
1510.576, 20500.00
1511.614, 20465.00
1512.652, 20372.00
1513.691, 20351.00
1514.729, 20426.00
1515.767, 20536.00
1516.804, 20495.00
1517.842, 20434.00
1518.879, 20356.00
1519.917, 20372.53
1520.954, 20368.95
1521.991, 20462.00
1523.028, 20440.00
1524.064, 20458.87
1525.101, 20499.23
1526.137, 20489.00
1527.173, 20508.00
1528.210, 20593.00
1529.245, 20514.00
1530.281, 20707.00
1531.317, 20409.00
1532.352, 20756.00
1533.388, 20623.00
1534.423, 20649.00
1535.458, 20563.00
1536.493, 20634.00
1537.528, 20642.00
1538.562, 20713.00
1539.597, 20683.00
1540.631, 20736.00
1541.665, 20932.00
1542.700, 20696.00
1543.733, 20591.00
1544.767, 20734.00
1545.801, 20730.00
1546.834, 20796.00
1547.868, 20638.00
1548.901, 20880.00
1549.934, 20750.00
1550.967, 20715.00
1551.999, 20910.00
1553.032, 20782.00
1554.064, 20836.00
1555.097, 20969.00
1556.129, 20816.67
1557.161, 20841.00
1558.193, 20675.00
1559.224, 20883.00
1560.256, 20913.00
1561.287, 20756.00
1562.318, 20927.00
1563.350, 21061.00
1564.380, 20647.00
1565.411, 20910.00
1566.442, 21121.00
1567.472, 20870.00
1568.503, 20876.00
1569.533, 20855.00
1570.563, 21072.00
##END=



