##NAMES=Kanoite
##RRUFFID=R061134
##IDEAL CHEMISTRY=Mn^2+^MgSi_2_O_6_
##LOCALITY=Balmat, St. Lawrence County, New York, USA
##OWNER=RRUFF
##SOURCE=Michael Scott
##DESCRIPTION=Yellowish brown granular aggregate
##STATUS=The identification of this mineral has been confirmed by X-ray diffraction and chemical analysis
##URL=rruff.info/R061134
##MEASURED CHEMISTRY=(Mn^2+^_0.88_Ca_0.12_)_Σ=1_(Mg_0.98_Fe^3+^_0.02_)_Σ=1_(Si_0.98_Al_0.02_)_2_O_6_
##PIN_ID=M00188
##ORIENTATION=Laser parallel to b* (0 1 0). Fiducial mark perpendicular to laser is parallel to c [0 0 1]
97.86200, 4119.000
99.10300, 4236.000
100.3440, 4487.000
101.5850, 4632.000
102.8250, 4895.000
104.0650, 5021.000
105.3050, 5328.000
106.5450, 5638.000
107.7850, 5894.000
109.0250, 5868.000
110.2640, 5888.000
111.5030, 5859.000
112.7420, 5879.000
113.9810, 5742.000
115.2200, 5617.000
116.4580, 5495.000
117.6970, 5191.000
118.9350, 4945.000
120.1730, 4751.000
121.4100, 4732.000
122.6480, 4636.000
123.8850, 4685.000
125.1230, 4644.000
126.3600, 4801.000
127.5960, 4781.000
128.8330, 4944.000
130.0700, 4924.000
131.3060, 5047.000
132.5420, 4957.000
133.7780, 4881.000
135.0140, 4816.000
136.2500, 4735.000
137.4850, 4653.000
138.7200, 4587.000
139.9550, 4532.712
141.1900, 4505.003
142.4250, 4453.000
143.6600, 4479.000
144.8940, 4468.000
146.1280, 4456.000
147.3620, 4478.267
148.5960, 4468.810
149.8300, 4492.000
151.0630, 4467.000
152.2960, 4441.000
153.5300, 4420.000
154.7620, 4442.000
155.9950, 4390.000
157.2280, 4314.000
158.4600, 4359.000
159.6920, 4205.000
160.9250, 4233.000
162.1560, 4243.000
163.3880, 4203.000
164.6200, 4157.000
165.8510, 4196.000
167.0820, 4206.000
168.3130, 4200.000
169.5440, 4230.000
170.7750, 4222.348
172.0050, 4255.000
173.2350, 4221.000
174.4650, 4258.000
175.6950, 4257.000
176.9250, 4257.000
178.1550, 4301.000
179.3840, 4397.000
180.6130, 4349.000
181.8420, 4515.000
183.0710, 4528.000
184.3000, 4653.000
185.5280, 4798.000
186.7570, 4864.000
187.9850, 5029.000
189.2130, 5066.000
190.4400, 5187.000
191.6680, 5047.000
192.8960, 5160.000
194.1230, 4900.000
195.3500, 4967.000
196.5770, 4863.000
197.8030, 4670.000
199.0300, 4559.000
200.2560, 4584.000
201.4830, 4641.000
202.7090, 4562.000
203.9340, 4549.000
205.1600, 4575.000
206.3860, 4655.000
207.6110, 4597.000
208.8360, 4713.000
210.0610, 4745.000
211.2860, 4912.000
212.5100, 4890.000
213.7350, 5018.000
214.9590, 4968.000
216.1830, 4927.000
217.4070, 4959.000
218.6310, 5003.000
219.8540, 4953.000
221.0780, 4904.000
222.3010, 4872.000
223.5240, 4861.000
224.7470, 4852.000
225.9690, 4868.000
227.1920, 4814.000
228.4140, 4718.000
229.6360, 4726.000
230.8580, 4769.000
232.0800, 4809.000
233.3020, 4705.000
234.5230, 4633.000
235.7440, 4697.000
236.9650, 4677.000
238.1860, 4661.000
239.4070, 4752.000
240.6280, 4640.000
241.8480, 4686.000
243.0680, 4693.000
244.2880, 4775.000
245.5080, 4794.000
246.7280, 4801.000
247.9470, 4765.000
249.1660, 4835.000
250.3860, 4726.000
251.6040, 4735.000
252.8230, 4766.000
254.0420, 4640.000
255.2600, 4609.000
256.4790, 4575.000
257.6970, 4613.000
258.9150, 4626.000
260.1320, 4612.000
261.3500, 4611.579
262.5670, 4590.512
263.7840, 4573.000
265.0010, 4533.000
266.2180, 4517.000
267.4350, 4477.000
268.6510, 4578.000
269.8680, 4559.000
271.0840, 4554.000
272.3000, 4545.000
273.5160, 4544.000
274.7310, 4554.000
275.9470, 4616.000
277.1620, 4632.000
278.3770, 4654.000
279.5920, 4683.305
280.8070, 4659.000
282.0210, 4715.000
283.2360, 4660.000
284.4500, 4661.000
285.6640, 4690.000
286.8780, 4733.000
288.0920, 4748.000
289.3050, 4745.000
290.5180, 4782.000
291.7320, 4810.947
292.9450, 4857.000
294.1570, 4907.000
295.3700, 4964.000
296.5830, 5040.000
297.7950, 5088.000
299.0070, 5146.104
300.2190, 5198.000
301.4310, 5259.000
302.6420, 5331.000
303.8540, 5409.000
305.0650, 5437.000
306.2760, 5540.134
307.4870, 5548.000
308.6980, 5714.000
309.9080, 5785.000
311.1190, 5858.000
312.3290, 6067.000
313.5390, 6127.000
314.7490, 6434.000
315.9580, 6602.000
317.1680, 6780.000
318.3770, 6887.000
319.5860, 7041.000
320.7950, 7197.000
322.0040, 7189.000
323.2130, 7284.000
324.4210, 7269.000
325.6290, 7201.000
326.8380, 7104.000
328.0460, 6959.011
329.2530, 6813.000
330.4610, 6575.000
331.6680, 6404.000
332.8760, 6175.000
334.0830, 6110.000
335.2890, 5857.000
336.4960, 5836.000
337.7030, 5674.000
338.9090, 5671.000
340.1150, 5657.000
341.3210, 5542.000
342.5270, 5442.000
343.7330, 5518.000
344.9380, 5417.000
346.1440, 5425.000
347.3490, 5364.000
348.5540, 5392.000
349.7590, 5376.000
350.9630, 5442.000
352.1680, 5434.000
353.3720, 5492.000
354.5760, 5470.753
355.7800, 5371.000
356.9840, 5419.000
358.1870, 5378.000
359.3910, 5339.000
360.5940, 5427.000
361.7970, 5434.000
363.0000, 5459.000
364.2030, 5471.701
365.4050, 5446.000
366.6080, 5465.000
367.8100, 5471.000
369.0120, 5484.000
370.2140, 5507.000
371.4150, 5536.000
372.6170, 5525.000
373.8180, 5541.425
375.0190, 5614.000
376.2200, 5524.000
377.4210, 5594.000
378.6220, 5545.000
379.8220, 5656.000
381.0230, 5697.000
382.2230, 5907.000
383.4230, 6058.000
384.6220, 6119.000
385.8220, 6224.000
387.0220, 6402.000
388.2210, 6397.000
389.4200, 6528.000
390.6190, 6592.000
391.8180, 6589.000
393.0160, 6599.000
394.2150, 6375.000
395.4130, 6268.000
396.6110, 5993.000
397.8090, 5680.000
399.0060, 5708.000
400.2040, 5524.000
401.4010, 5514.000
402.5980, 5299.000
403.7950, 5370.000
404.9920, 5331.000
406.1890, 5251.000
407.3860, 5206.000
408.5820, 5271.000
409.7780, 5296.000
410.9740, 5216.000
412.1700, 5186.000
413.3650, 5212.000
414.5610, 5187.000
415.7560, 5179.000
416.9510, 5151.000
418.1460, 5256.000
419.3410, 5237.000
420.5360, 5250.000
421.7300, 5211.000
422.9240, 5261.000
424.1180, 5265.000
425.3120, 5326.000
426.5060, 5267.000
427.7000, 5244.000
428.8930, 5298.000
430.0860, 5259.000
431.2790, 5264.000
432.4720, 5376.000
433.6650, 5423.000
434.8580, 5413.000
436.0500, 5454.000
437.2420, 5412.000
438.4340, 5558.000
439.6260, 5678.000
440.8180, 5895.000
442.0090, 5962.000
443.2010, 6224.000
444.3920, 6510.000
445.5830, 6768.000
446.7740, 7298.000
447.9640, 7671.000
449.1550, 8111.000
450.3450, 8481.000
451.5350, 8814.000
452.7250, 8972.000
453.9150, 8868.000
455.1050, 8872.000
456.2940, 8897.000
457.4830, 9029.000
458.6720, 9329.000
459.8610, 9594.000
461.0500, 9883.000
462.2390, 9897.000
463.4270, 9484.000
464.6150, 8716.000
465.8040, 7941.000
466.9910, 6998.000
468.1790, 6585.000
469.3670, 6134.000
470.5540, 5965.000
471.7410, 5721.000
472.9280, 5648.000
474.1150, 5668.000
475.3020, 5576.000
476.4890, 5471.000
477.6750, 5430.000
478.8610, 5512.000
480.0470, 5486.000
481.2330, 5450.000
482.4190, 5501.000
483.6040, 5335.000
484.7900, 5371.000
485.9750, 5365.000
487.1600, 5344.000
488.3450, 5376.000
489.5290, 5340.000
490.7140, 5376.000
491.8980, 5326.000
493.0820, 5342.000
494.2660, 5354.000
495.4500, 5433.000
496.6340, 5428.000
497.8170, 5389.000
499.0010, 5415.000
500.1840, 5410.000
501.3670, 5484.000
502.5500, 5524.000
503.7320, 5467.000
504.9150, 5468.000
506.0970, 5473.000
507.2790, 5521.000
508.4610, 5502.000
509.6430, 5473.000
510.8250, 5594.000
512.0060, 5601.000
513.1870, 5533.000
514.3680, 5530.000
515.5490, 5583.000
516.7300, 5654.000
517.9110, 5684.000
519.0910, 5714.814
520.2710, 5707.000
521.4510, 5741.000
522.6310, 5719.000
523.8110, 5714.000
524.9910, 5707.510
526.1700, 5689.208
527.3490, 5672.000
528.5280, 5660.000
529.7070, 5639.000
530.8860, 5625.000
532.0650, 5683.000
533.2430, 5616.000
534.4210, 5663.000
535.5990, 5769.000
536.7770, 5657.000
537.9550, 5665.000
539.1320, 5694.000
540.3100, 5753.000
541.4870, 5671.000
542.6640, 5768.000
543.8410, 5741.000
545.0170, 5793.000
546.1940, 5765.000
547.3700, 5742.000
548.5470, 5729.000
549.7230, 5815.000
550.8980, 5847.000
552.0740, 5845.000
553.2500, 5899.000
554.4250, 5903.000
555.6000, 5898.000
556.7750, 5843.000
557.9500, 5799.000
559.1250, 5806.000
560.2990, 5860.000
561.4730, 5791.000
562.6480, 5806.000
563.8220, 5688.000
564.9950, 5739.000
566.1690, 5731.000
567.3430, 5764.000
568.5160, 5672.000
569.6890, 5678.000
570.8620, 5691.000
572.0350, 5729.000
573.2070, 5738.000
574.3800, 5683.000
575.5520, 5716.000
576.7240, 5715.000
577.8960, 5668.000
579.0680, 5715.000
580.2400, 5680.000
581.4110, 5602.000
582.5830, 5714.000
583.7540, 5847.000
584.9250, 5733.000
586.0950, 5807.000
587.2660, 5691.000
588.4370, 5739.000
589.6070, 5800.000
590.7770, 5735.000
591.9470, 5799.000
593.1170, 5798.000
594.2860, 5786.000
595.4560, 5868.000
596.6250, 5791.000
597.7940, 5763.000
598.9630, 5808.000
600.1320, 5818.000
601.3000, 5809.000
602.4690, 5955.000
603.6370, 5952.000
604.8050, 5996.000
605.9730, 6106.000
607.1410, 6117.000
608.3090, 6308.000
609.4760, 6382.000
610.6430, 6518.000
611.8100, 6745.000
612.9770, 7064.000
614.1440, 7446.000
615.3110, 7700.000
616.4770, 8019.000
617.6430, 8092.000
618.8090, 7964.000
619.9750, 7785.000
621.1410, 7486.000
622.3070, 7305.000
623.4720, 7152.000
624.6370, 7141.000
625.8020, 7249.000
626.9670, 7237.000
628.1320, 7455.000
629.2970, 7478.000
630.4610, 7516.000
631.6250, 7625.000
632.7890, 7502.000
633.9530, 7520.000
635.1170, 7414.000
636.2810, 7393.000
637.4440, 7481.000
638.6070, 7680.000
639.7700, 7822.000
640.9330, 8035.000
642.0960, 8547.000
643.2590, 8867.000
644.4210, 9455.000
645.5830, 9864.000
646.7450, 10251.00
647.9070, 10599.00
649.0690, 10675.00
650.2310, 10650.00
651.3920, 10686.00
652.5530, 10712.00
653.7140, 10844.00
654.8750, 11148.00
656.0360, 11390.00
657.1970, 11830.00
658.3570, 12239.00
659.5170, 12650.00
660.6770, 12930.00
661.8370, 13367.00
662.9970, 13812.00
664.1570, 14091.00
665.3160, 14269.00
666.4750, 14214.00
667.6340, 13919.00
668.7930, 13576.00
669.9520, 12862.00
671.1110, 12090.00
672.2690, 11294.00
673.4270, 10676.00
674.5850, 9944.000
675.7430, 9335.000
676.9010, 9026.000
678.0590, 8449.000
679.2160, 8153.000
680.3730, 7881.000
681.5300, 7564.000
682.6870, 7401.000
683.8440, 7209.000
685.0010, 7013.000
686.1570, 6987.000
687.3130, 6920.000
688.4690, 6874.000
689.6250, 6625.000
690.7810, 6742.000
691.9370, 6626.000
693.0920, 6556.000
694.2470, 6581.000
695.4020, 6442.000
696.5570, 6536.000
697.7120, 6513.000
698.8670, 6422.000
700.0210, 6467.000
701.1750, 6510.000
702.3290, 6422.000
703.4830, 6428.000
704.6370, 6349.000
705.7910, 6411.000
706.9440, 6455.000
708.0970, 6424.000
709.2510, 6376.000
710.4030, 6413.000
711.5560, 6438.000
712.7090, 6335.000
713.8610, 6371.000
715.0140, 6333.000
716.1660, 6395.000
717.3180, 6400.000
718.4690, 6328.000
719.6210, 6482.000
720.7730, 6415.000
721.9240, 6432.000
723.0750, 6402.000
724.2260, 6450.000
725.3770, 6442.000
726.5270, 6378.000
727.6780, 6489.000
728.8280, 6414.000
729.9780, 6348.000
731.1280, 6339.000
732.2780, 6448.000
733.4280, 6388.000
734.5770, 6381.000
735.7260, 6355.000
736.8760, 6369.000
738.0250, 6301.000
739.1730, 6371.000
740.3220, 6277.000
741.4700, 6462.000
742.6190, 6328.000
743.7670, 6381.000
744.9150, 6408.000
746.0630, 6439.000
747.2100, 6384.000
748.3580, 6471.000
749.5050, 6387.000
750.6520, 6393.000
751.7990, 6494.000
752.9460, 6390.000
754.0930, 6394.000
755.2390, 6386.000
756.3860, 6348.000
757.5320, 6405.000
758.6780, 6466.000
759.8240, 6507.000
760.9690, 6477.000
762.1150, 6469.000
763.2600, 6423.000
764.4060, 6468.000
765.5510, 6562.000
766.6950, 6411.000
767.8400, 6514.000
768.9850, 6404.000
770.1290, 6504.000
771.2730, 6550.000
772.4170, 6507.000
773.5610, 6454.000
774.7050, 6503.000
775.8480, 6500.000
776.9920, 6578.000
778.1350, 6619.000
779.2780, 6628.688
780.4210, 6653.309
781.5640, 6662.000
782.7060, 6611.000
783.8490, 6632.000
784.9910, 6528.000
786.1330, 6529.000
787.2750, 6517.000
788.4170, 6493.880
789.5580, 6515.486
790.7000, 6519.000
791.8410, 6557.000
792.9820, 6609.000
794.1230, 6647.000
795.2640, 6652.000
796.4040, 6602.000
797.5450, 6705.000
798.6850, 6627.000
799.8250, 6599.000
800.9650, 6607.000
802.1050, 6689.000
803.2450, 6654.000
804.3840, 6630.000
805.5230, 6779.000
806.6630, 6665.000
807.8020, 6739.000
808.9400, 6800.000
810.0790, 6680.000
811.2170, 6665.000
812.3560, 6722.000
813.4940, 6806.000
814.6320, 6813.950
815.7700, 6733.000
816.9070, 6831.000
818.0450, 6855.000
819.1820, 6746.000
820.3190, 6832.000
821.4560, 6723.000
822.5930, 6838.000
823.7300, 6696.000
824.8670, 6764.000
826.0030, 6775.000
827.1390, 6851.000
828.2750, 6816.000
829.4110, 6769.000
830.5470, 6809.000
831.6820, 6922.000
832.8180, 6853.000
833.9530, 6890.000
835.0880, 6825.000
836.2230, 6913.000
837.3580, 6923.000
838.4920, 6890.000
839.6270, 6886.000
840.7610, 6819.000
841.8950, 6863.000
843.0290, 6833.000
844.1630, 6964.000
845.2960, 6834.000
846.4300, 6881.000
847.5630, 7002.000
848.6960, 6890.000
849.8290, 7000.000
850.9620, 6900.000
852.0940, 6886.000
853.2270, 6981.000
854.3590, 7027.000
855.4910, 6945.000
856.6230, 7083.000
857.7550, 7046.000
858.8870, 7065.000
860.0180, 7116.000
861.1500, 6989.000
862.2810, 7003.000
863.4120, 7091.000
864.5430, 6965.000
865.6730, 7120.000
866.8040, 7170.000
867.9340, 7184.000
869.0640, 7121.000
870.1940, 7189.000
871.3240, 7250.000
872.4540, 7228.000
873.5830, 7083.000
874.7130, 7197.000
875.8420, 7227.000
876.9710, 7175.000
878.1000, 7317.000
879.2290, 7350.000
880.3570, 7237.000
881.4860, 7299.000
882.6140, 7386.000
883.7420, 7215.000
884.8700, 7481.000
885.9980, 7477.000
887.1250, 7412.000
888.2530, 7410.000
889.3800, 7516.000
890.5070, 7449.000
891.6340, 7534.000
892.7610, 7577.000
893.8880, 7602.000
895.0140, 7626.000
896.1400, 7516.000
897.2670, 7483.000
898.3930, 7528.000
899.5180, 7553.000
900.6440, 7551.000
901.7700, 7561.796
902.8950, 7567.354
904.0200, 7527.000
905.1450, 7580.000
906.2700, 7526.000
907.3950, 7545.000
908.5190, 7514.000
909.6440, 7546.000
910.7680, 7493.000
911.8920, 7523.000
913.0160, 7527.771
914.1400, 7577.000
915.2630, 7557.000
916.3870, 7616.000
917.5100, 7635.000
918.6330, 7782.000
919.7560, 7769.000
920.8790, 7770.000
922.0010, 7738.000
923.1240, 7787.000
924.2460, 7806.788
925.3680, 7824.762
926.4900, 7897.000
927.6120, 7869.000
928.7340, 7907.000
929.8550, 7895.000
930.9760, 7907.000
932.0980, 7913.082
933.2190, 7810.000
934.3390, 7946.000
935.4600, 7906.000
936.5810, 7987.000
937.7010, 7904.000
938.8210, 8039.000
939.9410, 7964.000
941.0610, 7976.000
942.1810, 8022.000
943.3010, 7887.000
944.4200, 7937.000
945.5390, 7884.000
946.6580, 7845.000
947.7770, 7855.000
948.8960, 7843.364
950.0150, 7845.416
951.1330, 7894.000
952.2510, 7872.000
953.3690, 7940.000
954.4870, 7975.000
955.6050, 7816.000
956.7230, 7915.000
957.8400, 7984.000
958.9580, 7851.000
960.0750, 7943.000
961.1920, 7991.000
962.3090, 8080.000
963.4250, 8154.000
964.5420, 8136.000
965.6580, 8252.769
966.7740, 8299.295
967.8900, 8430.000
969.0060, 8465.000
970.1220, 8573.000
971.2380, 8697.070
972.3530, 8771.000
973.4680, 9060.000
974.5830, 9283.000
975.6980, 9515.000
976.8130, 10001.00
977.9280, 10565.00
979.0420, 11657.00
980.1560, 13584.00
981.2710, 16252.00
982.3850, 20054.00
983.4980, 25054.00
984.6120, 33146.00
985.7260, 45827.00
986.8390, 58174.00
987.9520, 64478.00
989.0650, 60892.00
990.1780, 49269.00
991.2910, 34884.00
992.4030, 25079.00
993.5160, 20660.00
994.6280, 18745.00
995.7400, 18353.00
996.8520, 18662.00
997.9640, 18912.00
999.0750, 19247.00
1000.187, 19339.00
1001.298, 19085.00
1002.409, 19059.00
1003.520, 18350.00
1004.631, 17528.00
1005.741, 16853.00
1006.852, 15829.00
1007.962, 15126.00
1009.072, 14355.00
1010.182, 13538.00
1011.292, 12976.00
1012.402, 12210.00
1013.511, 11881.00
1014.621, 11451.00
1015.730, 11003.00
1016.839, 10636.00
1017.948, 10300.00
1019.056, 10177.00
1020.165, 9997.000
1021.273, 9776.000
1022.382, 9543.000
1023.490, 9293.000
1024.598, 9275.000
1025.706, 9194.000
1026.813, 9036.000
1027.921, 9013.000
1029.028, 8856.000
1030.135, 8836.000
1031.242, 8666.000
1032.349, 8781.000
1033.456, 8528.000
1034.562, 8617.000
1035.668, 8668.000
1036.775, 8584.000
1037.881, 8539.000
1038.987, 8484.000
1040.092, 8571.000
1041.198, 8366.000
1042.303, 8480.000
1043.408, 8311.000
1044.514, 8580.000
1045.618, 8452.000
1046.723, 8423.000
1047.828, 8525.000
1048.932, 8403.000
1050.037, 8337.000
1051.141, 8366.000
1052.245, 8392.000
1053.349, 8430.000
1054.452, 8354.000
1055.556, 8315.000
1056.659, 8325.000
1057.762, 8235.000
1058.865, 8250.998
1059.968, 8348.000
1061.071, 8259.000
1062.174, 8292.000
1063.276, 8333.000
1064.378, 8318.000
1065.480, 8350.929
1066.582, 8278.000
1067.684, 8359.000
1068.786, 8302.000
1069.887, 8258.000
1070.988, 8436.000
1072.090, 8467.000
1073.191, 8446.000
1074.291, 8379.000
1075.392, 8473.000
1076.493, 8433.000
1077.593, 8433.000
1078.693, 8481.000
1079.793, 8575.000
1080.893, 8636.000
1081.993, 8589.000
1083.092, 8586.000
1084.192, 8691.000
1085.291, 8529.000
1086.390, 8476.000
1087.489, 8421.000
1088.588, 8524.000
1089.686, 8544.000
1090.785, 8484.000
1091.883, 8461.000
1092.981, 8595.000
1094.079, 8647.000
1095.177, 8647.000
1096.275, 8723.000
1097.373, 8773.000
1098.470, 8801.000
1099.567, 8926.000
1100.664, 9006.000
1101.761, 9095.000
1102.858, 9139.000
1103.954, 8944.000
1105.051, 9041.000
1106.147, 8953.000
1107.243, 8875.000
1108.339, 8816.000
1109.435, 8719.000
1110.531, 8670.000
1111.626, 8679.000
1112.722, 8664.000
1113.817, 8536.000
1114.912, 8691.000
1116.007, 8794.000
1117.101, 8735.000
1118.196, 8750.000
1119.290, 8809.000
1120.385, 8827.000
1121.479, 8889.000
1122.573, 8902.000
1123.666, 8986.000
1124.760, 8988.000
1125.853, 9073.000
1126.947, 9092.000
1128.040, 9139.000
1129.133, 9269.000
1130.226, 9497.000
1131.318, 9593.000
1132.411, 10036.00
1133.503, 10546.00
1134.596, 10902.00
1135.688, 11361.00
1136.780, 12044.00
1137.871, 12497.00
1138.963, 12747.00
1140.054, 12814.00
1141.146, 12733.00
1142.237, 12666.00
1143.328, 12484.94
1144.419, 12237.08
1145.509, 11948.00
1146.600, 11586.00
1147.690, 11176.00
1148.780, 10768.00
1149.870, 10408.00
1150.960, 10084.00
1152.050, 9893.000
1153.139, 9615.000
1154.229, 9645.000
1155.318, 9364.000
1156.407, 9503.000
1157.496, 9424.000
1158.585, 9466.000
1159.674, 9512.000
1160.762, 9512.000
1161.850, 9636.000
1162.939, 9942.000
1164.027, 10165.00
1165.114, 10349.00
1166.202, 10419.00
1167.290, 10501.00
1168.377, 10430.00
1169.464, 10146.00
1170.551, 9987.000
1171.638, 9718.000
1172.725, 9535.000
1173.812, 9492.000
1174.898, 9351.000
1175.984, 9181.000
1177.071, 9091.000
1178.157, 9102.000
1179.242, 9029.000
1180.328, 8834.000
1181.414, 8953.000
1182.499, 8776.000
1183.584, 8905.000
1184.669, 8932.000
1185.754, 8911.000
1186.839, 8926.000
1187.924, 8877.489
1189.008, 8924.000
1190.092, 8770.000
1191.177, 8784.000
1192.260, 8740.000
1193.344, 8743.000
1194.428, 8745.000
1195.512, 8937.000
1196.595, 8743.000
1197.678, 8930.000
1198.761, 8850.000
1199.844, 8805.000
1200.927, 8827.000
1202.009, 8771.000
1203.092, 8888.000
1204.174, 8897.000
1205.256, 8925.000
1206.338, 8834.000
1207.420, 8852.000
1208.502, 8881.000
1209.583, 8866.000
1210.665, 8935.000
1211.746, 8876.000
1212.827, 8896.000
1213.908, 8931.000
1214.988, 8964.000
1216.069, 8923.000
1217.149, 8966.000
1218.230, 8912.000
1219.310, 8992.000
1220.390, 9004.000
1221.470, 8930.000
1222.549, 9041.000
1223.629, 9017.000
1224.708, 9014.000
1225.787, 8912.000
1226.866, 8973.000
1227.945, 9017.000
1229.024, 9012.000
1230.103, 9037.000
1231.181, 9026.000
1232.259, 9005.000
1233.337, 9008.000
1234.415, 9021.000
1235.493, 8996.000
1236.571, 9000.000
1237.648, 9103.000
1238.726, 9154.000
1239.803, 8977.000
1240.880, 9150.000
1241.957, 9008.000
1243.034, 8997.000
1244.110, 9111.000
1245.187, 9100.000
1246.263, 9082.000
1247.339, 9138.752
1248.415, 9146.256
1249.491, 9174.000
1250.566, 9185.000
1251.642, 9187.000
1252.717, 9132.000
1253.793, 9059.000
1254.868, 8979.000
1255.943, 9101.000
1257.017, 9149.000
1258.092, 9127.000
1259.166, 9158.000
1260.241, 9106.000
1261.315, 9183.000
1262.389, 9175.000
1263.462, 9197.000
1264.536, 9300.000
1265.610, 9178.000
1266.683, 9153.000
1267.756, 9048.000
1268.829, 9081.938
1269.902, 9147.000
1270.975, 9172.000
1272.048, 9182.000
1273.120, 9228.000
1274.192, 9256.000
1275.264, 9173.000
1276.336, 9193.000
1277.408, 9197.000
1278.480, 9306.000
1279.551, 9200.000
1280.623, 9245.000
1281.694, 9153.000
1282.765, 9301.000
1283.836, 9304.000
1284.907, 9301.000
1285.977, 9282.000
1287.048, 9261.000
1288.118, 9290.000
1289.188, 9405.000
1290.258, 9275.000
1291.328, 9353.000
1292.398, 9299.000
1293.467, 9308.000
1294.537, 9311.000
1295.606, 9345.000
1296.675, 9354.884
1297.744, 9429.000
1298.813, 9406.000
1299.882, 9410.000
1300.950, 9457.000
1302.018, 9296.000
1303.086, 9342.000
1304.155, 9310.000
1305.222, 9357.000
1306.290, 9259.000
1307.358, 9347.000
1308.425, 9399.000
1309.492, 9342.000
1310.559, 9444.000
1311.626, 9422.000
1312.693, 9382.000
1313.760, 9386.000
1314.826, 9362.000
1315.893, 9356.663
1316.959, 9398.000
1318.025, 9380.000
1319.091, 9424.000
1320.157, 9499.000
1321.222, 9544.000
1322.288, 9443.000
1323.353, 9524.000
1324.418, 9559.000
1325.483, 9387.000
1326.548, 9584.000
1327.612, 9595.000
1328.677, 9567.000
1329.741, 9572.000
1330.806, 9568.887
1331.870, 9507.000
1332.934, 9554.000
1333.997, 9531.000
1335.061, 9493.000
1336.124, 9512.000
1337.188, 9609.000
1338.251, 9597.000
1339.314, 9631.000
1340.377, 9549.000
1341.439, 9558.000
1342.502, 9630.000
1343.564, 9670.000
1344.627, 9607.000
1345.689, 9659.000
1346.751, 9651.000
1347.813, 9608.000
1348.874, 9621.000
1349.936, 9734.000
1350.997, 9749.000
1352.058, 9644.000
1353.119, 9714.000
1354.180, 9639.000
1355.241, 9658.000
1356.301, 9653.000
1357.362, 9472.000
1358.422, 9656.000
1359.482, 9580.000
1360.542, 9697.000
1361.602, 9721.000
1362.662, 9589.000
1363.721, 9621.000
1364.781, 9758.000
1365.840, 9808.000
1366.899, 9747.000
1367.958, 9667.000
1369.017, 9571.000
1370.075, 9671.000
1371.134, 9737.000
1372.192, 9779.000
1373.250, 9820.597
1374.308, 9901.000
1375.366, 9821.000
1376.424, 9748.000
1377.481, 9663.000
1378.539, 9820.000
1379.596, 9749.000
1380.653, 9786.000
1381.710, 9806.000
1382.767, 9865.000
1383.824, 9861.070
1384.880, 9679.000
1385.937, 9830.000
1386.993, 9806.000
1388.049, 9714.000
1389.105, 9908.000
1390.161, 9878.000
1391.216, 9768.000
1392.272, 9766.000
1393.327, 9890.000
1394.382, 9783.000
1395.437, 9880.000
1396.492, 9903.000
1397.547, 9809.000
1398.601, 9899.000
1399.656, 9980.000
1400.710, 9945.000
1401.764, 9899.000
1402.818, 9802.000
1403.872, 9800.000
1404.925, 9894.000
1405.979, 9924.000
1407.032, 9930.000
1408.085, 9990.000
1409.139, 9909.000
1410.191, 9934.000
1411.244, 9983.000
1412.297, 9927.000
1413.349, 10002.00
1414.402, 9960.000
1415.454, 9958.000
1416.506, 10021.00
1417.558, 9880.000
1418.609, 10136.00
1419.661, 9927.000
1420.712, 10054.00
1421.764, 10081.00
1422.815, 10084.00
1423.866, 10015.00
1424.916, 10027.00
1425.967, 10076.00
1427.018, 10047.00
1428.068, 10063.00
1429.118, 10081.00
1430.168, 10123.00
1431.218, 10077.00
1432.268, 9987.000
1433.318, 10180.00
1434.367, 10075.00
1435.416, 10131.00
1436.465, 10241.00
1437.514, 10158.00
1438.563, 10131.00
1439.612, 10233.00
1440.661, 10234.00
1441.709, 10170.00
1442.757, 10223.00
1443.805, 10188.00
1444.853, 10067.00
1445.901, 10209.00
1446.949, 10167.00
1447.996, 10307.00
1449.044, 10238.00
1450.091, 10326.00
1451.138, 10326.00
1452.185, 10372.00
1453.232, 10310.00
1454.278, 10258.00
1455.325, 10397.00
1456.371, 10338.00
1457.417, 10348.00
1458.463, 10304.00
1459.509, 10283.00
1460.555, 10293.00
1461.601, 10330.00
1462.646, 10327.85
1463.691, 10408.00
1464.737, 10364.00
1465.782, 10331.00
1466.826, 10351.00
1467.871, 10418.00
1468.916, 10437.00
1469.960, 10329.00
1471.004, 10181.00
1472.048, 10221.00
1473.092, 10256.00
1474.136, 10372.00
1475.180, 10479.00
1476.223, 10432.00
1477.267, 10465.00
1478.310, 10323.00
1479.353, 10341.00
1480.396, 10393.00
1481.439, 10382.00
1482.481, 10418.00
1483.524, 10425.00
1484.566, 10404.00
1485.608, 10341.00
1486.650, 10469.00
1487.692, 10463.00
1488.734, 10421.00
1489.775, 10518.00
1490.817, 10381.00
1491.858, 10401.00
1492.899, 10469.00
1493.940, 10486.00
1494.981, 10417.00
1496.022, 10386.00
1497.062, 10467.00
1498.103, 10562.00
1499.143, 10414.00
1500.183, 10487.00
1501.223, 10533.00
1502.263, 10500.00
1503.302, 10565.00
1504.342, 10538.00
1505.381, 10627.00
1506.420, 10516.00
1507.459, 10545.00
1508.498, 10685.00
1509.537, 10580.00
1510.576, 10574.00
1511.614, 10670.00
1512.652, 10565.00
1513.691, 10623.00
1514.729, 10598.00
1515.767, 10617.00
1516.804, 10598.00
1517.842, 10651.00
1518.879, 10716.00
1519.917, 10703.65
1520.954, 10742.41
1521.991, 10704.00
1523.028, 10731.00
1524.064, 10700.00
1525.101, 10620.00
1526.137, 10708.00
1527.173, 10592.00
1528.210, 10632.00
1529.245, 10626.00
1530.281, 10718.00
1531.317, 10720.00
1532.352, 10718.00
1533.388, 10671.00
1534.423, 10666.00
1535.458, 10747.00
1536.493, 10734.00
1537.528, 10812.00
1538.562, 10760.00
1539.597, 10800.15
1540.631, 10816.00
1541.665, 10852.00
1542.700, 10827.00
1543.733, 10885.00
1544.767, 10725.00
1545.801, 10777.00
1546.834, 10801.00
1547.868, 10721.00
1548.901, 10955.00
1549.934, 10873.00
1550.967, 10926.00
1551.999, 10899.00
1553.032, 10887.00
1554.064, 10869.00
1555.097, 10824.00
1556.129, 10924.00
1557.161, 10793.00
1558.193, 10923.00
1559.224, 10850.00
1560.256, 10987.00
1561.287, 10948.00
1562.318, 10765.00
1563.350, 10843.00
1564.380, 10790.00
1565.411, 10834.00
1566.442, 10938.00
1567.472, 10891.00
1568.503, 11034.00
1569.533, 10968.00
1570.563, 10855.00
##END=



