##NAMES=Kutnohorite
##RRUFFID=R060473
##IDEAL CHEMISTRY=CaMn^2+^(CO_3_)_2_
##LOCALITY=N'Chwaning II mine, Kalahari manganese field, northern Cape Province, Republic of South Africa
##OWNER=RRUFF
##SOURCE=Michael Scott
##DESCRIPTION=Aggregate of parallel pink colored acicular crystals
##STATUS=The identification of this mineral has been confirmed by X-ray diffraction and chemical analysis
##URL=rruff.info/R060473
##MEASURED CHEMISTRY=Ca_1.00_(Mn^2+^_0.63_Ca_0.35_Mg_0.02_)(CO_3_)_2_
##PIN_ID=L00557
##ORIENTATION=Laser parallel to -a* (-1 0 0). Fiducial mark perpendicular to laser is parallel to -c [0 0 -1]
101.0590, 14500.00
102.2900, 14626.00
103.5200, 14937.00
104.7500, 15483.00
105.9810, 15667.00
107.2110, 16197.00
108.4410, 16362.00
109.6700, 15438.00
110.9000, 15203.00
112.1300, 14948.00
113.3590, 14877.00
114.5880, 14747.00
115.8170, 14914.00
117.0460, 14604.00
118.2750, 14219.00
119.5040, 13815.00
120.7320, 13593.00
121.9610, 13550.00
123.1890, 13051.00
124.4170, 12814.00
125.6450, 12634.00
126.8730, 12825.00
128.1010, 12663.00
129.3280, 13092.00
130.5560, 13071.00
131.7830, 12859.00
133.0100, 12625.00
134.2380, 13049.00
135.4640, 12885.00
136.6910, 12778.00
137.9180, 13078.00
139.1440, 13095.00
140.3710, 13098.00
141.5970, 13079.00
142.8230, 12988.00
144.0490, 13441.00
145.2750, 13502.00
146.5000, 13471.00
147.7260, 13600.00
148.9510, 14156.00
150.1770, 14181.00
151.4020, 14417.00
152.6270, 14739.00
153.8520, 14960.00
155.0760, 15051.00
156.3010, 15363.00
157.5250, 15624.00
158.7500, 15677.00
159.9740, 15749.00
161.1980, 15682.00
162.4220, 15256.00
163.6450, 15231.00
164.8690, 14840.00
166.0920, 14823.00
167.3160, 14606.00
168.5390, 14443.00
169.7620, 14301.00
170.9850, 14123.00
172.2080, 13971.00
173.4300, 13711.00
174.6530, 13433.00
175.8750, 13278.00
177.0970, 12739.00
178.3190, 12463.00
179.5410, 12444.00
180.7630, 12127.00
181.9850, 11695.00
183.2060, 11489.00
184.4270, 11135.00
185.6490, 10978.00
186.8700, 11020.00
188.0910, 10608.00
189.3110, 10698.00
190.5320, 10609.00
191.7530, 10458.00
192.9730, 10215.00
194.1930, 10255.00
195.4130, 10334.00
196.6330, 10186.00
197.8530, 10028.00
199.0730, 9914.000
200.2920, 9945.000
201.5120, 9947.000
202.7310, 9750.000
203.9500, 9745.000
205.1690, 9581.000
206.3880, 9857.000
207.6070, 9801.000
208.8250, 9406.000
210.0440, 9521.000
211.2620, 9266.000
212.4800, 9437.000
213.6980, 9244.000
214.9160, 9125.000
216.1340, 9108.000
217.3510, 9237.000
218.5690, 8958.000
219.7860, 9078.000
221.0030, 9181.000
222.2200, 9225.000
223.4370, 8820.000
224.6540, 9001.000
225.8700, 8821.000
227.0870, 8891.000
228.3030, 8915.000
229.5190, 8849.000
230.7350, 8839.000
231.9510, 8936.000
233.1670, 8976.000
234.3820, 8922.000
235.5980, 8941.000
236.8130, 8972.000
238.0280, 9098.000
239.2430, 8982.000
240.4580, 9247.000
241.6730, 9173.000
242.8880, 9056.000
244.1020, 9014.000
245.3160, 9164.000
246.5300, 9119.000
247.7450, 9211.000
248.9580, 9301.000
250.1720, 9312.000
251.3860, 9421.000
252.5990, 9631.000
253.8130, 9875.000
255.0260, 10075.00
256.2390, 10194.00
257.4520, 10285.00
258.6640, 10618.00
259.8770, 11163.00
261.0890, 11324.00
262.3020, 11611.00
263.5140, 12034.00
264.7260, 12791.00
265.9380, 13436.00
267.1500, 13803.00
268.3610, 14355.00
269.5730, 15082.00
270.7840, 15914.00
271.9950, 16737.00
273.2060, 17550.00
274.4170, 18582.00
275.6280, 19535.00
276.8390, 20344.00
278.0490, 21336.00
279.2590, 21769.00
280.4690, 22087.00
281.6800, 22476.00
282.8890, 22870.00
284.0990, 22682.00
285.3090, 22375.00
286.5180, 21673.00
287.7280, 20957.00
288.9370, 20424.00
290.1460, 19792.00
291.3550, 18565.00
292.5630, 17403.00
293.7720, 16694.00
294.9800, 15732.00
296.1890, 14712.00
297.3970, 13900.00
298.6050, 13091.00
299.8130, 12476.00
301.0200, 11828.00
302.2280, 11313.00
303.4360, 10648.00
304.6430, 10398.00
305.8500, 10003.00
307.0570, 9523.000
308.2640, 9037.000
309.4710, 8790.000
310.6770, 8469.000
311.8840, 8334.000
313.0900, 8099.000
314.2960, 7781.000
315.5020, 7579.000
316.7080, 7492.000
317.9140, 7290.000
319.1190, 7196.000
320.3250, 7041.000
321.5300, 6966.000
322.7350, 7015.000
323.9400, 6937.000
325.1450, 6882.000
326.3500, 6640.000
327.5540, 6585.000
328.7580, 6565.000
329.9630, 6352.000
331.1670, 6375.000
332.3710, 6390.000
333.5750, 6302.000
334.7780, 6295.000
335.9820, 6147.000
337.1850, 6188.000
338.3880, 6013.000
339.5920, 6037.000
340.7950, 6007.000
341.9970, 5977.000
343.2000, 5949.000
344.4030, 5895.000
345.6050, 5853.000
346.8070, 5855.000
348.0090, 5951.000
349.2110, 5775.000
350.4130, 5692.000
351.6150, 5670.000
352.8160, 5683.000
354.0170, 5741.000
355.2190, 5786.000
356.4200, 5642.000
357.6210, 5557.000
358.8210, 5528.000
360.0220, 5469.000
361.2220, 5475.000
362.4230, 5421.000
363.6230, 5333.000
364.8230, 5349.000
366.0230, 5477.000
367.2230, 5312.000
368.4220, 5337.000
369.6220, 5257.000
370.8210, 5415.000
372.0200, 5311.000
373.2190, 5286.000
374.4180, 5213.000
375.6170, 5211.000
376.8150, 5284.000
378.0140, 5186.000
379.2120, 5181.000
380.4100, 5087.000
381.6080, 5113.000
382.8060, 5185.000
384.0040, 5208.000
385.2010, 5011.000
386.3980, 5028.000
387.5960, 5101.000
388.7930, 5014.000
389.9900, 4988.000
391.1870, 5025.000
392.3830, 5039.000
393.5800, 5054.000
394.7760, 4914.000
395.9720, 5011.000
397.1680, 4953.000
398.3640, 4866.000
399.5600, 5007.000
400.7560, 4948.000
401.9510, 4931.000
403.1460, 4928.000
404.3420, 4882.000
405.5370, 4876.000
406.7320, 4898.000
407.9260, 4856.000
409.1210, 4794.000
410.3150, 4891.000
411.5100, 4967.000
412.7040, 4879.000
413.8980, 4917.000
415.0920, 4885.000
416.2850, 4830.000
417.4790, 4835.000
418.6720, 4933.000
419.8650, 4842.000
421.0590, 4894.000
422.2510, 4894.000
423.4440, 4846.000
424.6370, 4713.000
425.8290, 4878.000
427.0220, 4848.000
428.2140, 4927.000
429.4060, 4830.000
430.5980, 4838.000
431.7900, 4716.000
432.9810, 4825.000
434.1730, 4800.000
435.3640, 4724.000
436.5550, 4739.000
437.7460, 4734.000
438.9370, 4686.000
440.1280, 4662.000
441.3190, 4636.000
442.5090, 4593.000
443.6990, 4511.000
444.8890, 4548.000
446.0790, 4597.000
447.2690, 4625.000
448.4590, 4604.000
449.6480, 4561.000
450.8380, 4538.000
452.0270, 4601.000
453.2160, 4533.000
454.4050, 4534.000
455.5940, 4537.000
456.7820, 4587.000
457.9710, 4511.000
459.1590, 4467.000
460.3470, 4535.000
461.5350, 4471.000
462.7230, 4533.000
463.9110, 4472.000
465.0990, 4359.000
466.2860, 4421.000
467.4730, 4344.000
468.6600, 4445.000
469.8470, 4440.000
471.0340, 4426.000
472.2210, 4447.000
473.4070, 4449.000
474.5940, 4390.000
475.7800, 4393.000
476.9660, 4392.000
478.1520, 4450.000
479.3380, 4357.000
480.5230, 4390.000
481.7090, 4266.000
482.8940, 4290.000
484.0790, 4343.000
485.2650, 4284.000
486.4490, 4256.000
487.6340, 4373.000
488.8190, 4387.000
490.0030, 4282.000
491.1870, 4296.000
492.3720, 4264.000
493.5550, 4346.000
494.7390, 4349.000
495.9230, 4263.000
497.1060, 4301.000
498.2900, 4303.000
499.4730, 4296.000
500.6560, 4316.000
501.8390, 4307.000
503.0220, 4350.000
504.2040, 4228.000
505.3870, 4301.000
506.5690, 4245.000
507.7510, 4269.000
508.9330, 4281.000
510.1150, 4203.000
511.2970, 4272.000
512.4780, 4168.000
513.6600, 4273.000
514.8410, 4223.000
516.0220, 4230.000
517.2030, 4252.000
518.3840, 4301.000
519.5650, 4316.000
520.7450, 4315.000
521.9250, 4198.000
523.1060, 4221.000
524.2860, 4261.000
525.4660, 4227.000
526.6450, 4283.000
527.8250, 4182.000
529.0040, 4210.000
530.1840, 4276.000
531.3630, 4235.000
532.5420, 4299.000
533.7200, 4295.000
534.8990, 4239.000
536.0780, 4224.000
537.2560, 4288.000
538.4340, 4227.000
539.6120, 4281.000
540.7900, 4278.000
541.9680, 4195.000
543.1460, 4195.000
544.3230, 4245.000
545.5000, 4205.000
546.6770, 4186.000
547.8540, 4232.000
549.0310, 4158.000
550.2080, 4290.000
551.3840, 4233.000
552.5610, 4304.000
553.7370, 4235.000
554.9130, 4324.000
556.0890, 4283.000
557.2650, 4207.000
558.4400, 4211.000
559.6160, 4174.000
560.7910, 4249.000
561.9660, 4364.000
563.1410, 4324.000
564.3160, 4326.000
565.4910, 4319.000
566.6650, 4274.000
567.8400, 4218.000
569.0140, 4237.000
570.1880, 4237.000
571.3620, 4115.000
572.5360, 4230.000
573.7090, 4117.000
574.8830, 4186.000
576.0560, 4187.000
577.2290, 4198.000
578.4020, 4156.000
579.5750, 4215.000
580.7480, 4197.000
581.9200, 4129.000
583.0930, 4096.000
584.2650, 4029.000
585.4370, 4108.000
586.6090, 3977.000
587.7810, 3997.000
588.9520, 4082.000
590.1240, 4057.000
591.2950, 4036.000
592.4660, 3990.000
593.6370, 4056.000
594.8080, 4070.000
595.9790, 4007.000
597.1500, 4077.000
598.3200, 4014.000
599.4900, 4059.000
600.6600, 4069.000
601.8300, 4117.000
603.0000, 3969.000
604.1700, 4019.000
605.3390, 4032.000
606.5080, 4086.000
607.6770, 4127.000
608.8460, 4031.000
610.0150, 3987.000
611.1840, 4090.000
612.3520, 4115.000
613.5210, 4024.000
614.6890, 4026.000
615.8570, 4062.000
617.0250, 4086.000
618.1930, 4057.000
619.3600, 4065.000
620.5280, 4047.000
621.6950, 4127.000
622.8620, 4052.000
624.0290, 4054.000
625.1960, 4080.000
626.3630, 4089.000
627.5290, 4077.000
628.6960, 4095.000
629.8620, 4070.000
631.0280, 4106.000
632.1940, 4062.000
633.3600, 4054.000
634.5250, 4028.000
635.6910, 4191.000
636.8560, 4093.000
638.0210, 3982.000
639.1860, 4073.000
640.3510, 4044.000
641.5150, 4022.000
642.6800, 4053.000
643.8440, 4050.000
645.0080, 4098.000
646.1720, 4038.000
647.3360, 4035.000
648.5000, 4070.000
649.6640, 4123.000
650.8270, 4000.000
651.9900, 4069.000
653.1530, 4032.000
654.3160, 4033.000
655.4790, 4029.000
656.6420, 4115.000
657.8040, 4027.000
658.9660, 4089.000
660.1290, 4106.000
661.2910, 4051.000
662.4520, 4125.000
663.6140, 4072.000
664.7760, 4029.000
665.9370, 4138.000
667.0980, 4115.000
668.2590, 4142.000
669.4200, 4098.000
670.5810, 4114.000
671.7420, 4108.000
672.9020, 4068.000
674.0620, 4067.000
675.2220, 4090.000
676.3820, 4164.000
677.5420, 4081.000
678.7020, 4137.000
679.8610, 4157.000
681.0210, 4185.000
682.1800, 4214.000
683.3390, 4103.000
684.4980, 4144.000
685.6560, 4257.000
686.8150, 4103.000
687.9730, 4256.000
689.1320, 4251.000
690.2900, 4216.000
691.4480, 4294.000
692.6050, 4354.000
693.7630, 4320.000
694.9200, 4349.000
696.0780, 4484.000
697.2350, 4442.000
698.3920, 4765.000
699.5490, 4918.000
700.7050, 5064.000
701.8620, 5402.000
703.0180, 5622.000
704.1740, 6220.000
705.3300, 6606.000
706.4860, 7263.000
707.6420, 7722.000
708.7970, 8374.000
709.9530, 9043.000
711.1080, 9569.000
712.2630, 10001.00
713.4180, 10419.00
714.5730, 10305.00
715.7280, 10034.00
716.8820, 9350.000
718.0360, 8831.000
719.1900, 8086.000
720.3440, 7509.000
721.4980, 6774.000
722.6520, 6265.000
723.8050, 5890.000
724.9590, 5547.000
726.1120, 5112.000
727.2650, 4986.000
728.4180, 4737.000
729.5700, 4691.000
730.7230, 4543.000
731.8750, 4531.000
733.0280, 4507.000
734.1800, 4436.000
735.3320, 4389.000
736.4830, 4395.000
737.6350, 4467.000
738.7860, 4358.000
739.9380, 4382.000
741.0890, 4338.000
742.2400, 4314.000
743.3910, 4314.000
744.5410, 4331.000
745.6920, 4295.000
746.8420, 4333.000
747.9920, 4299.000
749.1420, 4318.000
750.2920, 4353.000
751.4420, 4419.000
752.5910, 4373.000
753.7410, 4393.000
754.8900, 4328.000
756.0390, 4289.000
757.1880, 4309.000
758.3370, 4416.000
759.4850, 4322.000
760.6340, 4434.000
761.7820, 4411.000
762.9300, 4448.000
764.0780, 4437.000
765.2260, 4444.000
766.3730, 4417.000
767.5210, 4398.000
768.6680, 4336.000
769.8150, 4437.000
770.9620, 4436.000
772.1090, 4384.000
773.2560, 4395.000
774.4020, 4490.000
775.5490, 4456.000
776.6950, 4410.000
777.8410, 4416.000
778.9870, 4416.000
780.1330, 4523.000
781.2780, 4458.000
782.4230, 4468.000
783.5690, 4481.000
784.7140, 4470.000
785.8590, 4367.000
787.0030, 4432.000
788.1480, 4500.000
789.2920, 4533.000
790.4370, 4586.000
791.5810, 4533.000
792.7250, 4504.000
793.8690, 4442.000
795.0120, 4550.000
796.1560, 4556.000
797.2990, 4547.000
798.4420, 4484.000
799.5850, 4492.000
800.7280, 4588.000
801.8710, 4544.000
803.0130, 4532.000
804.1550, 4524.000
805.2980, 4517.000
806.4400, 4568.000
807.5810, 4538.000
808.7230, 4508.000
809.8650, 4561.000
811.0060, 4605.000
812.1470, 4550.000
813.2880, 4623.000
814.4290, 4646.000
815.5700, 4627.000
816.7110, 4603.000
817.8510, 4610.000
818.9910, 4604.000
820.1310, 4634.000
821.2710, 4586.000
822.4110, 4702.000
823.5510, 4640.000
824.6900, 4734.000
825.8290, 4685.000
826.9680, 4677.000
828.1070, 4681.000
829.2460, 4728.000
830.3850, 4689.000
831.5230, 4754.000
832.6620, 4761.000
833.8000, 4750.000
834.9380, 4734.000
836.0760, 4726.000
837.2130, 4597.000
838.3510, 4764.000
839.4880, 4735.000
840.6250, 4754.000
841.7620, 4798.000
842.8990, 4801.000
844.0360, 4764.000
845.1720, 4915.000
846.3090, 4816.000
847.4450, 4784.000
848.5810, 4872.000
849.7170, 4908.000
850.8530, 4858.000
851.9880, 4902.000
853.1240, 4884.000
854.2590, 4818.000
855.3940, 4823.000
856.5290, 4845.000
857.6640, 5007.000
858.7980, 4835.000
859.9330, 4906.000
861.0670, 5032.000
862.2010, 4980.000
863.3350, 5031.000
864.4690, 5111.000
865.6030, 5019.000
866.7360, 5108.000
867.8690, 5114.000
869.0020, 5050.000
870.1350, 5216.000
871.2680, 5125.000
872.4010, 5180.000
873.5330, 5049.000
874.6660, 5152.000
875.7980, 5086.000
876.9300, 5090.000
878.0620, 5069.000
879.1930, 5044.000
880.3250, 5062.000
881.4560, 5126.000
882.5870, 5034.000
883.7180, 5003.000
884.8490, 5083.000
885.9800, 5119.000
887.1100, 5219.000
888.2410, 5154.000
889.3710, 5079.000
890.5010, 5097.000
891.6310, 5170.000
892.7610, 5155.000
893.8900, 5249.000
895.0200, 5262.000
896.1490, 5171.000
897.2780, 5132.000
898.4070, 5193.000
899.5360, 5189.000
900.6640, 5175.000
901.7920, 5249.000
902.9210, 5216.000
904.0490, 5385.000
905.1770, 5312.000
906.3040, 5330.000
907.4320, 5351.000
908.5600, 5326.000
909.6870, 5317.000
910.8140, 5357.000
911.9410, 5459.000
913.0680, 5352.000
914.1940, 5399.000
915.3210, 5418.000
916.4470, 5406.000
917.5730, 5412.000
918.6990, 5420.000
919.8250, 5431.000
920.9500, 5367.000
922.0760, 5414.000
923.2010, 5462.000
924.3260, 5471.000
925.4510, 5472.000
926.5760, 5450.000
927.7010, 5429.000
928.8250, 5533.000
929.9500, 5520.000
931.0740, 5436.000
932.1980, 5615.000
933.3220, 5541.000
934.4450, 5573.000
935.5690, 5599.000
936.6920, 5579.000
937.8150, 5674.000
938.9380, 5575.000
940.0610, 5589.000
941.1840, 5616.000
942.3060, 5714.000
943.4290, 5653.000
944.5510, 5724.000
945.6730, 5695.000
946.7950, 5699.000
947.9160, 5788.000
949.0380, 5756.000
950.1590, 5741.000
951.2800, 5630.000
952.4010, 5794.000
953.5220, 5670.000
954.6430, 5832.000
955.7630, 5774.000
956.8840, 5780.000
958.0040, 5880.000
959.1240, 5836.000
960.2440, 5811.000
961.3640, 5873.000
962.4830, 5880.000
963.6030, 5903.000
964.7220, 5825.000
965.8410, 5846.000
966.9600, 5984.000
968.0780, 6003.000
969.1970, 5984.000
970.3150, 5959.000
971.4340, 5952.000
972.5520, 5960.000
973.6700, 6005.000
974.7870, 6020.000
975.9050, 6032.000
977.0220, 6122.000
978.1390, 6127.000
979.2560, 6071.000
980.3730, 6072.000
981.4900, 6157.000
982.6070, 6205.000
983.7230, 6152.000
984.8390, 6206.000
985.9550, 6197.000
987.0710, 6223.000
988.1870, 6225.000
989.3030, 6270.000
990.4180, 6341.000
991.5330, 6276.000
992.6480, 6349.000
993.7630, 6397.000
994.8780, 6385.000
995.9930, 6350.000
997.1070, 6457.000
998.2210, 6465.000
999.3350, 6397.000
1000.449, 6405.000
1001.563, 6551.000
1002.677, 6434.000
1003.790, 6546.000
1004.903, 6591.000
1006.016, 6562.000
1007.129, 6577.000
1008.242, 6594.000
1009.355, 6594.000
1010.467, 6680.000
1011.579, 6624.000
1012.691, 6704.000
1013.803, 6597.000
1014.915, 6833.000
1016.027, 6855.000
1017.138, 6698.000
1018.249, 6778.000
1019.360, 6811.000
1020.471, 6817.000
1021.582, 6820.000
1022.693, 6876.000
1023.803, 7016.000
1024.913, 6954.000
1026.023, 7051.000
1027.133, 7047.000
1028.243, 6986.000
1029.353, 6951.000
1030.462, 7101.000
1031.571, 7131.000
1032.680, 7103.000
1033.789, 7151.000
1034.898, 7227.000
1036.007, 7126.000
1037.115, 7194.000
1038.223, 7199.000
1039.331, 7330.000
1040.439, 7281.000
1041.547, 7528.000
1042.655, 7507.000
1043.762, 7346.000
1044.869, 7493.000
1045.976, 7419.000
1047.083, 7561.000
1048.190, 7711.000
1049.297, 7749.000
1050.403, 7768.000
1051.509, 7837.000
1052.615, 7786.000
1053.721, 7984.000
1054.827, 7997.000
1055.933, 8061.000
1057.038, 8179.000
1058.143, 8351.000
1059.248, 8456.000
1060.353, 8556.000
1061.458, 8792.000
1062.563, 8873.000
1063.667, 9058.000
1064.771, 9344.000
1065.875, 9781.000
1066.979, 10217.00
1068.083, 10819.00
1069.186, 11986.00
1070.290, 13556.00
1071.393, 16118.00
1072.496, 19443.00
1073.599, 23713.00
1074.702, 28660.00
1075.804, 34473.00
1076.907, 40854.00
1078.009, 46195.00
1079.111, 51377.00
1080.213, 54583.00
1081.315, 57129.00
1082.416, 58941.00
1083.517, 60159.00
1084.619, 60518.00
1085.720, 60350.00
1086.821, 59153.00
1087.921, 56857.00
1089.022, 53960.00
1090.122, 49642.00
1091.222, 44967.00
1092.322, 40198.00
1093.422, 34953.00
1094.522, 30404.00
1095.622, 26065.00
1096.721, 22357.00
1097.820, 19280.00
1098.919, 16637.00
1100.018, 14565.00
1101.117, 12929.00
1102.215, 11663.00
1103.314, 10771.00
1104.412, 10070.00
1105.510, 9489.000
1106.608, 9325.000
1107.705, 8999.000
1108.803, 8896.000
1109.900, 8750.000
1110.997, 8685.000
1112.094, 8619.000
1113.191, 8592.000
1114.288, 8546.000
1115.384, 8664.000
1116.481, 8641.000
1117.577, 8524.000
1118.673, 8498.000
1119.769, 8491.000
1120.864, 8431.000
1121.960, 8631.000
1123.055, 8594.000
1124.150, 8640.000
1125.245, 8606.000
1126.340, 8599.000
1127.434, 8539.000
1128.529, 8691.000
1129.623, 8648.000
1130.717, 8560.000
1131.811, 8584.000
1132.905, 8632.000
1133.999, 8753.000
1135.092, 8755.000
1136.185, 8762.000
1137.279, 8653.000
1138.371, 8822.000
1139.464, 8727.000
1140.557, 8840.000
1141.649, 8814.000
1142.742, 8848.000
1143.834, 8820.000
1144.926, 8867.000
1146.017, 9024.000
1147.109, 8904.000
1148.200, 9013.000
1149.292, 9078.000
1150.383, 8893.000
1151.474, 9031.000
1152.564, 8983.000
1153.655, 9097.000
1154.745, 9121.000
1155.835, 9143.000
1156.925, 9138.000
1158.015, 9068.000
1159.105, 9013.000
1160.195, 9139.000
1161.284, 9282.000
1162.373, 9193.000
1163.462, 9301.000
1164.551, 9311.000
1165.640, 9286.000
1166.728, 9324.000
1167.817, 9380.000
1168.905, 9383.000
1169.993, 9430.000
1171.081, 9353.000
1172.168, 9429.000
1173.256, 9501.000
1174.343, 9432.000
1175.430, 9500.000
1176.517, 9552.000
1177.604, 9559.000
1178.691, 9657.000
1179.777, 9556.000
1180.864, 9657.000
1181.950, 9680.000
1183.036, 9698.000
1184.121, 9689.000
1185.207, 9795.000
1186.293, 9761.000
1187.378, 9629.000
1188.463, 9954.000
1189.548, 9748.000
1190.633, 9818.000
1191.717, 9837.000
1192.802, 9958.000
1193.886, 9835.000
1194.970, 9954.000
1196.054, 10064.00
1197.138, 10101.00
1198.221, 10093.00
1199.305, 10106.00
1200.388, 10072.00
1201.471, 10111.00
1202.554, 10105.00
1203.637, 10072.00
1204.719, 10261.00
1205.801, 10269.00
1206.884, 10256.00
1207.966, 10367.00
1209.048, 10260.00
1210.129, 10318.00
1211.211, 10382.00
1212.292, 10472.00
1213.373, 10405.00
1214.454, 10387.00
1215.535, 10417.00
1216.616, 10519.00
1217.696, 10566.00
1218.777, 10673.00
1219.857, 10524.00
1220.937, 10523.00
1222.017, 10638.00
1223.096, 10647.00
1224.176, 10747.00
1225.255, 10889.00
1226.334, 10807.00
1227.413, 10902.00
1228.492, 10909.00
1229.570, 10866.00
1230.649, 10953.00
1231.727, 10865.00
1232.805, 10947.00
1233.883, 11063.00
1234.961, 10984.00
1236.038, 11192.00
1237.116, 11184.00
1238.193, 11030.00
1239.270, 11211.00
1240.347, 11226.00
1241.424, 11115.00
1242.500, 11237.00
1243.577, 11092.00
1244.653, 11190.00
1245.729, 11277.00
1246.805, 11443.00
1247.880, 11432.00
1248.956, 11400.00
1250.031, 11617.00
1251.106, 11525.00
1252.181, 11565.00
1253.256, 11688.00
1254.331, 11554.00
1255.405, 11824.00
1256.480, 11728.00
1257.554, 11723.00
1258.628, 11733.00
1259.701, 11829.00
1260.775, 11791.00
1261.849, 11824.00
1262.922, 11874.00
1263.995, 11949.00
1265.068, 11978.00
1266.141, 12102.00
1267.213, 12020.00
1268.286, 12103.00
1269.358, 12059.00
1270.430, 12258.00
1271.502, 12213.00
1272.573, 12254.00
1273.645, 12188.00
1274.716, 12273.00
1275.788, 12316.28
1276.859, 12414.65
1277.929, 12484.31
1279.000, 12526.88
1280.071, 12461.02
1281.141, 12535.13
1282.211, 12553.14
1283.281, 12568.84
1284.351, 12705.00
1285.421, 12542.00
1286.490, 12600.00
1287.559, 12594.00
1288.628, 12753.00
1289.697, 12823.00
1290.766, 12823.00
1291.835, 12845.00
1292.903, 12812.00
1293.972, 12835.00
1295.040, 13092.00
1296.108, 12911.00
1297.175, 13022.00
1298.243, 13184.00
1299.310, 13180.00
1300.377, 13163.00
1301.444, 13046.00
1302.511, 13264.00
1303.578, 13285.00
1304.645, 13338.00
1305.711, 13274.00
1306.777, 13376.00
1307.843, 13415.00
1308.909, 13495.00
1309.975, 13470.00
1311.040, 13581.00
1312.105, 13617.00
1313.171, 13699.00
1314.235, 13767.00
1315.300, 13643.00
1316.365, 13776.00
1317.429, 13683.00
1318.494, 13940.00
1319.558, 13854.00
1320.622, 14039.00
1321.685, 14064.00
1322.749, 13998.00
1323.812, 13994.00
1324.876, 14004.00
1325.939, 14092.00
1327.001, 14249.00
1328.064, 14294.00
1329.127, 14223.00
1330.189, 14314.00
1331.251, 14248.00
1332.313, 14502.00
1333.375, 14512.00
1334.437, 14532.00
1335.498, 14601.00
1336.560, 14572.00
1337.621, 14525.00
1338.682, 14562.00
1339.742, 14665.00
1340.803, 14521.00
1341.863, 14752.00
1342.924, 14824.00
1343.984, 14853.00
1345.044, 14995.00
1346.104, 14867.00
1347.163, 15024.00
1348.222, 15136.00
1349.282, 15077.00
1350.341, 15186.00
1351.400, 15196.00
1352.458, 15195.00
1353.517, 15305.00
1354.575, 15262.00
1355.633, 15341.00
1356.691, 15414.00
1357.749, 15350.00
1358.807, 15485.00
1359.864, 15553.00
1360.922, 15534.00
1361.979, 15596.00
1363.036, 15630.00
1364.092, 15582.00
1365.149, 15692.00
1366.205, 15834.00
1367.262, 15897.00
1368.318, 15995.00
1369.374, 15912.00
1370.429, 16041.00
1371.485, 16025.00
1372.540, 15931.00
1373.596, 16216.00
1374.651, 16232.00
1375.705, 16215.00
1376.760, 16325.00
1377.815, 16355.00
1378.869, 16394.00
1379.923, 16443.00
1380.977, 16374.00
1382.031, 16514.00
1383.085, 16734.00
1384.138, 16675.00
1385.191, 16644.00
1386.244, 16844.00
1387.297, 16916.00
1388.350, 17048.00
1389.403, 17131.00
1390.455, 17254.00
1391.507, 17327.00
1392.559, 17466.00
1393.611, 17554.00
1394.663, 17761.00
1395.714, 17657.00
1396.766, 17843.00
1397.817, 18062.00
1398.868, 18285.00
1399.919, 18448.00
1400.969, 18483.00
1402.020, 18505.00
1403.070, 18589.00
1404.120, 18939.00
1405.170, 18874.00
1406.220, 18836.00
1407.270, 18916.00
1408.319, 18873.00
1409.368, 18990.00
1410.417, 19075.00
1411.466, 19048.00
1412.515, 18940.00
1413.563, 18989.00
1414.612, 18962.00
1415.660, 18977.00
1416.708, 18898.00
1417.756, 18862.00
1418.803, 19013.00
1419.851, 19188.00
1420.898, 19472.00
1421.945, 19285.00
1422.992, 19323.00
1424.039, 19364.00
1425.086, 19522.00
1426.132, 19626.00
1427.178, 19673.00
1428.225, 19828.00
1429.270, 19553.00
1430.316, 19726.00
1431.362, 19870.00
1432.407, 19892.00
1433.452, 19844.00
1434.497, 19987.00
1435.542, 19901.00
1436.587, 20049.00
1437.631, 20248.00
1438.676, 20292.00
1439.720, 20286.00
1440.764, 20208.00
1441.807, 20364.00
1442.851, 20449.00
1443.895, 20296.00
1444.938, 20426.00
1445.981, 20335.00
1447.024, 20377.00
1448.066, 20526.00
1449.109, 20566.00
1450.151, 20358.00
1451.194, 20514.00
1452.236, 20442.00
1453.277, 20560.00
1454.319, 20625.00
1455.361, 20630.00
1456.402, 20859.00
1457.443, 20678.00
1458.484, 21010.00
1459.525, 20849.00
1460.565, 20761.00
1461.606, 20957.00
1462.646, 21089.00
1463.686, 20916.00
1464.726, 21133.00
1465.766, 21135.00
1466.805, 21375.00
1467.845, 21406.00
1468.884, 21314.00
1469.923, 21458.00
1470.962, 21476.00
1472.000, 21765.00
1473.039, 21867.00
1474.077, 21881.00
1475.115, 21944.00
1476.153, 22018.00
1477.191, 21955.00
1478.229, 22037.00
1479.266, 22174.00
1480.303, 22136.00
1481.340, 22034.00
1482.377, 22406.00
1483.414, 22521.00
1484.451, 22481.00
1485.487, 22549.00
1486.523, 22504.00
1487.559, 22694.00
1488.595, 22679.00
1489.631, 22896.00
1490.666, 22798.00
1491.701, 22996.00
1492.736, 23380.00
1493.771, 23202.00
1494.806, 23262.00
1495.841, 23194.00
1496.875, 23454.00
1497.909, 23762.00
1498.943, 23491.00
1499.977, 23732.00
1501.011, 23478.00
1502.045, 23805.00
1503.078, 23811.00
1504.111, 24065.00
1505.144, 23918.00
1506.177, 24261.00
1507.209, 24084.00
1508.242, 24520.00
1509.274, 24283.00
1510.306, 24617.00
1511.338, 24404.00
1512.370, 24468.00
1513.402, 24647.00
1514.433, 24819.00
1515.464, 24779.00
1516.495, 24903.00
1517.526, 25054.00
1518.557, 24982.00
1519.587, 25004.00
1520.617, 25232.00
1521.648, 25217.00
1522.678, 25207.00
1523.707, 25468.00
1524.737, 25463.00
1525.766, 25565.00
1526.796, 25722.00
1527.825, 25414.00
1528.854, 25784.00
1529.882, 25847.00
1530.911, 26004.00
1531.939, 26307.00
1532.967, 26199.00
1533.995, 26249.00
1535.023, 26387.00
1536.051, 26349.00
1537.078, 26531.00
1538.106, 26455.00
1539.133, 26829.00
1540.160, 26690.00
1541.186, 26589.00
1542.213, 26563.00
1543.239, 26822.00
1544.266, 26636.00
1545.292, 27057.00
1546.318, 27169.00
1547.343, 27186.00
1548.369, 27378.00
1549.394, 27246.00
1550.419, 27493.00
1551.444, 27321.00
1552.469, 27661.00
1553.494, 27628.00
1554.518, 27822.00
1555.542, 27995.00
1556.566, 27921.00
1557.590, 27983.00
1558.614, 27834.00
1559.638, 28046.00
1560.661, 28329.00
1561.684, 27946.00
1562.707, 28273.00
1563.730, 28447.00
1564.753, 28379.00
1565.775, 28600.00
1566.797, 28651.00
1567.819, 28820.00
1568.841, 28949.00
1569.863, 28847.00
##END=



