##NAMES=Kyanite
##RRUFFID=R050450
##IDEAL CHEMISTRY=Al_2_OSiO_4_
##LOCALITY=Switzerland
##OWNER=RRUFF
##SOURCE=Marcus Origlieri
##DESCRIPTION=Blue bladed crystals
##STATUS=The identification of this mineral has been confirmed by X-ray diffraction and chemical analysis
##URL=rruff.info/R050450
##MEASURED CHEMISTRY=Al_2.00_OSi_1.00_O_4_
##PIN_ID=M00770
##ORIENTATION=Laser parallel to (0 1 -1). Fiducial mark perpendicular to laser is parallel to -a [-1 0 0]
159.7870, 7124.000
161.0170, 7021.000
162.2460, 7037.000
163.4750, 7111.576
164.7030, 7225.000
165.9320, 7228.000
167.1600, 7334.000
168.3890, 7225.000
169.6170, 7319.000
170.8450, 7321.000
172.0730, 7306.000
173.3000, 7287.000
174.5280, 7482.000
175.7550, 7535.000
176.9820, 7515.000
178.2090, 7564.000
179.4350, 7561.000
180.6620, 7622.000
181.8880, 7532.000
183.1150, 7430.815
184.3410, 7260.000
185.5670, 7228.000
186.7920, 7232.000
188.0180, 7379.000
189.2430, 7276.000
190.4690, 7288.000
191.6940, 7368.000
192.9180, 7364.000
194.1430, 7362.000
195.3680, 7423.000
196.5920, 7383.000
197.8160, 7466.000
199.0400, 7514.000
200.2640, 7530.000
201.4880, 7474.000
202.7110, 7642.000
203.9350, 7636.000
205.1580, 7736.000
206.3810, 7619.000
207.6040, 7657.000
208.8270, 7600.000
210.0490, 7629.000
211.2710, 7682.000
212.4940, 7651.000
213.7160, 7551.000
214.9370, 7601.000
216.1590, 7673.000
217.3810, 7909.000
218.6020, 8138.000
219.8230, 8192.000
221.0440, 8201.000
222.2650, 8318.000
223.4860, 8607.000
224.7060, 8812.000
225.9260, 9037.000
227.1470, 8992.000
228.3670, 8973.000
229.5860, 8871.000
230.8060, 8556.000
232.0260, 8224.000
233.2450, 7974.000
234.4640, 7937.000
235.6830, 7799.000
236.9020, 7714.000
238.1200, 7829.000
239.3390, 7683.000
240.5570, 7760.000
241.7750, 7849.000
242.9930, 7744.000
244.2110, 7804.000
245.4290, 7778.000
246.6460, 7818.000
247.8630, 7782.000
249.0810, 7796.164
250.2980, 7816.000
251.5140, 7810.000
252.7310, 7778.000
253.9470, 7791.000
255.1640, 7825.000
256.3800, 7697.000
257.5960, 7765.000
258.8120, 7853.000
260.0270, 7957.000
261.2430, 7873.626
262.4580, 7977.000
263.6730, 7727.000
264.8880, 7839.000
266.1030, 7865.000
267.3170, 7849.000
268.5320, 7998.000
269.7460, 8109.000
270.9600, 8256.000
272.1740, 8317.000
273.3880, 8435.000
274.6010, 8666.000
275.8150, 8923.000
277.0280, 8925.000
278.2410, 9047.000
279.4540, 9232.000
280.6670, 9211.864
281.8790, 9514.000
283.0920, 9325.000
284.3040, 9339.000
285.5160, 9529.000
286.7280, 9616.000
287.9400, 9948.000
289.1510, 10565.00
290.3630, 11838.00
291.5740, 12747.00
292.7850, 14268.00
293.9960, 15733.00
295.2070, 16373.00
296.4170, 16080.00
297.6280, 16573.00
298.8380, 18517.00
300.0480, 20574.00
301.2580, 21409.00
302.4680, 21943.00
303.6770, 21220.00
304.8870, 19372.00
306.0960, 16628.00
307.3050, 13762.00
308.5140, 11314.00
309.7230, 10095.00
310.9310, 9265.000
312.1400, 9133.000
313.3480, 9164.000
314.5560, 9268.000
315.7640, 9526.000
316.9720, 10046.00
318.1790, 10762.00
319.3870, 11314.00
320.5940, 11458.00
321.8010, 11866.00
323.0080, 12683.00
324.2150, 13692.00
325.4210, 14046.00
326.6280, 14314.00
327.8340, 14070.00
329.0400, 13314.00
330.2460, 12102.00
331.4510, 10959.00
332.6570, 9873.000
333.8620, 9271.000
335.0680, 8976.000
336.2730, 8842.000
337.4780, 8823.000
338.6820, 8940.000
339.8870, 8992.000
341.0910, 8988.000
342.2950, 9012.000
343.5000, 8983.226
344.7030, 9077.000
345.9070, 8920.000
347.1110, 8901.000
348.3140, 8908.000
349.5170, 8955.000
350.7200, 9314.000
351.9230, 9944.000
353.1260, 10596.00
354.3290, 10865.00
355.5310, 11507.24
356.7330, 11572.00
357.9350, 12589.00
359.1370, 13183.00
360.3390, 13878.00
361.5400, 13932.00
362.7420, 13995.00
363.9430, 13465.00
365.1440, 12870.00
366.3450, 12086.00
367.5460, 11588.00
368.7460, 11395.00
369.9470, 11762.00
371.1470, 12125.00
372.3470, 12403.00
373.5470, 12686.00
374.7460, 12769.00
375.9460, 12893.00
377.1450, 12910.00
378.3450, 13130.00
379.5440, 13147.00
380.7430, 13172.00
381.9410, 13870.00
383.1400, 14841.00
384.3380, 16180.00
385.5370, 17434.00
386.7350, 17789.00
387.9320, 17368.00
389.1300, 17493.00
390.3280, 18059.00
391.5250, 18291.00
392.7220, 18342.00
393.9190, 18267.00
395.1160, 18011.00
396.3130, 17538.00
397.5100, 16726.00
398.7060, 15983.00
399.9020, 16252.71
401.0980, 15634.00
402.2940, 16965.00
403.4900, 17953.00
404.6860, 18524.00
405.8810, 18394.00
407.0760, 17451.00
408.2710, 15906.00
409.4660, 14537.00
410.6610, 13253.00
411.8550, 12566.00
413.0500, 12404.00
414.2440, 12314.00
415.4380, 12287.00
416.6320, 12777.00
417.8260, 13254.00
419.0190, 13620.00
420.2130, 13812.00
421.4060, 13673.00
422.5990, 13223.00
423.7920, 12370.00
424.9850, 11770.00
426.1770, 11344.00
427.3700, 11349.00
428.5620, 11546.00
429.7540, 12026.00
430.9460, 12696.00
432.1380, 13553.00
433.3290, 14250.00
434.5210, 15068.00
435.7120, 15739.00
436.9030, 16562.00
438.0940, 16830.00
439.2850, 16959.00
440.4750, 16526.00
441.6660, 15602.00
442.8560, 14429.00
444.0460, 13304.00
445.2360, 12397.00
446.4260, 11915.00
447.6160, 11804.00
448.8050, 11828.00
449.9940, 11596.00
451.1830, 11349.00
452.3720, 11102.00
453.5610, 10574.00
454.7500, 10322.00
455.9380, 10100.00
457.1260, 10166.00
458.3150, 10132.00
459.5020, 9998.000
460.6900, 10247.00
461.8780, 10366.00
463.0650, 10550.00
464.2530, 10585.00
465.4400, 10768.00
466.6270, 10725.00
467.8130, 11032.00
469.0000, 10968.00
470.1870, 11037.00
471.3730, 11078.00
472.5590, 11321.00
473.7450, 11519.00
474.9310, 12144.00
476.1160, 13165.00
477.3020, 14900.00
478.4870, 17392.00
479.6720, 20553.00
480.8570, 23114.00
482.0420, 25410.00
483.2270, 28309.00
484.4110, 32330.00
485.5960, 36296.00
486.7800, 38362.00
487.9640, 38737.00
489.1480, 37089.00
490.3310, 33506.00
491.5150, 29601.00
492.6980, 25172.00
493.8810, 21844.00
495.0640, 19291.00
496.2470, 17440.00
497.4300, 16058.00
498.6120, 14806.00
499.7950, 13814.00
500.9770, 13270.00
502.1590, 12735.00
503.3410, 12607.00
504.5220, 12457.00
505.7040, 12416.00
506.8850, 12594.00
508.0660, 12728.00
509.2470, 12958.00
510.4280, 13024.00
511.6090, 13179.00
512.7890, 13007.00
513.9700, 13034.00
515.1500, 12637.00
516.3300, 12278.00
517.5100, 11745.00
518.6900, 11402.00
519.8690, 11105.00
521.0490, 10947.00
522.2280, 10623.00
523.4070, 10483.00
524.5860, 10571.00
525.7640, 10480.00
526.9430, 10233.00
528.1210, 10371.00
529.3000, 10168.00
530.4780, 10232.00
531.6560, 10370.00
532.8330, 10481.00
534.0110, 10489.61
535.1880, 10346.00
536.3650, 10544.00
537.5430, 10598.00
538.7190, 10716.00
539.8960, 10851.00
541.0730, 11156.00
542.2490, 11275.00
543.4250, 11423.00
544.6020, 11545.00
545.7780, 11717.00
546.9530, 11821.00
548.1290, 11772.00
549.3040, 11688.00
550.4800, 11430.00
551.6550, 11541.00
552.8300, 11485.00
554.0040, 11773.00
555.1790, 12172.00
556.3540, 12684.00
557.5280, 13021.00
558.7020, 13488.00
559.8760, 14146.00
561.0500, 14861.00
562.2230, 15925.00
563.3970, 16144.00
564.5700, 16539.00
565.7430, 16207.00
566.9160, 15931.00
568.0890, 15420.00
569.2620, 15103.00
570.4340, 15062.00
571.6070, 15139.00
572.7790, 15178.00
573.9510, 14957.00
575.1230, 14598.00
576.2940, 14058.00
577.4660, 13178.00
578.6370, 12691.00
579.8080, 12304.00
580.9790, 11830.00
582.1500, 11752.00
583.3210, 11758.00
584.4910, 11456.00
585.6620, 11476.00
586.8320, 11566.00
588.0020, 11461.00
589.1720, 11361.00
590.3410, 11357.00
591.5110, 11162.00
592.6800, 11166.00
593.8500, 11093.00
595.0190, 11228.00
596.1880, 11260.00
597.3560, 11281.00
598.5250, 11245.00
599.6930, 11580.00
600.8620, 11538.00
602.0300, 11779.00
603.1970, 11902.00
604.3650, 12058.00
605.5330, 12211.00
606.7000, 12183.00
607.8680, 12330.00
609.0350, 12180.00
610.2020, 12098.00
611.3680, 11732.00
612.5350, 11682.00
613.7010, 11652.00
614.8680, 11557.00
616.0340, 11537.70
617.2000, 11564.00
618.3660, 11474.00
619.5310, 11486.00
620.6970, 11473.00
621.8620, 11514.00
623.0270, 11438.00
624.1920, 11441.00
625.3570, 11563.00
626.5220, 11593.00
627.6860, 11686.42
628.8500, 11700.00
630.0140, 11927.00
631.1780, 12132.00
632.3420, 12368.00
633.5060, 12460.00
634.6700, 12950.00
635.8330, 13082.00
636.9960, 13180.00
638.1590, 13535.00
639.3220, 13536.00
640.4850, 13347.00
641.6470, 13246.00
642.8100, 12654.00
643.9720, 12326.00
645.1340, 12113.00
646.2960, 12018.00
647.4570, 11869.00
648.6190, 11883.00
649.7800, 11938.00
650.9420, 12057.00
652.1030, 12047.00
653.2640, 12100.00
654.4240, 12304.00
655.5850, 12308.00
656.7450, 12392.00
657.9060, 12324.00
659.0660, 12493.00
660.2260, 12353.00
661.3850, 12534.00
662.5450, 12605.00
663.7040, 12445.00
664.8640, 12658.00
666.0230, 12813.00
667.1820, 12804.00
668.3410, 13156.00
669.4990, 13232.00
670.6580, 13171.00
671.8160, 13205.00
672.9740, 13141.00
674.1320, 12864.00
675.2900, 12651.00
676.4480, 12429.00
677.6050, 12372.00
678.7630, 12210.00
679.9200, 12042.00
681.0770, 11988.00
682.2340, 11909.03
683.3900, 11840.00
684.5470, 11858.00
685.7030, 11847.00
686.8590, 11831.44
688.0150, 11744.00
689.1710, 11727.00
690.3270, 11689.00
691.4830, 11619.00
692.6380, 11574.00
693.7930, 11581.08
694.9480, 11627.00
696.1030, 11627.00
697.2580, 11723.00
698.4130, 11785.00
699.5670, 11801.00
700.7210, 11759.00
701.8750, 11709.00
703.0290, 11839.00
704.1830, 11754.00
705.3370, 11766.00
706.4900, 11768.00
707.6430, 11768.00
708.7970, 11767.00
709.9490, 11744.00
711.1020, 11685.00
712.2550, 11839.00
713.4070, 11809.00
714.5600, 11925.00
715.7120, 11829.00
716.8640, 11834.00
718.0160, 12052.00
719.1670, 12076.00
720.3190, 12184.00
721.4700, 12322.00
722.6210, 12500.00
723.7720, 12489.00
724.9230, 12699.00
726.0740, 12591.00
727.2250, 12337.00
728.3750, 12397.00
729.5250, 12307.00
730.6750, 12101.00
731.8250, 12063.00
732.9750, 12054.00
734.1240, 12145.00
735.2740, 12109.00
736.4230, 12095.00
737.5720, 12101.00
738.7210, 11986.00
739.8700, 12098.00
741.0190, 12100.00
742.1670, 12011.00
743.3150, 12075.00
744.4630, 12026.00
745.6110, 12060.00
746.7590, 12019.00
747.9070, 12109.00
749.0540, 12184.00
750.2020, 11935.00
751.3490, 12113.00
752.4960, 12165.00
753.6430, 12041.00
754.7890, 12144.00
755.9360, 12364.00
757.0820, 12193.00
758.2280, 12121.00
759.3740, 12301.00
760.5200, 12282.00
761.6660, 12356.00
762.8120, 12344.00
763.9570, 12315.00
765.1020, 12281.00
766.2470, 12354.00
767.3920, 12414.00
768.5370, 12242.00
769.6810, 12400.00
770.8260, 12352.00
771.9700, 12313.00
773.1140, 12377.00
774.2580, 12324.00
775.4020, 12249.00
776.5460, 12309.00
777.6890, 12287.00
778.8320, 12454.00
779.9750, 12372.00
781.1180, 12495.00
782.2610, 12336.00
783.4040, 12390.00
784.5460, 12372.00
785.6890, 12439.00
786.8310, 12428.00
787.9730, 12372.00
789.1150, 12436.00
790.2560, 12425.87
791.3980, 12503.00
792.5390, 12551.00
793.6810, 12611.00
794.8220, 12682.98
795.9630, 12717.00
797.1030, 12842.00
798.2440, 12825.00
799.3840, 12939.00
800.5240, 12950.45
801.6650, 12905.00
802.8040, 12986.00
803.9440, 12937.00
805.0840, 12956.00
806.2230, 13053.00
807.3630, 13250.00
808.5020, 13163.00
809.6410, 13257.00
810.7790, 13181.00
811.9180, 13346.00
813.0570, 13215.00
814.1950, 13066.00
815.3330, 13147.00
816.4710, 13184.00
817.6090, 13393.00
818.7470, 13302.00
819.8840, 13299.00
821.0220, 13461.00
822.1590, 13434.00
823.2960, 13535.00
824.4330, 13413.00
825.5690, 13451.00
826.7060, 13550.00
827.8420, 13480.00
828.9790, 13577.00
830.1150, 13619.00
831.2510, 13565.00
832.3860, 13592.00
833.5220, 13832.00
834.6570, 13751.13
835.7930, 13988.00
836.9280, 13775.00
838.0630, 13826.00
839.1980, 13844.00
840.3320, 13791.00
841.4670, 13862.00
842.6010, 13972.00
843.7350, 13956.00
844.8690, 14050.00
846.0030, 13965.00
847.1370, 14009.00
848.2700, 13802.00
849.4040, 13902.00
850.5370, 14005.00
851.6700, 13894.00
852.8030, 14100.00
853.9360, 14063.00
855.0680, 14183.00
856.2000, 14257.00
857.3330, 14392.00
858.4650, 14343.00
859.5970, 14567.00
860.7290, 14627.00
861.8600, 14634.00
862.9920, 14856.00
864.1230, 14829.00
865.2540, 14990.00
866.3850, 15005.00
867.5160, 15164.00
868.6460, 15131.00
869.7770, 15416.00
870.9070, 15586.00
872.0370, 15834.00
873.1670, 16043.00
874.2970, 16304.00
875.4270, 16573.00
876.5570, 16998.96
877.6860, 17323.00
878.8150, 18026.00
879.9440, 18563.00
881.0730, 19281.00
882.2020, 20632.00
883.3300, 21799.00
884.4590, 23170.00
885.5870, 24626.00
886.7150, 26507.00
887.8430, 27746.00
888.9710, 29006.00
890.0990, 30126.00
891.2260, 30688.00
892.3530, 30951.00
893.4810, 30959.00
894.6080, 31200.00
895.7340, 31552.00
896.8610, 32081.00
897.9880, 32632.00
899.1140, 33386.00
900.2400, 33851.00
901.3660, 34191.00
902.4920, 33570.00
903.6180, 32665.00
904.7430, 30554.00
905.8690, 28445.00
906.9940, 26219.00
908.1190, 24147.00
909.2440, 22327.00
910.3690, 20893.00
911.4930, 20017.00
912.6180, 19168.00
913.7420, 18510.00
914.8660, 17836.00
915.9900, 17504.00
917.1140, 17462.00
918.2380, 17036.00
919.3610, 17068.00
920.4850, 16958.00
921.6080, 16697.00
922.7310, 16830.00
923.8540, 16617.00
924.9760, 16471.00
926.0990, 16626.00
927.2210, 16601.00
928.3440, 16742.00
929.4660, 17010.00
930.5880, 17198.00
931.7090, 17429.00
932.8310, 17608.00
933.9520, 18052.00
935.0740, 18204.00
936.1950, 18729.00
937.3160, 18898.00
938.4360, 19440.00
939.5570, 19562.00
940.6780, 20015.00
941.7980, 20483.00
942.9180, 20787.00
944.0380, 21339.00
945.1580, 21986.00
946.2780, 22139.00
947.3970, 22496.00
948.5170, 23043.00
949.6360, 23158.00
950.7550, 23712.00
951.8740, 23672.00
952.9930, 23779.00
954.1110, 23732.00
955.2300, 23614.00
956.3480, 23590.00
957.4660, 23357.00
958.5840, 23166.00
959.7020, 23202.00
960.8190, 23292.00
961.9370, 23152.00
963.0540, 22897.73
964.1710, 22553.00
965.2880, 22018.00
966.4050, 21377.00
967.5220, 20593.00
968.6380, 19953.00
969.7550, 19221.00
970.8710, 18785.00
971.9870, 18428.00
973.1030, 18069.00
974.2190, 17592.00
975.3340, 17356.25
976.4500, 17022.00
977.5650, 16852.00
978.6800, 16638.00
979.7950, 16443.00
980.9100, 16350.16
982.0250, 16227.00
983.1390, 16167.00
984.2530, 16143.00
985.3680, 16029.00
986.4820, 16122.00
987.5950, 15983.00
988.7090, 15870.00
989.8230, 15976.00
990.9360, 16072.00
992.0490, 16210.00
993.1620, 16045.00
994.2750, 16271.00
995.3880, 16265.00
996.5010, 16514.00
997.6130, 16649.00
998.7250, 16925.00
999.8370, 16941.00
1000.949, 17119.00
1002.061, 17367.00
1003.173, 17254.00
1004.284, 17138.00
1005.396, 16927.00
1006.507, 16709.00
1007.618, 16405.00
1008.729, 16288.52
1009.839, 16126.00
1010.950, 16050.00
1012.060, 15983.00
1013.171, 15949.00
1014.281, 15904.00
1015.391, 15686.00
1016.500, 15958.00
1017.610, 15720.00
1018.719, 15729.00
1019.829, 15915.00
1020.938, 15752.00
1022.047, 15938.00
1023.156, 15808.00
1024.264, 15860.00
1025.373, 15677.00
1026.481, 15809.00
1027.589, 15783.00
1028.697, 15811.00
1029.805, 15808.00
1030.913, 15784.00
1032.020, 15806.00
1033.128, 15902.00
1034.235, 15894.00
1035.342, 15901.00
1036.449, 15868.00
1037.556, 15842.00
1038.663, 15931.00
1039.769, 15908.35
1040.875, 15843.00
1041.981, 15948.00
1043.087, 15939.00
1044.193, 15944.00
1045.299, 15984.00
1046.404, 15928.00
1047.510, 15812.00
1048.615, 16134.00
1049.720, 16040.00
1050.825, 15957.00
1051.930, 16058.00
1053.034, 16029.00
1054.139, 16051.00
1055.243, 16054.00
1056.347, 16270.00
1057.451, 16267.00
1058.555, 16056.00
1059.658, 16104.00
1060.762, 15925.00
1061.865, 16126.00
1062.968, 16155.00
1064.071, 16226.00
1065.174, 16252.00
1066.277, 16203.00
1067.380, 16242.00
1068.482, 16193.00
1069.584, 16172.00
1070.686, 16297.00
1071.788, 16273.00
1072.890, 16422.00
1073.992, 16371.00
1075.093, 16481.00
1076.194, 16361.00
1077.295, 16464.00
1078.396, 16481.00
1079.497, 16340.00
1080.598, 16430.00
1081.698, 16657.00
1082.799, 16619.00
1083.899, 16633.00
1084.999, 16702.00
1086.099, 16681.00
1087.199, 16698.00
1088.298, 16698.00
1089.398, 16704.00
1090.497, 16599.00
1091.596, 16656.00
1092.695, 16771.00
1093.794, 16594.00
1094.892, 16808.00
1095.991, 16734.00
1097.089, 16622.00
1098.187, 16793.00
1099.285, 16743.00
1100.383, 16811.00
1101.481, 16679.00
1102.579, 16738.00
1103.676, 16749.00
1104.773, 17047.00
1105.870, 16993.00
1106.967, 17078.00
1108.064, 17288.00
1109.161, 17227.00
1110.257, 17291.00
1111.353, 17425.00
1112.449, 17493.00
1113.545, 17766.00
1114.641, 17822.00
1115.737, 17700.00
1116.832, 17703.64
1117.928, 17572.00
1119.023, 17392.00
1120.118, 17423.00
1121.213, 17219.00
1122.308, 17263.00
1123.402, 17212.00
1124.497, 17172.00
1125.591, 17209.00
1126.685, 17386.00
1127.779, 17234.00
1128.873, 17392.00
1129.967, 17485.00
1131.060, 17428.00
1132.153, 17255.00
1133.247, 17206.00
1134.340, 17404.00
1135.433, 17477.00
1136.525, 17490.00
1137.618, 17469.00
1138.710, 17475.00
1139.802, 17425.00
1140.895, 17421.25
1141.987, 17464.00
1143.078, 17442.00
1144.170, 17386.00
1145.261, 17509.00
1146.353, 17480.00
1147.444, 17391.00
1148.535, 17562.00
1149.626, 17556.00
1150.716, 17544.00
1151.807, 17549.00
1152.897, 17674.00
1153.988, 17541.00
1155.078, 17554.00
1156.168, 17893.00
1157.257, 17848.00
1158.347, 17686.00
1159.436, 17664.00
1160.526, 17954.00
1161.615, 17730.00
1162.704, 17867.00
1163.793, 17822.00
1164.881, 17848.00
1165.970, 17717.00
1167.058, 17732.00
1168.147, 17726.00
1169.235, 17776.00
1170.323, 17827.00
1171.410, 17863.00
1172.498, 17949.00
1173.585, 17897.00
1174.673, 18009.00
1175.760, 17911.00
1176.847, 18016.00
1177.934, 18002.00
1179.020, 18111.00
1180.107, 18182.00
1181.193, 18328.00
1182.279, 18403.51
1183.365, 18351.00
1184.451, 18575.00
1185.537, 18672.00
1186.623, 18735.00
1187.708, 18491.00
1188.793, 18573.00
1189.878, 18470.00
1190.963, 18609.00
1192.048, 18608.00
1193.133, 18443.00
1194.217, 18295.00
1195.302, 18364.00
1196.386, 18199.00
1197.470, 18332.00
1198.554, 18256.00
1199.638, 18268.00
1200.721, 18294.00
1201.805, 18423.00
1202.888, 18473.00
1203.971, 18426.00
1205.054, 18379.00
1206.137, 18423.00
1207.219, 18594.00
1208.302, 18417.00
1209.384, 18415.00
1210.466, 18480.00
1211.548, 18300.00
1212.630, 18743.00
1213.712, 18682.00
1214.794, 18745.00
1215.875, 18880.00
1216.956, 18950.00
1218.037, 19000.82
1219.118, 18817.00
1220.199, 18976.00
1221.280, 19163.00
1222.360, 18938.00
1223.441, 19154.00
1224.521, 19143.00
1225.601, 19225.00
1226.681, 19290.00
1227.760, 19205.00
1228.840, 19291.00
1229.919, 19317.00
1230.999, 19266.00
1232.078, 19274.00
1233.157, 19385.00
1234.236, 19520.00
1235.314, 19550.00
1236.393, 19569.62
1237.471, 19195.00
1238.549, 19469.00
1239.627, 19421.00
1240.705, 19264.00
1241.783, 19473.00
1242.860, 19453.00
1243.938, 19600.00
1245.015, 19615.74
1246.092, 19582.59
1247.169, 19738.00
1248.246, 19698.36
1249.323, 19755.00
1250.399, 19718.00
1251.475, 19771.39
1252.552, 19635.00
1253.628, 19857.00
1254.703, 19906.00
1255.779, 19916.00
1256.855, 19817.00
1257.930, 19796.00
1259.005, 19836.00
1260.080, 19752.00
1261.155, 19864.00
1262.230, 19826.00
1263.305, 19741.00
1264.379, 19667.00
1265.454, 19768.00
1266.528, 19857.00
1267.602, 19535.00
1268.676, 19701.00
1269.750, 19722.00
1270.823, 19866.00
1271.897, 19594.00
1272.970, 19635.00
1274.043, 19524.00
1275.116, 19767.00
1276.189, 20055.00
1277.261, 19713.00
1278.334, 19767.00
1279.406, 19940.00
1280.478, 19873.00
1281.550, 19871.00
1282.622, 19736.00
1283.694, 19898.00
1284.766, 19850.00
1285.837, 19791.00
1286.908, 20023.00
1287.979, 19959.00
1289.050, 20042.00
1290.121, 20227.00
1291.192, 20122.00
1292.262, 20127.00
1293.333, 20193.00
1294.403, 20362.00
1295.473, 20247.00
1296.543, 20309.00
1297.613, 20299.00
1298.682, 20290.00
1299.752, 20437.00
1300.821, 20330.00
1301.890, 20457.00
1302.959, 20459.00
1304.028, 20354.00
1305.096, 20357.00
1306.165, 20233.00
1307.233, 20243.00
1308.301, 20383.00
1309.370, 20595.00
1310.437, 20370.00
1311.505, 20314.00
1312.573, 20654.00
1313.640, 20532.00
1314.708, 20572.00
1315.775, 20499.00
1316.842, 20420.00
1317.908, 20514.00
1318.975, 20495.00
1320.042, 20507.00
1321.108, 20619.00
1322.174, 20601.91
1323.240, 20649.73
1324.306, 20631.00
1325.372, 20622.00
1326.438, 20582.00
1327.503, 20395.00
1328.568, 20645.00
1329.634, 20483.00
1330.699, 20733.00
1331.763, 20478.00
1332.828, 20544.00
1333.893, 20681.00
1334.957, 20671.00
1336.021, 20895.00
1337.085, 20865.00
1338.149, 20757.00
1339.213, 20969.00
1340.277, 20842.00
1341.340, 20713.00
1342.404, 21117.00
1343.467, 20957.00
1344.530, 20960.00
1345.593, 20849.00
1346.655, 20870.00
1347.718, 20984.00
1348.780, 20956.00
1349.843, 20934.00
1350.905, 20893.00
1351.967, 20903.00
1353.028, 21115.00
1354.090, 21034.00
1355.152, 21162.00
1356.213, 21203.00
1357.274, 21045.00
1358.335, 21136.00
1359.396, 21240.00
1360.457, 21145.00
1361.517, 21107.00
1362.578, 21221.00
1363.638, 21140.00
1364.698, 21284.00
1365.758, 21187.00
1366.818, 21275.00
1367.878, 21312.00
1368.937, 21351.00
1369.997, 21355.00
1371.056, 21278.00
1372.115, 21394.00
1373.174, 21375.00
1374.232, 21340.00
1375.291, 21542.00
1376.350, 21409.00
1377.408, 21449.00
1378.466, 21417.00
1379.524, 21528.00
1380.582, 21625.00
1381.640, 21563.00
1382.697, 21623.45
1383.754, 21823.00
1384.812, 21666.00
1385.869, 21632.00
1386.926, 21775.00
1387.983, 21838.00
1389.039, 21642.00
1390.096, 21678.00
1391.152, 21707.00
1392.208, 21859.00
1393.264, 21719.00
1394.320, 21820.00
1395.376, 21731.00
1396.431, 21782.78
1397.487, 21953.00
1398.542, 21858.00
1399.597, 21930.00
1400.652, 21892.00
1401.707, 21803.00
1402.762, 21949.00
1403.816, 22125.00
1404.871, 22189.00
1405.925, 22121.00
1406.979, 22053.00
1408.033, 22283.00
1409.086, 22427.00
1410.140, 22157.00
1411.194, 22100.00
1412.247, 22297.00
1413.300, 22330.00
1414.353, 22293.00
1415.406, 22411.00
1416.458, 22269.00
1417.511, 22308.00
1418.563, 22497.00
1419.616, 22136.00
1420.668, 22562.00
1421.720, 22450.00
1422.772, 22435.00
1423.823, 22352.00
1424.875, 22431.00
1425.926, 22455.00
1426.977, 22465.00
1428.028, 22647.00
1429.079, 22697.00
1430.130, 22638.00
1431.180, 22893.00
1432.231, 22682.00
1433.281, 22731.00
1434.331, 22972.00
1435.381, 22717.00
1436.431, 22727.00
1437.481, 22964.00
1438.530, 22876.00
1439.580, 22898.00
1440.629, 22882.00
1441.678, 23115.00
1442.727, 22999.00
1443.776, 23090.00
1444.824, 23202.00
1445.873, 23020.00
1446.921, 23196.00
1447.969, 23337.00
1449.017, 23076.00
1450.065, 23300.00
1451.113, 23159.00
1452.160, 23137.00
1453.208, 23334.00
1454.255, 23419.00
1455.302, 23412.00
1456.349, 23459.00
1457.396, 23469.00
1458.443, 23480.00
1459.489, 23478.89
1460.535, 23509.00
1461.582, 23419.00
1462.628, 23481.00
1463.674, 23391.25
1464.719, 23461.00
1465.765, 23426.00
1466.810, 23544.00
1467.856, 23623.00
1468.901, 23547.00
1469.946, 23520.00
1470.991, 23642.00
1472.035, 23605.00
1473.080, 23662.00
1474.124, 23789.00
1475.169, 23849.00
1476.213, 23680.00
1477.257, 23850.00
1478.300, 23706.00
1479.344, 23826.00
1480.388, 23745.00
1481.431, 23749.71
1482.474, 23780.11
1483.517, 23783.00
1484.560, 23824.00
1485.603, 23899.00
1486.645, 23981.00
1487.688, 23903.00
1488.730, 23887.00
1489.772, 23985.00
1490.814, 23870.00
1491.856, 24078.00
1492.898, 23867.00
1493.939, 23969.00
1494.981, 24028.00
1496.022, 24057.00
1497.063, 24060.00
1498.104, 24016.00
1499.145, 23886.00
1500.186, 24144.00
1501.226, 24187.00
1502.266, 24338.00
1503.307, 24240.00
1504.347, 24335.00
1505.387, 24131.00
1506.426, 24280.00
1507.466, 24259.00
1508.505, 24352.00
1509.545, 24536.00
1510.584, 24354.00
1511.623, 24753.00
1512.662, 24346.00
1513.700, 24392.00
1514.739, 24316.00
1515.777, 24619.00
1516.815, 24433.00
1517.854, 24368.00
1518.892, 24505.00
1519.929, 24545.00
1520.967, 24375.00
1522.004, 24518.00
1523.042, 24649.00
1524.079, 24603.00
1525.116, 24650.00
1526.153, 24703.00
1527.190, 24712.00
1528.226, 24716.00
1529.263, 24860.00
1530.299, 24645.00
1531.335, 24896.00
1532.371, 24944.00
1533.407, 24852.00
1534.443, 24954.00
1535.478, 24977.00
1536.514, 25044.00
1537.549, 24939.00
1538.584, 24835.00
1539.619, 24719.00
1540.654, 25106.00
1541.689, 25028.00
1542.723, 25079.00
1543.757, 25112.00
1544.792, 24983.00
1545.826, 25046.00
1546.860, 24852.00
1547.893, 25238.00
1548.927, 25017.00
1549.960, 25218.00
1550.994, 24988.00
1552.027, 25118.00
1553.060, 25171.00
1554.093, 25150.00
1555.126, 25170.00
1556.158, 25218.54
1557.191, 25320.00
1558.223, 25356.00
1559.255, 25284.00
1560.287, 25432.00
1561.319, 25661.00
1562.350, 25483.00
1563.382, 25511.00
##END=



