##NAMES=Kyanite
##RRUFFID=R050450
##IDEAL CHEMISTRY=Al_2_OSiO_4_
##LOCALITY=Switzerland
##OWNER=RRUFF
##SOURCE=Marcus Origlieri
##DESCRIPTION=Blue bladed crystals
##STATUS=The identification of this mineral has been confirmed by X-ray diffraction and chemical analysis
##URL=rruff.info/R050450
##MEASURED CHEMISTRY=Al_2.00_OSi_1.00_O_4_
##PIN_ID=M01978
##ORIENTATION=Laser parallel to -b* (0 -1 0). Fiducial mark perpendicular to laser is parallel to c [0 0 1]
148.7160, 6997.000
149.9470, 6977.000
151.1780, 6885.000
152.4080, 7033.000
153.6380, 7050.000
154.8690, 7017.000
156.0980, 6968.000
157.3280, 7012.475
158.5580, 7010.403
159.7870, 7068.000
161.0170, 7077.000
162.2460, 7086.000
163.4750, 7118.000
164.7030, 7184.000
165.9320, 7194.000
167.1600, 7249.526
168.3890, 7345.000
169.6170, 7340.000
170.8450, 7408.000
172.0730, 7457.000
173.3000, 7535.000
174.5280, 7637.000
175.7550, 7807.000
176.9820, 7954.000
178.2090, 7947.000
179.4350, 8029.000
180.6620, 7821.000
181.8880, 7569.000
183.1150, 7602.000
184.3410, 7421.000
185.5670, 7361.000
186.7920, 7380.000
188.0180, 7464.000
189.2430, 7435.000
190.4690, 7435.000
191.6940, 7539.000
192.9180, 7512.000
194.1430, 7562.000
195.3680, 7531.000
196.5920, 7565.000
197.8160, 7500.000
199.0400, 7567.000
200.2640, 7563.000
201.4880, 7620.000
202.7110, 7664.000
203.9350, 7675.000
205.1580, 7539.000
206.3810, 7714.000
207.6040, 7588.000
208.8270, 7599.000
210.0490, 7762.000
211.2710, 7602.000
212.4940, 7535.000
213.7160, 7639.000
214.9370, 7698.000
216.1590, 7629.000
217.3810, 7776.000
218.6020, 7879.000
219.8230, 7919.000
221.0440, 7942.000
222.2650, 8229.000
223.4860, 8507.000
224.7060, 8670.000
225.9260, 8712.000
227.1470, 9011.000
228.3670, 8997.000
229.5860, 8703.000
230.8060, 8187.000
232.0260, 8009.000
233.2450, 7965.000
234.4640, 7853.000
235.6830, 7815.000
236.9020, 7857.000
238.1200, 7765.000
239.3390, 7868.000
240.5570, 7830.000
241.7750, 7967.000
242.9930, 7942.000
244.2110, 7904.000
245.4290, 7972.000
246.6460, 8077.000
247.8630, 8037.000
249.0810, 7990.000
250.2980, 8006.669
251.5140, 8180.000
252.7310, 8009.000
253.9470, 8016.000
255.1640, 8141.000
256.3800, 7977.000
257.5960, 7952.000
258.8120, 8453.000
260.0270, 8222.552
261.2430, 8404.000
262.4580, 8203.000
263.6730, 8050.000
264.8880, 8053.000
266.1030, 8187.000
267.3170, 8193.000
268.5320, 8368.000
269.7460, 8616.000
270.9600, 8480.000
272.1740, 8525.000
273.3880, 8789.000
274.6010, 9165.000
275.8150, 9495.000
277.0280, 9768.000
278.2410, 9955.000
279.4540, 9990.000
280.6670, 9877.000
281.8790, 9557.000
283.0920, 9195.000
284.3040, 9267.000
285.5160, 9187.000
286.7280, 9402.000
287.9400, 9892.000
289.1510, 10518.00
290.3630, 11293.00
291.5740, 12268.00
292.7850, 13042.00
293.9960, 13667.00
295.2070, 13722.00
296.4170, 14079.00
297.6280, 15820.00
298.8380, 18378.00
300.0480, 20649.00
301.2580, 22586.00
302.4680, 23172.00
303.6770, 22034.00
304.8870, 18533.00
306.0960, 15252.00
307.3050, 12628.00
308.5140, 11046.00
309.7230, 10196.00
310.9310, 9975.000
312.1400, 9992.000
313.3480, 10035.00
314.5560, 10430.00
315.7640, 10640.00
316.9720, 10854.00
318.1790, 11089.00
319.3870, 11179.00
320.5940, 11293.00
321.8010, 11947.00
323.0080, 12984.00
324.2150, 14167.00
325.4210, 14910.00
326.6280, 15076.00
327.8340, 14726.00
329.0400, 13553.00
330.2460, 12069.00
331.4510, 10758.00
332.6570, 10283.00
333.8620, 9992.000
335.0680, 9774.000
336.2730, 9896.000
337.4780, 10086.00
338.6820, 10353.00
339.8870, 10770.00
341.0910, 10989.00
342.2950, 11058.00
343.5000, 10913.00
344.7030, 10588.00
345.9070, 10101.00
347.1110, 9761.000
348.3140, 9786.000
349.5170, 9965.000
350.7200, 10246.00
351.9230, 10937.00
353.1260, 11142.00
354.3290, 11562.00
355.5310, 12261.00
356.7330, 13368.00
357.9350, 14900.00
359.1370, 16483.00
360.3390, 17503.00
361.5400, 17665.00
362.7420, 16833.00
363.9430, 14960.00
365.1440, 13287.00
366.3450, 12364.00
367.5460, 11770.00
368.7460, 12054.00
369.9470, 12305.00
371.1470, 12966.00
372.3470, 13644.00
373.5470, 14434.00
374.7460, 15201.00
375.9460, 15916.00
377.1450, 16394.00
378.3450, 16706.00
379.5440, 16462.00
380.7430, 16014.00
381.9410, 16625.00
383.1400, 17507.00
384.3380, 18696.00
385.5370, 19432.00
386.7350, 19457.00
387.9320, 18769.00
389.1300, 18040.00
390.3280, 17945.00
391.5250, 17894.00
392.7220, 17952.00
393.9190, 17869.00
395.1160, 16926.00
396.3130, 15860.00
397.5100, 15072.00
398.7060, 14458.00
399.9020, 14918.00
401.0980, 16111.00
402.2940, 17800.00
403.4900, 19399.00
404.6860, 20130.00
405.8810, 19976.00
407.0760, 18400.00
408.2710, 16233.00
409.4660, 14165.00
410.6610, 12994.00
411.8550, 12108.00
413.0500, 11851.00
414.2440, 11591.00
415.4380, 11646.00
416.6320, 11793.00
417.8260, 12157.00
419.0190, 12281.00
420.2130, 12583.00
421.4060, 12274.00
422.5990, 11846.00
423.7920, 11791.00
424.9850, 11407.00
426.1770, 11452.00
427.3700, 11829.00
428.5620, 12148.00
429.7540, 12751.00
430.9460, 13510.00
432.1380, 14408.00
433.3290, 15733.00
434.5210, 17162.00
435.7120, 18827.00
436.9030, 20835.00
438.0940, 21338.00
439.2850, 21582.00
440.4750, 20608.00
441.6660, 18847.00
442.8560, 16566.00
444.0460, 14920.00
445.2360, 13959.00
446.4260, 13716.00
447.6160, 13693.00
448.8050, 13708.00
449.9940, 13413.00
451.1830, 12920.00
452.3720, 12160.00
453.5610, 11607.00
454.7500, 11136.00
455.9380, 10775.00
457.1260, 10825.00
458.3150, 10820.00
459.5020, 10774.00
460.6900, 10804.00
461.8780, 10936.00
463.0650, 10999.00
464.2530, 11172.00
465.4400, 11308.00
466.6270, 11340.00
467.8130, 11379.00
469.0000, 11331.00
470.1870, 11343.00
471.3730, 11349.00
472.5590, 11567.00
473.7450, 11662.00
474.9310, 12198.00
476.1160, 12937.00
477.3020, 13865.00
478.4870, 15763.00
479.6720, 17458.00
480.8570, 19386.00
482.0420, 21795.00
483.2270, 25435.00
484.4110, 29941.00
485.5960, 34049.00
486.7800, 36025.00
487.9640, 35995.00
489.1480, 33428.00
490.3310, 28743.00
491.5150, 24354.00
492.6980, 20875.00
493.8810, 18612.00
495.0640, 17042.00
496.2470, 15796.00
497.4300, 14588.00
498.6120, 13756.00
499.7950, 13160.00
500.9770, 12629.00
502.1590, 12521.00
503.3410, 12474.00
504.5220, 12337.00
505.7040, 12464.00
506.8850, 12721.00
508.0660, 12898.00
509.2470, 13244.00
510.4280, 13683.00
511.6090, 14018.00
512.7890, 14217.00
513.9700, 14023.00
515.1500, 13684.00
516.3300, 13075.00
517.5100, 12639.00
518.6900, 12164.00
519.8690, 11800.10
521.0490, 11440.00
522.2280, 11260.00
523.4070, 11119.00
524.5860, 11041.00
525.7640, 11000.00
526.9430, 10810.00
528.1210, 10838.77
529.3000, 10781.00
530.4780, 10869.00
531.6560, 10886.00
532.8330, 10990.00
534.0110, 10922.00
535.1880, 10972.00
536.3650, 10949.00
537.5430, 11110.00
538.7190, 11008.00
539.8960, 11131.00
541.0730, 11318.00
542.2490, 11388.00
543.4250, 11526.87
544.6020, 11483.00
545.7780, 11670.00
546.9530, 11716.00
548.1290, 11614.00
549.3040, 11616.00
550.4800, 11591.00
551.6550, 11494.00
552.8300, 11537.00
554.0040, 11773.00
555.1790, 11994.00
556.3540, 12283.00
557.5280, 12768.00
558.7020, 13122.00
559.8760, 13974.00
561.0500, 14501.00
562.2230, 15508.00
563.3970, 15877.00
564.5700, 15790.00
565.7430, 15299.00
566.9160, 14451.00
568.0890, 13901.00
569.2620, 13613.00
570.4340, 13691.00
571.6070, 13461.00
572.7790, 13556.00
573.9510, 13315.00
575.1230, 13171.00
576.2940, 12776.00
577.4660, 12253.00
578.6370, 11984.00
579.8080, 11866.00
580.9790, 11666.00
582.1500, 11625.00
583.3210, 11628.00
584.4910, 11572.00
585.6620, 11603.00
586.8320, 11592.48
588.0020, 11652.00
589.1720, 11598.00
590.3410, 11602.00
591.5110, 11583.00
592.6800, 11611.78
593.8500, 11657.72
595.0190, 11732.00
596.1880, 11840.00
597.3560, 11980.00
598.5250, 12193.00
599.6930, 12344.00
600.8620, 12744.00
602.0300, 13156.00
603.1970, 13484.00
604.3650, 14017.00
605.5330, 14569.00
606.7000, 14734.00
607.8680, 14684.00
609.0350, 14149.00
610.2020, 13858.00
611.3680, 13431.00
612.5350, 13181.12
613.7010, 12990.00
614.8680, 12858.00
616.0340, 12720.00
617.2000, 12788.00
618.3660, 12757.00
619.5310, 12716.00
620.6970, 12691.00
621.8620, 12481.00
623.0270, 12491.00
624.1920, 12411.00
625.3570, 12618.00
626.5220, 12382.00
627.6860, 12665.00
628.8500, 12854.00
630.0140, 12869.00
631.1780, 12808.00
632.3420, 12798.00
633.5060, 12852.00
634.6700, 12730.00
635.8330, 12786.00
636.9960, 12761.00
638.1590, 12747.00
639.3220, 12664.93
640.4850, 12536.00
641.6470, 12405.00
642.8100, 12233.00
643.9720, 12022.00
645.1340, 11979.00
646.2960, 11794.00
647.4570, 11935.00
648.6190, 11963.00
649.7800, 11893.00
650.9420, 12016.00
652.1030, 12158.00
653.2640, 12109.00
654.4240, 12132.00
655.5850, 12279.00
656.7450, 12381.00
657.9060, 12388.00
659.0660, 12352.00
660.2260, 12388.00
661.3850, 12230.00
662.5450, 12309.00
663.7040, 12340.00
664.8640, 12395.00
666.0230, 12571.00
667.1820, 12574.00
668.3410, 12746.00
669.4990, 12737.00
670.6580, 12864.00
671.8160, 12834.96
672.9740, 12912.00
674.1320, 12717.00
675.2900, 12551.00
676.4480, 12407.00
677.6050, 12299.00
678.7630, 12371.00
679.9200, 12183.00
681.0770, 12360.00
682.2340, 12302.00
683.3900, 12387.00
684.5470, 12191.00
685.7030, 12255.00
686.8590, 12167.00
688.0150, 12189.00
689.1710, 12291.00
690.3270, 12146.00
691.4830, 12110.00
692.6380, 12129.00
693.7930, 12158.00
694.9480, 12200.00
696.1030, 12240.00
697.2580, 12135.00
698.4130, 12275.00
699.5670, 12260.00
700.7210, 12238.00
701.8750, 12466.00
703.0290, 12298.00
704.1830, 12347.00
705.3370, 12317.00
706.4900, 12390.00
707.6430, 12339.00
708.7970, 12268.00
709.9490, 12273.00
711.1020, 12254.00
712.2550, 12359.00
713.4070, 12232.00
714.5600, 12188.00
715.7120, 12494.00
716.8640, 12367.00
718.0160, 12402.00
719.1670, 12472.00
720.3190, 12419.00
721.4700, 12541.00
722.6210, 12580.00
723.7720, 12621.00
724.9230, 12649.00
726.0740, 12613.06
727.2250, 12599.70
728.3750, 12500.00
729.5250, 12501.00
730.6750, 12420.00
731.8250, 12355.88
732.9750, 12395.00
734.1240, 12374.00
735.2740, 12282.00
736.4230, 12446.00
737.5720, 12359.00
738.7210, 12409.00
739.8700, 12354.00
741.0190, 12446.00
742.1670, 12354.00
743.3150, 12446.00
744.4630, 12326.00
745.6110, 12545.00
746.7590, 12491.00
747.9070, 12391.00
749.0540, 12469.00
750.2020, 12515.00
751.3490, 12515.00
752.4960, 12589.99
753.6430, 12452.00
754.7890, 12599.00
755.9360, 12692.00
757.0820, 12501.00
758.2280, 12494.00
759.3740, 12577.00
760.5200, 12535.00
761.6660, 12621.00
762.8120, 12630.00
763.9570, 12634.00
765.1020, 12628.00
766.2470, 12580.00
767.3920, 12636.00
768.5370, 12661.00
769.6810, 12731.00
770.8260, 12639.00
771.9700, 12696.00
773.1140, 12763.00
774.2580, 12632.00
775.4020, 12836.00
776.5460, 12700.00
777.6890, 12739.00
778.8320, 12733.00
779.9750, 12740.00
781.1180, 12756.00
782.2610, 12781.08
783.4040, 12814.71
784.5460, 12843.00
785.6890, 12872.00
786.8310, 12885.00
787.9730, 12853.00
789.1150, 12930.00
790.2560, 12827.00
791.3980, 13006.00
792.5390, 12947.00
793.6810, 13082.00
794.8220, 13042.00
795.9630, 13028.00
797.1030, 13085.00
798.2440, 13114.00
799.3840, 12948.00
800.5240, 13157.00
801.6650, 13003.00
802.8040, 13047.00
803.9440, 13163.00
805.0840, 13112.00
806.2230, 13034.00
807.3630, 13205.00
808.5020, 13248.00
809.6410, 13334.00
810.7790, 13277.00
811.9180, 13374.00
813.0570, 13208.00
814.1950, 13394.00
815.3330, 13345.00
816.4710, 13395.00
817.6090, 13257.00
818.7470, 13375.00
819.8840, 13338.00
821.0220, 13406.00
822.1590, 13481.00
823.2960, 13551.00
824.4330, 13472.00
825.5690, 13553.00
826.7060, 13473.00
827.8420, 13518.00
828.9790, 13562.00
830.1150, 13581.00
831.2510, 13582.00
832.3860, 13580.00
833.5220, 13642.00
834.6570, 13774.00
835.7930, 13583.00
836.9280, 13838.00
838.0630, 13726.00
839.1980, 13831.00
840.3320, 13712.00
841.4670, 13852.00
842.6010, 13693.00
843.7350, 14047.00
844.8690, 13773.00
846.0030, 13869.00
847.1370, 13853.00
848.2700, 14111.00
849.4040, 14045.00
850.5370, 14139.00
851.6700, 14170.12
852.8030, 14117.00
853.9360, 14147.00
855.0680, 14213.00
856.2000, 14181.00
857.3330, 14275.00
858.4650, 14311.75
859.5970, 14479.00
860.7290, 14436.00
861.8600, 14475.00
862.9920, 14547.00
864.1230, 14730.00
865.2540, 14762.00
866.3850, 14773.00
867.5160, 14873.00
868.6460, 14794.00
869.7770, 15094.00
870.9070, 14897.00
872.0370, 15262.00
873.1670, 15402.00
874.2970, 15523.00
875.4270, 15674.00
876.5570, 15948.00
877.6860, 16093.00
878.8150, 16599.00
879.9440, 16716.00
881.0730, 17409.00
882.2020, 17772.00
883.3300, 18595.00
884.4590, 19298.00
885.5870, 20158.00
886.7150, 21066.00
887.8430, 21927.00
888.9710, 22734.00
890.0990, 23051.00
891.2260, 23032.00
892.3530, 22912.00
893.4810, 22070.00
894.6080, 21423.00
895.7340, 20728.00
896.8610, 20354.00
897.9880, 20272.00
899.1140, 20175.00
900.2400, 20157.00
901.3660, 20199.00
902.4920, 20088.00
903.6180, 19829.00
904.7430, 19423.00
905.8690, 18740.00
906.9940, 18270.00
908.1190, 17657.00
909.2440, 17416.00
910.3690, 17137.00
911.4930, 16939.00
912.6180, 16882.00
913.7420, 16939.00
914.8660, 16816.00
915.9900, 16840.87
917.1140, 16674.00
918.2380, 16809.00
919.3610, 16739.00
920.4850, 16683.00
921.6080, 16990.00
922.7310, 16935.00
923.8540, 16974.00
924.9760, 17110.00
926.0990, 17268.00
927.2210, 17386.00
928.3440, 17599.00
929.4660, 17844.00
930.5880, 18175.00
931.7090, 18669.00
932.8310, 18905.00
933.9520, 19377.00
935.0740, 19973.00
936.1950, 20348.00
937.3160, 20751.00
938.4360, 21183.00
939.5570, 21556.00
940.6780, 21975.00
941.7980, 22541.00
942.9180, 23073.00
944.0380, 23951.00
945.1580, 24504.00
946.2780, 25415.00
947.3970, 26109.00
948.5170, 26940.00
949.6360, 27602.00
950.7550, 28308.00
951.8740, 28497.00
952.9930, 28652.00
954.1110, 28562.00
955.2300, 28136.00
956.3480, 28234.00
957.4660, 27866.00
958.5840, 28002.00
959.7020, 27537.00
960.8190, 27949.00
961.9370, 27747.00
963.0540, 27374.00
964.1710, 26761.00
965.2880, 25756.00
966.4050, 24641.00
967.5220, 23557.00
968.6380, 22484.00
969.7550, 21559.00
970.8710, 20785.57
971.9870, 20035.00
973.1030, 19548.00
974.2190, 19086.00
975.3340, 18735.00
976.4500, 18344.00
977.5650, 18046.99
978.6800, 17750.00
979.7950, 17579.00
980.9100, 17305.00
982.0250, 17216.00
983.1390, 17025.00
984.2530, 17131.00
985.3680, 16963.00
986.4820, 17030.00
987.5950, 17003.00
988.7090, 16950.00
989.8230, 17053.28
990.9360, 16999.00
992.0490, 17242.00
993.1620, 17369.00
994.2750, 17534.00
995.3880, 17914.00
996.5010, 18326.00
997.6130, 18839.00
998.7250, 19331.00
999.8370, 19547.00
1000.949, 20017.00
1002.061, 20066.00
1003.173, 19767.00
1004.284, 19451.00
1005.396, 18716.00
1006.507, 18337.00
1007.618, 17804.00
1008.729, 17387.00
1009.839, 17115.00
1010.950, 17110.00
1012.060, 16932.00
1013.171, 16814.00
1014.281, 16481.00
1015.391, 16557.00
1016.500, 16323.00
1017.610, 16460.00
1018.719, 16365.00
1019.829, 16290.00
1020.938, 16349.00
1022.047, 16313.00
1023.156, 16211.00
1024.264, 16383.00
1025.373, 16094.00
1026.481, 16162.00
1027.589, 16118.00
1028.697, 16269.00
1029.805, 16287.00
1030.913, 16233.00
1032.020, 16185.00
1033.128, 16121.00
1034.235, 16137.00
1035.342, 16178.00
1036.449, 16159.00
1037.556, 16025.00
1038.663, 16171.00
1039.769, 16099.00
1040.875, 16044.00
1041.981, 16096.00
1043.087, 16257.00
1044.193, 16176.00
1045.299, 16227.00
1046.404, 16290.00
1047.510, 16294.00
1048.615, 16338.41
1049.720, 16359.00
1050.825, 16358.00
1051.930, 16347.00
1053.034, 16292.00
1054.139, 16238.00
1055.243, 16259.81
1056.347, 16371.00
1057.451, 16329.00
1058.555, 16347.00
1059.658, 16456.00
1060.762, 16313.00
1061.865, 16469.00
1062.968, 16541.00
1064.071, 16521.00
1065.174, 16526.00
1066.277, 16429.00
1067.380, 16449.00
1068.482, 16431.00
1069.584, 16578.00
1070.686, 16459.00
1071.788, 16469.00
1072.890, 16557.00
1073.992, 16448.00
1075.093, 16700.00
1076.194, 16547.00
1077.295, 16542.00
1078.396, 16686.00
1079.497, 16457.00
1080.598, 16585.00
1081.698, 16566.00
1082.799, 16694.00
1083.899, 16615.00
1084.999, 16655.56
1086.099, 16683.00
1087.199, 16682.00
1088.298, 16723.00
1089.398, 16706.70
1090.497, 16675.00
1091.596, 16696.00
1092.695, 16709.00
1093.794, 16735.00
1094.892, 16821.00
1095.991, 16826.00
1097.089, 16964.00
1098.187, 16766.00
1099.285, 16803.00
1100.383, 16798.00
1101.481, 16859.00
1102.579, 16906.00
1103.676, 16754.00
1104.773, 16830.00
1105.870, 17049.00
1106.967, 16956.00
1108.064, 17091.00
1109.161, 16848.00
1110.257, 17037.00
1111.353, 16949.00
1112.449, 17045.00
1113.545, 17048.00
1114.641, 16922.00
1115.737, 17121.00
1116.832, 17084.00
1117.928, 17095.00
1119.023, 17103.00
1120.118, 17194.00
1121.213, 17097.00
1122.308, 17114.00
1123.402, 17302.00
1124.497, 17285.00
1125.591, 17192.00
1126.685, 17272.00
1127.779, 17298.00
1128.873, 17206.00
1129.967, 17143.00
1131.060, 17204.00
1132.153, 17300.00
1133.247, 17325.00
1134.340, 17298.00
1135.433, 17524.00
1136.525, 17422.00
1137.618, 17434.00
1138.710, 17359.00
1139.802, 17321.20
1140.895, 17449.00
1141.987, 17323.00
1143.078, 17442.00
1144.170, 17624.00
1145.261, 17499.00
1146.353, 17638.00
1147.444, 17565.00
1148.535, 17516.00
1149.626, 17519.00
1150.716, 17542.00
1151.807, 17573.77
1152.897, 17550.00
1153.988, 17677.00
1155.078, 17713.00
1156.168, 17726.00
1157.257, 17644.00
1158.347, 17662.00
1159.436, 17607.00
1160.526, 17657.96
1161.615, 17680.68
1162.704, 17836.00
1163.793, 17660.00
1164.881, 17847.00
1165.970, 17601.00
1167.058, 17984.00
1168.147, 17776.00
1169.235, 17842.00
1170.323, 17726.00
1171.410, 17962.00
1172.498, 18075.00
1173.585, 17856.00
1174.673, 17897.00
1175.760, 17906.00
1176.847, 18031.00
1177.934, 17999.19
1179.020, 18095.00
1180.107, 17987.00
1181.193, 18042.00
1182.279, 18035.00
1183.365, 17897.00
1184.451, 18008.00
1185.537, 18067.00
1186.623, 18044.00
1187.708, 18171.00
1188.793, 18040.00
1189.878, 18133.00
1190.963, 18368.00
1192.048, 18109.00
1193.133, 18254.00
1194.217, 18105.00
1195.302, 18097.00
1196.386, 18273.00
1197.470, 18214.00
1198.554, 18287.00
1199.638, 18521.00
1200.721, 18367.00
1201.805, 18538.00
1202.888, 18500.00
1203.971, 18380.00
1205.054, 18488.00
1206.137, 18491.00
1207.219, 18587.00
1208.302, 18498.00
1209.384, 18609.00
1210.466, 18382.00
1211.548, 18573.00
1212.630, 18488.00
1213.712, 18703.00
1214.794, 18669.00
1215.875, 18552.00
1216.956, 18594.00
1218.037, 18736.00
1219.118, 18851.00
1220.199, 18539.00
1221.280, 18851.00
1222.360, 18727.00
1223.441, 18882.00
1224.521, 18808.00
1225.601, 18801.00
1226.681, 18839.00
1227.760, 18876.00
1228.840, 18983.00
1229.919, 18726.00
1230.999, 19112.00
1232.078, 18978.00
1233.157, 18904.00
1234.236, 19076.00
1235.314, 18960.00
1236.393, 19167.00
1237.471, 19065.00
1238.549, 18984.00
1239.627, 19030.00
1240.705, 19209.00
1241.783, 19353.00
1242.860, 19224.00
1243.938, 19336.00
1245.015, 19162.00
1246.092, 19152.00
1247.169, 19130.00
1248.246, 19099.61
1249.323, 19171.00
1250.399, 19166.00
1251.475, 19309.00
1252.552, 19421.00
1253.628, 19393.00
1254.703, 19462.00
1255.779, 19480.81
1256.855, 19458.00
1257.930, 19543.00
1259.005, 19457.00
1260.080, 19553.00
1261.155, 19491.00
1262.230, 19596.00
1263.305, 19605.00
1264.379, 19716.00
1265.454, 19760.00
1266.528, 19556.00
1267.602, 19585.00
1268.676, 19466.00
1269.750, 19537.00
1270.823, 19530.00
1271.897, 19569.33
1272.970, 19622.70
1274.043, 19711.00
1275.116, 19695.00
1276.189, 19763.00
1277.261, 19732.00
1278.334, 19711.00
1279.406, 19674.00
1280.478, 19706.00
1281.550, 19702.00
1282.622, 19799.00
1283.694, 19883.00
1284.766, 19816.00
1285.837, 19775.00
1286.908, 19870.00
1287.979, 19929.00
1289.050, 19797.00
1290.121, 20006.00
1291.192, 19927.00
1292.262, 20156.00
1293.333, 20263.00
1294.403, 20239.00
1295.473, 20210.00
1296.543, 20109.00
1297.613, 19943.00
1298.682, 20277.00
1299.752, 20473.00
1300.821, 20345.86
1301.890, 20843.00
1302.959, 20241.00
1304.028, 20309.00
1305.096, 20343.00
1306.165, 20326.00
1307.233, 20348.00
1308.301, 20370.05
1309.370, 20416.00
1310.437, 20428.00
1311.505, 20467.07
1312.573, 20486.78
1313.640, 20521.00
1314.708, 20507.00
1315.775, 20501.42
1316.842, 20469.64
1317.908, 20541.00
1318.975, 20454.00
1320.042, 20620.00
1321.108, 20617.00
1322.174, 20732.00
1323.240, 20621.00
1324.306, 20634.00
1325.372, 20662.00
1326.438, 20701.00
1327.503, 20809.00
1328.568, 20794.00
1329.634, 20776.00
1330.699, 20709.00
1331.763, 20764.00
1332.828, 20726.00
1333.893, 20819.00
1334.957, 20825.00
1336.021, 20751.00
1337.085, 20951.00
1338.149, 20827.00
1339.213, 20968.00
1340.277, 20812.00
1341.340, 20972.00
1342.404, 20782.00
1343.467, 20893.00
1344.530, 20896.00
1345.593, 20945.00
1346.655, 20985.43
1347.718, 21028.00
1348.780, 21020.00
1349.843, 21069.00
1350.905, 21050.00
1351.967, 20983.00
1353.028, 21083.00
1354.090, 20967.00
1355.152, 21053.00
1356.213, 21046.00
1357.274, 21208.00
1358.335, 21092.00
1359.396, 21095.00
1360.457, 21284.00
1361.517, 21054.00
1362.578, 20999.00
1363.638, 21135.00
1364.698, 21122.00
1365.758, 21250.00
1366.818, 21236.00
1367.878, 21303.00
1368.937, 21358.00
1369.997, 21247.00
1371.056, 21466.00
1372.115, 21293.00
1373.174, 21465.00
1374.232, 21141.00
1375.291, 21397.00
1376.350, 21356.00
1377.408, 21457.00
1378.466, 21350.00
1379.524, 21371.00
1380.582, 21539.00
1381.640, 21358.00
1382.697, 21324.00
1383.754, 21386.00
1384.812, 21475.00
1385.869, 21350.00
1386.926, 21293.00
1387.983, 21379.00
1389.039, 21547.00
1390.096, 21729.00
1391.152, 21569.00
1392.208, 21637.00
1393.264, 21526.00
1394.320, 21665.00
1395.376, 21430.00
1396.431, 21608.00
1397.487, 21698.00
1398.542, 21810.00
1399.597, 21737.00
1400.652, 21788.79
1401.707, 21579.00
1402.762, 21768.00
1403.816, 21779.00
1404.871, 21799.00
1405.925, 21929.00
1406.979, 21880.00
1408.033, 21679.00
1409.086, 21515.00
1410.140, 21932.00
1411.194, 21685.00
1412.247, 21865.00
1413.300, 21839.00
1414.353, 21915.00
1415.406, 21636.00
1416.458, 21750.00
1417.511, 21958.00
1418.563, 21896.00
1419.616, 22111.00
1420.668, 21854.00
1421.720, 22021.00
1422.772, 22054.00
1423.823, 21886.00
1424.875, 22172.00
1425.926, 22049.00
1426.977, 22124.00
1428.028, 22103.00
1429.079, 22214.00
1430.130, 22266.00
1431.180, 22247.20
1432.231, 22342.00
1433.281, 22199.00
1434.331, 22286.00
1435.381, 22223.00
1436.431, 22175.00
1437.481, 22326.00
1438.530, 22260.00
1439.580, 22486.00
1440.629, 22266.00
1441.678, 22382.00
1442.727, 22415.00
1443.776, 22273.00
1444.824, 22416.00
1445.873, 22576.00
1446.921, 22468.00
1447.969, 22475.00
1449.017, 22463.00
1450.065, 22616.00
1451.113, 22439.00
1452.160, 22616.00
1453.208, 22659.00
1454.255, 22416.00
1455.302, 22616.00
1456.349, 22635.00
1457.396, 22624.00
1458.443, 22687.00
1459.489, 22879.00
1460.535, 22827.00
1461.582, 22766.00
1462.628, 22650.00
1463.674, 22775.00
1464.719, 22811.00
1465.765, 22832.00
1466.810, 22880.00
1467.856, 22833.00
1468.901, 22808.00
1469.946, 22857.00
1470.991, 22852.66
1472.035, 22840.00
1473.080, 22905.00
1474.124, 23022.00
1475.169, 23026.00
1476.213, 23055.00
1477.257, 22997.00
1478.300, 23184.00
1479.344, 23253.00
1480.388, 23140.00
1481.431, 23167.00
1482.474, 23141.00
1483.517, 23236.00
1484.560, 23226.00
1485.603, 23281.00
1486.645, 23246.00
1487.688, 23460.00
1488.730, 23229.00
1489.772, 23344.00
1490.814, 23314.00
1491.856, 23179.00
1492.898, 23383.00
1493.939, 23203.00
1494.981, 23470.00
1496.022, 23344.00
1497.063, 23350.00
1498.104, 23583.00
1499.145, 23447.00
1500.186, 23529.00
1501.226, 23486.00
1502.266, 23609.00
1503.307, 23468.00
1504.347, 23377.00
1505.387, 23423.00
1506.426, 23381.00
1507.466, 23624.00
1508.505, 23703.00
1509.545, 23738.00
1510.584, 23738.00
1511.623, 23687.00
1512.662, 23571.00
1513.700, 23631.00
1514.739, 23648.00
1515.777, 23715.00
1516.815, 23805.00
1517.854, 23840.00
1518.892, 23796.00
1519.929, 23700.00
1520.967, 23825.00
1522.004, 23893.00
1523.042, 23914.00
1524.079, 24037.00
1525.116, 23912.00
1526.153, 24144.00
1527.190, 24029.00
1528.226, 24064.00
1529.263, 23938.00
1530.299, 23939.00
1531.335, 24205.00
1532.371, 23983.00
1533.407, 24074.00
1534.443, 24047.00
1535.478, 24336.00
1536.514, 24208.00
1537.549, 24243.00
1538.584, 24121.00
1539.619, 24163.84
1540.654, 24014.00
1541.689, 24228.00
1542.723, 24258.00
1543.757, 24255.00
1544.792, 24152.00
1545.826, 24201.00
1546.860, 24318.00
1547.893, 24399.00
1548.927, 24358.00
1549.960, 24538.00
1550.994, 24273.00
1552.027, 24448.00
1553.060, 24384.00
1554.093, 24340.00
1555.126, 24532.00
1556.158, 24719.00
1557.191, 24410.00
1558.223, 24522.00
1559.255, 24650.00
1560.287, 24525.00
1561.319, 24720.00
1562.350, 24521.00
1563.382, 24818.00
##END=



