##NAMES=Kyanite
##RRUFFID=R050450
##IDEAL CHEMISTRY=Al_2_OSiO_4_
##LOCALITY=Switzerland
##OWNER=RRUFF
##SOURCE=Marcus Origlieri
##DESCRIPTION=Blue bladed crystals
##STATUS=The identification of this mineral has been confirmed by X-ray diffraction and chemical analysis
##URL=rruff.info/R050450
##MEASURED CHEMISTRY=Al_2.00_OSi_1.00_O_4_
##PIN_ID=M00970
##ORIENTATION=Laser parallel to -a* (-1 0 0). Fiducial mark perpendicular to laser is parallel to b [0 1 0]
148.7160, 7216.000
149.9470, 7274.000
151.1780, 7168.000
152.4080, 7323.000
153.6380, 7181.000
154.8690, 7187.000
156.0980, 7176.000
157.3280, 7181.000
158.5580, 7173.000
159.7870, 7230.000
161.0170, 7225.000
162.2460, 7271.000
163.4750, 7142.000
164.7030, 7165.000
165.9320, 7130.000
167.1600, 7108.000
168.3890, 7098.000
169.6170, 7076.000
170.8450, 7202.000
172.0730, 7102.000
173.3000, 7220.000
174.5280, 7110.000
175.7550, 7102.000
176.9820, 7047.000
178.2090, 7063.000
179.4350, 7054.000
180.6620, 7200.000
181.8880, 7191.000
183.1150, 7101.000
184.3410, 7092.000
185.5670, 7039.000
186.7920, 7056.000
188.0180, 7091.000
189.2430, 7179.000
190.4690, 7049.000
191.6940, 7159.000
192.9180, 7124.000
194.1430, 7092.000
195.3680, 7252.000
196.5920, 7194.000
197.8160, 7391.000
199.0400, 7324.000
200.2640, 7224.000
201.4880, 7259.000
202.7110, 7538.000
203.9350, 7538.000
205.1580, 7739.000
206.3810, 7976.000
207.6040, 8098.000
208.8270, 8031.000
210.0490, 7718.000
211.2710, 7565.000
212.4940, 7353.000
213.7160, 7349.000
214.9370, 7229.000
216.1590, 7269.000
217.3810, 7296.000
218.6020, 7306.000
219.8230, 7452.000
221.0440, 7455.000
222.2650, 7483.000
223.4860, 7742.000
224.7060, 7957.000
225.9260, 8098.000
227.1470, 8082.740
228.3670, 8210.000
229.5860, 7848.000
230.8060, 7759.000
232.0260, 7509.000
233.2450, 7394.000
234.4640, 7398.000
235.6830, 7437.000
236.9020, 7388.000
238.1200, 7395.000
239.3390, 7375.000
240.5570, 7415.000
241.7750, 7495.000
242.9930, 7572.000
244.2110, 7660.000
245.4290, 7634.000
246.6460, 7637.000
247.8630, 7648.000
249.0810, 7594.000
250.2980, 7778.000
251.5140, 7636.000
252.7310, 7585.000
253.9470, 7465.000
255.1640, 7605.000
256.3800, 7374.000
257.5960, 7339.000
258.8120, 7544.000
260.0270, 7519.000
261.2430, 7460.000
262.4580, 7311.000
263.6730, 7454.000
264.8880, 7365.000
266.1030, 7365.000
267.3170, 7535.000
268.5320, 7749.000
269.7460, 7928.000
270.9600, 8054.000
272.1740, 8113.000
273.3880, 8311.000
274.6010, 8857.000
275.8150, 9519.000
277.0280, 10500.00
278.2410, 11084.00
279.4540, 10638.00
280.6670, 9787.000
281.8790, 9115.000
283.0920, 8679.000
284.3040, 8571.000
285.5160, 8510.000
286.7280, 8634.000
287.9400, 9148.000
289.1510, 9900.000
290.3630, 11280.00
291.5740, 12607.00
292.7850, 13460.00
293.9960, 13582.00
295.2070, 13061.00
296.4170, 13514.00
297.6280, 15304.00
298.8380, 18647.00
300.0480, 22798.00
301.2580, 28111.00
302.4680, 29564.00
303.6770, 24974.00
304.8870, 19226.00
306.0960, 14717.00
307.3050, 11925.00
308.5140, 9992.000
309.7230, 9159.000
310.9310, 8719.000
312.1400, 8453.000
313.3480, 8522.000
314.5560, 8939.000
315.7640, 9441.000
316.9720, 10147.00
318.1790, 10881.00
319.3870, 11229.00
320.5940, 12009.00
321.8010, 13765.00
323.0080, 16769.00
324.2150, 20420.00
325.4210, 24677.00
326.6280, 26192.00
327.8340, 22849.00
329.0400, 17858.00
330.2460, 14206.00
331.4510, 11415.00
332.6570, 9935.000
333.8620, 9120.000
335.0680, 8784.000
336.2730, 8475.000
337.4780, 8666.000
338.6820, 8895.000
339.8870, 9204.000
341.0910, 9606.000
342.2950, 9676.000
343.5000, 9484.000
344.7030, 9170.000
345.9070, 8877.000
347.1110, 8534.000
348.3140, 8461.000
349.5170, 8458.000
350.7200, 8754.000
351.9230, 9233.000
353.1260, 9593.000
354.3290, 9691.000
355.5310, 10183.00
356.7330, 11227.00
357.9350, 12731.00
359.1370, 14796.00
360.3390, 16875.00
361.5400, 16804.00
362.7420, 14707.00
363.9430, 12499.00
365.1440, 10859.00
366.3450, 10023.00
367.5460, 9721.000
368.7460, 9968.000
369.9470, 10529.00
371.1470, 11173.00
372.3470, 11789.00
373.5470, 12299.00
374.7460, 12630.00
375.9460, 13282.00
377.1450, 14387.00
378.3450, 15279.00
379.5440, 15676.00
380.7430, 15928.00
381.9410, 17860.00
383.1400, 20548.00
384.3380, 23951.00
385.5370, 26708.00
386.7350, 25636.00
387.9320, 22403.00
389.1300, 19909.00
390.3280, 19031.00
391.5250, 19845.00
392.7220, 21404.00
393.9190, 20329.00
395.1160, 17470.00
396.3130, 15296.00
397.5100, 14043.00
398.7060, 13658.00
399.9020, 14407.00
401.0980, 16675.00
402.2940, 19720.00
403.4900, 23898.00
404.6860, 26137.00
405.8810, 24470.00
407.0760, 20091.00
408.2710, 16278.00
409.4660, 13182.00
410.6610, 11246.00
411.8550, 10037.00
413.0500, 9458.000
414.2440, 9131.000
415.4380, 9071.000
416.6320, 9270.000
417.8260, 9461.000
419.0190, 9718.000
420.2130, 9935.000
421.4060, 9779.000
422.5990, 9318.000
423.7920, 9255.000
424.9850, 9072.000
426.1770, 9188.000
427.3700, 9619.000
428.5620, 10180.00
429.7540, 10861.00
430.9460, 11618.00
432.1380, 13288.00
433.3290, 14800.00
434.5210, 16999.00
435.7120, 19761.00
436.9030, 22177.00
438.0940, 23528.00
439.2850, 24024.00
440.4750, 21738.00
441.6660, 18539.00
442.8560, 15253.00
444.0460, 13190.00
445.2360, 12245.00
446.4260, 12152.00
447.6160, 12494.00
448.8050, 12784.00
449.9940, 12441.00
451.1830, 11349.00
452.3720, 10416.00
453.5610, 9671.000
454.7500, 9136.000
455.9380, 8910.000
457.1260, 8682.000
458.3150, 8624.000
459.5020, 8621.000
460.6900, 8885.000
461.8780, 9089.000
463.0650, 9235.000
464.2530, 9583.000
465.4400, 9793.000
466.6270, 9986.000
467.8130, 9805.000
469.0000, 9579.000
470.1870, 9533.000
471.3730, 9615.000
472.5590, 9691.000
473.7450, 10066.00
474.9310, 10565.00
476.1160, 11632.00
477.3020, 13200.00
478.4870, 15442.00
479.6720, 17718.00
480.8570, 20497.00
482.0420, 24193.00
483.2270, 30002.00
484.4110, 38128.00
485.5960, 47151.00
486.7800, 53553.00
487.9640, 52076.00
489.1480, 44748.00
490.3310, 35842.00
491.5150, 28765.00
492.6980, 23775.00
493.8810, 20400.00
495.0640, 17960.00
496.2470, 15617.00
497.4300, 13886.00
498.6120, 12395.00
499.7950, 11561.00
500.9770, 10697.00
502.1590, 10426.00
503.3410, 9944.000
504.5220, 9881.000
505.7040, 9659.000
506.8850, 9736.000
508.0660, 9711.000
509.2470, 9926.000
510.4280, 9970.000
511.6090, 10100.00
512.7890, 10136.00
513.9700, 9992.000
515.1500, 9691.000
516.3300, 9395.000
517.5100, 9138.000
518.6900, 8867.000
519.8690, 8699.000
521.0490, 8532.000
522.2280, 8531.000
523.4070, 8424.000
524.5860, 8376.000
525.7640, 8263.000
526.9430, 8230.493
528.1210, 8208.918
529.3000, 8172.000
530.4780, 8219.000
531.6560, 8221.000
532.8330, 8256.000
534.0110, 8142.000
535.1880, 8300.000
536.3650, 8297.000
537.5430, 8166.000
538.7190, 8242.000
539.8960, 8338.000
541.0730, 8410.000
542.2490, 8311.000
543.4250, 8327.000
544.6020, 8402.000
545.7780, 8426.056
546.9530, 8608.000
548.1290, 8581.000
549.3040, 8510.000
550.4800, 8541.000
551.6550, 8715.000
552.8300, 8674.000
554.0040, 8881.000
555.1790, 8929.000
556.3540, 9267.000
557.5280, 9579.000
558.7020, 10004.00
559.8760, 10656.00
561.0500, 11846.00
562.2230, 12724.00
563.3970, 13403.00
564.5700, 13024.00
565.7430, 12171.00
566.9160, 11122.00
568.0890, 10319.00
569.2620, 9802.000
570.4340, 9495.000
571.6070, 9255.000
572.7790, 9207.000
573.9510, 9126.000
575.1230, 9161.000
576.2940, 8950.000
577.4660, 9154.000
578.6370, 8979.000
579.8080, 8962.000
580.9790, 9167.000
582.1500, 9238.000
583.3210, 9440.000
584.4910, 9422.000
585.6620, 9638.000
586.8320, 9791.000
588.0020, 9664.000
589.1720, 9441.000
590.3410, 9225.000
591.5110, 8983.000
592.6800, 8993.000
593.8500, 8953.000
595.0190, 9036.000
596.1880, 9119.000
597.3560, 9277.000
598.5250, 9452.000
599.6930, 9774.000
600.8620, 10089.00
602.0300, 10558.00
603.1970, 11027.00
604.3650, 11513.00
605.5330, 12148.00
606.7000, 12641.00
607.8680, 12460.00
609.0350, 12222.00
610.2020, 11531.00
611.3680, 11024.00
612.5350, 10675.00
613.7010, 10459.00
614.8680, 10379.00
616.0340, 10636.00
617.2000, 10694.00
618.3660, 10854.00
619.5310, 10893.00
620.6970, 10846.00
621.8620, 10905.00
623.0270, 10913.00
624.1920, 11010.00
625.3570, 11217.00
626.5220, 11373.00
627.6860, 11566.00
628.8500, 11915.00
630.0140, 12139.00
631.1780, 12311.00
632.3420, 12257.00
633.5060, 12247.00
634.6700, 12454.00
635.8330, 12729.00
636.9960, 13069.00
638.1590, 13280.00
639.3220, 12778.00
640.4850, 12434.00
641.6470, 11606.00
642.8100, 11052.00
643.9720, 10782.00
645.1340, 10610.00
646.2960, 10514.00
647.4570, 10586.00
648.6190, 10572.00
649.7800, 10813.00
650.9420, 11107.00
652.1030, 11398.00
653.2640, 11693.00
654.4240, 12030.00
655.5850, 12599.00
656.7450, 12612.00
657.9060, 12633.00
659.0660, 12222.00
660.2260, 11669.00
661.3850, 11225.00
662.5450, 10664.00
663.7040, 10259.00
664.8640, 10122.00
666.0230, 9990.000
667.1820, 9788.000
668.3410, 9922.000
669.4990, 9881.000
670.6580, 10022.00
671.8160, 9792.000
672.9740, 9687.000
674.1320, 9369.000
675.2900, 9008.000
676.4480, 9034.000
677.6050, 8966.000
678.7630, 8761.000
679.9200, 8889.000
681.0770, 8722.000
682.2340, 8681.000
683.3900, 8738.000
684.5470, 8635.000
685.7030, 8695.000
686.8590, 8725.000
688.0150, 8674.879
689.1710, 8658.007
690.3270, 8624.000
691.4830, 8582.000
692.6380, 8535.000
693.7930, 8603.000
694.9480, 8679.000
696.1030, 8670.451
697.2580, 8595.000
698.4130, 8683.000
699.5670, 8737.000
700.7210, 8674.000
701.8750, 8865.000
703.0290, 8873.000
704.1830, 8762.000
705.3370, 8822.000
706.4900, 8866.000
707.6430, 8735.000
708.7970, 8683.000
709.9490, 8691.000
711.1020, 8679.000
712.2550, 8485.000
713.4070, 8561.000
714.5600, 8509.000
715.7120, 8589.000
716.8640, 8551.000
718.0160, 8626.000
719.1670, 8642.000
720.3190, 8617.000
721.4700, 8771.000
722.6210, 8866.000
723.7720, 8835.000
724.9230, 8791.000
726.0740, 8648.000
727.2250, 8765.000
728.3750, 8795.000
729.5250, 8659.000
730.6750, 8760.000
731.8250, 8641.000
732.9750, 8697.000
734.1240, 8607.000
735.2740, 8750.000
736.4230, 8716.000
737.5720, 8707.000
738.7210, 8605.000
739.8700, 8678.000
741.0190, 8748.000
742.1670, 8855.000
743.3150, 8746.000
744.4630, 8589.000
745.6110, 8641.000
746.7590, 8674.000
747.9070, 8613.000
749.0540, 8667.000
750.2020, 8644.000
751.3490, 8723.000
752.4960, 8741.000
753.6430, 8599.000
754.7890, 8652.000
755.9360, 8660.000
757.0820, 8742.000
758.2280, 8689.000
759.3740, 8605.000
760.5200, 8712.000
761.6660, 8674.000
762.8120, 8723.000
763.9570, 8697.000
765.1020, 8696.000
766.2470, 8767.000
767.3920, 8801.000
768.5370, 8739.000
769.6810, 8722.000
770.8260, 8677.000
771.9700, 8744.000
773.1140, 8756.000
774.2580, 8732.866
775.4020, 8749.256
776.5460, 8687.000
777.6890, 8740.000
778.8320, 8700.000
779.9750, 8735.000
781.1180, 8751.000
782.2610, 8631.000
783.4040, 8779.000
784.5460, 8723.000
785.6890, 8768.000
786.8310, 8846.000
787.9730, 8879.000
789.1150, 8893.376
790.2560, 8893.000
791.3980, 8925.000
792.5390, 8847.000
793.6810, 8921.000
794.8220, 8770.000
795.9630, 8855.000
797.1030, 8956.000
798.2440, 8965.000
799.3840, 8905.000
800.5240, 8946.000
801.6650, 8975.000
802.8040, 9036.000
803.9440, 9015.000
805.0840, 8994.000
806.2230, 8971.000
807.3630, 8920.000
808.5020, 8929.225
809.6410, 8908.000
810.7790, 8937.000
811.9180, 9013.000
813.0570, 9030.000
814.1950, 8981.000
815.3330, 9218.000
816.4710, 9151.000
817.6090, 9164.000
818.7470, 9085.000
819.8840, 9028.000
821.0220, 9131.000
822.1590, 9170.000
823.2960, 9197.000
824.4330, 9247.000
825.5690, 9188.000
826.7060, 9242.000
827.8420, 9255.000
828.9790, 9153.000
830.1150, 9279.000
831.2510, 9375.000
832.3860, 9303.000
833.5220, 9334.000
834.6570, 9363.000
835.7930, 9380.000
836.9280, 9418.204
838.0630, 9347.000
839.1980, 9514.000
840.3320, 9462.000
841.4670, 9561.000
842.6010, 9644.000
843.7350, 9568.000
844.8690, 9622.000
846.0030, 9595.000
847.1370, 9582.000
848.2700, 9615.000
849.4040, 9767.000
850.5370, 9787.497
851.6700, 9820.000
852.8030, 9949.000
853.9360, 10000.00
855.0680, 10089.00
856.2000, 10030.00
857.3330, 10155.00
858.4650, 10371.00
859.5970, 10278.00
860.7290, 10347.00
861.8600, 10343.00
862.9920, 10358.00
864.1230, 10373.00
865.2540, 10342.43
866.3850, 10214.00
867.5160, 10300.00
868.6460, 10182.00
869.7770, 10191.00
870.9070, 10145.00
872.0370, 10274.00
873.1670, 10278.00
874.2970, 10331.00
875.4270, 10351.00
876.5570, 10448.00
877.6860, 10509.51
878.8150, 10552.00
879.9440, 10704.00
881.0730, 10873.00
882.2020, 11033.00
883.3300, 10990.00
884.4590, 11317.00
885.5870, 11332.00
886.7150, 11673.00
887.8430, 11893.00
888.9710, 12022.00
890.0990, 12211.00
891.2260, 12216.00
892.3530, 12154.00
893.4810, 12146.00
894.6080, 12162.00
895.7340, 12272.00
896.8610, 12357.00
897.9880, 12621.00
899.1140, 12793.00
900.2400, 13195.00
901.3660, 13225.00
902.4920, 13069.00
903.6180, 12940.00
904.7430, 12663.00
905.8690, 12403.00
906.9940, 12201.00
908.1190, 12127.00
909.2440, 11932.00
910.3690, 11859.00
911.4930, 11662.00
912.6180, 11541.00
913.7420, 11707.00
914.8660, 11707.00
915.9900, 11830.00
917.1140, 11899.00
918.2380, 12023.00
919.3610, 12262.00
920.4850, 12348.00
921.6080, 12414.00
922.7310, 12605.00
923.8540, 13055.00
924.9760, 13176.00
926.0990, 13510.00
927.2210, 13932.00
928.3440, 14240.00
929.4660, 14598.00
930.5880, 15256.00
931.7090, 15647.00
932.8310, 16438.00
933.9520, 17290.00
935.0740, 18067.00
936.1950, 18833.00
937.3160, 19685.00
938.4360, 20851.00
939.5570, 21600.00
940.6780, 22735.00
941.7980, 23902.00
942.9180, 25542.00
944.0380, 27504.00
945.1580, 29619.00
946.2780, 31286.00
947.3970, 33326.00
948.5170, 35302.00
949.6360, 36775.00
950.7550, 38190.00
951.8740, 38892.00
952.9930, 38519.00
954.1110, 37617.00
955.2300, 36847.00
956.3480, 35635.00
957.4660, 34499.00
958.5840, 33738.00
959.7020, 33294.00
960.8190, 32929.00
961.9370, 32381.00
963.0540, 31603.00
964.1710, 30111.00
965.2880, 28186.00
966.4050, 26240.00
967.5220, 24389.00
968.6380, 22194.00
969.7550, 20685.00
970.8710, 19187.00
971.9870, 18057.00
973.1030, 17047.00
974.2190, 15995.00
975.3340, 15407.00
976.4500, 14733.00
977.5650, 14314.00
978.6800, 13905.00
979.7950, 13390.00
980.9100, 12975.00
982.0250, 12855.00
983.1390, 12530.00
984.2530, 12465.00
985.3680, 12144.00
986.4820, 12068.00
987.5950, 12075.00
988.7090, 12164.00
989.8230, 11872.00
990.9360, 11919.00
992.0490, 12169.00
993.1620, 12216.00
994.2750, 12433.00
995.3880, 12805.00
996.5010, 13380.00
997.6130, 13809.00
998.7250, 14516.00
999.8370, 15274.00
1000.949, 15793.00
1002.061, 16109.00
1003.173, 15606.00
1004.284, 15084.00
1005.396, 14055.00
1006.507, 13331.00
1007.618, 12530.00
1008.729, 12072.00
1009.839, 11809.00
1010.950, 11613.00
1012.060, 11349.00
1013.171, 11105.00
1014.281, 11126.00
1015.391, 10956.00
1016.500, 10935.00
1017.610, 10963.00
1018.719, 10906.00
1019.829, 10928.42
1020.938, 10899.00
1022.047, 10939.00
1023.156, 10926.00
1024.264, 10924.00
1025.373, 10804.00
1026.481, 10635.00
1027.589, 10718.00
1028.697, 10495.00
1029.805, 10631.00
1030.913, 10387.00
1032.020, 10409.00
1033.128, 10439.00
1034.235, 10355.00
1035.342, 10292.00
1036.449, 10414.00
1037.556, 10312.00
1038.663, 10277.00
1039.769, 10268.00
1040.875, 10230.00
1041.981, 10290.00
1043.087, 10292.00
1044.193, 10201.00
1045.299, 10270.00
1046.404, 10294.00
1047.510, 10167.00
1048.615, 10327.00
1049.720, 10246.00
1050.825, 10296.00
1051.930, 10352.00
1053.034, 10293.00
1054.139, 10312.00
1055.243, 10289.04
1056.347, 10269.65
1057.451, 10237.00
1058.555, 10270.00
1059.658, 10257.00
1060.762, 10317.00
1061.865, 10204.00
1062.968, 10358.00
1064.071, 10306.00
1065.174, 10253.00
1066.277, 10280.00
1067.380, 10320.00
1068.482, 10300.00
1069.584, 10316.64
1070.686, 10297.00
1071.788, 10325.00
1072.890, 10297.00
1073.992, 10335.00
1075.093, 10357.47
1076.194, 10371.62
1077.295, 10436.00
1078.396, 10445.00
1079.497, 10502.00
1080.598, 10581.00
1081.698, 10604.00
1082.799, 10604.00
1083.899, 10644.36
1084.999, 10660.13
1086.099, 10673.00
1087.199, 10691.00
1088.298, 10701.00
1089.398, 10674.00
1090.497, 10669.17
1091.596, 10578.00
1092.695, 10573.00
1093.794, 10600.00
1094.892, 10449.00
1095.991, 10434.00
1097.089, 10523.00
1098.187, 10462.00
1099.285, 10547.00
1100.383, 10481.00
1101.481, 10392.00
1102.579, 10531.00
1103.676, 10477.00
1104.773, 10464.00
1105.870, 10594.00
1106.967, 10502.00
1108.064, 10522.00
1109.161, 10503.00
1110.257, 10540.00
1111.353, 10475.00
1112.449, 10451.00
1113.545, 10557.00
1114.641, 10636.00
1115.737, 10635.00
1116.832, 10529.00
1117.928, 10503.00
1119.023, 10443.00
1120.118, 10457.05
1121.213, 10506.00
1122.308, 10517.00
1123.402, 10513.00
1124.497, 10526.00
1125.591, 10537.00
1126.685, 10568.00
1127.779, 10443.00
1128.873, 10568.00
1129.967, 10548.00
1131.060, 10492.00
1132.153, 10636.00
1133.247, 10600.00
1134.340, 10448.00
1135.433, 10490.00
1136.525, 10635.00
1137.618, 10537.00
1138.710, 10613.00
1139.802, 10600.58
1140.895, 10481.00
1141.987, 10553.00
1143.078, 10591.00
1144.170, 10548.00
1145.261, 10508.00
1146.353, 10545.00
1147.444, 10595.00
1148.535, 10626.00
1149.626, 10572.00
1150.716, 10512.00
1151.807, 10508.00
1152.897, 10421.00
1153.988, 10681.00
1155.078, 10541.00
1156.168, 10591.00
1157.257, 10578.00
1158.347, 10551.00
1159.436, 10685.00
1160.526, 10594.00
1161.615, 10647.00
1162.704, 10610.00
1163.793, 10647.00
1164.881, 10652.00
1165.970, 10750.00
1167.058, 10690.00
1168.147, 10799.00
1169.235, 10729.00
1170.323, 10727.00
1171.410, 10901.00
1172.498, 10767.00
1173.585, 10697.00
1174.673, 10770.00
1175.760, 10771.00
1176.847, 10790.00
1177.934, 10827.00
1179.020, 10884.00
1180.107, 10790.00
1181.193, 10828.00
1182.279, 10729.00
1183.365, 10843.00
1184.451, 10862.00
1185.537, 10706.00
1186.623, 10688.00
1187.708, 10858.00
1188.793, 10798.00
1189.878, 10742.00
1190.963, 10831.00
1192.048, 10754.00
1193.133, 10737.00
1194.217, 10639.00
1195.302, 10815.00
1196.386, 10785.00
1197.470, 10902.00
1198.554, 10816.00
1199.638, 10881.00
1200.721, 10830.00
1201.805, 10963.00
1202.888, 10887.00
1203.971, 10892.00
1205.054, 10915.00
1206.137, 10901.00
1207.219, 10800.00
1208.302, 10953.00
1209.384, 10795.00
1210.466, 10866.00
1211.548, 10902.00
1212.630, 10878.00
1213.712, 10991.00
1214.794, 11012.00
1215.875, 10904.00
1216.956, 10989.00
1218.037, 11051.00
1219.118, 10982.00
1220.199, 11045.00
1221.280, 10885.00
1222.360, 11033.00
1223.441, 11053.00
1224.521, 11015.00
1225.601, 11255.00
1226.681, 11156.00
1227.760, 11100.00
1228.840, 11193.00
1229.919, 11076.00
1230.999, 11193.00
1232.078, 11094.00
1233.157, 11210.00
1234.236, 11286.00
1235.314, 11256.00
1236.393, 11173.00
1237.471, 11410.00
1238.549, 11349.00
1239.627, 11402.00
1240.705, 11256.00
1241.783, 11321.00
1242.860, 11331.00
1243.938, 11399.00
1245.015, 11303.00
1246.092, 11299.00
1247.169, 11391.00
1248.246, 11414.00
1249.323, 11273.00
1250.399, 11433.00
1251.475, 11297.00
1252.552, 11333.00
1253.628, 11528.00
1254.703, 11544.00
1255.779, 11432.00
1256.855, 11361.00
1257.930, 11386.00
1259.005, 11483.00
1260.080, 11423.00
1261.155, 11551.00
1262.230, 11573.00
1263.305, 11702.00
1264.379, 11698.00
1265.454, 11653.00
1266.528, 11580.00
1267.602, 11494.00
1268.676, 11805.00
1269.750, 11703.00
1270.823, 11650.00
1271.897, 11915.00
1272.970, 11779.00
1274.043, 11661.00
1275.116, 11720.00
1276.189, 11753.00
1277.261, 11693.00
1278.334, 11599.00
1279.406, 11692.00
1280.478, 11752.00
1281.550, 11520.00
1282.622, 11690.00
1283.694, 11625.00
1284.766, 11574.00
1285.837, 11715.00
1286.908, 11616.00
1287.979, 11655.00
1289.050, 11637.00
1290.121, 11662.43
1291.192, 11826.00
1292.262, 11800.00
1293.333, 11717.00
1294.403, 11861.00
1295.473, 11864.00
1296.543, 11780.00
1297.613, 11950.00
1298.682, 11855.00
1299.752, 11830.00
1300.821, 11858.00
1301.890, 11815.00
1302.959, 11874.28
1304.028, 11908.00
1305.096, 11916.00
1306.165, 12039.00
1307.233, 11921.00
1308.301, 12005.00
1309.370, 12143.00
1310.437, 12134.00
1311.505, 12110.00
1312.573, 11992.00
1313.640, 12117.00
1314.708, 12096.00
1315.775, 12107.00
1316.842, 12135.00
1317.908, 12200.00
1318.975, 12070.00
1320.042, 12122.90
1321.108, 12225.00
1322.174, 12113.00
1323.240, 12092.00
1324.306, 12101.00
1325.372, 12048.00
1326.438, 12109.00
1327.503, 12008.00
1328.568, 11982.00
1329.634, 11842.00
1330.699, 11964.00
1331.763, 11751.00
1332.828, 11762.00
1333.893, 11931.00
1334.957, 11913.00
1336.021, 11850.00
1337.085, 11859.00
1338.149, 11773.00
1339.213, 11917.00
1340.277, 11791.00
1341.340, 11780.00
1342.404, 11761.00
1343.467, 11696.00
1344.530, 11875.00
1345.593, 11888.00
1346.655, 11908.00
1347.718, 11897.00
1348.780, 11800.00
1349.843, 11969.00
1350.905, 11839.00
1351.967, 11673.00
1353.028, 11800.00
1354.090, 11769.00
1355.152, 11765.00
1356.213, 11882.00
1357.274, 11985.00
1358.335, 11908.00
1359.396, 11952.00
1360.457, 11912.00
1361.517, 11972.00
1362.578, 11991.00
1363.638, 11921.00
1364.698, 11944.00
1365.758, 11951.00
1366.818, 11972.00
1367.878, 11972.50
1368.937, 11999.00
1369.997, 11956.00
1371.056, 12045.00
1372.115, 12011.00
1373.174, 11908.00
1374.232, 11945.00
1375.291, 12019.00
1376.350, 11925.00
1377.408, 12031.00
1378.466, 12091.00
1379.524, 12089.00
1380.582, 12082.00
1381.640, 12173.00
1382.697, 12046.00
1383.754, 11956.00
1384.812, 12118.00
1385.869, 11986.00
1386.926, 12169.00
1387.983, 12149.00
1389.039, 12231.00
1390.096, 12129.00
1391.152, 12127.00
1392.208, 12022.00
1393.264, 12107.00
1394.320, 12137.00
1395.376, 12006.00
1396.431, 11960.00
1397.487, 12084.00
1398.542, 12013.00
1399.597, 12034.00
1400.652, 12090.00
1401.707, 11947.00
1402.762, 12122.00
1403.816, 12012.00
1404.871, 12055.00
1405.925, 12123.00
1406.979, 11953.00
1408.033, 12060.00
1409.086, 12114.00
1410.140, 12104.00
1411.194, 12159.00
1412.247, 12109.00
1413.300, 12102.00
1414.353, 12176.00
1415.406, 12148.00
1416.458, 12116.00
1417.511, 12124.00
1418.563, 12191.00
1419.616, 12224.00
1420.668, 12093.00
1421.720, 12160.00
1422.772, 12250.00
1423.823, 12384.00
1424.875, 12255.00
1425.926, 12343.00
1426.977, 12497.00
1428.028, 12308.00
1429.079, 12404.00
1430.130, 12468.00
1431.180, 12495.00
1432.231, 12394.00
1433.281, 12530.00
1434.331, 12549.00
1435.381, 12656.00
1436.431, 12771.00
1437.481, 12827.00
1438.530, 12827.00
1439.580, 13005.00
1440.629, 12979.00
1441.678, 13122.00
1442.727, 13191.00
1443.776, 13351.00
1444.824, 13401.00
1445.873, 13343.00
1446.921, 13462.00
1447.969, 13487.00
1449.017, 13403.00
1450.065, 13599.00
1451.113, 13529.00
1452.160, 13632.00
1453.208, 13560.00
1454.255, 13616.00
1455.302, 13755.00
1456.349, 13650.00
1457.396, 13739.00
1458.443, 13593.00
1459.489, 13574.00
1460.535, 13643.00
1461.582, 13397.00
1462.628, 13457.00
1463.674, 13422.00
1464.719, 13259.00
1465.765, 13311.00
1466.810, 13180.00
1467.856, 13131.00
1468.901, 13020.00
1469.946, 13060.00
1470.991, 13016.00
1472.035, 12964.00
1473.080, 13050.00
1474.124, 12911.00
1475.169, 13052.00
1476.213, 13079.00
1477.257, 12942.00
1478.300, 13042.00
1479.344, 13091.00
1480.388, 12928.00
1481.431, 12975.00
1482.474, 12907.00
1483.517, 13014.00
1484.560, 12914.00
1485.603, 12920.00
1486.645, 12825.00
1487.688, 12820.00
1488.730, 12790.30
1489.772, 12773.00
1490.814, 12784.00
1491.856, 12825.00
1492.898, 12907.00
1493.939, 12771.00
1494.981, 12791.00
1496.022, 12537.00
1497.063, 12793.00
1498.104, 12990.00
1499.145, 12819.00
1500.186, 12845.00
1501.226, 12866.00
1502.266, 12811.00
1503.307, 12853.00
1504.347, 12785.00
1505.387, 12924.00
1506.426, 12899.00
1507.466, 12774.00
1508.505, 12880.00
1509.545, 12721.00
1510.584, 12764.00
1511.623, 12734.00
1512.662, 12752.00
1513.700, 12758.38
1514.739, 12775.18
1515.777, 12803.00
1516.815, 12820.00
1517.854, 12920.00
1518.892, 12923.00
1519.929, 12782.00
1520.967, 13025.00
1522.004, 12860.00
1523.042, 13103.00
1524.079, 12911.00
1525.116, 13021.00
1526.153, 12983.00
1527.190, 13171.00
1528.226, 13023.00
1529.263, 12965.00
1530.299, 13123.00
1531.335, 13082.00
1532.371, 13201.00
1533.407, 13056.00
1534.443, 13136.00
1535.478, 13230.00
1536.514, 13330.00
1537.549, 13369.00
1538.584, 13209.00
1539.619, 13013.00
1540.654, 13174.00
1541.689, 13202.00
1542.723, 13314.00
1543.757, 13241.00
1544.792, 13191.00
1545.826, 13126.00
1546.860, 13108.45
1547.893, 13193.00
1548.927, 13125.00
1549.960, 13182.00
1550.994, 13280.00
1552.027, 13274.90
1553.060, 13338.00
1554.093, 13387.00
1555.126, 13346.00
1556.158, 13447.00
1557.191, 13294.00
1558.223, 13395.00
1559.255, 13428.00
1560.287, 13451.00
1561.319, 13298.00
1562.350, 13505.00
1563.382, 13330.00
##END=



