##NAMES=Kyanite
##RRUFFID=R050450
##IDEAL CHEMISTRY=Al_2_OSiO_4_
##LOCALITY=Switzerland
##OWNER=RRUFF
##SOURCE=Marcus Origlieri
##DESCRIPTION=Blue bladed crystals
##STATUS=The identification of this mineral has been confirmed by X-ray diffraction and chemical analysis
##URL=rruff.info/R050450
##MEASURED CHEMISTRY=Al_2.00_OSi_1.00_O_4_
##PIN_ID=M00970
##ORIENTATION=Laser parallel to -a* (-1 0 0). Fiducial mark perpendicular to laser is parallel to b [0 1 0]
148.7160, 8023.000
149.9470, 8043.357
151.1780, 8023.000
152.4080, 7983.000
153.6380, 7958.000
154.8690, 7906.000
156.0980, 7883.152
157.3280, 7919.000
158.5580, 7859.000
159.7870, 7947.000
161.0170, 8011.000
162.2460, 7976.000
163.4750, 7953.000
164.7030, 7956.000
165.9320, 7988.000
167.1600, 7879.000
168.3890, 7817.000
169.6170, 7848.000
170.8450, 7915.000
172.0730, 7837.000
173.3000, 7851.000
174.5280, 7816.000
175.7550, 7861.000
176.9820, 7923.000
178.2090, 7794.000
179.4350, 7828.000
180.6620, 7864.000
181.8880, 7792.000
183.1150, 7788.000
184.3410, 7852.000
185.5670, 7860.000
186.7920, 7858.000
188.0180, 7888.999
189.2430, 7884.000
190.4690, 7907.000
191.6940, 7870.000
192.9180, 7864.000
194.1430, 7928.000
195.3680, 7866.000
196.5920, 8049.000
197.8160, 8163.000
199.0400, 8233.000
200.2640, 8253.000
201.4880, 8180.000
202.7110, 8519.000
203.9350, 8760.000
205.1580, 9041.000
206.3810, 9702.000
207.6040, 9738.000
208.8270, 9499.000
210.0490, 10324.00
211.2710, 8558.000
212.4940, 8388.000
213.7160, 8109.000
214.9370, 8070.000
216.1590, 7986.000
217.3810, 8037.000
218.6020, 8029.000
219.8230, 8106.000
221.0440, 8213.000
222.2650, 8227.000
223.4860, 8460.000
224.7060, 8711.000
225.9260, 8960.000
227.1470, 8971.000
228.3670, 8784.000
229.5860, 8526.000
230.8060, 8298.000
232.0260, 8251.000
233.2450, 8125.000
234.4640, 8169.000
235.6830, 8149.000
236.9020, 8206.000
238.1200, 8145.000
239.3390, 8131.000
240.5570, 8309.000
241.7750, 8366.000
242.9930, 8503.000
244.2110, 8680.000
245.4290, 8646.000
246.6460, 8538.000
247.8630, 8593.000
249.0810, 8496.000
250.2980, 8671.000
251.5140, 8628.000
252.7310, 8512.000
253.9470, 8368.000
255.1640, 8295.000
256.3800, 8286.000
257.5960, 8261.000
258.8120, 8336.000
260.0270, 8301.275
261.2430, 8306.000
262.4580, 8262.000
263.6730, 8227.000
264.8880, 8139.000
266.1030, 8372.000
267.3170, 8343.000
268.5320, 8567.000
269.7460, 8826.000
270.9600, 8810.000
272.1740, 8956.000
273.3880, 9594.000
274.6010, 9903.000
275.8150, 10760.00
277.0280, 11964.00
278.2410, 12705.00
279.4540, 11821.00
280.6670, 10548.00
281.8790, 9827.000
283.0920, 9422.000
284.3040, 9108.000
285.5160, 9084.000
286.7280, 9348.000
287.9400, 9717.000
289.1510, 10541.00
290.3630, 11648.00
291.5740, 13140.00
292.7850, 13572.00
293.9960, 13726.00
295.2070, 13593.00
296.4170, 14691.00
297.6280, 17217.00
298.8380, 21147.00
300.0480, 26455.00
301.2580, 32127.00
302.4680, 31759.00
303.6770, 25737.00
304.8870, 19702.00
306.0960, 15047.00
307.3050, 12211.00
308.5140, 10746.00
309.7230, 9777.000
310.9310, 9457.000
312.1400, 9412.000
313.3480, 9339.000
314.5560, 9890.000
315.7640, 10428.00
316.9720, 11140.00
318.1790, 11952.00
319.3870, 12414.00
320.5940, 13489.00
321.8010, 15624.00
323.0080, 19167.00
324.2150, 23421.00
325.4210, 28173.00
326.6280, 28465.00
327.8340, 23735.00
329.0400, 18540.00
330.2460, 14677.00
331.4510, 11935.00
332.6570, 10622.00
333.8620, 10047.00
335.0680, 9577.000
336.2730, 9457.000
337.4780, 9519.000
338.6820, 9755.000
339.8870, 10221.00
341.0910, 10651.00
342.2950, 10608.00
343.5000, 10439.00
344.7030, 9990.000
345.9070, 9722.000
347.1110, 9639.000
348.3140, 9387.000
349.5170, 9718.000
350.7200, 9769.000
351.9230, 10511.00
353.1260, 10654.00
354.3290, 11020.00
355.5310, 11702.00
356.7330, 12980.00
357.9350, 15136.00
359.1370, 17363.00
360.3390, 17003.67
361.5400, 18682.00
362.7420, 15853.00
363.9430, 13834.00
365.1440, 12191.00
366.3450, 11543.00
367.5460, 11608.00
368.7460, 12224.00
369.9470, 13191.00
371.1470, 14564.00
372.3470, 15574.00
373.5470, 15967.00
374.7460, 16606.00
375.9460, 17975.00
377.1450, 19819.00
378.3450, 20919.00
379.5440, 21209.00
380.7430, 22732.00
381.9410, 26023.00
383.1400, 31258.00
384.3380, 37368.00
385.5370, 40452.00
386.7350, 36927.00
387.9320, 30984.00
389.1300, 27128.00
390.3280, 25870.00
391.5250, 27516.00
392.7220, 29018.00
393.9190, 26403.00
395.1160, 22163.00
396.3130, 19295.00
397.5100, 17466.00
398.7060, 17483.00
399.9020, 19192.00
401.0980, 23139.00
402.2940, 28761.00
403.4900, 34873.00
404.6860, 37127.00
405.8810, 33080.00
407.0760, 26144.00
408.2710, 19755.00
409.4660, 15651.00
410.6610, 12931.00
411.8550, 11395.00
413.0500, 10675.00
414.2440, 10023.00
415.4380, 9802.000
416.6320, 9667.000
417.8260, 9618.000
419.0190, 9527.000
420.2130, 9524.509
421.4060, 9589.000
422.5990, 9599.000
423.7920, 9746.000
424.9850, 9883.000
426.1770, 10450.00
427.3700, 10920.00
428.5620, 11800.00
429.7540, 12524.00
430.9460, 13885.00
432.1380, 15692.00
433.3290, 18112.00
434.5210, 21282.00
435.7120, 24967.00
436.9030, 27445.00
438.0940, 28495.00
439.2850, 28006.00
440.4750, 24651.00
441.6660, 20384.00
442.8560, 16933.00
444.0460, 14912.00
445.2360, 14035.00
446.4260, 14213.00
447.6160, 14789.00
448.8050, 15335.00
449.9940, 14422.00
451.1830, 13020.00
452.3720, 11712.00
453.5610, 10905.00
454.7500, 10270.00
455.9380, 10127.00
457.1260, 10126.00
458.3150, 9991.000
459.5020, 10238.00
460.6900, 10404.00
461.8780, 10887.00
463.0650, 11435.00
464.2530, 12067.00
465.4400, 12504.00
466.6270, 12714.00
467.8130, 12412.00
469.0000, 12080.00
470.1870, 11829.00
471.3730, 11775.00
472.5590, 11736.00
473.7450, 12277.00
474.9310, 13214.00
476.1160, 14689.00
477.3020, 17195.00
478.4870, 20326.00
479.6720, 23596.00
480.8570, 27128.00
482.0420, 32873.00
483.2270, 41576.00
484.4110, 53033.00
485.5960, 64795.00
486.7800, 65535.00
487.9640, 65535.00
489.1480, 57023.00
490.3310, 45494.00
491.5150, 36732.00
492.6980, 31218.00
493.8810, 27150.00
495.0640, 23566.00
496.2470, 20292.00
497.4300, 17597.00
498.6120, 15401.00
499.7950, 13961.00
500.9770, 12753.00
502.1590, 12298.00
503.3410, 11688.00
504.5220, 11494.00
505.7040, 11148.00
506.8850, 11075.00
508.0660, 11088.00
509.2470, 10898.00
510.4280, 10997.00
511.6090, 11213.00
512.7890, 11069.00
513.9700, 10951.00
515.1500, 10858.00
516.3300, 10287.00
517.5100, 10114.00
518.6900, 9943.000
519.8690, 9837.000
521.0490, 9650.000
522.2280, 9502.000
523.4070, 9515.000
524.5860, 9310.000
525.7640, 9455.000
526.9430, 9383.000
528.1210, 9442.000
529.3000, 9342.000
530.4780, 9345.000
531.6560, 9236.000
532.8330, 9324.000
534.0110, 9330.000
535.1880, 9333.000
536.3650, 9324.000
537.5430, 9322.000
538.7190, 9383.000
539.8960, 9369.000
541.0730, 9495.000
542.2490, 9355.000
543.4250, 9459.000
544.6020, 9595.000
545.7780, 9547.000
546.9530, 9662.000
548.1290, 9624.000
549.3040, 9686.000
550.4800, 9513.000
551.6550, 9616.000
552.8300, 9701.000
554.0040, 9841.000
555.1790, 10131.00
556.3540, 10483.00
557.5280, 10692.00
558.7020, 11133.00
559.8760, 11916.00
561.0500, 12768.00
562.2230, 13861.00
563.3970, 14253.00
564.5700, 13908.00
565.7430, 12951.00
566.9160, 12013.00
568.0890, 11578.00
569.2620, 11178.00
570.4340, 11029.00
571.6070, 10840.00
572.7790, 10735.00
573.9510, 10648.00
575.1230, 10478.00
576.2940, 10404.75
577.4660, 10256.00
578.6370, 10292.00
579.8080, 10216.00
580.9790, 10332.00
582.1500, 10419.00
583.3210, 10572.00
584.4910, 10741.00
585.6620, 11007.00
586.8320, 11003.00
588.0020, 10832.00
589.1720, 10642.00
590.3410, 10276.00
591.5110, 10216.00
592.6800, 10144.00
593.8500, 10194.00
595.0190, 10180.00
596.1880, 10198.00
597.3560, 10361.00
598.5250, 10421.00
599.6930, 10585.00
600.8620, 10823.00
602.0300, 11169.00
603.1970, 11296.00
604.3650, 11652.00
605.5330, 11897.00
606.7000, 12078.00
607.8680, 12175.00
609.0350, 11917.00
610.2020, 11627.00
611.3680, 11577.00
612.5350, 11429.00
613.7010, 11611.00
614.8680, 11885.00
616.0340, 12019.00
617.2000, 12287.00
618.3660, 12418.00
619.5310, 12591.00
620.6970, 12486.00
621.8620, 12397.00
623.0270, 12505.00
624.1920, 12609.00
625.3570, 12928.00
626.5220, 13180.00
627.6860, 13433.00
628.8500, 13869.00
630.0140, 14240.00
631.1780, 14780.00
632.3420, 15302.00
633.5060, 16169.00
634.6700, 17091.00
635.8330, 18315.00
636.9960, 19088.00
638.1590, 19170.00
639.3220, 18394.00
640.4850, 17196.00
641.6470, 15844.00
642.8100, 14752.00
643.9720, 13933.00
645.1340, 13444.00
646.2960, 13611.00
647.4570, 13651.00
648.6190, 13837.00
649.7800, 14326.00
650.9420, 14832.00
652.1030, 15334.00
653.2640, 16319.00
654.4240, 16884.00
655.5850, 17659.00
656.7450, 18029.00
657.9060, 17579.00
659.0660, 16664.00
660.2260, 15472.00
661.3850, 14213.00
662.5450, 13362.00
663.7040, 12623.00
664.8640, 12146.00
666.0230, 11686.00
667.1820, 11523.00
668.3410, 11419.00
669.4990, 11322.00
670.6580, 11181.00
671.8160, 10974.00
672.9740, 10785.00
674.1320, 10525.00
675.2900, 10443.00
676.4480, 10242.00
677.6050, 10187.00
678.7630, 10139.00
679.9200, 10179.00
681.0770, 10166.00
682.2340, 10131.00
683.3900, 9964.000
684.5470, 10006.00
685.7030, 9950.271
686.8590, 9890.000
688.0150, 9935.000
689.1710, 9936.000
690.3270, 9932.000
691.4830, 9905.000
692.6380, 9824.000
693.7930, 9721.000
694.9480, 9816.000
696.1030, 9809.730
697.2580, 9971.000
698.4130, 9962.000
699.5670, 9984.000
700.7210, 10074.00
701.8750, 10096.00
703.0290, 10127.29
704.1830, 10162.00
705.3370, 10129.00
706.4900, 10067.00
707.6430, 9973.000
708.7970, 10011.00
709.9490, 9885.000
711.1020, 9766.000
712.2550, 9774.000
713.4070, 9873.000
714.5600, 9741.000
715.7120, 9835.000
716.8640, 9775.000
718.0160, 9871.000
719.1670, 9914.000
720.3190, 9880.000
721.4700, 9894.000
722.6210, 9929.000
723.7720, 10226.00
724.9230, 10240.00
726.0740, 10268.00
727.2250, 10141.00
728.3750, 9931.000
729.5250, 10051.00
730.6750, 9998.000
731.8250, 9976.000
732.9750, 10121.00
734.1240, 9948.000
735.2740, 9981.000
736.4230, 9974.000
737.5720, 9939.000
738.7210, 9907.000
739.8700, 9970.000
741.0190, 9962.000
742.1670, 10017.00
743.3150, 9962.000
744.4630, 10057.00
745.6110, 10011.05
746.7590, 10064.00
747.9070, 9988.000
749.0540, 10006.00
750.2020, 10060.00
751.3490, 10031.00
752.4960, 10072.00
753.6430, 10017.00
754.7890, 9994.000
755.9360, 10061.00
757.0820, 10066.00
758.2280, 10068.00
759.3740, 10023.00
760.5200, 9993.000
761.6660, 10093.00
762.8120, 10032.00
763.9570, 10179.00
765.1020, 10024.00
766.2470, 10130.00
767.3920, 10056.00
768.5370, 10126.00
769.6810, 10108.00
770.8260, 10148.00
771.9700, 10049.00
773.1140, 10064.00
774.2580, 10031.00
775.4020, 10077.00
776.5460, 10018.00
777.6890, 10083.00
778.8320, 9979.000
779.9750, 10097.00
781.1180, 10166.00
782.2610, 10251.00
783.4040, 10166.00
784.5460, 10118.00
785.6890, 10213.00
786.8310, 10103.00
787.9730, 10134.00
789.1150, 10242.00
790.2560, 10321.00
791.3980, 10223.00
792.5390, 10303.00
793.6810, 10341.00
794.8220, 10345.00
795.9630, 10442.00
797.1030, 10248.00
798.2440, 10348.00
799.3840, 10469.00
800.5240, 10334.00
801.6650, 10450.00
802.8040, 10497.00
803.9440, 10489.00
805.0840, 10371.00
806.2230, 10418.00
807.3630, 10372.00
808.5020, 10521.00
809.6410, 10476.00
810.7790, 10506.00
811.9180, 10520.00
813.0570, 10559.00
814.1950, 10652.00
815.3330, 10629.00
816.4710, 10600.00
817.6090, 10749.00
818.7470, 10639.00
819.8840, 10766.00
821.0220, 10646.00
822.1590, 10665.00
823.2960, 10665.00
824.4330, 10800.00
825.5690, 10835.00
826.7060, 10791.00
827.8420, 10843.00
828.9790, 10885.00
830.1150, 10905.00
831.2510, 10906.00
832.3860, 10874.00
833.5220, 10840.00
834.6570, 10877.00
835.7930, 10863.22
836.9280, 10889.00
838.0630, 10922.00
839.1980, 11036.00
840.3320, 11138.00
841.4670, 11173.00
842.6010, 11168.00
843.7350, 11204.00
844.8690, 11268.00
846.0030, 11290.93
847.1370, 11392.00
848.2700, 11406.00
849.4040, 11453.00
850.5370, 11563.00
851.6700, 11619.00
852.8030, 11655.00
853.9360, 11599.00
855.0680, 11837.00
856.2000, 11926.00
857.3330, 12169.00
858.4650, 12074.00
859.5970, 12273.00
860.7290, 12226.00
861.8600, 12283.00
862.9920, 12230.00
864.1230, 12129.00
865.2540, 12087.00
866.3850, 12084.00
867.5160, 12024.00
868.6460, 12140.00
869.7770, 12155.00
870.9070, 12227.00
872.0370, 12147.00
873.1670, 12088.00
874.2970, 12237.00
875.4270, 12420.00
876.5570, 12531.00
877.6860, 12491.00
878.8150, 12667.00
879.9440, 12729.00
881.0730, 12987.00
882.2020, 13189.00
883.3300, 13276.00
884.4590, 13628.00
885.5870, 13932.00
886.7150, 14165.00
887.8430, 14475.00
888.9710, 14643.00
890.0990, 14830.00
891.2260, 14989.00
892.3530, 14925.00
893.4810, 15181.00
894.6080, 15158.00
895.7340, 15484.00
896.8610, 15932.00
897.9880, 16637.00
899.1140, 17054.00
900.2400, 17436.00
901.3660, 17631.00
902.4920, 17341.00
903.6180, 16966.00
904.7430, 16341.00
905.8690, 15630.00
906.9940, 15186.00
908.1190, 14561.00
909.2440, 14250.00
910.3690, 13921.00
911.4930, 13818.00
912.6180, 13779.00
913.7420, 13775.00
914.8660, 13724.00
915.9900, 13671.00
917.1140, 13584.00
918.2380, 13847.00
919.3610, 13872.00
920.4850, 14002.00
921.6080, 14289.00
922.7310, 14502.00
923.8540, 14694.00
924.9760, 14905.00
926.0990, 15230.00
927.2210, 15738.00
928.3440, 16417.00
929.4660, 16901.00
930.5880, 17530.00
931.7090, 18165.00
932.8310, 19204.00
933.9520, 20080.00
935.0740, 20924.00
936.1950, 22023.00
937.3160, 23021.00
938.4360, 24067.00
939.5570, 24949.00
940.6780, 26079.00
941.7980, 26710.00
942.9180, 27860.00
944.0380, 28978.00
945.1580, 29688.00
946.2780, 30256.00
947.3970, 30401.00
948.5170, 30406.00
949.6360, 30231.00
950.7550, 30705.00
951.8740, 31272.00
952.9930, 32066.00
954.1110, 33126.00
955.2300, 34676.00
956.3480, 36602.00
957.4660, 38644.00
958.5840, 39929.00
959.7020, 41776.00
960.8190, 42669.00
961.9370, 43173.00
963.0540, 42044.00
964.1710, 40332.00
965.2880, 37470.00
966.4050, 34587.00
967.5220, 31525.00
968.6380, 29095.00
969.7550, 26549.00
970.8710, 24400.00
971.9870, 22776.00
973.1030, 21020.00
974.2190, 19935.00
975.3340, 18653.00
976.4500, 17869.00
977.5650, 17187.00
978.6800, 16763.00
979.7950, 16095.00
980.9100, 15614.00
982.0250, 15331.00
983.1390, 14941.00
984.2530, 14691.00
985.3680, 14461.00
986.4820, 14186.00
987.5950, 14326.00
988.7090, 13873.00
989.8230, 14119.00
990.9360, 14065.00
992.0490, 14177.00
993.1620, 14331.00
994.2750, 14648.74
995.3880, 14976.00
996.5010, 15585.00
997.6130, 16105.00
998.7250, 16811.00
999.8370, 17611.00
1000.949, 18175.00
1002.061, 18271.00
1003.173, 17869.00
1004.284, 16903.00
1005.396, 16098.00
1006.507, 15185.00
1007.618, 14374.00
1008.729, 14078.00
1009.839, 13628.00
1010.950, 13771.00
1012.060, 13189.00
1013.171, 13092.00
1014.281, 13058.00
1015.391, 12825.00
1016.500, 12864.00
1017.610, 12749.00
1018.719, 12733.00
1019.829, 12802.00
1020.938, 12797.00
1022.047, 12721.00
1023.156, 12707.00
1024.264, 12571.00
1025.373, 12619.00
1026.481, 12628.00
1027.589, 12538.00
1028.697, 12404.00
1029.805, 12483.00
1030.913, 12345.00
1032.020, 12268.00
1033.128, 12142.00
1034.235, 12153.00
1035.342, 12017.00
1036.449, 12169.00
1037.556, 12065.00
1038.663, 12009.00
1039.769, 12113.00
1040.875, 11924.00
1041.981, 12046.00
1043.087, 12093.00
1044.193, 11914.00
1045.299, 12034.00
1046.404, 12112.00
1047.510, 12146.00
1048.615, 12158.60
1049.720, 12164.71
1050.825, 12126.00
1051.930, 12076.00
1053.034, 12099.00
1054.139, 11954.00
1055.243, 12059.00
1056.347, 12127.00
1057.451, 11948.00
1058.555, 11959.00
1059.658, 12103.00
1060.762, 11948.00
1061.865, 12119.00
1062.968, 12093.00
1064.071, 12034.00
1065.174, 12026.00
1066.277, 12041.00
1067.380, 12186.00
1068.482, 12060.00
1069.584, 11997.00
1070.686, 12124.00
1071.788, 12262.00
1072.890, 12132.00
1073.992, 12153.00
1075.093, 12256.00
1076.194, 12329.00
1077.295, 12246.00
1078.396, 12393.00
1079.497, 12396.00
1080.598, 12498.00
1081.698, 12503.00
1082.799, 12434.00
1083.899, 12509.00
1084.999, 12578.00
1086.099, 12552.00
1087.199, 12433.00
1088.298, 12496.00
1089.398, 12472.00
1090.497, 12446.00
1091.596, 12444.00
1092.695, 12389.00
1093.794, 12428.00
1094.892, 12230.00
1095.991, 12304.00
1097.089, 12360.00
1098.187, 12182.00
1099.285, 12405.00
1100.383, 12281.00
1101.481, 12408.00
1102.579, 12227.00
1103.676, 12328.00
1104.773, 12318.00
1105.870, 12424.00
1106.967, 12395.00
1108.064, 12399.00
1109.161, 12598.00
1110.257, 12439.00
1111.353, 12478.00
1112.449, 12378.00
1113.545, 12468.00
1114.641, 12440.00
1115.737, 12451.00
1116.832, 12407.00
1117.928, 12386.00
1119.023, 12415.00
1120.118, 12476.00
1121.213, 12495.00
1122.308, 12417.00
1123.402, 12544.00
1124.497, 12376.00
1125.591, 12374.00
1126.685, 12490.00
1127.779, 12364.00
1128.873, 12294.00
1129.967, 12446.00
1131.060, 12339.00
1132.153, 12371.00
1133.247, 12326.00
1134.340, 12249.00
1135.433, 12272.13
1136.525, 12284.00
1137.618, 12303.00
1138.710, 12224.00
1139.802, 12324.00
1140.895, 12170.00
1141.987, 12334.00
1143.078, 12349.00
1144.170, 12387.00
1145.261, 12407.00
1146.353, 12346.00
1147.444, 12419.00
1148.535, 12376.00
1149.626, 12384.00
1150.716, 12377.00
1151.807, 12395.00
1152.897, 12330.00
1153.988, 12513.00
1155.078, 12471.00
1156.168, 12505.56
1157.257, 12398.00
1158.347, 12504.00
1159.436, 12616.00
1160.526, 12555.00
1161.615, 12530.00
1162.704, 12500.00
1163.793, 12491.70
1164.881, 12559.00
1165.970, 12525.00
1167.058, 12553.00
1168.147, 12626.00
1169.235, 12626.00
1170.323, 12761.00
1171.410, 12595.00
1172.498, 12681.00
1173.585, 12635.00
1174.673, 12444.00
1175.760, 12727.00
1176.847, 12742.00
1177.934, 12671.00
1179.020, 12653.00
1180.107, 12648.00
1181.193, 12694.00
1182.279, 12621.00
1183.365, 12642.53
1184.451, 12653.24
1185.537, 12651.00
1186.623, 12664.00
1187.708, 12725.00
1188.793, 12686.00
1189.878, 12792.00
1190.963, 12763.00
1192.048, 12647.00
1193.133, 12762.00
1194.217, 12699.00
1195.302, 12535.00
1196.386, 12592.00
1197.470, 12703.00
1198.554, 12760.00
1199.638, 12792.21
1200.721, 12915.00
1201.805, 12810.00
1202.888, 12899.00
1203.971, 12865.00
1205.054, 12758.00
1206.137, 12723.00
1207.219, 12721.00
1208.302, 12845.00
1209.384, 12781.00
1210.466, 12930.00
1211.548, 12831.00
1212.630, 12890.00
1213.712, 12975.00
1214.794, 13032.00
1215.875, 13008.00
1216.956, 13047.00
1218.037, 12989.00
1219.118, 12916.00
1220.199, 12981.00
1221.280, 13069.00
1222.360, 12934.00
1223.441, 12958.00
1224.521, 13089.00
1225.601, 12996.00
1226.681, 13037.00
1227.760, 13171.00
1228.840, 12958.00
1229.919, 13174.00
1230.999, 13143.00
1232.078, 13251.00
1233.157, 13355.00
1234.236, 13278.00
1235.314, 13242.00
1236.393, 13407.00
1237.471, 13295.00
1238.549, 13460.00
1239.627, 13349.00
1240.705, 13462.00
1241.783, 13459.00
1242.860, 13353.00
1243.938, 13301.00
1245.015, 13371.00
1246.092, 13376.00
1247.169, 13352.00
1248.246, 13548.00
1249.323, 13415.00
1250.399, 13506.00
1251.475, 13289.00
1252.552, 13569.00
1253.628, 13771.00
1254.703, 13540.00
1255.779, 13507.00
1256.855, 13540.00
1257.930, 13538.00
1259.005, 13638.00
1260.080, 13606.00
1261.155, 13543.00
1262.230, 13709.00
1263.305, 13680.00
1264.379, 13753.00
1265.454, 13868.00
1266.528, 13756.00
1267.602, 13816.01
1268.676, 13847.33
1269.750, 13786.00
1270.823, 13931.00
1271.897, 13938.00
1272.970, 13996.00
1274.043, 13891.00
1275.116, 14110.00
1276.189, 13902.00
1277.261, 13947.00
1278.334, 14020.00
1279.406, 13879.00
1280.478, 13823.00
1281.550, 13847.90
1282.622, 13802.00
1283.694, 13845.00
1284.766, 13774.00
1285.837, 13734.00
1286.908, 13826.00
1287.979, 13825.00
1289.050, 13889.00
1290.121, 13903.00
1291.192, 14084.00
1292.262, 14020.00
1293.333, 14164.00
1294.403, 14025.00
1295.473, 14159.00
1296.543, 14038.00
1297.613, 14051.00
1298.682, 14095.00
1299.752, 14015.00
1300.821, 13946.00
1301.890, 14025.00
1302.959, 14012.00
1304.028, 14190.00
1305.096, 14274.00
1306.165, 14163.00
1307.233, 14355.00
1308.301, 14237.00
1309.370, 14304.00
1310.437, 14438.00
1311.505, 14396.00
1312.573, 14405.00
1313.640, 14296.00
1314.708, 14359.00
1315.775, 14298.00
1316.842, 14359.00
1317.908, 14314.00
1318.975, 14409.00
1320.042, 14462.00
1321.108, 14389.00
1322.174, 14424.91
1323.240, 14311.00
1324.306, 14335.00
1325.372, 14242.00
1326.438, 14114.00
1327.503, 14136.00
1328.568, 14204.00
1329.634, 14049.00
1330.699, 14130.00
1331.763, 13966.00
1332.828, 13977.00
1333.893, 14126.00
1334.957, 13988.00
1336.021, 14031.00
1337.085, 14037.00
1338.149, 13878.00
1339.213, 14097.00
1340.277, 13830.00
1341.340, 13917.00
1342.404, 14002.00
1343.467, 14075.00
1344.530, 14081.43
1345.593, 13931.00
1346.655, 14054.00
1347.718, 13969.00
1348.780, 13927.00
1349.843, 13957.00
1350.905, 14021.00
1351.967, 14055.00
1353.028, 14075.00
1354.090, 13966.00
1355.152, 13884.00
1356.213, 13876.00
1357.274, 13924.00
1358.335, 14107.00
1359.396, 14035.00
1360.457, 14126.00
1361.517, 14116.00
1362.578, 14144.00
1363.638, 14195.00
1364.698, 14129.00
1365.758, 14094.00
1366.818, 14228.00
1367.878, 14059.00
1368.937, 14019.00
1369.997, 14232.00
1371.056, 14194.00
1372.115, 14158.00
1373.174, 14130.00
1374.232, 14357.00
1375.291, 14366.00
1376.350, 14254.00
1377.408, 14315.00
1378.466, 14195.00
1379.524, 14334.00
1380.582, 14399.00
1381.640, 14366.00
1382.697, 14404.00
1383.754, 14301.00
1384.812, 14351.00
1385.869, 14301.00
1386.926, 14332.00
1387.983, 14141.00
1389.039, 14307.00
1390.096, 14264.00
1391.152, 14188.00
1392.208, 14411.00
1393.264, 14355.00
1394.320, 14107.00
1395.376, 14267.00
1396.431, 14219.00
1397.487, 14191.00
1398.542, 14234.00
1399.597, 14212.00
1400.652, 14234.22
1401.707, 14290.83
1402.762, 14230.00
1403.816, 14420.00
1404.871, 14341.00
1405.925, 14408.00
1406.979, 14331.00
1408.033, 14281.00
1409.086, 14501.00
1410.140, 14361.00
1411.194, 14455.00
1412.247, 14455.00
1413.300, 14415.00
1414.353, 14464.00
1415.406, 14559.00
1416.458, 14489.00
1417.511, 14380.00
1418.563, 14393.00
1419.616, 14499.00
1420.668, 14382.00
1421.720, 14424.00
1422.772, 14501.00
1423.823, 14491.00
1424.875, 14472.00
1425.926, 14619.00
1426.977, 14719.00
1428.028, 14709.00
1429.079, 14778.00
1430.130, 14655.00
1431.180, 14711.00
1432.231, 14710.00
1433.281, 14816.00
1434.331, 14934.00
1435.381, 15009.00
1436.431, 15286.00
1437.481, 15158.00
1438.530, 15426.00
1439.580, 15568.00
1440.629, 15525.00
1441.678, 15904.00
1442.727, 15607.00
1443.776, 15905.00
1444.824, 16041.00
1445.873, 16020.00
1446.921, 16040.00
1447.969, 16127.00
1449.017, 15923.00
1450.065, 16179.00
1451.113, 16267.00
1452.160, 16208.00
1453.208, 16383.00
1454.255, 16353.00
1455.302, 16331.00
1456.349, 16290.00
1457.396, 16183.00
1458.443, 16426.00
1459.489, 16063.00
1460.535, 16158.00
1461.582, 16160.00
1462.628, 16002.00
1463.674, 16000.00
1464.719, 15697.00
1465.765, 15777.00
1466.810, 15674.10
1467.856, 15813.00
1468.901, 15669.00
1469.946, 15462.00
1470.991, 15589.00
1472.035, 15585.00
1473.080, 15570.00
1474.124, 15550.00
1475.169, 15442.00
1476.213, 15575.00
1477.257, 15411.00
1478.300, 15477.00
1479.344, 15596.00
1480.388, 15500.00
1481.431, 15476.00
1482.474, 15391.00
1483.517, 15466.00
1484.560, 15479.00
1485.603, 15378.00
1486.645, 15373.00
1487.688, 15341.00
1488.730, 15339.00
1489.772, 15356.00
1490.814, 15278.00
1491.856, 15280.29
1492.898, 15258.00
1493.939, 15234.00
1494.981, 15259.00
1496.022, 15262.81
1497.063, 15225.00
1498.104, 15189.00
1499.145, 15241.00
1500.186, 15175.00
1501.226, 15104.00
1502.266, 15251.00
1503.307, 15319.00
1504.347, 15257.00
1505.387, 15307.00
1506.426, 15214.00
1507.466, 15312.00
1508.505, 15295.00
1509.545, 15328.00
1510.584, 15345.00
1511.623, 15237.00
1512.662, 15196.00
1513.700, 15348.00
1514.739, 15466.00
1515.777, 15424.00
1516.815, 15346.00
1517.854, 15421.00
1518.892, 15632.00
1519.929, 15494.00
1520.967, 15457.00
1522.004, 15596.00
1523.042, 15441.00
1524.079, 15428.00
1525.116, 15514.00
1526.153, 15430.00
1527.190, 15481.00
1528.226, 15727.00
1529.263, 15563.00
1530.299, 15661.00
1531.335, 15626.00
1532.371, 15593.00
1533.407, 15623.00
1534.443, 15815.00
1535.478, 15614.00
1536.514, 15810.00
1537.549, 15850.00
1538.584, 15801.00
1539.619, 15757.00
1540.654, 15756.00
1541.689, 15720.00
1542.723, 15679.00
1543.757, 15772.00
1544.792, 15844.00
1545.826, 15937.00
1546.860, 15811.00
1547.893, 15672.00
1548.927, 15668.00
1549.960, 15694.00
1550.994, 15676.38
1552.027, 15707.00
1553.060, 15765.00
1554.093, 15901.00
1555.126, 15986.00
1556.158, 15979.00
1557.191, 16016.74
1558.223, 15996.26
1559.255, 16030.00
1560.287, 15921.00
1561.319, 16031.00
1562.350, 16000.00
1563.382, 15824.00
##END=



