##NAMES=Kyanite
##RRUFFID=R050450
##IDEAL CHEMISTRY=Al_2_OSiO_4_
##LOCALITY=Switzerland
##OWNER=RRUFF
##SOURCE=Marcus Origlieri
##DESCRIPTION=Blue bladed crystals
##STATUS=The identification of this mineral has been confirmed by X-ray diffraction and chemical analysis
##URL=rruff.info/R050450
##MEASURED CHEMISTRY=Al_2.00_OSi_1.00_O_4_
##PIN_ID=M01978
##ORIENTATION=Laser parallel to -b* (0 -1 0). Fiducial mark perpendicular to laser is parallel to c [0 0 1]
148.7160, 7424.000
149.9470, 7406.000
151.1780, 7410.000
152.4080, 7590.000
153.6380, 7535.000
154.8690, 7531.000
156.0980, 7580.000
157.3280, 7503.000
158.5580, 7510.000
159.7870, 7545.000
161.0170, 7628.000
162.2460, 7706.000
163.4750, 7705.000
164.7030, 7722.000
165.9320, 7797.000
167.1600, 7710.000
168.3890, 7796.000
169.6170, 7842.000
170.8450, 7934.000
172.0730, 7960.000
173.3000, 8006.000
174.5280, 8040.937
175.7550, 8059.842
176.9820, 8051.000
178.2090, 8077.000
179.4350, 8012.000
180.6620, 7973.000
181.8880, 7930.000
183.1150, 7935.000
184.3410, 8005.000
185.5670, 8009.000
186.7920, 7905.000
188.0180, 8011.000
189.2430, 8052.000
190.4690, 8166.000
191.6940, 8180.000
192.9180, 7985.000
194.1430, 8095.000
195.3680, 8148.000
196.5920, 8270.000
197.8160, 8269.000
199.0400, 8401.000
200.2640, 8306.000
201.4880, 8339.000
202.7110, 8451.000
203.9350, 8519.000
205.1580, 8535.291
206.3810, 8553.280
207.6040, 8524.000
208.8270, 8500.000
210.0490, 8406.000
211.2710, 8354.000
212.4940, 8307.000
213.7160, 8342.000
214.9370, 8546.000
216.1590, 8424.000
217.3810, 8527.000
218.6020, 8763.000
219.8230, 8675.000
221.0440, 8742.000
222.2650, 9012.000
223.4860, 9217.000
224.7060, 9566.000
225.9260, 9850.000
227.1470, 9846.000
228.3670, 9558.000
229.5860, 9270.000
230.8060, 9081.000
232.0260, 8946.000
233.2450, 8720.000
234.4640, 8651.000
235.6830, 8618.000
236.9020, 8670.000
238.1200, 8636.000
239.3390, 8653.000
240.5570, 8625.000
241.7750, 8762.000
242.9930, 8709.000
244.2110, 8729.000
245.4290, 8688.000
246.6460, 8727.324
247.8630, 8895.000
249.0810, 8832.000
250.2980, 8804.000
251.5140, 8888.000
252.7310, 8824.000
253.9470, 8908.000
255.1640, 8798.000
256.3800, 8734.000
257.5960, 8665.000
258.8120, 8854.000
260.0270, 9055.000
261.2430, 9065.000
262.4580, 8916.000
263.6730, 8868.000
264.8880, 8893.000
266.1030, 9039.000
267.3170, 9334.000
268.5320, 9636.000
269.7460, 10120.00
270.9600, 10255.00
272.1740, 10255.00
273.3880, 10879.00
274.6010, 11537.00
275.8150, 12611.00
277.0280, 13486.00
278.2410, 13870.00
279.4540, 13423.00
280.6670, 12454.00
281.8790, 11870.00
283.0920, 11545.00
284.3040, 11158.00
285.5160, 11152.00
286.7280, 11456.00
287.9400, 12442.00
289.1510, 13469.00
290.3630, 15005.00
291.5740, 17041.00
292.7850, 18695.00
293.9960, 19500.00
295.2070, 19108.00
296.4170, 19546.00
297.6280, 22069.00
298.8380, 25884.00
300.0480, 30034.00
301.2580, 33698.00
302.4680, 33779.00
303.6770, 28956.00
304.8870, 23748.00
306.0960, 18725.00
307.3050, 15156.00
308.5140, 12577.00
309.7230, 11520.00
310.9310, 10919.00
312.1400, 10561.00
313.3480, 10750.00
314.5560, 10996.00
315.7640, 11437.00
316.9720, 12468.00
318.1790, 13368.00
319.3870, 13880.00
320.5940, 14183.00
321.8010, 15556.00
323.0080, 17698.00
324.2150, 19817.00
325.4210, 22035.00
326.6280, 22426.00
327.8340, 20142.00
329.0400, 17434.00
330.2460, 14945.00
331.4510, 13038.00
332.6570, 11753.00
333.8620, 11129.00
335.0680, 11013.00
336.2730, 10857.00
337.4780, 10966.00
338.6820, 11399.00
339.8870, 11606.00
341.0910, 12008.00
342.2950, 12048.00
343.5000, 11760.11
344.7030, 11648.00
345.9070, 11116.00
347.1110, 10910.00
348.3140, 11131.00
349.5170, 11525.00
350.7200, 12426.00
351.9230, 13771.00
353.1260, 14873.00
354.3290, 15380.00
355.5310, 16364.00
356.7330, 18586.00
357.9350, 21673.00
359.1370, 24639.00
360.3390, 27266.00
361.5400, 26045.00
362.7420, 22654.00
363.9430, 18934.00
365.1440, 15880.00
366.3450, 13566.00
367.5460, 12192.00
368.7460, 11713.00
369.9470, 11619.00
371.1470, 11768.00
372.3470, 12048.00
373.5470, 12618.00
374.7460, 13473.00
375.9460, 14690.00
377.1450, 16276.00
378.3450, 17529.00
379.5440, 18280.00
380.7430, 19661.00
381.9410, 22049.00
383.1400, 25202.00
384.3380, 28553.00
385.5370, 30295.00
386.7350, 29059.00
387.9320, 26028.00
389.1300, 24510.00
390.3280, 23389.00
391.5250, 23305.00
392.7220, 23620.00
393.9190, 22673.00
395.1160, 21524.00
396.3130, 20747.00
397.5100, 20253.00
398.7060, 20124.00
399.9020, 21484.00
401.0980, 24189.00
402.2940, 28026.00
403.4900, 31782.00
404.6860, 33297.00
405.8810, 30733.00
407.0760, 26433.00
408.2710, 21997.00
409.4660, 18249.00
410.6610, 15842.00
411.8550, 14921.00
413.0500, 15274.00
414.2440, 13505.00
415.4380, 13369.00
416.6320, 13563.00
417.8260, 14061.00
419.0190, 14461.00
420.2130, 14543.00
421.4060, 14025.00
422.5990, 13743.00
423.7920, 13410.00
424.9850, 13057.00
426.1770, 13457.00
427.3700, 14461.00
428.5620, 15458.00
429.7540, 16896.00
430.9460, 18744.00
432.1380, 20699.00
433.3290, 23289.00
434.5210, 25985.00
435.7120, 29303.00
436.9030, 31881.00
438.0940, 32838.00
439.2850, 32809.00
440.4750, 29755.00
441.6660, 25552.00
442.8560, 21734.00
444.0460, 18792.00
445.2360, 17050.00
446.4260, 16441.00
447.6160, 16296.00
448.8050, 16069.00
449.9940, 15483.00
451.1830, 14355.00
452.3720, 13336.00
453.5610, 12791.00
454.7500, 12021.00
455.9380, 11734.00
457.1260, 11459.00
458.3150, 11376.00
459.5020, 11327.00
460.6900, 11285.00
461.8780, 11301.00
463.0650, 11292.00
464.2530, 11411.00
465.4400, 11434.00
466.6270, 11590.00
467.8130, 11568.00
469.0000, 11810.00
470.1870, 11973.00
471.3730, 12152.00
472.5590, 12560.00
473.7450, 13005.00
474.9310, 13954.00
476.1160, 15317.00
477.3020, 17618.00
478.4870, 20561.00
479.6720, 23724.00
480.8570, 26792.00
482.0420, 30300.00
483.2270, 35683.00
484.4110, 42399.00
485.5960, 48853.00
486.7800, 52235.00
487.9640, 49721.00
489.1480, 43769.00
490.3310, 36363.00
491.5150, 30101.00
492.6980, 25401.00
493.8810, 21886.00
495.0640, 19597.00
496.2470, 17742.00
497.4300, 16270.00
498.6120, 15195.00
499.7950, 14397.00
500.9770, 13833.00
502.1590, 13377.00
503.3410, 13319.00
504.5220, 13161.00
505.7040, 13018.00
506.8850, 13047.00
508.0660, 13193.00
509.2470, 13542.00
510.4280, 13796.00
511.6090, 13754.00
512.7890, 13667.00
513.9700, 13688.00
515.1500, 13351.00
516.3300, 12858.00
517.5100, 12603.00
518.6900, 12283.00
519.8690, 11957.00
521.0490, 11864.00
522.2280, 11762.00
523.4070, 11755.00
524.5860, 11745.00
525.7640, 11607.00
526.9430, 11525.00
528.1210, 11524.00
529.3000, 11479.00
530.4780, 11511.00
531.6560, 11528.00
532.8330, 11538.00
534.0110, 11467.00
535.1880, 11508.00
536.3650, 11584.00
537.5430, 11487.00
538.7190, 11518.00
539.8960, 11716.00
541.0730, 11650.00
542.2490, 11574.00
543.4250, 11693.00
544.6020, 11704.00
545.7780, 11811.00
546.9530, 11919.00
548.1290, 11904.00
549.3040, 12048.00
550.4800, 12277.00
551.6550, 12356.00
552.8300, 12783.00
554.0040, 13244.00
555.1790, 14051.00
556.3540, 14884.00
557.5280, 15810.00
558.7020, 16810.00
559.8760, 18157.00
561.0500, 20148.00
562.2230, 21803.00
563.3970, 22385.00
564.5700, 21195.00
565.7430, 19301.00
566.9160, 17085.00
568.0890, 15526.00
569.2620, 14406.00
570.4340, 13499.00
571.6070, 13030.00
572.7790, 12762.00
573.9510, 12516.00
575.1230, 12508.00
576.2940, 12415.00
577.4660, 12289.00
578.6370, 12164.00
579.8080, 12267.00
580.9790, 12211.00
582.1500, 12214.00
583.3210, 12334.00
584.4910, 12262.00
585.6620, 12301.00
586.8320, 12175.00
588.0020, 12219.00
589.1720, 12301.00
590.3410, 12264.00
591.5110, 12296.00
592.6800, 12564.00
593.8500, 12533.00
595.0190, 12919.00
596.1880, 13152.00
597.3560, 13745.00
598.5250, 14034.00
599.6930, 14819.00
600.8620, 15773.00
602.0300, 16444.00
603.1970, 17427.00
604.3650, 18632.00
605.5330, 19307.00
606.7000, 19718.00
607.8680, 19595.00
609.0350, 18759.00
610.2020, 17707.00
611.3680, 16779.00
612.5350, 15884.00
613.7010, 15684.00
614.8680, 15427.00
616.0340, 15348.00
617.2000, 15483.00
618.3660, 15403.00
619.5310, 15222.00
620.6970, 15069.00
621.8620, 15119.00
623.0270, 15115.00
624.1920, 15020.00
625.3570, 15150.00
626.5220, 15496.00
627.6860, 15657.00
628.8500, 16139.00
630.0140, 16132.00
631.1780, 16052.00
632.3420, 15717.00
633.5060, 15487.00
634.6700, 15320.17
635.8330, 14795.00
636.9960, 14821.00
638.1590, 14719.00
639.3220, 14229.00
640.4850, 14004.00
641.6470, 13689.00
642.8100, 13279.00
643.9720, 13221.00
645.1340, 13051.00
646.2960, 12905.00
647.4570, 12802.00
648.6190, 12768.92
649.7800, 12863.00
650.9420, 12775.00
652.1030, 12815.00
653.2640, 12812.00
654.4240, 12887.00
655.5850, 13029.00
656.7450, 12962.00
657.9060, 13050.00
659.0660, 12883.00
660.2260, 12780.00
661.3850, 12858.00
662.5450, 12488.00
663.7040, 12780.00
664.8640, 12680.00
666.0230, 12705.00
667.1820, 12838.00
668.3410, 12684.00
669.4990, 12744.00
670.6580, 12783.00
671.8160, 12813.00
672.9740, 12733.00
674.1320, 12748.00
675.2900, 12589.00
676.4480, 12695.00
677.6050, 12520.00
678.7630, 12529.00
679.9200, 12568.00
681.0770, 12536.00
682.2340, 12564.00
683.3900, 12567.05
684.5470, 12540.00
685.7030, 12591.00
686.8590, 12556.00
688.0150, 12590.00
689.1710, 12613.00
690.3270, 12595.00
691.4830, 12493.00
692.6380, 12635.00
693.7930, 12501.00
694.9480, 12606.00
696.1030, 12620.00
697.2580, 12690.00
698.4130, 12787.00
699.5670, 12745.00
700.7210, 12912.00
701.8750, 13013.00
703.0290, 13026.00
704.1830, 13038.00
705.3370, 13040.34
706.4900, 13014.38
707.6430, 12980.00
708.7970, 12933.00
709.9490, 12895.00
711.1020, 12828.21
712.2550, 12810.00
713.4070, 12731.00
714.5600, 12754.00
715.7120, 12713.00
716.8640, 12707.00
718.0160, 12729.57
719.1670, 12762.00
720.3190, 12741.00
721.4700, 12752.00
722.6210, 12686.00
723.7720, 12786.00
724.9230, 12683.00
726.0740, 12774.00
727.2250, 12812.00
728.3750, 12772.84
729.5250, 12699.00
730.6750, 12737.00
731.8250, 12743.00
732.9750, 12695.00
734.1240, 12794.00
735.2740, 12782.00
736.4230, 12818.00
737.5720, 12872.00
738.7210, 12805.00
739.8700, 12884.00
741.0190, 12773.00
742.1670, 12874.00
743.3150, 12813.00
744.4630, 12961.00
745.6110, 12898.00
746.7590, 12828.00
747.9070, 12969.00
749.0540, 12974.00
750.2020, 12926.00
751.3490, 12896.00
752.4960, 12811.00
753.6430, 12956.00
754.7890, 12937.00
755.9360, 12851.00
757.0820, 13049.00
758.2280, 13016.00
759.3740, 12961.00
760.5200, 12941.00
761.6660, 13031.00
762.8120, 12865.00
763.9570, 13090.00
765.1020, 12992.00
766.2470, 12943.00
767.3920, 12943.00
768.5370, 12901.00
769.6810, 12934.41
770.8260, 13121.00
771.9700, 13009.00
773.1140, 13031.00
774.2580, 13062.00
775.4020, 12890.00
776.5460, 13059.00
777.6890, 13114.00
778.8320, 13088.00
779.9750, 13009.00
781.1180, 13081.00
782.2610, 13069.00
783.4040, 13047.00
784.5460, 13104.00
785.6890, 13142.00
786.8310, 13187.00
787.9730, 13009.00
789.1150, 13174.00
790.2560, 13086.00
791.3980, 13093.00
792.5390, 13108.00
793.6810, 13273.00
794.8220, 13252.00
795.9630, 13160.00
797.1030, 13058.00
798.2440, 13187.00
799.3840, 13244.00
800.5240, 13266.00
801.6650, 13181.00
802.8040, 13173.00
803.9440, 13217.00
805.0840, 13352.00
806.2230, 13364.00
807.3630, 13484.00
808.5020, 13459.00
809.6410, 13458.00
810.7790, 13281.00
811.9180, 13499.00
813.0570, 13396.00
814.1950, 13502.00
815.3330, 13531.00
816.4710, 13364.00
817.6090, 13504.00
818.7470, 13610.00
819.8840, 13596.00
821.0220, 13357.00
822.1590, 13481.00
823.2960, 13533.00
824.4330, 13586.00
825.5690, 13689.00
826.7060, 13746.00
827.8420, 13747.37
828.9790, 13762.87
830.1150, 13707.00
831.2510, 13718.00
832.3860, 13664.00
833.5220, 13653.00
834.6570, 13692.00
835.7930, 13703.00
836.9280, 13731.00
838.0630, 13737.34
839.1980, 13726.00
840.3320, 13780.00
841.4670, 13794.00
842.6010, 13812.18
843.7350, 13860.00
844.8690, 13863.00
846.0030, 13873.00
847.1370, 13918.00
848.2700, 13917.00
849.4040, 14043.00
850.5370, 13984.00
851.6700, 13963.00
852.8030, 14009.00
853.9360, 14170.00
855.0680, 14038.00
856.2000, 14085.00
857.3330, 14188.00
858.4650, 14053.00
859.5970, 14251.00
860.7290, 14189.00
861.8600, 14256.00
862.9920, 14305.00
864.1230, 14312.00
865.2540, 14424.00
866.3850, 14265.00
867.5160, 14362.00
868.6460, 14260.00
869.7770, 14438.00
870.9070, 14502.00
872.0370, 14467.00
873.1670, 14682.00
874.2970, 14628.00
875.4270, 14562.00
876.5570, 14567.00
877.6860, 14680.00
878.8150, 14670.00
879.9440, 14558.00
881.0730, 14786.00
882.2020, 14783.00
883.3300, 15053.00
884.4590, 14989.00
885.5870, 15004.00
886.7150, 15033.00
887.8430, 15125.00
888.9710, 15077.00
890.0990, 15417.00
891.2260, 15190.00
892.3530, 15604.00
893.4810, 15165.00
894.6080, 15372.00
895.7340, 15561.00
896.8610, 15590.00
897.9880, 15568.00
899.1140, 15586.00
900.2400, 15673.00
901.3660, 15724.00
902.4920, 15822.00
903.6180, 15966.00
904.7430, 16015.37
905.8690, 16107.00
906.9940, 16172.00
908.1190, 16205.00
909.2440, 16290.00
910.3690, 16516.00
911.4930, 16590.00
912.6180, 16672.00
913.7420, 16957.00
914.8660, 16879.00
915.9900, 17244.00
917.1140, 17255.00
918.2380, 17638.00
919.3610, 17609.00
920.4850, 18087.00
921.6080, 18250.00
922.7310, 18500.00
923.8540, 18911.00
924.9760, 19212.51
926.0990, 19454.00
927.2210, 20027.00
928.3440, 20450.00
929.4660, 20905.00
930.5880, 21515.00
931.7090, 22143.00
932.8310, 22779.00
933.9520, 23705.00
935.0740, 24545.00
936.1950, 25318.00
937.3160, 26214.00
938.4360, 26774.00
939.5570, 27670.00
940.6780, 28386.00
941.7980, 29363.00
942.9180, 30613.00
944.0380, 31845.00
945.1580, 33359.00
946.2780, 35251.00
947.3970, 36823.00
948.5170, 38568.00
949.6360, 39869.00
950.7550, 41511.00
951.8740, 41995.00
952.9930, 42077.00
954.1110, 42225.00
955.2300, 41354.00
956.3480, 41381.00
957.4660, 40885.00
958.5840, 40324.00
959.7020, 40615.00
960.8190, 40838.00
961.9370, 40271.00
963.0540, 39378.00
964.1710, 37662.00
965.2880, 35642.00
966.4050, 33651.00
967.5220, 31645.00
968.6380, 29456.00
969.7550, 27700.00
970.8710, 26131.00
971.9870, 24683.00
973.1030, 23535.00
974.2190, 22711.00
975.3340, 21849.00
976.4500, 21136.80
977.5650, 20603.00
978.6800, 20043.00
979.7950, 19734.00
980.9100, 19457.00
982.0250, 19170.00
983.1390, 19037.00
984.2530, 18752.00
985.3680, 18611.00
986.4820, 18699.00
987.5950, 18541.00
988.7090, 18597.00
989.8230, 18758.00
990.9360, 19024.00
992.0490, 19359.00
993.1620, 19853.00
994.2750, 20493.00
995.3880, 21489.00
996.5010, 22629.00
997.6130, 23725.00
998.7250, 24596.00
999.8370, 25553.00
1000.949, 25901.00
1002.061, 25804.00
1003.173, 25078.00
1004.284, 24001.00
1005.396, 22507.00
1006.507, 21598.00
1007.618, 20530.00
1008.729, 19596.00
1009.839, 19042.00
1010.950, 18629.00
1012.060, 18194.00
1013.171, 17825.00
1014.281, 17642.00
1015.391, 17424.00
1016.500, 17396.00
1017.610, 17134.00
1018.719, 16991.00
1019.829, 17056.00
1020.938, 16953.00
1022.047, 16913.00
1023.156, 16909.38
1024.264, 16870.00
1025.373, 16842.00
1026.481, 16740.00
1027.589, 16657.00
1028.697, 16681.00
1029.805, 16492.00
1030.913, 16550.00
1032.020, 16533.00
1033.128, 16507.00
1034.235, 16479.00
1035.342, 16373.00
1036.449, 16539.00
1037.556, 16345.00
1038.663, 16437.00
1039.769, 16365.00
1040.875, 16504.00
1041.981, 16480.00
1043.087, 16506.00
1044.193, 16469.00
1045.299, 16464.00
1046.404, 16521.00
1047.510, 16463.00
1048.615, 16443.00
1049.720, 16429.00
1050.825, 16461.74
1051.930, 16501.00
1053.034, 16580.00
1054.139, 16542.00
1055.243, 16614.00
1056.347, 16542.00
1057.451, 16492.00
1058.555, 16736.00
1059.658, 16430.00
1060.762, 16658.00
1061.865, 16535.00
1062.968, 16570.00
1064.071, 16392.00
1065.174, 16597.00
1066.277, 16593.00
1067.380, 16662.00
1068.482, 16527.00
1069.584, 16578.00
1070.686, 16486.00
1071.788, 16569.00
1072.890, 16473.00
1073.992, 16513.00
1075.093, 16667.00
1076.194, 16592.00
1077.295, 16639.00
1078.396, 16614.00
1079.497, 16524.00
1080.598, 16593.00
1081.698, 16512.00
1082.799, 16655.00
1083.899, 16593.00
1084.999, 16769.00
1086.099, 16723.00
1087.199, 16904.00
1088.298, 16864.00
1089.398, 16570.00
1090.497, 16698.00
1091.596, 16667.00
1092.695, 16642.00
1093.794, 16875.00
1094.892, 16802.00
1095.991, 16749.00
1097.089, 16818.00
1098.187, 16753.12
1099.285, 16839.00
1100.383, 16774.00
1101.481, 16789.00
1102.579, 16909.00
1103.676, 16822.00
1104.773, 16786.00
1105.870, 16868.00
1106.967, 16829.83
1108.064, 17034.00
1109.161, 16897.00
1110.257, 16917.00
1111.353, 16999.00
1112.449, 16804.00
1113.545, 16940.00
1114.641, 17101.00
1115.737, 17004.00
1116.832, 17002.00
1117.928, 17033.00
1119.023, 17017.00
1120.118, 16999.00
1121.213, 17057.10
1122.308, 17046.00
1123.402, 17117.00
1124.497, 17151.00
1125.591, 17089.00
1126.685, 17159.00
1127.779, 17078.00
1128.873, 17110.00
1129.967, 17142.00
1131.060, 17151.00
1132.153, 17048.00
1133.247, 17344.00
1134.340, 17103.00
1135.433, 17208.00
1136.525, 17173.00
1137.618, 17020.00
1138.710, 17205.00
1139.802, 17317.00
1140.895, 17229.00
1141.987, 17262.00
1143.078, 17230.00
1144.170, 17204.00
1145.261, 17284.00
1146.353, 17257.59
1147.444, 17395.00
1148.535, 17312.00
1149.626, 17333.00
1150.716, 17414.00
1151.807, 17413.00
1152.897, 17283.00
1153.988, 17416.00
1155.078, 17446.00
1156.168, 17377.00
1157.257, 17485.00
1158.347, 17297.00
1159.436, 17431.00
1160.526, 17431.00
1161.615, 17494.00
1162.704, 17475.00
1163.793, 17466.14
1164.881, 17510.00
1165.970, 17452.00
1167.058, 17359.00
1168.147, 17433.00
1169.235, 17601.00
1170.323, 17477.00
1171.410, 17676.00
1172.498, 17542.00
1173.585, 17570.00
1174.673, 17666.00
1175.760, 17581.00
1176.847, 17600.00
1177.934, 17748.00
1179.020, 17631.34
1180.107, 17724.00
1181.193, 17619.00
1182.279, 17714.00
1183.365, 17914.00
1184.451, 17841.00
1185.537, 17542.00
1186.623, 17867.00
1187.708, 17654.00
1188.793, 17722.00
1189.878, 17766.00
1190.963, 17744.00
1192.048, 17850.00
1193.133, 17658.00
1194.217, 17874.00
1195.302, 17900.00
1196.386, 18034.00
1197.470, 17875.00
1198.554, 17823.00
1199.638, 17936.00
1200.721, 17845.00
1201.805, 18039.00
1202.888, 18138.00
1203.971, 18066.00
1205.054, 17954.00
1206.137, 18082.00
1207.219, 18041.00
1208.302, 18152.00
1209.384, 18011.00
1210.466, 17922.00
1211.548, 18125.00
1212.630, 18079.00
1213.712, 18269.00
1214.794, 18189.00
1215.875, 18230.00
1216.956, 18185.00
1218.037, 18155.00
1219.118, 18220.00
1220.199, 18276.00
1221.280, 18350.00
1222.360, 18298.00
1223.441, 18352.00
1224.521, 18343.00
1225.601, 18237.00
1226.681, 18317.00
1227.760, 18370.00
1228.840, 18551.00
1229.919, 18507.00
1230.999, 18421.00
1232.078, 18573.00
1233.157, 18490.00
1234.236, 18302.00
1235.314, 18545.00
1236.393, 18385.00
1237.471, 18479.00
1238.549, 18475.00
1239.627, 18606.00
1240.705, 18585.00
1241.783, 18544.00
1242.860, 18628.00
1243.938, 18618.09
1245.015, 18625.00
1246.092, 18670.00
1247.169, 18714.00
1248.246, 18708.00
1249.323, 18698.00
1250.399, 18697.00
1251.475, 18697.20
1252.552, 18604.00
1253.628, 18654.00
1254.703, 18789.00
1255.779, 18671.00
1256.855, 18705.00
1257.930, 18768.00
1259.005, 18734.00
1260.080, 18760.00
1261.155, 18755.00
1262.230, 18784.00
1263.305, 18806.00
1264.379, 18978.00
1265.454, 18922.00
1266.528, 18985.00
1267.602, 18837.00
1268.676, 18961.00
1269.750, 19009.00
1270.823, 19071.00
1271.897, 19045.00
1272.970, 19034.00
1274.043, 19004.00
1275.116, 19099.00
1276.189, 18996.00
1277.261, 19076.00
1278.334, 18915.00
1279.406, 18963.00
1280.478, 19142.00
1281.550, 19277.00
1282.622, 19194.00
1283.694, 19047.00
1284.766, 19187.00
1285.837, 19045.00
1286.908, 19196.00
1287.979, 19158.00
1289.050, 19093.00
1290.121, 19248.00
1291.192, 19328.00
1292.262, 19244.00
1293.333, 19222.00
1294.403, 19326.00
1295.473, 19399.00
1296.543, 19405.00
1297.613, 19485.00
1298.682, 19502.65
1299.752, 19375.00
1300.821, 19550.00
1301.890, 19485.00
1302.959, 19499.00
1304.028, 19338.00
1305.096, 19485.00
1306.165, 19435.00
1307.233, 19632.00
1308.301, 19483.00
1309.370, 19600.00
1310.437, 19549.00
1311.505, 19610.00
1312.573, 19755.00
1313.640, 19704.00
1314.708, 19754.00
1315.775, 19613.00
1316.842, 19819.00
1317.908, 19524.00
1318.975, 19725.00
1320.042, 19893.00
1321.108, 19759.00
1322.174, 19849.00
1323.240, 19845.00
1324.306, 19919.00
1325.372, 19773.00
1326.438, 19853.00
1327.503, 19697.00
1328.568, 19992.00
1329.634, 19931.00
1330.699, 19792.00
1331.763, 19987.00
1332.828, 19790.00
1333.893, 20126.00
1334.957, 19956.00
1336.021, 20037.00
1337.085, 19928.00
1338.149, 19972.00
1339.213, 20075.00
1340.277, 20177.00
1341.340, 20071.00
1342.404, 20115.00
1343.467, 20005.00
1344.530, 19834.00
1345.593, 19846.00
1346.655, 19960.00
1347.718, 20188.00
1348.780, 20132.00
1349.843, 20005.00
1350.905, 20051.00
1351.967, 20036.00
1353.028, 19912.00
1354.090, 20221.00
1355.152, 20074.00
1356.213, 20184.00
1357.274, 19989.00
1358.335, 20152.00
1359.396, 20279.00
1360.457, 20049.00
1361.517, 20315.00
1362.578, 20337.00
1363.638, 20220.00
1364.698, 20401.00
1365.758, 20390.00
1366.818, 20264.00
1367.878, 20348.00
1368.937, 20363.00
1369.997, 20284.00
1371.056, 20311.00
1372.115, 20246.00
1373.174, 20223.00
1374.232, 20219.91
1375.291, 20379.00
1376.350, 20293.00
1377.408, 20348.00
1378.466, 20591.00
1379.524, 20580.00
1380.582, 20453.00
1381.640, 20567.00
1382.697, 20352.00
1383.754, 20627.00
1384.812, 20431.00
1385.869, 20383.00
1386.926, 20542.00
1387.983, 20551.00
1389.039, 20632.00
1390.096, 20645.62
1391.152, 20657.93
1392.208, 20628.00
1393.264, 20659.00
1394.320, 20655.00
1395.376, 20645.70
1396.431, 20635.00
1397.487, 20549.00
1398.542, 20558.00
1399.597, 20497.00
1400.652, 20620.00
1401.707, 20791.00
1402.762, 20693.00
1403.816, 20716.00
1404.871, 20763.00
1405.925, 20748.00
1406.979, 20828.00
1408.033, 20901.00
1409.086, 20924.00
1410.140, 20911.00
1411.194, 20910.00
1412.247, 20891.71
1413.300, 20858.68
1414.353, 20873.00
1415.406, 20810.00
1416.458, 20871.00
1417.511, 20920.00
1418.563, 21017.00
1419.616, 21045.00
1420.668, 21033.82
1421.720, 21122.00
1422.772, 20942.00
1423.823, 21017.00
1424.875, 20931.00
1425.926, 20839.00
1426.977, 21257.00
1428.028, 21176.00
1429.079, 21684.00
1430.130, 21415.00
1431.180, 21345.00
1432.231, 21196.00
1433.281, 21390.00
1434.331, 21165.00
1435.381, 21295.00
1436.431, 21199.00
1437.481, 21144.00
1438.530, 21401.00
1439.580, 21383.00
1440.629, 21463.00
1441.678, 21452.00
1442.727, 21459.00
1443.776, 21510.00
1444.824, 21397.00
1445.873, 21477.00
1446.921, 21391.00
1447.969, 21482.00
1449.017, 21541.00
1450.065, 21381.00
1451.113, 21359.00
1452.160, 21439.00
1453.208, 21650.00
1454.255, 21392.00
1455.302, 21535.00
1456.349, 21507.00
1457.396, 21542.00
1458.443, 21656.00
1459.489, 21815.00
1460.535, 21711.00
1461.582, 21445.00
1462.628, 21897.00
1463.674, 21712.00
1464.719, 21679.00
1465.765, 21839.00
1466.810, 21766.00
1467.856, 21669.00
1468.901, 22043.00
1469.946, 21785.00
1470.991, 21785.00
1472.035, 21871.00
1473.080, 22043.00
1474.124, 21983.00
1475.169, 21965.00
1476.213, 21981.00
1477.257, 21951.16
1478.300, 21972.00
1479.344, 21988.00
1480.388, 22059.00
1481.431, 22183.00
1482.474, 22044.00
1483.517, 22151.00
1484.560, 22037.00
1485.603, 22012.00
1486.645, 22219.00
1487.688, 22227.00
1488.730, 22010.00
1489.772, 22068.00
1490.814, 22041.00
1491.856, 22229.00
1492.898, 22250.00
1493.939, 22152.00
1494.981, 22284.00
1496.022, 22354.00
1497.063, 22269.00
1498.104, 22414.00
1499.145, 22256.00
1500.186, 22282.00
1501.226, 22433.00
1502.266, 22380.00
1503.307, 22248.00
1504.347, 22431.00
1505.387, 22150.00
1506.426, 22260.00
1507.466, 22563.00
1508.505, 22411.00
1509.545, 22442.00
1510.584, 22507.00
1511.623, 22439.00
1512.662, 22591.00
1513.700, 22593.00
1514.739, 22569.00
1515.777, 22633.00
1516.815, 22728.00
1517.854, 22485.00
1518.892, 22580.00
1519.929, 22590.00
1520.967, 22779.00
1522.004, 22788.00
1523.042, 22813.68
1524.079, 22849.00
1525.116, 22801.00
1526.153, 22858.96
1527.190, 22674.00
1528.226, 22906.00
1529.263, 22916.00
1530.299, 22896.00
1531.335, 22761.00
1532.371, 23096.00
1533.407, 22998.00
1534.443, 23006.00
1535.478, 22955.00
1536.514, 22975.00
1537.549, 22883.00
1538.584, 22950.00
1539.619, 22947.00
1540.654, 22928.14
1541.689, 22959.42
1542.723, 22925.00
1543.757, 22994.00
1544.792, 23003.00
1545.826, 23067.00
1546.860, 23094.00
1547.893, 23138.88
1548.927, 23212.00
1549.960, 23201.00
1550.994, 23304.00
1552.027, 23271.00
1553.060, 23197.00
1554.093, 23066.00
1555.126, 23277.00
1556.158, 23472.00
1557.191, 23236.00
1558.223, 23197.00
1559.255, 23223.00
1560.287, 23437.00
1561.319, 23254.00
1562.350, 23290.00
1563.382, 23421.00
##END=



