##NAMES=Kyanite
##RRUFFID=R040119
##IDEAL CHEMISTRY=Al_2_OSiO_4_
##LOCALITY=Rutherford County, North Carolina, USA
##OWNER=RRUFF
##SOURCE=University of Arizona Mineral Museum
##DESCRIPTION=Blue bladed crystal
##STATUS=The identification of this mineral has been confirmed by X-ray diffraction and chemical analysis
##URL=rruff.info/R040119
##MEASURED CHEMISTRY=(Al_0.99_Fe^3+^_0.01_)_2_OSi_1.00_O_4_
##PIN_ID=L01022
##ORIENTATION=Laser parallel to (1 1 0). Fiducial mark perpendicular to laser is parallel to -c [0 0 -1]
131.4640, 3944.000
132.6970, 3997.000
133.9300, 4038.000
135.1630, 4073.000
136.3950, 4129.000
137.6280, 4192.000
138.8600, 4239.010
140.0920, 4285.161
141.3240, 4357.000
142.5560, 4340.000
143.7880, 4408.000
145.0190, 4382.000
146.2510, 4434.000
147.4820, 4477.000
148.7130, 4537.000
149.9440, 4511.000
151.1750, 4585.000
152.4050, 4644.000
153.6360, 4536.000
154.8660, 4622.000
156.0960, 4779.000
157.3260, 4737.000
158.5560, 4642.000
159.7850, 4781.000
161.0150, 4769.000
162.2440, 4811.000
163.4730, 4833.000
164.7020, 4915.000
165.9310, 4999.000
167.1590, 5034.000
168.3880, 5060.000
169.6160, 5050.000
170.8440, 5256.000
172.0720, 5327.000
173.3000, 5426.000
174.5280, 5624.000
175.7550, 5681.000
176.9820, 5760.000
178.2100, 5641.000
179.4370, 5587.000
180.6630, 5436.000
181.8900, 5261.000
183.1170, 5183.000
184.3430, 5097.000
185.5690, 5141.000
186.7950, 5127.000
188.0210, 5164.000
189.2470, 5105.000
190.4720, 5263.000
191.6970, 5188.000
192.9230, 5270.000
194.1480, 5302.000
195.3730, 5412.000
196.5970, 5400.000
197.8220, 5480.000
199.0460, 5674.000
200.2700, 5709.000
201.4940, 5858.000
202.7180, 6125.000
203.9420, 6502.000
205.1660, 6861.000
206.3890, 7021.000
207.6120, 7138.000
208.8350, 7015.000
210.0580, 6643.000
211.2810, 6315.000
212.5040, 5975.000
213.7260, 5880.000
214.9480, 5732.000
216.1700, 5887.000
217.3920, 5774.000
218.6140, 5960.000
219.8360, 6211.000
221.0570, 6478.000
222.2790, 6934.000
223.5000, 7610.000
224.7210, 8009.000
225.9410, 8498.000
227.1620, 8438.000
228.3820, 8041.000
229.6030, 7460.000
230.8230, 6776.000
232.0430, 6272.000
233.2630, 6012.000
234.4820, 5767.000
235.7020, 5691.000
236.9210, 5645.000
238.1400, 5744.000
239.3590, 5720.000
240.5780, 5826.000
241.7970, 5947.000
243.0150, 6105.000
244.2340, 6087.000
245.4520, 6145.000
246.6700, 6160.000
247.8880, 6156.000
249.1060, 6012.000
250.3230, 5892.000
251.5400, 5833.000
252.7580, 5692.000
253.9750, 5557.000
255.1920, 5389.000
256.4080, 5302.000
257.6250, 5352.000
258.8410, 5235.340
260.0580, 5300.000
261.2740, 5166.000
262.4900, 5114.000
263.7050, 5113.000
264.9210, 5131.000
266.1360, 5223.000
267.3520, 5463.000
268.5670, 5518.000
269.7820, 5736.000
270.9960, 5920.000
272.2110, 6413.000
273.4250, 7024.000
274.6400, 7909.000
275.8540, 8945.000
277.0680, 9740.000
278.2810, 9815.000
279.4950, 9444.000
280.7090, 8700.000
281.9220, 8158.000
283.1350, 7775.000
284.3480, 7688.000
285.5610, 8179.000
286.7730, 9002.000
287.9860, 10204.00
289.1980, 12318.00
290.4100, 14475.00
291.6220, 15940.00
292.8340, 16748.00
294.0460, 17453.00
295.2570, 19905.00
296.4690, 24528.00
297.6800, 31192.00
298.8910, 40618.00
300.1020, 49876.00
301.3120, 53331.00
302.5230, 49447.00
303.7330, 40472.00
304.9440, 29636.00
306.1540, 21407.00
307.3630, 15518.00
308.5730, 11696.00
309.7830, 9785.000
310.9920, 8616.000
312.2010, 8222.000
313.4100, 8367.000
314.6190, 8671.000
315.8280, 9456.000
317.0370, 10063.00
318.2450, 10980.00
319.4530, 12770.00
320.6610, 15495.00
321.8690, 19504.00
323.0770, 24599.00
324.2850, 30274.00
325.4920, 32586.00
326.6990, 30818.00
327.9060, 25652.00
329.1130, 20220.00
330.3200, 15230.00
331.5270, 11797.00
332.7330, 9466.000
333.9390, 8067.000
335.1450, 7714.000
336.3510, 7511.000
337.5570, 7817.000
338.7630, 8134.000
339.9680, 8801.000
341.1740, 9004.000
342.3790, 8913.000
343.5840, 8391.000
344.7890, 8004.000
345.9930, 7556.000
347.1980, 7343.000
348.4020, 7199.000
349.6060, 7453.000
350.8100, 7923.000
352.0140, 8491.000
353.2180, 9354.000
354.4210, 10699.00
355.6250, 12950.00
356.8280, 16087.00
358.0310, 19971.00
359.2340, 23387.00
360.4360, 24452.00
361.6390, 22311.00
362.8410, 18796.00
364.0430, 15211.00
365.2450, 12287.00
366.4470, 10376.00
367.6490, 9485.000
368.8510, 9154.000
370.0520, 9502.000
371.2530, 9846.000
372.4540, 10553.00
373.6550, 11511.00
374.8560, 12657.00
376.0560, 14155.00
377.2570, 15505.00
378.4570, 17527.00
379.6570, 20074.00
380.8570, 23685.00
382.0570, 28647.00
383.2560, 34276.00
384.4560, 37953.00
385.6550, 38444.00
386.8540, 36327.00
388.0530, 33697.00
389.2520, 32210.00
390.4510, 33070.00
391.6490, 34281.00
392.8470, 33550.00
394.0450, 29294.00
395.2430, 24409.00
396.4410, 20224.00
397.6390, 18063.00
398.8360, 17936.00
400.0340, 20162.00
401.2310, 23911.00
402.4280, 28569.00
403.6250, 31814.00
404.8210, 31375.00
406.0180, 27745.00
407.2140, 22909.00
408.4100, 18046.00
409.6060, 14419.00
410.8020, 11911.00
411.9980, 10230.00
413.1930, 9323.000
414.3890, 9017.000
415.5840, 9073.000
416.7790, 9288.000
417.9740, 9575.000
419.1680, 9737.000
420.3630, 9587.000
421.5570, 9575.000
422.7510, 9056.000
423.9450, 9160.000
425.1390, 9149.000
426.3330, 9828.000
427.5270, 10680.00
428.7200, 12064.00
429.9130, 14057.00
431.1060, 16437.00
432.2990, 19959.00
433.4920, 24678.00
434.6840, 30376.00
435.8770, 35828.00
437.0690, 40197.00
438.2610, 41442.00
439.4530, 39069.00
440.6450, 33973.00
441.8360, 28325.00
443.0280, 23324.00
444.2190, 20432.00
445.4100, 19229.00
446.6010, 19305.00
447.7920, 19383.00
448.9820, 18668.00
450.1730, 16590.00
451.3630, 14351.00
452.5530, 12121.00
453.7430, 10684.00
454.9330, 9347.000
456.1230, 8790.000
457.3120, 8671.000
458.5010, 8483.000
459.6910, 8482.000
460.8800, 8819.000
462.0680, 9462.000
463.2570, 10016.00
464.4460, 10476.00
465.6340, 10692.00
466.8220, 10822.00
468.0100, 10743.00
469.1980, 10686.00
470.3860, 11399.00
471.5730, 10961.00
472.7600, 11618.00
473.9480, 12728.00
475.1350, 14761.00
476.3210, 17392.00
477.5080, 21229.00
478.6950, 25849.00
479.8810, 32354.00
481.0670, 41539.00
482.2530, 54722.00
483.4390, 70352.00
484.6250, 87134.00
485.8100, 98826.00
486.9960, 100592.0
488.1810, 90961.00
489.3660, 76117.00
490.5510, 61011.00
491.7360, 48462.00
492.9200, 38849.00
494.1050, 31125.00
495.2890, 25838.00
496.4730, 21760.00
497.6570, 18295.00
498.8400, 15707.00
500.0240, 13954.00
501.2070, 12871.00
502.3910, 12008.00
503.5740, 11422.00
504.7570, 11103.00
505.9400, 11148.00
507.1220, 11073.00
508.3050, 11102.00
509.4870, 11379.00
510.6690, 11781.00
511.8510, 11686.00
513.0330, 11592.00
514.2140, 11030.00
515.3960, 10280.00
516.5770, 9603.000
517.7580, 8810.000
518.9390, 8235.000
520.1200, 7736.000
521.3010, 7556.000
522.4810, 7237.000
523.6610, 7169.000
524.8420, 6961.000
526.0220, 6895.000
527.2010, 6840.000
528.3810, 6700.000
529.5610, 6640.000
530.7400, 6627.000
531.9190, 6577.000
533.0980, 6644.000
534.2770, 6585.000
535.4560, 6528.000
536.6340, 6612.000
537.8120, 6680.000
538.9910, 6642.000
540.1690, 6806.000
541.3460, 6852.000
542.5240, 7040.000
543.7020, 7185.000
544.8790, 7304.000
546.0560, 7402.000
547.2330, 7295.000
548.4100, 7305.000
549.5870, 7253.000
550.7630, 7083.000
551.9400, 6982.000
553.1160, 7257.000
554.2920, 7482.000
555.4680, 7849.000
556.6440, 8280.000
557.8190, 8980.000
558.9950, 9937.000
560.1700, 11405.00
561.3450, 12728.00
562.5200, 13807.00
563.6950, 13559.00
564.8690, 12501.00
566.0440, 11365.00
567.2180, 10208.00
568.3920, 9597.000
569.5660, 8865.000
570.7400, 8621.000
571.9130, 8619.000
573.0870, 8446.000
574.2600, 8366.000
575.4330, 8060.000
576.6060, 7711.000
577.7790, 7633.000
578.9520, 7223.000
580.1240, 7190.000
581.2960, 7085.000
582.4690, 6958.000
583.6410, 6990.000
584.8120, 6852.000
585.9840, 6760.000
587.1560, 6763.000
588.3270, 6687.000
589.4980, 6617.000
590.6690, 6743.000
591.8400, 6804.000
593.0110, 6894.000
594.1810, 7204.000
595.3510, 7370.000
596.5220, 7882.000
597.6920, 8361.000
598.8610, 8864.000
600.0310, 9759.000
601.2010, 10669.00
602.3700, 12017.00
603.5390, 13404.00
604.7080, 14779.00
605.8770, 15627.00
607.0460, 15609.00
608.2140, 15379.00
609.3830, 14150.00
610.5510, 13074.00
611.7190, 12105.00
612.8870, 11471.00
614.0550, 11028.00
615.2220, 11212.00
616.3900, 11279.00
617.5570, 11445.00
618.7240, 11202.00
619.8910, 11046.00
621.0580, 10714.00
622.2240, 10422.00
623.3910, 10147.00
624.5570, 10031.00
625.7230, 10225.00
626.8890, 10484.00
628.0550, 10611.00
629.2200, 10798.00
630.3860, 10889.00
631.5510, 10812.00
632.7160, 10842.00
633.8810, 10699.00
635.0460, 10880.00
636.2100, 10967.00
637.3750, 11065.00
638.5390, 10893.00
639.7030, 10273.00
640.8670, 10050.00
642.0310, 9064.000
643.1950, 8467.000
644.3580, 8276.000
645.5210, 8059.000
646.6850, 8107.000
647.8480, 8224.000
649.0100, 8463.928
650.1730, 8947.000
651.3350, 9364.000
652.4980, 9918.000
653.6600, 10691.00
654.8220, 11183.00
655.9840, 11851.00
657.1450, 11900.00
658.3070, 11603.00
659.4680, 11133.00
660.6300, 10401.00
661.7910, 9565.000
662.9510, 9076.000
664.1120, 8640.000
665.2730, 8265.000
666.4330, 8331.000
667.5930, 8280.000
668.7530, 8276.000
669.9130, 8231.940
671.0730, 8135.401
672.2320, 8052.000
673.3920, 7843.000
674.5510, 7633.000
675.7100, 7312.000
676.8690, 7297.000
678.0280, 7151.000
679.1860, 7110.000
680.3450, 7204.000
681.5030, 7154.000
682.6610, 7084.000
683.8190, 7086.000
684.9770, 7161.000
686.1340, 6955.000
687.2920, 6961.000
688.4490, 6942.000
689.6060, 6692.000
690.7630, 6528.000
691.9200, 6481.000
693.0760, 6407.000
694.2330, 6411.000
695.3890, 6429.000
696.5450, 6500.000
697.7010, 6530.000
698.8570, 6539.000
700.0130, 6704.000
701.1680, 6734.000
702.3230, 6979.000
703.4780, 6990.000
704.6330, 6978.000
705.7880, 6989.000
706.9430, 6893.000
708.0970, 6747.000
709.2520, 6596.000
710.4060, 6522.000
711.5600, 6496.000
712.7140, 6393.000
713.8670, 6479.000
715.0210, 6513.000
716.1740, 6526.000
717.3270, 6607.000
718.4800, 6702.000
719.6330, 6909.000
720.7860, 7109.000
721.9380, 7314.000
723.0910, 7569.000
724.2430, 7682.000
725.3950, 7584.000
726.5470, 7335.000
727.6980, 7166.000
728.8500, 6887.000
730.0010, 6504.000
731.1530, 6327.000
732.3040, 6254.000
733.4550, 6012.000
734.6050, 5972.000
735.7560, 5969.000
736.9060, 5809.000
738.0560, 5801.000
739.2060, 5636.000
740.3560, 5724.000
741.5060, 5620.000
742.6560, 5537.000
743.8050, 5491.000
744.9540, 5483.000
746.1030, 5412.000
747.2520, 5372.000
748.4010, 5350.000
749.5500, 5286.000
750.6980, 5304.000
751.8460, 5243.000
752.9950, 5091.000
754.1420, 5140.000
755.2900, 5038.000
756.4380, 5037.000
757.5850, 4941.000
758.7330, 4964.000
759.8800, 4915.000
761.0270, 4787.000
762.1730, 4839.000
763.3200, 4860.000
764.4670, 4817.000
765.6130, 4849.485
766.7590, 4791.444
767.9050, 4865.000
769.0510, 4648.000
770.1960, 4671.000
771.3420, 4527.000
772.4870, 4564.000
773.6320, 4516.000
774.7770, 4593.000
775.9220, 4566.000
777.0670, 4475.000
778.2110, 4473.000
779.3560, 4453.000
780.5000, 4541.000
781.6440, 4492.000
782.7880, 4475.000
783.9320, 4568.000
785.0750, 4434.000
786.2180, 4368.000
787.3620, 4522.000
788.5050, 4441.000
789.6480, 4435.000
790.7900, 4361.000
791.9330, 4479.000
793.0750, 4374.000
794.2170, 4469.000
795.3590, 4356.000
796.5010, 4383.000
797.6430, 4459.000
798.7850, 4604.000
799.9260, 4555.000
801.0670, 4458.000
802.2080, 4521.000
803.3490, 4458.000
804.4900, 4499.000
805.6310, 4507.000
806.7710, 4525.000
807.9110, 4521.000
809.0510, 4519.000
810.1910, 4590.000
811.3310, 4591.000
812.4710, 4530.000
813.6100, 4500.000
814.7490, 4575.000
815.8880, 4551.000
817.0270, 4596.000
818.1660, 4700.000
819.3050, 4624.000
820.4430, 4625.000
821.5820, 4668.000
822.7200, 4620.000
823.8580, 4621.000
824.9950, 4661.000
826.1330, 4652.000
827.2710, 4682.000
828.4080, 4704.000
829.5450, 4703.000
830.6820, 4745.000
831.8190, 4762.000
832.9560, 4734.000
834.0920, 4787.000
835.2280, 4808.000
836.3650, 4828.000
837.5010, 4816.000
838.6360, 4798.000
839.7720, 4865.000
840.9080, 4831.000
842.0430, 4976.000
843.1780, 4951.000
844.3130, 4948.000
845.4480, 4985.000
846.5830, 5138.000
847.7170, 5175.000
848.8520, 5177.000
849.9860, 5153.000
851.1200, 5278.000
852.2540, 5362.000
853.3870, 5366.000
854.5210, 5427.000
855.6540, 5477.000
856.7880, 5595.000
857.9210, 5700.000
859.0540, 5880.000
860.1860, 5958.000
861.3190, 5989.000
862.4510, 6149.000
863.5840, 6229.000
864.7160, 6425.000
865.8480, 6542.000
866.9790, 6764.000
868.1110, 6907.000
869.2420, 7108.000
870.3740, 7486.000
871.5050, 7679.000
872.6360, 8068.000
873.7660, 8446.000
874.8970, 8930.000
876.0280, 9469.000
877.1580, 10175.00
878.2880, 11096.00
879.4180, 11936.00
880.5480, 13135.00
881.6770, 14665.00
882.8070, 16428.00
883.9360, 18598.00
885.0650, 21018.00
886.1940, 24020.00
887.3230, 26934.00
888.4520, 30096.00
889.5800, 32024.00
890.7090, 32954.00
891.8370, 32313.00
892.9650, 30338.00
894.0930, 27452.00
895.2200, 24468.00
896.3480, 21621.00
897.4750, 19010.00
898.6020, 17159.00
899.7290, 15808.00
900.8560, 14578.00
901.9830, 13867.00
903.1090, 13176.00
904.2360, 12786.00
905.3620, 12314.00
906.4880, 11612.00
907.6140, 11421.00
908.7400, 11191.00
909.8650, 10785.00
910.9900, 10654.00
912.1160, 10683.00
913.2410, 10581.00
914.3660, 10569.00
915.4900, 10555.00
916.6150, 10771.00
917.7390, 10863.00
918.8640, 11097.00
919.9880, 11196.00
921.1120, 11515.00
922.2350, 11767.00
923.3590, 12146.00
924.4820, 12586.00
925.6060, 13068.00
926.7290, 13649.00
927.8520, 14158.00
928.9740, 15019.00
930.0970, 15837.00
931.2190, 16822.00
932.3420, 18111.00
933.4640, 19573.00
934.5860, 20872.00
935.7080, 22330.00
936.8290, 23992.00
937.9510, 25659.00
939.0720, 27245.00
940.1930, 29029.00
941.3140, 31039.31
942.4350, 32862.00
943.5560, 35522.00
944.6760, 38218.00
945.7960, 41070.00
946.9170, 44515.00
948.0370, 47341.00
949.1560, 50140.00
950.2760, 52391.00
951.3960, 53696.00
952.5150, 54161.00
953.6340, 53284.00
954.7530, 51884.00
955.8720, 50071.00
956.9910, 48973.00
958.1090, 47476.00
959.2280, 46824.00
960.3460, 46298.00
961.4640, 44927.00
962.5820, 43624.00
963.6990, 41658.00
964.8170, 38901.00
965.9340, 35940.00
967.0510, 32707.00
968.1690, 29751.00
969.2850, 26427.00
970.4020, 23837.00
971.5190, 21740.00
972.6350, 19733.00
973.7510, 18040.00
974.8670, 16630.07
975.9830, 15620.00
977.0990, 14505.00
978.2150, 13655.00
979.3300, 13159.00
980.4450, 12570.00
981.5600, 12034.00
982.6750, 11519.00
983.7900, 11147.00
984.9050, 10856.00
986.0190, 10618.74
987.1340, 10478.60
988.2480, 10418.00
989.3620, 10414.00
990.4750, 10506.00
991.5890, 10667.00
992.7020, 11028.00
993.8160, 11595.00
994.9290, 12240.00
996.0420, 13281.00
997.1550, 14480.00
998.2670, 15527.00
999.3800, 16948.00
1000.492, 18129.00
1001.604, 18442.00
1002.716, 18047.00
1003.828, 16890.00
1004.940, 15726.00
1006.051, 14312.00
1007.163, 12816.00
1008.274, 11553.00
1009.385, 10612.00
1010.496, 9781.000
1011.606, 9288.000
1012.717, 8816.000
1013.827, 8342.000
1014.937, 7957.000
1016.047, 7712.000
1017.157, 7490.000
1018.267, 7399.000
1019.377, 7133.000
1020.486, 7092.000
1021.595, 6798.000
1022.704, 6827.000
1023.813, 6599.000
1024.922, 6578.000
1026.030, 6521.000
1027.139, 6420.000
1028.247, 6390.000
1029.355, 6300.020
1030.463, 6196.000
1031.571, 6152.000
1032.678, 6055.000
1033.786, 5992.000
1034.893, 5926.000
1036.000, 5957.000
1037.107, 5909.000
1038.214, 5846.000
1039.321, 5789.000
1040.427, 5754.000
1041.533, 5706.401
1042.639, 5667.000
1043.745, 5623.000
1044.851, 5622.000
1045.957, 5560.000
1047.062, 5595.000
1048.168, 5480.000
1049.273, 5460.000
1050.378, 5436.000
1051.482, 5472.000
1052.587, 5479.000
1053.692, 5473.000
1054.796, 5426.000
1055.900, 5378.000
1057.004, 5371.432
1058.108, 5369.000
1059.212, 5336.000
1060.315, 5300.000
1061.418, 5271.000
1062.522, 5241.033
1063.625, 5201.239
1064.728, 5200.000
1065.830, 5174.000
1066.933, 5184.000
1068.035, 5284.000
1069.137, 5145.000
1070.239, 5066.000
1071.341, 5156.000
1072.443, 5236.000
1073.545, 5100.000
1074.646, 5130.000
1075.747, 5116.000
1076.848, 5101.000
1077.949, 5068.000
1079.050, 5014.000
1080.150, 5023.000
1081.251, 4992.359
1082.351, 5008.000
1083.451, 4974.000
1084.551, 4984.000
1085.651, 4986.000
1086.750, 4972.000
1087.850, 4945.000
1088.949, 4918.000
1090.048, 4915.784
1091.147, 4923.000
1092.246, 4906.000
1093.345, 4905.000
1094.443, 4893.964
1095.541, 4840.000
1096.639, 4893.146
1097.737, 4889.413
1098.835, 4839.000
1099.933, 4890.000
1101.030, 4810.000
1102.128, 4760.000
1103.225, 4794.000
1104.322, 4756.000
1105.419, 4733.000
1106.515, 4768.000
1107.612, 4813.000
1108.708, 4795.000
1109.804, 4748.000
1110.900, 4771.000
1111.996, 4757.000
1113.092, 4785.000
1114.187, 4834.000
1115.283, 4774.000
1116.378, 4724.000
1117.473, 4763.000
1118.568, 4741.000
1119.662, 4631.000
1120.757, 4741.000
1121.851, 4760.000
1122.946, 4762.000
1124.040, 4687.000
1125.134, 4747.000
1126.227, 4672.000
1127.321, 4744.000
1128.414, 4731.000
1129.508, 4699.000
1130.601, 4690.000
1131.693, 4677.649
1132.786, 4696.000
1133.879, 4685.000
1134.971, 4709.000
1136.064, 4764.000
1137.156, 4606.000
1138.248, 4643.000
1139.339, 4611.000
1140.431, 4677.000
1141.522, 4664.000
1142.614, 4553.000
1143.705, 4647.000
1144.796, 4676.000
1145.887, 4596.000
1146.977, 4520.000
1148.068, 4625.000
1149.158, 4541.000
1150.248, 4554.000
1151.338, 4591.000
1152.428, 4538.000
1153.518, 4608.000
1154.607, 4592.000
1155.696, 4676.000
1156.785, 4538.000
1157.874, 4593.000
1158.963, 4587.000
1160.052, 4536.000
1161.141, 4549.000
1162.229, 4564.000
1163.317, 4579.000
1164.405, 4530.000
1165.493, 4638.000
1166.581, 4538.000
1167.668, 4677.000
1168.756, 4612.000
1169.843, 4531.000
1170.930, 4534.000
1172.017, 4413.000
1173.103, 4490.000
1174.190, 4422.000
1175.276, 4444.000
1176.363, 4509.000
1177.449, 4508.000
1178.535, 4469.000
1179.620, 4501.000
1180.706, 4493.000
1181.791, 4520.395
1182.877, 4513.411
1183.962, 4504.199
1185.047, 4479.000
1186.131, 4490.000
1187.216, 4431.000
1188.300, 4453.000
1189.385, 4461.000
1190.469, 4548.000
1191.553, 4410.000
1192.637, 4512.000
1193.720, 4548.000
1194.804, 4389.000
1195.887, 4551.000
1196.970, 4495.000
1198.053, 4408.000
1199.136, 4518.000
1200.219, 4396.000
1201.301, 4534.000
1202.383, 4453.000
1203.465, 4507.000
1204.547, 4475.000
1205.629, 4516.000
1206.711, 4452.000
1207.792, 4441.000
1208.874, 4458.000
1209.955, 4412.000
1211.036, 4530.000
1212.117, 4447.000
1213.198, 4399.000
1214.278, 4508.000
1215.359, 4474.000
1216.439, 4477.000
1217.519, 4496.000
1218.599, 4484.000
1219.678, 4531.000
1220.758, 4514.896
1221.837, 4430.000
1222.917, 4486.000
1223.996, 4450.000
1225.075, 4393.000
1226.153, 4479.000
1227.232, 4458.000
1228.310, 4539.000
1229.389, 4479.000
1230.467, 4451.000
1231.545, 4442.000
1232.622, 4472.000
1233.700, 4444.000
1234.777, 4469.000
1235.855, 4560.000
1236.932, 4449.000
1238.009, 4532.000
1239.086, 4504.000
1240.162, 4450.000
1241.239, 4536.000
1242.315, 4548.000
1243.391, 4560.000
1244.467, 4533.000
1245.543, 4506.000
1246.619, 4512.000
1247.694, 4437.000
1248.769, 4541.000
1249.844, 4574.000
1250.919, 4434.000
1251.994, 4540.000
1253.069, 4515.000
1254.144, 4482.000
1255.218, 4597.000
1256.292, 4492.000
1257.366, 4509.000
1258.440, 4445.000
1259.514, 4490.000
1260.587, 4486.000
1261.661, 4479.000
1262.734, 4467.000
1263.807, 4455.000
1264.880, 4559.000
1265.952, 4490.000
1267.025, 4509.000
1268.097, 4503.000
1269.170, 4446.000
1270.242, 4535.000
1271.314, 4420.000
1272.385, 4480.000
1273.457, 4488.000
1274.528, 4468.000
1275.600, 4459.000
1276.671, 4540.000
1277.742, 4505.000
1278.812, 4540.000
1279.883, 4550.803
1280.954, 4415.000
1282.024, 4550.000
1283.094, 4442.000
1284.164, 4414.000
1285.234, 4473.000
1286.303, 4491.000
1287.373, 4451.000
1288.442, 4499.457
1289.511, 4438.000
1290.580, 4513.000
1291.649, 4457.000
1292.718, 4413.000
1293.786, 4434.000
1294.855, 4411.431
1295.923, 4443.000
1296.991, 4415.000
1298.059, 4455.000
1299.126, 4432.000
1300.194, 4428.000
1301.261, 4551.000
1302.328, 4530.000
1303.395, 4499.000
1304.462, 4496.000
1305.529, 4468.000
1306.596, 4508.000
1307.662, 4499.000
1308.728, 4485.203
1309.794, 4476.000
1310.860, 4478.000
1311.926, 4488.000
1312.991, 4540.000
1314.057, 4470.000
1315.122, 4433.000
1316.187, 4438.000
1317.252, 4478.000
1318.317, 4573.000
1319.381, 4524.000
1320.446, 4500.000
1321.510, 4474.000
1322.574, 4450.000
1323.638, 4474.000
1324.702, 4514.000
1325.766, 4498.000
1326.829, 4483.000
1327.892, 4497.000
1328.956, 4492.632
1330.019, 4443.000
1331.081, 4515.000
1332.144, 4480.000
1333.206, 4501.000
1334.269, 4437.000
1335.331, 4489.000
1336.393, 4486.000
1337.455, 4424.000
1338.516, 4382.000
1339.578, 4375.753
1340.639, 4405.000
1341.701, 4381.000
1342.762, 4335.000
1343.822, 4395.000
1344.883, 4356.000
1345.944, 4397.000
1347.004, 4376.000
1348.064, 4387.000
1349.124, 4377.000
1350.184, 4350.000
1351.244, 4308.000
1352.304, 4375.000
1353.363, 4316.000
1354.422, 4407.000
1355.481, 4243.000
1356.540, 4322.000
1357.599, 4292.000
1358.657, 4382.000
1359.716, 4345.000
1360.774, 4309.000
1361.832, 4334.000
1362.890, 4354.000
1363.948, 4329.000
1365.006, 4440.000
1366.063, 4280.000
1367.120, 4283.000
1368.178, 4368.000
1369.234, 4227.000
1370.291, 4292.000
1371.348, 4360.000
1372.404, 4292.000
1373.461, 4345.000
1374.517, 4422.000
1375.573, 4371.000
1376.629, 4302.000
1377.684, 4284.000
1378.740, 4372.000
1379.795, 4290.000
1380.850, 4330.000
1381.905, 4331.000
1382.960, 4254.000
1384.015, 4267.000
1385.070, 4291.000
1386.124, 4288.000
1387.178, 4277.000
1388.232, 4282.000
1389.286, 4258.000
1390.340, 4185.000
1391.393, 4244.000
1392.447, 4256.000
1393.500, 4247.000
1394.553, 4166.000
1395.606, 4208.000
1396.659, 4221.000
1397.711, 4258.000
1398.764, 4214.000
1399.816, 4173.000
1400.868, 4180.000
1401.920, 4164.300
1402.972, 4158.000
1404.023, 4186.000
1405.075, 4183.346
1406.126, 4268.000
1407.177, 4209.000
1408.228, 4242.000
1409.279, 4253.000
1410.330, 4221.000
1411.380, 4217.000
1412.431, 4245.000
1413.481, 4182.000
1414.531, 4205.000
1415.580, 4179.000
1416.630, 4219.000
1417.680, 4173.000
1418.729, 4303.000
1419.778, 4289.000
1420.827, 4204.000
1421.876, 4243.000
1422.925, 4155.000
1423.973, 4180.000
1425.022, 4211.000
1426.070, 4212.000
1427.118, 4246.000
1428.166, 4261.000
1429.214, 4234.000
1430.261, 4222.000
1431.309, 4283.000
1432.356, 4218.000
1433.403, 4304.000
1434.450, 4234.000
1435.497, 4272.000
1436.543, 4197.000
1437.590, 4226.000
1438.636, 4197.000
1439.682, 4210.000
1440.728, 4214.000
1441.774, 4170.000
1442.819, 4222.000
1443.865, 4193.000
1444.910, 4110.000
1445.955, 4236.000
1447.000, 4177.000
1448.045, 4189.000
1449.090, 4238.000
1450.134, 4227.000
1451.178, 4245.000
1452.223, 4139.000
1453.267, 4180.000
1454.310, 4174.000
1455.354, 4162.000
1456.398, 4178.000
1457.441, 4251.000
1458.484, 4157.000
1459.527, 4126.000
1460.570, 4155.000
1461.613, 4263.000
1462.655, 4163.000
1463.698, 4203.000
1464.740, 4166.000
1465.782, 4229.000
1466.824, 4155.000
1467.866, 4232.000
1468.907, 4237.000
1469.948, 4156.000
1470.990, 4299.000
1472.031, 4130.000
1473.072, 4163.000
1474.112, 4189.000
1475.153, 4220.000
1476.194, 4285.000
1477.234, 4149.000
1478.274, 4251.000
1479.314, 4205.000
1480.354, 4234.000
1481.393, 4242.000
1482.433, 4270.000
1483.472, 4259.974
1484.511, 4258.246
1485.550, 4226.000
1486.589, 4223.000
1487.628, 4185.000
1488.666, 4145.000
1489.704, 4174.000
1490.743, 4162.000
1491.781, 4294.000
1492.819, 4306.238
1493.856, 4288.276
1494.894, 4425.000
1495.931, 4202.000
1496.968, 4257.000
1498.005, 4179.000
1499.042, 4118.000
1500.079, 4196.000
1501.115, 4215.000
1502.152, 4172.000
1503.188, 4198.000
1504.224, 4123.000
1505.260, 4194.000
1506.296, 4216.000
1507.331, 4256.000
1508.367, 4207.000
1509.402, 4103.000
1510.437, 4122.000
1511.472, 4129.000
1512.507, 4174.000
1513.541, 4211.000
1514.576, 4202.000
1515.610, 4205.301
1516.644, 4183.000
1517.678, 4178.000
1518.712, 4178.187
1519.746, 4171.751
1520.779, 4174.000
1521.813, 4174.000
1522.846, 4159.000
1523.879, 4159.000
1524.912, 4119.000
1525.944, 4159.000
1526.977, 4190.000
1528.009, 4146.000
1529.041, 4137.000
1530.073, 4169.000
1531.105, 4101.000
1532.137, 4153.000
1533.168, 4147.000
1534.200, 4182.000
1535.231, 4163.000
1536.262, 4171.776
1537.293, 4134.000
1538.324, 4168.000
1539.354, 4147.000
1540.385, 4139.000
1541.415, 4212.000
1542.445, 4111.000
1543.475, 4196.000
1544.505, 4101.000
1545.534, 4122.000
1546.564, 4172.000
1547.593, 4272.000
1548.622, 4265.755
1549.651, 4145.000
1550.680, 4286.000
1551.708, 4229.000
1552.737, 4213.000
1553.765, 4343.000
1554.793, 4344.000
1555.821, 4298.000
1556.849, 4193.000
1557.877, 4187.000
1558.904, 4141.000
1559.932, 4173.000
1560.959, 4094.000
1561.986, 4172.000
1563.013, 4155.000
1564.039, 4167.000
1565.066, 4196.000
1566.092, 4209.000
1567.119, 4191.000
1568.145, 4165.000
1569.170, 4109.000
1570.196, 4124.000
1571.222, 4186.000
1572.247, 4133.000
1573.272, 4262.000
1574.297, 4229.000
1575.322, 4202.000
1576.347, 4148.000
1577.372, 4162.000
##END=



