##NAMES=Kyanite
##RRUFFID=R040119
##IDEAL CHEMISTRY=Al_2_OSiO_4_
##LOCALITY=Rutherford County, North Carolina, USA
##OWNER=RRUFF
##SOURCE=University of Arizona Mineral Museum
##DESCRIPTION=Blue bladed crystal
##STATUS=The identification of this mineral has been confirmed by X-ray diffraction and chemical analysis
##URL=rruff.info/R040119
##MEASURED CHEMISTRY=(Al_0.99_Fe^3+^_0.01_)_2_OSi_1.00_O_4_
##PIN_ID=L00448
##ORIENTATION=Laser parallel to -a* (-1 0 0). Fiducial mark perpendicular to laser is parallel to b [0 1 0]
127.8490, 28768.00
129.0810, 28676.00
130.3130, 28644.00
131.5450, 28508.00
132.7770, 28406.00
134.0080, 28440.00
135.2390, 28475.00
136.4710, 28467.00
137.7020, 28480.32
138.9320, 28469.00
140.1630, 28514.00
141.3930, 28505.00
142.6240, 28497.54
143.8540, 28462.00
145.0840, 28427.00
146.3140, 28386.00
147.5440, 28263.00
148.7730, 28219.00
150.0020, 28258.00
151.2320, 28296.00
152.4610, 28364.36
153.6900, 28250.00
154.9180, 28589.00
156.1470, 28573.00
157.3750, 28731.00
158.6040, 28990.00
159.8320, 29632.00
161.0600, 30177.00
162.2870, 30112.00
163.5150, 29623.00
164.7420, 28598.00
165.9700, 28815.00
167.1970, 28389.00
168.4240, 28316.00
169.6510, 28645.00
170.8770, 28655.00
172.1040, 28772.00
173.3300, 29032.00
174.5560, 29280.00
175.7820, 29328.00
177.0080, 29112.00
178.2340, 28825.00
179.4590, 28541.00
180.6850, 28784.00
181.9100, 28690.00
183.1350, 28609.00
184.3600, 28749.00
185.5850, 28570.00
186.8090, 28377.00
188.0340, 28818.00
189.2580, 28557.00
190.4820, 28738.00
191.7060, 28860.00
192.9300, 29005.00
194.1530, 29108.00
195.3770, 29394.88
196.6000, 29419.00
197.8230, 29965.00
199.0460, 30333.00
200.2690, 30573.00
201.4910, 31494.00
202.7140, 31808.00
203.9360, 32664.00
205.1580, 33344.00
206.3800, 33768.00
207.6020, 33559.00
208.8240, 32947.00
210.0450, 32457.00
211.2670, 31309.00
212.4880, 31029.00
213.7090, 30497.00
214.9300, 30099.00
216.1510, 30158.00
217.3710, 30483.00
218.5920, 30436.00
219.8120, 30697.00
221.0320, 30728.00
222.2520, 31294.00
223.4720, 31661.00
224.6910, 32132.00
225.9110, 31945.00
227.1300, 31916.00
228.3490, 31462.00
229.5680, 31230.00
230.7870, 30639.00
232.0050, 30823.00
233.2240, 30718.00
234.4420, 30484.00
235.6600, 30500.00
236.8780, 30621.00
238.0960, 30752.00
239.3140, 30904.00
240.5310, 31183.00
241.7490, 31514.00
242.9660, 31853.00
244.1830, 32014.00
245.4000, 32210.00
246.6160, 32152.82
247.8330, 31740.00
249.0490, 31838.00
250.2660, 31693.00
251.4820, 31422.00
252.6980, 31333.00
253.9130, 31518.00
255.1290, 31901.00
256.3440, 32282.00
257.5600, 31836.00
258.7750, 31075.00
259.9900, 30816.00
261.2040, 30680.00
262.4190, 30665.00
263.6330, 31114.00
264.8480, 31458.00
266.0620, 31881.00
267.2760, 32276.00
268.4900, 33206.00
269.7030, 34237.68
270.9170, 35555.00
272.1300, 37056.00
273.3430, 38846.00
274.5560, 40760.00
275.7690, 42618.00
276.9820, 43529.00
278.1940, 42529.00
279.4070, 41058.00
280.6190, 39236.00
281.8310, 37906.00
283.0430, 37319.00
284.2550, 37308.00
285.4660, 38740.00
286.6770, 40515.00
287.8890, 42677.00
289.1000, 45103.00
290.3110, 48249.00
291.5210, 50339.00
292.7320, 53999.00
293.9420, 58120.00
295.1530, 64222.00
296.3630, 72177.00
297.5730, 81554.00
298.7830, 91648.00
299.9920, 98974.00
301.2020, 96968.00
302.4110, 85702.00
303.6200, 72450.00
304.8290, 59342.00
306.0380, 48664.00
307.2470, 43014.00
308.4550, 39883.00
309.6630, 38893.00
310.8720, 38152.00
312.0800, 38367.00
313.2880, 39304.00
314.4950, 40918.00
315.7030, 43320.00
316.9100, 46816.00
318.1170, 51558.00
319.3240, 57980.00
320.5310, 65723.00
321.7380, 74452.00
322.9450, 83360.00
324.1510, 89947.00
325.3570, 88647.00
326.5630, 79470.00
327.7690, 68109.00
328.9750, 57020.00
330.1810, 47626.00
331.3860, 42444.00
332.5910, 39399.00
333.7960, 38191.00
335.0010, 37512.00
336.2060, 37585.00
337.4110, 37994.00
338.6150, 38506.00
339.8200, 39454.00
341.0240, 39681.00
342.2280, 39370.00
343.4320, 38824.00
344.6350, 38482.00
345.8390, 37789.00
347.0420, 38241.00
348.2450, 38552.00
349.4480, 39226.00
350.6510, 40870.00
351.8540, 42547.00
353.0560, 45031.00
354.2590, 48445.00
355.4610, 52984.00
356.6630, 57529.00
357.8650, 62181.00
359.0670, 65678.00
360.2680, 64100.00
361.4700, 60429.00
362.6710, 55679.00
363.8720, 52016.00
365.0730, 50012.00
366.2740, 49936.00
367.4740, 51712.00
368.6750, 54571.00
369.8750, 57925.00
371.0750, 61377.00
372.2750, 64343.00
373.4750, 67129.00
374.6740, 70788.00
375.8740, 75788.00
377.0730, 81158.00
378.2720, 87663.00
379.4710, 95292.00
380.6700, 105108.0
381.8690, 115504.0
383.0670, 125938.0
384.2660, 130175.0
385.4640, 125843.0
386.6620, 116966.0
387.8600, 109489.0
389.0570, 104395.0
390.2550, 104672.0
391.4520, 104773.0
392.6490, 98468.00
393.8460, 89482.00
395.0430, 82220.00
396.2400, 78682.00
397.4370, 80718.00
398.6330, 89280.00
399.8290, 101110.0
401.0250, 114138.0
402.2210, 125596.0
403.4170, 127525.0
404.6130, 116616.0
405.8080, 99639.00
407.0030, 81658.00
408.1980, 65829.00
409.3930, 55034.00
410.5880, 48815.00
411.7830, 45134.00
412.9770, 42758.00
414.1720, 41473.00
415.3660, 40933.00
416.5600, 40006.00
417.7530, 40031.00
418.9470, 40001.00
420.1410, 40044.00
421.3340, 40260.00
422.5270, 40986.00
423.7200, 41825.00
424.9130, 43550.00
426.1060, 45955.00
427.2980, 49377.00
428.4900, 53886.00
429.6830, 59413.00
430.8750, 67622.00
432.0670, 76611.00
433.2580, 86100.00
434.4500, 95071.00
435.6410, 100111.0
436.8320, 100559.0
438.0240, 96136.00
439.2140, 87248.00
440.4050, 77002.00
441.5960, 68117.00
442.7860, 61955.00
443.9760, 58733.00
445.1670, 57720.00
446.3560, 57798.00
447.5460, 56465.00
448.7360, 53758.00
449.9250, 50369.00
451.1150, 46821.00
452.3040, 44384.00
453.4930, 42379.00
454.6810, 41529.00
455.8700, 41438.00
457.0590, 41812.00
458.2470, 42698.00
459.4350, 43638.00
460.6230, 44913.00
461.8110, 46828.00
462.9980, 48197.00
464.1860, 49133.00
465.3730, 49493.00
466.5600, 49046.00
467.7470, 48319.00
468.9340, 48118.00
470.1210, 48490.00
471.3080, 49742.00
472.4940, 52323.00
473.6800, 56281.00
474.8660, 62432.00
476.0520, 70267.00
477.2380, 81407.00
478.4230, 96348.00
479.6090, 115615.0
480.7940, 140417.0
481.9790, 169045.0
483.1640, 197273.0
484.3490, 221946.0
485.5330, 232635.0
486.7180, 222241.0
487.9020, 196631.0
489.0860, 167581.0
490.2700, 139534.0
491.4540, 118453.0
492.6370, 101693.0
493.8210, 89356.00
495.0040, 78622.00
496.1870, 69194.00
497.3700, 62006.00
498.5530, 56674.00
499.7360, 52991.00
500.9180, 50277.00
502.1000, 48429.00
503.2830, 47409.00
504.4650, 46365.00
505.6460, 45964.00
506.8280, 45607.00
508.0100, 45302.00
509.1910, 45346.00
510.3720, 45130.00
511.5530, 45457.00
512.7340, 44892.00
513.9150, 43902.00
515.0950, 42911.00
516.2760, 42004.00
517.4560, 42046.00
518.6360, 41783.00
519.8160, 41369.95
520.9950, 40187.00
522.1750, 40934.00
523.3540, 40007.00
524.5340, 39944.00
525.7130, 39786.00
526.8920, 39520.00
528.0700, 38969.00
529.2490, 38967.00
530.4270, 38608.00
531.6060, 38458.00
532.7840, 38388.00
533.9620, 38441.00
535.1390, 38537.00
536.3170, 38766.00
537.4940, 38974.00
538.6720, 38978.00
539.8490, 39120.00
541.0260, 39832.00
542.2030, 39658.00
543.3790, 40189.00
544.5560, 40121.00
545.7320, 40054.00
546.9080, 40020.00
548.0840, 40102.00
549.2600, 40060.00
550.4360, 40207.00
551.6110, 40696.00
552.7860, 41309.00
553.9620, 42209.03
555.1370, 43535.00
556.3110, 44980.00
557.4860, 46875.00
558.6610, 49498.00
559.8350, 52343.00
561.0090, 54659.00
562.1830, 55851.00
563.3570, 54758.00
564.5310, 52464.00
565.7040, 50218.00
566.8780, 48392.00
568.0510, 46762.00
569.2240, 45806.00
570.3970, 45302.00
571.5700, 45320.00
572.7420, 44778.00
573.9150, 44078.00
575.0870, 43786.00
576.2590, 43652.00
577.4310, 43417.00
578.6030, 43712.00
579.7740, 44060.00
580.9460, 44376.00
582.1170, 44654.00
583.2880, 44799.48
584.4590, 45189.00
585.6300, 44793.00
586.8010, 44441.00
587.9710, 43961.00
589.1410, 42877.00
590.3110, 42582.00
591.4810, 42162.00
592.6510, 41957.00
593.8210, 42174.00
594.9900, 42411.00
596.1600, 42503.00
597.3290, 42954.00
598.4980, 43436.00
599.6670, 44250.00
600.8350, 45418.00
602.0040, 46125.00
603.1720, 46619.00
604.3400, 47431.00
605.5080, 47895.00
606.6760, 48070.00
607.8440, 47222.00
609.0120, 47253.00
610.1790, 46884.00
611.3460, 47147.00
612.5130, 47312.00
613.6800, 47588.00
614.8470, 48083.00
616.0130, 48909.00
617.1800, 49000.00
618.3460, 49582.00
619.5120, 49379.00
620.6780, 49444.00
621.8440, 49379.00
623.0090, 49806.00
624.1750, 50761.00
625.3400, 51635.00
626.5050, 53150.00
627.6700, 54624.00
628.8350, 56686.00
629.9990, 58756.00
631.1640, 61698.00
632.3280, 64728.00
633.4920, 67873.00
634.6560, 70995.00
635.8200, 72314.00
636.9840, 71959.00
638.1470, 69640.00
639.3100, 65411.00
640.4730, 61515.00
641.6360, 57619.00
642.7990, 55276.00
643.9620, 53626.00
645.1240, 53373.00
646.2870, 53623.00
647.4490, 54605.00
648.6110, 55800.00
649.7730, 57297.00
650.9340, 59539.00
652.0960, 61905.00
653.2570, 63877.00
654.4180, 66012.00
655.5790, 66575.00
656.7400, 65539.00
657.9010, 63038.00
659.0620, 60526.00
660.2220, 56831.00
661.3820, 54084.00
662.5420, 51488.00
663.7020, 49912.00
664.8620, 48812.00
666.0210, 47917.00
667.1810, 47386.00
668.3400, 47034.00
669.4990, 46425.00
670.6580, 46026.00
671.8170, 45439.00
672.9750, 45018.00
674.1340, 44872.00
675.2920, 44243.00
676.4500, 44044.00
677.6080, 43870.00
678.7660, 43853.00
679.9230, 43880.00
681.0810, 43678.00
682.2380, 43693.89
683.3950, 43354.00
684.5520, 43548.00
685.7090, 43568.00
686.8660, 43427.00
688.0220, 43098.00
689.1780, 42985.00
690.3340, 42890.00
691.4900, 42870.45
692.6460, 42936.75
693.8020, 43052.00
694.9570, 43293.00
696.1130, 43483.00
697.2680, 43913.00
698.4230, 44073.00
699.5780, 44410.00
700.7320, 44478.00
701.8870, 44442.00
703.0410, 44605.00
704.1950, 44403.00
705.3490, 44669.00
706.5030, 44061.00
707.6570, 44092.00
708.8110, 44083.00
709.9640, 43721.00
711.1170, 43383.00
712.2700, 43487.00
713.4230, 43162.00
714.5760, 43026.00
715.7280, 42979.00
716.8810, 42890.00
718.0330, 42787.00
719.1850, 42522.00
720.3370, 42257.00
721.4890, 42427.00
722.6400, 42474.00
723.7920, 42837.00
724.9430, 42801.00
726.0940, 42667.00
727.2450, 42927.00
728.3960, 42884.00
729.5460, 43321.00
730.6970, 43219.00
731.8470, 42968.00
732.9970, 43242.00
734.1470, 43107.00
735.2970, 43312.00
736.4460, 43301.00
737.5960, 43314.00
738.7450, 43277.70
739.8940, 42986.00
741.0430, 42992.00
742.1920, 42702.00
743.3410, 42371.00
744.4890, 42414.00
745.6370, 42635.00
746.7850, 42303.00
747.9330, 42421.00
749.0810, 42247.62
750.2290, 42211.00
751.3760, 41856.00
752.5240, 41799.00
753.6710, 41507.00
754.8180, 41382.00
755.9650, 41319.00
757.1110, 41285.00
758.2580, 41017.00
759.4040, 41289.00
760.5510, 41303.00
761.6970, 40845.00
762.8420, 41035.00
763.9880, 40950.00
765.1340, 40796.00
766.2790, 40995.00
767.4240, 40489.00
768.5690, 40667.00
769.7140, 40542.00
770.8590, 40453.00
772.0030, 40610.00
773.1480, 40375.00
774.2920, 40579.00
775.4360, 40325.00
776.5800, 40113.00
777.7240, 40210.00
778.8670, 40307.00
780.0110, 40247.00
781.1540, 40337.00
782.2970, 40268.00
783.4400, 40357.00
784.5830, 40216.00
785.7250, 40319.00
786.8680, 40136.00
788.0100, 40247.00
789.1520, 40308.00
790.2940, 40415.00
791.4360, 40628.00
792.5780, 40352.00
793.7190, 40480.00
794.8600, 40491.00
796.0010, 40750.00
797.1420, 40920.00
798.2830, 40630.00
799.4240, 40521.00
800.5640, 40878.00
801.7050, 40751.00
802.8450, 40595.00
803.9850, 40763.00
805.1250, 40505.00
806.2640, 40768.00
807.4040, 40724.00
808.5430, 41236.00
809.6820, 41214.00
810.8210, 41193.00
811.9600, 41025.00
813.0990, 41076.00
814.2370, 41209.00
815.3760, 41489.00
816.5140, 41467.00
817.6520, 41413.00
818.7900, 41629.00
819.9270, 41333.00
821.0650, 41501.00
822.2020, 41496.00
823.3390, 41660.00
824.4760, 41673.00
825.6130, 41668.00
826.7500, 41689.00
827.8870, 41855.00
829.0230, 42150.00
830.1590, 42114.00
831.2950, 42215.00
832.4310, 42158.00
833.5670, 42205.00
834.7030, 42130.00
835.8380, 42353.00
836.9730, 42423.00
838.1080, 42407.32
839.2430, 42582.00
840.3780, 42485.00
841.5130, 42782.00
842.6470, 43026.00
843.7810, 43046.00
844.9150, 43008.00
846.0490, 43146.89
847.1830, 43209.00
848.3170, 43270.00
849.4500, 43381.00
850.5830, 43463.00
851.7160, 43475.00
852.8490, 43811.00
853.9820, 44165.00
855.1150, 43992.00
856.2470, 44403.00
857.3800, 44546.00
858.5120, 44990.00
859.6440, 45025.00
860.7760, 45282.00
861.9070, 45137.00
863.0390, 45404.00
864.1700, 45379.00
865.3010, 45514.29
866.4320, 45700.00
867.5630, 45822.00
868.6940, 46097.00
869.8240, 46287.00
870.9540, 46621.00
872.0850, 46754.00
873.2150, 47278.00
874.3450, 47628.00
875.4740, 48116.00
876.6040, 48269.00
877.7330, 49045.00
878.8620, 49359.00
879.9910, 50054.00
881.1200, 50586.00
882.2490, 51367.00
883.3770, 51919.00
884.5060, 53228.00
885.6340, 53977.00
886.7620, 55212.00
887.8900, 56269.00
889.0180, 57169.00
890.1450, 57999.00
891.2730, 58747.00
892.4000, 59049.00
893.5270, 59888.00
894.6540, 60760.00
895.7810, 62099.00
896.9070, 63943.00
898.0340, 65672.00
899.1600, 66905.00
900.2860, 68055.00
901.4120, 67856.00
902.5380, 67093.00
903.6630, 64882.00
904.7890, 62532.00
905.9140, 60733.00
907.0390, 58906.00
908.1640, 57828.00
909.2890, 56960.00
910.4130, 55836.00
911.5380, 55405.00
912.6620, 55215.00
913.7860, 55228.00
914.9100, 55293.00
916.0340, 55676.00
917.1580, 55897.00
918.2810, 56414.37
919.4040, 57151.00
920.5280, 57739.00
921.6510, 58546.00
922.7730, 59578.00
923.8960, 60766.00
925.0180, 62069.00
926.1410, 63248.00
927.2630, 65228.00
928.3850, 66999.00
929.5070, 68829.00
930.6280, 71238.00
931.7500, 74697.00
932.8710, 77484.00
933.9920, 80628.00
935.1130, 84485.00
936.2340, 88117.00
937.3550, 91739.00
938.4760, 95247.00
939.5960, 98902.00
940.7160, 102798.0
941.8360, 106971.0
942.9560, 110741.0
944.0760, 113549.0
945.1950, 116262.0
946.3150, 117586.0
947.4340, 117847.0
948.5530, 118248.0
949.6720, 118176.0
950.7900, 119675.0
951.9090, 121977.0
953.0270, 125479.0
954.1460, 130284.0
955.2640, 136052.0
956.3820, 142601.0
957.4990, 149087.0
958.6170, 155234.0
959.7340, 158959.0
960.8520, 159676.0
961.9690, 157279.0
963.0860, 151884.0
964.2020, 143627.0
965.3190, 134363.0
966.4350, 124568.0
967.5520, 114150.0
968.6680, 105728.0
969.7840, 97723.00
970.8990, 91117.00
972.0150, 84496.00
973.1310, 79821.00
974.2460, 75874.00
975.3610, 72248.00
976.4760, 69501.00
977.5910, 67097.00
978.7050, 64958.00
979.8200, 62927.00
980.9340, 61662.00
982.0480, 60111.00
983.1620, 59260.00
984.2760, 58346.00
985.3900, 57637.00
986.5030, 56922.00
987.6160, 56658.00
988.7300, 56353.00
989.8430, 56280.00
990.9550, 55941.00
992.0680, 56578.00
993.1810, 56800.00
994.2930, 57990.00
995.4050, 59585.00
996.5170, 60831.00
997.6290, 62128.00
998.7410, 63517.00
999.8520, 64985.00
1000.964, 65318.00
1002.075, 65008.00
1003.186, 63335.00
1004.297, 60881.00
1005.407, 58749.00
1006.518, 56664.00
1007.628, 55449.00
1008.738, 54047.00
1009.848, 53294.00
1010.958, 52734.00
1012.068, 51906.00
1013.178, 51207.00
1014.287, 50856.47
1015.396, 50458.93
1016.505, 50273.00
1017.614, 50246.00
1018.723, 50151.00
1019.831, 50056.06
1020.940, 49999.00
1022.048, 49899.00
1023.156, 49759.00
1024.264, 49663.00
1025.372, 49712.00
1026.479, 49328.00
1027.587, 49390.00
1028.694, 48969.00
1029.801, 48948.00
1030.908, 49027.00
1032.015, 48603.00
1033.121, 48626.00
1034.228, 48485.00
1035.334, 48201.00
1036.440, 48186.00
1037.546, 48546.00
1038.652, 48463.00
1039.758, 48299.00
1040.863, 48408.00
1041.968, 48178.00
1043.074, 48202.00
1044.178, 48150.00
1045.283, 48334.00
1046.388, 48200.00
1047.492, 47863.00
1048.597, 48196.00
1049.701, 47890.00
1050.805, 48231.00
1051.909, 48060.00
1053.012, 47898.00
1054.116, 48150.00
1055.219, 47859.00
1056.322, 47869.00
1057.425, 47808.00
1058.528, 47714.00
1059.631, 47922.00
1060.733, 47945.00
1061.836, 47818.00
1062.938, 48010.00
1064.040, 47922.00
1065.142, 48112.00
1066.243, 48061.00
1067.345, 48050.00
1068.446, 48296.00
1069.547, 47909.00
1070.648, 48080.00
1071.749, 47813.00
1072.850, 48280.00
1073.951, 47930.00
1075.051, 48052.00
1076.151, 48445.00
1077.251, 48174.00
1078.351, 48323.00
1079.451, 48504.00
1080.550, 48235.00
1081.650, 48618.00
1082.749, 48501.00
1083.848, 48449.00
1084.947, 48590.00
1086.046, 48522.00
1087.144, 48480.00
1088.243, 48251.00
1089.341, 48359.00
1090.439, 48176.00
1091.537, 48212.00
1092.635, 48193.00
1093.732, 48263.00
1094.830, 48542.00
1095.927, 48325.00
1097.024, 48397.00
1098.121, 48593.00
1099.218, 48229.00
1100.314, 48189.00
1101.411, 48111.00
1102.507, 47998.00
1103.603, 48030.76
1104.699, 47978.13
1105.795, 48159.00
1106.890, 48026.00
1107.986, 48261.00
1109.081, 48419.00
1110.176, 48305.00
1111.271, 48710.00
1112.366, 48419.00
1113.461, 48193.00
1114.555, 48297.00
1115.649, 48252.00
1116.744, 48323.00
1117.838, 48139.00
1118.931, 48457.00
1120.025, 48596.00
1121.119, 48093.00
1122.212, 48228.00
1123.305, 48318.00
1124.398, 48423.00
1125.491, 48383.00
1126.584, 48289.00
1127.676, 48314.54
1128.768, 48478.00
1129.861, 48264.00
1130.953, 48177.00
1132.044, 48186.74
1133.136, 48601.00
1134.228, 48308.00
1135.319, 48369.00
1136.410, 48451.00
1137.501, 48253.00
1138.592, 48137.00
1139.683, 48251.88
1140.773, 48540.00
1141.864, 48427.00
1142.954, 48582.00
1144.044, 48658.00
1145.134, 48731.00
1146.224, 48360.00
1147.313, 48671.00
1148.402, 48110.00
1149.492, 48722.00
1150.581, 48861.00
1151.670, 48507.00
1152.758, 48691.00
1153.847, 48863.00
1154.935, 48896.00
1156.024, 49362.00
1157.112, 49305.00
1158.200, 48659.00
1159.287, 49176.00
1160.375, 49175.00
1161.462, 48725.00
1162.550, 49176.00
1163.637, 49042.00
1164.724, 49188.00
1165.810, 49225.00
1166.897, 49172.00
1167.983, 49087.00
1169.070, 49399.00
1170.156, 49125.00
1171.242, 49031.00
1172.327, 49414.00
1173.413, 49395.00
1174.499, 49230.00
1175.584, 49208.00
1176.669, 49236.11
1177.754, 49211.00
1178.839, 49318.00
1179.923, 49577.00
1181.008, 49567.00
1182.092, 49637.00
1183.176, 49260.00
1184.260, 49595.00
1185.344, 49308.00
1186.428, 49185.00
1187.511, 49333.00
1188.595, 49208.00
1189.678, 49494.00
1190.761, 49421.00
1191.843, 49451.00
1192.926, 49105.00
1194.009, 49459.00
1195.091, 49336.00
1196.173, 49503.00
1197.255, 49490.00
1198.337, 49422.00
1199.419, 49693.00
1200.500, 49604.00
1201.582, 49761.00
1202.663, 49616.00
1203.744, 49749.00
1204.825, 50050.00
1205.905, 49545.00
1206.986, 49682.00
1208.066, 49621.00
1209.146, 49906.00
1210.226, 50069.00
1211.306, 49882.00
1212.386, 49938.00
1213.466, 50023.00
1214.545, 49947.00
1215.624, 50103.00
1216.703, 49990.00
1217.782, 50058.37
1218.861, 50289.00
1219.939, 50132.00
1221.018, 50295.00
1222.096, 50350.00
1223.174, 50234.00
1224.252, 50070.00
1225.330, 50246.00
1226.407, 50539.00
1227.485, 50379.00
1228.562, 50615.00
1229.639, 50581.00
1230.716, 50335.00
1231.793, 50696.00
1232.869, 50877.00
1233.946, 51000.00
1235.022, 51010.00
1236.098, 51006.00
1237.174, 50579.00
1238.250, 50782.00
1239.325, 51391.00
1240.401, 51013.00
1241.476, 51227.00
1242.551, 50927.00
1243.626, 50913.00
1244.701, 51063.00
1245.776, 50875.00
1246.850, 51312.00
1247.924, 51273.00
1248.999, 51469.00
1250.073, 51452.00
1251.146, 51224.00
1252.220, 51571.00
1253.293, 51208.00
1254.367, 51313.00
1255.440, 51402.00
1256.513, 51467.00
1257.586, 51536.46
1258.658, 51397.00
1259.731, 51581.00
1260.803, 51485.00
1261.875, 51364.00
1262.947, 51556.00
1264.019, 51507.00
1265.091, 51870.00
1266.162, 51659.00
1267.234, 51762.00
1268.305, 51925.00
1269.376, 51851.00
1270.447, 51842.00
1271.517, 52179.00
1272.588, 51946.00
1273.658, 51876.00
1274.729, 52062.00
1275.799, 52224.00
1276.868, 51657.00
1277.938, 52281.00
1279.008, 52029.00
1280.077, 51768.00
1281.146, 52141.00
1282.215, 52118.00
1283.284, 52042.00
1284.353, 52301.00
1285.421, 51863.00
1286.490, 51994.00
1287.558, 52168.00
1288.626, 52081.00
1289.694, 52149.00
1290.762, 52308.00
1291.829, 52303.00
1292.897, 52421.00
1293.964, 52477.00
1295.031, 52413.00
1296.098, 52376.00
1297.165, 52450.00
1298.231, 52443.00
1299.298, 52306.00
1300.364, 52593.00
1301.430, 52389.00
1302.496, 52413.00
1303.562, 52871.00
1304.627, 52630.00
1305.693, 52481.00
1306.758, 52806.00
1307.823, 52671.00
1308.888, 52967.00
1309.953, 53003.00
1311.018, 52943.00
1312.082, 52867.00
1313.146, 52315.00
1314.210, 52738.00
1315.274, 53031.00
1316.338, 52632.00
1317.402, 53271.00
1318.465, 53086.00
1319.529, 53101.00
1320.592, 52974.00
1321.655, 52873.00
1322.718, 52968.00
1323.780, 52776.00
1324.843, 52984.00
1325.905, 53118.00
1326.967, 52939.00
1328.029, 52687.00
1329.091, 52717.00
1330.153, 52553.00
1331.214, 52716.00
1332.275, 52533.00
1333.337, 53016.00
1334.398, 52505.00
1335.458, 52655.00
1336.519, 52403.00
1337.580, 52543.00
1338.640, 52399.00
1339.700, 52735.00
1340.760, 52606.00
1341.820, 52364.00
1342.880, 52712.00
1343.939, 52542.00
1344.999, 52528.00
1346.058, 52843.00
1347.117, 52389.00
1348.176, 52740.00
1349.235, 53040.00
1350.293, 52624.00
1351.351, 52839.00
1352.410, 52548.00
1353.468, 52957.00
1354.526, 52547.00
1355.583, 52691.00
1356.641, 52829.00
1357.698, 52598.00
1358.756, 52636.00
1359.813, 52751.00
1360.869, 52876.00
1361.926, 52760.00
1362.983, 52844.00
1364.039, 52704.00
1365.095, 52557.00
1366.152, 52741.00
1367.207, 52867.00
1368.263, 53190.00
1369.319, 52993.00
1370.374, 52900.00
1371.430, 52939.00
1372.485, 53393.00
1373.540, 53094.00
1374.594, 53287.00
1375.649, 53362.00
1376.703, 53040.00
1377.758, 53282.00
1378.812, 53158.00
1379.866, 53654.00
1380.920, 53239.00
1381.973, 53408.00
1383.027, 53107.00
1384.080, 53203.00
1385.133, 53368.00
1386.186, 53253.00
1387.239, 53209.00
1388.291, 53209.00
1389.344, 53478.00
1390.396, 53314.00
1391.448, 53612.00
1392.500, 53541.00
1393.552, 53173.00
1394.604, 53376.00
1395.655, 53660.00
1396.707, 53162.00
1397.758, 53281.00
1398.809, 53304.00
1399.860, 53664.00
1400.910, 53272.00
1401.961, 53549.00
1403.011, 53490.00
1404.061, 54038.00
1405.111, 53569.00
1406.161, 53829.00
1407.211, 53384.00
1408.260, 53666.00
1409.310, 53839.00
1410.359, 53515.00
1411.408, 53634.00
1412.457, 53597.00
1413.506, 53883.00
1414.554, 53643.00
1415.603, 53836.00
1416.651, 53889.00
1417.699, 53663.00
1418.747, 53725.00
1419.794, 54007.00
1420.842, 53670.00
1421.889, 54305.00
1422.937, 54090.00
1423.984, 53933.00
1425.031, 54207.00
1426.077, 53932.00
1427.124, 54186.00
1428.170, 54203.00
1429.217, 54406.00
1430.263, 54309.00
1431.309, 54487.00
1432.354, 54825.00
1433.400, 54522.00
1434.445, 54710.00
1435.491, 54740.00
1436.536, 54995.00
1437.581, 55461.00
1438.625, 55033.00
1439.670, 55402.00
1440.714, 55218.00
1441.759, 55549.00
1442.803, 55505.00
1443.847, 55791.00
1444.890, 55643.00
1445.934, 55648.00
1446.978, 55715.00
1448.021, 56044.00
1449.064, 56133.00
1450.107, 56206.00
1451.150, 56357.00
1452.192, 56044.00
1453.235, 56313.00
1454.277, 56214.00
1455.319, 56175.00
1456.361, 56228.00
1457.403, 56337.00
1458.445, 56369.00
1459.486, 55936.00
1460.528, 55724.00
1461.569, 55861.00
1462.610, 55878.00
1463.651, 56155.00
1464.691, 55367.00
1465.732, 55730.00
1466.772, 55627.00
1467.812, 55192.00
1468.852, 55233.00
1469.892, 55351.00
1470.932, 55282.00
1471.971, 55499.00
1473.011, 55274.00
1474.050, 55178.00
1475.089, 54993.00
1476.128, 55279.00
1477.166, 55312.00
1478.205, 55252.00
1479.243, 55559.00
1480.282, 55248.00
1481.320, 55228.00
1482.357, 55013.00
1483.395, 55054.00
1484.433, 55132.38
1485.470, 55425.00
1486.507, 55345.00
1487.544, 55307.00
1488.581, 55231.00
1489.618, 55262.00
1490.655, 55112.00
1491.691, 55377.00
1492.727, 55159.00
1493.763, 54863.00
1494.799, 54768.00
1495.835, 55008.00
1496.871, 55195.00
1497.906, 55058.00
1498.941, 55102.00
1499.976, 55085.00
1501.011, 55061.00
1502.046, 54823.00
1503.081, 55092.00
1504.115, 55316.00
1505.149, 55123.00
1506.183, 54940.00
1507.217, 55129.00
1508.251, 55210.00
1509.285, 55069.00
1510.318, 55289.00
1511.352, 55156.00
1512.385, 55285.00
1513.418, 55382.00
1514.450, 55373.11
1515.483, 55297.00
1516.516, 55322.00
1517.548, 55224.00
1518.580, 54866.00
1519.612, 55342.00
1520.644, 55528.00
1521.675, 55182.00
1522.707, 55545.00
1523.738, 55432.00
1524.769, 55675.00
1525.800, 55386.00
1526.831, 55217.00
1527.862, 55476.00
1528.892, 55448.00
1529.923, 55342.00
1530.953, 55757.00
1531.983, 55691.00
1533.013, 55644.00
1534.042, 55891.00
1535.072, 55702.00
1536.101, 55673.00
1537.131, 55810.00
1538.160, 55724.50
1539.188, 55612.00
1540.217, 55756.00
1541.246, 56070.00
1542.274, 56083.00
1543.302, 56090.32
1544.330, 56078.00
1545.358, 55924.00
1546.386, 55994.00
1547.413, 55937.00
1548.441, 56130.00
1549.468, 55974.00
1550.495, 56097.00
1551.522, 56080.00
1552.549, 56275.00
1553.575, 56503.00
1554.602, 56237.00
1555.628, 56486.00
1556.654, 55879.00
1557.680, 56148.00
1558.706, 56063.00
1559.731, 56214.00
1560.757, 56264.00
1561.782, 56466.00
1562.807, 56267.00
1563.832, 56407.00
1564.857, 56360.00
1565.881, 56023.00
1566.906, 56451.00
1567.930, 56485.00
1568.954, 56182.00
1569.978, 56482.00
1571.002, 56004.00
1572.025, 56054.00
1573.049, 56678.00
1574.072, 56383.00
1575.095, 56083.00
1576.118, 56200.00
1577.141, 56381.00
1578.164, 56707.00
##END=



