##NAMES=Kyanite
##RRUFFID=R050450
##IDEAL CHEMISTRY=Al_2_OSiO_4_
##LOCALITY=Switzerland
##OWNER=RRUFF
##SOURCE=Marcus Origlieri
##DESCRIPTION=Blue bladed crystals
##STATUS=The identification of this mineral has been confirmed by X-ray diffraction and chemical analysis
##URL=rruff.info/R050450
##MEASURED CHEMISTRY=Al_2.00_OSi_1.00_O_4_
##PIN_ID=M00970
##ORIENTATION=Laser parallel to -a* (-1 0 0). Fiducial mark perpendicular to laser is parallel to b [0 1 0]
148.7160, 7545.000
149.9470, 7467.000
151.1780, 7505.000
152.4080, 7557.000
153.6380, 7528.000
154.8690, 7619.000
156.0980, 7530.000
157.3280, 7493.000
158.5580, 7512.000
159.7870, 7487.000
161.0170, 7505.000
162.2460, 7525.000
163.4750, 7507.000
164.7030, 7515.000
165.9320, 7516.000
167.1600, 7490.000
168.3890, 7413.000
169.6170, 7394.000
170.8450, 7419.329
172.0730, 7431.000
173.3000, 7499.000
174.5280, 7490.000
175.7550, 7513.000
176.9820, 7532.036
178.2090, 7534.000
179.4350, 7525.000
180.6620, 7507.713
181.8880, 7402.000
183.1150, 7452.000
184.3410, 7422.000
185.5670, 7401.000
186.7920, 7494.000
188.0180, 7453.000
189.2430, 7438.000
190.4690, 7563.000
191.6940, 7480.000
192.9180, 7477.000
194.1430, 7630.000
195.3680, 7616.000
196.5920, 7629.000
197.8160, 7765.000
199.0400, 7756.000
200.2640, 7816.000
201.4880, 7863.000
202.7110, 7972.000
203.9350, 8156.000
205.1580, 8255.000
206.3810, 8807.000
207.6040, 8743.000
208.8270, 8550.000
210.0490, 8153.000
211.2710, 8033.000
212.4940, 7885.000
213.7160, 7619.000
214.9370, 7607.000
216.1590, 7727.000
217.3810, 7562.000
218.6020, 7689.000
219.8230, 7584.000
221.0440, 7750.000
222.2650, 7862.000
223.4860, 8063.000
224.7060, 8098.000
225.9260, 8368.000
227.1470, 8278.000
228.3670, 8312.000
229.5860, 8056.000
230.8060, 7832.000
232.0260, 7786.000
233.2450, 7773.000
234.4640, 7715.000
235.6830, 7704.000
236.9020, 7806.000
238.1200, 7734.000
239.3390, 7830.000
240.5570, 7884.000
241.7750, 7906.000
242.9930, 7963.000
244.2110, 8124.000
245.4290, 8199.000
246.6460, 8098.000
247.8630, 8039.000
249.0810, 8019.000
250.2980, 8095.000
251.5140, 8046.000
252.7310, 7964.000
253.9470, 7884.000
255.1640, 7889.000
256.3800, 7753.000
257.5960, 7792.000
258.8120, 7964.000
260.0270, 7972.000
261.2430, 7847.000
262.4580, 7805.000
263.6730, 7727.000
264.8880, 7679.000
266.1030, 7799.000
267.3170, 7946.000
268.5320, 8197.000
269.7460, 8204.000
270.9600, 8328.000
272.1740, 8366.000
273.3880, 8741.000
274.6010, 9149.000
275.8150, 9892.000
277.0280, 10663.00
278.2410, 10817.00
279.4540, 10244.00
280.6670, 9471.000
281.8790, 9015.000
283.0920, 8673.000
284.3040, 8472.000
285.5160, 8469.000
286.7280, 8737.000
287.9400, 9029.000
289.1510, 9713.000
290.3630, 10781.00
291.5740, 11708.00
292.7850, 12073.00
293.9960, 12022.00
295.2070, 11895.00
296.4170, 12849.00
297.6280, 14864.00
298.8380, 17775.00
300.0480, 21585.00
301.2580, 25247.00
302.4680, 24818.00
303.6770, 20448.00
304.8870, 16157.00
306.0960, 13010.00
307.3050, 10763.00
308.5140, 9585.000
309.7230, 9030.000
310.9310, 8822.000
312.1400, 8791.000
313.3480, 8943.000
314.5560, 9090.000
315.7640, 9678.000
316.9720, 10400.00
318.1790, 10708.00
319.3870, 11154.00
320.5940, 11811.00
321.8010, 13883.00
323.0080, 16435.00
324.2150, 19527.00
325.4210, 22714.00
326.6280, 22508.00
327.8340, 19015.00
329.0400, 15394.00
330.2460, 12632.00
331.4510, 10610.00
332.6570, 9673.000
333.8620, 9051.000
335.0680, 8843.000
336.2730, 8808.000
337.4780, 8868.000
338.6820, 9067.000
339.8870, 9411.000
341.0910, 9700.000
342.2950, 9737.000
343.5000, 9548.000
344.7030, 9226.000
345.9070, 8959.000
347.1110, 8912.000
348.3140, 8907.385
349.5170, 8954.000
350.7200, 9258.000
351.9230, 9547.000
353.1260, 9937.000
354.3290, 10144.00
355.5310, 10816.00
356.7330, 12033.00
357.9350, 13427.00
359.1370, 15458.00
360.3390, 16600.00
361.5400, 15937.00
362.7420, 13959.00
363.9430, 12205.00
365.1440, 11012.00
366.3450, 10476.00
367.5460, 10662.00
368.7460, 11072.00
369.9470, 12016.00
371.1470, 13087.00
372.3470, 13627.00
373.5470, 13879.00
374.7460, 14090.00
375.9460, 14983.00
377.1450, 16015.00
378.3450, 16706.00
379.5440, 16983.00
380.7430, 18062.00
381.9410, 20598.00
383.1400, 23925.00
384.3380, 28082.00
385.5370, 29851.00
386.7350, 27307.00
387.9320, 23170.00
389.1300, 21105.00
390.3280, 20389.00
391.5250, 21419.00
392.7220, 22272.00
393.9190, 20565.00
395.1160, 17714.00
396.3130, 15839.00
397.5100, 14670.00
398.7060, 14781.00
399.9020, 16064.00
401.0980, 19044.00
402.2940, 22800.00
403.4900, 26694.00
404.6860, 27786.00
405.8810, 24816.00
407.0760, 19955.00
408.2710, 16088.00
409.4660, 13047.00
410.6610, 11392.00
411.8550, 10256.00
413.0500, 9712.000
414.2440, 9504.000
415.4380, 9274.000
416.6320, 9249.000
417.8260, 9254.000
419.0190, 9352.000
420.2130, 9349.000
421.4060, 9331.000
422.5990, 9154.000
423.7920, 9278.000
424.9850, 9489.000
426.1770, 9621.000
427.3700, 10160.00
428.5620, 10707.00
429.7540, 11438.00
430.9460, 12312.00
432.1380, 13553.00
433.3290, 15255.00
434.5210, 17701.00
435.7120, 20413.00
436.9030, 21757.00
438.0940, 22626.00
439.2850, 22182.00
440.4750, 19632.00
441.6660, 16816.00
442.8560, 14207.00
444.0460, 13016.00
445.2360, 12318.00
446.4260, 12454.00
447.6160, 13003.00
448.8050, 13313.00
449.9940, 12605.00
451.1830, 11481.00
452.3720, 10685.00
453.5610, 10014.00
454.7500, 9670.000
455.9380, 9482.000
457.1260, 9364.000
458.3150, 9426.000
459.5020, 9450.000
460.6900, 9667.000
461.8780, 9902.000
463.0650, 10299.00
464.2530, 10837.00
465.4400, 11064.00
466.6270, 11053.00
467.8130, 10920.00
469.0000, 10674.00
470.1870, 10636.00
471.3730, 10557.00
472.5590, 10633.00
473.7450, 11021.00
474.9310, 11630.00
476.1160, 12727.00
477.3020, 14571.00
478.4870, 16706.00
479.6720, 19047.00
480.8570, 21707.00
482.0420, 25942.00
483.2270, 32463.00
484.4110, 40766.00
485.5960, 49279.00
486.7800, 53667.00
487.9640, 50428.00
489.1480, 42594.00
490.3310, 34302.00
491.5150, 28195.00
492.6980, 24085.00
493.8810, 20931.00
495.0640, 18486.00
496.2470, 16208.00
497.4300, 14419.00
498.6120, 13091.00
499.7950, 11917.00
500.9770, 11350.00
502.1590, 11025.00
503.3410, 10550.00
504.5220, 10431.00
505.7040, 10286.00
506.8850, 10225.00
508.0660, 10273.00
509.2470, 10257.00
510.4280, 10227.00
511.6090, 10369.00
512.7890, 10237.00
513.9700, 10215.00
515.1500, 10020.00
516.3300, 9618.000
517.5100, 9578.000
518.6900, 9363.000
519.8690, 9136.000
521.0490, 9155.000
522.2280, 9076.000
523.4070, 9030.000
524.5860, 9066.000
525.7640, 9098.000
526.9430, 8985.000
528.1210, 8977.000
529.3000, 8940.000
530.4780, 8941.000
531.6560, 8885.000
532.8330, 8910.000
534.0110, 8976.000
535.1880, 8899.000
536.3650, 8772.000
537.5430, 8903.000
538.7190, 8867.000
539.8960, 8914.000
541.0730, 9059.000
542.2490, 9122.000
543.4250, 9121.000
544.6020, 9188.000
545.7780, 9256.000
546.9530, 9296.000
548.1290, 9353.000
549.3040, 9297.000
550.4800, 9013.000
551.6550, 9216.000
552.8300, 9405.000
554.0040, 9395.000
555.1790, 9670.000
556.3540, 9912.000
557.5280, 10203.00
558.7020, 10606.00
559.8760, 11331.00
561.0500, 12231.00
562.2230, 12818.00
563.3970, 13154.00
564.5700, 12757.00
565.7430, 11936.00
566.9160, 11076.00
568.0890, 10725.00
569.2620, 10317.00
570.4340, 10207.00
571.6070, 10057.00
572.7790, 9983.000
573.9510, 9773.000
575.1230, 9744.000
576.2940, 9627.000
577.4660, 9666.000
578.6370, 9715.000
579.8080, 9642.000
580.9790, 9872.000
582.1500, 9919.000
583.3210, 10137.00
584.4910, 10348.00
585.6620, 10421.00
586.8320, 10410.00
588.0020, 10309.00
589.1720, 9989.000
590.3410, 10021.00
591.5110, 9782.000
592.6800, 9654.000
593.8500, 9606.000
595.0190, 9570.000
596.1880, 9742.000
597.3560, 9941.000
598.5250, 9862.000
599.6930, 10113.00
600.8620, 10239.00
602.0300, 10538.00
603.1970, 10981.00
604.3650, 11370.00
605.5330, 11619.00
606.7000, 11766.00
607.8680, 11670.00
609.0350, 11418.00
610.2020, 11213.00
611.3680, 10915.00
612.5350, 10952.00
613.7010, 10963.00
614.8680, 10902.00
616.0340, 11106.00
617.2000, 11372.00
618.3660, 11351.00
619.5310, 11473.00
620.6970, 11409.00
621.8620, 11337.00
623.0270, 11421.00
624.1920, 11503.77
625.3570, 11755.00
626.5220, 11918.00
627.6860, 12136.00
628.8500, 12561.00
630.0140, 12918.00
631.1780, 13113.00
632.3420, 13618.19
633.5060, 13903.00
634.6700, 14468.00
635.8330, 15116.00
636.9960, 15488.00
638.1590, 15561.00
639.3220, 14952.00
640.4850, 14111.00
641.6470, 13374.00
642.8100, 12691.00
643.9720, 12185.00
645.1340, 11925.00
646.2960, 11894.00
647.4570, 11976.00
648.6190, 12288.00
649.7800, 12469.00
650.9420, 12930.00
652.1030, 13456.00
653.2640, 13971.00
654.4240, 14436.00
655.5850, 15053.00
656.7450, 15362.00
657.9060, 15149.00
659.0660, 14395.00
660.2260, 13711.00
661.3850, 13019.00
662.5450, 12288.00
663.7040, 11806.00
664.8640, 11349.00
666.0230, 11265.00
667.1820, 11304.00
668.3410, 11242.00
669.4990, 11182.00
670.6580, 11296.00
671.8160, 11054.00
672.9740, 10781.00
674.1320, 10695.00
675.2900, 10192.00
676.4480, 10140.00
677.6050, 9937.000
678.7630, 9891.000
679.9200, 9756.000
681.0770, 9820.000
682.2340, 9696.000
683.3900, 9677.000
684.5470, 9801.000
685.7030, 9733.000
686.8590, 9600.000
688.0150, 9687.000
689.1710, 9801.000
690.3270, 9550.000
691.4830, 9753.000
692.6380, 9604.000
693.7930, 9635.000
694.9480, 9646.000
696.1030, 9778.000
697.2580, 9690.000
698.4130, 9735.000
699.5670, 9853.000
700.7210, 9806.000
701.8750, 9832.000
703.0290, 9955.000
704.1830, 9923.000
705.3370, 9800.000
706.4900, 9845.000
707.6430, 9872.000
708.7970, 9710.000
709.9490, 9640.000
711.1020, 9601.000
712.2550, 9485.000
713.4070, 9580.000
714.5600, 9614.000
715.7120, 9646.000
716.8640, 9637.000
718.0160, 9758.000
719.1670, 9636.000
720.3190, 9742.000
721.4700, 9689.000
722.6210, 9808.000
723.7720, 9890.000
724.9230, 10018.00
726.0740, 9934.000
727.2250, 9928.000
728.3750, 9873.000
729.5250, 9770.000
730.6750, 9759.000
731.8250, 9864.000
732.9750, 9652.000
734.1240, 9794.000
735.2740, 9724.000
736.4230, 9693.000
737.5720, 9655.000
738.7210, 9648.000
739.8700, 9712.000
741.0190, 9683.000
742.1670, 9603.000
743.3150, 9698.000
744.4630, 9687.000
745.6110, 9593.000
746.7590, 9640.000
747.9070, 9622.629
749.0540, 9618.483
750.2020, 9672.000
751.3490, 9650.000
752.4960, 9705.000
753.6430, 9738.000
754.7890, 9773.000
755.9360, 9790.864
757.0820, 9706.000
758.2280, 9822.000
759.3740, 9711.000
760.5200, 9743.000
761.6660, 9781.000
762.8120, 9754.000
763.9570, 9699.000
765.1020, 9782.000
766.2470, 9784.000
767.3920, 9728.000
768.5370, 9810.000
769.6810, 9882.000
770.8260, 9817.000
771.9700, 9817.000
773.1140, 9726.000
774.2580, 9830.000
775.4020, 9756.000
776.5460, 9767.000
777.6890, 9798.000
778.8320, 9810.000
779.9750, 9870.000
781.1180, 9832.000
782.2610, 9804.000
783.4040, 9903.000
784.5460, 9718.000
785.6890, 9754.000
786.8310, 9776.000
787.9730, 9938.000
789.1150, 9963.000
790.2560, 9873.000
791.3980, 9862.000
792.5390, 9960.000
793.6810, 9922.000
794.8220, 9936.000
795.9630, 10090.00
797.1030, 9948.000
798.2440, 10081.00
799.3840, 9915.000
800.5240, 10121.00
801.6650, 9989.000
802.8040, 10051.00
803.9440, 10077.00
805.0840, 10100.00
806.2230, 10095.00
807.3630, 10203.00
808.5020, 10042.00
809.6410, 10124.00
810.7790, 10176.00
811.9180, 10262.00
813.0570, 10167.00
814.1950, 10270.00
815.3330, 10208.00
816.4710, 10223.00
817.6090, 10331.00
818.7470, 10237.00
819.8840, 10302.00
821.0220, 10190.00
822.1590, 10301.00
823.2960, 10286.00
824.4330, 10371.00
825.5690, 10383.00
826.7060, 10307.00
827.8420, 10271.00
828.9790, 10410.00
830.1150, 10386.00
831.2510, 10513.00
832.3860, 10466.00
833.5220, 10542.00
834.6570, 10429.00
835.7930, 10474.00
836.9280, 10618.00
838.0630, 10706.00
839.1980, 10609.00
840.3320, 10754.00
841.4670, 10714.00
842.6010, 10645.00
843.7350, 10672.00
844.8690, 10906.00
846.0030, 10858.00
847.1370, 10937.00
848.2700, 10923.00
849.4040, 10838.00
850.5370, 11012.00
851.6700, 10942.00
852.8030, 10951.00
853.9360, 11205.00
855.0680, 11306.00
856.2000, 11228.00
857.3330, 11291.00
858.4650, 11516.00
859.5970, 11500.00
860.7290, 11467.00
861.8600, 11673.00
862.9920, 11681.00
864.1230, 11500.00
865.2540, 11662.00
866.3850, 11504.00
867.5160, 11468.00
868.6460, 11551.00
869.7770, 11516.00
870.9070, 11487.00
872.0370, 11544.00
873.1670, 11520.00
874.2970, 11633.00
875.4270, 11663.00
876.5570, 11739.95
877.6860, 11937.00
878.8150, 11943.00
879.9440, 12098.00
881.0730, 12266.00
882.2020, 12493.00
883.3300, 12735.00
884.4590, 12955.00
885.5870, 13118.00
886.7150, 13523.00
887.8430, 13601.00
888.9710, 13993.00
890.0990, 14063.00
891.2260, 14181.00
892.3530, 14038.00
893.4810, 14117.00
894.6080, 14232.00
895.7340, 14394.00
896.8610, 14484.00
897.9880, 14785.00
899.1140, 14903.00
900.2400, 15426.00
901.3660, 15468.00
902.4920, 15253.00
903.6180, 14917.00
904.7430, 14746.00
905.8690, 14139.00
906.9940, 13739.00
908.1190, 13572.00
909.2440, 13309.00
910.3690, 13068.00
911.4930, 13128.00
912.6180, 13121.00
913.7420, 12853.00
914.8660, 12951.00
915.9900, 13099.00
917.1140, 13051.00
918.2380, 13247.00
919.3610, 13264.00
920.4850, 13505.00
921.6080, 13631.00
922.7310, 13807.00
923.8540, 13944.00
924.9760, 14158.00
926.0990, 14395.00
927.2210, 14790.00
928.3440, 15137.00
929.4660, 15758.00
930.5880, 16138.00
931.7090, 16698.00
932.8310, 17298.00
933.9520, 18460.00
935.0740, 18846.00
936.1950, 19704.00
937.3160, 20721.00
938.4360, 21386.00
939.5570, 22475.00
940.6780, 23186.00
941.7980, 23998.00
942.9180, 25205.00
944.0380, 26251.00
945.1580, 27029.00
946.2780, 27771.00
947.3970, 28456.00
948.5170, 28997.15
949.6360, 29555.00
950.7550, 29942.00
951.8740, 30405.00
952.9930, 30832.00
954.1110, 31393.00
955.2300, 31994.00
956.3480, 32871.00
957.4660, 33563.00
958.5840, 34403.00
959.7020, 35266.00
960.8190, 35892.00
961.9370, 35652.00
963.0540, 34649.00
964.1710, 33048.00
965.2880, 31156.00
966.4050, 28779.00
967.5220, 26536.00
968.6380, 24399.00
969.7550, 22763.00
970.8710, 21032.00
971.9870, 19842.00
973.1030, 18707.00
974.2190, 17705.00
975.3340, 16868.00
976.4500, 16189.00
977.5650, 15889.00
978.6800, 15151.00
979.7950, 14953.00
980.9100, 14543.00
982.0250, 14254.00
983.1390, 13976.00
984.2530, 13858.00
985.3680, 13664.19
986.4820, 13605.00
987.5950, 13501.00
988.7090, 13487.00
989.8230, 13580.00
990.9360, 13414.00
992.0490, 13700.00
993.1620, 13800.00
994.2750, 13957.00
995.3880, 14340.00
996.5010, 14884.00
997.6130, 15500.00
998.7250, 16036.00
999.8370, 16726.00
1000.949, 17168.00
1002.061, 17252.00
1003.173, 16801.00
1004.284, 16154.00
1005.396, 15384.00
1006.507, 14613.00
1007.618, 13807.00
1008.729, 13561.00
1009.839, 13235.00
1010.950, 12976.00
1012.060, 12835.00
1013.171, 12639.75
1014.281, 12520.00
1015.391, 12476.00
1016.500, 12421.00
1017.610, 12513.00
1018.719, 12343.00
1019.829, 12506.00
1020.938, 12449.00
1022.047, 12306.00
1023.156, 12293.00
1024.264, 12411.00
1025.373, 12133.00
1026.481, 12305.00
1027.589, 12131.00
1028.697, 12260.00
1029.805, 12307.00
1030.913, 12019.00
1032.020, 12105.00
1033.128, 11976.00
1034.235, 11881.00
1035.342, 12106.00
1036.449, 12031.00
1037.556, 11946.00
1038.663, 11814.00
1039.769, 11876.00
1040.875, 11886.00
1041.981, 12027.00
1043.087, 11791.00
1044.193, 12036.00
1045.299, 11934.00
1046.404, 12019.00
1047.510, 11953.00
1048.615, 11937.00
1049.720, 11879.00
1050.825, 11906.00
1051.930, 11997.00
1053.034, 11922.00
1054.139, 11954.00
1055.243, 12005.00
1056.347, 11913.00
1057.451, 12018.00
1058.555, 11945.00
1059.658, 11961.00
1060.762, 11841.00
1061.865, 11930.00
1062.968, 11943.00
1064.071, 11962.00
1065.174, 11965.00
1066.277, 11875.00
1067.380, 11917.00
1068.482, 11864.00
1069.584, 11966.00
1070.686, 12173.00
1071.788, 12150.00
1072.890, 12134.00
1073.992, 12178.00
1075.093, 12043.00
1076.194, 12067.95
1077.295, 12081.00
1078.396, 12094.00
1079.497, 12174.00
1080.598, 12353.00
1081.698, 12400.00
1082.799, 12516.00
1083.899, 12359.00
1084.999, 12143.00
1086.099, 12372.00
1087.199, 12237.00
1088.298, 12227.00
1089.398, 12180.00
1090.497, 12185.00
1091.596, 12371.00
1092.695, 12236.00
1093.794, 12404.00
1094.892, 12312.00
1095.991, 12236.00
1097.089, 12242.00
1098.187, 12205.00
1099.285, 12179.00
1100.383, 12322.00
1101.481, 12188.00
1102.579, 12242.00
1103.676, 12181.00
1104.773, 12303.00
1105.870, 12278.00
1106.967, 12381.00
1108.064, 12314.00
1109.161, 12251.00
1110.257, 12350.00
1111.353, 12451.00
1112.449, 12278.00
1113.545, 12323.00
1114.641, 12336.00
1115.737, 12365.00
1116.832, 12356.00
1117.928, 12365.00
1119.023, 12379.95
1120.118, 12490.00
1121.213, 12416.00
1122.308, 12453.00
1123.402, 12499.00
1124.497, 12352.00
1125.591, 12338.00
1126.685, 12475.00
1127.779, 12257.00
1128.873, 12403.00
1129.967, 12340.00
1131.060, 12433.00
1132.153, 12329.00
1133.247, 12227.00
1134.340, 12427.00
1135.433, 12370.00
1136.525, 12434.00
1137.618, 12357.00
1138.710, 12345.00
1139.802, 12463.00
1140.895, 12300.00
1141.987, 12372.00
1143.078, 12382.00
1144.170, 12352.00
1145.261, 12353.00
1146.353, 12412.00
1147.444, 12448.00
1148.535, 12555.00
1149.626, 12457.00
1150.716, 12358.00
1151.807, 12250.00
1152.897, 12294.66
1153.988, 12304.00
1155.078, 12398.00
1156.168, 12475.00
1157.257, 12496.00
1158.347, 12640.00
1159.436, 12411.00
1160.526, 12544.00
1161.615, 12319.00
1162.704, 12556.00
1163.793, 12572.00
1164.881, 12493.00
1165.970, 12728.00
1167.058, 12564.00
1168.147, 12629.00
1169.235, 12650.00
1170.323, 12755.00
1171.410, 12742.00
1172.498, 12689.00
1173.585, 12554.00
1174.673, 12659.00
1175.760, 12690.00
1176.847, 12684.00
1177.934, 12721.00
1179.020, 12774.00
1180.107, 12585.00
1181.193, 12742.00
1182.279, 12709.00
1183.365, 12680.00
1184.451, 12763.00
1185.537, 12762.00
1186.623, 12668.00
1187.708, 12711.10
1188.793, 12515.00
1189.878, 12679.00
1190.963, 12784.00
1192.048, 12768.00
1193.133, 12623.00
1194.217, 12756.00
1195.302, 12646.00
1196.386, 12789.00
1197.470, 12840.00
1198.554, 12901.00
1199.638, 12888.00
1200.721, 12903.00
1201.805, 12940.00
1202.888, 12809.00
1203.971, 12937.00
1205.054, 12869.00
1206.137, 12752.00
1207.219, 12937.00
1208.302, 12848.00
1209.384, 12863.00
1210.466, 13028.00
1211.548, 12997.00
1212.630, 12892.00
1213.712, 13049.00
1214.794, 13071.00
1215.875, 12973.00
1216.956, 13198.00
1218.037, 13114.00
1219.118, 12975.00
1220.199, 12981.00
1221.280, 13103.00
1222.360, 12964.00
1223.441, 13042.00
1224.521, 13027.00
1225.601, 13041.00
1226.681, 13168.00
1227.760, 13211.00
1228.840, 13098.00
1229.919, 13171.00
1230.999, 13158.00
1232.078, 13289.00
1233.157, 13328.00
1234.236, 13286.00
1235.314, 13334.00
1236.393, 13343.18
1237.471, 13273.00
1238.549, 13395.00
1239.627, 13372.00
1240.705, 13411.00
1241.783, 13370.00
1242.860, 13346.00
1243.938, 13376.00
1245.015, 13419.00
1246.092, 13437.00
1247.169, 13460.00
1248.246, 13518.00
1249.323, 13602.00
1250.399, 13423.00
1251.475, 13598.00
1252.552, 13549.00
1253.628, 13481.00
1254.703, 13651.00
1255.779, 13528.00
1256.855, 13505.00
1257.930, 13601.00
1259.005, 13586.00
1260.080, 13669.00
1261.155, 13716.00
1262.230, 13656.00
1263.305, 13664.00
1264.379, 13779.00
1265.454, 13812.00
1266.528, 13877.00
1267.602, 13782.00
1268.676, 13826.00
1269.750, 13848.00
1270.823, 13971.00
1271.897, 13988.00
1272.970, 14007.00
1274.043, 14012.00
1275.116, 13995.00
1276.189, 13928.00
1277.261, 13878.00
1278.334, 13856.00
1279.406, 13944.00
1280.478, 13918.00
1281.550, 13911.00
1282.622, 13861.00
1283.694, 13874.00
1284.766, 13853.84
1285.837, 13925.00
1286.908, 13874.00
1287.979, 13808.00
1289.050, 13888.00
1290.121, 13892.00
1291.192, 14069.00
1292.262, 13982.00
1293.333, 14120.00
1294.403, 14306.00
1295.473, 14194.00
1296.543, 14201.00
1297.613, 14006.00
1298.682, 14028.00
1299.752, 14158.00
1300.821, 14165.00
1301.890, 14191.00
1302.959, 14148.00
1304.028, 14196.70
1305.096, 14155.00
1306.165, 14248.00
1307.233, 14247.00
1308.301, 14241.00
1309.370, 14282.86
1310.437, 14337.00
1311.505, 14381.00
1312.573, 14338.00
1313.640, 14532.00
1314.708, 14459.00
1315.775, 14493.00
1316.842, 14401.00
1317.908, 14378.00
1318.975, 14534.00
1320.042, 14572.00
1321.108, 14503.00
1322.174, 14222.00
1323.240, 14307.00
1324.306, 14325.00
1325.372, 14231.00
1326.438, 14374.00
1327.503, 14279.00
1328.568, 14204.00
1329.634, 14180.00
1330.699, 14232.00
1331.763, 14250.00
1332.828, 14186.00
1333.893, 14122.00
1334.957, 14005.00
1336.021, 14026.00
1337.085, 14088.00
1338.149, 14187.00
1339.213, 14201.00
1340.277, 14293.00
1341.340, 14305.91
1342.404, 14289.65
1343.467, 14293.00
1344.530, 14248.00
1345.593, 14152.00
1346.655, 14179.00
1347.718, 14287.00
1348.780, 14201.00
1349.843, 14203.00
1350.905, 14194.00
1351.967, 14145.00
1353.028, 14203.00
1354.090, 14325.00
1355.152, 14034.00
1356.213, 14296.00
1357.274, 14510.00
1358.335, 14356.10
1359.396, 14447.74
1360.457, 14289.00
1361.517, 14321.00
1362.578, 14321.00
1363.638, 14318.00
1364.698, 14351.70
1365.758, 14290.00
1366.818, 14409.00
1367.878, 14398.00
1368.937, 14434.00
1369.997, 14360.00
1371.056, 14383.30
1372.115, 14284.00
1373.174, 14376.00
1374.232, 14515.00
1375.291, 14522.00
1376.350, 14360.00
1377.408, 14484.00
1378.466, 14519.00
1379.524, 14509.00
1380.582, 14607.00
1381.640, 14549.00
1382.697, 14615.00
1383.754, 14631.00
1384.812, 14540.00
1385.869, 14719.00
1386.926, 14670.00
1387.983, 14557.00
1389.039, 14687.00
1390.096, 14603.00
1391.152, 14660.00
1392.208, 14604.00
1393.264, 14669.00
1394.320, 14576.00
1395.376, 14580.00
1396.431, 14487.00
1397.487, 14469.47
1398.542, 14535.00
1399.597, 14488.00
1400.652, 14560.00
1401.707, 14719.00
1402.762, 14558.00
1403.816, 14747.00
1404.871, 14724.00
1405.925, 14679.00
1406.979, 14875.00
1408.033, 14588.00
1409.086, 14770.00
1410.140, 14859.00
1411.194, 14797.00
1412.247, 14685.00
1413.300, 14708.00
1414.353, 14889.00
1415.406, 14623.00
1416.458, 14835.00
1417.511, 14878.00
1418.563, 14852.00
1419.616, 14773.00
1420.668, 14669.00
1421.720, 14840.00
1422.772, 14715.00
1423.823, 14778.00
1424.875, 14850.00
1425.926, 14963.00
1426.977, 14948.91
1428.028, 14821.00
1429.079, 14959.00
1430.130, 14943.00
1431.180, 14998.00
1432.231, 15130.00
1433.281, 15222.00
1434.331, 15324.00
1435.381, 15388.00
1436.431, 15482.00
1437.481, 15494.00
1438.530, 15513.00
1439.580, 15668.00
1440.629, 15620.00
1441.678, 15820.00
1442.727, 15805.00
1443.776, 15962.00
1444.824, 15988.00
1445.873, 16031.10
1446.921, 16011.00
1447.969, 16133.00
1449.017, 16155.00
1450.065, 16262.00
1451.113, 16237.00
1452.160, 16355.00
1453.208, 16363.00
1454.255, 16252.00
1455.302, 16352.00
1456.349, 16369.00
1457.396, 16207.00
1458.443, 16365.00
1459.489, 16160.00
1460.535, 16053.00
1461.582, 16277.00
1462.628, 16123.00
1463.674, 16029.00
1464.719, 15986.00
1465.765, 16038.00
1466.810, 15976.00
1467.856, 16035.00
1468.901, 15938.00
1469.946, 15906.00
1470.991, 15673.00
1472.035, 15789.00
1473.080, 15695.00
1474.124, 15647.00
1475.169, 15752.00
1476.213, 15823.00
1477.257, 15758.00
1478.300, 15716.00
1479.344, 15751.00
1480.388, 15895.00
1481.431, 15959.00
1482.474, 15983.00
1483.517, 15899.00
1484.560, 15887.00
1485.603, 15709.00
1486.645, 15739.00
1487.688, 15567.00
1488.730, 15687.00
1489.772, 15687.00
1490.814, 15525.00
1491.856, 15674.00
1492.898, 15509.00
1493.939, 15716.00
1494.981, 15717.00
1496.022, 15602.00
1497.063, 15539.00
1498.104, 15657.00
1499.145, 15528.00
1500.186, 15538.00
1501.226, 15702.00
1502.266, 15857.00
1503.307, 15626.00
1504.347, 15823.00
1505.387, 15870.00
1506.426, 15761.00
1507.466, 15749.00
1508.505, 15887.00
1509.545, 15891.00
1510.584, 15898.00
1511.623, 15927.04
1512.662, 15754.00
1513.700, 15943.00
1514.739, 15828.00
1515.777, 15910.00
1516.815, 15832.00
1517.854, 15866.00
1518.892, 15972.00
1519.929, 15952.00
1520.967, 15917.00
1522.004, 15946.00
1523.042, 15827.00
1524.079, 16010.00
1525.116, 15980.00
1526.153, 16148.00
1527.190, 16101.00
1528.226, 16143.00
1529.263, 16142.00
1530.299, 16064.00
1531.335, 16009.00
1532.371, 16156.00
1533.407, 16177.00
1534.443, 16074.00
1535.478, 16204.00
1536.514, 16410.00
1537.549, 16348.00
1538.584, 16304.00
1539.619, 16055.00
1540.654, 16294.00
1541.689, 16280.00
1542.723, 16274.00
1543.757, 16291.00
1544.792, 16258.00
1545.826, 16241.00
1546.860, 16170.00
1547.893, 16215.36
1548.927, 16449.00
1549.960, 16294.00
1550.994, 16328.00
1552.027, 16370.00
1553.060, 16197.00
1554.093, 16498.00
1555.126, 16483.00
1556.158, 16366.00
1557.191, 16377.00
1558.223, 16369.00
1559.255, 16274.00
1560.287, 16486.00
1561.319, 16506.00
1562.350, 16489.00
1563.382, 16585.00
##END=



