##NAMES=Kyanite
##RRUFFID=R050450
##IDEAL CHEMISTRY=Al_2_OSiO_4_
##LOCALITY=Switzerland
##OWNER=RRUFF
##SOURCE=Marcus Origlieri
##DESCRIPTION=Blue bladed crystals
##STATUS=The identification of this mineral has been confirmed by X-ray diffraction and chemical analysis
##URL=rruff.info/R050450
##MEASURED CHEMISTRY=Al_2.00_OSi_1.00_O_4_
##PIN_ID=M00770
##ORIENTATION=Laser parallel to (0 1 -1). Fiducial mark perpendicular to laser is parallel to -a [-1 0 0]
162.2460, 8282.000
163.4750, 8347.000
164.7030, 8416.000
165.9320, 8412.000
167.1600, 8483.000
168.3890, 8521.276
169.6170, 8476.000
170.8450, 8602.000
172.0730, 8688.000
173.3000, 8703.000
174.5280, 8559.000
175.7550, 8748.000
176.9820, 8650.000
178.2090, 8659.000
179.4350, 8709.000
180.6620, 8732.000
181.8880, 8661.000
183.1150, 8654.000
184.3410, 8648.000
185.5670, 8654.908
186.7920, 8667.999
188.0180, 8704.000
189.2430, 8692.000
190.4690, 8688.000
191.6940, 8661.000
192.9180, 8703.082
194.1430, 8743.449
195.3680, 8850.000
196.5920, 8941.000
197.8160, 9153.000
199.0400, 9401.000
200.2640, 9557.000
201.4880, 9722.019
202.7110, 9649.000
203.9350, 10037.00
205.1580, 10091.00
206.3810, 10349.00
207.6040, 10292.00
208.8270, 10181.00
210.0490, 10045.00
211.2710, 9804.000
212.4940, 9631.000
213.7160, 9213.000
214.9370, 9210.000
216.1590, 9148.000
217.3810, 9264.000
218.6020, 9142.000
219.8230, 9144.000
221.0440, 9358.000
222.2650, 9361.000
223.4860, 9400.000
224.7060, 9643.000
225.9260, 9718.000
227.1470, 9808.000
228.3670, 9800.000
229.5860, 9636.000
230.8060, 9414.000
232.0260, 9295.000
233.2450, 9239.000
234.4640, 9262.000
235.6830, 9305.000
236.9020, 9314.000
238.1200, 9293.000
239.3390, 9380.000
240.5570, 9452.000
241.7750, 9483.000
242.9930, 9580.000
244.2110, 9722.000
245.4290, 9665.000
246.6460, 9847.000
247.8630, 9761.000
249.0810, 9749.000
250.2980, 9645.000
251.5140, 9601.982
252.7310, 9597.000
253.9470, 9536.000
255.1640, 9386.000
256.3800, 9445.000
257.5960, 9404.000
258.8120, 9316.000
260.0270, 9638.000
261.2430, 9858.000
262.4580, 9617.000
263.6730, 9512.000
264.8880, 9365.000
266.1030, 9565.000
267.3170, 9720.000
268.5320, 10063.00
269.7460, 10303.00
270.9600, 10817.00
272.1740, 10785.00
273.3880, 10884.00
274.6010, 11532.00
275.8150, 12072.00
277.0280, 12361.00
278.2410, 12697.00
279.4540, 12682.00
280.6670, 12524.00
281.8790, 11969.00
283.0920, 11528.00
284.3040, 11353.00
285.5160, 11188.00
286.7280, 11192.00
287.9400, 11587.00
289.1510, 12197.00
290.3630, 12939.00
291.5740, 14171.00
292.7850, 16189.00
293.9960, 18051.00
295.2070, 19015.00
296.4170, 18903.00
297.6280, 19833.00
298.8380, 22594.00
300.0480, 25114.00
301.2580, 26708.00
302.4680, 27255.00
303.6770, 26373.00
304.8870, 23460.00
306.0960, 19455.00
307.3050, 16219.00
308.5140, 13916.00
309.7230, 12264.00
310.9310, 11624.00
312.1400, 11428.00
313.3480, 11328.00
314.5560, 11936.00
315.7640, 12787.00
316.9720, 14355.00
318.1790, 16342.00
319.3870, 17958.00
320.5940, 18394.00
321.8010, 19289.00
323.0080, 22079.00
324.2150, 24731.00
325.4210, 26400.00
326.6280, 27231.00
327.8340, 26378.00
329.0400, 23730.00
330.2460, 19820.00
331.4510, 16620.00
332.6570, 14256.00
333.8620, 12882.00
335.0680, 12274.00
336.2730, 11861.00
337.4780, 11837.00
338.6820, 11869.00
339.8870, 12183.00
341.0910, 12401.00
342.2950, 12380.00
343.5000, 12474.00
344.7030, 12247.00
345.9070, 11884.00
347.1110, 11852.00
348.3140, 11507.00
349.5170, 11610.00
350.7200, 11886.00
351.9230, 12367.00
353.1260, 13081.00
354.3290, 13502.00
355.5310, 13780.00
356.7330, 14235.00
357.9350, 15454.00
359.1370, 16204.00
360.3390, 17134.00
361.5400, 17150.00
362.7420, 17055.00
363.9430, 16354.00
365.1440, 15710.00
366.3450, 15216.00
367.5460, 14897.00
368.7460, 15344.00
369.9470, 16534.00
371.1470, 17717.00
372.3470, 18362.00
373.5470, 19394.00
374.7460, 20194.00
375.9460, 21134.00
377.1450, 23207.00
378.3450, 25165.00
379.5440, 25679.00
380.7430, 26312.00
381.9410, 27918.00
383.1400, 30976.00
384.3380, 33797.00
385.5370, 36026.00
386.7350, 36033.00
387.9320, 33998.00
389.1300, 30812.00
390.3280, 29461.00
391.5250, 28052.00
392.7220, 26871.00
393.9190, 26391.00
395.1160, 25919.00
396.3130, 24596.00
397.5100, 23833.00
398.7060, 23184.00
399.9020, 22868.00
401.0980, 24367.00
402.2940, 27360.00
403.4900, 29845.00
404.6860, 30983.00
405.8810, 30392.00
407.0760, 27850.00
408.2710, 23884.00
409.4660, 19821.00
410.6610, 16609.00
411.8550, 14744.00
413.0500, 13504.00
414.2440, 12768.00
415.4380, 12378.00
416.6320, 12324.00
417.8260, 12322.00
419.0190, 12339.00
420.2130, 12303.00
421.4060, 12225.00
422.5990, 12246.00
423.7920, 12354.00
424.9850, 12541.00
426.1770, 12823.00
427.3700, 13556.00
428.5620, 14770.00
429.7540, 16057.00
430.9460, 17587.00
432.1380, 19312.00
433.3290, 21300.00
434.5210, 22763.00
435.7120, 24520.00
436.9030, 26432.00
438.0940, 27197.00
439.2850, 26963.00
440.4750, 25711.00
441.6660, 23757.00
442.8560, 21409.00
444.0460, 18992.00
445.2360, 17344.00
446.4260, 16564.00
447.6160, 16371.00
448.8050, 16272.00
449.9940, 15840.00
451.1830, 15302.00
452.3720, 14540.00
453.5610, 13584.00
454.7500, 12961.00
455.9380, 12670.00
457.1260, 12533.00
458.3150, 12415.00
459.5020, 12534.00
460.6900, 12817.00
461.8780, 13124.00
463.0650, 13341.00
464.2530, 13800.00
465.4400, 13880.00
466.6270, 13950.00
467.8130, 14159.00
469.0000, 14006.00
470.1870, 14081.00
471.3730, 14197.00
472.5590, 14431.00
473.7450, 14935.00
474.9310, 15915.00
476.1160, 17657.00
477.3020, 20877.00
478.4870, 25374.00
479.6720, 31143.00
480.8570, 35970.00
482.0420, 40466.00
483.2270, 45647.00
484.4110, 52928.00
485.5960, 59775.00
486.7800, 63953.00
487.9640, 64543.00
489.1480, 60771.00
490.3310, 53159.00
491.5150, 45139.00
492.6980, 37797.00
493.8810, 31912.00
495.0640, 27766.00
496.2470, 24179.00
497.4300, 21506.00
498.6120, 19306.00
499.7950, 17634.00
500.9770, 16394.00
502.1590, 15513.00
503.3410, 14826.00
504.5220, 14577.00
505.7040, 14282.00
506.8850, 14399.00
508.0660, 14099.00
509.2470, 14256.00
510.4280, 14327.00
511.6090, 14290.00
512.7890, 14243.05
513.9700, 14258.00
515.1500, 13879.00
516.3300, 13626.00
517.5100, 13213.00
518.6900, 12953.00
519.8690, 12695.00
521.0490, 12509.00
522.2280, 12285.00
523.4070, 12369.00
524.5860, 12117.00
525.7640, 12126.00
526.9430, 11966.00
528.1210, 12117.00
529.3000, 12099.00
530.4780, 12076.00
531.6560, 12225.00
532.8330, 12132.00
534.0110, 12016.00
535.1880, 12110.00
536.3650, 12061.00
537.5430, 12193.00
538.7190, 12296.00
539.8960, 12325.00
541.0730, 12254.00
542.2490, 12359.00
543.4250, 12388.00
544.6020, 12434.00
545.7780, 12522.00
546.9530, 12466.00
548.1290, 12382.00
549.3040, 12497.00
550.4800, 12614.00
551.6550, 12450.00
552.8300, 12676.00
554.0040, 12748.00
555.1790, 13082.00
556.3540, 13512.00
557.5280, 13875.00
558.7020, 14297.00
559.8760, 14676.00
561.0500, 15237.00
562.2230, 15646.00
563.3970, 16117.00
564.5700, 16170.00
565.7430, 15790.00
566.9160, 15223.00
568.0890, 14769.00
569.2620, 14291.00
570.4340, 13943.00
571.6070, 13706.00
572.7790, 13675.00
573.9510, 13509.00
575.1230, 13410.00
576.2940, 13345.00
577.4660, 13298.00
578.6370, 13363.00
579.8080, 13532.00
580.9790, 13596.00
582.1500, 13702.00
583.3210, 14020.00
584.4910, 14077.00
585.6620, 14304.00
586.8320, 14136.00
588.0020, 14073.00
589.1720, 13995.00
590.3410, 13797.00
591.5110, 13430.00
592.6800, 13153.00
593.8500, 13192.00
595.0190, 13148.00
596.1880, 13268.00
597.3560, 13240.00
598.5250, 13336.04
599.6930, 13468.00
600.8620, 13539.00
602.0300, 13701.00
603.1970, 13845.00
604.3650, 13976.00
605.5330, 14183.00
606.7000, 14258.27
607.8680, 14433.00
609.0350, 14408.00
610.2020, 14341.00
611.3680, 14329.00
612.5350, 14347.00
613.7010, 14376.00
614.8680, 14577.00
616.0340, 14601.00
617.2000, 14685.00
618.3660, 14731.00
619.5310, 14835.00
620.6970, 14856.00
621.8620, 14900.00
623.0270, 14718.00
624.1920, 14925.00
625.3570, 14916.00
626.5220, 15070.00
627.6860, 15616.00
628.8500, 16028.00
630.0140, 16766.00
631.1780, 17494.00
632.3420, 18095.00
633.5060, 19055.00
634.6700, 19806.00
635.8330, 20429.00
636.9960, 20994.00
638.1590, 20961.00
639.3220, 20744.00
640.4850, 19952.00
641.6470, 18696.00
642.8100, 17604.00
643.9720, 17030.00
645.1340, 16378.00
646.2960, 16047.00
647.4570, 15895.00
648.6190, 15814.00
649.7800, 16197.00
650.9420, 16626.00
652.1030, 17043.00
653.2640, 17585.00
654.4240, 17744.00
655.5850, 18244.00
656.7450, 18448.00
657.9060, 18431.00
659.0660, 17730.00
660.2260, 17398.00
661.3850, 16574.00
662.5450, 15978.00
663.7040, 15202.00
664.8640, 14878.00
666.0230, 14502.00
667.1820, 14387.00
668.3410, 14078.00
669.4990, 13950.00
670.6580, 14108.00
671.8160, 13981.00
672.9740, 13819.00
674.1320, 13712.00
675.2900, 13595.00
676.4480, 13541.55
677.6050, 13625.00
678.7630, 13467.00
679.9200, 13562.00
681.0770, 13513.00
682.2340, 13545.00
683.3900, 13525.00
684.5470, 13627.00
685.7030, 13645.00
686.8590, 13597.00
688.0150, 13694.00
689.1710, 13517.00
690.3270, 13680.00
691.4830, 13509.00
692.6380, 13526.00
693.7930, 13538.00
694.9480, 13625.00
696.1030, 13709.00
697.2580, 13683.00
698.4130, 13685.00
699.5670, 13826.00
700.7210, 13853.00
701.8750, 13870.00
703.0290, 13759.00
704.1830, 13801.91
705.3370, 13754.46
706.4900, 13761.00
707.6430, 13754.00
708.7970, 13665.00
709.9490, 13766.00
711.1020, 13650.00
712.2550, 13710.00
713.4070, 13730.00
714.5600, 13669.00
715.7120, 13653.00
716.8640, 13827.00
718.0160, 13819.00
719.1670, 13940.00
720.3190, 13858.00
721.4700, 13963.11
722.6210, 13979.00
723.7720, 14045.00
724.9230, 14077.00
726.0740, 13986.00
727.2250, 13972.00
728.3750, 13942.00
729.5250, 13846.00
730.6750, 13931.00
731.8250, 13690.00
732.9750, 13609.00
734.1240, 13859.00
735.2740, 13724.00
736.4230, 13686.00
737.5720, 13798.00
738.7210, 13742.00
739.8700, 13774.00
741.0190, 13781.00
742.1670, 13805.00
743.3150, 13757.00
744.4630, 13668.00
745.6110, 13698.00
746.7590, 13682.00
747.9070, 13788.00
749.0540, 13621.00
750.2020, 13807.00
751.3490, 13747.00
752.4960, 13669.00
753.6430, 13914.00
754.7890, 13789.00
755.9360, 13951.00
757.0820, 13728.00
758.2280, 13794.00
759.3740, 13781.00
760.5200, 13785.00
761.6660, 13800.00
762.8120, 13935.00
763.9570, 13813.00
765.1020, 13817.00
766.2470, 13970.00
767.3920, 13929.00
768.5370, 13961.00
769.6810, 13943.00
770.8260, 14004.00
771.9700, 13895.00
773.1140, 13870.00
774.2580, 13776.00
775.4020, 13931.00
776.5460, 13934.00
777.6890, 13945.00
778.8320, 13911.00
779.9750, 13960.00
781.1180, 13950.00
782.2610, 13968.00
783.4040, 13962.00
784.5460, 13920.00
785.6890, 13977.00
786.8310, 13994.00
787.9730, 13941.00
789.1150, 14012.00
790.2560, 14118.00
791.3980, 14100.00
792.5390, 14044.00
793.6810, 14150.00
794.8220, 14162.00
795.9630, 14152.27
797.1030, 14197.00
798.2440, 14144.00
799.3840, 14172.00
800.5240, 14175.00
801.6650, 14156.52
802.8040, 14209.64
803.9440, 14138.00
805.0840, 14293.00
806.2230, 14286.00
807.3630, 14317.00
808.5020, 14419.00
809.6410, 14409.00
810.7790, 14509.00
811.9180, 14427.00
813.0570, 14449.00
814.1950, 14349.00
815.3330, 14535.00
816.4710, 14445.00
817.6090, 14509.00
818.7470, 14680.00
819.8840, 14472.00
821.0220, 14574.00
822.1590, 14579.00
823.2960, 14651.00
824.4330, 14799.00
825.5690, 14660.00
826.7060, 14729.00
827.8420, 14778.00
828.9790, 14650.00
830.1150, 14898.00
831.2510, 14898.00
832.3860, 14882.00
833.5220, 14873.00
834.6570, 14666.00
835.7930, 14808.00
836.9280, 14811.00
838.0630, 14983.00
839.1980, 14964.00
840.3320, 14950.00
841.4670, 15048.00
842.6010, 14854.00
843.7350, 15042.00
844.8690, 14841.00
846.0030, 15016.00
847.1370, 14963.00
848.2700, 15001.00
849.4040, 15029.00
850.5370, 15100.00
851.6700, 15029.00
852.8030, 15154.00
853.9360, 15194.00
855.0680, 15132.00
856.2000, 15234.06
857.3330, 15243.00
858.4650, 15324.00
859.5970, 15347.00
860.7290, 15395.00
861.8600, 15534.00
862.9920, 15663.00
864.1230, 15648.00
865.2540, 15663.00
866.3850, 15698.00
867.5160, 15797.00
868.6460, 15970.00
869.7770, 16046.00
870.9070, 16018.00
872.0370, 15995.00
873.1670, 16271.00
874.2970, 16495.00
875.4270, 16496.00
876.5570, 16659.00
877.6860, 16928.00
878.8150, 17114.00
879.9440, 17439.00
881.0730, 17921.00
882.2020, 18465.00
883.3300, 19014.00
884.4590, 19447.00
885.5870, 20388.00
886.7150, 20658.00
887.8430, 21500.00
888.9710, 22115.00
890.0990, 22543.00
891.2260, 22696.00
892.3530, 23134.00
893.4810, 23326.00
894.6080, 23647.00
895.7340, 23943.00
896.8610, 24409.00
897.9880, 24895.00
899.1140, 25229.00
900.2400, 25540.00
901.3660, 25366.03
902.4920, 25357.00
903.6180, 24504.00
904.7430, 23698.00
905.8690, 22652.00
906.9940, 21843.00
908.1190, 20637.00
909.2440, 19913.00
910.3690, 19216.00
911.4930, 18913.00
912.6180, 18660.00
913.7420, 18524.00
914.8660, 18244.00
915.9900, 18276.00
917.1140, 18290.00
918.2380, 18602.00
919.3610, 18497.00
920.4850, 18764.00
921.6080, 18827.00
922.7310, 19008.00
923.8540, 19036.00
924.9760, 19394.00
926.0990, 19796.00
927.2210, 20000.00
928.3440, 20479.00
929.4660, 20977.00
930.5880, 21595.00
931.7090, 22204.00
932.8310, 22960.00
933.9520, 23654.00
935.0740, 24465.33
936.1950, 25303.00
937.3160, 26197.00
938.4360, 27176.00
939.5570, 28145.00
940.6780, 28891.00
941.7980, 30007.00
942.9180, 30777.00
944.0380, 31744.00
945.1580, 32344.00
946.2780, 32668.00
947.3970, 33158.00
948.5170, 33033.00
949.6360, 33087.00
950.7550, 33260.00
951.8740, 33594.00
952.9930, 34103.00
954.1110, 35059.00
955.2300, 36015.00
956.3480, 37300.00
957.4660, 38718.00
958.5840, 39670.00
959.7020, 40769.00
960.8190, 41829.00
961.9370, 41886.00
963.0540, 41236.00
964.1710, 40253.00
965.2880, 38385.00
966.4050, 36202.00
967.5220, 33852.00
968.6380, 31791.00
969.7550, 29724.00
970.8710, 28068.00
971.9870, 26266.00
973.1030, 24906.00
974.2190, 23855.00
975.3340, 22868.00
976.4500, 22135.00
977.5650, 21532.00
978.6800, 20980.00
979.7950, 20492.00
980.9100, 20103.00
982.0250, 19691.00
983.1390, 19299.00
984.2530, 19242.00
985.3680, 19038.00
986.4820, 18792.00
987.5950, 18655.00
988.7090, 18483.00
989.8230, 18408.00
990.9360, 18501.00
992.0490, 18458.00
993.1620, 18548.00
994.2750, 18768.00
995.3880, 19082.00
996.5010, 19262.00
997.6130, 19551.00
998.7250, 19886.00
999.8370, 20362.00
1000.949, 20667.00
1002.061, 20524.00
1003.173, 20303.00
1004.284, 20058.00
1005.396, 19518.00
1006.507, 19186.00
1007.618, 18837.00
1008.729, 18402.00
1009.839, 18211.00
1010.950, 17905.00
1012.060, 17676.00
1013.171, 17669.00
1014.281, 17621.00
1015.391, 17513.00
1016.500, 17503.00
1017.610, 17436.00
1018.719, 17374.00
1019.829, 17351.00
1020.938, 17353.00
1022.047, 17240.00
1023.156, 17186.00
1024.264, 17277.00
1025.373, 17325.00
1026.481, 17153.00
1027.589, 17096.00
1028.697, 17127.00
1029.805, 17065.00
1030.913, 17025.00
1032.020, 17111.00
1033.128, 17116.00
1034.235, 17015.00
1035.342, 17107.00
1036.449, 17106.00
1037.556, 16950.00
1038.663, 17165.00
1039.769, 16992.00
1040.875, 17180.00
1041.981, 17154.00
1043.087, 17146.00
1044.193, 17054.00
1045.299, 17170.00
1046.404, 17140.00
1047.510, 17151.00
1048.615, 17225.00
1049.720, 17181.96
1050.825, 17204.05
1051.930, 17167.00
1053.034, 17193.00
1054.139, 17212.00
1055.243, 17214.00
1056.347, 17303.00
1057.451, 17242.00
1058.555, 17330.00
1059.658, 17308.32
1060.762, 17240.00
1061.865, 17306.00
1062.968, 17349.00
1064.071, 17397.00
1065.174, 17406.67
1066.277, 17431.91
1067.380, 17396.00
1068.482, 17427.00
1069.584, 17403.00
1070.686, 17345.00
1071.788, 17388.00
1072.890, 17454.00
1073.992, 17357.00
1075.093, 17499.00
1076.194, 17668.00
1077.295, 17582.00
1078.396, 17459.00
1079.497, 17641.00
1080.598, 17409.00
1081.698, 17737.00
1082.799, 17665.00
1083.899, 17597.00
1084.999, 17759.00
1086.099, 17712.00
1087.199, 17551.00
1088.298, 17708.00
1089.398, 17613.00
1090.497, 17651.00
1091.596, 17744.00
1092.695, 17815.00
1093.794, 17548.00
1094.892, 17616.00
1095.991, 17687.00
1097.089, 17624.00
1098.187, 17791.00
1099.285, 17803.00
1100.383, 17696.00
1101.481, 17971.00
1102.579, 17949.00
1103.676, 17747.00
1104.773, 17999.00
1105.870, 17896.00
1106.967, 17819.00
1108.064, 18035.00
1109.161, 17946.00
1110.257, 17870.00
1111.353, 18273.00
1112.449, 18024.00
1113.545, 18096.00
1114.641, 18202.00
1115.737, 18053.00
1116.832, 18220.00
1117.928, 18361.00
1119.023, 17950.00
1120.118, 18255.00
1121.213, 18125.00
1122.308, 17990.00
1123.402, 18159.00
1124.497, 18052.00
1125.591, 18002.00
1126.685, 18217.00
1127.779, 18112.00
1128.873, 18133.00
1129.967, 18079.00
1131.060, 18240.00
1132.153, 18105.00
1133.247, 18139.00
1134.340, 18261.00
1135.433, 18045.00
1136.525, 18372.00
1137.618, 18119.00
1138.710, 18291.00
1139.802, 18386.00
1140.895, 18218.00
1141.987, 18237.00
1143.078, 18204.00
1144.170, 18180.64
1145.261, 18211.84
1146.353, 18233.00
1147.444, 18286.00
1148.535, 18366.00
1149.626, 18457.00
1150.716, 18290.00
1151.807, 18247.00
1152.897, 18121.00
1153.988, 18387.00
1155.078, 18354.00
1156.168, 18518.00
1157.257, 18656.00
1158.347, 18460.00
1159.436, 18589.00
1160.526, 18352.00
1161.615, 18487.00
1162.704, 18596.00
1163.793, 18737.00
1164.881, 18671.00
1165.970, 18504.00
1167.058, 18671.00
1168.147, 18740.00
1169.235, 18541.00
1170.323, 18679.00
1171.410, 18531.00
1172.498, 18822.00
1173.585, 18676.00
1174.673, 18647.00
1175.760, 18938.00
1176.847, 18738.00
1177.934, 18744.00
1179.020, 18849.00
1180.107, 18973.00
1181.193, 18914.00
1182.279, 18985.00
1183.365, 19001.00
1184.451, 19066.00
1185.537, 19091.00
1186.623, 18911.00
1187.708, 19017.00
1188.793, 19164.00
1189.878, 18909.00
1190.963, 19008.00
1192.048, 18943.00
1193.133, 18990.00
1194.217, 19036.00
1195.302, 18816.00
1196.386, 19150.00
1197.470, 19344.00
1198.554, 19178.00
1199.638, 19042.00
1200.721, 19136.00
1201.805, 19179.00
1202.888, 19279.00
1203.971, 19121.00
1205.054, 19177.00
1206.137, 19199.00
1207.219, 19192.00
1208.302, 19302.00
1209.384, 19267.81
1210.466, 19277.33
1211.548, 19257.00
1212.630, 19223.00
1213.712, 19209.00
1214.794, 19141.00
1215.875, 19195.18
1216.956, 19333.00
1218.037, 19308.00
1219.118, 19417.00
1220.199, 19508.00
1221.280, 19588.00
1222.360, 19625.00
1223.441, 19588.00
1224.521, 19561.00
1225.601, 19728.00
1226.681, 19608.00
1227.760, 19585.00
1228.840, 19766.00
1229.919, 19694.00
1230.999, 19645.00
1232.078, 19825.00
1233.157, 19640.00
1234.236, 19691.00
1235.314, 19830.00
1236.393, 19841.00
1237.471, 19671.00
1238.549, 19775.00
1239.627, 19752.00
1240.705, 19958.00
1241.783, 19923.00
1242.860, 20037.00
1243.938, 19889.00
1245.015, 19967.00
1246.092, 19938.00
1247.169, 19975.00
1248.246, 20108.00
1249.323, 19871.00
1250.399, 20047.00
1251.475, 20186.00
1252.552, 19975.00
1253.628, 20102.00
1254.703, 20028.00
1255.779, 20134.00
1256.855, 20067.00
1257.930, 20133.00
1259.005, 20130.00
1260.080, 20168.00
1261.155, 20157.00
1262.230, 20312.00
1263.305, 20089.00
1264.379, 20288.00
1265.454, 20192.00
1266.528, 20191.00
1267.602, 20015.00
1268.676, 20088.00
1269.750, 20008.00
1270.823, 20118.00
1271.897, 20146.00
1272.970, 20334.00
1274.043, 20235.00
1275.116, 20245.00
1276.189, 20216.00
1277.261, 20318.00
1278.334, 20462.00
1279.406, 20454.00
1280.478, 20519.00
1281.550, 20455.00
1282.622, 20156.00
1283.694, 20351.00
1284.766, 20268.00
1285.837, 20365.00
1286.908, 20496.00
1287.979, 20584.00
1289.050, 20662.26
1290.121, 20429.00
1291.192, 20724.00
1292.262, 20589.00
1293.333, 20448.00
1294.403, 20504.00
1295.473, 20687.00
1296.543, 20657.00
1297.613, 20833.00
1298.682, 20616.00
1299.752, 20834.00
1300.821, 20699.00
1301.890, 20718.00
1302.959, 20771.00
1304.028, 20823.00
1305.096, 20856.53
1306.165, 20944.00
1307.233, 20924.00
1308.301, 20905.00
1309.370, 20898.00
1310.437, 20986.00
1311.505, 20642.00
1312.573, 20960.00
1313.640, 21141.00
1314.708, 20892.00
1315.775, 21012.00
1316.842, 20988.00
1317.908, 21069.00
1318.975, 21228.00
1320.042, 21065.00
1321.108, 20967.00
1322.174, 21038.00
1323.240, 20910.00
1324.306, 21028.00
1325.372, 21160.00
1326.438, 21105.00
1327.503, 21064.00
1328.568, 21007.00
1329.634, 21134.00
1330.699, 21106.34
1331.763, 21183.00
1332.828, 21187.00
1333.893, 21240.00
1334.957, 21288.00
1336.021, 21278.00
1337.085, 21220.00
1338.149, 21247.00
1339.213, 21409.00
1340.277, 21275.00
1341.340, 21401.00
1342.404, 21151.00
1343.467, 21533.00
1344.530, 21304.00
1345.593, 21315.00
1346.655, 21425.00
1347.718, 21210.00
1348.780, 21458.00
1349.843, 21576.00
1350.905, 21418.00
1351.967, 21452.00
1353.028, 21359.00
1354.090, 21557.00
1355.152, 21452.00
1356.213, 21591.00
1357.274, 21381.00
1358.335, 21680.00
1359.396, 21533.00
1360.457, 21623.00
1361.517, 21595.00
1362.578, 21558.00
1363.638, 21561.00
1364.698, 21748.00
1365.758, 21864.00
1366.818, 21483.00
1367.878, 21729.00
1368.937, 21731.00
1369.997, 21671.00
1371.056, 21797.00
1372.115, 21591.00
1373.174, 21546.00
1374.232, 21617.00
1375.291, 21676.00
1376.350, 21738.00
1377.408, 22008.00
1378.466, 21726.00
1379.524, 22003.00
1380.582, 22009.00
1381.640, 21928.00
1382.697, 21933.00
1383.754, 21867.00
1384.812, 21893.28
1385.869, 21921.00
1386.926, 21928.00
1387.983, 21990.07
1389.039, 22131.00
1390.096, 22092.00
1391.152, 22062.00
1392.208, 22070.00
1393.264, 21991.00
1394.320, 22191.00
1395.376, 22005.00
1396.431, 22141.00
1397.487, 22285.00
1398.542, 22149.00
1399.597, 22349.00
1400.652, 22369.00
1401.707, 22224.00
1402.762, 22276.00
1403.816, 22300.00
1404.871, 22263.37
1405.925, 22335.00
1406.979, 22348.00
1408.033, 22230.00
1409.086, 22411.00
1410.140, 22308.43
1411.194, 22417.40
1412.247, 22491.28
1413.300, 22532.00
1414.353, 22440.20
1415.406, 22519.52
1416.458, 22530.23
1417.511, 22538.16
1418.563, 22641.54
1419.616, 22569.01
1420.668, 22670.87
1421.720, 22703.11
1422.772, 22767.21
1423.823, 22762.29
1424.875, 22778.71
1425.926, 22864.12
1426.977, 22911.31
1428.028, 22763.00
1429.079, 22796.95
1430.130, 22801.00
1431.180, 22860.00
1432.231, 22893.97
1433.281, 23085.00
1434.331, 23000.00
1435.381, 23037.00
1436.431, 23110.00
1437.481, 22981.00
1438.530, 23030.00
1439.580, 23004.00
1440.629, 23151.00
1441.678, 23159.00
1442.727, 23216.00
1443.776, 23214.00
1444.824, 23239.22
1445.873, 23265.00
1446.921, 23271.00
1447.969, 23255.00
1449.017, 23269.00
1450.065, 23236.83
1451.113, 23326.16
1452.160, 23143.00
1453.208, 23438.00
1454.255, 23348.00
1455.302, 23235.00
1456.349, 23414.00
1457.396, 23469.00
1458.443, 23508.00
1459.489, 23511.00
1460.535, 23444.00
1461.582, 23499.00
1462.628, 23512.00
1463.674, 23473.00
1464.719, 23620.00
1465.765, 23522.00
1466.810, 23694.00
1467.856, 23608.00
1468.901, 23681.00
1469.946, 23682.00
1470.991, 23789.00
1472.035, 23664.00
1473.080, 23798.00
1474.124, 23605.00
1475.169, 23902.00
1476.213, 23854.00
1477.257, 24034.00
1478.300, 23885.00
1479.344, 23909.00
1480.388, 24069.00
1481.431, 24043.00
1482.474, 24112.00
1483.517, 24103.00
1484.560, 24021.00
1485.603, 24028.00
1486.645, 23881.00
1487.688, 24079.00
1488.730, 24055.00
1489.772, 24234.00
1490.814, 24030.00
1491.856, 24235.00
1492.898, 24062.00
1493.939, 24355.00
1494.981, 24190.00
1496.022, 24260.00
1497.063, 24161.00
1498.104, 24138.00
1499.145, 24215.00
1500.186, 24067.00
1501.226, 24332.00
1502.266, 24321.00
1503.307, 24502.00
1504.347, 24309.00
1505.387, 24276.00
1506.426, 24329.00
1507.466, 24633.00
1508.505, 24533.00
1509.545, 24526.00
1510.584, 24431.00
1511.623, 24516.00
1512.662, 24555.00
1513.700, 24555.00
1514.739, 24564.03
1515.777, 24531.00
1516.815, 24540.00
1517.854, 24533.00
1518.892, 24576.00
1519.929, 24599.42
1520.967, 24655.00
1522.004, 24699.00
1523.042, 24683.00
1524.079, 24768.00
1525.116, 24783.00
1526.153, 24656.00
1527.190, 24881.00
1528.226, 24769.00
1529.263, 24868.00
1530.299, 25105.00
1531.335, 25037.00
1532.371, 24697.00
1533.407, 24947.00
1534.443, 25115.00
1535.478, 24789.00
1536.514, 24957.00
1537.549, 24916.00
1538.584, 24931.00
1539.619, 24979.00
1540.654, 25139.00
1541.689, 24951.00
1542.723, 25183.00
1543.757, 25006.00
1544.792, 25189.00
1545.826, 25194.00
1546.860, 25234.00
1547.893, 25240.00
1548.927, 25196.00
1549.960, 25257.00
1550.994, 25194.00
1552.027, 25244.00
1553.060, 25227.00
1554.093, 25497.00
1555.126, 25338.00
1556.158, 25430.00
1557.191, 25502.00
1558.223, 25416.00
1559.255, 25340.00
1560.287, 25644.00
1561.319, 25414.00
1562.350, 25493.00
1563.382, 25462.00
##END=



