##NAMES=Kyanite
##RRUFFID=R040119
##IDEAL CHEMISTRY=Al_2_OSiO_4_
##LOCALITY=Rutherford County, North Carolina, USA
##OWNER=RRUFF
##SOURCE=University of Arizona Mineral Museum
##DESCRIPTION=Blue bladed crystal
##STATUS=The identification of this mineral has been confirmed by X-ray diffraction and chemical analysis
##URL=rruff.info/R040119
##MEASURED CHEMISTRY=(Al_0.99_Fe^3+^_0.01_)_2_OSi_1.00_O_4_
##PIN_ID=L00103
##ORIENTATION=Laser parallel to c* (0 0 1). Fiducial mark perpendicular to laser is parallel to a [1 0 0]
98.23100, 32764.00
99.46700, 33683.00
100.7030, 34200.00
101.9390, 34802.00
103.1740, 36288.00
104.4090, 37245.00
105.6440, 37799.00
106.8790, 37709.00
108.1140, 37114.00
109.3490, 36765.00
110.5830, 36458.00
111.8180, 37137.00
113.0520, 37281.00
114.2860, 37893.00
115.5200, 38253.00
116.7530, 38038.00
117.9870, 38289.00
119.2200, 38557.00
120.4530, 37336.00
121.6860, 36446.00
122.9190, 36472.00
124.1520, 36438.00
125.3850, 36244.00
126.6170, 35970.00
127.8490, 36066.00
129.0810, 36374.00
130.3130, 36322.00
131.5450, 36573.00
132.7770, 36421.00
134.0080, 36432.00
135.2390, 36532.00
136.4710, 36530.00
137.7020, 36756.00
138.9320, 37130.00
140.1630, 37166.00
141.3930, 37087.44
142.6240, 36960.00
143.8540, 36847.00
145.0840, 36932.00
146.3140, 37228.00
147.5440, 37340.00
148.7730, 37379.00
150.0020, 37501.79
151.2320, 37615.00
152.4610, 37516.13
153.6900, 37547.91
154.9180, 37432.00
156.1470, 37863.00
157.3750, 37415.00
158.6040, 38246.00
159.8320, 38317.00
161.0600, 38059.00
162.2870, 37989.00
163.5150, 37984.00
164.7420, 38063.00
165.9700, 38092.00
167.1970, 38215.00
168.4240, 38513.00
169.6510, 38576.00
170.8770, 38654.63
172.1040, 38670.62
173.3300, 38692.00
174.5560, 38591.00
175.7820, 38584.00
177.0080, 38646.00
178.2340, 38809.00
179.4590, 38588.00
180.6850, 38659.00
181.9100, 38797.00
183.1350, 38535.00
184.3600, 38763.00
185.5850, 38665.00
186.8090, 38565.00
188.0340, 38977.00
189.2580, 38885.00
190.4820, 39120.00
191.7060, 39289.00
192.9300, 39452.00
194.1530, 39589.00
195.3770, 39872.00
196.6000, 40163.00
197.8230, 40385.00
199.0460, 40886.00
200.2690, 41170.00
201.4910, 41700.00
202.7140, 42081.00
203.9360, 42223.00
205.1580, 42416.00
206.3800, 42765.00
207.6020, 42771.00
208.8240, 42495.00
210.0450, 42038.00
211.2670, 41460.00
212.4880, 41227.00
213.7090, 40924.00
214.9300, 41122.00
216.1510, 40935.00
217.3710, 41429.00
218.5920, 41464.00
219.8120, 41521.00
221.0320, 41705.00
222.2520, 41973.00
223.4720, 42294.00
224.6910, 42305.21
225.9110, 42393.00
227.1300, 42331.00
228.3490, 42117.00
229.5680, 42052.00
230.7870, 41607.00
232.0050, 41436.00
233.2240, 41470.00
234.4420, 41353.00
235.6600, 41510.00
236.8780, 41422.00
238.0960, 41474.00
239.3140, 41846.00
240.5310, 41941.00
241.7490, 42139.00
242.9660, 42300.00
244.1830, 42230.00
245.4000, 42369.00
246.6160, 42051.00
247.8330, 42034.00
249.0490, 41960.00
250.2660, 42098.68
251.4820, 42296.75
252.6980, 42402.92
253.9130, 42422.14
255.1290, 42093.90
256.3440, 42214.32
257.5600, 42154.93
258.7750, 42088.18
259.9900, 42271.75
261.2040, 42261.53
262.4190, 42173.67
263.6330, 42479.00
264.8480, 42788.00
266.0620, 43008.00
267.2760, 43451.00
268.4900, 43651.00
269.7030, 44207.00
270.9170, 45159.00
272.1300, 46073.00
273.3430, 46372.00
274.5560, 47190.00
275.7690, 47615.00
276.9820, 47976.00
278.1940, 48085.00
279.4070, 47712.00
280.6190, 47651.00
281.8310, 47390.00
283.0430, 47551.00
284.2550, 48616.00
285.4660, 49659.00
286.6770, 51412.00
287.8890, 53285.00
289.1000, 55381.00
290.3110, 57896.00
291.5210, 60373.00
292.7320, 62595.00
293.9420, 66034.00
295.1530, 69512.00
296.3630, 74138.00
297.5730, 77548.00
298.7830, 80832.00
299.9920, 83633.00
301.2020, 82094.00
302.4110, 76854.00
303.6200, 70342.00
304.8290, 63791.00
306.0380, 56917.00
307.2470, 52849.00
308.4550, 51193.00
309.6630, 50416.00
310.8720, 50543.00
312.0800, 51178.00
313.2880, 52402.00
314.4950, 54331.27
315.7030, 56607.00
316.9100, 60067.00
318.1170, 63848.00
319.3240, 68485.00
320.5310, 73723.00
321.7380, 77992.00
322.9450, 81619.00
324.1510, 84222.00
325.3570, 83138.00
326.5630, 78694.00
327.7690, 72076.00
328.9750, 64857.00
330.1810, 58504.00
331.3860, 53974.00
332.5910, 52206.00
333.7960, 50675.00
335.0010, 50192.00
336.2060, 50202.00
337.4110, 50434.00
338.6150, 50690.00
339.8200, 50779.00
341.0240, 51192.00
342.2280, 50814.00
343.4320, 50093.00
344.6350, 49706.00
345.8390, 49801.00
347.0420, 49758.00
348.2450, 49923.00
349.4480, 50405.06
350.6510, 50763.00
351.8540, 51823.00
353.0560, 52718.00
354.2590, 54008.00
355.4610, 55484.00
356.6630, 56875.00
357.8650, 58347.00
359.0670, 59425.00
360.2680, 60041.00
361.4700, 59167.00
362.6710, 58724.00
363.8720, 58715.00
365.0730, 59013.00
366.2740, 60406.00
367.4740, 62044.00
368.6750, 63959.00
369.8750, 66229.00
371.0750, 67773.00
372.2750, 69808.00
373.4750, 70520.00
374.6740, 71041.00
375.8740, 71931.00
377.0730, 73208.00
378.2720, 74687.00
379.4710, 76534.00
380.6700, 78575.00
381.8690, 79592.00
383.0670, 82061.00
384.2660, 83254.00
385.4640, 83498.00
386.6620, 82691.00
387.8600, 81324.00
389.0570, 79691.00
390.2550, 79361.00
391.4520, 78924.00
392.6490, 77239.00
393.8460, 74472.00
395.0430, 71858.00
396.2400, 70424.00
397.4370, 70166.00
398.6330, 71847.00
399.8290, 74622.00
401.0250, 76623.00
402.2210, 79149.00
403.4170, 79042.00
404.6130, 76506.00
405.8080, 72146.00
407.0030, 67035.00
408.1980, 62459.00
409.3930, 58941.00
410.5880, 57038.00
411.7830, 56409.00
412.9770, 56210.00
414.1720, 56181.00
415.3660, 56473.00
416.5600, 57107.00
417.7530, 57364.00
418.9470, 57362.00
420.1410, 57097.00
421.3340, 56367.00
422.5270, 55712.00
423.7200, 55720.00
424.9130, 56500.00
426.1060, 57669.00
427.2980, 59480.00
428.4900, 61874.00
429.6830, 64498.00
430.8750, 68284.00
432.0670, 71870.00
433.2580, 75656.00
434.4500, 78955.00
435.6410, 81090.00
436.8320, 81593.00
438.0240, 80492.00
439.2140, 77215.00
440.4050, 72978.00
441.5960, 68543.00
442.7860, 65128.00
443.9760, 62812.00
445.1670, 61845.00
446.3560, 60786.00
447.5460, 60064.00
448.7360, 59154.00
449.9250, 58098.00
451.1150, 56237.00
452.3040, 55155.00
453.4930, 54283.00
454.6810, 53556.00
455.8700, 53510.00
457.0590, 53479.00
458.2470, 53344.00
459.4350, 53313.00
460.6230, 53928.00
461.8110, 54500.00
462.9980, 54547.00
464.1860, 54927.00
465.3730, 55232.00
466.5600, 55343.00
467.7470, 56083.00
468.9340, 57244.00
470.1210, 58054.00
471.3080, 59736.00
472.4940, 62303.00
473.6800, 65692.00
474.8660, 70226.00
476.0520, 75828.00
477.2380, 83805.00
478.4230, 93567.00
479.6090, 105200.0
480.7940, 117731.0
481.9790, 131183.0
483.1640, 142892.0
484.3490, 151430.0
485.5330, 155298.0
486.7180, 151580.0
487.9020, 141024.0
489.0860, 126292.0
490.2700, 111019.0
491.4540, 98853.00
492.6370, 89071.00
493.8210, 81535.00
495.0040, 76234.00
496.1870, 71580.00
497.3700, 67861.00
498.5530, 65213.00
499.7360, 63334.00
500.9180, 62438.00
502.1000, 61181.00
503.2830, 60736.00
504.4650, 60853.00
505.6460, 60814.00
506.8280, 61078.00
508.0100, 61123.00
509.1910, 61348.00
510.3720, 61333.00
511.5530, 60501.00
512.7340, 60422.00
513.9150, 59667.00
515.0950, 58714.00
516.2760, 57692.00
517.4560, 56823.00
518.6360, 56375.00
519.8160, 55781.00
520.9950, 55686.00
522.1750, 55448.00
523.3540, 55395.00
524.5340, 54994.00
525.7130, 55007.00
526.8920, 55020.00
528.0700, 54817.00
529.2490, 55161.00
530.4270, 55217.00
531.6060, 54949.00
532.7840, 55519.00
533.9620, 55675.00
535.1390, 55630.00
536.3170, 55799.00
537.4940, 56042.00
538.6720, 56458.00
539.8490, 56673.00
541.0260, 57107.00
542.2030, 57104.00
543.3790, 57293.00
544.5560, 57352.00
545.7320, 57360.00
546.9080, 57296.00
548.0840, 57461.00
549.2600, 57285.00
550.4360, 57535.00
551.6110, 57544.00
552.7860, 58068.00
553.9620, 58526.00
555.1370, 59685.00
556.3110, 60931.00
557.4860, 62124.00
558.6610, 63381.00
559.8350, 64450.00
561.0090, 65424.00
562.1830, 66328.00
563.3570, 66859.00
564.5310, 65832.45
565.7040, 64769.00
566.8780, 63499.00
568.0510, 62596.00
569.2240, 62611.00
570.3970, 62148.00
571.5700, 62962.00
572.7420, 62215.00
573.9150, 62241.00
575.0870, 61567.00
576.2590, 61250.00
577.4310, 61210.00
578.6030, 61625.00
579.7740, 62073.00
580.9460, 62501.00
582.1170, 62943.00
583.2880, 63659.00
584.4590, 63413.00
585.6300, 63342.00
586.8010, 62880.00
587.9710, 62144.00
589.1410, 61058.00
590.3110, 59891.00
591.4810, 59768.00
592.6510, 59568.00
593.8210, 58937.00
594.9900, 58987.00
596.1600, 59119.00
597.3290, 59175.00
598.4980, 59615.00
599.6670, 60002.00
600.8350, 60531.00
602.0040, 60756.00
603.1720, 61060.00
604.3400, 61523.00
605.5080, 61813.00
606.6760, 61592.00
607.8440, 61453.00
609.0120, 61707.00
610.1790, 61469.00
611.3460, 61449.00
612.5130, 61661.00
613.6800, 61546.00
614.8470, 61724.07
616.0130, 62012.00
617.1800, 62064.00
618.3460, 62105.00
619.5120, 62438.00
620.6780, 61960.00
621.8440, 62128.00
623.0090, 62080.00
624.1750, 62328.00
625.3400, 62590.00
626.5050, 63217.00
627.6700, 63547.00
628.8350, 64248.41
629.9990, 65273.00
631.1640, 65934.00
632.3280, 67007.00
633.4920, 68394.00
634.6560, 68327.00
635.8200, 68926.00
636.9840, 68849.00
638.1470, 68257.00
639.3100, 66590.00
640.4730, 65393.00
641.6360, 64395.00
642.7990, 63402.00
643.9620, 62736.00
645.1240, 62068.00
646.2870, 61953.00
647.4490, 61934.00
648.6110, 62200.00
649.7730, 61847.00
650.9340, 62254.00
652.0960, 62151.00
653.2570, 62334.00
654.4180, 62159.00
655.5790, 62277.09
656.7400, 62006.00
657.9010, 62320.00
659.0620, 62147.00
660.2220, 61928.00
661.3820, 61994.00
662.5420, 62254.00
663.7020, 62334.07
664.8620, 62528.00
666.0210, 62965.00
667.1810, 63207.00
668.3400, 63808.00
669.4990, 64030.00
670.6580, 63422.00
671.8170, 63507.00
672.9750, 63045.00
674.1340, 62925.00
675.2920, 62316.00
676.4500, 62169.00
677.6080, 62107.00
678.7660, 62045.00
679.9230, 61542.00
681.0810, 61731.00
682.2380, 61545.00
683.3950, 61653.00
684.5520, 61635.00
685.7090, 61423.00
686.8660, 61236.00
688.0220, 61165.00
689.1780, 61458.00
690.3340, 61366.00
691.4900, 61681.00
692.6460, 61418.00
693.8020, 61573.00
694.9570, 62118.00
696.1130, 62033.61
697.2680, 62373.00
698.4230, 62234.00
699.5780, 62538.00
700.7320, 62355.00
701.8870, 62822.00
703.0410, 62816.00
704.1950, 62782.00
705.3490, 62823.00
706.5030, 62726.00
707.6570, 62519.00
708.8110, 62567.00
709.9640, 62482.00
711.1170, 62425.00
712.2700, 62366.00
713.4230, 62560.00
714.5760, 62696.00
715.7280, 63077.00
716.8810, 62796.00
718.0330, 63182.00
719.1850, 63384.00
720.3370, 63839.00
721.4890, 63866.00
722.6400, 64117.00
723.7920, 64163.00
724.9430, 64213.00
726.0940, 64157.00
727.2450, 63782.00
728.3960, 63594.00
729.5460, 63274.00
730.6970, 62919.00
731.8470, 62847.00
732.9970, 62637.98
734.1470, 62940.00
735.2970, 62686.00
736.4460, 62112.00
737.5960, 62616.00
738.7450, 61972.00
739.8940, 62122.00
741.0430, 62294.00
742.1920, 62106.00
743.3410, 62183.00
744.4890, 62059.00
745.6370, 62328.00
746.7850, 62218.00
747.9330, 62324.00
749.0810, 61990.00
750.2290, 62249.00
751.3760, 61932.00
752.5240, 62077.00
753.6710, 62175.00
754.8180, 62026.00
755.9650, 61987.00
757.1110, 62289.00
758.2580, 62219.00
759.4040, 62086.00
760.5510, 62254.00
761.6970, 62152.00
762.8420, 62194.00
763.9880, 61984.00
765.1340, 62024.00
766.2790, 62290.00
767.4240, 62098.00
768.5690, 62444.00
769.7140, 62401.93
770.8590, 62206.00
772.0030, 62352.00
773.1480, 62114.00
774.2920, 61860.00
775.4360, 62408.00
776.5800, 62110.00
777.7240, 62055.00
778.8670, 62052.00
780.0110, 62172.00
781.1540, 61994.00
782.2970, 62073.00
783.4400, 62476.00
784.5830, 62171.00
785.7250, 62659.00
786.8680, 62782.00
788.0100, 62824.00
789.1520, 62603.00
790.2940, 63001.00
791.4360, 62826.00
792.5780, 62723.00
793.7190, 62698.00
794.8600, 63010.00
796.0010, 63155.00
797.1420, 62636.00
798.2830, 63114.00
799.4240, 63077.00
800.5640, 63365.00
801.7050, 63490.00
802.8450, 63208.00
803.9850, 63418.00
805.1250, 63454.00
806.2640, 63638.00
807.4040, 63381.00
808.5430, 63680.00
809.6820, 63616.00
810.8210, 63292.00
811.9600, 63689.00
813.0990, 63617.00
814.2370, 63786.00
815.3760, 63625.00
816.5140, 64317.00
817.6520, 64452.00
818.7900, 64338.00
819.9270, 64109.00
821.0650, 64247.00
822.2020, 64335.00
823.3390, 64188.00
824.4760, 64471.00
825.6130, 64589.00
826.7500, 64732.00
827.8870, 64662.00
829.0230, 64578.00
830.1590, 65009.00
831.2950, 64780.00
832.4310, 65342.00
833.5670, 65256.00
834.7030, 65273.00
835.8380, 65443.00
836.9730, 65407.45
838.1080, 65515.41
839.2430, 65529.00
840.3780, 65683.00
841.5130, 65804.00
842.6470, 65929.00
843.7810, 65881.00
844.9150, 66223.00
846.0490, 66013.00
847.1830, 66383.00
848.3170, 66484.00
849.4500, 66295.00
850.5830, 66915.00
851.7160, 66799.00
852.8490, 67424.00
853.9820, 68113.00
855.1150, 67717.00
856.2470, 67733.00
857.3800, 67657.00
858.5120, 68089.00
859.6440, 68580.00
860.7760, 68710.00
861.9070, 69050.05
863.0390, 69387.00
864.1700, 69567.00
865.3010, 69837.00
866.4320, 70321.00
867.5630, 70770.00
868.6940, 71183.00
869.8240, 71723.00
870.9540, 72632.00
872.0850, 73648.00
873.2150, 74343.00
874.3450, 75294.00
875.4740, 76510.00
876.6040, 78190.00
877.7330, 79878.00
878.8620, 82065.00
879.9910, 84350.00
881.1200, 87066.00
882.2490, 90706.00
883.3770, 94660.00
884.5060, 99130.00
885.6340, 103780.0
886.7620, 108599.0
887.8900, 112514.0
889.0180, 115692.0
890.1450, 117367.0
891.2730, 117706.0
892.4000, 116903.0
893.5270, 116308.0
894.6540, 115071.0
895.7810, 113878.0
896.9070, 114285.0
898.0340, 114677.0
899.1600, 114453.0
900.2860, 113759.0
901.4120, 111706.0
902.5380, 108849.0
903.6630, 104246.0
904.7890, 100174.0
905.9140, 95600.00
907.0390, 91785.00
908.1640, 88366.00
909.2890, 86136.00
910.4130, 83530.00
911.5380, 82662.00
912.6620, 81362.00
913.7860, 80554.00
914.9100, 79537.00
916.0340, 79796.00
917.1580, 79244.00
918.2810, 79515.00
919.4040, 79151.00
920.5280, 79395.00
921.6510, 80061.00
922.7730, 79343.00
923.8960, 79588.00
925.0180, 80207.00
926.1410, 80519.00
927.2630, 81048.00
928.3850, 81723.00
929.5070, 82528.00
930.6280, 83581.00
931.7500, 84524.00
932.8710, 85783.84
933.9920, 87452.00
935.1130, 88578.00
936.2340, 90252.00
937.3550, 91974.00
938.4760, 93557.00
939.5960, 95737.00
940.7160, 97713.00
941.8360, 100038.0
942.9560, 102544.0
944.0760, 104875.0
945.1950, 107669.0
946.3150, 109583.0
947.4340, 112097.0
948.5530, 113833.0
949.6720, 114994.0
950.7900, 115589.5
951.9090, 115826.0
953.0270, 114893.0
954.1460, 113657.0
955.2640, 111804.0
956.3820, 110322.0
957.4990, 108921.0
958.6170, 107618.0
959.7340, 105939.0
960.8520, 104881.0
961.9690, 102977.0
963.0860, 101082.0
964.2020, 98926.00
965.3190, 96181.00
966.4350, 94029.00
967.5520, 91630.00
968.6680, 89150.00
969.7840, 87004.00
970.8990, 85694.00
972.0150, 83866.00
973.1310, 82863.00
974.2460, 81602.00
975.3610, 81087.00
976.4760, 80020.00
977.5910, 79596.00
978.7050, 79196.00
979.8200, 77984.00
980.9340, 77904.00
982.0480, 77969.00
983.1620, 77118.00
984.2760, 77084.00
985.3900, 76943.00
986.5030, 76867.00
987.6160, 76692.00
988.7300, 76548.00
989.8430, 76795.00
990.9550, 76912.00
992.0680, 77176.00
993.1810, 77492.05
994.2930, 77812.00
995.4050, 78112.00
996.5170, 78411.00
997.6290, 78535.00
998.7410, 79312.00
999.8520, 79590.00
1000.964, 79861.00
1002.075, 79430.00
1003.186, 78566.00
1004.297, 78279.00
1005.407, 77563.92
1006.518, 76737.00
1007.628, 76333.00
1008.738, 75884.00
1009.848, 75333.00
1010.958, 75120.00
1012.068, 75334.00
1013.178, 75032.00
1014.287, 74942.00
1015.396, 74534.00
1016.505, 74365.00
1017.614, 74754.00
1018.723, 74520.00
1019.831, 74248.00
1020.940, 74650.00
1022.048, 74413.00
1023.156, 74726.00
1024.264, 74310.00
1025.372, 74625.00
1026.479, 74464.00
1027.587, 74316.00
1028.694, 74403.00
1029.801, 74649.00
1030.908, 74502.00
1032.015, 74498.00
1033.121, 74293.00
1034.228, 74565.00
1035.334, 74322.00
1036.440, 74189.00
1037.546, 74331.00
1038.652, 74571.00
1039.758, 74340.00
1040.863, 74537.00
1041.968, 74509.00
1043.074, 74548.00
1044.178, 74235.00
1045.283, 74157.00
1046.388, 74763.00
1047.492, 74258.00
1048.597, 74623.00
1049.701, 74550.00
1050.805, 74298.00
1051.909, 74708.00
1053.012, 74966.00
1054.116, 74538.00
1055.219, 74737.00
1056.322, 75082.00
1057.425, 74723.00
1058.528, 75230.00
1059.631, 74747.00
1060.733, 74864.00
1061.836, 75007.00
1062.938, 75116.00
1064.040, 75346.00
1065.142, 75477.00
1066.243, 75191.00
1067.345, 75457.00
1068.446, 75502.00
1069.547, 75433.00
1070.648, 75635.00
1071.749, 75687.00
1072.850, 75859.00
1073.951, 75475.00
1075.051, 75896.00
1076.151, 75458.00
1077.251, 75345.00
1078.351, 75913.00
1079.451, 75999.00
1080.550, 76161.00
1081.650, 76008.00
1082.749, 76092.96
1083.848, 76258.00
1084.947, 76098.00
1086.046, 75919.00
1087.144, 75987.00
1088.243, 75820.00
1089.341, 75926.00
1090.439, 76213.00
1091.537, 76225.00
1092.635, 76401.00
1093.732, 76273.00
1094.830, 76550.00
1095.927, 76533.00
1097.024, 76280.00
1098.121, 76582.00
1099.218, 76697.00
1100.314, 76726.00
1101.411, 76727.23
1102.507, 76754.92
1103.603, 76528.00
1104.699, 76726.00
1105.795, 76685.00
1106.890, 76655.00
1107.986, 76873.09
1109.081, 76669.00
1110.176, 77196.00
1111.271, 77122.00
1112.366, 77203.00
1113.461, 76927.00
1114.555, 76863.00
1115.649, 77068.00
1116.744, 77419.00
1117.838, 76923.00
1118.931, 77458.00
1120.025, 77003.00
1121.119, 77504.00
1122.212, 77776.00
1123.305, 77607.00
1124.398, 77471.00
1125.491, 77065.00
1126.584, 77598.00
1127.676, 77616.00
1128.768, 77706.00
1129.861, 77889.00
1130.953, 77400.00
1132.044, 77703.00
1133.136, 77883.00
1134.228, 77538.00
1135.319, 77742.00
1136.410, 77957.00
1137.501, 78063.00
1138.592, 77956.00
1139.683, 77725.00
1140.773, 78018.00
1141.864, 77998.00
1142.954, 78190.00
1144.044, 78263.00
1145.134, 78268.00
1146.224, 78248.00
1147.313, 78213.00
1148.402, 78472.00
1149.492, 78505.00
1150.581, 78520.00
1151.670, 78461.00
1152.758, 78627.00
1153.847, 78666.00
1154.935, 78826.00
1156.024, 78562.00
1157.112, 78920.00
1158.200, 78585.00
1159.287, 78930.00
1160.375, 78617.00
1161.462, 78760.00
1162.550, 79181.00
1163.637, 79201.00
1164.724, 79323.00
1165.810, 79469.00
1166.897, 79250.00
1167.983, 79300.00
1169.070, 78842.00
1170.156, 79282.00
1171.242, 79104.00
1172.327, 79266.00
1173.413, 79585.00
1174.499, 79526.00
1175.584, 79539.00
1176.669, 79656.00
1177.754, 79350.00
1178.839, 79502.00
1179.923, 79611.00
1181.008, 79330.00
1182.092, 79556.50
1183.176, 79623.00
1184.260, 79701.00
1185.344, 79757.00
1186.428, 79782.00
1187.511, 80146.00
1188.595, 80247.00
1189.678, 80041.00
1190.761, 80135.00
1191.843, 80829.00
1192.926, 80194.00
1194.009, 80025.00
1195.091, 80727.00
1196.173, 80592.00
1197.255, 80450.00
1198.337, 80707.00
1199.419, 80596.00
1200.500, 80553.00
1201.582, 80560.00
1202.663, 80850.00
1203.744, 80596.00
1204.825, 80887.00
1205.905, 80818.00
1206.986, 81096.00
1208.066, 80818.00
1209.146, 80819.00
1210.226, 81027.00
1211.306, 80868.00
1212.386, 80890.00
1213.466, 80849.00
1214.545, 80921.91
1215.624, 81057.00
1216.703, 81202.00
1217.782, 81339.00
1218.861, 81582.00
1219.939, 81419.00
1221.018, 82040.00
1222.096, 81475.00
1223.174, 81813.00
1224.252, 81305.00
1225.330, 81737.00
1226.407, 81594.00
1227.485, 82125.00
1228.562, 82045.00
1229.639, 82652.00
1230.716, 82451.00
1231.793, 81823.00
1232.869, 81941.00
1233.946, 82055.00
1235.022, 82347.00
1236.098, 82390.00
1237.174, 82162.00
1238.250, 82346.00
1239.325, 82278.00
1240.401, 82386.00
1241.476, 82763.00
1242.551, 82660.00
1243.626, 82768.00
1244.701, 82815.00
1245.776, 82741.00
1246.850, 82587.00
1247.924, 82898.00
1248.999, 82871.00
1250.073, 82707.00
1251.146, 82874.00
1252.220, 83529.00
1253.293, 82704.00
1254.367, 83253.00
1255.440, 83165.00
1256.513, 83042.00
1257.586, 83057.00
1258.658, 82988.00
1259.731, 83611.00
1260.803, 83061.00
1261.875, 83363.00
1262.947, 83566.00
1264.019, 83406.00
1265.091, 83733.00
1266.162, 83591.00
1267.234, 83679.00
1268.305, 83565.00
1269.376, 83578.50
1270.447, 83635.63
1271.517, 83638.00
1272.588, 83877.00
1273.658, 84028.00
1274.729, 84422.00
1275.799, 84457.41
1276.868, 83896.00
1277.938, 84592.00
1279.008, 84213.00
1280.077, 84181.00
1281.146, 84198.00
1282.215, 84476.00
1283.284, 84154.00
1284.353, 84654.00
1285.421, 84293.00
1286.490, 84306.00
1287.558, 84624.00
1288.626, 84580.00
1289.694, 84645.00
1290.762, 84542.00
1291.829, 84928.00
1292.897, 84676.00
1293.964, 85102.00
1295.031, 85295.00
1296.098, 84899.00
1297.165, 85397.00
1298.231, 85221.00
1299.298, 85153.00
1300.364, 84945.00
1301.430, 85120.00
1302.496, 85246.00
1303.562, 85152.00
1304.627, 85425.00
1305.693, 85603.00
1306.758, 85642.00
1307.823, 85408.00
1308.888, 85842.00
1309.953, 85621.00
1311.018, 85836.00
1312.082, 85891.00
1313.146, 85837.14
1314.210, 85917.00
1315.274, 85933.07
1316.338, 85948.63
1317.402, 85988.00
1318.465, 85983.00
1319.529, 85961.00
1320.592, 85926.00
1321.655, 85971.00
1322.718, 86156.00
1323.780, 86128.00
1324.843, 86294.00
1325.905, 86245.03
1326.967, 86178.00
1328.029, 86179.00
1329.091, 86212.00
1330.153, 86262.19
1331.214, 86429.00
1332.275, 86203.00
1333.337, 86478.00
1334.398, 86396.00
1335.458, 86448.00
1336.519, 86316.00
1337.580, 86353.28
1338.640, 86375.00
1339.700, 86323.00
1340.760, 86685.00
1341.820, 86583.00
1342.880, 86858.00
1343.939, 86818.00
1344.999, 86905.00
1346.058, 86959.00
1347.117, 86889.00
1348.176, 87040.20
1349.235, 87090.00
1350.293, 87170.00
1351.351, 87276.00
1352.410, 87312.62
1353.468, 87411.21
1354.526, 87393.00
1355.583, 87509.00
1356.641, 87509.00
1357.698, 87415.00
1358.756, 87498.00
1359.813, 87628.00
1360.869, 87642.05
1361.926, 87547.70
1362.983, 87807.00
1364.039, 87467.00
1365.095, 87517.00
1366.152, 87963.00
1367.207, 87650.00
1368.263, 87872.00
1369.319, 88004.00
1370.374, 88073.00
1371.430, 88019.00
1372.485, 88269.00
1373.540, 88318.00
1374.594, 88357.00
1375.649, 88052.00
1376.703, 88108.00
1377.758, 88114.00
1378.812, 88256.00
1379.866, 88656.00
1380.920, 88288.00
1381.973, 88282.00
1383.027, 89194.00
1384.080, 88901.00
1385.133, 88750.00
1386.186, 88839.00
1387.239, 88733.00
1388.291, 88797.08
1389.344, 88768.00
1390.396, 88902.00
1391.448, 89226.00
1392.500, 89230.00
1393.552, 88728.00
1394.604, 89093.00
1395.655, 88776.00
1396.707, 89016.00
1397.758, 89041.00
1398.809, 89142.00
1399.860, 89100.00
1400.910, 89430.00
1401.961, 89220.00
1403.011, 89325.00
1404.061, 89358.00
1405.111, 89704.00
1406.161, 89802.00
1407.211, 89749.00
1408.260, 89807.00
1409.310, 89625.00
1410.359, 89774.00
1411.408, 89732.00
1412.457, 89851.00
1413.506, 89816.00
1414.554, 90223.00
1415.603, 89917.00
1416.651, 90112.00
1417.699, 89786.00
1418.747, 89846.00
1419.794, 89954.00
1420.842, 89972.00
1421.889, 90246.00
1422.937, 90277.00
1423.984, 90665.00
1425.031, 90543.00
1426.077, 90255.00
1427.124, 90604.00
1428.170, 90519.00
1429.217, 90400.00
1430.263, 90679.00
1431.309, 90268.00
1432.354, 90571.00
1433.400, 90459.00
1434.445, 90904.00
1435.491, 90955.00
1436.536, 90670.00
1437.581, 90663.00
1438.625, 90725.66
1439.670, 91032.58
1440.714, 91226.40
1441.759, 91313.30
1442.803, 90972.76
1443.847, 91184.10
1444.890, 91174.23
1445.934, 91155.34
1446.978, 91444.35
1448.021, 91165.93
1449.064, 91450.02
1450.107, 91509.56
1451.150, 91671.88
1452.192, 91611.61
1453.235, 91620.12
1454.277, 91851.19
1455.319, 91959.00
1456.361, 91873.12
1457.403, 92041.91
1458.445, 91755.67
1459.486, 91868.69
1460.528, 92154.03
1461.569, 92079.29
1462.610, 92252.11
1463.651, 92330.64
1464.691, 91980.65
1465.732, 92375.88
1466.772, 92030.00
1467.812, 92121.63
1468.852, 92290.00
1469.892, 92201.00
1470.932, 92164.00
1471.971, 92111.00
1473.011, 92235.00
1474.050, 92332.00
1475.089, 92496.00
1476.128, 92491.00
1477.166, 92191.00
1478.205, 92549.00
1479.243, 92897.00
1480.282, 92617.00
1481.320, 92837.00
1482.357, 92663.00
1483.395, 92867.00
1484.433, 93078.00
1485.470, 92490.00
1486.507, 93007.00
1487.544, 93027.00
1488.581, 93052.00
1489.618, 92511.00
1490.655, 93008.00
1491.691, 92937.99
1492.727, 92989.00
1493.763, 93049.00
1494.799, 93049.83
1495.835, 92882.00
1496.871, 93191.00
1497.906, 93083.00
1498.941, 93280.00
1499.976, 93158.00
1501.011, 93129.00
1502.046, 93333.00
1503.081, 93522.00
1504.115, 93616.00
1505.149, 93569.00
1506.183, 93560.00
1507.217, 93487.00
1508.251, 93401.00
1509.285, 93769.00
1510.318, 93622.00
1511.352, 93685.00
1512.385, 94105.00
1513.418, 93930.00
1514.450, 93863.00
1515.483, 93727.00
1516.516, 93747.00
1517.548, 94017.00
1518.580, 93924.00
1519.612, 93835.00
1520.644, 94307.00
1521.675, 94451.00
1522.707, 93869.00
1523.738, 94337.00
1524.769, 94078.00
1525.800, 94154.00
1526.831, 94115.00
1527.862, 94481.00
1528.892, 94630.00
1529.923, 94576.00
1530.953, 94383.00
1531.983, 94758.00
1533.013, 94470.00
1534.042, 94578.00
1535.072, 94725.00
1536.101, 95005.00
1537.131, 94589.00
1538.160, 94788.00
1539.188, 94763.00
1540.217, 95070.00
1541.246, 95569.00
1542.274, 94944.00
1543.302, 94870.00
1544.330, 95273.00
1545.358, 95192.00
1546.386, 95330.00
1547.413, 95125.00
1548.441, 95732.00
1549.468, 95774.00
1550.495, 95609.00
1551.522, 95368.00
1552.549, 95621.00
1553.575, 95772.00
1554.602, 95914.00
1555.628, 96083.00
1556.654, 95791.00
1557.680, 95612.00
1558.706, 95524.00
1559.731, 95495.00
1560.757, 95978.00
1561.782, 95834.00
1562.807, 96127.00
1563.832, 95866.00
1564.857, 95938.00
1565.881, 95975.00
1566.906, 95889.00
1567.930, 96207.00
1568.954, 96114.00
1569.978, 96154.73
1571.002, 95880.00
1572.025, 96124.00
1573.049, 96099.00
1574.072, 96067.00
1575.095, 96492.00
1576.118, 96262.00
1577.141, 96135.00
1578.164, 95984.00
##END=



