##NAMES=Laumontite
##RRUFFID=R040020
##IDEAL CHEMISTRY=Ca(Si_4_Al_2_)O_12_&#183;4H_2_O
##LOCALITY=Pine Creek Tungsten mine, Bishop, Inyo County, California, USA
##OWNER=RRUFF
##SOURCE=University of Arizona Mineral Museum
##DESCRIPTION=Pale gray long prism coated with smaller crystals
##STATUS=The identification of this mineral has been confirmed by X-ray diffraction and chemical analysis
##URL=rruff.info/R040020
##MEASURED CHEMISTRY=(Ca_0.99_K_0.01_)_Σ=1_(Si_4.01_Al_1.99_)O_12_·4H_2_O; H_2_O estimated by difference
##PIN_ID=L00504
##ORIENTATION=Laser parallel to -c [0 0 -1]. Fiducial mark perpendicular to laser is parallel to b* (0 1 0)
107.820, 13150.000
109.207, 13420.000
110.594, 13690.000
111.981, 13830.000
113.367, 14110.000
114.754, 14220.000
116.140, 14450.000
117.525, 14710.000
118.911, 15030.000
120.297, 14690.000
121.682, 14540.000
123.067, 14600.000
124.451, 14570.000
125.836, 14280.000
127.220, 14560.000
128.604, 14310.000
129.988, 14470.000
131.372, 14380.000
132.756, 14630.000
134.139, 14520.000
135.522, 14810.000
136.905, 14860.000
138.287, 14900.000
139.670, 15070.000
141.052, 15170.000
142.434, 15230.000
143.816, 15450.000
145.197, 15450.000
146.579, 15590.000
147.960, 15510.000
149.341, 15540.000
150.722, 15430.000
152.102, 15410.000
153.482, 15210.000
154.863, 15100.000
156.242, 15220.000
157.622, 14930.000
159.002, 15000.000
160.381, 14860.000
161.760, 15000.000
163.139, 15020.000
164.517, 14920.000
165.896, 15210.000
167.274, 15200.000
168.652, 15070.000
170.030, 15180.000
171.407, 15330.000
172.784, 15310.000
174.162, 15370.000
175.539, 15400.000
176.915, 15420.000
178.292, 15360.000
179.668, 15160.000
181.044, 15140.000
182.420, 15100.000
183.796, 14990.000
185.171, 15120.000
186.546, 14780.000
187.921, 14900.000
189.296, 14770.000
190.671, 14880.000
192.045, 14920.000
193.419, 14600.000
194.793, 14870.000
196.167, 14700.000
197.540, 14900.000
198.914, 14740.000
200.287, 14740.000
201.660, 14930.000
203.032, 14960.000
204.405, 14860.000
205.777, 15000.000
207.149, 15130.000
208.521, 15120.000
209.893, 15130.000
211.264, 15260.000
212.635, 15410.000
214.006, 15470.000
215.377, 15610.000
216.748, 15930.000
218.118, 15870.000
219.488, 15910.000
220.858, 16120.000
222.228, 15890.000
223.598, 15920.000
224.967, 15570.000
226.336, 15690.000
227.705, 15530.000
229.074, 15440.000
230.442, 15430.000
231.811, 15440.000
233.179, 15400.000
234.546, 15445.231
235.914, 15360.000
237.282, 15470.000
238.649, 15350.000
240.016, 15240.000
241.383, 15360.000
242.749, 15320.000
244.116, 15350.000
245.482, 15530.000
246.848, 15470.000
248.214, 15490.000
249.579, 15610.000
250.945, 15600.000
252.310, 15640.000
253.675, 15690.000
255.039, 15550.000
256.404, 15650.000
257.768, 15490.000
259.132, 15560.000
260.496, 15450.000
261.860, 15350.000
263.223, 15250.000
264.587, 15050.000
265.950, 15070.000
267.313, 14900.000
268.675, 14940.000
270.038, 15150.000
271.400, 15410.000
272.762, 15510.000
274.124, 15590.000
275.485, 15940.000
276.847, 15940.000
278.208, 16330.000
279.569, 16360.000
280.930, 16530.000
282.290, 16910.000
283.651, 16870.000
285.011, 17010.000
286.371, 17020.000
287.730, 16970.000
289.090, 17270.000
290.449, 17250.000
291.808, 17320.000
293.167, 17500.000
294.526, 17730.000
295.884, 17670.000
297.243, 17990.000
298.601, 18100.000
299.959, 18160.000
301.316, 18310.000
302.674, 18400.000
304.031, 18690.000
305.388, 18860.000
306.745, 19070.000
308.102, 19490.000
309.458, 19910.000
310.814, 20300.000
312.170, 20750.000
313.526, 21330.000
314.882, 21560.000
316.237, 21600.000
317.592, 21570.000
318.947, 21210.000
320.302, 21240.000
321.656, 20620.000
323.011, 20620.000
324.365, 20460.000
325.719, 20590.000
327.073, 20970.000
328.426, 21240.000
329.779, 21790.000
331.133, 22040.000
332.486, 21960.000
333.838, 21710.000
335.191, 21060.000
336.543, 20700.000
337.895, 19980.000
339.247, 19550.000
340.599, 18980.000
341.950, 18770.000
343.301, 18550.000
344.652, 18530.000
346.003, 18290.000
347.354, 18250.000
348.704, 18030.000
350.055, 18260.000
351.405, 18110.000
352.755, 18070.000
354.104, 18110.000
355.454, 18080.000
356.803, 18110.000
358.152, 18120.000
359.501, 18210.000
360.849, 18040.000
362.198, 18170.000
363.546, 17990.000
364.894, 18280.000
366.242, 18170.000
367.589, 18200.000
368.936, 18390.000
370.284, 18180.000
371.631, 18450.000
372.977, 18450.000
374.324, 18400.000
375.670, 18660.000
377.016, 18610.000
378.362, 18810.000
379.708, 18750.000
381.054, 19270.000
382.399, 19400.000
383.744, 19570.000
385.089, 20080.000
386.434, 20100.000
387.778, 20110.000
389.122, 20110.000
390.467, 19870.000
391.810, 19730.000
393.154, 19555.566
394.498, 19270.000
395.841, 19190.000
397.184, 18980.000
398.527, 18910.000
399.869, 18910.000
401.212, 18740.000
402.554, 18770.000
403.896, 19010.000
405.238, 18960.000
406.580, 18950.000
407.921, 18960.000
409.262, 18938.799
410.604, 19030.000
411.944, 18930.000
413.285, 18990.000
414.625, 18980.076
415.966, 18860.000
417.306, 19080.000
418.646, 19070.000
419.985, 19170.000
421.325, 19400.000
422.664, 19180.000
424.003, 19350.000
425.342, 19120.000
426.680, 19430.000
428.019, 19330.000
429.357, 19350.000
430.695, 19370.000
432.033, 19440.000
433.370, 19370.000
434.708, 19471.834
436.045, 19450.000
437.382, 19620.000
438.719, 19590.000
440.055, 19670.000
441.392, 19650.000
442.728, 19700.000
444.064, 19620.000
445.399, 19590.000
446.735, 19641.074
448.070, 19810.000
449.406, 19720.000
450.741, 19940.000
452.075, 19980.000
453.410, 20010.000
454.744, 20030.000
456.078, 19990.000
457.412, 20080.000
458.746, 20330.000
460.080, 20440.000
461.413, 20460.000
462.746, 20590.000
464.079, 20550.000
465.412, 20800.000
466.744, 20620.000
468.077, 20740.000
469.409, 21270.000
470.741, 21480.000
472.073, 21310.000
473.404, 21500.000
474.735, 21400.000
476.067, 21710.000
477.397, 21420.000
478.728, 21290.000
480.059, 21520.000
481.389, 21330.000
482.719, 21720.000
484.049, 21510.000
485.379, 21740.000
486.708, 21800.000
488.038, 22080.000
489.367, 22360.000
490.696, 22940.000
492.025, 23800.000
493.353, 24130.000
494.681, 25250.000
496.009, 25920.000
497.337, 26570.000
498.665, 26350.000
499.993, 25520.000
501.320, 25220.000
502.647, 24700.000
503.974, 24340.000
505.301, 24120.000
506.627, 24110.635
507.954, 24580.000
509.280, 24610.000
510.606, 25120.000
511.931, 25870.000
513.257, 25810.000
514.582, 26870.000
515.907, 27410.000
517.232, 27640.000
518.557, 27880.000
519.882, 27950.000
521.206, 27950.000
522.530, 27090.000
523.854, 26790.000
525.178, 25830.000
526.501, 25340.000
527.825, 25010.000
529.148, 24110.000
530.471, 24110.000
531.793, 23660.000
533.116, 23250.000
534.438, 23320.000
535.760, 22810.000
537.082, 22880.000
538.404, 22660.000
539.726, 22670.000
541.047, 22770.000
542.368, 22450.000
543.689, 22570.000
545.010, 22490.000
546.330, 22490.000
547.651, 22310.000
548.971, 22430.000
550.291, 22470.000
551.610, 22270.000
552.930, 22350.000
554.249, 22340.000
555.568, 22390.000
556.887, 22410.000
558.206, 22350.000
559.525, 22490.000
560.843, 22330.000
562.161, 22430.000
563.479, 22439.854
564.797, 22360.000
566.115, 22510.000
567.432, 22570.000
568.749, 22640.000
570.066, 22580.000
571.383, 22660.000
572.699, 22610.000
574.016, 22700.000
575.332, 22620.000
576.648, 22870.000
577.964, 22800.000
579.279, 23050.000
580.595, 22870.000
581.910, 23140.000
583.225, 22990.000
584.540, 23260.000
585.854, 23330.000
587.169, 23420.000
588.483, 23560.000
589.797, 23550.000
591.111, 23800.000
592.424, 24030.000
593.738, 23850.000
595.051, 24260.000
596.364, 24310.000
597.677, 24390.000
598.990, 24330.000
600.302, 23990.000
601.614, 24320.000
602.926, 24250.000
604.238, 23830.000
605.550, 24010.000
606.861, 23850.000
608.172, 23910.000
609.484, 23910.000
610.794, 23620.000
612.105, 23820.000
613.416, 23690.000
614.726, 24000.000
616.036, 23750.000
617.346, 23690.000
618.655, 23950.000
619.965, 23770.000
621.274, 23720.000
622.583, 23980.000
623.892, 23810.000
625.201, 24000.000
626.509, 23960.000
627.818, 24180.000
629.126, 24110.000
630.434, 24070.000
631.741, 24210.000
633.049, 24140.000
634.356, 24110.000
635.663, 24190.000
636.970, 23970.000
638.277, 24330.000
639.584, 24250.000
640.890, 24320.000
642.196, 24110.000
643.502, 24390.000
644.808, 24440.000
646.114, 24300.000
647.419, 24410.000
648.724, 24450.000
650.029, 24550.000
651.334, 24630.000
652.638, 24470.000
653.943, 24760.000
655.247, 24750.000
656.551, 24710.000
657.855, 24860.000
659.158, 24710.000
660.462, 25110.000
661.765, 24910.000
663.068, 25030.000
664.371, 25190.000
665.674, 25000.000
666.976, 25160.000
668.278, 25080.000
669.580, 25510.000
670.882, 25550.000
672.184, 25450.000
673.485, 25940.000
674.787, 25850.000
676.088, 26250.000
677.389, 26090.000
678.689, 25850.000
679.990, 26120.000
681.290, 25720.000
682.590, 25920.000
683.890, 25990.000
685.190, 25600.000
686.490, 25900.000
687.789, 25480.000
689.088, 25660.000
690.387, 25720.000
691.686, 25410.000
692.984, 25860.000
694.283, 25370.000
695.581, 25730.000
696.879, 25790.000
698.177, 25750.000
699.474, 25710.000
700.772, 25690.000
702.069, 25900.000
703.366, 26010.000
704.663, 25760.000
705.959, 25990.000
707.256, 25910.000
708.552, 26110.000
709.848, 26230.000
711.144, 26100.000
712.440, 26610.000
713.735, 26370.000
715.030, 26260.000
716.326, 26600.000
717.620, 26580.000
718.915, 26700.000
720.210, 26520.000
721.504, 26660.000
722.798, 26550.000
724.092, 26480.000
725.386, 26830.000
726.679, 26430.000
727.973, 26670.000
729.266, 26680.000
730.559, 26290.000
731.852, 26620.000
733.144, 26320.000
734.437, 26900.000
735.729, 26560.000
737.021, 26610.000
738.313, 26740.000
739.604, 26720.000
740.896, 26680.000
742.187, 26760.000
743.478, 26810.000
744.769, 26850.000
746.059, 26970.000
747.350, 27100.000
748.640, 27220.000
749.930, 26940.000
751.220, 26980.000
752.510, 27080.000
753.799, 27190.000
755.089, 27241.803
756.378, 27309.230
757.667, 27360.000
758.955, 27370.000
760.244, 27380.000
761.532, 27350.000
762.820, 27310.000
764.108, 27300.000
765.396, 27344.084
766.684, 27340.000
767.971, 27530.000
769.258, 27670.000
770.545, 27900.000
771.832, 27991.824
773.119, 27670.000
774.405, 28130.000
775.692, 27680.000
776.978, 27560.000
778.264, 27840.000
779.549, 27760.000
780.835, 27930.000
782.120, 27830.000
783.405, 28040.000
784.690, 28100.000
785.975, 28140.000
787.259, 27780.000
788.544, 28040.000
789.828, 27970.000
791.112, 28030.000
792.396, 28180.000
793.679, 28130.000
794.963, 27960.000
796.246, 28290.000
797.529, 28150.000
798.812, 28090.000
800.094, 28270.000
801.377, 28140.000
802.659, 28290.000
803.941, 28480.000
805.223, 28250.000
806.505, 28410.000
807.786, 28390.000
809.067, 28300.000
810.348, 28500.000
811.629, 28560.000
812.910, 28670.000
814.191, 28630.000
815.471, 28750.000
816.751, 28930.000
818.031, 29090.000
819.311, 29084.469
820.591, 28990.000
821.870, 28980.000
823.149, 29030.000
824.428, 28830.000
825.707, 29230.000
826.986, 28800.000
828.264, 29250.000
829.542, 29390.000
830.820, 28980.000
832.098, 29090.000
833.376, 29140.000
834.654, 29050.000
835.931, 29270.000
837.208, 29230.000
838.485, 29120.000
839.762, 29170.000
841.038, 29420.000
842.315, 29690.000
843.591, 29540.000
844.867, 29230.000
846.143, 29700.000
847.418, 29500.000
848.694, 29810.000
849.969, 29360.000
851.244, 29690.000
852.519, 29810.000
853.794, 29450.000
855.068, 30050.000
856.342, 29600.000
857.617, 29870.000
858.890, 30240.000
860.164, 29890.000
861.438, 30270.000
862.711, 30140.000
863.984, 29790.000
865.257, 30080.000
866.530, 30020.000
867.803, 30120.000
869.075, 30380.000
870.347, 30160.000
871.619, 30430.000
872.891, 30290.000
874.163, 30250.000
875.434, 30050.000
876.706, 30114.146
877.977, 30330.000
879.248, 30260.000
880.518, 30490.000
881.789, 30670.000
883.059, 30330.000
884.330, 30510.000
885.600, 31070.000
886.869, 30640.000
888.139, 30930.000
889.408, 30870.000
890.678, 30800.000
891.947, 30930.000
893.215, 30720.000
894.484, 31040.000
895.753, 30840.000
897.021, 31240.000
898.289, 31170.000
899.557, 30820.000
900.825, 31330.000
902.092, 31270.000
903.360, 31070.000
904.627, 31230.000
905.894, 31190.000
907.161, 31470.000
908.427, 31400.000
909.694, 31270.000
910.960, 31720.000
912.226, 31290.000
913.492, 31710.000
914.757, 31800.000
916.023, 31360.000
917.288, 31940.000
918.553, 31600.000
919.818, 31660.000
921.083, 31800.000
922.348, 31680.000
923.612, 32040.000
924.876, 32180.000
926.140, 32000.000
927.404, 32240.000
928.668, 31750.000
929.931, 32630.000
931.194, 32350.000
932.457, 32350.000
933.720, 32860.000
934.983, 32260.000
936.246, 32410.000
937.508, 32210.000
938.770, 32510.000
940.032, 32510.000
941.294, 32600.000
942.555, 32640.000
943.817, 32650.000
945.078, 32690.000
946.339, 32740.000
947.600, 33090.000
948.861, 32700.000
950.121, 33250.000
951.381, 32850.000
952.641, 33190.000
953.901, 33320.000
955.161, 33000.000
956.421, 33240.000
957.680, 32820.000
958.939, 32950.000
960.198, 33220.000
961.457, 33010.000
962.716, 33190.000
963.974, 33320.000
965.232, 32920.000
966.490, 33290.000
967.748, 32960.000
969.006, 33280.000
970.263, 33070.000
971.521, 33310.000
972.778, 33560.000
974.035, 33150.000
975.292, 33690.000
976.548, 33330.000
977.805, 33000.000
979.061, 34110.000
980.317, 33300.000
981.573, 33430.000
982.828, 33760.000
984.084, 33250.000
985.339, 33750.000
986.594, 33490.000
987.849, 33680.000
989.104, 33850.000
990.359, 33670.000
991.613, 33900.000
992.867, 33710.000
994.121, 33890.000
995.375, 34190.000
996.629, 33890.000
997.882, 33830.000
999.135, 34170.000
1000.389, 33690.000
1001.641, 34320.000
1002.894, 33920.000
1004.147, 34430.000
1005.399, 34560.000
1006.651, 34450.000
1007.903, 34370.000
1009.155, 34434.500
1010.407, 34380.000
1011.658, 34530.000
1012.909, 34470.000
1014.160, 34640.000
1015.411, 34850.000
1016.662, 34660.000
1017.913, 34990.000
1019.163, 35050.000
1020.413, 34710.000
1021.663, 35170.000
1022.913, 34680.000
1024.163, 35050.000
1025.412, 35110.000
1026.661, 35110.000
1027.910, 34900.000
1029.159, 35290.000
1030.408, 34970.000
1031.656, 35030.000
1032.905, 35090.000
1034.153, 35052.363
1035.401, 34980.000
1036.649, 35150.000
1037.896, 35350.000
1039.144, 35290.000
1040.391, 35450.000
1041.638, 35480.000
1042.885, 35430.000
1044.131, 35400.000
1045.378, 35810.000
1046.624, 35160.000
1047.870, 36050.000
1049.116, 35510.000
1050.362, 35570.000
1051.608, 35990.000
1052.853, 35930.000
1054.098, 35920.000
1055.343, 35920.000
1056.588, 35760.000
1057.833, 36010.000
1059.078, 35980.000
1060.322, 36040.000
1061.566, 36420.000
1062.810, 35720.000
1064.054, 36490.000
1065.297, 36160.000
1066.541, 36560.000
1067.784, 36400.000
1069.027, 36480.000
1070.270, 36710.000
1071.513, 36870.000
1072.755, 36860.000
1073.997, 36900.000
1075.240, 37250.000
1076.481, 37550.000
1077.723, 37500.000
1078.965, 37270.000
1080.206, 37830.000
1081.448, 37750.000
1082.689, 37600.000
1083.929, 37910.000
1085.170, 37680.000
1086.411, 37710.000
1087.651, 37400.000
1088.891, 37280.000
1090.131, 37890.000
1091.371, 37410.000
1092.611, 37250.000
1093.850, 37590.000
1095.089, 37130.000
1096.328, 37730.000
1097.567, 37260.000
1098.806, 37530.000
1100.044, 37290.000
1101.283, 37640.000
1102.521, 37770.000
1103.759, 37170.000
1104.997, 37770.000
1106.234, 38130.000
1107.472, 37560.000
1108.709, 37660.000
1109.946, 38030.000
1111.183, 37890.000
1112.420, 37800.000
1113.656, 37790.000
1114.893, 37730.000
1116.129, 37780.000
1117.365, 37300.000
1118.601, 38020.000
1119.836, 37680.000
1121.072, 37430.000
1122.307, 37880.000
1123.542, 37640.000
1124.777, 37380.000
1126.012, 38000.000
1127.246, 37360.000
1128.481, 37560.000
1129.715, 37940.000
1130.949, 37600.000
1132.183, 37970.000
1133.416, 37460.000
1134.650, 37750.000
1135.883, 38110.000
1137.116, 37460.000
1138.349, 37630.000
1139.582, 38020.000
1140.815, 37880.000
1142.047, 38240.000
1143.279, 37920.000
1144.511, 37860.000
1145.743, 38070.000
1146.975, 38180.000
1148.206, 38110.000
1149.438, 37990.000
1150.669, 38290.000
1151.900, 38090.000
1153.131, 38030.000
1154.361, 38460.000
1155.592, 38580.000
1156.822, 38010.000
1158.052, 38410.000
1159.282, 38560.000
1160.512, 38230.000
1161.741, 38650.000
1162.971, 38320.000
1164.200, 38660.000
1165.429, 38450.000
1166.658, 38330.000
1167.886, 38520.000
1169.115, 38430.000
1170.343, 38560.000
1171.571, 38780.000
1172.799, 38390.000
1174.027, 38920.000
1175.254, 38840.000
1176.482, 38180.000
1177.709, 39100.000
1178.936, 39000.000
1180.163, 38780.000
1181.390, 39250.000
1182.616, 38960.000
1183.843, 39260.000
1185.069, 38960.000
1186.295, 38810.000
1187.521, 39620.000
1188.746, 39170.000
1189.972, 39010.000
1191.197, 39550.000
1192.422, 39220.000
1193.647, 39250.000
1194.872, 39390.000
##END=



