##NAMES=Laverovite
##RRUFFID=R060216
##IDEAL CHEMISTRY=K_2_NaMn^2+^_7_Zr^4+^_2_(Si_4_O_12_)_2_O_2_(OH)_4_F
##LOCALITY=Desourdy Quarry, Mont Saint-Hilaire, Rouville County, Quebec, Canada
##OWNER=RRUFF
##SOURCE=Royal Ontario Museum
##DESCRIPTION=Brown fragment showing lamellar habit. Type sample
##STATUS=The identification of this mineral has been confirmed by X-ray diffraction and chemical analysis
##URL=rruff.info/R060216
##MEASURED CHEMISTRY=(K_1.74_Na_0.18_[box]_0.08_)_Σ=2_(Na_0.92_Ca_0.08_)_Σ=1_(Mn_4.09_Fe^2+^_2.67_Mg_0.24_)_Σ=7_(Zr_1.42_Ti_0.58_)_Σ=2_(Si_7.86_Al_0.14_)_Σ=8_O_26_((OH)_3.14_O_0.86_)_Σ=4_
##PIN_ID=M00393
##ORIENTATION=Laser parallel to a* (1 0 0). Fiducial mark perpendicular to laser is parallel to b [0 1 0]
121.8270, 26047.00
123.0580, 25806.00
124.2880, 26212.00
125.5190, 26078.00
126.7490, 26329.00
127.9790, 26407.00
129.2090, 26576.00
130.4390, 26431.00
131.6680, 26637.00
132.8980, 27077.00
134.1270, 27125.00
135.3560, 27554.00
136.5850, 27641.00
137.8140, 28041.00
139.0430, 27752.00
140.2710, 27231.00
141.5000, 27084.00
142.7280, 26971.00
143.9560, 26817.00
145.1840, 26676.00
146.4120, 26321.00
147.6390, 26478.00
148.8670, 27021.00
150.0940, 26947.00
151.3210, 26886.00
152.5490, 26800.00
153.7750, 26812.00
155.0020, 26682.00
156.2290, 26696.00
157.4550, 26743.00
158.6810, 27129.00
159.9080, 27346.00
161.1340, 27869.00
162.3590, 28023.73
163.5850, 28626.00
164.8110, 28408.00
166.0360, 28726.00
167.2610, 28878.00
168.4860, 29475.00
169.7110, 29285.00
170.9360, 29297.00
172.1610, 29183.00
173.3850, 28998.00
174.6100, 29081.00
175.8340, 28920.00
177.0580, 28847.00
178.2820, 28669.00
179.5050, 28477.00
180.7290, 28461.00
181.9520, 28231.00
183.1760, 28114.00
184.3990, 28402.00
185.6220, 28308.00
186.8450, 28038.00
188.0670, 28364.00
189.2900, 28502.00
190.5120, 28760.00
191.7340, 28723.00
192.9560, 28828.00
194.1780, 28749.00
195.4000, 28563.00
196.6220, 28841.00
197.8430, 29154.00
199.0640, 29174.00
200.2860, 29655.00
201.5070, 29024.00
202.7270, 28637.00
203.9480, 28033.00
205.1690, 28018.00
206.3890, 27947.00
207.6090, 27985.00
208.8290, 28004.00
210.0490, 28087.46
211.2690, 28217.00
212.4890, 28325.00
213.7080, 28339.00
214.9280, 28450.00
216.1470, 28416.00
217.3660, 28488.00
218.5850, 28515.62
219.8030, 28495.21
221.0220, 28565.00
222.2400, 28469.00
223.4590, 28476.37
224.6770, 28465.29
225.8950, 28479.00
227.1120, 28585.00
228.3300, 28612.00
229.5480, 28759.00
230.7650, 28554.00
231.9820, 28701.00
233.1990, 28508.00
234.4160, 28803.00
235.6330, 28765.00
236.8490, 28813.00
238.0660, 28733.00
239.2820, 28723.00
240.4980, 28617.00
241.7140, 28590.00
242.9300, 28580.00
244.1460, 28399.00
245.3610, 28457.48
246.5770, 28534.00
247.7920, 28352.62
249.0070, 28542.87
250.2220, 28657.18
251.4370, 28699.65
252.6510, 28455.07
253.8660, 28581.15
255.0800, 28558.68
256.2940, 28530.11
257.5080, 28708.35
258.7220, 28505.52
259.9360, 28680.47
261.1490, 28704.60
262.3630, 28797.77
263.5760, 28741.47
264.7890, 28731.33
266.0020, 28870.70
267.2150, 28927.28
268.4270, 29001.00
269.6400, 28831.00
270.8520, 29135.00
272.0640, 29028.00
273.2760, 29059.00
274.4880, 29272.00
275.7000, 29270.00
276.9120, 29136.00
278.1230, 29331.00
279.3340, 29173.00
280.5450, 28980.00
281.7560, 29366.00
282.9670, 29354.00
284.1780, 29311.00
285.3880, 29374.00
286.5980, 29637.00
287.8090, 29612.00
289.0190, 29647.00
290.2290, 29738.09
291.4380, 29476.00
292.6480, 29790.00
293.8570, 29679.00
295.0670, 29667.00
296.2760, 29806.00
297.4850, 29806.00
298.6930, 29658.00
299.9020, 30061.00
301.1110, 29749.00
302.3190, 30035.00
303.5270, 29937.00
304.7350, 30207.00
305.9430, 30189.00
307.1510, 30112.00
308.3580, 29992.00
309.5660, 30165.00
310.7730, 30202.00
311.9800, 30141.00
313.1870, 30253.00
314.3940, 30375.00
315.6010, 30069.00
316.8070, 30068.00
318.0130, 30024.00
319.2200, 30379.00
320.4260, 30104.00
321.6310, 30201.00
322.8370, 30279.00
324.0430, 30259.00
325.2480, 30212.00
326.4540, 30430.00
327.6590, 30235.00
328.8640, 30218.00
330.0680, 30570.00
331.2730, 30081.00
332.4780, 30423.00
333.6820, 30525.00
334.8860, 30489.00
336.0900, 30444.00
337.2940, 30600.00
338.4980, 30514.00
339.7010, 30631.00
340.9050, 30508.00
342.1080, 30710.00
343.3110, 30611.00
344.5140, 30823.00
345.7170, 30802.00
346.9200, 30769.00
348.1220, 30747.00
349.3240, 30828.00
350.5270, 30809.00
351.7290, 30971.00
352.9310, 30847.00
354.1320, 31008.00
355.3340, 31010.00
356.5350, 30972.00
357.7370, 31259.00
358.9380, 31211.00
360.1390, 31067.00
361.3400, 31298.00
362.5400, 31345.00
363.7410, 31325.00
364.9410, 31420.00
366.1410, 31562.00
367.3410, 31644.00
368.5410, 31685.00
369.7410, 31677.00
370.9400, 31555.00
372.1400, 31840.00
373.3390, 31587.00
374.5380, 31729.00
375.7370, 31598.00
376.9360, 31693.00
378.1350, 31586.00
379.3330, 31474.00
380.5310, 31421.00
381.7300, 31617.00
382.9280, 31450.00
384.1260, 31604.00
385.3230, 31558.00
386.5210, 31575.00
387.7180, 31405.00
388.9160, 31477.05
390.1130, 31863.00
391.3100, 31598.00
392.5060, 31588.00
393.7030, 31772.00
394.9000, 31625.39
396.0960, 31769.00
397.2920, 31739.00
398.4880, 31406.00
399.6840, 31709.00
400.8800, 31519.00
402.0750, 31534.00
403.2710, 31538.00
404.4660, 31664.00
405.6610, 31518.00
406.8560, 31498.00
408.0510, 31529.00
409.2450, 31438.09
410.4400, 31361.00
411.6340, 31418.00
412.8280, 31261.00
414.0220, 31365.00
415.2160, 31227.00
416.4100, 31469.00
417.6030, 31496.00
418.7970, 31221.00
419.9900, 31448.00
421.1830, 31560.00
422.3760, 31490.00
423.5690, 31232.00
424.7610, 31557.00
425.9540, 31477.00
427.1460, 31568.04
428.3380, 31754.27
429.5300, 31864.57
430.7220, 31903.03
431.9140, 31654.45
433.1050, 31776.51
434.2970, 31750.04
435.4880, 31717.47
436.6790, 31891.70
437.8700, 31684.86
439.0610, 31855.81
440.2510, 31875.94
441.4420, 31965.10
442.6320, 31904.79
443.8220, 31890.65
445.0120, 32026.01
446.2020, 32078.59
447.3910, 32001.07
448.5810, 32094.61
449.7700, 31882.53
450.9600, 31938.63
452.1490, 32110.43
453.3370, 32040.41
454.5260, 32136.67
455.7150, 32169.61
456.9030, 31704.00
458.0910, 31832.00
459.2800, 31852.00
460.4670, 32001.00
461.6550, 31917.00
462.8430, 32070.00
464.0300, 32030.00
465.2180, 32265.00
466.4050, 32073.00
467.5920, 32241.00
468.7790, 32215.00
469.9650, 32500.00
471.1520, 32486.00
472.3380, 32532.00
473.5250, 32364.00
474.7110, 32187.00
475.8970, 32607.00
477.0820, 32658.00
478.2680, 32568.00
479.4540, 32582.00
480.6390, 32700.00
481.8240, 32448.00
483.0090, 32607.00
484.1940, 32731.00
485.3780, 32570.00
486.5630, 32776.00
487.7470, 32526.00
488.9320, 32758.00
490.1160, 32818.00
491.3000, 32889.00
492.4830, 32803.00
493.6670, 32887.00
494.8500, 32780.00
496.0340, 32848.00
497.2170, 33072.00
498.4000, 32991.00
499.5820, 33079.00
500.7650, 33005.00
501.9480, 32996.00
503.1300, 33030.00
504.3120, 33231.00
505.4940, 33370.00
506.6760, 32945.00
507.8580, 33331.00
509.0390, 33377.00
510.2210, 33178.00
511.4020, 33365.00
512.5830, 33236.00
513.7640, 33441.00
514.9450, 33030.00
516.1250, 33375.00
517.3060, 33290.00
518.4860, 33470.00
519.6660, 33351.00
520.8460, 33680.00
522.0260, 33519.00
523.2060, 33720.00
524.3850, 33481.00
525.5650, 33616.00
526.7440, 33669.00
527.9230, 33633.00
529.1020, 33803.00
530.2810, 33829.00
531.4590, 33667.00
532.6380, 33800.00
533.8160, 33919.00
534.9940, 33811.00
536.1720, 33976.00
537.3500, 34122.00
538.5270, 34083.00
539.7050, 34170.00
540.8820, 34399.00
542.0590, 34235.00
543.2360, 34373.00
544.4130, 34508.00
545.5900, 34291.00
546.7660, 34717.00
547.9430, 34690.00
549.1190, 34922.00
550.2950, 34945.00
551.4710, 35148.00
552.6470, 35092.00
553.8220, 35418.00
554.9980, 35150.00
556.1730, 35101.00
557.3480, 35417.00
558.5230, 35544.00
559.6980, 35096.00
560.8730, 35372.00
562.0470, 35430.00
563.2220, 35357.00
564.3960, 35466.00
565.5700, 35183.00
566.7440, 35357.00
567.9170, 35402.00
569.0910, 35494.00
570.2640, 35209.00
571.4380, 35388.00
572.6110, 35608.00
573.7840, 35270.00
574.9570, 35572.00
576.1290, 35270.00
577.3020, 35448.00
578.4740, 35382.00
579.6460, 35437.00
580.8180, 35491.00
581.9900, 35600.00
583.1620, 35521.00
584.3330, 35582.00
585.5040, 35629.00
586.6760, 35629.00
587.8470, 35780.00
589.0180, 36156.00
590.1880, 36699.00
591.3590, 36146.00
592.5290, 35906.00
593.7000, 36240.00
594.8700, 36210.00
596.0400, 36395.00
597.2090, 36344.00
598.3790, 36347.00
599.5490, 36238.00
600.7180, 36528.00
601.8870, 36608.00
603.0560, 36687.00
604.2250, 36523.00
605.3940, 36784.00
606.5620, 36687.00
607.7300, 36719.00
608.8990, 37093.00
610.0670, 36888.00
611.2350, 37012.00
612.4020, 37226.00
613.5700, 37006.00
614.7370, 37018.00
615.9050, 37187.00
617.0720, 36927.00
618.2390, 37331.00
619.4060, 37403.00
620.5720, 37474.00
621.7390, 37665.00
622.9050, 37718.00
624.0710, 37635.00
625.2370, 37858.00
626.4030, 37738.00
627.5690, 38139.00
628.7340, 37952.00
629.9000, 38066.00
631.0650, 38037.00
632.2300, 37999.00
633.3950, 38240.00
634.5600, 38482.00
635.7240, 38784.00
636.8890, 38948.00
638.0530, 39053.00
639.2170, 39278.00
640.3810, 39269.00
641.5450, 39477.00
642.7080, 39426.00
643.8720, 39730.00
645.0350, 40340.00
646.1980, 40616.00
647.3610, 40586.00
648.5240, 41027.00
649.6870, 41242.00
650.8490, 41577.00
652.0120, 41553.00
653.1740, 41837.00
654.3360, 41529.00
655.4980, 41705.00
656.6600, 41519.00
657.8210, 41281.00
658.9830, 41003.00
660.1440, 40810.00
661.3050, 40606.00
662.4660, 40459.39
663.6270, 40383.00
664.7870, 40252.00
665.9480, 40278.00
667.1080, 40241.00
668.2680, 39814.00
669.4280, 40000.00
670.5880, 40340.00
671.7480, 40026.00
672.9070, 40448.00
674.0670, 40347.00
675.2260, 40237.00
676.3850, 40391.00
677.5440, 40421.00
678.7030, 40465.00
679.8610, 40668.00
681.0200, 40937.00
682.1780, 41081.00
683.3360, 41066.00
684.4940, 41219.00
685.6520, 41149.00
686.8090, 41467.00
687.9670, 41667.00
689.1240, 41578.00
690.2810, 41643.00
691.4380, 41614.00
692.5950, 41826.00
693.7520, 42025.00
694.9080, 41854.00
696.0650, 42007.00
697.2210, 42046.00
698.3770, 42298.00
699.5330, 42065.00
700.6880, 42307.00
701.8440, 42478.00
702.9990, 42294.00
704.1550, 42617.00
705.3100, 42112.00
706.4650, 42696.00
707.6190, 42743.00
708.7740, 42639.00
709.9290, 42928.00
711.0830, 42619.00
712.2370, 43009.00
713.3910, 42703.00
714.5450, 42687.00
715.6980, 42784.00
716.8520, 42813.00
718.0050, 42785.00
719.1580, 42738.00
720.3110, 42736.13
721.4640, 42675.59
722.6170, 42687.00
723.7700, 42621.00
724.9220, 42593.00
726.0740, 42673.00
727.2260, 42481.00
728.3780, 42398.00
729.5300, 42234.00
730.6810, 42341.00
731.8330, 42026.00
732.9840, 42230.00
734.1350, 42078.00
735.2860, 42105.00
736.4370, 41928.00
737.5880, 41881.84
738.7380, 41990.00
739.8880, 41796.00
741.0390, 41780.00
742.1890, 41863.00
743.3380, 41781.00
744.4880, 41787.00
745.6380, 41861.00
746.7870, 41894.00
747.9360, 41763.00
749.0850, 41687.00
750.2340, 42066.00
751.3830, 41582.00
752.5310, 41829.00
753.6800, 41909.00
754.8280, 41775.00
755.9760, 41936.50
757.1240, 41779.00
758.2720, 42022.00
759.4190, 41816.00
760.5670, 41863.00
761.7140, 41745.00
762.8610, 42055.00
764.0080, 41946.00
765.1550, 41973.00
766.3020, 42034.00
767.4480, 41943.00
768.5950, 42109.00
769.7410, 41822.00
770.8870, 41919.00
772.0330, 41811.00
773.1780, 41999.00
774.3240, 41915.00
775.4690, 41764.00
776.6140, 41731.00
777.7590, 41718.00
778.9040, 41550.00
780.0490, 41790.00
781.1940, 42109.00
782.3380, 41813.00
783.4820, 41638.00
784.6260, 41383.00
785.7700, 41577.00
786.9140, 41583.00
788.0580, 41594.00
789.2010, 41638.00
790.3450, 41552.00
791.4880, 41533.00
792.6310, 41369.00
793.7730, 41359.00
794.9160, 41413.00
796.0590, 41215.00
797.2010, 41086.00
798.3430, 41029.63
799.4850, 41219.00
800.6270, 40902.00
801.7690, 40878.00
802.9100, 40962.00
804.0520, 40793.00
805.1930, 40936.00
806.3340, 40986.00
807.4750, 41044.00
808.6160, 41104.00
809.7560, 40727.00
810.8970, 40998.00
812.0370, 40799.00
813.1770, 40542.00
814.3170, 40921.00
815.4570, 40933.00
816.5960, 40822.00
817.7360, 40690.00
818.8750, 40902.00
820.0140, 40979.00
821.1530, 40867.00
822.2920, 41043.00
823.4310, 41018.00
824.5690, 41070.00
825.7070, 40885.00
826.8460, 40980.00
827.9840, 40847.00
829.1220, 41052.00
830.2590, 41080.00
831.3970, 41138.00
832.5340, 41031.00
833.6710, 41044.00
834.8080, 41241.00
835.9450, 41070.00
837.0820, 41113.00
838.2190, 41065.00
839.3550, 41052.00
840.4910, 41110.93
841.6270, 41290.00
842.7630, 41078.00
843.8990, 41417.00
845.0350, 41118.00
846.1700, 41420.00
847.3060, 41344.00
848.4410, 41375.00
849.5760, 41548.00
850.7100, 41438.00
851.8450, 41534.00
852.9800, 41482.00
854.1140, 41667.00
855.2480, 41736.00
856.3820, 41651.00
857.5160, 41634.00
858.6500, 41729.43
859.7830, 41756.02
860.9170, 41959.00
862.0500, 41946.00
863.1830, 42149.00
864.3160, 42247.00
865.4480, 42302.48
866.5810, 42264.21
867.7130, 42459.00
868.8460, 42176.00
869.9780, 42260.00
871.1100, 42498.00
872.2410, 42472.00
873.3730, 42703.00
874.5050, 42551.00
875.6360, 42515.00
876.7670, 42809.00
877.8980, 42564.00
879.0290, 42636.00
880.1590, 42600.00
881.2900, 42906.00
882.4200, 42763.00
883.5500, 42878.00
884.6800, 42808.00
885.8100, 42995.00
886.9400, 42886.00
888.0690, 43230.00
889.1990, 43130.00
890.3280, 43307.00
891.4570, 43177.00
892.5860, 43351.00
893.7140, 43502.00
894.8430, 43462.38
895.9710, 43470.00
897.1000, 43461.00
898.2280, 43556.00
899.3560, 43446.00
900.4830, 43776.00
901.6110, 43603.00
902.7380, 44027.00
903.8660, 43684.00
904.9930, 44092.00
906.1200, 44075.00
907.2460, 43960.00
908.3730, 44055.00
909.5000, 44139.00
910.6260, 44152.00
911.7520, 44021.00
912.8780, 44268.00
914.0040, 44114.00
915.1290, 44281.00
916.2550, 44515.00
917.3800, 44578.00
918.5050, 44377.00
919.6300, 44597.00
920.7550, 44536.00
921.8800, 44732.00
923.0040, 44733.00
924.1290, 44573.00
925.2530, 44788.00
926.3770, 44806.00
927.5010, 45013.00
928.6250, 45061.00
929.7480, 45218.00
930.8720, 45031.00
931.9950, 45023.00
933.1180, 44803.00
934.2410, 44910.00
935.3640, 45319.00
936.4860, 44924.00
937.6090, 45128.00
938.7310, 45358.00
939.8530, 45300.00
940.9750, 45638.00
942.0970, 45522.00
943.2180, 45565.00
944.3400, 45743.00
945.4610, 45732.00
946.5820, 45750.00
947.7030, 45608.00
948.8240, 45636.00
949.9450, 46025.00
951.0650, 46433.00
952.1860, 45944.00
953.3060, 45829.00
954.4260, 45876.00
955.5460, 45626.00
956.6650, 45706.00
957.7850, 45834.00
958.9040, 45533.00
960.0230, 45702.00
961.1420, 45623.00
962.2610, 45554.00
963.3800, 45667.00
964.4990, 45655.00
965.6170, 45478.00
966.7350, 45576.00
967.8530, 45903.00
968.9710, 45473.00
970.0890, 45732.00
971.2070, 45798.00
972.3240, 45571.00
973.4410, 45923.00
974.5580, 45984.00
975.6750, 45839.00
976.7920, 46034.00
977.9090, 46232.00
979.0250, 46194.00
980.1410, 46295.00
981.2580, 46247.00
982.3740, 46197.00
983.4890, 46184.00
984.6050, 46486.00
985.7200, 46689.00
986.8360, 46669.00
987.9510, 46744.00
989.0660, 46720.00
990.1810, 46677.00
991.2950, 46765.00
992.4100, 47099.00
993.5240, 47097.00
994.6390, 47209.00
995.7530, 47434.00
996.8660, 47328.00
997.9800, 47769.00
999.0940, 47797.00
1000.207, 48215.00
1001.320, 48013.00
1002.433, 48572.00
1003.546, 48781.00
1004.659, 48846.00
1005.772, 49118.00
1006.884, 49230.00
1007.996, 49372.00
1009.108, 49660.00
1010.220, 50170.00
1011.332, 50319.00
1012.444, 50514.00
1013.555, 51271.00
1014.666, 51374.00
1015.777, 51319.00
1016.888, 51939.00
1017.999, 52495.00
1019.110, 52632.00
1020.220, 53177.00
1021.331, 53832.00
1022.441, 53842.00
1023.551, 54412.00
1024.661, 54328.00
1025.770, 54593.00
1026.880, 55246.00
1027.989, 55506.00
1029.098, 54985.00
1030.207, 55296.00
1031.316, 55217.00
1032.425, 55156.00
1033.533, 54939.00
1034.642, 54758.99
1035.750, 54339.00
1036.858, 54173.00
1037.966, 53866.00
1039.073, 53370.00
1040.181, 52775.00
1041.288, 52430.00
1042.396, 51992.80
1043.503, 52119.00
1044.610, 51316.00
1045.716, 51246.00
1046.823, 51014.52
1047.929, 50610.25
1049.036, 50990.00
1050.142, 50192.00
1051.248, 50365.00
1052.353, 50419.00
1053.459, 49916.00
1054.564, 49921.00
1055.670, 50217.00
1056.775, 49544.00
1057.880, 49798.00
1058.985, 49667.00
1060.089, 49702.00
1061.194, 49440.00
1062.298, 49613.00
1063.402, 49961.00
1064.506, 50302.00
1065.610, 49668.00
1066.713, 49519.00
1067.817, 49678.00
1068.920, 49524.00
1070.023, 49327.00
1071.126, 49485.00
1072.229, 49386.47
1073.332, 49733.00
1074.435, 49420.00
1075.537, 49548.00
1076.639, 49512.00
1077.741, 49308.00
1078.843, 49618.00
1079.945, 49641.00
1081.046, 49297.00
1082.148, 49324.00
1083.249, 49397.00
1084.350, 49298.00
1085.451, 49521.00
1086.551, 49246.00
1087.652, 49538.00
1088.752, 49344.00
1089.853, 49473.00
1090.953, 49605.00
1092.053, 49761.00
1093.152, 49322.00
1094.252, 49161.00
1095.351, 49521.00
1096.451, 49107.00
1097.550, 49346.00
1098.649, 49283.00
1099.748, 49337.00
1100.846, 49298.00
1101.945, 49378.00
1103.043, 49518.00
1104.141, 49300.00
1105.239, 48849.00
1106.337, 49313.00
1107.434, 49506.00
1108.532, 49069.00
1109.629, 49441.00
1110.726, 49151.00
1111.823, 49327.00
1112.920, 49099.00
1114.017, 49338.00
1115.113, 49319.00
1116.210, 49147.00
1117.306, 49161.00
1118.402, 49416.00
1119.498, 49358.00
1120.593, 49442.00
1121.689, 49630.00
1122.784, 49622.00
1123.879, 49456.00
1124.974, 49572.91
1126.069, 49733.33
1127.164, 49817.82
1128.259, 49830.47
1129.353, 49556.10
1130.447, 49652.36
1131.541, 49600.10
1132.635, 49541.74
1133.729, 49690.18
1134.822, 49457.56
1135.916, 49602.72
1137.009, 49597.08
1138.102, 49660.46
1139.195, 49574.39
1140.288, 49534.49
1141.380, 49644.09
1142.473, 49872.00
1143.565, 50165.00
1144.657, 50111.00
1145.749, 50050.00
1146.841, 49955.00
1147.932, 49906.00
1149.024, 49861.66
1150.115, 49909.00
1151.206, 49827.00
1152.297, 49837.00
1153.388, 49887.00
1154.479, 49871.75
1155.569, 49900.00
1156.659, 49989.00
1157.750, 50172.00
1158.839, 50379.00
1159.929, 50064.00
1161.019, 50273.00
1162.108, 50359.00
1163.198, 50503.00
1164.287, 50263.00
1165.376, 50144.00
1166.465, 50307.00
1167.553, 50395.00
1168.642, 50434.00
1169.730, 50602.00
1170.818, 50845.00
1171.906, 50449.00
1172.994, 50405.00
1174.082, 50733.00
1175.170, 50356.00
1176.257, 50453.00
1177.344, 50485.00
1178.431, 50698.00
1179.518, 50878.00
1180.605, 50686.00
1181.691, 50531.00
1182.778, 51043.00
1183.864, 50898.00
1184.950, 50652.00
1186.036, 50961.00
1187.122, 50976.00
1188.207, 51115.00
1189.292, 51167.00
1190.378, 51256.42
1191.463, 51314.12
1192.548, 51402.00
1193.632, 51267.00
1194.717, 51237.00
1195.801, 50921.00
1196.886, 51057.00
1197.970, 50928.00
1199.054, 51409.00
1200.137, 51049.00
1201.221, 51305.00
1202.305, 51792.00
1203.388, 51108.00
1204.471, 51596.00
1205.554, 51433.00
1206.637, 51411.00
1207.719, 51530.00
1208.802, 51789.00
1209.884, 51650.00
1210.966, 51657.00
1212.048, 51578.00
1213.130, 51699.00
1214.212, 51694.00
1215.293, 51694.00
1216.374, 52051.00
1217.456, 51938.00
1218.536, 52176.00
1219.617, 52071.00
1220.698, 51844.00
1221.778, 52058.00
1222.859, 52134.00
1223.939, 51898.00
1225.019, 52202.00
1226.099, 52142.00
1227.178, 52168.00
1228.258, 52493.00
1229.337, 52532.00
1230.417, 52348.00
1231.496, 52516.00
1232.574, 52519.00
1233.653, 52442.00
1234.732, 52566.00
1235.810, 52642.00
1236.888, 52229.00
1237.966, 52902.00
1239.044, 52402.00
1240.122, 52651.00
1241.199, 52689.00
1242.277, 52740.00
1243.354, 52994.00
1244.431, 53043.00
1245.508, 52674.00
1246.585, 52748.00
1247.661, 52975.00
1248.738, 53211.00
1249.814, 52924.00
1250.890, 53081.00
1251.966, 52974.00
1253.042, 52719.00
1254.117, 52747.00
1255.193, 53092.00
1256.268, 53159.00
1257.343, 53340.00
1258.418, 53289.00
1259.493, 53343.98
1260.567, 53194.00
1261.642, 53340.00
1262.716, 53211.00
1263.790, 53228.03
1264.864, 53191.00
1265.938, 53368.00
1267.011, 53422.00
1268.085, 53482.00
1269.158, 53369.00
1270.231, 53308.00
1271.304, 53355.00
1272.377, 53508.00
1273.450, 53660.00
1274.522, 53713.00
1275.594, 53752.00
1276.666, 53848.79
1277.738, 53710.00
1278.810, 53821.71
1279.882, 54028.66
1280.953, 54159.64
1282.025, 54218.81
1283.096, 53990.92
1284.167, 54133.67
1285.238, 54127.88
1286.308, 54115.97
1287.379, 54310.89
1288.449, 54124.71
1289.519, 54316.32
1290.589, 54357.12
1291.659, 54466.95
1292.729, 54427.31
1293.798, 54433.80
1294.868, 54589.84
1295.937, 54663.06
1297.006, 54606.19
1298.075, 54720.36
1299.143, 54528.91
1300.212, 54605.65
1301.280, 54798.07
1302.348, 54748.68
1303.416, 54865.56
1304.484, 54919.12
1305.552, 54684.90
1306.620, 54951.15
1307.687, 55000.93
1308.754, 54828.48
1309.821, 55077.56
1310.888, 54935.74
1311.955, 54933.45
1313.021, 55036.13
1314.088, 55029.38
1315.154, 55195.17
1316.220, 55194.71
1317.286, 55179.40
1318.352, 55228.91
1319.417, 55094.70
1320.483, 55301.30
1321.548, 55275.08
1322.613, 55364.58
1323.678, 55480.30
1324.743, 55395.21
1325.807, 55522.69
1326.872, 55320.49
1327.936, 55394.15
1329.000, 55438.09
1330.064, 55241.00
1331.128, 55351.00
1332.191, 55528.00
1333.255, 54942.00
1334.318, 55568.00
1335.381, 55526.00
1336.444, 55241.00
1337.507, 55354.00
1338.569, 55772.00
1339.632, 55406.00
1340.694, 55716.00
1341.756, 55632.00
1342.818, 55552.00
1343.880, 55568.00
1344.941, 55523.00
1346.003, 55718.00
1347.064, 55836.00
1348.125, 55736.00
1349.186, 55952.00
1350.247, 56015.00
1351.308, 55844.00
1352.368, 55950.00
1353.428, 55951.00
1354.489, 56124.00
1355.549, 56345.00
1356.608, 56149.00
1357.668, 56078.00
1358.727, 56349.00
1359.787, 56352.00
1360.846, 55988.00
1361.905, 56150.00
1362.964, 56461.00
1364.022, 56030.00
1365.081, 56291.00
1366.139, 56195.00
1367.197, 56236.00
1368.255, 56430.00
1369.313, 56414.00
1370.371, 56487.00
1371.428, 56650.00
1372.486, 56166.00
1373.543, 56470.00
1374.600, 56278.00
1375.657, 56739.00
1376.713, 56625.00
1377.770, 56761.00
1378.826, 56447.00
1379.882, 56585.00
1380.938, 56493.00
1381.994, 56563.00
1383.050, 56879.00
1384.106, 56609.00
1385.161, 57001.00
1386.216, 56883.00
1387.271, 56746.00
1388.326, 56955.00
1389.381, 56832.00
1390.435, 56593.00
1391.490, 56735.00
1392.544, 57197.00
1393.598, 56804.00
1394.652, 56932.00
1395.705, 56717.00
1396.759, 57003.00
1397.812, 57089.00
1398.866, 56957.00
1399.919, 56892.00
1400.972, 56878.00
1402.024, 57211.00
1403.077, 56968.00
1404.129, 57101.00
1405.181, 57250.00
1406.233, 57209.00
1407.285, 57207.00
1408.337, 57183.00
1409.389, 57223.00
1410.440, 57247.00
1411.491, 57469.00
1412.542, 57391.00
1413.593, 57172.00
1414.644, 57579.00
1415.695, 57335.00
1416.745, 57401.00
1417.795, 57602.00
1418.845, 57748.00
1419.895, 57455.00
1420.945, 57292.00
1421.995, 57726.00
1423.044, 57252.00
1424.093, 57544.00
1425.142, 57201.00
1426.191, 57400.00
1427.240, 57472.39
1428.289, 57604.00
1429.337, 57669.00
1430.385, 57733.65
1431.433, 57602.00
1432.481, 57830.00
1433.529, 57943.00
1434.577, 57983.00
1435.624, 57788.00
1436.672, 57804.00
1437.719, 57912.00
1438.766, 58381.00
1439.812, 58077.00
1440.859, 58133.00
1441.905, 58241.00
1442.952, 57990.00
1443.998, 58312.00
1445.044, 58133.00
1446.090, 58152.00
1447.135, 58343.00
1448.181, 58029.00
1449.226, 58321.00
1450.271, 58482.00
1451.316, 58348.00
1452.361, 58429.00
1453.405, 58487.00
1454.450, 58532.00
1455.494, 58578.00
1456.538, 58731.00
1457.582, 58902.00
1458.626, 58445.00
1459.670, 58400.00
1460.713, 58736.00
1461.757, 58390.00
1462.800, 58854.00
1463.843, 58602.00
1464.886, 58600.00
1465.928, 59049.00
1466.971, 59228.00
1468.013, 59163.00
1469.055, 58768.00
1470.097, 58983.00
1471.139, 59114.00
1472.181, 58926.00
1473.222, 59002.00
1474.263, 59185.00
1475.305, 59146.00
1476.346, 59441.00
1477.386, 59375.00
1478.427, 59481.00
1479.468, 59397.00
1480.508, 59270.00
1481.548, 59455.00
1482.588, 59452.00
1483.628, 59730.00
1484.668, 59675.00
1485.707, 59490.00
1486.747, 59788.00
1487.786, 59628.00
1488.825, 59760.00
1489.864, 59845.00
1490.902, 59621.00
1491.941, 59903.00
1492.979, 59673.00
1494.017, 59905.00
1495.055, 59716.00
1496.093, 60122.00
1497.131, 59886.00
1498.168, 60042.00
1499.206, 59788.00
1500.243, 59999.00
1501.280, 60328.00
1502.317, 60071.00
1503.354, 60455.00
1504.390, 60195.00
1505.426, 60045.00
1506.463, 60270.00
1507.499, 60316.00
1508.535, 60517.00
1509.570, 60140.00
1510.606, 60486.00
1511.641, 60327.00
1512.676, 60251.00
1513.711, 60611.00
1514.746, 60617.00
1515.781, 60573.00
1516.816, 61086.00
1517.850, 60931.00
1518.884, 60501.00
1519.918, 60482.00
1520.952, 60564.00
1521.986, 60664.00
1523.019, 60708.00
1524.053, 60643.00
1525.086, 60689.36
1526.119, 60679.85
1527.152, 60681.00
1528.185, 60744.00
1529.217, 60781.00
1530.250, 60943.00
1531.282, 60879.00
1532.314, 61191.00
1533.346, 61320.00
1534.377, 61114.00
1535.409, 61033.00
1536.440, 61380.00
1537.472, 60945.00
1538.503, 61355.00
1539.534, 60971.00
1540.564, 60988.00
1541.595, 61434.00
1542.625, 61489.00
1543.656, 61344.00
1544.686, 61289.00
1545.716, 61445.00
1546.745, 61624.00
1547.775, 61460.00
1548.804, 61839.00
1549.834, 61510.00
1550.863, 61958.00
1551.892, 62272.00
1552.920, 62520.00
1553.949, 62174.00
1554.977, 61902.00
1556.006, 61523.00
1557.034, 61546.00
1558.062, 61981.00
1559.089, 61846.00
1560.117, 61961.00
1561.144, 61708.00
1562.172, 61990.00
1563.199, 61971.00
1564.226, 62181.00
1565.252, 62319.00
1566.279, 61965.00
1567.305, 62097.00
1568.332, 62202.00
1569.358, 61862.00
1570.384, 62525.00
##END=



