##NAMES=Laverovite
##RRUFFID=R060216
##IDEAL CHEMISTRY=K_2_NaMn^2+^_7_Zr^4+^_2_(Si_4_O_12_)_2_O_2_(OH)_4_F
##LOCALITY=Desourdy Quarry, Mont Saint-Hilaire, Rouville County, Quebec, Canada
##OWNER=RRUFF
##SOURCE=Royal Ontario Museum
##DESCRIPTION=Brown fragment showing lamellar habit. Type sample
##STATUS=The identification of this mineral has been confirmed by X-ray diffraction and chemical analysis
##URL=rruff.info/R060216
##MEASURED CHEMISTRY=(K_1.74_Na_0.18_[box]_0.08_)_Σ=2_(Na_0.92_Ca_0.08_)_Σ=1_(Mn_4.09_Fe^2+^_2.67_Mg_0.24_)_Σ=7_(Zr_1.42_Ti_0.58_)_Σ=2_(Si_7.86_Al_0.14_)_Σ=8_O_26_((OH)_3.14_O_0.86_)_Σ=4_
##PIN_ID=L00587
##ORIENTATION=Laser parallel to -b* (0 -1 0). Fiducial mark perpendicular to laser is parallel to -c [0 0 -1]
146.1820, 19962.00
147.4150, 20163.00
148.6480, 19658.00
149.8800, 19716.00
151.1130, 20579.00
152.3450, 21570.00
153.5770, 21198.00
154.8090, 21452.00
156.0410, 21268.00
157.2720, 21360.00
158.5040, 21697.00
159.7350, 22793.00
160.9660, 23528.00
162.1970, 24737.00
163.4270, 25962.00
164.6580, 26944.00
165.8880, 27560.56
167.1180, 28090.00
168.3480, 28244.00
169.5780, 28347.00
170.8080, 28174.00
172.0370, 27382.00
173.2670, 26567.00
174.4960, 25819.00
175.7250, 25054.00
176.9540, 24771.00
178.1820, 24133.08
179.4110, 23980.00
180.6390, 23372.00
181.8670, 22790.00
183.0950, 22692.00
184.3230, 22791.00
185.5500, 22429.00
186.7780, 22581.00
188.0050, 22043.00
189.2320, 21471.00
190.4590, 21168.00
191.6850, 20782.00
192.9120, 20716.00
194.1380, 20662.00
195.3650, 20437.00
196.5910, 20329.00
197.8160, 20293.00
199.0420, 20567.00
200.2680, 21072.00
201.4930, 21579.00
202.7180, 22093.00
203.9430, 20715.00
205.1680, 18868.00
206.3930, 17758.00
207.6170, 17234.00
208.8410, 17269.00
210.0660, 17369.00
211.2890, 17494.00
212.5130, 17500.00
213.7370, 17685.81
214.9600, 18308.00
216.1840, 17953.00
217.4070, 18207.00
218.6300, 18245.00
219.8520, 18088.00
221.0750, 18388.00
222.2970, 18658.00
223.5200, 18642.00
224.7420, 18962.00
225.9640, 19038.00
227.1850, 19511.00
228.4070, 19662.00
229.6280, 20079.00
230.8490, 19913.00
232.0700, 19945.00
233.2910, 20056.00
234.5120, 20141.00
235.7320, 20114.00
236.9530, 19887.00
238.1730, 19902.00
239.3930, 19793.00
240.6130, 19676.63
241.8320, 19698.00
243.0520, 19434.00
244.2710, 19292.00
245.4900, 19068.00
246.7090, 18766.00
247.9280, 18725.00
249.1470, 18577.00
250.3650, 18477.00
251.5840, 18237.00
252.8020, 17906.61
254.0200, 18104.52
255.2370, 18213.88
256.4550, 18239.44
257.6720, 17930.21
258.8900, 18053.29
260.1070, 18003.12
261.3240, 17945.85
262.5400, 18129.78
263.7570, 17869.25
264.9730, 18049.36
266.1900, 18014.00
267.4060, 18159.00
268.6220, 18026.00
269.8370, 18152.00
271.0530, 18188.00
272.2680, 18418.00
273.4830, 18352.00
274.6980, 18487.00
275.9130, 19063.00
277.1280, 19398.00
278.3420, 19099.00
279.5570, 19304.00
280.7710, 19240.00
281.9850, 19293.00
283.1990, 19324.00
284.4120, 19310.00
285.6260, 19520.00
286.8390, 19435.00
288.0520, 19690.00
289.2650, 19559.00
290.4780, 19668.00
291.6910, 19801.00
292.9030, 19829.00
294.1160, 19932.00
295.3280, 19720.60
296.5400, 19762.04
297.7510, 19715.06
298.9630, 19584.14
300.1740, 19118.58
301.3860, 19085.19
302.5970, 18878.68
303.8080, 18665.06
305.0180, 18692.78
306.2290, 18275.91
307.4390, 18299.81
308.6500, 18147.68
309.8600, 18107.00
311.0700, 17736.56
312.2790, 17908.00
313.4890, 17653.00
314.6980, 17621.00
315.9080, 17497.00
317.1170, 17337.00
318.3250, 17386.95
319.5340, 17266.21
320.7430, 17353.00
321.9510, 17245.00
323.1590, 17258.13
324.3670, 17168.00
325.5750, 17210.00
326.7830, 17200.00
327.9900, 17068.00
329.1980, 17339.00
330.4050, 17310.00
331.6120, 17553.00
332.8190, 17475.00
334.0250, 18072.00
335.2320, 17937.82
336.4380, 18404.00
337.6440, 17965.00
338.8500, 18104.00
340.0560, 18181.00
341.2620, 18205.00
342.4670, 18539.00
343.6730, 18435.00
344.8780, 18708.00
346.0830, 18761.00
347.2870, 18774.00
348.4920, 19140.00
349.6970, 19160.00
350.9010, 19260.00
352.1050, 19183.00
353.3090, 19658.00
354.5130, 19823.00
355.7160, 20037.00
356.9200, 20159.00
358.1230, 20284.00
359.3260, 20585.00
360.5290, 20941.00
361.7320, 21126.00
362.9340, 21299.00
364.1370, 21628.00
365.3390, 21587.00
366.5410, 21785.00
367.7430, 21940.00
368.9450, 22011.00
370.1460, 21888.00
371.3480, 21694.00
372.5490, 21770.00
373.7500, 21710.00
374.9510, 21584.00
376.1520, 21095.00
377.3520, 20974.00
378.5520, 20577.00
379.7530, 20635.00
380.9530, 20219.00
382.1530, 20036.00
383.3520, 19815.00
384.5520, 19468.00
385.7510, 19408.00
386.9500, 19187.00
388.1490, 19093.00
389.3480, 18968.00
390.5470, 18914.35
391.7450, 19064.00
392.9440, 18944.00
394.1420, 19104.00
395.3400, 19273.00
396.5380, 19080.00
397.7350, 19038.00
398.9330, 18929.84
400.1300, 18802.00
401.3270, 18670.62
402.5240, 18491.00
403.7210, 18301.00
404.9180, 18060.00
406.1140, 17778.00
407.3110, 18026.00
408.5070, 17384.00
409.7030, 17195.00
410.8990, 17402.00
412.0940, 16788.00
413.2900, 17274.00
414.4850, 16767.00
415.6800, 16626.00
416.8750, 16531.00
418.0700, 16595.00
419.2650, 16461.00
420.4590, 16435.00
421.6530, 16465.00
422.8470, 16391.39
424.0410, 16168.00
425.2350, 16208.00
426.4290, 16295.00
427.6220, 15918.00
428.8160, 15629.67
430.0090, 15764.83
431.2020, 15811.44
432.3940, 15774.29
433.5870, 15402.32
434.7790, 15462.70
435.9720, 15349.78
437.1640, 15229.80
438.3560, 15236.00
439.5470, 15370.00
440.7390, 15229.00
441.9300, 15210.00
443.1220, 15498.00
444.3130, 15317.82
445.5040, 15341.00
446.6940, 15198.00
447.8850, 15130.00
449.0750, 15010.00
450.2660, 15153.00
451.4560, 15117.00
452.6460, 15111.00
453.8350, 15187.00
455.0250, 15097.00
456.2140, 15122.00
457.4040, 15211.00
458.5930, 15211.00
459.7820, 15198.00
460.9700, 15241.57
462.1590, 15237.55
463.3470, 15267.00
464.5350, 15239.00
465.7240, 15240.00
466.9110, 15184.00
468.0990, 15372.00
469.2870, 15412.00
470.4740, 15468.00
471.6610, 15456.00
472.8480, 15300.00
474.0350, 15545.00
475.2220, 15436.00
476.4090, 15364.00
477.5950, 15598.00
478.7810, 15583.00
479.9670, 15573.00
481.1530, 15537.00
482.3390, 15786.00
483.5240, 15606.00
484.7100, 15827.00
485.8950, 15780.00
487.0800, 15806.00
488.2650, 15864.00
489.4490, 15890.00
490.6340, 15877.00
491.8180, 15926.00
493.0030, 15892.00
494.1870, 15952.76
495.3700, 15900.00
496.5540, 15994.00
497.7380, 15983.00
498.9210, 15863.00
500.1040, 15871.00
501.2870, 15823.00
502.4700, 15936.00
503.6530, 16029.00
504.8350, 16005.00
506.0180, 16084.00
507.2000, 16116.73
508.3820, 15989.00
509.5640, 16189.00
510.7450, 16149.00
511.9270, 16166.01
513.1080, 16056.00
514.2890, 16151.00
515.4700, 16175.00
516.6510, 16258.00
517.8320, 16115.00
519.0130, 15997.00
520.1930, 16123.00
521.3730, 16128.00
522.5530, 16179.00
523.7330, 16186.00
524.9130, 16231.85
526.0920, 16265.46
527.2710, 16304.32
528.4510, 16362.00
529.6300, 16365.00
530.8080, 16460.00
531.9870, 16563.00
533.1660, 16470.00
534.3440, 16595.00
535.5220, 16649.55
536.7000, 16955.00
537.8780, 16881.00
539.0560, 16898.00
540.2330, 17124.00
541.4110, 17473.00
542.5880, 17746.00
543.7650, 17884.00
544.9420, 18168.00
546.1180, 18601.00
547.2950, 18863.00
548.4710, 19367.00
549.6470, 19899.00
550.8230, 20129.00
551.9990, 20714.00
553.1750, 20826.00
554.3500, 20956.00
555.5260, 21371.00
556.7010, 21516.00
557.8760, 21340.00
559.0510, 21181.00
560.2250, 21005.00
561.4000, 21027.00
562.5740, 20875.00
563.7480, 20650.00
564.9220, 20313.00
566.0960, 20061.00
567.2700, 20042.00
568.4430, 19633.00
569.6170, 19589.00
570.7900, 19283.00
571.9630, 19349.00
573.1360, 18994.00
574.3080, 18975.00
575.4810, 18834.00
576.6530, 18848.00
577.8250, 18886.00
578.9980, 18938.00
580.1690, 19040.00
581.3410, 19083.00
582.5130, 19115.00
583.6840, 19065.00
584.8550, 19354.00
586.0260, 19341.00
587.1970, 19675.00
588.3680, 19734.00
589.5380, 19777.00
590.7080, 20152.00
591.8790, 20033.00
593.0490, 20058.00
594.2190, 20216.00
595.3880, 20240.00
596.5580, 20270.63
597.7270, 20280.82
598.8960, 20293.00
600.0650, 20191.00
601.2340, 20201.00
602.4030, 20112.00
603.5710, 20437.00
604.7400, 20440.00
605.9080, 20339.00
607.0760, 20552.00
608.2440, 20530.00
609.4120, 20810.00
610.5790, 20825.00
611.7460, 20935.00
612.9140, 20874.00
614.0810, 21095.00
615.2480, 21235.00
616.4140, 21202.00
617.5810, 21646.00
618.7470, 21689.00
619.9130, 21554.00
621.0790, 21924.00
622.2450, 22160.00
623.4110, 22208.00
624.5770, 22476.00
625.7420, 22731.00
626.9070, 22833.00
628.0720, 23033.00
629.2370, 23246.00
630.4020, 23542.00
631.5660, 23841.00
632.7310, 24169.00
633.8950, 24368.00
635.0590, 24981.00
636.2230, 25140.00
637.3870, 25691.00
638.5500, 26252.00
639.7140, 26930.00
640.8770, 27666.48
642.0400, 28641.00
643.2030, 29461.00
644.3660, 30599.00
645.5280, 31918.00
646.6910, 33372.00
647.8530, 34836.00
649.0150, 36271.00
650.1770, 37607.00
651.3390, 38631.00
652.5000, 39040.00
653.6620, 38917.00
654.8230, 38054.00
655.9840, 36724.00
657.1450, 35063.00
658.3060, 33770.00
659.4660, 32413.00
660.6270, 31053.00
661.7870, 29790.00
662.9470, 29088.00
664.1070, 28368.00
665.2670, 27891.00
666.4260, 27465.00
667.5860, 27138.00
668.7450, 26862.00
669.9040, 26931.00
671.0630, 26923.00
672.2220, 26968.39
673.3800, 26975.00
674.5390, 27259.00
675.6970, 27382.00
676.8550, 27597.00
678.0130, 27905.00
679.1710, 28404.00
680.3290, 28641.00
681.4860, 29042.00
682.6430, 29212.00
683.8000, 29472.00
684.9570, 29902.00
686.1140, 30537.00
687.2710, 30633.20
688.4270, 30936.00
689.5840, 31020.00
690.7400, 31207.00
691.8960, 31430.00
693.0520, 31833.00
694.2070, 31840.00
695.3630, 32103.00
696.5180, 32075.00
697.6730, 32069.00
698.8280, 32238.00
699.9830, 32656.00
701.1380, 32399.00
702.2920, 32559.00
703.4470, 32820.00
704.6010, 32692.00
705.7550, 32851.92
706.9090, 33176.00
708.0620, 32922.00
709.2160, 33205.00
710.3690, 33253.00
711.5220, 33463.00
712.6750, 33569.00
713.8280, 33587.00
714.9810, 33672.00
716.1340, 33393.00
717.2860, 33380.00
718.4380, 33090.00
719.5900, 32908.00
720.7420, 32530.00
721.8940, 32431.00
723.0450, 32109.00
724.1970, 31620.00
725.3480, 31404.00
726.4990, 31077.00
727.6500, 30878.00
728.8010, 30176.00
729.9510, 29880.00
731.1020, 29594.00
732.2520, 29411.00
733.4020, 29073.00
734.5520, 28464.00
735.7020, 28278.00
736.8510, 27969.98
738.0010, 27638.98
739.1500, 27599.00
740.2990, 27080.00
741.4480, 26945.99
742.5970, 26565.21
743.7450, 26394.04
744.8940, 26506.00
746.0420, 26215.00
747.1900, 26186.00
748.3380, 26317.00
749.4860, 26060.00
750.6330, 26182.00
751.7810, 25948.00
752.9280, 26014.00
754.0750, 26086.00
755.2220, 26047.00
756.3690, 25945.00
757.5160, 26107.00
758.6620, 26128.00
759.8090, 25961.00
760.9550, 25801.00
762.1010, 25562.00
763.2470, 25804.00
764.3920, 25358.00
765.5380, 25350.00
766.6830, 25192.00
767.8280, 24747.00
768.9730, 24467.00
770.1180, 24485.00
771.2630, 24283.00
772.4070, 23862.00
773.5520, 23740.00
774.6960, 23373.00
775.8400, 23321.00
776.9840, 23169.00
778.1280, 22838.00
779.2710, 22600.00
780.4140, 22732.00
781.5580, 22169.00
782.7010, 22139.00
783.8440, 22080.00
784.9860, 21727.00
786.1290, 21647.00
787.2710, 21483.33
788.4140, 21492.00
789.5560, 21176.00
790.6980, 21116.00
791.8390, 20896.00
792.9810, 20753.00
794.1220, 20570.00
795.2640, 20255.00
796.4050, 20179.00
797.5460, 19894.00
798.6860, 19860.00
799.8270, 19513.00
800.9680, 19525.00
802.1080, 19224.00
803.2480, 18913.00
804.3880, 18818.00
805.5280, 18790.00
806.6670, 18760.00
807.8070, 18625.65
808.9460, 18437.00
810.0850, 18355.00
811.2240, 18304.00
812.3630, 18136.00
813.5020, 18045.00
814.6400, 18055.00
815.7790, 17889.00
816.9170, 17786.00
818.0550, 17803.00
819.1930, 17807.00
820.3300, 17879.00
821.4680, 17804.16
822.6050, 17707.00
823.7430, 17714.00
824.8800, 17640.00
826.0170, 17675.00
827.1530, 17618.00
828.2900, 17583.00
829.4260, 17579.12
830.5620, 17533.00
831.6990, 17547.00
832.8340, 17533.00
833.9700, 17532.88
835.1060, 17419.00
836.2410, 17491.00
837.3760, 17416.00
838.5120, 17405.00
839.6470, 17459.00
840.7810, 17439.00
841.9160, 17478.00
843.0500, 17508.00
844.1850, 17580.00
845.3190, 17800.00
846.4530, 17793.56
847.5870, 17679.00
848.7200, 17860.00
849.8540, 17793.00
850.9870, 17734.00
852.1200, 17624.00
853.2530, 17805.00
854.3860, 17856.00
855.5190, 18005.00
856.6510, 17954.00
857.7840, 18173.00
858.9160, 18148.00
860.0480, 18207.00
861.1800, 18082.00
862.3110, 18264.00
863.4430, 18277.03
864.5740, 18353.00
865.7060, 18475.00
866.8370, 18494.00
867.9680, 18657.00
869.0980, 18623.00
870.2290, 18875.00
871.3590, 18809.00
872.4900, 18875.00
873.6200, 19164.00
874.7500, 19239.00
875.8790, 19266.00
877.0090, 19251.00
878.1380, 19350.00
879.2680, 19363.00
880.3970, 19331.00
881.5260, 19692.00
882.6550, 19737.00
883.7830, 19556.00
884.9120, 19798.00
886.0400, 19776.00
887.1680, 19824.00
888.2960, 19930.00
889.4240, 19880.00
890.5520, 20060.00
891.6790, 20018.00
892.8070, 20120.00
893.9340, 20229.00
895.0610, 20410.00
896.1880, 20315.00
897.3140, 20498.00
898.4410, 20493.00
899.5670, 20588.00
900.6940, 20637.00
901.8200, 20775.00
902.9450, 20849.00
904.0710, 20852.00
905.1970, 21064.00
906.3220, 21225.00
907.4470, 21361.00
908.5730, 21374.00
909.6980, 21419.00
910.8220, 21555.00
911.9470, 21577.75
913.0710, 21648.00
914.1960, 21732.00
915.3200, 21866.00
916.4440, 22004.00
917.5680, 21905.00
918.6910, 22281.00
919.8150, 22018.00
920.9380, 21802.00
922.0610, 22175.00
923.1840, 22057.00
924.3070, 22211.00
925.4300, 22094.00
926.5520, 22143.00
927.6750, 22225.00
928.7970, 22261.00
929.9190, 22160.00
931.0410, 22240.00
932.1630, 22061.00
933.2840, 22198.00
934.4060, 22159.00
935.5270, 22152.00
936.6480, 22174.32
937.7690, 22145.78
938.8900, 22150.00
940.0100, 22211.00
941.1310, 22225.00
942.2510, 22441.00
943.3710, 22552.00
944.4910, 22643.00
945.6110, 22561.42
946.7310, 22586.00
947.8500, 22555.65
948.9690, 22462.00
950.0890, 22479.00
951.2080, 22392.00
952.3260, 22366.00
953.4450, 22364.00
954.5640, 22137.00
955.6820, 21950.00
956.8000, 21843.00
957.9180, 21649.00
959.0360, 21708.00
960.1540, 21440.00
961.2710, 21298.00
962.3890, 21311.00
963.5060, 20966.00
964.6230, 20904.00
965.7400, 21011.00
966.8570, 20849.00
967.9730, 20880.00
969.0900, 20815.00
970.2060, 20811.00
971.3220, 20651.00
972.4380, 20627.00
973.5540, 20613.51
974.6700, 20830.00
975.7850, 20588.00
976.9010, 20863.00
978.0160, 20804.00
979.1310, 21148.00
980.2460, 20929.00
981.3600, 21007.00
982.4750, 21198.00
983.5890, 21171.00
984.7030, 21418.00
985.8170, 21708.00
986.9310, 21690.00
988.0450, 21749.00
989.1590, 22025.00
990.2720, 22326.00
991.3850, 22504.00
992.4980, 22438.00
993.6110, 22672.00
994.7240, 22840.00
995.8370, 23441.00
996.9490, 23574.33
998.0620, 24140.00
999.1740, 24226.00
1000.286, 24517.00
1001.398, 25096.00
1002.509, 25062.00
1003.621, 25596.00
1004.732, 26212.00
1005.843, 26579.00
1006.954, 27057.00
1008.065, 27814.00
1009.176, 28400.00
1010.286, 29019.00
1011.397, 29715.00
1012.507, 30636.00
1013.617, 31413.00
1014.727, 32257.00
1015.837, 33138.28
1016.946, 34002.48
1018.056, 34910.00
1019.165, 35837.00
1020.274, 36790.00
1021.383, 37773.00
1022.492, 38587.00
1023.601, 39488.00
1024.709, 40281.00
1025.817, 41167.00
1026.926, 41677.00
1028.034, 42266.00
1029.141, 42668.00
1030.249, 42696.00
1031.357, 42554.00
1032.464, 42144.27
1033.571, 41181.00
1034.678, 40465.00
1035.785, 39614.00
1036.892, 37957.00
1037.999, 37029.00
1039.105, 35982.00
1040.211, 34998.00
1041.317, 33740.00
1042.423, 32828.00
1043.529, 31602.00
1044.635, 30924.00
1045.740, 29714.00
1046.845, 29173.00
1047.951, 28300.00
1049.056, 27762.00
1050.160, 27225.00
1051.265, 26844.00
1052.370, 26277.00
1053.474, 25787.00
1054.578, 25445.00
1055.682, 25702.84
1056.786, 26427.00
1057.890, 26045.00
1058.993, 25428.00
1060.097, 24389.00
1061.200, 24254.00
1062.303, 24042.00
1063.406, 23993.00
1064.509, 23710.00
1065.612, 23742.00
1066.714, 23569.00
1067.816, 23791.00
1068.919, 23390.00
1070.021, 23312.00
1071.122, 23493.00
1072.224, 23410.00
1073.326, 23260.00
1074.427, 23042.00
1075.528, 22864.00
1076.629, 23153.00
1077.730, 22844.00
1078.831, 22740.00
1079.931, 23155.00
1081.032, 23597.00
1082.132, 23030.00
1083.232, 22733.00
1084.332, 22343.00
1085.432, 22169.00
1086.531, 21951.00
1087.631, 22030.00
1088.730, 21657.00
1089.829, 21657.00
1090.928, 21809.00
1092.027, 21524.99
1093.126, 21324.00
1094.224, 21226.00
1095.323, 21156.00
1096.421, 20969.00
1097.519, 20950.00
1098.617, 20825.00
1099.715, 20591.00
1100.812, 20552.00
1101.910, 20430.42
1103.007, 20606.00
1104.104, 20345.00
1105.201, 20289.00
1106.298, 20371.00
1107.394, 20173.00
1108.491, 20005.00
1109.587, 20106.00
1110.683, 19990.00
1111.779, 19932.00
1112.875, 20030.00
1113.971, 19739.00
1115.066, 19777.00
1116.162, 19728.00
1117.257, 19882.00
1118.352, 19677.00
1119.447, 19764.00
1120.542, 19601.00
1121.636, 19775.00
1122.731, 19481.00
1123.825, 19792.00
1124.919, 19622.00
1126.013, 19825.00
1127.107, 19714.32
1128.200, 19712.00
1129.294, 19505.00
1130.387, 19445.00
1131.480, 19435.00
1132.573, 19502.00
1133.666, 19186.29
1134.759, 19393.66
1135.851, 19512.47
1136.944, 19547.49
1138.036, 19247.71
1139.128, 19380.24
1140.220, 19339.53
1141.312, 19291.71
1142.403, 19485.08
1143.495, 19234.00
1144.586, 19423.54
1145.677, 19437.20
1146.768, 19531.35
1147.859, 19451.19
1148.950, 19424.87
1150.040, 19572.91
1151.130, 19378.10
1152.221, 19208.00
1153.311, 19364.00
1154.401, 19240.00
1155.490, 19331.00
1156.580, 19288.00
1157.669, 19192.00
1158.759, 19430.00
1159.848, 19224.00
1160.937, 19410.00
1162.025, 19364.84
1163.114, 19514.00
1164.202, 19273.00
1165.291, 19361.00
1166.379, 19247.00
1167.467, 19562.00
1168.555, 19455.31
1169.642, 19448.00
1170.730, 19339.00
1171.817, 19322.00
1172.905, 19293.72
1173.992, 19251.17
1175.078, 19265.00
1176.165, 19225.00
1177.252, 19224.00
1178.338, 19239.00
1179.425, 19434.00
1180.511, 19413.00
1181.597, 19258.00
1182.682, 19278.00
1183.768, 19629.00
1184.854, 19456.70
1185.939, 19175.00
1187.024, 19459.00
1188.109, 19303.00
1189.194, 19365.00
1190.279, 19278.00
1191.363, 19341.00
1192.448, 19227.00
1193.532, 19227.00
1194.616, 19334.00
1195.700, 19451.00
1196.784, 19372.00
1197.867, 19399.00
1198.951, 18960.46
1200.034, 19176.33
1201.117, 19303.65
1202.200, 19347.16
1203.283, 19055.90
1204.366, 19196.93
1205.448, 19164.71
1206.531, 19125.40
1207.613, 19327.27
1208.695, 19084.68
1209.777, 19282.73
1210.859, 19304.88
1211.940, 19407.52
1213.022, 19335.86
1214.103, 19513.00
1215.184, 19422.00
1216.265, 19448.00
1217.346, 19451.00
1218.427, 19511.00
1219.507, 19472.19
1220.587, 19483.62
1221.668, 19445.00
1222.748, 19396.00
1223.828, 19239.03
1224.907, 19445.84
1225.987, 19564.10
1227.066, 19598.56
1228.146, 19298.24
1229.225, 19430.21
1230.304, 19388.94
1231.382, 19340.56
1232.461, 19533.38
1233.540, 19281.75
1234.618, 19470.74
1235.696, 19483.84
1236.774, 19577.45
1237.852, 19538.00
1238.930, 19521.54
1240.007, 19642.00
1241.085, 19554.00
1242.162, 19629.00
1243.239, 19636.00
1244.316, 19544.00
1245.393, 19717.00
1246.469, 19605.00
1247.546, 19511.00
1248.622, 19649.00
1249.698, 19714.00
1250.774, 19492.00
1251.850, 19619.00
1252.926, 19634.00
1254.001, 19554.00
1255.077, 19742.00
1256.152, 19617.00
1257.227, 19615.00
1258.302, 19709.00
1259.377, 19642.00
1260.451, 19775.00
1261.526, 19685.00
1262.600, 19721.00
1263.674, 19710.00
1264.748, 19586.00
1265.822, 19839.00
1266.896, 19892.00
1267.969, 19782.00
1269.043, 19509.00
1270.116, 19831.00
1271.189, 19695.00
1272.262, 19689.00
1273.335, 19935.00
1274.407, 19728.00
1275.480, 19842.00
1276.552, 19738.00
1277.624, 19856.00
1278.696, 19918.00
1279.768, 19722.00
1280.840, 19859.00
1281.911, 19852.45
1282.982, 19821.32
1284.054, 19994.00
1285.125, 19802.00
1286.196, 19921.00
1287.266, 19856.00
1288.337, 19788.00
1289.407, 19962.00
1290.478, 19964.00
1291.548, 19963.00
1292.618, 19884.00
1293.688, 19995.00
1294.757, 19876.00
1295.827, 19721.00
1296.896, 19799.56
1297.965, 19941.00
1299.034, 19853.00
1300.103, 19914.00
1301.172, 20001.00
1302.241, 19860.00
1303.309, 19984.00
1304.377, 19928.00
1305.445, 20035.00
1306.513, 20211.00
1307.581, 19969.00
1308.649, 20062.00
1309.716, 20151.00
1310.784, 20071.00
1311.851, 19991.00
1312.918, 20012.00
1313.985, 19933.00
1315.052, 20035.00
1316.118, 20294.00
1317.185, 20204.00
1318.251, 20219.00
1319.317, 20242.00
1320.383, 20096.00
1321.449, 20220.00
1322.514, 20046.00
1323.580, 20180.00
1324.645, 20236.00
1325.711, 20002.00
1326.776, 20138.00
1327.840, 20157.00
1328.905, 20063.00
1329.970, 20262.00
1331.034, 20176.00
1332.099, 20225.00
1333.163, 20261.00
1334.227, 20149.00
1335.290, 20189.00
1336.354, 20001.00
1337.418, 20243.00
1338.481, 20298.00
1339.544, 20264.00
1340.607, 20214.00
1341.670, 20252.00
1342.733, 20264.00
1343.795, 20478.00
1344.858, 20420.00
1345.920, 20378.00
1346.982, 20137.00
1348.044, 20521.00
1349.106, 20276.00
1350.168, 20333.00
1351.229, 20245.00
1352.291, 20446.00
1353.352, 20200.00
1354.413, 20763.00
1355.474, 20566.76
1356.534, 20943.00
1357.595, 20435.00
1358.656, 20556.00
1359.716, 20391.00
1360.776, 20260.00
1361.836, 20269.00
1362.896, 20551.00
1363.955, 20490.00
1365.015, 20555.00
1366.074, 20427.00
1367.134, 20514.00
1368.193, 20466.00
1369.252, 20415.00
1370.310, 20577.00
1371.369, 20539.00
1372.427, 20520.00
1373.486, 20510.00
1374.544, 20475.00
1375.602, 20477.97
1376.660, 20447.00
1377.717, 20533.00
1378.775, 20539.00
1379.832, 20692.00
1380.889, 20681.99
1381.946, 20700.00
1383.003, 20673.00
1384.060, 20772.00
1385.117, 20688.00
1386.173, 20712.00
1387.230, 20665.00
1388.286, 20741.00
1389.342, 20673.00
1390.398, 20939.00
1391.453, 20879.44
1392.509, 20853.09
1393.564, 20912.00
1394.619, 20767.00
1395.675, 20585.95
1396.729, 20802.37
1397.784, 20930.24
1398.839, 20974.31
1399.893, 20683.59
1400.948, 20825.18
1402.002, 20793.52
1403.056, 20754.75
1404.110, 20957.17
1405.163, 20715.13
1406.217, 20913.73
1407.270, 20936.42
1408.324, 21039.63
1409.377, 20968.51
1410.430, 20951.23
1411.483, 21108.33
1412.535, 20987.57
1413.588, 21060.00
1414.640, 21097.00
1415.692, 20950.00
1416.744, 20984.00
1417.796, 20819.00
1418.848, 21151.00
1419.900, 21027.00
1420.951, 20972.00
1422.002, 21063.00
1423.053, 20914.00
1424.104, 21032.00
1425.155, 21125.00
1426.206, 21100.00
1427.256, 21144.00
1428.307, 20885.00
1429.357, 20903.00
1430.407, 21098.00
1431.457, 20859.00
1432.507, 21467.00
1433.556, 21265.97
1434.606, 21208.00
1435.655, 21273.00
1436.704, 21149.00
1437.753, 21277.00
1438.802, 21410.00
1439.851, 21021.00
1440.899, 21317.00
1441.948, 21196.00
1442.996, 21300.00
1444.044, 21581.00
1445.092, 21682.00
1446.140, 21339.00
1447.187, 21064.00
1448.235, 21265.00
1449.282, 21267.00
1450.329, 21263.00
1451.376, 21213.85
1452.423, 21476.00
1453.470, 21315.00
1454.517, 21748.00
1455.563, 21563.55
1456.609, 21528.00
1457.655, 21355.00
1458.701, 21478.00
1459.747, 21412.00
1460.793, 21307.00
1461.838, 21396.00
1462.884, 21454.00
1463.929, 21371.00
1464.974, 21424.22
1466.019, 21362.00
1467.064, 21423.00
1468.108, 21471.00
1469.153, 21515.00
1470.197, 21559.00
1471.241, 21435.00
1472.285, 21644.00
1473.329, 21412.00
1474.373, 21407.00
1475.416, 21573.00
1476.460, 21538.00
1477.503, 21760.00
1478.546, 21613.00
1479.589, 21709.00
1480.632, 21661.00
1481.674, 21504.00
1482.717, 21746.00
1483.759, 21709.00
1484.801, 21612.00
1485.843, 21746.01
1486.885, 21758.00
1487.927, 21783.00
1488.968, 21771.00
1490.010, 21691.00
1491.051, 21829.00
1492.092, 21669.00
1493.133, 21724.00
1494.174, 21941.00
1495.215, 21805.00
1496.255, 21696.00
1497.296, 21877.00
1498.336, 21774.00
1499.376, 22002.00
1500.416, 21854.00
1501.456, 21875.00
1502.495, 21809.00
1503.535, 21856.00
1504.574, 21901.00
1505.613, 21863.00
1506.652, 21904.26
1507.691, 22043.00
1508.730, 21990.00
1509.768, 22022.57
1510.807, 21875.00
1511.845, 22000.00
1512.883, 22003.00
1513.921, 22028.00
1514.959, 22045.00
1515.996, 22050.50
1517.034, 21913.00
1518.071, 22009.00
1519.109, 22056.00
1520.146, 21918.00
1521.183, 21708.00
1522.219, 21943.00
1523.256, 21917.00
1524.292, 21907.00
1525.329, 22011.22
1526.365, 21938.00
1527.401, 22100.00
1528.437, 21965.00
1529.472, 22015.00
1530.508, 22086.00
1531.543, 22089.00
1532.579, 22096.00
1533.614, 22091.00
1534.649, 21966.00
1535.683, 22180.00
1536.718, 22027.00
1537.753, 22099.00
1538.787, 22059.00
1539.821, 22277.00
##END=



