##NAMES=Laverovite
##RRUFFID=R060216
##IDEAL CHEMISTRY=K_2_NaMn^2+^_7_Zr^4+^_2_(Si_4_O_12_)_2_O_2_(OH)_4_F
##LOCALITY=Desourdy Quarry, Mont Saint-Hilaire, Rouville County, Quebec, Canada
##OWNER=RRUFF
##SOURCE=Royal Ontario Museum
##DESCRIPTION=Brown fragment showing lamellar habit. Type sample
##STATUS=The identification of this mineral has been confirmed by X-ray diffraction and chemical analysis
##URL=rruff.info/R060216
##MEASURED CHEMISTRY=(K_1.74_Na_0.18_[box]_0.08_)_Σ=2_(Na_0.92_Ca_0.08_)_Σ=1_(Mn_4.09_Fe^2+^_2.67_Mg_0.24_)_Σ=7_(Zr_1.42_Ti_0.58_)_Σ=2_(Si_7.86_Al_0.14_)_Σ=8_O_26_((OH)_3.14_O_0.86_)_Σ=4_
##PIN_ID=L01682
##ORIENTATION=Laser parallel to (0 -1 -1). Fiducial mark perpendicular to laser is parallel to a [1 0 0]
159.9080, 14574.00
161.1340, 15001.00
162.3590, 15506.00
163.5850, 16158.00
164.8110, 16895.00
166.0360, 17544.00
167.2610, 17417.00
168.4860, 17806.00
169.7110, 17974.00
170.9360, 18004.00
172.1610, 17707.00
173.3850, 17229.00
174.6100, 17138.00
175.8340, 17201.00
177.0580, 16958.64
178.2820, 17074.00
179.5050, 16852.00
180.7290, 16933.00
181.9520, 16988.00
183.1760, 16728.00
184.3990, 16983.00
185.6220, 17168.00
186.8450, 17466.00
188.0670, 17342.00
189.2900, 17432.00
190.5120, 17605.00
191.7340, 17931.00
192.9560, 18190.00
194.1780, 18544.00
195.4000, 19659.00
196.6220, 19533.00
197.8430, 18901.00
199.0640, 19413.00
200.2860, 20434.00
201.5070, 21783.00
202.7270, 21645.00
203.9480, 19341.00
205.1690, 16371.00
206.3890, 14890.00
207.6090, 14314.00
208.8290, 14271.00
210.0490, 14347.00
211.2690, 14256.00
212.4890, 14562.00
213.7080, 14884.00
214.9280, 14832.00
216.1470, 14823.00
217.3660, 14778.00
218.5850, 14736.00
219.8030, 15031.00
221.0220, 15114.00
222.2400, 15004.00
223.4590, 14996.00
224.6770, 15063.00
225.8950, 15079.00
227.1120, 15072.29
228.3300, 14984.00
229.5480, 15061.00
230.7650, 14949.00
231.9820, 14953.00
233.1990, 15032.00
234.4160, 14982.00
235.6330, 14922.00
236.8490, 14800.00
238.0660, 14736.00
239.2820, 14841.00
240.4980, 14774.00
241.7140, 14693.00
242.9300, 14736.00
244.1460, 14556.00
245.3610, 14631.00
246.5770, 14431.00
247.7920, 14299.00
249.0070, 14175.00
250.2220, 14194.00
251.4370, 14081.00
252.6510, 13871.30
253.8660, 14016.56
255.0800, 14079.93
256.2940, 14065.77
257.5080, 13741.92
258.7220, 13817.98
259.9360, 13733.77
261.1490, 13643.03
262.3630, 13775.38
263.5760, 13496.60
264.7890, 13625.44
266.0020, 13591.57
267.2150, 13619.00
268.4270, 13386.00
269.6400, 13444.00
270.8520, 13148.00
272.0640, 13108.00
273.2760, 13008.00
274.4880, 13247.00
275.7000, 13242.00
276.9120, 13185.00
278.1230, 13332.00
279.3340, 13119.00
280.5450, 13167.00
281.7560, 13134.00
282.9670, 13137.00
284.1780, 13126.46
285.3880, 13305.00
286.5980, 13068.00
287.8090, 13271.00
289.0190, 13227.00
290.2290, 13199.00
291.4380, 13211.00
292.6480, 13310.00
293.8570, 13380.00
295.0670, 13365.44
296.2760, 13420.88
297.4850, 13415.00
298.6930, 13410.00
299.9020, 13587.00
301.1110, 13518.00
302.3190, 13562.00
303.5270, 13667.00
304.7350, 13464.00
305.9430, 13622.00
307.1510, 13551.00
308.3580, 13529.00
309.5660, 13847.00
310.7730, 13898.00
311.9800, 13905.00
313.1870, 13875.00
314.3940, 13883.00
315.6010, 14047.00
316.8070, 14012.59
318.0130, 14085.64
319.2200, 14070.00
320.4260, 14178.00
321.6310, 14205.00
322.8370, 14276.00
324.0430, 14283.00
325.2480, 14356.00
326.4540, 14477.00
327.6590, 14423.51
328.8640, 14700.00
330.0680, 14426.00
331.2730, 14350.00
332.4780, 14480.00
333.6820, 14399.00
334.8860, 14391.00
336.0900, 14317.00
337.2940, 14292.00
338.4980, 14495.00
339.7010, 14468.00
340.9050, 14409.00
342.1080, 14313.00
343.3110, 14397.00
344.5140, 14451.00
345.7170, 14291.00
346.9200, 14319.00
348.1220, 14343.00
349.3240, 14251.00
350.5270, 14222.00
351.7290, 14257.00
352.9310, 14380.00
354.1320, 14352.00
355.3340, 14387.00
356.5350, 14374.00
357.7370, 14567.00
358.9380, 14616.00
360.1390, 14616.57
361.3400, 14766.00
362.5400, 14641.00
363.7410, 14579.00
364.9410, 14675.00
366.1410, 14794.00
367.3410, 14613.00
368.5410, 14658.00
369.7410, 14565.00
370.9400, 14590.00
372.1400, 14532.00
373.3390, 14522.00
374.5380, 14461.00
375.7370, 14445.00
376.9360, 14492.00
378.1350, 14388.03
379.3330, 14413.00
380.5310, 14241.00
381.7300, 14206.00
382.9280, 14150.00
384.1260, 14168.00
385.3230, 14189.00
386.5210, 14160.00
387.7180, 14119.00
388.9160, 14071.00
390.1130, 14023.00
391.3100, 13936.00
392.5060, 13914.00
393.7030, 13808.00
394.9000, 13685.00
396.0960, 13578.00
397.2920, 13575.79
398.4880, 13584.00
399.6840, 13570.00
400.8800, 13600.00
402.0750, 13529.00
403.2710, 13414.00
404.4660, 13423.00
405.6610, 13335.00
406.8560, 13140.00
408.0510, 13019.00
409.2450, 13022.00
410.4400, 13080.00
411.6340, 12892.00
412.8280, 12962.00
414.0220, 12893.12
415.2160, 12839.00
416.4100, 12787.00
417.6030, 12718.00
418.7970, 12608.00
419.9900, 12627.00
421.1830, 12606.00
422.3760, 12452.50
423.5690, 12617.20
424.7610, 12700.00
425.9540, 12705.26
427.1460, 12400.83
428.3380, 12496.32
429.5300, 12431.54
430.7220, 12360.19
431.9140, 12555.00
433.1050, 12480.00
434.2970, 12423.00
435.4880, 12496.00
436.6790, 12496.10
437.8700, 12449.27
439.0610, 12573.00
440.2510, 12421.00
441.4420, 12343.00
442.6320, 12461.00
443.8220, 12312.00
445.0120, 12451.00
446.2020, 12461.00
447.3910, 12354.00
448.5810, 12401.00
449.7700, 12393.00
450.9600, 12486.00
452.1490, 12488.00
453.3370, 12523.28
454.5260, 12575.00
455.7150, 12575.00
456.9030, 12555.00
458.0910, 12567.75
459.2800, 12636.00
460.4670, 12613.00
461.6550, 12658.00
462.8430, 12681.00
464.0300, 12704.00
465.2180, 12726.00
466.4050, 12842.00
467.5920, 12864.00
468.7790, 12795.00
469.9650, 12994.00
471.1520, 12912.00
472.3380, 12941.38
473.5250, 13130.00
474.7110, 12906.00
475.8970, 13001.00
477.0820, 12945.00
478.2680, 13087.00
479.4540, 12955.00
480.6390, 13218.00
481.8240, 13138.00
483.0090, 13073.00
484.1940, 13202.00
485.3780, 13174.00
486.5630, 13213.33
487.7470, 13166.00
488.9320, 13301.00
490.1160, 13198.00
491.3000, 13270.00
492.4830, 13207.00
493.6670, 13361.00
494.8500, 13296.00
496.0340, 13228.00
497.2170, 13350.00
498.4000, 13276.00
499.5820, 13190.00
500.7650, 13253.15
501.9480, 13094.00
503.1300, 13297.00
504.3120, 13286.00
505.4940, 13354.00
506.6760, 13223.00
507.8580, 13247.00
509.0390, 13176.00
510.2210, 13209.00
511.4020, 13119.00
512.5830, 13196.00
513.7640, 13202.00
514.9450, 13132.00
516.1250, 13119.00
517.3060, 13186.00
518.4860, 13121.00
519.6660, 13170.00
520.8460, 13219.00
522.0260, 13104.00
523.2060, 13167.00
524.3850, 13284.00
525.5650, 13140.00
526.7440, 13051.00
527.9230, 13252.00
529.1020, 13466.00
530.2810, 13275.32
531.4590, 13168.00
532.6380, 13234.00
533.8160, 13342.00
534.9940, 13848.00
536.1720, 13878.00
537.3500, 13825.23
538.5270, 13837.00
539.7050, 13545.00
540.8820, 13557.00
542.0590, 13547.00
543.2360, 13715.00
544.4130, 13777.00
545.5900, 13829.00
546.7660, 13897.00
547.9430, 14044.68
549.1190, 14074.23
550.2950, 14196.94
551.4710, 14231.00
552.6470, 14418.00
553.8220, 14588.00
554.9980, 14739.00
556.1730, 14866.00
557.3480, 15081.00
558.5230, 15138.00
559.6980, 15023.00
560.8730, 14985.00
562.0470, 15073.00
563.2220, 15003.00
564.3960, 15007.94
565.5700, 15047.00
566.7440, 14952.00
567.9170, 14840.00
569.0910, 14779.00
570.2640, 14733.53
571.4380, 14712.00
572.6110, 14710.00
573.7840, 14746.00
574.9570, 14791.00
576.1290, 14716.00
577.3020, 14605.00
578.4740, 14599.00
579.6460, 14564.00
580.8180, 14462.00
581.9900, 14781.00
583.1620, 14775.00
584.3330, 14792.68
585.5040, 14741.00
586.6760, 14768.00
587.8470, 14833.00
589.0180, 14775.00
590.1880, 14944.00
591.3590, 14836.00
592.5290, 14948.00
593.7000, 14900.00
594.8700, 14926.00
596.0400, 15035.00
597.2090, 14934.00
598.3790, 15129.00
599.5490, 15174.00
600.7180, 15281.00
601.8870, 15201.00
603.0560, 15224.00
604.2250, 15258.00
605.3940, 15219.00
606.5620, 15339.00
607.7300, 15418.00
608.8990, 15528.00
610.0670, 15551.12
611.2350, 15594.00
612.4020, 15600.00
613.5700, 15605.00
614.7370, 15674.00
615.9050, 15727.00
617.0720, 15623.93
618.2390, 15918.66
619.4060, 16131.46
620.5720, 16266.66
621.7390, 16092.24
622.9050, 16317.65
624.0710, 16382.78
625.2370, 16441.35
626.4030, 16723.04
627.5690, 16593.58
628.7340, 16871.64
629.9000, 16987.08
631.0650, 17176.90
632.2300, 17205.46
633.3950, 17283.83
634.5600, 17525.00
635.7240, 17641.00
636.8890, 17881.00
638.0530, 18105.00
639.2170, 18601.00
640.3810, 18739.00
641.5450, 19157.00
642.7080, 19671.00
643.8720, 19916.00
645.0350, 20551.00
646.1980, 21145.00
647.3610, 21952.00
648.5240, 22568.00
649.6870, 23086.00
650.8490, 23939.00
652.0120, 24365.00
653.1740, 24644.00
654.3360, 24743.00
655.4980, 24374.00
656.6600, 24260.08
657.8210, 23972.00
658.9830, 23352.00
660.1440, 22820.00
661.3050, 22010.00
662.4660, 21626.00
663.6270, 20971.00
664.7870, 20421.00
665.9480, 19845.00
667.1080, 19438.00
668.2680, 19086.00
669.4280, 18884.00
670.5880, 18671.00
671.7480, 18453.00
672.9070, 18358.00
674.0670, 18199.00
675.2260, 17781.78
676.3850, 18005.57
677.5440, 18147.43
678.7030, 18211.77
679.8610, 17966.38
681.0200, 18120.93
682.1780, 18115.19
683.3360, 18102.87
684.4940, 18313.68
685.6520, 18113.34
686.8090, 18320.58
687.9670, 18352.00
689.1240, 18554.00
690.2810, 18389.00
691.4380, 18442.00
692.5950, 18522.00
693.7520, 18489.00
694.9080, 18507.00
696.0650, 18497.02
697.2210, 18626.00
698.3770, 18429.00
699.5330, 18509.00
700.6880, 18449.00
701.8440, 18594.00
702.9990, 18570.00
704.1550, 18742.00
705.3100, 18526.00
706.4650, 18701.00
707.6190, 18645.00
708.7740, 18668.00
709.9290, 18938.00
711.0830, 18689.00
712.2370, 18730.00
713.3910, 18862.00
714.5450, 18732.00
715.6980, 18697.00
716.8520, 18645.00
718.0050, 18479.00
719.1580, 18480.00
720.3110, 18137.00
721.4640, 18072.00
722.6170, 17931.00
723.7700, 17721.00
724.9220, 17556.00
726.0740, 17217.00
727.2260, 17142.00
728.3780, 16967.00
729.5300, 16960.00
730.6810, 16752.00
731.8330, 16683.00
732.9840, 16517.00
734.1350, 16440.00
735.2860, 16329.00
736.4370, 16308.00
737.5880, 16183.00
738.7380, 16016.00
739.8880, 16000.00
741.0390, 16045.00
742.1890, 15783.00
743.3380, 15670.00
744.4880, 15724.00
745.6380, 15596.14
746.7870, 15415.00
747.9360, 15585.00
749.0850, 15379.00
750.2340, 15412.00
751.3830, 15312.00
752.5310, 15335.00
753.6800, 15312.00
754.8280, 15256.00
755.9760, 15173.00
757.1240, 15119.00
758.2720, 15230.00
759.4190, 15119.00
760.5670, 14923.00
761.7140, 14985.00
762.8610, 15092.00
764.0080, 14916.00
765.1550, 14993.00
766.3020, 14932.00
767.4480, 14936.00
768.5950, 14784.00
769.7410, 14886.00
770.8870, 14746.56
772.0330, 14779.00
773.1780, 14579.00
774.3240, 14650.00
775.4690, 14632.00
776.6140, 14514.19
777.7590, 14520.00
778.9040, 14391.00
780.0490, 14358.00
781.1940, 14398.00
782.3380, 14231.00
783.4820, 14091.16
784.6260, 14249.03
785.7700, 14324.97
786.9140, 14323.40
788.0580, 14012.12
789.2010, 14100.78
790.3450, 14029.15
791.4880, 13950.98
792.6310, 14095.93
793.7730, 13829.75
794.9160, 13971.16
796.0590, 13949.86
797.2010, 14003.05
798.3430, 13894.99
799.4850, 13836.73
800.6270, 13939.78
801.7690, 13953.52
802.9100, 13826.92
804.0520, 13884.85
805.1930, 13613.06
806.3340, 13630.62
807.4750, 13773.03
808.6160, 13654.54
809.7560, 13715.46
810.8970, 13708.04
812.0370, 13390.14
813.1770, 13612.24
814.3170, 13600.80
815.4570, 13349.59
816.5960, 13553.21
817.7360, 13335.04
818.8750, 13267.45
820.0140, 13313.15
821.1530, 13270.00
822.2920, 13350.00
823.4310, 13173.00
824.5690, 13161.00
825.7070, 13297.00
826.8460, 13190.00
827.9840, 13269.00
829.1220, 13282.00
830.2590, 13256.33
831.3970, 13283.00
832.5340, 13229.00
833.6710, 13233.00
834.8080, 13167.00
835.9450, 13416.00
837.0820, 13247.00
838.2190, 13305.00
839.3550, 13415.00
840.4910, 13329.00
841.6270, 13277.00
842.7630, 13372.00
843.8990, 13416.00
845.0350, 13409.00
846.1700, 13331.00
847.3060, 13452.00
848.4410, 13358.00
849.5760, 13450.00
850.7100, 13476.00
851.8450, 13442.00
852.9800, 13528.00
854.1140, 13594.00
855.2480, 13482.00
856.3820, 13482.00
857.5160, 13611.00
858.6500, 13776.00
859.7830, 13595.00
860.9170, 13599.00
862.0500, 13805.00
863.1830, 13898.00
864.3160, 13832.32
865.4480, 14090.00
866.5810, 13739.00
867.7130, 13857.00
868.8460, 13946.00
869.9780, 13897.00
871.1100, 13959.00
872.2410, 14108.00
873.3730, 14026.00
874.5050, 14170.00
875.6360, 14102.00
876.7670, 14222.00
877.8980, 14298.00
879.0290, 14314.00
880.1590, 14205.00
881.2900, 14330.00
882.4200, 14401.00
883.5500, 14548.00
884.6800, 14456.00
885.8100, 14765.00
886.9400, 14561.00
888.0690, 14500.00
889.1990, 14690.00
890.3280, 14789.00
891.4570, 14789.00
892.5860, 14830.00
893.7140, 14826.00
894.8430, 14925.00
895.9710, 14936.28
897.1000, 14984.38
898.2280, 15035.00
899.3560, 15010.00
900.4830, 15110.00
901.6110, 14996.00
902.7380, 15127.00
903.8660, 15172.00
904.9930, 15360.00
906.1200, 15355.00
907.2460, 15321.00
908.3730, 15504.00
909.5000, 15437.00
910.6260, 15581.00
911.7520, 15711.00
912.8780, 15778.00
914.0040, 15904.19
915.1290, 15875.00
916.2550, 16065.00
917.3800, 16042.00
918.5050, 16038.00
919.6300, 16064.08
920.7550, 16288.27
921.8800, 16430.54
923.0040, 16495.26
924.1290, 16250.31
925.2530, 16405.24
926.3770, 16399.90
927.5010, 16387.99
928.6250, 16599.21
929.7480, 16469.00
930.8720, 16447.00
931.9950, 16552.00
933.1180, 16690.00
934.2410, 16603.00
935.3640, 16617.00
936.4860, 16522.00
937.6090, 16829.00
938.7310, 16846.00
939.8530, 16960.00
940.9750, 16905.00
942.0970, 16880.00
943.2180, 16881.00
944.3400, 17054.00
945.4610, 17111.00
946.5820, 17098.00
947.7030, 17378.00
948.8240, 17122.00
949.9450, 17330.00
951.0650, 17215.00
952.1860, 17279.00
953.3060, 17390.00
954.4260, 17214.00
955.5460, 17003.00
956.6650, 17076.00
957.7850, 16877.00
958.9040, 16735.00
960.0230, 16689.00
961.1420, 16627.00
962.2610, 16398.00
963.3800, 16434.00
964.4990, 16428.00
965.6170, 16143.00
966.7350, 16275.00
967.8530, 16001.00
968.9710, 16114.00
970.0890, 15882.00
971.2070, 16012.00
972.3240, 15900.00
973.4410, 15932.02
974.5580, 15966.65
975.6750, 15939.00
976.7920, 16036.00
977.9090, 15841.00
979.0250, 15895.00
980.1410, 16102.00
981.2580, 16201.00
982.3740, 15995.00
983.4890, 16060.00
984.6050, 16090.00
985.7200, 15967.00
986.8360, 16065.32
987.9510, 16216.00
989.0660, 16206.00
990.1810, 16258.00
991.2950, 16465.00
992.4100, 16417.00
993.5240, 16494.00
994.6390, 16405.00
995.7530, 16558.00
996.8660, 16474.00
997.9800, 16558.00
999.0940, 16470.00
1000.207, 16450.00
1001.320, 16749.00
1002.433, 16884.00
1003.546, 16851.00
1004.659, 17065.00
1005.772, 16790.00
1006.884, 16968.00
1007.996, 16976.00
1009.108, 17233.00
1010.220, 17225.00
1011.332, 17479.00
1012.444, 17442.00
1013.555, 17496.00
1014.666, 17495.00
1015.777, 17686.00
1016.888, 17884.00
1017.999, 18017.00
1019.110, 18191.56
1020.220, 18256.00
1021.331, 18459.00
1022.441, 18733.00
1023.551, 18808.00
1024.661, 19006.00
1025.770, 19116.00
1026.880, 19293.00
1027.989, 19206.00
1029.098, 19319.00
1030.207, 20601.00
1031.316, 21331.00
1032.425, 20660.67
1033.533, 19613.00
1034.642, 19351.00
1035.750, 19108.00
1036.858, 18825.00
1037.966, 18578.00
1039.073, 18412.00
1040.181, 18321.06
1041.288, 18057.00
1042.396, 18166.00
1043.503, 17965.00
1044.610, 17666.00
1045.716, 17486.00
1046.823, 17226.00
1047.929, 17428.00
1049.036, 16995.00
1050.142, 17065.92
1051.248, 16805.00
1052.353, 16875.00
1053.459, 16886.00
1054.564, 16499.00
1055.670, 16539.00
1056.775, 16408.00
1057.880, 16376.00
1058.985, 16424.00
1060.089, 16208.00
1061.194, 16177.00
1062.298, 16108.00
1063.402, 16194.00
1064.506, 16118.49
1065.610, 16211.00
1066.713, 16064.00
1067.817, 16014.00
1068.920, 16004.00
1070.023, 16016.00
1071.126, 16013.00
1072.229, 15915.00
1073.332, 15860.00
1074.435, 15859.48
1075.537, 15844.00
1076.639, 15862.00
1077.741, 15793.00
1078.843, 15811.00
1079.945, 15824.00
1081.046, 15896.00
1082.148, 15658.00
1083.249, 15812.00
1084.350, 15815.17
1085.451, 15734.39
1086.551, 15927.00
1087.652, 15678.00
1088.752, 15623.00
1089.853, 15625.00
1090.953, 15506.00
1092.053, 15626.00
1093.152, 15628.00
1094.252, 15499.00
1095.351, 15390.00
1096.451, 15564.00
1097.550, 15434.00
1098.649, 15454.00
1099.748, 15283.00
1100.846, 15382.00
1101.945, 15394.00
1103.043, 15529.00
1104.141, 15241.00
1105.239, 15089.00
1106.337, 15105.07
1107.434, 14984.05
1108.532, 15062.00
1109.629, 14992.00
1110.726, 15030.00
1111.823, 15096.00
1112.920, 14993.00
1114.017, 15178.00
1115.113, 15186.00
1116.210, 15513.00
1117.306, 15520.00
1118.402, 16062.00
1119.498, 15967.00
1120.593, 16231.00
1121.689, 16525.00
1122.784, 16341.00
1123.879, 16260.00
1124.974, 15955.00
1126.069, 15894.00
1127.164, 15610.00
1128.259, 15565.00
1129.353, 15093.00
1130.447, 14828.00
1131.541, 14720.00
1132.635, 14540.00
1133.729, 15045.00
1134.822, 14738.41
1135.916, 14644.00
1137.009, 14647.00
1138.102, 14360.00
1139.195, 14501.00
1140.288, 14400.00
1141.380, 14293.00
1142.473, 14424.00
1143.565, 14301.00
1144.657, 14298.00
1145.749, 14325.00
1146.841, 14360.00
1147.932, 14330.00
1149.024, 14354.00
1150.115, 14430.00
1151.206, 14301.00
1152.297, 14332.00
1153.388, 14136.00
1154.479, 14222.00
1155.569, 14238.00
1156.659, 14278.00
1157.750, 14287.00
1158.839, 14293.00
1159.929, 14318.00
1161.019, 14367.00
1162.108, 14390.00
1163.198, 14281.00
1164.287, 14206.00
1165.376, 14176.00
1166.465, 14163.25
1167.553, 14182.00
1168.642, 14188.00
1169.730, 14278.00
1170.818, 14250.00
1171.906, 14341.00
1172.994, 14233.00
1174.082, 14206.00
1175.170, 14185.00
1176.257, 14184.88
1177.344, 14147.00
1178.431, 14275.00
1179.518, 14256.00
1180.605, 14350.45
1181.691, 14394.00
1182.778, 14423.00
1183.864, 14192.00
1184.950, 14215.00
1186.036, 14217.00
1187.122, 14170.00
1188.207, 14218.00
1189.292, 14349.00
1190.378, 14248.00
1191.463, 14121.00
1192.548, 14254.00
1193.632, 14145.00
1194.717, 14130.00
1195.801, 14272.00
1196.886, 14161.00
1197.970, 14183.00
1199.054, 14244.28
1200.137, 14250.00
1201.221, 14189.00
1202.305, 14247.50
1203.388, 14124.07
1204.471, 14273.62
1205.554, 14309.00
1206.637, 14285.00
1207.719, 14266.00
1208.802, 14199.00
1209.884, 14364.00
1210.966, 14210.00
1212.048, 14435.00
1213.130, 14469.00
1214.212, 14272.00
1215.293, 14329.00
1216.374, 14433.00
1217.456, 14409.00
1218.536, 14455.00
1219.617, 14369.00
1220.698, 14369.00
1221.778, 14358.00
1222.859, 14358.00
1223.939, 14330.00
1225.019, 14430.00
1226.099, 14439.00
1227.178, 14354.00
1228.258, 14543.00
1229.337, 14456.00
1230.417, 14519.00
1231.496, 14354.00
1232.574, 14515.00
1233.653, 14426.00
1234.732, 14369.00
1235.810, 14482.00
1236.888, 14440.45
1237.966, 14472.00
1239.044, 14513.00
1240.122, 14499.00
1241.199, 14541.00
1242.277, 14583.00
1243.354, 14575.00
1244.431, 14541.00
1245.508, 14570.10
1246.585, 14575.29
1247.661, 14570.00
1248.738, 14607.00
1249.814, 14577.06
1250.890, 14549.78
1251.966, 14689.00
1253.042, 14582.00
1254.117, 14640.00
1255.193, 14460.00
1256.268, 14530.00
1257.343, 14537.00
1258.418, 14670.00
1259.493, 14610.00
1260.567, 14560.00
1261.642, 14615.00
1262.716, 14712.00
1263.790, 14633.00
1264.864, 14620.00
1265.938, 14571.00
1267.011, 14560.64
1268.085, 14486.00
1269.158, 14612.00
1270.231, 14618.00
1271.304, 14760.00
1272.377, 14724.00
1273.450, 14614.00
1274.522, 14598.00
1275.594, 14558.00
1276.666, 14662.00
1277.738, 14651.00
1278.810, 14712.00
1279.882, 14757.00
1280.953, 14699.00
1282.025, 14732.00
1283.096, 14766.87
1284.167, 14725.86
1285.238, 14852.00
1286.308, 14709.00
1287.379, 14721.00
1288.449, 14762.00
1289.519, 14694.00
1290.589, 14790.00
1291.659, 14878.00
1292.729, 14710.00
1293.798, 14851.00
1294.868, 14881.00
1295.937, 14689.00
1297.006, 14871.00
1298.075, 14814.00
1299.143, 14823.00
1300.212, 14769.00
1301.280, 14779.00
1302.348, 14791.00
1303.416, 14714.00
1304.484, 14770.00
1305.552, 14733.00
1306.620, 14905.00
1307.687, 14757.00
1308.754, 14689.67
1309.821, 14879.38
1310.888, 14987.18
1311.955, 15017.45
1313.021, 14738.02
1314.088, 14858.51
1315.154, 14818.72
1316.220, 14772.37
1317.286, 14949.14
1318.352, 14714.76
1319.417, 14887.99
1320.483, 14898.51
1321.548, 14983.49
1322.613, 14907.22
1323.678, 14880.76
1324.743, 15015.61
1325.807, 15061.13
1326.872, 14966.30
1327.936, 15056.02
1329.000, 14815.99
1330.064, 14865.32
1331.128, 15039.49
1332.191, 14952.76
1333.255, 15045.43
1334.318, 15069.77
1335.381, 14783.61
1336.444, 15037.44
1337.507, 15057.74
1338.569, 14838.26
1339.632, 15073.59
1340.694, 14887.17
1341.756, 14851.28
1342.818, 14928.68
1343.880, 14887.99
1344.941, 15033.49
1346.003, 14999.61
1347.064, 14949.71
1348.125, 14969.74
1349.186, 14791.58
1350.247, 14981.12
1351.308, 14919.49
1352.368, 14982.70
1353.428, 15074.21
1354.489, 14949.05
1355.549, 15053.27
1356.608, 14801.76
1357.668, 14847.91
1358.727, 14862.00
1359.787, 15066.35
1360.846, 14816.58
1361.905, 14854.45
1362.964, 15014.81
1364.022, 15003.78
1365.081, 15064.41
1366.139, 14912.92
1367.197, 14960.70
1368.255, 14953.55
1369.313, 15136.21
1370.371, 15169.02
1371.428, 15021.12
1372.486, 14873.99
1373.543, 15070.31
1374.600, 14941.10
1375.657, 14987.51
1376.713, 14852.54
1377.770, 14874.18
1378.826, 14893.33
1379.882, 14992.76
1380.938, 14848.76
1381.994, 15020.53
1383.050, 15009.79
1384.106, 15052.81
1385.161, 15089.85
1386.216, 14881.99
1387.271, 14874.89
1388.326, 15155.06
1389.381, 14997.13
1390.435, 14927.62
1391.490, 14920.97
1392.544, 15210.97
1393.598, 15225.24
1394.652, 14909.91
1395.705, 15186.84
1396.759, 15099.40
1397.812, 15120.24
1398.866, 15101.58
1399.919, 15094.60
1400.972, 14938.88
1402.024, 14979.18
1403.077, 14878.00
1404.129, 15079.00
1405.181, 15062.00
1406.233, 15189.00
1407.285, 15054.00
1408.337, 15010.00
1409.389, 15075.00
1410.440, 15030.00
1411.491, 15179.00
1412.542, 15128.00
1413.593, 14964.00
1414.644, 15192.00
1415.695, 15117.00
1416.745, 15208.00
1417.795, 15129.00
1418.845, 15123.04
1419.895, 15139.49
1420.945, 15043.00
1421.995, 15170.00
1423.044, 15082.00
1424.093, 15160.00
1425.142, 15314.00
1426.191, 15149.00
1427.240, 15134.00
1428.289, 15163.00
1429.337, 15270.00
1430.385, 15287.00
1431.433, 15348.65
1432.481, 15350.37
1433.529, 15378.00
1434.577, 15328.00
1435.624, 15189.00
1436.672, 15178.00
1437.719, 15239.46
1438.766, 15261.19
1439.812, 15370.00
1440.859, 15414.00
1441.905, 15306.00
1442.952, 15284.00
1443.998, 15446.00
1445.044, 15194.00
1446.090, 15347.00
1447.135, 15421.77
1448.181, 15386.00
1449.226, 15595.00
1450.271, 15517.00
1451.316, 15409.00
1452.361, 15431.00
1453.405, 15480.00
1454.450, 15471.00
1455.494, 15501.00
1456.538, 15498.22
1457.582, 15535.00
1458.626, 15477.00
1459.670, 15548.00
1460.713, 15528.00
1461.757, 15432.00
1462.800, 15357.00
1463.843, 15496.00
1464.886, 15522.00
1465.928, 15607.00
1466.971, 15596.70
1468.013, 15708.00
1469.055, 15524.00
1470.097, 15475.00
1471.139, 15413.00
1472.181, 15552.00
1473.222, 15529.00
1474.263, 15461.00
1475.305, 15675.00
1476.346, 15574.61
1477.386, 15565.87
1478.427, 15592.00
1479.468, 15462.00
1480.508, 15563.00
1481.548, 15556.00
1482.588, 15699.00
1483.628, 15504.00
1484.668, 15693.00
1485.707, 15571.00
1486.747, 15645.00
1487.786, 15628.00
1488.825, 15619.00
1489.864, 15523.00
1490.902, 15611.00
1491.941, 15314.22
1492.979, 15510.09
1494.017, 15624.03
1495.055, 15660.46
1496.093, 15387.18
1497.131, 15513.82
1498.168, 15480.19
1499.206, 15439.99
1500.243, 15622.90
1501.280, 15394.67
1502.317, 15574.04
1503.354, 15590.71
1504.390, 15681.84
1505.426, 15611.71
1506.463, 15591.39
1507.499, 15732.38
1508.535, 15784.04
1509.570, 15695.34
1510.606, 15791.20
1511.641, 15557.31
1512.676, 15612.78
1513.711, 15793.08
1514.746, 15712.49
1515.781, 15811.29
1516.816, 15841.77
1517.850, 15561.73
1518.884, 15821.69
1519.918, 15848.12
1520.952, 15634.77
1521.986, 15876.23
1523.019, 15695.93
1524.053, 15666.17
1525.086, 15749.70
1526.119, 15715.12
1527.152, 15866.75
1528.185, 15839.00
1529.217, 15795.21
1530.250, 15821.37
1531.282, 15649.32
1532.314, 15844.97
1533.346, 15789.46
1534.377, 15858.78
1535.409, 15956.41
1536.440, 15837.35
1537.472, 15947.70
1538.503, 15702.30
1539.534, 15754.56
1540.564, 15774.75
1541.595, 15985.22
1542.625, 15741.54
1543.656, 15785.53
1544.686, 15951.99
1545.716, 15947.07
1546.745, 16013.80
1547.775, 15868.41
1548.804, 15922.29
1549.834, 15921.24
1550.863, 16110.00
1551.892, 16148.91
1552.920, 16007.11
1553.949, 15866.07
1554.977, 16068.48
1556.006, 15945.37
1557.034, 15997.88
1558.062, 15869.00
1559.089, 15974.00
1560.117, 15953.00
1561.144, 15995.00
1562.172, 15989.00
1563.199, 15931.00
1564.226, 15911.00
1565.252, 16063.00
1566.279, 16029.00
1567.305, 15998.00
1568.332, 16073.00
1569.358, 16310.00
1570.384, 16125.00
##END=



