##NAMES=Laverovite
##RRUFFID=R060216
##IDEAL CHEMISTRY=K_2_NaMn^2+^_7_Zr^4+^_2_(Si_4_O_12_)_2_O_2_(OH)_4_F
##LOCALITY=Desourdy Quarry, Mont Saint-Hilaire, Rouville County, Quebec, Canada
##OWNER=RRUFF
##SOURCE=Royal Ontario Museum
##DESCRIPTION=Brown fragment showing lamellar habit. Type sample
##STATUS=The identification of this mineral has been confirmed by X-ray diffraction and chemical analysis
##URL=rruff.info/R060216
##MEASURED CHEMISTRY=(K_1.74_Na_0.18_[box]_0.08_)_Σ=2_(Na_0.92_Ca_0.08_)_Σ=1_(Mn_4.09_Fe^2+^_2.67_Mg_0.24_)_Σ=7_(Zr_1.42_Ti_0.58_)_Σ=2_(Si_7.86_Al_0.14_)_Σ=8_O_26_((OH)_3.14_O_0.86_)_Σ=4_
##PIN_ID=M00393
##ORIENTATION=Laser parallel to a* (1 0 0). Fiducial mark perpendicular to laser is parallel to b [0 1 0]
121.8270, 26253.00
123.0580, 25935.00
124.2880, 26056.00
125.5190, 26246.00
126.7490, 26553.00
127.9790, 26457.00
129.2090, 26733.00
130.4390, 26610.00
131.6680, 26811.32
132.8980, 26856.00
134.1270, 27141.00
135.3560, 27400.00
136.5850, 27558.00
137.8140, 27505.00
139.0430, 27388.00
140.2710, 27120.00
141.5000, 27114.00
142.7280, 26927.00
143.9560, 26900.23
145.1840, 27046.00
146.4120, 26930.00
147.6390, 27095.00
148.8670, 27227.00
150.0940, 27614.00
151.3210, 27556.00
152.5490, 27430.00
153.7750, 27250.00
155.0020, 27559.00
156.2290, 27415.00
157.4550, 27894.00
158.6810, 27964.00
159.9080, 28369.00
161.1340, 29060.00
162.3590, 29216.00
163.5850, 29584.00
164.8110, 29853.00
166.0360, 30104.00
167.2610, 30285.00
168.4860, 30730.00
169.7110, 30504.00
170.9360, 30689.00
172.1610, 30614.00
173.3850, 30438.00
174.6100, 30678.00
175.8340, 30285.00
177.0580, 30043.00
178.2820, 29892.00
179.5050, 29641.75
180.7290, 29316.00
181.9520, 29347.00
183.1760, 29212.41
184.3990, 29153.00
185.6220, 29243.00
186.8450, 29191.00
188.0670, 29058.00
189.2900, 29380.00
190.5120, 29072.00
191.7340, 29316.00
192.9560, 29407.00
194.1780, 29171.53
195.4000, 29354.70
196.6220, 29461.95
197.8430, 29497.34
199.0640, 29245.70
200.2860, 29364.71
201.5070, 29335.17
202.7270, 29299.54
203.9480, 29470.70
205.1690, 29260.81
206.3890, 29428.69
207.6090, 29445.77
208.8290, 29531.86
210.0490, 29468.50
211.2690, 29451.30
212.4890, 29583.61
213.7080, 29633.13
214.9280, 29552.56
216.1470, 29643.04
217.3660, 29427.90
218.5850, 29480.95
219.8030, 29434.00
221.0220, 29620.00
222.2400, 29615.00
223.4590, 29750.00
224.6770, 29631.00
225.8950, 29500.00
227.1120, 29798.00
228.3300, 29576.00
229.5480, 29644.00
230.7650, 29770.00
231.9820, 29572.00
233.1990, 29864.00
234.4160, 29860.00
235.6330, 29654.00
236.8490, 29789.00
238.0660, 29446.00
239.2820, 29731.00
240.4980, 30069.72
241.7140, 29789.12
242.9300, 29897.01
244.1460, 29674.00
245.3610, 29545.00
246.5770, 29767.00
247.7920, 29435.00
249.0070, 29305.48
250.2220, 29482.12
251.4370, 29582.85
252.6510, 29611.72
253.8660, 29353.56
255.0800, 29466.05
256.2940, 29429.99
257.5080, 29387.85
258.7220, 29552.50
259.9360, 29336.09
261.1490, 29497.46
262.3630, 29508.02
263.5760, 29587.61
264.7890, 29517.74
266.0020, 29494.03
267.2150, 29619.82
268.4270, 29662.83
269.6400, 29575.75
270.8520, 29659.72
272.0640, 29513.00
273.2760, 29756.00
274.4880, 29462.00
275.7000, 29812.00
276.9120, 29613.00
278.1230, 29731.00
279.3340, 29654.00
280.5450, 29807.00
281.7560, 29708.00
282.9670, 29579.00
284.1780, 29703.00
285.3880, 29805.00
286.5980, 29751.00
287.8090, 29917.00
289.0190, 29843.00
290.2290, 29885.00
291.4380, 29899.00
292.6480, 29698.00
293.8570, 29990.00
295.0670, 29939.00
296.2760, 29815.00
297.4850, 30128.00
298.6930, 29875.00
299.9020, 30107.00
301.1110, 30315.00
302.3190, 30096.00
303.5270, 30323.00
304.7350, 30309.00
305.9430, 30227.00
307.1510, 30430.00
308.3580, 30342.00
309.5660, 30241.00
310.7730, 30401.00
311.9800, 30516.00
313.1870, 30728.00
314.3940, 30538.00
315.6010, 30257.00
316.8070, 30267.00
318.0130, 30377.00
319.2200, 30657.00
320.4260, 30559.00
321.6310, 30594.00
322.8370, 30549.00
324.0430, 30674.00
325.2480, 30537.00
326.4540, 30640.00
327.6590, 30952.00
328.8640, 30762.00
330.0680, 30694.00
331.2730, 30905.00
332.4780, 30736.00
333.6820, 30866.00
334.8860, 30895.00
336.0900, 31144.00
337.2940, 31264.00
338.4980, 31229.00
339.7010, 31156.00
340.9050, 31503.00
342.1080, 31081.00
343.3110, 31408.00
344.5140, 31316.00
345.7170, 31459.00
346.9200, 31266.00
348.1220, 31475.00
349.3240, 31623.00
350.5270, 31590.00
351.7290, 31577.00
352.9310, 31592.00
354.1320, 31351.00
355.3340, 31655.00
356.5350, 31698.00
357.7370, 31579.00
358.9380, 31830.00
360.1390, 31751.00
361.3400, 31826.00
362.5400, 31832.00
363.7410, 32023.00
364.9410, 31775.00
366.1410, 31978.00
367.3410, 32031.00
368.5410, 32039.00
369.7410, 31675.00
370.9400, 31989.00
372.1400, 32483.00
373.3390, 32010.00
374.5380, 32013.00
375.7370, 32305.00
376.9360, 32003.00
378.1350, 32086.00
379.3330, 32135.00
380.5310, 32148.00
381.7300, 31911.00
382.9280, 32091.00
384.1260, 32015.52
385.3230, 32188.00
386.5210, 32025.00
387.7180, 32044.00
388.9160, 32001.00
390.1130, 31904.00
391.3100, 32008.00
392.5060, 32066.00
393.7030, 32050.00
394.9000, 31945.00
396.0960, 32041.00
397.2920, 32009.20
398.4880, 31965.00
399.6840, 31987.00
400.8800, 32005.00
402.0750, 31851.00
403.2710, 31975.00
404.4660, 32102.00
405.6610, 31837.00
406.8560, 31795.00
408.0510, 31981.00
409.2450, 31775.00
410.4400, 31937.00
411.6340, 31823.00
412.8280, 32046.00
414.0220, 32211.00
415.2160, 31866.00
416.4100, 32047.00
417.6030, 32067.00
418.7970, 31908.00
419.9900, 32126.00
421.1830, 32130.00
422.3760, 32297.00
423.5690, 32010.00
424.7610, 32277.00
425.9540, 32020.00
427.1460, 32200.00
428.3380, 32317.00
429.5300, 32032.00
430.7220, 32411.00
431.9140, 32060.00
433.1050, 32185.00
434.2970, 32139.00
435.4880, 32324.00
436.6790, 32419.00
437.8700, 32279.00
439.0610, 32378.00
440.2510, 32496.00
441.4420, 32301.00
442.6320, 32651.00
443.8220, 32439.00
445.0120, 32327.00
446.2020, 32702.00
447.3910, 32549.00
448.5810, 32476.00
449.7700, 32423.00
450.9600, 32705.00
452.1490, 32755.00
453.3370, 32766.00
454.5260, 32852.00
455.7150, 32816.00
456.9030, 32873.00
458.0910, 33006.00
459.2800, 32806.00
460.4670, 33035.68
461.6550, 33244.00
462.8430, 33277.00
464.0300, 33201.00
465.2180, 33203.00
466.4050, 33420.00
467.5920, 33234.88
468.7790, 33433.54
469.9650, 33556.27
471.1520, 33607.16
472.3380, 33371.01
473.5250, 33505.52
474.7110, 33491.46
475.8970, 33471.32
477.0820, 33657.96
478.2680, 33463.55
479.4540, 33646.92
480.6390, 33679.47
481.8240, 33781.04
483.0090, 33733.15
484.1940, 33731.43
485.3780, 33879.18
486.5630, 33944.18
487.7470, 33879.06
488.9320, 33829.00
490.1160, 33935.00
491.3000, 33909.00
492.4830, 34017.00
493.6670, 34101.00
494.8500, 33815.00
496.0340, 33925.00
497.2170, 33938.00
498.4000, 34070.00
499.5820, 34020.00
500.7650, 34061.00
501.9480, 33960.00
503.1300, 34128.00
504.3120, 33873.00
505.4940, 34208.00
506.6760, 34030.00
507.8580, 34235.00
509.0390, 34405.00
510.2210, 34033.00
511.4020, 34342.00
512.5830, 34389.00
513.7640, 34323.00
514.9450, 34234.00
516.1250, 34264.00
517.3060, 34503.00
518.4860, 34498.00
519.6660, 34271.00
520.8460, 34207.00
522.0260, 34496.00
523.2060, 34721.00
524.3850, 34584.00
525.5650, 34627.00
526.7440, 34893.00
527.9230, 34763.00
529.1020, 34698.00
530.2810, 34843.00
531.4590, 34867.00
532.6380, 34832.00
533.8160, 34961.15
534.9940, 35033.00
536.1720, 35118.00
537.3500, 35111.00
538.5270, 35174.00
539.7050, 35103.00
540.8820, 35295.00
542.0590, 35387.00
543.2360, 35395.00
544.4130, 35766.00
545.5900, 35590.00
546.7660, 35848.00
547.9430, 36078.00
549.1190, 35811.00
550.2950, 36169.00
551.4710, 36268.00
552.6470, 36321.00
553.8220, 36436.00
554.9980, 36430.00
556.1730, 36547.61
557.3480, 36716.00
558.5230, 36683.00
559.6980, 36686.00
560.8730, 36634.00
562.0470, 36593.00
563.2220, 36493.00
564.3960, 36749.00
565.5700, 36432.00
566.7440, 36644.00
567.9170, 36681.00
569.0910, 36674.00
570.2640, 36670.00
571.4380, 36686.48
572.6110, 36604.00
573.7840, 36648.00
574.9570, 36654.00
576.1290, 36527.00
577.3020, 36563.00
578.4740, 36631.00
579.6460, 36621.00
580.8180, 36708.50
581.9900, 36747.15
583.1620, 36877.00
584.3330, 36858.00
585.5040, 36988.00
586.6760, 37052.00
587.8470, 37047.00
589.0180, 37250.00
590.1880, 37065.00
591.3590, 37381.00
592.5290, 37368.00
593.7000, 37318.00
594.8700, 37510.00
596.0400, 37565.00
597.2090, 37552.00
598.3790, 37656.20
599.5490, 37645.23
600.7180, 37735.00
601.8870, 37662.00
603.0560, 37691.00
604.2250, 37694.00
605.3940, 37729.98
606.5620, 38062.00
607.7300, 37879.00
608.8990, 38186.00
610.0670, 38338.00
611.2350, 38212.00
612.4020, 38314.00
613.5700, 38436.00
614.7370, 38499.32
615.9050, 38723.00
617.0720, 38815.00
618.2390, 38882.00
619.4060, 39102.00
620.5720, 38932.00
621.7390, 39065.00
622.9050, 39037.50
624.0710, 39060.00
625.2370, 39107.00
626.4030, 39215.00
627.5690, 39527.00
628.7340, 39509.00
629.9000, 39890.00
631.0650, 39709.00
632.2300, 39945.00
633.3950, 39630.00
634.5600, 40139.00
635.7240, 40443.00
636.8890, 40632.00
638.0530, 40730.00
639.2170, 40631.00
640.3810, 40904.00
641.5450, 41071.00
642.7080, 41485.00
643.8720, 41599.00
645.0350, 41887.00
646.1980, 42504.00
647.3610, 42705.00
648.5240, 43183.00
649.6870, 43564.56
650.8490, 43644.00
652.0120, 44074.00
653.1740, 44177.00
654.3360, 43923.00
655.4980, 44197.00
656.6600, 43590.00
657.8210, 43353.00
658.9830, 42865.00
660.1440, 42798.00
661.3050, 42721.00
662.4660, 42453.00
663.6270, 42470.00
664.7870, 42097.00
665.9480, 42180.00
667.1080, 41753.00
668.2680, 41896.00
669.4280, 41952.00
670.5880, 42060.00
671.7480, 41958.00
672.9070, 42014.00
674.0670, 42086.00
675.2260, 42291.00
676.3850, 42127.00
677.5440, 42325.00
678.7030, 42441.00
679.8610, 42459.00
681.0200, 42761.00
682.1780, 42902.00
683.3360, 43145.00
684.4940, 43143.00
685.6520, 43441.00
686.8090, 43532.00
687.9670, 43490.00
689.1240, 43431.00
690.2810, 43684.00
691.4380, 43769.00
692.5950, 43914.00
693.7520, 43839.00
694.9080, 44120.00
696.0650, 43838.00
697.2210, 44206.00
698.3770, 44842.00
699.5330, 44466.70
700.6880, 44531.00
701.8440, 44220.00
702.9990, 44293.00
704.1550, 44318.00
705.3100, 44689.00
706.4650, 44652.00
707.6190, 44617.00
708.7740, 44510.00
709.9290, 44605.00
711.0830, 44959.00
712.2370, 44705.00
713.3910, 45298.00
714.5450, 45172.95
715.6980, 44978.00
716.8520, 45111.00
718.0050, 44952.00
719.1580, 44766.00
720.3110, 44639.00
721.4640, 44524.64
722.6170, 44445.00
723.7700, 44377.00
724.9220, 44369.00
726.0740, 44382.00
727.2260, 44299.00
728.3780, 44278.86
729.5300, 44223.62
730.6810, 44122.00
731.8330, 44105.00
732.9840, 43920.00
734.1350, 43855.00
735.2860, 43905.00
736.4370, 43782.00
737.5880, 43827.00
738.7380, 43676.00
739.8880, 43728.00
741.0390, 43609.00
742.1890, 43399.00
743.3380, 43480.00
744.4880, 43460.00
745.6380, 43445.00
746.7870, 43307.00
747.9360, 43320.00
749.0850, 43523.00
750.2340, 43516.00
751.3830, 43244.00
752.5310, 43480.00
753.6800, 43397.00
754.8280, 43629.00
755.9760, 43234.00
757.1240, 43542.00
758.2720, 43342.00
759.4190, 43730.00
760.5670, 43612.00
761.7140, 43441.00
762.8610, 43427.00
764.0080, 43616.00
765.1550, 43481.00
766.3020, 43393.00
767.4480, 43663.00
768.5950, 43300.00
769.7410, 43491.00
770.8870, 43524.00
772.0330, 43416.00
773.1780, 43183.00
774.3240, 43216.00
775.4690, 43074.77
776.6140, 43002.00
777.7590, 42999.00
778.9040, 42917.00
780.0490, 42902.58
781.1940, 42900.00
782.3380, 42859.00
783.4820, 42940.00
784.6260, 42927.00
785.7700, 43004.56
786.9140, 42944.56
788.0580, 43028.00
789.2010, 42851.00
790.3450, 42729.00
791.4880, 42750.00
792.6310, 42677.00
793.7730, 42548.00
794.9160, 42365.00
796.0590, 42319.57
797.2010, 42258.62
798.3430, 42184.00
799.4850, 42186.00
800.6270, 42149.00
801.7690, 42009.00
802.9100, 42068.00
804.0520, 42224.00
805.1930, 42177.00
806.3340, 41883.00
807.4750, 42145.00
808.6160, 41863.00
809.7560, 42028.00
810.8970, 41871.00
812.0370, 41933.00
813.1770, 41950.00
814.3170, 42138.00
815.4570, 41978.47
816.5960, 42292.00
817.7360, 41687.00
818.8750, 42025.00
820.0140, 41867.00
821.1530, 41656.00
822.2920, 41864.00
823.4310, 42014.00
824.5690, 41814.00
825.7070, 41831.00
826.8460, 42073.00
827.9840, 41731.00
829.1220, 41642.00
830.2590, 42032.00
831.3970, 42147.00
832.5340, 42196.00
833.6710, 42174.00
834.8080, 41841.00
835.9450, 42055.00
837.0820, 41862.00
838.2190, 42485.00
839.3550, 42047.00
840.4910, 42173.00
841.6270, 42135.00
842.7630, 41885.00
843.8990, 42101.00
845.0350, 42116.00
846.1700, 42389.00
847.3060, 41962.00
848.4410, 42535.00
849.5760, 42219.00
850.7100, 42288.00
851.8450, 42503.00
852.9800, 42335.00
854.1140, 42663.00
855.2480, 42398.00
856.3820, 42587.00
857.5160, 42712.00
858.6500, 42415.00
859.7830, 42829.00
860.9170, 42844.00
862.0500, 42590.00
863.1830, 42901.00
864.3160, 43073.00
865.4480, 42830.00
866.5810, 42981.00
867.7130, 42869.00
868.8460, 43263.00
869.9780, 42979.00
871.1100, 43136.00
872.2410, 43033.00
873.3730, 43140.00
874.5050, 43435.00
875.6360, 43347.00
876.7670, 43438.00
877.8980, 43417.00
879.0290, 43447.00
880.1590, 43164.00
881.2900, 43574.00
882.4200, 43337.00
883.5500, 43367.00
884.6800, 43685.00
885.8100, 43811.00
886.9400, 43777.00
888.0690, 43870.00
889.1990, 43827.00
890.3280, 43779.00
891.4570, 43977.00
892.5860, 44072.00
893.7140, 44126.00
894.8430, 44110.00
895.9710, 44253.00
897.1000, 44181.00
898.2280, 44137.00
899.3560, 44447.00
900.4830, 44313.00
901.6110, 44651.00
902.7380, 44120.00
903.8660, 44531.00
904.9930, 44388.00
906.1200, 44556.00
907.2460, 44540.00
908.3730, 44784.00
909.5000, 44525.00
910.6260, 44868.00
911.7520, 44521.00
912.8780, 44758.00
914.0040, 44817.00
915.1290, 45137.00
916.2550, 45080.00
917.3800, 45085.00
918.5050, 44963.00
919.6300, 44843.00
920.7550, 44921.35
921.8800, 44915.60
923.0040, 45042.00
924.1290, 45145.00
925.2530, 45201.00
926.3770, 45450.00
927.5010, 45270.00
928.6250, 45460.00
929.7480, 45583.00
930.8720, 45274.00
931.9950, 45748.00
933.1180, 45678.00
934.2410, 45985.00
935.3640, 45780.00
936.4860, 45824.38
937.6090, 45693.00
938.7310, 45733.00
939.8530, 45834.00
940.9750, 45831.00
942.0970, 45835.00
943.2180, 45763.00
944.3400, 46187.00
945.4610, 45955.00
946.5820, 46038.00
947.7030, 45962.00
948.8240, 45896.00
949.9450, 46356.00
951.0650, 46195.00
952.1860, 46337.00
953.3060, 46115.00
954.4260, 46212.00
955.5460, 46475.00
956.6650, 46114.00
957.7850, 46080.00
958.9040, 46182.00
960.0230, 46178.00
961.1420, 46259.00
962.2610, 46296.00
963.3800, 46137.00
964.4990, 46089.00
965.6170, 46206.00
966.7350, 46301.00
967.8530, 46346.00
968.9710, 46225.00
970.0890, 46400.00
971.2070, 46578.00
972.3240, 46428.00
973.4410, 46560.00
974.5580, 46848.00
975.6750, 46483.00
976.7920, 46914.00
977.9090, 46769.00
979.0250, 46804.00
980.1410, 46913.00
981.2580, 47112.00
982.3740, 47274.00
983.4890, 46957.00
984.6050, 47010.00
985.7200, 47182.00
986.8360, 47361.00
987.9510, 47547.00
989.0660, 47527.00
990.1810, 47452.00
991.2950, 47757.00
992.4100, 47685.00
993.5240, 48079.00
994.6390, 47837.00
995.7530, 47866.00
996.8660, 48475.00
997.9800, 48709.00
999.0940, 48728.00
1000.207, 48833.00
1001.320, 49175.00
1002.433, 49143.00
1003.546, 49466.00
1004.659, 49629.00
1005.772, 49700.00
1006.884, 50211.00
1007.996, 50458.00
1009.108, 50839.62
1010.220, 51500.00
1011.332, 51604.00
1012.444, 51948.00
1013.555, 52187.00
1014.666, 52682.00
1015.777, 52733.00
1016.888, 53090.00
1017.999, 53634.00
1019.110, 54011.00
1020.220, 54468.58
1021.331, 54833.00
1022.441, 55344.54
1023.551, 55680.00
1024.661, 56069.00
1025.770, 56299.00
1026.880, 56538.00
1027.989, 56532.00
1029.098, 57050.00
1030.207, 56759.00
1031.316, 56806.00
1032.425, 56510.00
1033.533, 56163.00
1034.642, 56188.00
1035.750, 55808.00
1036.858, 55093.00
1037.966, 54579.00
1039.073, 54608.00
1040.181, 53958.00
1041.288, 53473.00
1042.396, 53185.00
1043.503, 52756.29
1044.610, 52698.00
1045.716, 52164.00
1046.823, 51856.00
1047.929, 51548.00
1049.036, 51551.00
1050.142, 51396.00
1051.248, 51299.00
1052.353, 50961.00
1053.459, 51032.00
1054.564, 50681.00
1055.670, 51016.00
1056.775, 50390.00
1057.880, 50619.00
1058.985, 50240.00
1060.089, 50250.00
1061.194, 50439.00
1062.298, 50086.00
1063.402, 50185.00
1064.506, 49878.00
1065.610, 50317.00
1066.713, 50327.00
1067.817, 50246.00
1068.920, 50209.00
1070.023, 50526.00
1071.126, 50347.54
1072.229, 50507.00
1073.332, 50133.00
1074.435, 50279.00
1075.537, 49946.00
1076.639, 50049.00
1077.741, 49701.00
1078.843, 50008.00
1079.945, 50239.00
1081.046, 50046.00
1082.148, 49870.00
1083.249, 49757.00
1084.350, 49906.00
1085.451, 50039.00
1086.551, 49989.00
1087.652, 49913.00
1088.752, 49733.00
1089.853, 49742.00
1090.953, 49583.00
1092.053, 49875.00
1093.152, 49880.00
1094.252, 49854.00
1095.351, 50079.00
1096.451, 49650.00
1097.550, 49764.00
1098.649, 49878.00
1099.748, 49663.00
1100.846, 49754.00
1101.945, 49886.00
1103.043, 49723.00
1104.141, 50006.00
1105.239, 49790.52
1106.337, 49613.00
1107.434, 49533.00
1108.532, 49587.00
1109.629, 49441.95
1110.726, 49636.70
1111.823, 49755.52
1112.920, 49802.50
1114.017, 49562.43
1115.113, 49693.00
1116.210, 49675.05
1117.306, 49650.98
1118.402, 49833.71
1119.498, 49635.39
1120.593, 49814.82
1121.689, 49843.46
1122.784, 49941.12
1123.879, 49889.31
1124.974, 49883.66
1126.069, 50036.00
1127.164, 49914.00
1128.259, 49934.00
1129.353, 49892.00
1130.447, 49920.00
1131.541, 50047.00
1132.635, 49807.00
1133.729, 49664.00
1134.822, 50234.00
1135.916, 50030.00
1137.009, 49969.00
1138.102, 49864.00
1139.195, 49966.00
1140.288, 50276.00
1141.380, 50019.00
1142.473, 50104.00
1143.565, 50354.00
1144.657, 50149.00
1145.749, 50394.00
1146.841, 49989.00
1147.932, 50217.00
1149.024, 50562.00
1150.115, 50195.00
1151.206, 50455.00
1152.297, 50338.00
1153.388, 50337.00
1154.479, 50393.00
1155.569, 50441.00
1156.659, 50641.00
1157.750, 50484.00
1158.839, 50401.00
1159.929, 50649.00
1161.019, 50606.00
1162.108, 50727.00
1163.198, 50223.00
1164.287, 50559.00
1165.376, 50507.00
1166.465, 50790.00
1167.553, 50403.00
1168.642, 50569.00
1169.730, 50582.00
1170.818, 50771.00
1171.906, 50564.00
1172.994, 50751.00
1174.082, 50628.00
1175.170, 50628.71
1176.257, 51010.00
1177.344, 50759.00
1178.431, 50696.00
1179.518, 51062.00
1180.605, 50851.00
1181.691, 50879.00
1182.778, 50988.00
1183.864, 51202.00
1184.950, 51241.00
1186.036, 51401.00
1187.122, 51142.00
1188.207, 51197.00
1189.292, 51372.00
1190.378, 51398.00
1191.463, 51554.00
1192.548, 51242.00
1193.632, 51428.00
1194.717, 51154.00
1195.801, 51435.00
1196.886, 51378.00
1197.970, 51624.00
1199.054, 51625.00
1200.137, 51461.00
1201.221, 51618.00
1202.305, 51687.00
1203.388, 51571.00
1204.471, 51652.00
1205.554, 51749.00
1206.637, 51951.00
1207.719, 51593.00
1208.802, 51892.00
1209.884, 51995.00
1210.966, 51854.00
1212.048, 52012.00
1213.130, 51968.00
1214.212, 52062.00
1215.293, 52100.00
1216.374, 52205.00
1217.456, 52357.00
1218.536, 52064.00
1219.617, 52266.00
1220.698, 52188.00
1221.778, 52362.00
1222.859, 52185.00
1223.939, 52154.00
1225.019, 52574.00
1226.099, 52222.00
1227.178, 52452.00
1228.258, 52378.00
1229.337, 52509.00
1230.417, 52472.00
1231.496, 52436.00
1232.574, 52568.00
1233.653, 52600.00
1234.732, 52667.00
1235.810, 52645.00
1236.888, 52805.12
1237.966, 52868.00
1239.044, 52983.00
1240.122, 52937.00
1241.199, 52745.00
1242.277, 53250.00
1243.354, 53102.00
1244.431, 53162.00
1245.508, 52886.00
1246.585, 53045.00
1247.661, 52886.00
1248.738, 53059.00
1249.814, 52895.00
1250.890, 52945.00
1251.966, 53106.00
1253.042, 53598.00
1254.117, 53525.48
1255.193, 53126.00
1256.268, 53601.00
1257.343, 53226.00
1258.418, 53143.00
1259.493, 53366.00
1260.567, 53230.00
1261.642, 53317.00
1262.716, 53595.00
1263.790, 53467.00
1264.864, 53326.00
1265.938, 53532.00
1267.011, 53670.00
1268.085, 53543.00
1269.158, 53753.00
1270.231, 53584.00
1271.304, 53545.00
1272.377, 53655.00
1273.450, 53601.00
1274.522, 53480.00
1275.594, 53758.00
1276.666, 53825.00
1277.738, 53735.00
1278.810, 54041.00
1279.882, 53771.00
1280.953, 53750.98
1282.025, 53955.27
1283.096, 54083.61
1284.167, 54140.10
1285.238, 53909.56
1286.308, 54049.63
1287.379, 54041.20
1288.449, 54026.64
1289.519, 54218.89
1290.589, 54030.06
1291.659, 54219.02
1292.729, 54257.18
1293.798, 54364.33
1294.868, 54322.05
1295.937, 54325.91
1297.006, 54479.26
1298.075, 54549.84
1299.143, 54490.30
1300.212, 54601.83
1301.280, 54407.73
1302.348, 54481.80
1303.416, 54671.59
1304.484, 54619.56
1305.552, 54733.80
1306.620, 54784.71
1307.687, 54547.82
1308.754, 54811.41
1309.821, 54858.55
1310.888, 54683.46
1311.955, 54929.90
1313.021, 54785.42
1314.088, 54780.49
1315.154, 54880.53
1316.220, 54871.11
1317.286, 55034.27
1318.352, 55031.18
1319.417, 55013.20
1320.483, 55060.07
1321.548, 54923.23
1322.613, 55127.17
1323.678, 55098.32
1324.743, 55185.19
1325.807, 55298.25
1326.872, 55210.52
1327.936, 55335.37
1329.000, 55130.52
1330.064, 55201.53
1331.128, 55242.85
1332.191, 55460.46
1333.255, 55346.00
1334.318, 55324.00
1335.381, 55483.00
1336.444, 55372.00
1337.507, 55513.00
1338.569, 55587.00
1339.632, 55615.00
1340.694, 55387.00
1341.756, 55416.00
1342.818, 55415.00
1343.880, 55719.00
1344.941, 56032.00
1346.003, 55791.00
1347.064, 55757.00
1348.125, 55491.00
1349.186, 55748.00
1350.247, 55658.00
1351.308, 55808.00
1352.368, 55879.00
1353.428, 55983.00
1354.489, 56118.00
1355.549, 56182.00
1356.608, 56040.00
1357.668, 56065.00
1358.727, 55939.00
1359.787, 55738.00
1360.846, 56277.00
1361.905, 55907.00
1362.964, 56407.00
1364.022, 56050.00
1365.081, 56240.00
1366.139, 56194.00
1367.197, 56346.00
1368.255, 56329.05
1369.313, 56365.00
1370.371, 56312.00
1371.428, 56331.00
1372.486, 56369.00
1373.543, 56284.23
1374.600, 56478.06
1375.657, 56595.97
1376.713, 56642.02
1377.770, 56401.04
1378.826, 56530.70
1379.882, 56511.81
1380.938, 56486.84
1381.994, 56668.66
1383.050, 56469.42
1384.106, 56647.96
1385.161, 56675.68
1386.216, 56772.41
1387.271, 56719.70
1388.326, 56713.14
1389.381, 56856.09
1390.435, 56916.23
1391.490, 56846.31
1392.544, 56947.42
1393.598, 56742.92
1394.652, 56806.59
1395.705, 56985.95
1396.759, 56923.52
1397.812, 57027.34
1398.866, 57067.86
1399.919, 56820.57
1400.972, 57073.77
1402.024, 57110.50
1403.077, 56925.02
1404.129, 57161.04
1405.181, 57006.18
1406.233, 56990.84
1407.285, 57080.50
1408.337, 57060.70
1409.389, 57213.48
1410.440, 57199.98
1411.491, 57171.63
1412.542, 57208.10
1413.593, 57060.89
1414.644, 57254.45
1415.695, 57215.23
1416.745, 57291.70
1417.795, 57394.41
1418.845, 57296.28
1419.895, 57410.77
1420.945, 57195.55
1421.995, 57256.21
1423.044, 57287.14
1424.093, 57494.40
1425.142, 57280.77
1426.191, 57333.75
1427.240, 57500.23
1428.289, 57507.88
1429.337, 57581.93
1430.385, 57459.38
1431.433, 57426.00
1432.481, 57818.00
1433.529, 57544.00
1434.577, 57582.00
1435.624, 57457.00
1436.672, 57447.13
1437.719, 57823.00
1438.766, 57680.00
1439.812, 57505.00
1440.859, 57984.00
1441.905, 57619.00
1442.952, 57768.00
1443.998, 57682.00
1445.044, 57828.00
1446.090, 58035.00
1447.135, 57774.00
1448.181, 58005.00
1449.226, 57974.00
1450.271, 57913.00
1451.316, 58175.00
1452.361, 58145.00
1453.405, 58177.60
1454.450, 58214.00
1455.494, 58164.00
1456.538, 58056.00
1457.582, 57997.00
1458.626, 57974.00
1459.670, 58205.00
1460.713, 58137.27
1461.757, 58549.00
1462.800, 58241.00
1463.843, 58484.00
1464.886, 58636.00
1465.928, 58405.00
1466.971, 58591.00
1468.013, 58396.00
1469.055, 58467.00
1470.097, 58706.00
1471.139, 58289.00
1472.181, 58628.00
1473.222, 58846.00
1474.263, 58830.00
1475.305, 59017.00
1476.346, 58777.00
1477.386, 58901.00
1478.427, 59200.00
1479.468, 59047.00
1480.508, 58818.00
1481.548, 59222.00
1482.588, 58948.00
1483.628, 59095.00
1484.668, 59393.00
1485.707, 59165.00
1486.747, 59152.00
1487.786, 59220.00
1488.825, 59444.00
1489.864, 59157.00
1490.902, 59410.00
1491.941, 59588.00
1492.979, 59195.00
1494.017, 59429.00
1495.055, 59682.00
1496.093, 59383.00
1497.131, 59041.00
1498.168, 59405.00
1499.206, 59573.00
1500.243, 59654.00
1501.280, 59365.99
1502.317, 59563.15
1503.354, 59684.38
1504.390, 59733.74
1505.426, 59496.07
1506.463, 59629.06
1507.499, 59613.50
1508.535, 59591.84
1509.570, 59776.95
1510.606, 59581.03
1511.641, 59762.87
1512.676, 59793.90
1513.711, 59893.95
1514.746, 59844.54
1515.781, 59841.30
1516.816, 59987.56
1517.850, 60051.02
1518.884, 59984.39
1519.918, 60088.80
1520.952, 59887.61
1521.986, 59954.59
1523.019, 60137.26
1524.053, 60078.14
1525.086, 60185.27
1526.119, 60229.07
1527.152, 59985.10
1528.185, 60241.60
1529.217, 60281.63
1530.250, 60099.46
1531.282, 60338.79
1532.314, 60187.22
1533.346, 60175.19
1534.377, 60268.12
1535.409, 60251.63
1536.440, 60407.68
1537.472, 60397.51
1538.503, 60372.46
1539.534, 60412.23
1540.564, 60268.29
1541.595, 60465.15
1542.625, 60429.21
1543.656, 60509.00
1544.686, 60615.00
1545.716, 60520.17
1546.745, 60637.93
1547.775, 60426.01
1548.804, 60489.94
1549.834, 60524.18
1550.863, 60734.74
1551.892, 60524.40
1552.920, 60580.64
1553.949, 60750.42
1554.977, 60761.34
1556.006, 60838.70
1557.034, 60719.43
1558.062, 60784.85
1559.089, 60799.34
1560.117, 60989.77
1561.144, 61041.30
1562.172, 60925.37
1563.199, 60810.12
1564.226, 61013.19
1565.252, 60914.54
1566.279, 60978.67
1567.305, 60874.68
1568.332, 61365.00
1569.358, 61716.00
1570.384, 62067.00
##END=



