##NAMES=Laverovite
##RRUFFID=R060216
##IDEAL CHEMISTRY=K_2_NaMn^2+^_7_Zr^4+^_2_(Si_4_O_12_)_2_O_2_(OH)_4_F
##LOCALITY=Desourdy Quarry, Mont Saint-Hilaire, Rouville County, Quebec, Canada
##OWNER=RRUFF
##SOURCE=Royal Ontario Museum
##DESCRIPTION=Brown fragment showing lamellar habit. Type sample
##STATUS=The identification of this mineral has been confirmed by X-ray diffraction and chemical analysis
##URL=rruff.info/R060216
##MEASURED CHEMISTRY=(K_1.74_Na_0.18_[box]_0.08_)_Σ=2_(Na_0.92_Ca_0.08_)_Σ=1_(Mn_4.09_Fe^2+^_2.67_Mg_0.24_)_Σ=7_(Zr_1.42_Ti_0.58_)_Σ=2_(Si_7.86_Al_0.14_)_Σ=8_O_26_((OH)_3.14_O_0.86_)_Σ=4_
##PIN_ID=L00725
##ORIENTATION=Laser parallel to c* (0 0 1). Fiducial mark perpendicular to laser is parallel to a [1 0 0]
114.4400, 27335.00
115.6710, 27761.00
116.9030, 28159.00
118.1340, 27446.00
119.3650, 27308.00
120.5960, 27083.00
121.8270, 26754.00
123.0580, 27331.00
124.2880, 28333.00
125.5190, 28469.00
126.7490, 28034.00
127.9790, 28234.00
129.2090, 28249.00
130.4390, 28127.00
131.6680, 27936.00
132.8980, 27442.00
134.1270, 26874.00
135.3560, 26215.00
136.5850, 25917.00
137.8140, 25725.00
139.0430, 25821.00
140.2710, 25720.10
141.5000, 25648.54
142.7280, 25766.00
143.9560, 25627.00
145.1840, 25507.00
146.4120, 25744.00
147.6390, 26431.00
148.8670, 26934.00
150.0940, 26476.00
151.3210, 26065.00
152.5490, 26416.61
153.7750, 26794.00
155.0020, 26710.00
156.2290, 27103.00
157.4550, 27251.00
158.6810, 27469.00
159.9080, 27894.00
161.1340, 28470.00
162.3590, 29543.00
163.5850, 30597.00
164.8110, 31421.78
166.0360, 32738.00
167.2610, 33030.00
168.4860, 33476.00
169.7110, 33604.00
170.9360, 33329.00
172.1610, 33146.00
173.3850, 32340.00
174.6100, 31214.00
175.8340, 30621.00
177.0580, 29881.00
178.2820, 29051.00
179.5050, 28801.00
180.7290, 28240.00
181.9520, 27819.00
183.1760, 27220.00
184.3990, 27138.00
185.6220, 27326.00
186.8450, 27436.00
188.0670, 27033.00
189.2900, 26707.00
190.5120, 26993.00
191.7340, 26940.00
192.9560, 27257.00
194.1780, 27483.00
195.4000, 27879.00
196.6220, 28344.00
197.8430, 28818.00
199.0640, 28885.00
200.2860, 29465.00
201.5070, 29995.00
202.7270, 31081.00
203.9480, 30871.00
205.1690, 29655.00
206.3890, 28170.00
207.6090, 27158.00
208.8290, 26848.00
210.0490, 26757.00
211.2690, 26799.00
212.4890, 27113.00
213.7080, 27338.00
214.9280, 27801.00
216.1470, 27638.00
217.3660, 27815.00
218.5850, 28383.00
219.8030, 28539.00
221.0220, 28851.00
222.2400, 28978.00
223.4590, 29130.00
224.6770, 29616.00
225.8950, 29901.00
227.1120, 30132.00
228.3300, 30711.00
229.5480, 31083.00
230.7650, 31407.00
231.9820, 31894.00
233.1990, 32159.00
234.4160, 32832.00
235.6330, 33228.00
236.8490, 33580.00
238.0660, 33756.00
239.2820, 34398.00
240.4980, 34281.00
241.7140, 34352.00
242.9300, 34251.00
244.1460, 33536.00
245.3610, 32752.00
246.5770, 31862.00
247.7920, 31044.00
249.0070, 30269.00
250.2220, 29495.00
251.4370, 28369.00
252.6510, 27988.00
253.8660, 27110.00
255.0800, 26675.00
256.2940, 26223.00
257.5080, 25887.00
258.7220, 26048.00
259.9360, 26791.00
261.1490, 27273.00
262.3630, 25788.00
263.5760, 24979.00
264.7890, 24484.00
266.0020, 24210.00
267.2150, 24140.00
268.4270, 24025.00
269.6400, 23762.00
270.8520, 23542.00
272.0640, 23267.00
273.2760, 22926.00
274.4880, 22655.00
275.7000, 22607.00
276.9120, 22338.51
278.1230, 22347.00
279.3340, 22068.00
280.5450, 21827.00
281.7560, 21801.00
282.9670, 21663.00
284.1780, 21720.30
285.3880, 21592.00
286.5980, 21845.00
287.8090, 21323.00
289.0190, 21180.00
290.2290, 21432.00
291.4380, 21194.00
292.6480, 21283.00
293.8570, 21254.00
295.0670, 21362.00
296.2760, 21135.00
297.4850, 21251.32
298.6930, 21231.00
299.9020, 21300.00
301.1110, 21420.00
302.3190, 21388.00
303.5270, 21281.00
304.7350, 21266.00
305.9430, 21298.00
307.1510, 21233.00
308.3580, 21288.00
309.5660, 21212.00
310.7730, 21384.00
311.9800, 21571.00
313.1870, 21458.00
314.3940, 21383.00
315.6010, 21558.00
316.8070, 21698.00
318.0130, 21697.00
319.2200, 21699.00
320.4260, 21893.00
321.6310, 21971.00
322.8370, 22220.00
324.0430, 22467.00
325.2480, 22275.00
326.4540, 22499.00
327.6590, 22517.09
328.8640, 22594.00
330.0680, 22616.00
331.2730, 22949.00
332.4780, 23010.00
333.6820, 23128.00
334.8860, 23186.00
336.0900, 23217.00
337.2940, 23309.00
338.4980, 23729.00
339.7010, 23826.00
340.9050, 24003.00
342.1080, 23857.00
343.3110, 23737.00
344.5140, 23880.00
345.7170, 23784.00
346.9200, 23886.00
348.1220, 23947.00
349.3240, 23887.00
350.5270, 23926.00
351.7290, 23737.00
352.9310, 24190.00
354.1320, 23671.00
355.3340, 24175.00
356.5350, 23939.00
357.7370, 24116.00
358.9380, 24137.00
360.1390, 24119.64
361.3400, 24166.65
362.5400, 24189.00
363.7410, 24126.00
364.9410, 24138.00
366.1410, 24101.00
367.3410, 24041.00
368.5410, 23983.11
369.7410, 23816.00
370.9400, 23839.00
372.1400, 23612.00
373.3390, 23585.00
374.5380, 23681.00
375.7370, 23824.00
376.9360, 23904.60
378.1350, 24108.78
379.3330, 24009.00
380.5310, 24433.00
381.7300, 24146.00
382.9280, 24085.00
384.1260, 24288.00
385.3230, 24044.00
386.5210, 23940.00
387.7180, 23646.00
388.9160, 23312.00
390.1130, 23167.00
391.3100, 23073.00
392.5060, 22866.00
393.7030, 22583.00
394.9000, 22569.00
396.0960, 22308.00
397.2920, 22211.00
398.4880, 21971.00
399.6840, 21792.00
400.8800, 21682.00
402.0750, 21773.00
403.2710, 21526.00
404.4660, 21604.00
405.6610, 21259.00
406.8560, 21123.00
408.0510, 20999.00
409.2450, 20824.00
410.4400, 20684.00
411.6340, 20687.00
412.8280, 20660.00
414.0220, 20408.00
415.2160, 20514.00
416.4100, 20380.00
417.6030, 20561.00
418.7970, 20414.00
419.9900, 20326.00
421.1830, 20310.00
422.3760, 20409.00
423.5690, 20283.00
424.7610, 20118.00
425.9540, 19697.29
427.1460, 20231.87
428.3380, 20508.22
429.5300, 20540.22
430.7220, 19596.02
431.9140, 19912.38
433.1050, 19723.62
434.2970, 19514.09
435.4880, 20007.92
436.6790, 19205.76
437.8700, 19592.00
439.0610, 19533.74
440.2510, 19673.00
441.4420, 19655.00
442.6320, 19665.00
443.8220, 19904.00
445.0120, 20040.00
446.2020, 20120.00
447.3910, 20266.00
448.5810, 20176.00
449.7700, 20399.00
450.9600, 20312.00
452.1490, 20531.00
453.3370, 20614.00
454.5260, 20919.00
455.7150, 21065.00
456.9030, 21315.00
458.0910, 21589.00
459.2800, 21883.00
460.4670, 22095.00
461.6550, 22311.00
462.8430, 22717.00
464.0300, 23072.00
465.2180, 23447.00
466.4050, 23668.68
467.5920, 23876.21
468.7790, 24032.00
469.9650, 24090.00
471.1520, 24202.00
472.3380, 24181.00
473.5250, 24114.00
474.7110, 23930.00
475.8970, 23949.00
477.0820, 23689.00
478.2680, 23705.00
479.4540, 23594.00
480.6390, 23438.00
481.8240, 23550.00
483.0090, 23495.00
484.1940, 23560.00
485.3780, 23365.00
486.5630, 23289.00
487.7470, 23524.00
488.9320, 23159.00
490.1160, 23328.00
491.3000, 22968.00
492.4830, 22739.00
493.6670, 22983.00
494.8500, 22623.00
496.0340, 22487.00
497.2170, 22379.00
498.4000, 22316.00
499.5820, 22147.00
500.7650, 22122.00
501.9480, 22112.00
503.1300, 22064.00
504.3120, 21975.00
505.4940, 22029.00
506.6760, 21902.00
507.8580, 21685.00
509.0390, 21752.93
510.2210, 21646.00
511.4020, 21698.00
512.5830, 21670.00
513.7640, 21527.00
514.9450, 21655.00
516.1250, 21513.00
517.3060, 21478.00
518.4860, 21600.00
519.6660, 21510.41
520.8460, 21594.00
522.0260, 21585.00
523.2060, 21619.84
524.3850, 21641.00
525.5650, 21709.00
526.7440, 21830.00
527.9230, 21848.00
529.1020, 21909.00
530.2810, 21952.00
531.4590, 21901.00
532.6380, 22166.00
533.8160, 22177.00
534.9940, 22396.00
536.1720, 22493.00
537.3500, 22681.00
538.5270, 22858.00
539.7050, 22997.00
540.8820, 23473.00
542.0590, 23587.00
543.2360, 24009.00
544.4130, 24783.00
545.5900, 25325.00
546.7660, 25713.00
547.9430, 26414.00
549.1190, 27428.00
550.2950, 28552.00
551.4710, 28744.00
552.6470, 29854.00
553.8220, 30596.00
554.9980, 31345.00
556.1730, 31905.00
557.3480, 32244.00
558.5230, 32289.00
559.6980, 32187.00
560.8730, 32117.00
562.0470, 32003.00
563.2220, 31724.00
564.3960, 31093.00
565.5700, 30777.00
566.7440, 30363.00
567.9170, 30024.00
569.0910, 29653.00
570.2640, 29248.64
571.4380, 29082.00
572.6110, 28494.00
573.7840, 28397.00
574.9570, 28140.00
576.1290, 27894.00
577.3020, 27643.00
578.4740, 27469.00
579.6460, 27284.00
580.8180, 27173.00
581.9900, 27021.00
583.1620, 27128.00
584.3330, 27015.00
585.5040, 27142.00
586.6760, 27289.00
587.8470, 27337.00
589.0180, 27480.00
590.1880, 27518.00
591.3590, 27543.00
592.5290, 27598.00
593.7000, 27703.00
594.8700, 27599.00
596.0400, 27571.00
597.2090, 27397.00
598.3790, 27418.16
599.5490, 27570.00
600.7180, 27498.00
601.8870, 27740.00
603.0560, 27977.00
604.2250, 27724.00
605.3940, 28022.00
606.5620, 28270.00
607.7300, 28397.00
608.8990, 28472.00
610.0670, 28693.00
611.2350, 28824.00
612.4020, 29176.00
613.5700, 29475.00
614.7370, 29471.00
615.9050, 29872.00
617.0720, 29852.00
618.2390, 30378.00
619.4060, 30901.00
620.5720, 31015.00
621.7390, 31260.00
622.9050, 31513.00
624.0710, 31922.00
625.2370, 32254.86
626.4030, 32647.00
627.5690, 33149.00
628.7340, 33538.00
629.9000, 34171.00
631.0650, 34848.00
632.2300, 34866.00
633.3950, 35628.00
634.5600, 36162.00
635.7240, 37070.00
636.8890, 37764.00
638.0530, 38634.00
639.2170, 39659.00
640.3810, 40983.00
641.5450, 42509.00
642.7080, 44055.00
643.8720, 46027.00
645.0350, 48194.00
646.1980, 50524.00
647.3610, 52918.00
648.5240, 55872.00
649.6870, 58966.00
650.8490, 61703.00
652.0120, 63837.00
653.1740, 65140.00
654.3360, 65535.00
655.4980, 64592.00
656.6600, 63171.00
657.8210, 60689.00
658.9830, 58456.00
660.1440, 56444.00
661.3050, 54161.19
662.4660, 51978.00
663.6270, 50311.00
664.7870, 49110.00
665.9480, 48116.00
667.1080, 47468.00
668.2680, 47225.00
669.4280, 46776.00
670.5880, 46943.00
671.7480, 46885.00
672.9070, 47442.00
674.0670, 48059.00
675.2260, 48261.00
676.3850, 48918.00
677.5440, 49725.00
678.7030, 50399.00
679.8610, 51430.00
681.0200, 52319.00
682.1780, 52708.00
683.3360, 53880.00
684.4940, 54884.00
685.6520, 55311.00
686.8090, 56098.00
687.9670, 56727.00
689.1240, 57115.27
690.2810, 57424.00
691.4380, 57907.00
692.5950, 58059.00
693.7520, 58419.00
694.9080, 58179.00
696.0650, 58163.00
697.2210, 58360.00
698.3770, 57958.00
699.5330, 58287.00
700.6880, 58011.00
701.8440, 57562.00
702.9990, 57397.00
704.1550, 56909.00
705.3100, 56694.00
706.4650, 56412.00
707.6190, 56264.00
708.7740, 55785.62
709.9290, 55273.00
711.0830, 54785.00
712.2370, 54193.90
713.3910, 53455.00
714.5450, 52948.00
715.6980, 52333.00
716.8520, 51625.00
718.0050, 51040.00
719.1580, 50248.00
720.3110, 49455.00
721.4640, 48782.00
722.6170, 47960.00
723.7700, 47112.00
724.9220, 46491.00
726.0740, 45862.00
727.2260, 44806.00
728.3780, 44368.00
729.5300, 43525.00
730.6810, 42763.00
731.8330, 41978.00
732.9840, 40979.00
734.1350, 40372.00
735.2860, 39780.00
736.4370, 39044.44
737.5880, 38670.00
738.7380, 37739.00
739.8880, 37404.00
741.0390, 36616.00
742.1890, 36306.00
743.3380, 35586.00
744.4880, 35173.00
745.6380, 34755.00
746.7870, 34633.00
747.9360, 34140.00
749.0850, 34002.00
750.2340, 33668.00
751.3830, 33271.00
752.5310, 33075.00
753.6800, 32620.00
754.8280, 32362.00
755.9760, 32364.00
757.1240, 31802.00
758.2720, 31560.00
759.4190, 31373.43
760.5670, 30986.17
761.7140, 30899.00
762.8610, 30438.00
764.0080, 30057.00
765.1550, 29793.00
766.3020, 29524.00
767.4480, 29070.00
768.5950, 28775.00
769.7410, 28387.00
770.8870, 28007.00
772.0330, 27745.00
773.1780, 27507.00
774.3240, 27224.00
775.4690, 26931.00
776.6140, 26706.14
777.7590, 26441.93
778.9040, 26275.00
780.0490, 25983.00
781.1940, 25851.00
782.3380, 25670.00
783.4820, 25339.00
784.6260, 25013.00
785.7700, 24950.00
786.9140, 24762.00
788.0580, 24544.00
789.2010, 24452.69
790.3450, 24265.49
791.4880, 24138.00
792.6310, 23919.00
793.7730, 23645.00
794.9160, 23346.00
796.0590, 23294.00
797.2010, 23052.00
798.3430, 23024.00
799.4850, 22707.00
800.6270, 22784.00
801.7690, 22452.00
802.9100, 22090.00
804.0520, 22120.00
805.1930, 22019.00
806.3340, 21780.00
807.4750, 21699.00
808.6160, 21484.00
809.7560, 21468.00
810.8970, 21308.00
812.0370, 21317.00
813.1770, 21152.00
814.3170, 20999.00
815.4570, 20961.00
816.5960, 20786.00
817.7360, 20914.00
818.8750, 20744.00
820.0140, 20642.00
821.1530, 20865.00
822.2920, 20243.00
823.4310, 20400.00
824.5690, 20240.00
825.7070, 20280.00
826.8460, 20286.00
827.9840, 20296.00
829.1220, 20152.00
830.2590, 20100.00
831.3970, 19966.00
832.5340, 20092.00
833.6710, 20214.00
834.8080, 19842.00
835.9450, 20016.00
837.0820, 19903.00
838.2190, 20024.00
839.3550, 19938.00
840.4910, 19959.00
841.6270, 20175.00
842.7630, 20037.36
843.8990, 20116.00
845.0350, 19906.00
846.1700, 20050.00
847.3060, 19933.00
848.4410, 19898.00
849.5760, 19954.00
850.7100, 20056.00
851.8450, 19978.00
852.9800, 20075.00
854.1140, 19982.00
855.2480, 19885.00
856.3820, 20153.00
857.5160, 20009.00
858.6500, 20394.00
859.7830, 20294.20
860.9170, 20254.00
862.0500, 20303.00
863.1830, 20238.00
864.3160, 20412.00
865.4480, 20397.00
866.5810, 20695.00
867.7130, 20555.00
868.8460, 20664.00
869.9780, 20843.00
871.1100, 20820.00
872.2410, 21083.00
873.3730, 20938.00
874.5050, 21368.00
875.6360, 21312.00
876.7670, 21356.00
877.8980, 21476.00
879.0290, 21737.00
880.1590, 21679.00
881.2900, 21914.00
882.4200, 22111.00
883.5500, 22104.00
884.6800, 22198.00
885.8100, 22462.00
886.9400, 22368.00
888.0690, 22723.00
889.1990, 22822.00
890.3280, 22983.00
891.4570, 23189.88
892.5860, 23197.00
893.7140, 23449.00
894.8430, 23464.00
895.9710, 23459.00
897.1000, 23735.00
898.2280, 23654.00
899.3560, 23767.00
900.4830, 24248.00
901.6110, 24051.00
902.7380, 24258.00
903.8660, 24397.00
904.9930, 24605.00
906.1200, 24631.00
907.2460, 24767.00
908.3730, 24773.00
909.5000, 24933.00
910.6260, 25084.00
911.7520, 25513.00
912.8780, 25656.00
914.0040, 25550.00
915.1290, 25784.00
916.2550, 25600.00
917.3800, 26028.00
918.5050, 26261.00
919.6300, 26305.47
920.7550, 26525.00
921.8800, 26548.00
923.0040, 26470.00
924.1290, 26546.00
925.2530, 26719.00
926.3770, 26836.00
927.5010, 26839.28
928.6250, 26958.00
929.7480, 26836.46
930.8720, 26738.00
931.9950, 26751.00
933.1180, 27009.00
934.2410, 26873.00
935.3640, 26827.00
936.4860, 26575.00
937.6090, 26744.00
938.7310, 26820.00
939.8530, 26906.00
940.9750, 26682.00
942.0970, 26696.00
943.2180, 26624.00
944.3400, 26720.00
945.4610, 26521.00
946.5820, 26655.00
947.7030, 26464.00
948.8240, 26543.00
949.9450, 26312.00
951.0650, 26490.00
952.1860, 27098.00
953.3060, 26232.00
954.4260, 26193.00
955.5460, 26904.00
956.6650, 25206.00
957.7850, 24986.00
958.9040, 24656.00
960.0230, 24287.00
961.1420, 24078.00
962.2610, 23723.00
963.3800, 23449.12
964.4990, 23189.00
965.6170, 22963.00
966.7350, 22759.06
967.8530, 22633.00
968.9710, 22418.00
970.0890, 22294.00
971.2070, 22167.00
972.3240, 21922.00
973.4410, 22040.00
974.5580, 21823.00
975.6750, 21871.00
976.7920, 21844.00
977.9090, 21754.00
979.0250, 21761.00
980.1410, 21590.00
981.2580, 21656.00
982.3740, 21929.00
983.4890, 21791.63
984.6050, 21589.00
985.7200, 21764.00
986.8360, 21613.00
987.9510, 21560.00
989.0660, 21912.00
990.1810, 21689.00
991.2950, 21742.00
992.4100, 21811.00
993.5240, 22004.00
994.6390, 22029.00
995.7530, 22029.00
996.8660, 22299.00
997.9800, 22511.00
999.0940, 22297.00
1000.207, 22429.00
1001.320, 22756.00
1002.433, 22923.00
1003.546, 23104.00
1004.659, 23501.00
1005.772, 23427.00
1006.884, 23597.00
1007.996, 24053.00
1009.108, 24339.00
1010.220, 24489.00
1011.332, 24759.00
1012.444, 25341.00
1013.555, 25466.00
1014.666, 25897.00
1015.777, 26452.00
1016.888, 26706.00
1017.999, 26851.00
1019.110, 27040.00
1020.220, 27422.00
1021.331, 27428.00
1022.441, 27681.00
1023.551, 27804.00
1024.661, 27949.00
1025.770, 27938.00
1026.880, 27861.00
1027.989, 27701.00
1029.098, 27918.00
1030.207, 27607.00
1031.316, 27883.00
1032.425, 27430.00
1033.533, 27374.00
1034.642, 27168.00
1035.750, 26653.00
1036.858, 26643.00
1037.966, 26607.00
1039.073, 26112.00
1040.181, 25883.00
1041.288, 25443.00
1042.396, 25237.00
1043.503, 25070.00
1044.610, 25055.00
1045.716, 24728.00
1046.823, 24423.00
1047.929, 24207.00
1049.036, 24197.00
1050.142, 24186.00
1051.248, 24154.27
1052.353, 24225.22
1053.459, 23892.00
1054.564, 23866.39
1055.670, 23572.00
1056.775, 23572.00
1057.880, 23450.00
1058.985, 23331.00
1060.089, 23411.00
1061.194, 23467.00
1062.298, 23362.00
1063.402, 23211.00
1064.506, 23077.00
1065.610, 23112.00
1066.713, 23179.00
1067.817, 23171.00
1068.920, 23111.00
1070.023, 23080.00
1071.126, 23044.00
1072.229, 23126.00
1073.332, 23093.00
1074.435, 23108.78
1075.537, 23123.00
1076.639, 23122.00
1077.741, 23103.00
1078.843, 23118.00
1079.945, 22857.00
1081.046, 22736.00
1082.148, 22849.00
1083.249, 22854.00
1084.350, 22600.00
1085.451, 22403.00
1086.551, 22344.00
1087.652, 22336.00
1088.752, 21943.00
1089.853, 21910.00
1090.953, 21737.00
1092.053, 21814.00
1093.152, 21768.00
1094.252, 21487.00
1095.351, 21363.00
1096.451, 21232.00
1097.550, 21072.00
1098.649, 21073.00
1099.748, 20806.00
1100.846, 20664.00
1101.945, 20655.00
1103.043, 20561.00
1104.141, 20293.00
1105.239, 20090.00
1106.337, 20205.00
1107.434, 20174.00
1108.532, 20012.00
1109.629, 19963.00
1110.726, 19918.00
1111.823, 19683.00
1112.920, 20359.00
1114.017, 19421.00
1115.113, 20093.00
1116.210, 19599.00
1117.306, 19521.00
1118.402, 19234.00
1119.498, 19391.00
1120.593, 19266.00
1121.689, 19330.00
1122.784, 19293.00
1123.879, 19206.00
1124.974, 19040.00
1126.069, 19304.00
1127.164, 19008.00
1128.259, 19222.00
1129.353, 19299.00
1130.447, 19485.00
1131.541, 18997.00
1132.635, 18691.00
1133.729, 19020.00
1134.822, 18802.00
1135.916, 18977.00
1137.009, 18820.00
1138.102, 18862.00
1139.195, 18825.00
1140.288, 18770.00
1141.380, 18706.00
1142.473, 18720.49
1143.565, 18748.00
1144.657, 18727.00
1145.749, 18736.00
1146.841, 18693.00
1147.932, 18644.00
1149.024, 18465.00
1150.115, 18550.00
1151.206, 18515.92
1152.297, 18614.00
1153.388, 18582.00
1154.479, 18655.00
1155.569, 18667.00
1156.659, 18708.00
1157.750, 18612.00
1158.839, 18628.00
1159.929, 18674.00
1161.019, 18570.00
1162.108, 18568.00
1163.198, 18542.00
1164.287, 18823.00
1165.376, 18632.95
1166.465, 18684.00
1167.553, 18494.00
1168.642, 18513.00
1169.730, 18607.00
1170.818, 18519.00
1171.906, 18571.00
1172.994, 18582.00
1174.082, 18650.00
1175.170, 18605.00
1176.257, 18391.00
1177.344, 18625.00
1178.431, 18628.00
1179.518, 18447.00
1180.605, 18590.00
1181.691, 18572.00
1182.778, 18510.00
1183.864, 18608.00
1184.950, 18480.00
1186.036, 18397.00
1187.122, 18544.00
1188.207, 18540.00
1189.292, 18528.00
1190.378, 18392.00
1191.463, 18598.00
1192.548, 18397.00
1193.632, 18475.00
1194.717, 18435.00
1195.801, 18516.00
1196.886, 18580.00
1197.970, 18592.00
1199.054, 18460.00
1200.137, 18462.00
1201.221, 18592.00
1202.305, 18480.00
1203.388, 18674.00
1204.471, 18670.00
1205.554, 18540.00
1206.637, 18475.00
1207.719, 18519.00
1208.802, 18554.00
1209.884, 18526.00
1210.966, 18610.00
1212.048, 18581.00
1213.130, 18563.00
1214.212, 18578.00
1215.293, 18536.00
1216.374, 18486.00
1217.456, 18511.00
1218.536, 18664.00
1219.617, 18693.00
1220.698, 18664.00
1221.778, 18582.00
1222.859, 18725.00
1223.939, 18550.00
1225.019, 18565.00
1226.099, 18691.00
1227.178, 18587.00
1228.258, 18676.00
1229.337, 18579.00
1230.417, 18627.00
1231.496, 18663.00
1232.574, 18637.00
1233.653, 18839.00
1234.732, 18501.00
1235.810, 18678.00
1236.888, 18428.00
1237.966, 18645.00
1239.044, 18564.00
1240.122, 18604.00
1241.199, 18452.00
1242.277, 18563.00
1243.354, 18625.00
1244.431, 18762.00
1245.508, 18741.24
1246.585, 18593.00
1247.661, 18706.00
1248.738, 18606.00
1249.814, 18591.00
1250.890, 18539.00
1251.966, 18674.00
1253.042, 18604.00
1254.117, 18635.00
1255.193, 18747.00
1256.268, 18625.00
1257.343, 18669.00
1258.418, 18712.00
1259.493, 18629.00
1260.567, 18674.00
1261.642, 18615.00
1262.716, 18729.00
1263.790, 18725.00
1264.864, 18812.00
1265.938, 18608.00
1267.011, 18671.00
1268.085, 18511.00
1269.158, 18823.00
1270.231, 18668.00
1271.304, 18615.00
1272.377, 18840.00
1273.450, 18721.00
1274.522, 18574.00
1275.594, 18522.00
1276.666, 18778.00
1277.738, 18693.00
1278.810, 18631.00
1279.882, 18701.00
1280.953, 18662.00
1282.025, 18681.13
1283.096, 18705.55
1284.167, 18790.00
1285.238, 18694.00
1286.308, 18902.00
1287.379, 18812.00
1288.449, 18679.00
1289.519, 18736.00
1290.589, 18839.00
1291.659, 18942.00
1292.729, 18609.18
1293.798, 18903.85
1294.868, 19069.40
1295.937, 19112.79
1297.006, 18668.07
1298.075, 18853.63
1299.143, 18786.60
1300.212, 18709.22
1301.280, 18983.49
1302.348, 18609.76
1303.416, 18878.46
1304.484, 18890.71
1305.552, 19020.33
1306.620, 18895.80
1307.687, 18849.77
1308.754, 19057.97
1309.821, 18723.00
1310.888, 18705.00
1311.955, 18798.00
1313.021, 18677.00
1314.088, 18837.00
1315.154, 18844.00
1316.220, 18634.00
1317.286, 18839.00
1318.352, 18769.00
1319.417, 18728.00
1320.483, 18736.00
1321.548, 18692.00
1322.613, 18878.00
1323.678, 18703.00
1324.743, 18852.00
1325.807, 18610.00
1326.872, 18731.00
1327.936, 18822.00
1329.000, 18736.00
1330.064, 18697.00
1331.128, 18714.00
1332.191, 18768.00
1333.255, 18656.74
1334.318, 18962.00
1335.381, 19138.14
1336.444, 19192.12
1337.507, 18757.98
1338.569, 18954.13
1339.632, 18897.69
1340.694, 18761.00
1341.756, 18864.00
1342.818, 18612.00
1343.880, 18699.00
1344.941, 18727.00
1346.003, 18545.00
1347.064, 18875.00
1348.125, 18706.00
1349.186, 18634.00
1350.247, 18690.00
1351.308, 18694.00
1352.368, 18775.00
1353.428, 18821.00
1354.489, 18587.00
1355.549, 18724.00
1356.608, 18710.00
1357.668, 18841.00
1358.727, 18856.00
1359.787, 18922.00
1360.846, 18890.02
1361.905, 18688.00
1362.964, 18760.00
1364.022, 18658.00
1365.081, 18558.00
1366.139, 18596.00
1367.197, 18789.00
1368.255, 18782.00
1369.313, 18828.00
1370.371, 18711.00
1371.428, 18840.00
1372.486, 18681.00
1373.543, 18790.00
1374.600, 18818.00
1375.657, 18779.00
1376.713, 18763.00
1377.770, 18720.00
1378.826, 18689.00
1379.882, 18770.00
1380.938, 18729.00
1381.994, 18759.00
1383.050, 18770.04
1384.106, 18919.00
1385.161, 18774.00
1386.216, 18770.00
1387.271, 18766.00
1388.326, 18961.00
1389.381, 18920.00
1390.435, 18780.00
1391.490, 18944.00
1392.544, 18797.00
1393.598, 18797.00
1394.652, 18767.00
1395.705, 18713.00
1396.759, 18879.00
1397.812, 18879.25
1398.866, 18988.29
1399.919, 18819.00
1400.972, 19256.00
1402.024, 18782.00
1403.077, 18952.00
1404.129, 18688.00
1405.181, 18774.00
1406.233, 18867.00
1407.285, 18831.00
1408.337, 18826.00
1409.389, 18909.00
1410.440, 18591.53
1411.491, 18902.57
1412.542, 19084.49
1413.593, 19144.24
1414.644, 18715.89
1415.695, 18917.82
1416.745, 18867.14
1417.795, 18806.11
1418.845, 19096.74
1419.895, 18739.36
1420.945, 19024.41
1421.995, 19053.01
1423.044, 19198.97
1424.093, 19090.78
1425.142, 19061.08
1426.191, 19285.62
1427.240, 19369.38
1428.289, 19231.94
1429.337, 18937.00
1430.385, 18775.00
1431.433, 18905.00
1432.481, 18932.00
1433.529, 18791.00
1434.577, 18951.00
1435.624, 18998.00
1436.672, 18980.00
1437.719, 18844.00
1438.766, 18875.00
1439.812, 18834.00
1440.859, 18948.00
1441.905, 18939.42
1442.952, 19028.00
1443.998, 19001.00
1445.044, 19031.00
1446.090, 19070.00
1447.135, 19034.00
1448.181, 19058.00
1449.226, 19069.00
1450.271, 19141.00
1451.316, 19186.00
1452.361, 19036.00
1453.405, 18987.00
1454.450, 18865.00
1455.494, 19146.00
1456.538, 19036.62
1457.582, 19142.00
1458.626, 18975.00
1459.670, 19178.00
1460.713, 18958.00
1461.757, 19131.00
1462.800, 19152.00
1463.843, 18976.00
1464.886, 19070.00
1465.928, 19154.00
1466.971, 19165.74
1468.013, 19238.55
1469.055, 19298.00
1470.097, 19243.00
1471.139, 19205.00
1472.181, 19033.00
1473.222, 19232.00
1474.263, 18993.00
1475.305, 19116.00
1476.346, 18986.00
1477.386, 19291.00
1478.427, 19306.00
1479.468, 19282.00
1480.508, 19108.00
1481.548, 19277.00
1482.588, 19276.00
1483.628, 19332.00
1484.668, 19252.00
1485.707, 19237.00
1486.747, 19247.00
1487.786, 19182.00
1488.825, 19293.00
1489.864, 19241.00
1490.902, 19265.81
1491.941, 19199.00
1492.979, 19274.00
1494.017, 19214.00
1495.055, 19177.00
1496.093, 19170.00
1497.131, 19259.00
1498.168, 19167.00
1499.206, 19179.00
1500.243, 19348.00
1501.280, 19412.00
1502.317, 19370.51
1503.354, 19494.00
1504.390, 19312.00
1505.426, 19252.00
1506.463, 19331.00
1507.499, 19484.00
1508.535, 19404.00
1509.570, 19379.00
1510.606, 19412.00
1511.641, 19383.79
1512.676, 19531.00
1513.711, 19440.00
1514.746, 19350.00
1515.781, 19442.00
1516.816, 19582.00
1517.850, 19499.06
1518.884, 19512.67
1519.918, 19530.00
1520.952, 19363.00
1521.986, 19547.00
1523.019, 19468.00
1524.053, 19498.00
1525.086, 19391.00
1526.119, 19482.00
1527.152, 19500.00
1528.185, 19467.00
1529.217, 19567.00
1530.250, 19627.00
1531.282, 19574.00
1532.314, 19523.00
1533.346, 19379.00
1534.377, 19472.00
1535.409, 19419.81
1536.440, 19494.85
1537.472, 19456.00
1538.503, 19585.00
1539.534, 19621.00
1540.564, 19434.00
1541.595, 19594.00
1542.625, 19552.00
1543.656, 19575.00
##END=



