##NAMES=Laverovite
##RRUFFID=R060216
##IDEAL CHEMISTRY=K_2_NaMn^2+^_7_Zr^4+^_2_(Si_4_O_12_)_2_O_2_(OH)_4_F
##LOCALITY=Desourdy Quarry, Mont Saint-Hilaire, Rouville County, Quebec, Canada
##OWNER=RRUFF
##SOURCE=Royal Ontario Museum
##DESCRIPTION=Brown fragment showing lamellar habit. Type sample
##STATUS=The identification of this mineral has been confirmed by X-ray diffraction and chemical analysis
##URL=rruff.info/R060216
##MEASURED CHEMISTRY=(K_1.74_Na_0.18_[box]_0.08_)_Σ=2_(Na_0.92_Ca_0.08_)_Σ=1_(Mn_4.09_Fe^2+^_2.67_Mg_0.24_)_Σ=7_(Zr_1.42_Ti_0.58_)_Σ=2_(Si_7.86_Al_0.14_)_Σ=8_O_26_((OH)_3.14_O_0.86_)_Σ=4_
##PIN_ID=L01682
##ORIENTATION=Laser parallel to (0 -1 -1). Fiducial mark perpendicular to laser is parallel to a [1 0 0]
159.9080, 11849.00
161.1340, 12077.00
162.3590, 12902.00
163.5850, 13473.00
164.8110, 13993.00
166.0360, 14429.00
167.2610, 14248.00
168.4860, 14467.00
169.7110, 14716.00
170.9360, 14877.00
172.1610, 14343.00
173.3850, 13874.00
174.6100, 13944.00
175.8340, 13628.00
177.0580, 13972.00
178.2820, 13822.00
179.5050, 13651.00
180.7290, 13515.00
181.9520, 13487.00
183.1760, 13630.00
184.3990, 13699.00
185.6220, 14019.00
186.8450, 14090.00
188.0670, 14214.00
189.2900, 14374.00
190.5120, 14489.00
191.7340, 14862.00
192.9560, 15127.00
194.1780, 15365.00
195.4000, 15736.00
196.6220, 15918.00
197.8430, 16125.00
199.0640, 16477.00
200.2860, 17792.00
201.5070, 18933.00
202.7270, 18504.00
203.9480, 16129.00
205.1690, 13187.00
206.3890, 11621.00
207.6090, 11131.00
208.8290, 11100.00
210.0490, 11129.00
211.2690, 11186.00
212.4890, 11420.00
213.7080, 11476.00
214.9280, 11490.00
216.1470, 11322.00
217.3660, 11346.00
218.5850, 11411.00
219.8030, 11536.00
221.0220, 11386.00
222.2400, 11342.00
223.4590, 11375.00
224.6770, 11585.00
225.8950, 11614.00
227.1120, 11518.00
228.3300, 11939.00
229.5480, 11619.00
230.7650, 11751.00
231.9820, 11708.00
233.1990, 11922.00
234.4160, 11895.00
235.6330, 11828.00
236.8490, 11770.70
238.0660, 11996.04
239.2820, 12133.06
240.4980, 12186.55
241.7140, 11906.25
242.9300, 12056.96
244.1460, 12034.94
245.3610, 12005.82
246.5770, 12217.20
247.7920, 12195.00
249.0070, 12233.00
250.2220, 12167.00
251.4370, 12498.00
252.6510, 12317.00
253.8660, 12288.00
255.0800, 12165.39
256.2940, 12471.40
257.5080, 12689.12
258.7220, 12823.29
259.9360, 12623.69
261.1490, 12855.00
262.3630, 12913.67
263.5760, 12965.18
264.7890, 12892.00
266.0020, 12817.00
267.2150, 12630.00
268.4270, 12530.00
269.6400, 12321.00
270.8520, 12079.00
272.0640, 12066.00
273.2760, 11702.00
274.4880, 11684.00
275.7000, 11747.00
276.9120, 11560.00
278.1230, 11339.00
279.3340, 11219.00
280.5450, 10979.00
281.7560, 11114.00
282.9670, 10824.00
284.1780, 11260.00
285.3880, 10712.00
286.5980, 10879.00
287.8090, 10708.00
289.0190, 10745.00
290.2290, 10768.00
291.4380, 10634.00
292.6480, 10725.00
293.8570, 10819.00
295.0670, 10914.00
296.2760, 10791.00
297.4850, 10800.00
298.6930, 10803.00
299.9020, 10737.00
301.1110, 10885.00
302.3190, 10713.00
303.5270, 10765.00
304.7350, 10756.47
305.9430, 10671.65
307.1510, 10814.00
308.3580, 10640.00
309.5660, 10828.00
310.7730, 10978.00
311.9800, 10693.00
313.1870, 10549.00
314.3940, 10561.00
315.6010, 10682.00
316.8070, 10696.00
318.0130, 10744.73
319.2200, 10546.15
320.4260, 10871.00
321.6310, 10695.00
322.8370, 10855.00
324.0430, 10815.16
325.2480, 10688.00
326.4540, 10843.00
327.6590, 10886.00
328.8640, 10872.10
330.0680, 10906.92
331.2730, 10901.00
332.4780, 10929.00
333.6820, 10778.79
334.8860, 10995.00
336.0900, 11122.93
337.2940, 11167.31
338.4980, 10877.91
339.7010, 11019.51
340.9050, 10988.39
342.1080, 10950.17
343.3110, 11152.43
344.5140, 11205.00
345.7170, 11180.00
346.9200, 11215.29
348.1220, 11211.97
349.3240, 11214.11
350.5270, 11148.00
351.7290, 11242.00
352.9310, 11251.00
354.1320, 11309.00
355.3340, 11193.00
356.5350, 11393.00
357.7370, 11226.00
358.9380, 11195.00
360.1390, 11190.00
361.3400, 11319.00
362.5400, 11226.00
363.7410, 11152.00
364.9410, 11198.00
366.1410, 11139.00
367.3410, 11230.00
368.5410, 11088.00
369.7410, 11133.00
370.9400, 10922.00
372.1400, 11066.00
373.3390, 11003.00
374.5380, 11002.57
375.7370, 11073.41
376.9360, 11038.00
378.1350, 11097.00
379.3330, 11095.00
380.5310, 10974.00
381.7300, 10832.25
382.9280, 11044.78
384.1260, 11169.02
385.3230, 11209.71
386.5210, 10916.63
387.7180, 11054.54
388.9160, 11019.74
390.1130, 10977.85
391.3100, 11176.42
392.5060, 11105.00
393.7030, 10850.00
394.9000, 10988.00
396.0960, 10984.00
397.2920, 10963.00
398.4880, 10934.00
399.6840, 10944.00
400.8800, 10818.00
402.0750, 10817.00
403.2710, 10905.00
404.4660, 10995.00
405.6610, 11045.12
406.8560, 11027.89
408.0510, 11156.00
409.2450, 10929.00
410.4400, 10872.00
411.6340, 10802.00
412.8280, 10837.00
414.0220, 10838.91
415.2160, 10798.00
416.4100, 10943.29
417.6030, 11040.00
418.7970, 11125.00
419.9900, 11151.99
421.1830, 11187.37
422.3760, 11124.00
423.5690, 11155.00
424.7610, 11094.00
425.9540, 10987.00
427.1460, 10906.00
428.3380, 10989.00
429.5300, 10854.00
430.7220, 10943.00
431.9140, 10770.00
433.1050, 10717.00
434.2970, 10678.00
435.4880, 10538.00
436.6790, 10530.00
437.8700, 10424.00
439.0610, 10476.00
440.2510, 10229.00
441.4420, 10338.00
442.6320, 10270.00
443.8220, 10148.00
445.0120, 10217.93
446.2020, 10243.00
447.3910, 10246.00
448.5810, 10146.00
449.7700, 10175.00
450.9600, 10232.00
452.1490, 10342.00
453.3370, 10321.20
454.5260, 10373.69
455.7150, 10321.00
456.9030, 10334.00
458.0910, 10342.00
459.2800, 10174.55
460.4670, 10444.00
461.6550, 10437.00
462.8430, 10422.00
464.0300, 10640.00
465.2180, 10577.00
466.4050, 10548.00
467.5920, 10619.00
468.7790, 10741.00
469.9650, 10557.00
471.1520, 10652.00
472.3380, 10724.00
473.5250, 10573.00
474.7110, 10621.00
475.8970, 10717.00
477.0820, 10630.00
478.2680, 10688.00
479.4540, 10732.00
480.6390, 10700.00
481.8240, 10644.00
483.0090, 10695.00
484.1940, 10661.00
485.3780, 10735.00
486.5630, 10614.00
487.7470, 10687.00
488.9320, 10632.00
490.1160, 10601.00
491.3000, 10642.00
492.4830, 10581.00
493.6670, 10601.51
494.8500, 10592.00
496.0340, 10582.00
497.2170, 10591.00
498.4000, 10522.00
499.5820, 10715.00
500.7650, 10606.00
501.9480, 10575.00
503.1300, 10476.00
504.3120, 10447.00
505.4940, 10459.00
506.6760, 10433.79
507.8580, 10430.97
509.0390, 10485.00
510.2210, 10448.00
511.4020, 10520.00
512.5830, 10592.00
513.7640, 10622.00
514.9450, 10593.00
516.1250, 10503.00
517.3060, 10568.00
518.4860, 10566.00
519.6660, 10479.00
520.8460, 10510.00
522.0260, 10335.50
523.2060, 10536.51
524.3850, 10649.24
525.5650, 10678.42
526.7440, 10373.82
527.9230, 10500.23
529.1020, 10453.91
530.2810, 10400.51
531.4590, 10587.58
532.6380, 10331.53
533.8160, 10514.78
534.9940, 10331.00
536.1720, 10537.00
537.3500, 10504.88
538.5270, 10540.00
539.7050, 10603.00
540.8820, 10656.00
542.0590, 10654.00
543.2360, 10795.00
544.4130, 10805.68
545.5900, 10855.38
546.7660, 10941.00
547.9430, 10932.00
549.1190, 11084.00
550.2950, 11135.00
551.4710, 11204.00
552.6470, 11282.00
553.8220, 11403.00
554.9980, 11506.00
556.1730, 11631.00
557.3480, 11638.00
558.5230, 11685.31
559.6980, 11734.31
560.8730, 11708.00
562.0470, 11721.00
563.2220, 11777.00
564.3960, 11616.00
565.5700, 11675.00
566.7440, 11531.00
567.9170, 11631.00
569.0910, 11571.00
570.2640, 11507.00
571.4380, 11460.00
572.6110, 11446.00
573.7840, 11421.00
574.9570, 11268.00
576.1290, 11264.97
577.3020, 11398.00
578.4740, 11244.00
579.6460, 11119.00
580.8180, 11277.00
581.9900, 11110.00
583.1620, 11171.00
584.3330, 11247.00
585.5040, 11237.00
586.6760, 11296.00
587.8470, 11173.00
589.0180, 11340.00
590.1880, 11246.00
591.3590, 11404.00
592.5290, 11087.90
593.7000, 11324.29
594.8700, 11472.36
596.0400, 11536.89
597.2090, 11267.60
598.3790, 11429.36
599.5490, 11418.38
600.7180, 11623.00
601.8870, 11557.70
603.0560, 11471.66
604.2250, 11501.47
605.3940, 11754.06
606.5620, 11918.33
607.7300, 11999.04
608.8990, 11746.02
610.0670, 11923.96
611.2350, 11929.17
612.4020, 11927.25
613.5700, 12165.86
614.7370, 12109.00
615.9050, 12181.00
617.0720, 12231.58
618.2390, 12317.00
619.4060, 12347.00
620.5720, 12522.00
621.7390, 12611.00
622.9050, 12778.00
624.0710, 12697.00
625.2370, 12641.00
626.4030, 12929.00
627.5690, 12893.00
628.7340, 13196.00
629.9000, 13187.00
631.0650, 13225.00
632.2300, 13340.00
633.3950, 13604.00
634.5600, 13669.00
635.7240, 13846.00
636.8890, 13940.00
638.0530, 14196.00
639.2170, 14371.85
640.3810, 14667.00
641.5450, 14844.00
642.7080, 15094.00
643.8720, 15408.00
645.0350, 15772.00
646.1980, 16130.00
647.3610, 17077.00
648.5240, 18208.00
649.6870, 17869.00
650.8490, 18561.00
652.0120, 18043.00
653.1740, 18407.00
654.3360, 18251.00
655.4980, 18236.00
656.6600, 17964.00
657.8210, 17762.54
658.9830, 17478.29
660.1440, 17146.00
661.3050, 16821.00
662.4660, 16358.00
663.6270, 16091.00
664.7870, 15557.00
665.9480, 15658.00
667.1080, 15506.00
668.2680, 15203.00
669.4280, 14867.00
670.5880, 14983.00
671.7480, 14535.00
672.9070, 14306.00
674.0670, 14421.00
675.2260, 14476.00
676.3850, 14452.00
677.5440, 14445.00
678.7030, 14408.00
679.8610, 14426.00
681.0200, 14353.26
682.1780, 14592.52
683.3360, 14743.49
684.4940, 14810.91
685.6520, 14544.55
686.8090, 14709.17
687.9670, 14701.09
689.1240, 14685.90
690.2810, 14911.18
691.4380, 14824.00
692.5950, 14938.00
693.7520, 14917.00
694.9080, 15002.00
696.0650, 14897.00
697.2210, 14955.00
698.3770, 14905.00
699.5330, 14841.00
700.6880, 14942.00
701.8440, 14937.00
702.9990, 14891.00
704.1550, 14744.00
705.3100, 14804.00
706.4650, 14676.00
707.6190, 14716.00
708.7740, 14516.00
709.9290, 14628.00
711.0830, 14516.00
712.2370, 14578.00
713.3910, 14689.00
714.5450, 14844.75
715.6980, 14586.95
716.8520, 14501.68
718.0050, 14134.00
719.1580, 14079.00
720.3110, 14064.00
721.4640, 14055.00
722.6170, 13931.00
723.7700, 13856.38
724.9220, 13709.00
726.0740, 13613.00
727.2260, 13431.00
728.3780, 13312.00
729.5300, 13209.30
730.6810, 13078.22
731.8330, 13003.00
732.9840, 12919.00
734.1350, 12795.00
735.2860, 12825.00
736.4370, 12678.00
737.5880, 12659.00
738.7380, 12683.00
739.8880, 12523.00
741.0390, 12384.00
742.1890, 12558.00
743.3380, 12298.00
744.4880, 12364.00
745.6380, 12318.00
746.7870, 12179.00
747.9360, 12222.00
749.0850, 12084.19
750.2340, 12064.00
751.3830, 12033.00
752.5310, 12078.00
753.6800, 11975.37
754.8280, 11983.07
755.9760, 11916.00
757.1240, 11858.00
758.2720, 12077.00
759.4190, 11880.00
760.5670, 12022.00
761.7140, 11974.00
762.8610, 11768.00
764.0080, 11885.00
765.1550, 11776.31
766.3020, 11674.00
767.4480, 11670.00
768.5950, 11717.00
769.7410, 11569.00
770.8870, 11527.00
772.0330, 11532.00
773.1780, 11368.00
774.3240, 11400.00
775.4690, 11291.00
776.6140, 11181.00
777.7590, 11302.00
778.9040, 11247.00
780.0490, 11264.00
781.1940, 11237.00
782.3380, 11201.00
783.4820, 11120.00
784.6260, 11069.21
785.7700, 11175.00
786.9140, 10973.00
788.0580, 10989.00
789.2010, 11052.00
790.3450, 10978.36
791.4880, 10968.93
792.6310, 10950.00
793.7730, 10880.00
794.9160, 10777.00
796.0590, 10767.00
797.2010, 10775.00
798.3430, 10737.00
799.4850, 10771.00
800.6270, 10739.00
801.7690, 10689.00
802.9100, 10822.00
804.0520, 10683.33
805.1930, 10635.00
806.3340, 10612.00
807.4750, 10450.00
808.6160, 10633.00
809.7560, 10445.00
810.8970, 10479.00
812.0370, 10552.00
813.1770, 10548.00
814.3170, 10441.00
815.4570, 10503.00
816.5960, 10461.87
817.7360, 10477.48
818.8750, 10452.00
820.0140, 10524.00
821.1530, 10524.00
822.2920, 10525.00
823.4310, 10468.00
824.5690, 10432.00
825.7070, 10497.00
826.8460, 10439.83
827.9840, 10660.00
829.1220, 10477.00
830.2590, 10516.00
831.3970, 10685.00
832.5340, 10456.00
833.6710, 10520.00
834.8080, 10520.00
835.9450, 10802.00
837.0820, 10755.00
838.2190, 10643.00
839.3550, 10618.00
840.4910, 10651.00
841.6270, 10627.00
842.7630, 10678.00
843.8990, 10555.00
845.0350, 10760.00
846.1700, 10593.00
847.3060, 10852.00
848.4410, 10842.00
849.5760, 10838.00
850.7100, 10751.00
851.8450, 10705.00
852.9800, 10842.00
854.1140, 10885.00
855.2480, 10913.00
856.3820, 11066.00
857.5160, 11009.00
858.6500, 11184.00
859.7830, 11159.00
860.9170, 11298.00
862.0500, 11347.50
863.1830, 11204.00
864.3160, 11428.00
865.4480, 11459.00
866.5810, 11443.00
867.7130, 11354.00
868.8460, 11657.00
869.9780, 11470.00
871.1100, 11790.00
872.2410, 11749.00
873.3730, 11761.00
874.5050, 11729.00
875.6360, 11838.00
876.7670, 11913.00
877.8980, 12053.00
879.0290, 12092.00
880.1590, 12205.00
881.2900, 12280.00
882.4200, 12359.00
883.5500, 12415.00
884.6800, 12439.00
885.8100, 12508.00
886.9400, 12582.00
888.0690, 12683.92
889.1990, 12821.00
890.3280, 12926.00
891.4570, 12979.00
892.5860, 13086.00
893.7140, 13177.86
894.8430, 13311.00
895.9710, 13370.52
897.1000, 13505.00
898.2280, 13591.00
899.3560, 13657.00
900.4830, 13672.00
901.6110, 13787.00
902.7380, 13955.00
903.8660, 13898.00
904.9930, 14060.00
906.1200, 14199.00
907.2460, 14410.00
908.3730, 14456.00
909.5000, 14597.00
910.6260, 14892.00
911.7520, 14878.67
912.8780, 15180.16
914.0040, 15393.35
915.1290, 15522.92
916.2550, 15318.78
917.3800, 15545.57
918.5050, 15599.63
919.6300, 15646.61
920.7550, 15934.06
921.8800, 15778.39
923.0040, 15897.00
924.1290, 15964.00
925.2530, 15993.00
926.3770, 15953.00
927.5010, 16031.77
928.6250, 15977.00
929.7480, 16092.00
930.8720, 16230.00
931.9950, 16196.00
933.1180, 16215.00
934.2410, 16420.00
935.3640, 16397.00
936.4860, 16481.00
937.6090, 16626.00
938.7310, 16798.00
939.8530, 16849.77
940.9750, 16948.00
942.0970, 17001.81
943.2180, 17137.00
944.3400, 17243.00
945.4610, 17309.00
946.5820, 17406.00
947.7030, 17384.80
948.8240, 17458.20
949.9450, 17401.00
951.0650, 17358.00
952.1860, 17254.19
953.3060, 17135.61
954.4260, 16981.00
955.5460, 16677.00
956.6650, 16576.00
957.7850, 16077.00
958.9040, 15982.00
960.0230, 15622.00
961.1420, 15563.00
962.2610, 15096.00
963.3800, 14947.00
964.4990, 14659.00
965.6170, 14377.00
966.7350, 14184.60
967.8530, 14105.00
968.9710, 13744.00
970.0890, 13706.00
971.2070, 13519.00
972.3240, 13642.00
973.4410, 13373.00
974.5580, 13198.00
975.6750, 13091.00
976.7920, 13255.00
977.9090, 13086.00
979.0250, 12990.00
980.1410, 13076.43
981.2580, 12983.88
982.3740, 13106.00
983.4890, 12985.00
984.6050, 12901.00
985.7200, 12898.00
986.8360, 12858.97
987.9510, 13073.00
989.0660, 12855.00
990.1810, 12970.00
991.2950, 12930.00
992.4100, 12848.00
993.5240, 12967.00
994.6390, 12972.00
995.7530, 13024.00
996.8660, 12979.00
997.9800, 13028.00
999.0940, 13043.77
1000.207, 13041.48
1001.320, 13091.00
1002.433, 13108.00
1003.546, 13121.00
1004.659, 13253.00
1005.772, 13335.00
1006.884, 13374.36
1007.996, 13446.70
1009.108, 13516.00
1010.220, 13481.00
1011.332, 13639.00
1012.444, 13574.00
1013.555, 13682.57
1014.666, 13824.00
1015.777, 13888.00
1016.888, 13779.00
1017.999, 13945.00
1019.110, 14072.00
1020.220, 14028.00
1021.331, 14726.00
1022.441, 14553.00
1023.551, 14527.07
1024.661, 14324.00
1025.770, 14203.00
1026.880, 14205.00
1027.989, 14190.00
1029.098, 14219.00
1030.207, 13738.67
1031.316, 13920.28
1032.425, 14013.60
1033.533, 14023.39
1034.642, 13699.38
1035.750, 13806.39
1036.858, 13740.68
1037.966, 13667.89
1039.073, 13835.58
1040.181, 13560.14
1041.288, 13724.02
1042.396, 13712.52
1043.503, 13437.53
1044.610, 13392.00
1045.716, 13178.00
1046.823, 13217.00
1047.929, 13123.00
1049.036, 13055.00
1050.142, 12990.00
1051.248, 12995.00
1052.353, 12928.00
1053.459, 12826.00
1054.564, 12855.45
1055.670, 12837.00
1056.775, 12820.00
1057.880, 12826.00
1058.985, 12894.00
1060.089, 12858.15
1061.194, 12875.00
1062.298, 12855.00
1063.402, 12764.00
1064.506, 12794.00
1065.610, 12686.00
1066.713, 12716.00
1067.817, 12666.00
1068.920, 12784.00
1070.023, 12665.00
1071.126, 12730.00
1072.229, 12609.84
1073.332, 12809.28
1074.435, 12920.43
1075.537, 12948.03
1076.639, 12641.86
1077.741, 12766.69
1078.843, 12718.80
1079.945, 12663.82
1081.046, 12849.31
1082.148, 12591.69
1083.249, 12773.37
1084.350, 12779.69
1085.451, 12616.75
1086.551, 12411.00
1087.652, 12594.00
1088.752, 12442.00
1089.853, 12455.00
1090.953, 12394.00
1092.053, 12428.00
1093.152, 12366.58
1094.252, 12363.75
1095.351, 12281.00
1096.451, 12310.00
1097.550, 12309.00
1098.649, 12215.60
1099.748, 12279.00
1100.846, 12170.00
1101.945, 12158.00
1103.043, 12201.00
1104.141, 12088.99
1105.239, 12055.00
1106.337, 11907.00
1107.434, 12113.00
1108.532, 11964.00
1109.629, 11890.00
1110.726, 12004.00
1111.823, 11862.00
1112.920, 12020.00
1114.017, 11771.00
1115.113, 12003.00
1116.210, 11983.00
1117.306, 11818.00
1118.402, 11891.00
1119.498, 12007.00
1120.593, 12005.00
1121.689, 11922.00
1122.784, 11993.00
1123.879, 11931.00
1124.974, 11987.00
1126.069, 12012.00
1127.164, 11817.00
1128.259, 11739.00
1129.353, 11656.00
1130.447, 11775.00
1131.541, 11639.00
1132.635, 11623.00
1133.729, 11394.00
1134.822, 11474.00
1135.916, 11492.00
1137.009, 11476.77
1138.102, 11486.64
1139.195, 11496.67
1140.288, 11431.00
1141.380, 11522.00
1142.473, 11488.00
1143.565, 11502.00
1144.657, 11431.00
1145.749, 11358.00
1146.841, 11449.00
1147.932, 11314.00
1149.024, 11390.00
1150.115, 11368.00
1151.206, 11331.22
1152.297, 11358.00
1153.388, 11368.00
1154.479, 11364.00
1155.569, 11331.46
1156.659, 11402.00
1157.750, 11284.00
1158.839, 11304.00
1159.929, 11393.00
1161.019, 11336.00
1162.108, 11352.00
1163.198, 11464.00
1164.287, 11292.00
1165.376, 11253.00
1166.465, 11303.00
1167.553, 11380.00
1168.642, 11127.81
1169.730, 11328.90
1170.818, 11441.71
1171.906, 11470.97
1172.994, 11166.45
1174.082, 11292.93
1175.170, 11246.69
1176.257, 11193.37
1177.344, 11380.52
1178.431, 11124.54
1179.518, 11307.88
1180.605, 11315.85
1181.691, 11404.08
1182.778, 11318.52
1183.864, 11288.00
1184.950, 11250.00
1186.036, 11312.00
1187.122, 11298.58
1188.207, 11349.00
1189.292, 11320.00
1190.378, 11341.00
1191.463, 11373.00
1192.548, 11354.00
1193.632, 11350.00
1194.717, 11313.00
1195.801, 11394.00
1196.886, 11484.00
1197.970, 11439.00
1199.054, 11425.00
1200.137, 11405.00
1201.221, 11359.00
1202.305, 11352.00
1203.388, 11298.00
1204.471, 11356.00
1205.554, 11306.00
1206.637, 11401.00
1207.719, 11307.00
1208.802, 11395.00
1209.884, 11407.00
1210.966, 11431.84
1212.048, 11458.66
1213.130, 11448.03
1214.212, 11469.00
1215.293, 11423.00
1216.374, 11411.00
1217.456, 11388.00
1218.536, 11447.00
1219.617, 11433.00
1220.698, 11473.00
1221.778, 11400.00
1222.859, 11361.00
1223.939, 11355.00
1225.019, 11345.10
1226.099, 11524.00
1227.178, 11405.00
1228.258, 11458.00
1229.337, 11545.00
1230.417, 11338.00
1231.496, 11577.00
1232.574, 11509.00
1233.653, 11508.00
1234.732, 11552.00
1235.810, 11471.00
1236.888, 11522.00
1237.966, 11611.00
1239.044, 11531.00
1240.122, 11529.00
1241.199, 11474.00
1242.277, 11613.00
1243.354, 11547.00
1244.431, 11584.00
1245.508, 11553.00
1246.585, 11587.00
1247.661, 11515.00
1248.738, 11623.00
1249.814, 11593.00
1250.890, 11538.00
1251.966, 11568.00
1253.042, 11628.00
1254.117, 11539.00
1255.193, 11546.00
1256.268, 11707.48
1257.343, 11668.00
1258.418, 11678.12
1259.493, 11760.00
1260.567, 11595.00
1261.642, 11668.00
1262.716, 11593.92
1263.790, 11623.80
1264.864, 11641.00
1265.938, 11736.00
1267.011, 11725.00
1268.085, 11805.00
1269.158, 11822.00
1270.231, 11840.58
1271.304, 11818.00
1272.377, 11854.00
1273.450, 11600.85
1274.522, 11807.08
1275.594, 11925.01
1276.666, 11959.41
1277.738, 11660.02
1278.810, 11791.64
1279.882, 11750.53
1280.953, 11702.34
1282.025, 11894.62
1283.096, 11643.78
1284.167, 11832.24
1285.238, 11845.34
1286.308, 11938.70
1287.379, 11858.26
1288.449, 11831.50
1289.519, 11978.59
1290.589, 12029.42
1291.659, 11928.98
1292.729, 12027.43
1293.798, 11770.51
1294.868, 11825.44
1295.937, 12014.91
1297.006, 11923.20
1298.075, 12024.83
1299.143, 12052.82
1300.212, 11746.18
1301.280, 12021.50
1302.348, 12045.14
1303.416, 11810.36
1304.484, 12065.74
1305.552, 11866.58
1306.620, 11829.67
1307.687, 11914.85
1308.754, 11872.74
1309.821, 12031.32
1310.888, 11996.56
1311.955, 11944.53
1313.021, 11967.88
1314.088, 11777.63
1315.154, 11983.66
1316.220, 11918.99
1317.286, 11988.88
1318.352, 12089.26
1319.417, 11956.11
1320.483, 12070.20
1321.548, 11800.89
1322.613, 11852.38
1323.678, 11869.33
1324.743, 12091.32
1325.807, 11823.87
1326.872, 11866.45
1327.936, 12041.02
1329.000, 12030.90
1330.064, 12097.99
1331.128, 11936.48
1332.191, 11989.72
1333.255, 11983.77
1334.318, 12182.38
1335.381, 12219.49
1336.444, 12061.85
1337.507, 11905.03
1338.569, 12118.36
1339.632, 11906.00
1340.694, 11869.00
1341.756, 11990.00
1342.818, 11932.00
1343.880, 11916.00
1344.941, 11932.00
1346.003, 11976.00
1347.064, 11979.77
1348.125, 12066.00
1349.186, 12005.00
1350.247, 12001.22
1351.308, 11966.00
1352.368, 12056.00
1353.428, 11950.00
1354.489, 12175.00
1355.549, 12114.20
1356.608, 11912.00
1357.668, 11964.00
1358.727, 11936.97
1359.787, 11971.32
1360.846, 12017.00
1361.905, 12021.00
1362.964, 12049.00
1364.022, 12058.00
1365.081, 12031.00
1366.139, 12004.00
1367.197, 12019.00
1368.255, 11923.00
1369.313, 11942.00
1370.371, 12061.00
1371.428, 11943.00
1372.486, 11884.00
1373.543, 11967.00
1374.600, 12079.00
1375.657, 11878.00
1376.713, 11936.00
1377.770, 11875.00
1378.826, 11902.00
1379.882, 11973.00
1380.938, 12152.00
1381.994, 12158.00
1383.050, 12109.67
1384.106, 12405.00
1385.161, 11955.00
1386.216, 11984.00
1387.271, 12037.00
1388.326, 12224.00
1389.381, 12092.89
1390.435, 12075.48
1391.490, 12002.00
1392.544, 11990.52
1393.598, 12047.00
1394.652, 12040.00
1395.705, 12056.00
1396.759, 12160.00
1397.812, 11976.00
1398.866, 12027.00
1399.919, 11995.00
1400.972, 12095.00
1402.024, 12072.00
1403.077, 12116.00
1404.129, 12135.00
1405.181, 12066.39
1406.233, 12048.00
1407.285, 11955.00
1408.337, 12127.00
1409.389, 12152.00
1410.440, 12243.00
1411.491, 12203.82
1412.542, 12147.00
1413.593, 12087.00
1414.644, 12166.00
1415.695, 12178.00
1416.745, 12089.00
1417.795, 12280.00
1418.845, 12195.38
1419.895, 12089.46
1420.945, 12295.06
1421.995, 12412.37
1423.044, 12446.12
1424.093, 12146.10
1425.142, 12277.09
1426.191, 12235.34
1427.240, 12186.52
1428.289, 12378.16
1429.337, 12126.69
1430.385, 12314.51
1431.433, 12326.98
1432.481, 12419.70
1433.529, 12338.63
1434.577, 12311.25
1435.624, 12457.70
1436.672, 12507.90
1437.719, 12406.82
1438.766, 12504.64
1439.812, 12247.09
1440.859, 12301.38
1441.905, 12490.22
1442.952, 12397.88
1443.998, 12498.88
1445.044, 12526.24
1446.090, 12218.96
1447.135, 12493.65
1448.181, 12516.66
1449.226, 12281.24
1450.271, 12535.99
1451.316, 12336.20
1452.361, 12298.65
1453.405, 12383.20
1454.450, 12340.46
1455.494, 12498.41
1456.538, 12463.02
1457.582, 12410.36
1458.626, 12433.08
1459.670, 12242.20
1460.713, 12447.59
1461.757, 12382.29
1462.800, 12451.55
1463.843, 12551.30
1464.886, 12417.52
1465.928, 12530.98
1466.971, 12261.04
1468.013, 12311.90
1469.055, 12328.21
1470.097, 12549.57
1471.139, 12281.50
1472.181, 12323.44
1473.222, 12497.38
1474.263, 12486.63
1475.305, 12553.10
1476.346, 12390.95
1477.386, 12443.56
1478.427, 12436.98
1479.468, 12634.96
1480.508, 12671.45
1481.548, 12513.17
1482.588, 12355.72
1483.628, 12568.42
1484.668, 12430.29
1485.707, 12481.43
1486.747, 12337.09
1487.786, 12361.53
1488.825, 12383.29
1489.864, 12491.57
1490.902, 12337.49
1491.941, 12523.74
1492.979, 12513.28
1494.017, 12560.77
1495.055, 12601.81
1496.093, 12378.90
1497.131, 12372.37
1498.168, 12675.44
1499.206, 12506.35
1500.243, 12432.55
1501.280, 12426.50
1502.317, 12740.17
1503.354, 12756.66
1504.390, 12417.94
1505.426, 12717.51
1506.463, 12624.39
1507.499, 12647.97
1508.535, 12628.97
1509.570, 12622.57
1510.606, 12455.86
1511.641, 12500.41
1512.676, 12716.74
1513.711, 12640.21
1514.746, 12762.67
1515.781, 12522.49
1516.816, 12497.56
1517.850, 12529.77
1518.884, 12582.82
1519.918, 12469.37
1520.952, 12688.90
1521.986, 12686.72
1523.019, 12492.40
1524.053, 12506.51
1525.086, 12486.01
1526.119, 12825.78
1527.152, 12670.22
1528.185, 12479.59
1529.217, 12681.62
1530.250, 12757.80
1531.282, 12663.82
1532.314, 12660.26
1533.346, 12485.16
1534.377, 12573.12
1535.409, 12570.60
1536.440, 12717.15
1537.472, 12542.74
1538.503, 12737.82
1539.534, 12572.02
1540.564, 12782.05
1541.595, 12608.62
1542.625, 12776.78
1543.656, 12537.20
1544.686, 12592.74
1545.716, 12671.67
1546.745, 12826.16
1547.775, 12690.16
1548.804, 12862.57
1549.834, 12764.33
1550.863, 12842.25
1551.892, 12822.48
1552.920, 12680.45
1553.949, 12883.26
1554.977, 12771.56
1556.006, 12872.23
1557.034, 12628.92
1558.062, 12803.76
1559.089, 12888.58
1560.117, 12954.86
1561.144, 12943.13
1562.172, 12896.65
1563.199, 12904.70
1564.226, 12821.73
1565.252, 13000.00
1566.279, 12962.00
1567.305, 12936.00
1568.332, 12917.00
1569.358, 13088.00
1570.384, 13087.00
##END=



