##NAMES=Laverovite
##RRUFFID=R060216
##IDEAL CHEMISTRY=K_2_NaMn^2+^_7_Zr^4+^_2_(Si_4_O_12_)_2_O_2_(OH)_4_F
##LOCALITY=Desourdy Quarry, Mont Saint-Hilaire, Rouville County, Quebec, Canada
##OWNER=RRUFF
##SOURCE=Royal Ontario Museum
##DESCRIPTION=Brown fragment showing lamellar habit. Type sample
##STATUS=The identification of this mineral has been confirmed by X-ray diffraction and chemical analysis
##URL=rruff.info/R060216
##MEASURED CHEMISTRY=(K_1.74_Na_0.18_[box]_0.08_)_Σ=2_(Na_0.92_Ca_0.08_)_Σ=1_(Mn_4.09_Fe^2+^_2.67_Mg_0.24_)_Σ=7_(Zr_1.42_Ti_0.58_)_Σ=2_(Si_7.86_Al_0.14_)_Σ=8_O_26_((OH)_3.14_O_0.86_)_Σ=4_
##PIN_ID=L01682
##ORIENTATION=Laser parallel to (0 -1 -1). Fiducial mark perpendicular to laser is parallel to a [1 0 0]
159.9080, 13736.00
161.1340, 14167.00
162.3590, 14672.00
163.5850, 15517.00
164.8110, 16190.00
166.0360, 16594.00
167.2610, 17000.10
168.4860, 17157.43
169.7110, 17220.00
170.9360, 17090.00
172.1610, 16719.00
173.3850, 16347.00
174.6100, 16481.00
175.8340, 16191.68
177.0580, 16581.00
178.2820, 16025.00
179.5050, 15880.00
180.7290, 15829.00
181.9520, 15566.00
183.1760, 15635.00
184.3990, 15875.00
185.6220, 16263.00
186.8450, 16310.00
188.0670, 16377.00
189.2900, 16359.00
190.5120, 16585.00
191.7340, 16848.00
192.9560, 17227.00
194.1780, 17537.00
195.4000, 17693.39
196.6220, 17944.01
197.8430, 18279.00
199.0640, 18641.00
200.2860, 19601.00
201.5070, 20810.00
202.7270, 20836.00
203.9480, 24375.00
205.1690, 15727.00
206.3890, 13795.00
207.6090, 13368.00
208.8290, 13152.00
210.0490, 13081.00
211.2690, 13333.00
212.4890, 13480.00
213.7080, 13672.00
214.9280, 13878.00
216.1470, 13715.00
217.3660, 13504.00
218.5850, 13641.00
219.8030, 13688.00
221.0220, 13855.00
222.2400, 13702.00
223.4590, 13920.00
224.6770, 13835.00
225.8950, 13970.00
227.1120, 13988.12
228.3300, 14083.00
229.5480, 14019.00
230.7650, 14043.00
231.9820, 14076.00
233.1990, 14165.00
234.4160, 14154.00
235.6330, 14180.00
236.8490, 14093.20
238.0660, 14260.35
239.2820, 14341.82
240.4980, 14342.19
241.7140, 14018.56
242.9300, 14113.31
244.1460, 14040.39
245.3610, 13960.62
246.5770, 14114.26
247.7920, 13837.77
249.0070, 14141.00
250.2220, 13927.00
251.4370, 13948.79
252.6510, 13900.97
253.8660, 13838.68
255.0800, 14030.52
256.2940, 14136.67
257.5080, 14161.71
258.7220, 13862.75
259.9360, 13982.17
261.1490, 13933.93
262.3630, 13878.81
263.5760, 14057.12
264.7890, 13805.29
266.0020, 13979.90
267.2150, 13785.00
268.4270, 13741.00
269.6400, 13431.00
270.8520, 13392.00
272.0640, 13271.93
273.2760, 13041.00
274.4880, 13081.00
275.7000, 13077.00
276.9120, 12941.00
278.1230, 12825.00
279.3340, 12716.00
280.5450, 12563.00
281.7560, 12492.00
282.9670, 12651.00
284.1780, 12493.22
285.3880, 12759.00
286.5980, 12425.00
287.8090, 12310.00
289.0190, 12366.00
290.2290, 12422.00
291.4380, 12401.00
292.6480, 12448.00
293.8570, 12540.00
295.0670, 12519.00
296.2760, 12620.00
297.4850, 12641.00
298.6930, 12633.61
299.9020, 12679.00
301.1110, 12616.00
302.3190, 12517.00
303.5270, 12506.00
304.7350, 12613.00
305.9430, 12701.00
307.1510, 12584.00
308.3580, 12618.00
309.5660, 12620.00
310.7730, 12668.00
311.9800, 12655.00
313.1870, 12592.00
314.3940, 12513.00
315.6010, 12609.00
316.8070, 12576.00
318.0130, 12660.00
319.2200, 12627.00
320.4260, 12713.90
321.6310, 12779.00
322.8370, 12808.00
324.0430, 12936.00
325.2480, 12833.00
326.4540, 12877.00
327.6590, 12852.00
328.8640, 12974.00
330.0680, 13088.00
331.2730, 12921.00
332.4780, 13078.00
333.6820, 12936.00
334.8860, 13128.00
336.0900, 13039.00
337.2940, 13064.00
338.4980, 13042.00
339.7010, 13075.00
340.9050, 13074.64
342.1080, 13162.00
343.3110, 13090.00
344.5140, 12902.23
345.7170, 13109.47
346.9200, 13231.00
348.1220, 13271.43
349.3240, 12987.85
350.5270, 13122.67
351.7290, 13089.80
352.9310, 13050.07
354.1320, 13243.75
355.3340, 13007.30
356.5350, 13197.28
357.7370, 13217.04
358.9380, 13314.70
360.1390, 13243.66
361.3400, 13224.72
362.5400, 13374.54
363.7410, 13090.00
364.9410, 13304.00
366.1410, 13283.00
367.3410, 13215.00
368.5410, 13283.00
369.7410, 13078.00
370.9400, 13113.00
372.1400, 13079.00
373.3390, 13119.00
374.5380, 13197.00
375.7370, 13192.72
376.9360, 13260.34
378.1350, 13204.00
379.3330, 13301.00
380.5310, 13213.00
381.7300, 13101.00
382.9280, 13109.00
384.1260, 13110.00
385.3230, 13089.00
386.5210, 13000.00
387.7180, 13003.00
388.9160, 13013.00
390.1130, 12943.26
391.3100, 12887.00
392.5060, 12845.00
393.7030, 12789.00
394.9000, 12724.26
396.0960, 12732.76
397.2920, 12695.00
398.4880, 12749.00
399.6840, 12754.00
400.8800, 12759.00
402.0750, 12707.00
403.2710, 12601.00
404.4660, 12640.00
405.6610, 12588.00
406.8560, 12550.00
408.0510, 12590.00
409.2450, 12419.00
410.4400, 12474.00
411.6340, 12575.00
412.8280, 12469.42
414.0220, 12415.00
415.2160, 12458.00
416.4100, 12336.00
417.6030, 12442.00
418.7970, 12428.76
419.9900, 12514.00
421.1830, 12461.00
422.3760, 12383.00
423.5690, 12331.00
424.7610, 12503.00
425.9540, 12355.00
427.1460, 12411.00
428.3380, 12294.00
429.5300, 12358.00
430.7220, 12310.00
431.9140, 12242.00
433.1050, 12248.00
434.2970, 12043.00
435.4880, 12040.00
436.6790, 11959.75
437.8700, 12112.00
439.0610, 11941.00
440.2510, 11803.00
441.4420, 12004.00
442.6320, 11953.00
443.8220, 11762.00
445.0120, 11801.00
446.2020, 11901.00
447.3910, 11773.00
448.5810, 11883.00
449.7700, 11972.00
450.9600, 11932.00
452.1490, 11904.00
453.3370, 11952.57
454.5260, 11975.09
455.7150, 11993.00
456.9030, 12087.00
458.0910, 12109.00
459.2800, 12139.00
460.4670, 12199.40
461.6550, 12245.67
462.8430, 12293.00
464.0300, 12363.00
465.2180, 12423.00
466.4050, 12466.08
467.5920, 12433.00
468.7790, 12469.00
469.9650, 12488.00
471.1520, 12445.00
472.3380, 12517.00
473.5250, 12599.00
474.7110, 12550.00
475.8970, 12973.00
477.0820, 13034.00
478.2680, 12793.00
479.4540, 12575.00
480.6390, 12749.00
481.8240, 12522.00
483.0090, 12733.00
484.1940, 12530.00
485.3780, 12569.00
486.5630, 12517.00
487.7470, 12769.00
488.9320, 12681.00
490.1160, 12634.00
491.3000, 12604.00
492.4830, 12551.00
493.6670, 12555.00
494.8500, 12484.00
496.0340, 12469.00
497.2170, 12595.00
498.4000, 12661.00
499.5820, 12455.00
500.7650, 12611.00
501.9480, 12512.00
503.1300, 12475.00
504.3120, 12462.00
505.4940, 12500.00
506.6760, 12534.00
507.8580, 12530.00
509.0390, 12454.00
510.2210, 12487.00
511.4020, 12334.00
512.5830, 12500.00
513.7640, 12538.00
514.9450, 12443.00
516.1250, 12526.00
517.3060, 12438.00
518.4860, 12454.50
519.6660, 12310.00
520.8460, 12449.00
522.0260, 12409.00
523.2060, 12373.00
524.3850, 12465.01
525.5650, 12428.55
526.7440, 12514.00
527.9230, 12482.00
529.1020, 12388.00
530.2810, 12468.00
531.4590, 12564.00
532.6380, 12340.00
533.8160, 12508.00
534.9940, 12589.00
536.1720, 12453.00
537.3500, 12535.00
538.5270, 12529.00
539.7050, 12582.00
540.8820, 12623.00
542.0590, 12671.00
543.2360, 12830.00
544.4130, 12781.00
545.5900, 13038.00
546.7660, 13073.00
547.9430, 13244.00
549.1190, 13256.00
550.2950, 13374.00
551.4710, 13601.00
552.6470, 13861.00
553.8220, 13973.00
554.9980, 13839.00
556.1730, 13958.00
557.3480, 14172.00
558.5230, 14114.73
559.6980, 14253.00
560.8730, 14244.00
562.0470, 14088.00
563.2220, 14242.00
564.3960, 14209.00
565.5700, 14133.00
566.7440, 14055.00
567.9170, 13971.00
569.0910, 14096.00
570.2640, 14028.67
571.4380, 14125.00
572.6110, 13976.00
573.7840, 13933.00
574.9570, 13746.00
576.1290, 13588.00
577.3020, 13694.00
578.4740, 13610.00
579.6460, 13802.00
580.8180, 14270.00
581.9900, 13858.00
583.1620, 14125.00
584.3330, 13688.00
585.5040, 13627.00
586.6760, 13750.00
587.8470, 13844.00
589.0180, 13819.47
590.1880, 13839.48
591.3590, 13826.00
592.5290, 13827.00
593.7000, 13812.00
594.8700, 13965.00
596.0400, 13879.00
597.2090, 14018.00
598.3790, 13994.00
599.5490, 13893.00
600.7180, 14515.00
601.8870, 14252.43
603.0560, 14363.00
604.2250, 14215.00
605.3940, 14265.00
606.5620, 14350.00
607.7300, 14378.00
608.8990, 14458.00
610.0670, 14344.00
611.2350, 14568.00
612.4020, 14522.00
613.5700, 14812.00
614.7370, 14858.00
615.9050, 14726.00
617.0720, 15018.00
618.2390, 15049.98
619.4060, 15107.95
620.5720, 15258.00
621.7390, 15376.00
622.9050, 15279.00
624.0710, 15658.00
625.2370, 15568.00
626.4030, 15767.00
627.5690, 15824.00
628.7340, 16406.00
629.9000, 16102.00
631.0650, 16366.00
632.2300, 16581.00
633.3950, 16382.00
634.5600, 16755.00
635.7240, 16966.00
636.8890, 17325.00
638.0530, 17640.40
639.2170, 17859.00
640.3810, 18276.00
641.5450, 18497.00
642.7080, 18756.00
643.8720, 19539.00
645.0350, 20251.00
646.1980, 20486.00
647.3610, 20975.00
648.5240, 21692.00
649.6870, 22321.00
650.8490, 22970.00
652.0120, 23435.00
653.1740, 23725.00
654.3360, 23787.00
655.4980, 23682.00
656.6600, 23497.00
657.8210, 22995.00
658.9830, 22493.00
660.1440, 22360.00
661.3050, 22146.00
662.4660, 20805.00
663.6270, 20370.00
664.7870, 19905.00
665.9480, 19454.00
667.1080, 19349.00
668.2680, 18930.00
669.4280, 18718.00
670.5880, 18491.00
671.7480, 18221.00
672.9070, 18076.00
674.0670, 18144.00
675.2260, 17918.00
676.3850, 18088.00
677.5440, 17786.00
678.7030, 17995.00
679.8610, 18051.00
681.0200, 18022.00
682.1780, 18067.00
683.3360, 18052.00
684.4940, 18353.00
685.6520, 18323.00
686.8090, 18416.00
687.9670, 18512.00
689.1240, 18372.00
690.2810, 18493.00
691.4380, 18499.19
692.5950, 18476.00
693.7520, 18640.00
694.9080, 18607.00
696.0650, 18790.00
697.2210, 18722.75
698.3770, 18552.00
699.5330, 18617.00
700.6880, 18546.00
701.8440, 18511.00
702.9990, 18609.00
704.1550, 18542.00
705.3100, 18303.00
706.4650, 18393.00
707.6190, 18404.00
708.7740, 18217.00
709.9290, 18335.00
711.0830, 18277.00
712.2370, 18432.00
713.3910, 18171.00
714.5450, 17977.00
715.6980, 18013.00
716.8520, 17879.00
718.0050, 17642.00
719.1580, 17659.00
720.3110, 17827.00
721.4640, 17623.00
722.6170, 17558.41
723.7700, 17805.00
724.9220, 17296.00
726.0740, 16611.00
727.2260, 16652.00
728.3780, 16494.00
729.5300, 16482.00
730.6810, 16304.00
731.8330, 16151.00
732.9840, 16103.00
734.1350, 15957.00
735.2860, 15832.00
736.4370, 15597.00
737.5880, 15509.00
738.7380, 15433.79
739.8880, 15348.15
741.0390, 15319.00
742.1890, 15254.00
743.3380, 15108.00
744.4880, 14985.00
745.6380, 15028.00
746.7870, 14937.00
747.9360, 14979.00
749.0850, 14814.00
750.2340, 14757.00
751.3830, 14818.00
752.5310, 14633.00
753.6800, 14639.00
754.8280, 14769.00
755.9760, 14755.00
757.1240, 14614.00
758.2720, 14564.00
759.4190, 14440.00
760.5670, 14443.00
761.7140, 14360.00
762.8610, 14433.00
764.0080, 14359.00
765.1550, 14226.00
766.3020, 14129.00
767.4480, 14256.00
768.5950, 14119.00
769.7410, 14108.09
770.8870, 13953.00
772.0330, 14045.00
773.1780, 13835.00
774.3240, 13875.00
775.4690, 13823.00
776.6140, 13657.00
777.7590, 13723.00
778.9040, 13606.05
780.0490, 13623.00
781.1940, 13504.00
782.3380, 13408.00
783.4820, 13405.00
784.6260, 13468.00
785.7700, 13322.00
786.9140, 13297.00
788.0580, 13310.00
789.2010, 13234.00
790.3450, 13217.60
791.4880, 13171.95
792.6310, 13134.00
793.7730, 13069.89
794.9160, 13020.00
796.0590, 12962.00
797.2010, 13001.00
798.3430, 12889.00
799.4850, 12904.88
800.6270, 12879.00
801.7690, 12867.00
802.9100, 12806.92
804.0520, 12748.00
805.1930, 12709.00
806.3340, 12695.00
807.4750, 12642.00
808.6160, 12632.65
809.7560, 12698.00
810.8970, 12622.00
812.0370, 12613.00
813.1770, 12649.00
814.3170, 12592.57
815.4570, 12568.00
816.5960, 12537.00
817.7360, 12530.00
818.8750, 12515.08
820.0140, 12519.00
821.1530, 12499.00
822.2920, 12507.00
823.4310, 12492.00
824.5690, 12494.07
825.7070, 12439.00
826.8460, 12480.00
827.9840, 12439.00
829.1220, 12389.00
830.2590, 12531.00
831.3970, 12395.00
832.5340, 12550.00
833.6710, 12529.00
834.8080, 12454.00
835.9450, 12527.00
837.0820, 12567.00
838.2190, 12464.00
839.3550, 12403.00
840.4910, 12561.00
841.6270, 12498.00
842.7630, 12502.00
843.8990, 12554.00
845.0350, 12568.00
846.1700, 12704.00
847.3060, 12685.00
848.4410, 12784.00
849.5760, 12946.57
850.7100, 12926.45
851.8450, 12954.62
852.9800, 12963.00
854.1140, 12906.00
855.2480, 12876.93
856.3820, 12900.00
857.5160, 12882.00
858.6500, 12960.00
859.7830, 13023.00
860.9170, 13069.00
862.0500, 13055.00
863.1830, 13047.00
864.3160, 13048.00
865.4480, 13214.00
866.5810, 13148.00
867.7130, 13232.82
868.8460, 13460.00
869.9780, 13376.00
871.1100, 13407.00
872.2410, 13597.00
873.3730, 13560.69
874.5050, 13741.00
875.6360, 13641.00
876.7670, 13801.00
877.8980, 13641.72
879.0290, 13913.71
880.1590, 14099.93
881.2900, 14205.12
882.4200, 13986.23
883.5500, 14185.73
884.6800, 14217.56
885.8100, 14242.52
886.9400, 14500.90
888.0690, 14329.07
889.1990, 14583.75
890.3280, 14668.14
891.4570, 14830.44
892.5860, 14824.03
893.7140, 14869.66
894.8430, 15084.12
895.9710, 15205.07
897.1000, 15179.24
898.2280, 15346.42
899.3560, 15168.64
900.4830, 15293.49
901.6110, 15549.03
902.7380, 15531.54
903.8660, 15701.81
904.9930, 15800.53
906.1200, 15574.41
907.2460, 15913.15
908.3730, 16007.65
909.5000, 15851.29
910.6260, 16170.67
911.7520, 16048.83
912.8780, 16084.47
914.0040, 16238.64
915.1290, 16269.19
916.2550, 16494.60
917.3800, 16532.28
918.5050, 16553.20
919.6300, 16647.28
920.7550, 16534.02
921.8800, 16805.43
923.0040, 16814.01
924.1290, 16953.28
925.2530, 17122.07
926.3770, 17064.18
927.5010, 17187.00
928.6250, 17221.13
929.7480, 17244.00
930.8720, 17200.00
931.9950, 17233.00
933.1180, 17225.00
934.2410, 17260.93
935.3640, 17358.00
936.4860, 17345.00
937.6090, 17456.00
938.7310, 17483.00
939.8530, 17710.00
940.9750, 17597.00
942.0970, 17766.00
943.2180, 17751.00
944.3400, 17817.00
945.4610, 18004.32
946.5820, 18188.00
947.7030, 18227.00
948.8240, 18272.00
949.9450, 18071.00
951.0650, 18179.00
952.1860, 18038.00
953.3060, 17910.00
954.4260, 17806.00
955.5460, 17734.00
956.6650, 17453.00
957.7850, 17209.00
958.9040, 17283.00
960.0230, 16940.62
961.1420, 16896.00
962.2610, 16413.00
963.3800, 16447.00
964.4990, 16038.00
965.6170, 15963.00
966.7350, 15815.57
967.8530, 15698.00
968.9710, 15574.00
970.0890, 15523.00
971.2070, 15485.00
972.3240, 15447.00
973.4410, 15260.00
974.5580, 15048.00
975.6750, 15144.00
976.7920, 15132.00
977.9090, 15009.48
979.0250, 15027.78
980.1410, 14848.00
981.2580, 14949.00
982.3740, 14913.00
983.4890, 14941.00
984.6050, 14915.00
985.7200, 14936.00
986.8360, 14939.00
987.9510, 14975.53
989.0660, 14977.70
990.1810, 14991.78
991.2950, 14992.00
992.4100, 15007.00
993.5240, 15009.00
994.6390, 15007.00
995.7530, 15020.00
996.8660, 14999.00
997.9800, 15143.00
999.0940, 15061.00
1000.207, 15256.00
1001.320, 15161.00
1002.433, 15225.00
1003.546, 15459.00
1004.659, 15376.00
1005.772, 15443.00
1006.884, 15620.00
1007.996, 15614.90
1009.108, 15777.00
1010.220, 15789.00
1011.332, 15898.87
1012.444, 16034.00
1013.555, 15975.00
1014.666, 16163.00
1015.777, 16125.00
1016.888, 16308.00
1017.999, 16386.00
1019.110, 16387.00
1020.220, 16452.00
1021.331, 16475.00
1022.441, 16581.00
1023.551, 16758.00
1024.661, 16844.00
1025.770, 16884.00
1026.880, 16945.69
1027.989, 16903.78
1029.098, 16943.00
1030.207, 16852.00
1031.316, 16788.00
1032.425, 16906.00
1033.533, 16546.00
1034.642, 16618.00
1035.750, 16386.00
1036.858, 16353.00
1037.966, 16241.00
1039.073, 16009.00
1040.181, 15964.00
1041.288, 15926.00
1042.396, 15901.00
1043.503, 15684.00
1044.610, 15608.00
1045.716, 15548.57
1046.823, 15560.00
1047.929, 15378.00
1049.036, 15402.00
1050.142, 15177.50
1051.248, 15207.08
1052.353, 15244.00
1053.459, 15090.00
1054.564, 15040.00
1055.670, 15011.10
1056.775, 14857.92
1057.880, 14905.00
1058.985, 15016.00
1060.089, 14912.00
1061.194, 14820.00
1062.298, 14924.00
1063.402, 14923.00
1064.506, 14865.00
1065.610, 14869.00
1066.713, 14823.00
1067.817, 14796.17
1068.920, 14781.77
1070.023, 14713.00
1071.126, 14760.00
1072.229, 14669.00
1073.332, 14691.00
1074.435, 14757.00
1075.537, 14605.00
1076.639, 14822.00
1077.741, 14732.00
1078.843, 14648.00
1079.945, 14715.00
1081.046, 14689.00
1082.148, 14644.00
1083.249, 14568.00
1084.350, 14587.00
1085.451, 14665.00
1086.551, 14467.00
1087.652, 14687.00
1088.752, 14532.00
1089.853, 14425.00
1090.953, 14332.00
1092.053, 14335.68
1093.152, 14446.00
1094.252, 14417.00
1095.351, 14369.00
1096.451, 14410.00
1097.550, 14363.00
1098.649, 14329.21
1099.748, 14322.00
1100.846, 14243.00
1101.945, 14067.00
1103.043, 14026.00
1104.141, 14154.00
1105.239, 14021.00
1106.337, 14072.00
1107.434, 13853.00
1108.532, 14024.00
1109.629, 13845.00
1110.726, 13974.00
1111.823, 13930.22
1112.920, 13848.00
1114.017, 13897.00
1115.113, 13726.00
1116.210, 13752.00
1117.306, 13773.00
1118.402, 13787.00
1119.498, 13794.00
1120.593, 13792.23
1121.689, 13722.00
1122.784, 13776.00
1123.879, 13810.39
1124.974, 13808.32
1126.069, 13909.00
1127.164, 13757.00
1128.259, 13630.00
1129.353, 13503.00
1130.447, 13499.00
1131.541, 13542.00
1132.635, 13626.00
1133.729, 13973.00
1134.822, 13731.20
1135.916, 13768.92
1137.009, 13373.00
1138.102, 13537.00
1139.195, 13356.00
1140.288, 13303.00
1141.380, 13285.00
1142.473, 13323.00
1143.565, 13372.00
1144.657, 13484.00
1145.749, 13336.00
1146.841, 13301.00
1147.932, 13441.00
1149.024, 13267.00
1150.115, 13244.00
1151.206, 13242.00
1152.297, 13258.00
1153.388, 13385.00
1154.479, 13237.00
1155.569, 13169.00
1156.659, 13142.00
1157.750, 13327.00
1158.839, 13282.00
1159.929, 13336.00
1161.019, 13203.00
1162.108, 13181.00
1163.198, 13274.00
1164.287, 13317.00
1165.376, 13249.00
1166.465, 13383.00
1167.553, 13260.00
1168.642, 13278.00
1169.730, 13195.00
1170.818, 13082.00
1171.906, 13223.00
1172.994, 13277.00
1174.082, 13092.00
1175.170, 13213.00
1176.257, 13171.00
1177.344, 13143.31
1178.431, 13249.00
1179.518, 13083.46
1180.605, 13286.61
1181.691, 13404.04
1182.778, 13440.38
1183.864, 13152.72
1184.950, 13283.43
1186.036, 13246.47
1187.122, 13202.64
1188.207, 13392.24
1189.292, 13151.69
1190.378, 13337.59
1191.463, 13353.25
1192.548, 13446.82
1193.632, 13371.68
1194.717, 13348.66
1195.801, 13494.38
1196.886, 13546.68
1197.970, 13452.12
1199.054, 13550.63
1200.137, 13304.18
1201.221, 13360.44
1202.305, 13547.31
1203.388, 13461.23
1204.471, 13562.83
1205.554, 13592.94
1206.637, 13298.22
1207.719, 13568.42
1208.802, 13594.31
1209.884, 13369.34
1210.966, 13620.18
1212.048, 13429.80
1213.130, 13396.90
1214.212, 13482.53
1215.293, 13444.60
1216.374, 13601.46
1217.456, 13570.67
1218.536, 13523.09
1219.617, 13548.70
1220.698, 13366.96
1221.778, 13569.88
1222.859, 13510.05
1223.939, 13580.82
1225.019, 13681.20
1226.099, 13554.89
1227.178, 13668.56
1228.258, 13410.08
1229.337, 13462.99
1230.417, 13482.38
1231.496, 13700.80
1232.574, 13444.11
1233.653, 13488.37
1234.732, 13660.77
1235.810, 13653.87
1236.888, 13721.93
1237.966, 13568.07
1239.044, 13622.68
1240.122, 13619.84
1241.199, 13815.55
1242.277, 13854.51
1243.354, 13704.42
1244.431, 13555.12
1245.508, 13765.12
1246.585, 13634.57
1247.661, 13687.75
1248.738, 13551.17
1249.814, 13578.43
1250.890, 13603.09
1251.966, 13711.73
1253.042, 13565.71
1254.117, 13750.02
1255.193, 13743.41
1256.268, 13793.04
1257.343, 13836.41
1258.418, 13623.57
1259.493, 13620.76
1260.567, 13918.47
1261.642, 13757.87
1262.716, 13689.76
1263.790, 13687.42
1264.864, 13995.42
1265.938, 14014.96
1267.011, 13689.68
1268.085, 13984.01
1269.158, 13897.15
1270.231, 13923.56
1271.304, 13908.64
1272.377, 13905.96
1273.450, 13747.66
1274.522, 13794.42
1275.594, 14007.93
1276.666, 13937.17
1277.738, 14059.57
1278.810, 13829.94
1279.882, 13809.26
1280.953, 13840.00
1282.025, 13836.00
1283.096, 13905.00
1284.167, 13844.00
1285.238, 13807.00
1286.308, 13934.00
1287.379, 13868.00
1288.449, 13819.29
1289.519, 14022.00
1290.589, 13809.00
1291.659, 14048.00
1292.729, 13987.31
1293.798, 13904.00
1294.868, 13924.00
1295.937, 13968.00
1297.006, 13860.00
1298.075, 13892.00
1299.143, 13952.00
1300.212, 13953.00
1301.280, 13985.00
1302.348, 13898.00
1303.416, 14078.00
1304.484, 13936.00
1305.552, 13843.00
1306.620, 13915.00
1307.687, 13959.00
1308.754, 13967.00
1309.821, 14019.00
1310.888, 14037.73
1311.955, 13936.00
1313.021, 14072.00
1314.088, 13941.00
1315.154, 13914.00
1316.220, 14060.00
1317.286, 13951.00
1318.352, 13946.00
1319.417, 13961.00
1320.483, 14052.00
1321.548, 13888.00
1322.613, 14158.00
1323.678, 14129.00
1324.743, 13869.00
1325.807, 14108.00
1326.872, 13981.00
1327.936, 13962.00
1329.000, 13940.00
1330.064, 13893.47
1331.128, 13922.00
1332.191, 13886.00
1333.255, 13930.00
1334.318, 13980.00
1335.381, 14060.00
1336.444, 13931.00
1337.507, 13952.00
1338.569, 13890.00
1339.632, 13816.00
1340.694, 13977.00
1341.756, 14042.00
1342.818, 14001.00
1343.880, 14026.00
1344.941, 14029.79
1346.003, 13982.00
1347.064, 14011.00
1348.125, 13944.00
1349.186, 13895.00
1350.247, 13940.00
1351.308, 13985.00
1352.368, 13946.00
1353.428, 14010.00
1354.489, 13953.00
1355.549, 13877.00
1356.608, 13894.00
1357.668, 14062.00
1358.727, 13964.00
1359.787, 14017.00
1360.846, 13902.00
1361.905, 13969.00
1362.964, 13998.00
1364.022, 14032.00
1365.081, 13979.00
1366.139, 14068.00
1367.197, 13917.00
1368.255, 14013.00
1369.313, 13971.00
1370.371, 13961.00
1371.428, 14073.00
1372.486, 13939.00
1373.543, 13949.00
1374.600, 14032.00
1375.657, 13980.00
1376.713, 14003.00
1377.770, 14057.00
1378.826, 14166.00
1379.882, 14177.00
1380.938, 14170.55
1381.994, 14173.89
1383.050, 14076.00
1384.106, 14105.00
1385.161, 14028.00
1386.216, 14000.00
1387.271, 14034.00
1388.326, 14087.00
1389.381, 14052.00
1390.435, 14244.00
1391.490, 13950.00
1392.544, 14070.00
1393.598, 14188.00
1394.652, 13990.00
1395.705, 13986.00
1396.759, 14204.00
1397.812, 14136.00
1398.866, 14131.00
1399.919, 14210.00
1400.972, 14130.25
1402.024, 14258.79
1403.077, 14259.00
1404.129, 14209.00
1405.181, 14231.91
1406.233, 14163.00
1407.285, 14047.09
1408.337, 14248.99
1409.389, 14365.18
1410.440, 14400.26
1411.491, 14111.35
1412.542, 14240.81
1413.593, 14202.61
1414.644, 14157.53
1415.695, 14345.88
1416.745, 14104.08
1417.795, 14288.73
1418.845, 14303.14
1419.895, 14395.47
1420.945, 14319.09
1421.995, 14294.82
1423.044, 14439.30
1424.093, 14490.33
1425.142, 14394.53
1426.191, 14491.80
1427.240, 14244.11
1428.289, 14299.12
1429.337, 14484.74
1430.385, 14397.41
1431.433, 14497.76
1432.481, 14526.63
1433.529, 14230.67
1434.577, 14499.63
1435.624, 14524.27
1436.672, 14298.06
1437.719, 14547.66
1438.766, 14356.03
1439.812, 14321.88
1440.859, 14406.26
1441.905, 14367.08
1442.952, 14522.71
1443.998, 14490.67
1445.044, 14441.86
1446.090, 14466.22
1447.135, 14283.23
1448.181, 14484.92
1449.226, 14423.83
1450.271, 14493.36
1451.316, 14592.50
1452.361, 14464.95
1453.405, 14577.38
1454.450, 14317.65
1455.494, 14369.32
1456.538, 14387.46
1457.582, 14604.64
1458.626, 14346.72
1459.670, 14389.74
1460.713, 14560.89
1461.757, 14552.75
1462.800, 14619.57
1463.843, 14464.47
1464.886, 14517.84
1465.928, 14513.75
1466.971, 14708.23
1468.013, 14745.95
1469.055, 14594.61
1470.097, 14444.07
1471.139, 14652.84
1472.181, 14521.05
1473.222, 14572.98
1474.263, 14435.16
1475.305, 14461.19
1476.346, 14484.61
1477.386, 14592.01
1478.427, 14444.74
1479.468, 14627.83
1480.508, 14619.97
1481.548, 14668.36
1482.588, 14710.49
1483.628, 14496.41
1484.668, 14492.36
1485.707, 14788.84
1486.747, 14627.00
1487.786, 14557.66
1488.825, 14554.07
1489.864, 14860.85
1490.902, 14879.14
1491.941, 14552.63
1492.979, 14845.72
1494.017, 14757.62
1495.055, 14782.79
1496.093, 14766.64
1497.131, 14762.72
1498.168, 14603.18
1499.206, 14648.72
1500.243, 14860.99
1501.280, 14788.99
1502.317, 14910.16
1503.354, 14679.29
1504.390, 14657.38
1505.426, 14690.93
1506.463, 14744.72
1507.499, 14636.87
1508.535, 14852.26
1509.570, 14852.42
1510.606, 14666.08
1511.641, 14682.06
1512.676, 14664.44
1513.711, 14996.54
1514.746, 14847.82
1515.781, 14665.05
1516.816, 14863.45
1517.850, 14939.68
1518.884, 14850.73
1519.918, 14849.55
1520.952, 14681.87
1521.986, 14769.53
1523.019, 14769.37
1524.053, 14913.90
1525.086, 14746.88
1526.119, 14938.52
1527.152, 14779.85
1528.185, 14986.02
1529.217, 14819.94
1530.250, 14985.45
1531.282, 14755.16
1532.314, 14811.35
1533.346, 14890.25
1534.377, 15042.48
1535.409, 14912.74
1536.440, 15082.37
1537.472, 14989.29
1538.503, 15067.20
1539.534, 15050.29
1540.564, 14914.69
1541.595, 15113.83
1542.625, 15007.68
1543.656, 15107.67
1544.686, 14873.76
1545.716, 15045.75
1546.745, 15130.35
1547.775, 15196.96
1548.804, 15187.85
1549.834, 15145.00
1550.863, 15155.08
1551.892, 15076.81
1552.920, 14869.51
1553.949, 14929.93
1554.977, 15071.33
1556.006, 15172.60
1557.034, 15002.05
1558.062, 15124.01
1559.089, 15114.27
1560.117, 15229.16
1561.144, 15075.00
1562.172, 15071.00
1563.199, 15100.00
1564.226, 15127.00
1565.252, 15067.00
1566.279, 15101.00
1567.305, 15237.00
1568.332, 15071.00
1569.358, 15193.00
1570.384, 15235.00
##END=



