##NAMES=Laverovite
##RRUFFID=R060216
##IDEAL CHEMISTRY=K_2_NaMn^2+^_7_Zr^4+^_2_(Si_4_O_12_)_2_O_2_(OH)_4_F
##LOCALITY=Desourdy Quarry, Mont Saint-Hilaire, Rouville County, Quebec, Canada
##OWNER=RRUFF
##SOURCE=Royal Ontario Museum
##DESCRIPTION=Brown fragment showing lamellar habit. Type sample
##STATUS=The identification of this mineral has been confirmed by X-ray diffraction and chemical analysis
##URL=rruff.info/R060216
##MEASURED CHEMISTRY=(K_1.74_Na_0.18_[box]_0.08_)_Σ=2_(Na_0.92_Ca_0.08_)_Σ=1_(Mn_4.09_Fe^2+^_2.67_Mg_0.24_)_Σ=7_(Zr_1.42_Ti_0.58_)_Σ=2_(Si_7.86_Al_0.14_)_Σ=8_O_26_((OH)_3.14_O_0.86_)_Σ=4_
##PIN_ID=L01682
##ORIENTATION=Laser parallel to (0 -1 -1). Fiducial mark perpendicular to laser is parallel to a [1 0 0]
159.9080, 12873.00
161.1340, 13214.00
162.3590, 13904.00
163.5850, 14455.00
164.8110, 14893.93
166.0360, 15788.00
167.2610, 15800.00
168.4860, 16111.00
169.7110, 16469.00
170.9360, 16291.00
172.1610, 15812.00
173.3850, 15489.00
174.6100, 15262.00
175.8340, 15073.00
177.0580, 15087.00
178.2820, 15011.00
179.5050, 14685.00
180.7290, 14656.00
181.9520, 14495.00
183.1760, 14476.00
184.3990, 14718.00
185.6220, 14960.00
186.8450, 14916.00
188.0670, 15179.00
189.2900, 15635.00
190.5120, 15642.00
191.7340, 15654.00
192.9560, 16014.00
194.1780, 16056.00
195.4000, 16307.00
196.6220, 16694.00
197.8430, 16732.00
199.0640, 17192.00
200.2860, 18393.00
201.5070, 19469.00
202.7270, 19381.00
203.9480, 17048.00
205.1690, 14264.00
206.3890, 12544.00
207.6090, 11982.00
208.8290, 11723.00
210.0490, 11882.00
211.2690, 11841.00
212.4890, 11986.00
213.7080, 11968.37
214.9280, 11983.41
216.1470, 11915.00
217.3660, 12038.00
218.5850, 11962.00
219.8030, 12098.00
221.0220, 12123.00
222.2400, 12234.00
223.4590, 12210.00
224.6770, 12238.00
225.8950, 12340.00
227.1120, 12271.00
228.3300, 12465.00
229.5480, 12357.00
230.7650, 12339.00
231.9820, 12555.00
233.1990, 12448.00
234.4160, 12713.00
235.6330, 12765.00
236.8490, 12944.00
238.0660, 12947.00
239.2820, 12941.20
240.4980, 12633.00
241.7140, 12775.00
242.9300, 12834.00
244.1460, 12627.00
245.3610, 12986.00
246.5770, 12989.00
247.7920, 12958.00
249.0070, 12187.00
250.2220, 12040.00
251.4370, 11922.00
252.6510, 11783.00
253.8660, 11483.54
255.0800, 11603.10
256.2940, 11640.70
257.5080, 11600.73
258.7220, 11250.91
259.9360, 11301.20
261.1490, 11191.20
262.3630, 11074.57
263.5760, 11181.24
264.7890, 10876.53
266.0020, 10979.66
267.2150, 10944.82
268.4270, 11019.00
269.6400, 10754.00
270.8520, 10807.00
272.0640, 10852.00
273.2760, 10781.00
274.4880, 10612.00
275.7000, 10837.00
276.9120, 10949.00
278.1230, 10766.31
279.3340, 10686.00
280.5450, 10622.00
281.7560, 10529.35
282.9670, 10538.00
284.1780, 10425.00
285.3880, 10532.00
286.5980, 10501.40
287.8090, 10466.17
289.0190, 10453.00
290.2290, 10433.00
291.4380, 10414.74
292.6480, 10433.42
293.8570, 10412.00
295.0670, 10492.00
296.2760, 10553.00
297.4850, 10617.00
298.6930, 10507.00
299.9020, 10605.00
301.1110, 10572.00
302.3190, 10618.00
303.5270, 10475.00
304.7350, 10547.00
305.9430, 10525.00
307.1510, 10680.00
308.3580, 10493.00
309.5660, 10617.00
310.7730, 10631.00
311.9800, 10554.00
313.1870, 10673.05
314.3940, 10743.21
315.6010, 10581.00
316.8070, 10603.04
318.0130, 10490.00
319.2200, 10479.00
320.4260, 10510.00
321.6310, 10562.00
322.8370, 10569.00
324.0430, 10502.00
325.2480, 10593.00
326.4540, 10649.00
327.6590, 10792.00
328.8640, 10773.00
330.0680, 10636.00
331.2730, 10786.00
332.4780, 10766.00
333.6820, 10793.00
334.8860, 10873.00
336.0900, 10946.00
337.2940, 10785.00
338.4980, 10952.00
339.7010, 10876.00
340.9050, 10844.00
342.1080, 10896.00
343.3110, 10922.00
344.5140, 10995.00
345.7170, 11062.00
346.9200, 11103.00
348.1220, 11119.42
349.3240, 10991.00
350.5270, 11138.00
351.7290, 11043.00
352.9310, 11091.00
354.1320, 10930.00
355.3340, 11152.00
356.5350, 10926.00
357.7370, 11047.00
358.9380, 10971.00
360.1390, 11027.00
361.3400, 10991.00
362.5400, 10973.70
363.7410, 11159.00
364.9410, 10994.00
366.1410, 11004.00
367.3410, 11131.00
368.5410, 10992.00
369.7410, 11055.00
370.9400, 11079.00
372.1400, 11011.53
373.3390, 11041.15
374.5380, 10969.00
375.7370, 11036.00
376.9360, 11065.00
378.1350, 11126.00
379.3330, 11158.06
380.5310, 11089.00
381.7300, 11179.00
382.9280, 11224.00
384.1260, 11145.00
385.3230, 11375.00
386.5210, 11321.00
387.7180, 11212.00
388.9160, 11042.00
390.1130, 11161.00
391.3100, 11108.00
392.5060, 11134.00
393.7030, 10887.00
394.9000, 10883.00
396.0960, 10724.00
397.2920, 10773.00
398.4880, 10711.00
399.6840, 10778.00
400.8800, 10710.00
402.0750, 10588.00
403.2710, 10620.00
404.4660, 10598.00
405.6610, 10396.00
406.8560, 10465.00
408.0510, 10472.00
409.2450, 10289.00
410.4400, 10393.00
411.6340, 10403.00
412.8280, 10218.00
414.0220, 10480.00
415.2160, 10311.00
416.4100, 10177.00
417.6030, 10325.00
418.7970, 10217.00
419.9900, 10150.00
421.1830, 10463.00
422.3760, 10392.00
423.5690, 10244.00
424.7610, 10281.00
425.9540, 10173.00
427.1460, 10183.00
428.3380, 10147.00
429.5300, 10230.00
430.7220, 10047.00
431.9140, 10150.00
433.1050, 10149.00
434.2970, 10289.00
435.4880, 10146.00
436.6790, 10169.00
437.8700, 10107.00
439.0610, 10152.00
440.2510, 10182.00
441.4420, 10070.00
442.6320, 10175.00
443.8220, 10161.00
445.0120, 10189.00
446.2020, 10327.00
447.3910, 10284.00
448.5810, 10366.00
449.7700, 10216.00
450.9600, 10640.00
452.1490, 10356.00
453.3370, 11013.00
454.5260, 10933.00
455.7150, 10571.00
456.9030, 10686.00
458.0910, 10660.00
459.2800, 10675.00
460.4670, 10804.00
461.6550, 10798.00
462.8430, 10917.00
464.0300, 10979.00
465.2180, 11017.00
466.4050, 11161.00
467.5920, 11159.00
468.7790, 11233.00
469.9650, 11172.00
471.1520, 11216.00
472.3380, 11325.00
473.5250, 11425.00
474.7110, 11352.00
475.8970, 11299.00
477.0820, 11276.00
478.2680, 11276.00
479.4540, 11371.00
480.6390, 11281.00
481.8240, 11327.00
483.0090, 11295.00
484.1940, 11310.00
485.3780, 11287.81
486.5630, 11276.63
487.7470, 11271.00
488.9320, 11263.00
490.1160, 11347.00
491.3000, 11373.00
492.4830, 11245.00
493.6670, 11376.00
494.8500, 11293.00
496.0340, 11296.35
497.2170, 11273.61
498.4000, 11250.00
499.5820, 11211.00
500.7650, 11110.00
501.9480, 11174.00
503.1300, 11215.00
504.3120, 11112.00
505.4940, 11114.92
506.6760, 11106.00
507.8580, 11084.00
509.0390, 11057.24
510.2210, 11061.00
511.4020, 10997.35
512.5830, 10996.21
513.7640, 11003.00
514.9450, 10995.00
516.1250, 10864.00
517.3060, 10794.00
518.4860, 10803.00
519.6660, 10796.00
520.8460, 10766.30
522.0260, 10920.00
523.2060, 10801.00
524.3850, 10865.00
525.5650, 11024.00
526.7440, 10820.00
527.9230, 10900.00
529.1020, 10850.00
530.2810, 11010.00
531.4590, 11003.70
532.6380, 11082.00
533.8160, 11157.00
534.9940, 10895.00
536.1720, 11131.00
537.3500, 11068.00
538.5270, 11125.00
539.7050, 11224.00
540.8820, 11355.00
542.0590, 11279.00
543.2360, 11318.00
544.4130, 11416.00
545.5900, 11356.00
546.7660, 11590.00
547.9430, 11765.00
549.1190, 11851.00
550.2950, 12123.00
551.4710, 12276.00
552.6470, 12339.00
553.8220, 12550.00
554.9980, 12760.00
556.1730, 12854.00
557.3480, 13033.00
558.5230, 12984.00
559.6980, 13133.00
560.8730, 13318.00
562.0470, 13202.00
563.2220, 13395.00
564.3960, 13011.00
565.5700, 13111.00
566.7440, 13062.00
567.9170, 13008.00
569.0910, 12912.00
570.2640, 12851.30
571.4380, 12622.00
572.6110, 12697.00
573.7840, 12510.37
574.9570, 12431.00
576.1290, 12406.00
577.3020, 12188.00
578.4740, 12343.00
579.6460, 12343.00
580.8180, 12206.00
581.9900, 12208.00
583.1620, 12173.00
584.3330, 12244.00
585.5040, 12297.00
586.6760, 12263.56
587.8470, 12245.00
589.0180, 12199.00
590.1880, 12246.00
591.3590, 12158.00
592.5290, 12342.00
593.7000, 12225.00
594.8700, 12316.00
596.0400, 12297.00
597.2090, 12400.00
598.3790, 12434.00
599.5490, 12579.00
600.7180, 12446.00
601.8870, 12561.00
603.0560, 12659.00
604.2250, 12545.00
605.3940, 13105.00
606.5620, 13006.00
607.7300, 12983.00
608.8990, 13000.00
610.0670, 12988.54
611.2350, 13109.00
612.4020, 13175.00
613.5700, 13378.00
614.7370, 13495.95
615.9050, 13479.00
617.0720, 13747.00
618.2390, 13911.00
619.4060, 13902.00
620.5720, 14189.00
621.7390, 14241.00
622.9050, 14327.00
624.0710, 14607.00
625.2370, 14711.00
626.4030, 14855.00
627.5690, 14927.00
628.7340, 15148.00
629.9000, 15367.24
631.0650, 15549.45
632.2300, 15908.00
633.3950, 15985.00
634.5600, 16245.00
635.7240, 16429.00
636.8890, 16786.00
638.0530, 17156.00
639.2170, 17464.00
640.3810, 17884.00
641.5450, 18370.00
642.7080, 18787.00
643.8720, 19337.00
645.0350, 19876.00
646.1980, 20520.00
647.3610, 21468.00
648.5240, 22121.00
649.6870, 23013.00
650.8490, 24235.00
652.0120, 24344.00
653.1740, 24703.00
654.3360, 24812.00
655.4980, 24495.00
656.6600, 24359.00
657.8210, 23734.00
658.9830, 23187.00
660.1440, 23922.00
661.3050, 22004.00
662.4660, 21545.00
663.6270, 21862.00
664.7870, 20842.00
665.9480, 21497.00
667.1080, 21518.00
668.2680, 19466.00
669.4280, 18864.00
670.5880, 18512.00
671.7480, 18476.00
672.9070, 18222.00
674.0670, 18221.00
675.2260, 18228.00
676.3850, 18156.00
677.5440, 18204.11
678.7030, 18189.00
679.8610, 18274.00
681.0200, 18324.00
682.1780, 18396.00
683.3360, 18614.00
684.4940, 18600.00
685.6520, 18780.00
686.8090, 18986.00
687.9670, 18819.00
689.1240, 18978.00
690.2810, 19099.00
691.4380, 18993.00
692.5950, 19221.00
693.7520, 19029.00
694.9080, 19098.00
696.0650, 19295.00
697.2210, 18976.00
698.3770, 19218.00
699.5330, 19171.00
700.6880, 18922.00
701.8440, 18801.00
702.9990, 18740.00
704.1550, 18522.00
705.3100, 18733.00
706.4650, 18557.24
707.6190, 18415.00
708.7740, 18430.00
709.9290, 18323.57
711.0830, 18258.00
712.2370, 18060.00
713.3910, 18030.00
714.5450, 17889.00
715.6980, 17880.00
716.8520, 17722.00
718.0050, 17471.00
719.1580, 17374.30
720.3110, 17290.00
721.4640, 17058.00
722.6170, 16855.00
723.7700, 16758.00
724.9220, 16505.00
726.0740, 16281.00
727.2260, 16019.00
728.3780, 16092.00
729.5300, 15866.56
730.6810, 15656.00
731.8330, 15660.00
732.9840, 15285.00
734.1350, 15186.00
735.2860, 14997.00
736.4370, 14774.00
737.5880, 14844.00
738.7380, 14646.00
739.8880, 14512.00
741.0390, 14560.00
742.1890, 14210.00
743.3380, 14076.00
744.4880, 14014.00
745.6380, 13906.00
746.7870, 13915.00
747.9360, 13801.00
749.0850, 13792.00
750.2340, 13569.00
751.3830, 13489.00
752.5310, 13479.00
753.6800, 13312.00
754.8280, 13269.75
755.9760, 13483.00
757.1240, 13043.00
758.2720, 13278.00
759.4190, 13053.00
760.5670, 13058.00
761.7140, 12948.00
762.8610, 12854.00
764.0080, 12777.00
765.1550, 12760.00
766.3020, 12661.00
767.4480, 12705.00
768.5950, 12532.00
769.7410, 12508.00
770.8870, 12488.00
772.0330, 12334.00
773.1780, 12180.00
774.3240, 12271.00
775.4690, 12039.00
776.6140, 11968.00
777.7590, 11942.00
778.9040, 11988.00
780.0490, 11884.00
781.1940, 11817.00
782.3380, 11815.00
783.4820, 11713.00
784.6260, 11683.00
785.7700, 11550.00
786.9140, 11577.00
788.0580, 11607.00
789.2010, 11419.00
790.3450, 11372.00
791.4880, 11337.00
792.6310, 11628.00
793.7730, 11340.00
794.9160, 11107.00
796.0590, 11581.00
797.2010, 11117.00
798.3430, 11033.00
799.4850, 11126.00
800.6270, 10995.00
801.7690, 11068.00
802.9100, 11015.00
804.0520, 10849.00
805.1930, 10966.00
806.3340, 10803.00
807.4750, 10980.00
808.6160, 10678.00
809.7560, 10797.00
810.8970, 10792.00
812.0370, 10546.00
813.1770, 10680.00
814.3170, 10639.00
815.4570, 10583.00
816.5960, 10575.00
817.7360, 10547.00
818.8750, 10629.00
820.0140, 10554.00
821.1530, 10613.00
822.2920, 10577.09
823.4310, 10511.00
824.5690, 10506.00
825.7070, 10454.00
826.8460, 10409.00
827.9840, 10410.00
829.1220, 10499.00
830.2590, 10395.00
831.3970, 10351.00
832.5340, 10384.00
833.6710, 10526.00
834.8080, 10249.00
835.9450, 10421.00
837.0820, 10335.00
838.2190, 10338.00
839.3550, 10507.00
840.4910, 10521.00
841.6270, 10356.00
842.7630, 10501.00
843.8990, 10489.00
845.0350, 10464.11
846.1700, 10488.79
847.3060, 10405.00
848.4410, 10525.00
849.5760, 10384.00
850.7100, 10589.00
851.8450, 10551.00
852.9800, 10520.88
854.1140, 10406.00
855.2480, 10583.00
856.3820, 10517.00
857.5160, 10542.40
858.6500, 10650.00
859.7830, 10598.00
860.9170, 10722.00
862.0500, 10820.00
863.1830, 10696.00
864.3160, 10736.00
865.4480, 10763.00
866.5810, 10767.00
867.7130, 10774.00
868.8460, 10801.00
869.9780, 10831.46
871.1100, 10880.00
872.2410, 10904.00
873.3730, 11047.00
874.5050, 11068.00
875.6360, 11074.00
876.7670, 11006.00
877.8980, 11119.00
879.0290, 11158.00
880.1590, 11249.00
881.2900, 11290.00
882.4200, 11367.00
883.5500, 11330.00
884.6800, 11309.00
885.8100, 11284.00
886.9400, 11441.00
888.0690, 11514.00
889.1990, 11601.00
890.3280, 11522.00
891.4570, 11654.00
892.5860, 11601.00
893.7140, 11682.00
894.8430, 11599.00
895.9710, 11698.00
897.1000, 11786.00
898.2280, 11919.00
899.3560, 11774.00
900.4830, 11885.00
901.6110, 11893.00
902.7380, 11896.23
903.8660, 11913.00
904.9930, 11943.00
906.1200, 11969.40
907.2460, 12114.00
908.3730, 12088.00
909.5000, 12070.00
910.6260, 12220.00
911.7520, 12232.39
912.8780, 12129.00
914.0040, 12352.00
915.1290, 12342.00
916.2550, 12303.00
917.3800, 12407.00
918.5050, 12414.09
919.6300, 12475.20
920.7550, 12509.00
921.8800, 12600.00
923.0040, 12613.00
924.1290, 12649.00
925.2530, 12728.00
926.3770, 12745.64
927.5010, 12745.80
928.6250, 12775.00
929.7480, 12743.00
930.8720, 12648.00
931.9950, 12712.00
933.1180, 12706.00
934.2410, 12859.00
935.3640, 12660.00
936.4860, 12793.00
937.6090, 12781.00
938.7310, 12888.00
939.8530, 12880.00
940.9750, 12793.00
942.0970, 13100.00
943.2180, 12985.04
944.3400, 13044.00
945.4610, 12974.00
946.5820, 13145.00
947.7030, 13126.00
948.8240, 13044.00
949.9450, 13203.00
951.0650, 13163.00
952.1860, 12986.00
953.3060, 13081.00
954.4260, 13021.00
955.5460, 12928.00
956.6650, 12932.00
957.7850, 12752.00
958.9040, 12720.00
960.0230, 12569.00
961.1420, 12725.00
962.2610, 12495.00
963.3800, 12520.00
964.4990, 12379.00
965.6170, 12352.00
966.7350, 12311.00
967.8530, 12226.00
968.9710, 12145.00
970.0890, 12070.00
971.2070, 12235.00
972.3240, 12131.00
973.4410, 12053.00
974.5580, 12133.00
975.6750, 11923.00
976.7920, 11895.00
977.9090, 11878.00
979.0250, 11885.74
980.1410, 11983.00
981.2580, 12012.00
982.3740, 12021.00
983.4890, 12019.00
984.6050, 12079.00
985.7200, 12105.00
986.8360, 12111.03
987.9510, 12157.63
989.0660, 12100.00
990.1810, 12218.00
991.2950, 12167.00
992.4100, 12189.00
993.5240, 12252.00
994.6390, 12261.78
995.7530, 12195.00
996.8660, 12342.00
997.9800, 12342.54
999.0940, 12346.00
1000.207, 12490.00
1001.320, 12537.00
1002.433, 12530.00
1003.546, 12712.00
1004.659, 12655.00
1005.772, 12628.00
1006.884, 12693.00
1007.996, 12802.00
1009.108, 12954.00
1010.220, 13029.00
1011.332, 13174.00
1012.444, 13238.00
1013.555, 13277.00
1014.666, 13489.00
1015.777, 13646.00
1016.888, 13576.00
1017.999, 13617.00
1019.110, 13987.00
1020.220, 13797.11
1021.331, 13846.00
1022.441, 13662.00
1023.551, 13606.00
1024.661, 13508.00
1025.770, 13550.00
1026.880, 13576.00
1027.989, 13533.00
1029.098, 13425.00
1030.207, 13298.00
1031.316, 13344.00
1032.425, 13285.00
1033.533, 13257.00
1034.642, 13129.00
1035.750, 13089.00
1036.858, 12825.00
1037.966, 12857.44
1039.073, 12794.21
1040.181, 12852.00
1041.288, 12724.00
1042.396, 12751.00
1043.503, 12580.00
1044.610, 12656.00
1045.716, 12607.89
1046.823, 12528.02
1047.929, 12570.00
1049.036, 12462.00
1050.142, 12384.00
1051.248, 12479.00
1052.353, 12542.00
1053.459, 12371.00
1054.564, 12770.65
1055.670, 12521.51
1056.775, 12477.96
1057.880, 12287.00
1058.985, 12249.00
1060.089, 12176.00
1061.194, 12218.00
1062.298, 12426.00
1063.402, 12020.00
1064.506, 12073.00
1065.610, 12305.00
1066.713, 12084.00
1067.817, 12215.00
1068.920, 12181.00
1070.023, 12164.42
1071.126, 12302.00
1072.229, 12219.00
1073.332, 12120.00
1074.435, 12164.00
1075.537, 12068.00
1076.639, 12074.00
1077.741, 12166.00
1078.843, 12215.00
1079.945, 12111.00
1081.046, 12150.00
1082.148, 11900.00
1083.249, 11985.04
1084.350, 11964.75
1085.451, 12027.00
1086.551, 11993.00
1087.652, 11963.00
1088.752, 11876.00
1089.853, 11619.00
1090.953, 11817.00
1092.053, 11861.00
1093.152, 11884.00
1094.252, 11657.00
1095.351, 11675.00
1096.451, 11613.00
1097.550, 11482.00
1098.649, 11547.00
1099.748, 11451.00
1100.846, 11428.00
1101.945, 11484.00
1103.043, 11442.00
1104.141, 11433.74
1105.239, 11411.54
1106.337, 11343.00
1107.434, 11316.00
1108.532, 11189.00
1109.629, 11100.00
1110.726, 11119.00
1111.823, 11032.40
1112.920, 11103.00
1114.017, 11013.00
1115.113, 11028.00
1116.210, 11125.00
1117.306, 11062.00
1118.402, 11051.00
1119.498, 11036.00
1120.593, 10971.24
1121.689, 10847.00
1122.784, 10834.00
1123.879, 10955.00
1124.974, 10846.00
1126.069, 10897.00
1127.164, 11001.00
1128.259, 10780.00
1129.353, 10852.00
1130.447, 10706.00
1131.541, 10716.05
1132.635, 10687.35
1133.729, 10792.00
1134.822, 10641.00
1135.916, 10745.00
1137.009, 10757.00
1138.102, 10664.00
1139.195, 10632.00
1140.288, 10655.00
1141.380, 10617.88
1142.473, 10730.00
1143.565, 10576.00
1144.657, 10581.00
1145.749, 10458.00
1146.841, 10537.00
1147.932, 10502.00
1149.024, 10547.00
1150.115, 10550.00
1151.206, 10445.00
1152.297, 10606.00
1153.388, 10731.00
1154.479, 10507.00
1155.569, 10584.00
1156.659, 10460.00
1157.750, 10579.00
1158.839, 10478.00
1159.929, 10533.00
1161.019, 10435.00
1162.108, 10496.00
1163.198, 10546.00
1164.287, 10456.00
1165.376, 10503.00
1166.465, 10512.27
1167.553, 10447.00
1168.642, 10552.00
1169.730, 10446.00
1170.818, 10429.00
1171.906, 10580.00
1172.994, 10463.00
1174.082, 10422.00
1175.170, 10597.00
1176.257, 10431.00
1177.344, 10421.00
1178.431, 10363.00
1179.518, 10501.00
1180.605, 10396.00
1181.691, 10477.00
1182.778, 10343.00
1183.864, 10352.00
1184.950, 10425.00
1186.036, 10595.00
1187.122, 10391.00
1188.207, 10465.00
1189.292, 10297.00
1190.378, 10515.00
1191.463, 10739.00
1192.548, 10638.00
1193.632, 10478.00
1194.717, 10349.00
1195.801, 10485.00
1196.886, 10505.00
1197.970, 10373.00
1199.054, 10405.00
1200.137, 10421.00
1201.221, 10469.00
1202.305, 10454.00
1203.388, 10322.00
1204.471, 10310.00
1205.554, 10282.00
1206.637, 10396.00
1207.719, 10517.00
1208.802, 10417.00
1209.884, 10496.00
1210.966, 10530.00
1212.048, 10332.00
1213.130, 10467.00
1214.212, 10371.00
1215.293, 10448.00
1216.374, 10318.00
1217.456, 10580.00
1218.536, 10581.00
1219.617, 10487.00
1220.698, 10358.00
1221.778, 10581.00
1222.859, 10432.00
1223.939, 10566.00
1225.019, 10391.00
1226.099, 10332.00
1227.178, 10479.00
1228.258, 10518.00
1229.337, 10488.00
1230.417, 10390.00
1231.496, 10591.00
1232.574, 10620.00
1233.653, 10604.00
1234.732, 10464.00
1235.810, 10457.00
1236.888, 10505.00
1237.966, 10477.00
1239.044, 10547.00
1240.122, 10410.00
1241.199, 10548.00
1242.277, 10540.00
1243.354, 10400.00
1244.431, 10584.00
1245.508, 10683.00
1246.585, 10781.00
1247.661, 10735.96
1248.738, 10769.89
1249.814, 10558.00
1250.890, 10670.00
1251.966, 10611.00
1253.042, 10462.00
1254.117, 10670.00
1255.193, 10534.00
1256.268, 10574.00
1257.343, 10622.00
1258.418, 10633.00
1259.493, 10583.00
1260.567, 10787.00
1261.642, 10684.00
1262.716, 10755.00
1263.790, 10725.00
1264.864, 10690.00
1265.938, 10770.00
1267.011, 10773.00
1268.085, 10733.00
1269.158, 10737.00
1270.231, 10855.00
1271.304, 10680.00
1272.377, 10772.00
1273.450, 10715.00
1274.522, 10864.00
1275.594, 10899.77
1276.666, 10843.10
1277.738, 11019.00
1278.810, 10789.00
1279.882, 10761.00
1280.953, 10860.00
1282.025, 10925.00
1283.096, 10852.00
1284.167, 10796.00
1285.238, 10972.00
1286.308, 10941.26
1287.379, 10965.28
1288.449, 10999.00
1289.519, 11010.00
1290.589, 10884.00
1291.659, 10967.00
1292.729, 10909.00
1293.798, 10974.00
1294.868, 11016.00
1295.937, 10987.00
1297.006, 11111.00
1298.075, 11027.00
1299.143, 11031.00
1300.212, 11051.00
1301.280, 10963.00
1302.348, 10780.58
1303.416, 10981.46
1304.484, 11100.38
1305.552, 11141.74
1306.620, 10873.23
1307.687, 11004.83
1308.754, 10976.09
1309.821, 10940.76
1310.888, 11128.68
1311.955, 11091.00
1313.021, 10986.00
1314.088, 11029.00
1315.154, 10968.00
1316.220, 10948.00
1317.286, 11021.00
1318.352, 11103.00
1319.417, 11001.00
1320.483, 11219.00
1321.548, 10990.00
1322.613, 11005.00
1323.678, 10854.00
1324.743, 10848.00
1325.807, 10960.00
1326.872, 10897.00
1327.936, 10963.00
1329.000, 10851.00
1330.064, 10890.00
1331.128, 10889.93
1332.191, 10879.10
1333.255, 10962.00
1334.318, 10869.00
1335.381, 11005.00
1336.444, 10908.00
1337.507, 10984.00
1338.569, 10886.39
1339.632, 10787.00
1340.694, 10737.00
1341.756, 10872.00
1342.818, 10975.00
1343.880, 10861.00
1344.941, 10857.00
1346.003, 10747.00
1347.064, 10610.50
1348.125, 10802.40
1349.186, 10912.33
1350.247, 10944.70
1351.308, 10667.20
1352.368, 10789.83
1353.428, 10752.10
1354.489, 10707.81
1355.549, 10886.75
1356.608, 10654.31
1357.668, 10829.71
1358.727, 10737.00
1359.787, 10702.00
1360.846, 10772.00
1361.905, 10763.00
1362.964, 10678.00
1364.022, 10894.00
1365.081, 10852.00
1366.139, 10800.00
1367.197, 10790.00
1368.255, 10768.00
1369.313, 10850.00
1370.371, 10885.00
1371.428, 10792.00
1372.486, 10888.00
1373.543, 10769.00
1374.600, 10831.00
1375.657, 10776.00
1376.713, 10853.00
1377.770, 10845.26
1378.826, 10844.00
1379.882, 10855.00
1380.938, 10874.00
1381.994, 10866.00
1383.050, 10928.00
1384.106, 10823.00
1385.161, 10840.00
1386.216, 10780.00
1387.271, 10819.00
1388.326, 10743.00
1389.381, 10775.00
1390.435, 10670.00
1391.490, 10825.00
1392.544, 10707.00
1393.598, 10748.00
1394.652, 10890.00
1395.705, 10819.00
1396.759, 10796.00
1397.812, 10881.00
1398.866, 10783.00
1399.919, 10788.00
1400.972, 10826.00
1402.024, 10897.00
1403.077, 10864.00
1404.129, 10958.00
1405.181, 10986.05
1406.233, 10862.00
1407.285, 11050.00
1408.337, 10961.67
1409.389, 10913.00
1410.440, 10765.00
1411.491, 10873.00
1412.542, 10840.00
1413.593, 10858.00
1414.644, 10963.00
1415.695, 10824.00
1416.745, 10919.00
1417.795, 10853.00
1418.845, 10860.00
1419.895, 10908.00
1420.945, 10857.00
1421.995, 10973.00
1423.044, 10924.00
1424.093, 10912.00
1425.142, 10923.00
1426.191, 10948.00
1427.240, 10911.00
1428.289, 10900.00
1429.337, 11101.00
1430.385, 11043.37
1431.433, 10872.00
1432.481, 11067.00
1433.529, 10956.00
1434.577, 10906.00
1435.624, 10983.00
1436.672, 10989.00
1437.719, 11018.00
1438.766, 11056.00
1439.812, 10999.00
1440.859, 10932.00
1441.905, 11019.00
1442.952, 10985.00
1443.998, 11182.00
1445.044, 11112.00
1446.090, 11100.00
1447.135, 11099.00
1448.181, 10999.00
1449.226, 11103.00
1450.271, 11460.00
1451.316, 11267.81
1452.361, 11100.00
1453.405, 11254.00
1454.450, 10961.00
1455.494, 11197.00
1456.538, 11159.46
1457.582, 11232.00
1458.626, 11191.00
1459.670, 11134.00
1460.713, 11031.00
1461.757, 11096.00
1462.800, 11140.00
1463.843, 11140.00
1464.886, 11114.00
1465.928, 11066.00
1466.971, 11113.00
1468.013, 11082.00
1469.055, 11235.00
1470.097, 11289.00
1471.139, 11096.00
1472.181, 11143.00
1473.222, 11026.00
1474.263, 11149.00
1475.305, 11227.00
1476.346, 11058.00
1477.386, 11197.00
1478.427, 11133.00
1479.468, 11180.00
1480.508, 11211.00
1481.548, 11205.00
1482.588, 11143.00
1483.628, 11036.00
1484.668, 11064.00
1485.707, 11056.00
1486.747, 11184.00
1487.786, 11131.00
1488.825, 11200.00
1489.864, 11145.00
1490.902, 11151.68
1491.941, 11154.00
1492.979, 11130.00
1494.017, 11168.00
1495.055, 11142.00
1496.093, 11023.00
1497.131, 11144.00
1498.168, 11264.00
1499.206, 11113.00
1500.243, 11193.00
1501.280, 11201.00
1502.317, 11228.00
1503.354, 11241.00
1504.390, 11284.00
1505.426, 11191.00
1506.463, 11153.00
1507.499, 11203.00
1508.535, 11232.00
1509.570, 11167.00
1510.606, 11189.00
1511.641, 11321.00
1512.676, 11146.00
1513.711, 11131.00
1514.746, 11294.00
1515.781, 11155.68
1516.816, 11341.82
1517.850, 11445.99
1518.884, 11472.60
1519.918, 11189.34
1520.952, 11306.21
1521.986, 11262.73
1523.019, 11212.68
1524.053, 11385.86
1525.086, 11147.68
1526.119, 11317.33
1527.152, 11324.17
1528.185, 11405.53
1529.217, 11325.55
1530.250, 11295.40
1531.282, 11426.64
1532.314, 11468.52
1533.346, 11369.96
1534.377, 11456.06
1535.409, 11212.24
1536.440, 11257.92
1537.472, 11428.52
1538.503, 11338.07
1539.534, 11427.12
1540.564, 11447.81
1541.595, 11157.83
1542.625, 11408.13
1543.656, 11424.77
1544.686, 11201.51
1545.716, 11433.30
1546.745, 11243.11
1547.775, 11203.54
1548.804, 11277.32
1549.834, 11232.94
1550.863, 11374.86
1551.892, 11337.30
1552.920, 11283.71
1553.949, 11300.10
1554.977, 11118.19
1556.006, 11304.16
1557.034, 11238.83
1558.062, 11298.43
1559.089, 11386.33
1560.117, 11257.44
1561.144, 11280.00
1562.172, 11303.00
1563.199, 11438.00
1564.226, 11301.00
1565.252, 11425.00
1566.279, 11305.00
1567.305, 11333.00
1568.332, 11348.00
1569.358, 11459.00
1570.384, 11343.00
##END=



