##NAMES=Lazulite
##RRUFFID=R060494
##IDEAL CHEMISTRY=MgAl_2_(PO_4_)_2_(OH)_2_
##LOCALITY=Champion mine, White Mountains, Mono County, California, USA
##OWNER=RRUFF
##SOURCE=Michael Scott
##DESCRIPTION=Dark-blue coarsely crystalline mass
##STATUS=The identification of this mineral has been confirmed by X-ray diffraction and chemical analysis
##URL=rruff.info/R060494
##MEASURED CHEMISTRY=(Mg_0.67_Fe^2+^_0.33_)_Î£=1_Al_2.00_(P_1.00_O_4_)_2_(OH)_2_
##PIN_ID=M01648
##ORIENTATION=Laser parallel to b* (0 1 0). Fiducial mark perpendicular to laser is parallel to c [0 0 1]
60.30200, 473.0000
61.54400, 459.0000
62.78600, 463.0000
64.02800, 462.0000
65.26900, 455.0000
66.51100, 447.0000
67.75200, 446.3509
68.99300, 450.0000
70.23400, 446.0000
71.47500, 449.0000
72.71600, 458.0000
73.95600, 453.0000
75.19700, 449.0000
76.43700, 444.0000
77.67700, 440.0000
78.91700, 458.0000
80.15600, 450.0000
81.39600, 462.0000
82.63500, 432.0000
83.87400, 448.0000
85.11300, 449.0000
86.35200, 449.0000
87.59100, 450.0000
88.83000, 447.0000
90.06800, 451.0000
91.30600, 455.0105
92.54400, 470.0000
93.78200, 473.0000
95.02000, 501.0000
96.25700, 524.0000
97.49400, 565.0000
98.73200, 568.0000
99.96900, 595.0000
101.2060, 643.0000
102.4420, 672.0000
103.6790, 735.0000
104.9150, 752.0000
106.1510, 789.0000
107.3870, 903.0000
108.6230, 979.0000
109.8590, 1027.000
111.0940, 1147.000
112.3300, 1289.000
113.5650, 1309.000
114.8000, 1500.000
116.0350, 1651.000
117.2700, 1741.000
118.5040, 1832.000
119.7390, 1955.182
120.9730, 2050.000
122.2070, 2165.000
123.4410, 2264.000
124.6740, 2357.448
125.9080, 2423.742
127.1410, 2491.000
128.3740, 2565.000
129.6080, 2625.000
130.8400, 2764.000
132.0730, 2887.000
133.3060, 2883.000
134.5380, 2885.000
135.7700, 2992.000
137.0020, 3001.000
138.2340, 3127.000
139.4660, 3225.000
140.6980, 3311.000
141.9290, 3374.000
143.1600, 3203.000
144.3910, 3297.000
145.6220, 3367.000
146.8530, 3487.000
148.0830, 3498.000
149.3140, 3482.000
150.5440, 3552.000
151.7740, 3530.000
153.0040, 3587.000
154.2340, 3554.000
155.4630, 3551.000
156.6930, 3607.000
157.9220, 3519.000
159.1510, 3620.000
160.3800, 3610.000
161.6090, 3632.000
162.8370, 3787.000
164.0660, 3923.000
165.2940, 3872.000
166.5220, 3913.000
167.7500, 3964.000
168.9780, 4040.000
170.2050, 4071.000
171.4330, 4313.000
172.6600, 4464.000
173.8870, 4496.000
175.1140, 4479.000
176.3410, 4324.000
177.5670, 4241.000
178.7940, 4195.000
180.0200, 4404.000
181.2460, 4478.000
182.4720, 4586.000
183.6980, 4854.000
184.9230, 4902.000
186.1490, 5000.000
187.3740, 5245.000
188.5990, 5546.000
189.8240, 5937.000
191.0490, 6306.000
192.2730, 6343.000
193.4980, 6073.000
194.7220, 5663.000
195.9460, 5265.000
197.1700, 5007.000
198.3940, 4975.000
199.6180, 4762.000
200.8410, 4762.000
202.0640, 4737.000
203.2870, 4740.000
204.5100, 4640.000
205.7330, 4535.000
206.9560, 4411.000
208.1780, 4523.000
209.4000, 4478.000
210.6230, 4527.000
211.8450, 4530.000
213.0660, 4683.000
214.2880, 4749.000
215.5090, 4831.000
216.7310, 4934.000
217.9520, 5035.780
219.1730, 5103.000
220.3940, 5279.000
221.6140, 5412.000
222.8350, 5553.000
224.0550, 5549.000
225.2750, 5410.000
226.4950, 5150.000
227.7150, 4865.000
228.9350, 4689.000
230.1540, 4502.000
231.3730, 4411.000
232.5930, 4209.000
233.8120, 4146.000
235.0300, 4131.000
236.2490, 4134.000
237.4680, 4037.000
238.6860, 4098.000
239.9040, 4166.000
241.1220, 4135.000
242.3400, 4205.000
243.5580, 4229.000
244.7750, 4395.000
245.9920, 4481.000
247.2100, 4453.000
248.4270, 4631.000
249.6430, 4705.000
250.8600, 4954.000
252.0770, 5194.000
253.2930, 5411.000
254.5090, 5363.000
255.7250, 5230.000
256.9410, 5005.000
258.1570, 4669.000
259.3720, 4527.000
260.5880, 4447.000
261.8030, 4372.000
263.0180, 4340.000
264.2330, 4296.000
265.4470, 4247.000
266.6620, 4237.000
267.8760, 4206.000
269.0900, 4240.000
270.3040, 4234.000
271.5180, 4282.000
272.7320, 4337.000
273.9460, 4409.000
275.1590, 4379.000
276.3720, 4468.000
277.5850, 4535.000
278.7980, 4544.000
280.0110, 4490.000
281.2230, 4630.000
282.4360, 4541.000
283.6480, 4574.000
284.8600, 4509.000
286.0720, 4228.000
287.2840, 4233.000
288.4950, 4149.000
289.7070, 4110.000
290.9180, 4144.000
292.1290, 4044.000
293.3400, 3942.000
294.5500, 3999.000
295.7610, 4019.000
296.9710, 3977.000
298.1820, 3984.000
299.3920, 3937.000
300.6020, 3908.000
301.8110, 3964.000
303.0210, 3938.000
304.2300, 4010.000
305.4400, 3938.000
306.6490, 3998.000
307.8580, 3937.000
309.0660, 4012.000
310.2750, 4086.000
311.4830, 4014.000
312.6920, 4102.000
313.9000, 4156.000
315.1080, 4219.000
316.3160, 4243.000
317.5230, 4344.000
318.7310, 4338.000
319.9380, 4399.000
321.1450, 4470.000
322.3520, 4497.000
323.5590, 4528.000
324.7650, 4444.000
325.9720, 4424.000
327.1780, 4267.000
328.3840, 4368.000
329.5900, 4292.000
330.7960, 4241.000
332.0020, 4328.000
333.2070, 4362.000
334.4120, 4368.000
335.6170, 4308.000
336.8220, 4349.000
338.0270, 4383.000
339.2320, 4395.000
340.4360, 4461.000
341.6410, 4467.000
342.8450, 4510.000
344.0490, 4537.126
345.2530, 4538.000
346.4560, 4549.000
347.6600, 4540.000
348.8630, 4468.000
350.0660, 4442.000
351.2690, 4437.000
352.4720, 4439.000
353.6750, 4393.751
354.8770, 4407.000
356.0790, 4346.000
357.2820, 4348.000
358.4840, 4400.000
359.6860, 4339.000
360.8870, 4503.000
362.0890, 4348.000
363.2900, 4444.000
364.4910, 4329.000
365.6920, 4358.000
366.8930, 4310.000
368.0940, 4457.000
369.2940, 4475.000
370.4950, 4486.000
371.6950, 4479.000
372.8950, 4589.000
374.0950, 4513.000
375.2940, 4537.000
376.4940, 4427.000
377.6930, 4485.000
378.8930, 4563.000
380.0920, 4488.000
381.2910, 4362.000
382.4890, 4423.000
383.6880, 4405.000
384.8860, 4374.000
386.0840, 4463.000
387.2820, 4358.000
388.4800, 4474.000
389.6780, 4432.000
390.8760, 4399.000
392.0730, 4327.000
393.2700, 4421.000
394.4670, 4421.000
395.6640, 4416.000
396.8610, 4541.000
398.0580, 4417.000
399.2540, 4433.000
400.4500, 4532.000
401.6460, 4623.000
402.8420, 4741.000
404.0380, 4880.000
405.2340, 5109.000
406.4290, 5290.204
407.6240, 5632.000
408.8190, 5811.000
410.0140, 6203.000
411.2090, 6621.000
412.4040, 6947.000
413.5980, 6975.000
414.7920, 6452.000
415.9870, 5802.000
417.1810, 5233.000
418.3740, 4955.000
419.5680, 4830.000
420.7610, 4639.000
421.9550, 4582.000
423.1480, 4603.000
424.3410, 4561.000
425.5340, 4572.317
426.7260, 4689.000
427.9190, 4572.000
429.1110, 4639.000
430.3030, 4588.000
431.4950, 4585.000
432.6870, 4527.000
433.8790, 4529.000
435.0700, 4524.000
436.2610, 4421.000
437.4530, 4510.000
438.6440, 4399.000
439.8340, 4546.000
441.0250, 4506.000
442.2160, 4506.000
443.4060, 4445.000
444.5960, 4615.000
445.7860, 4559.000
446.9760, 4575.000
448.1660, 4654.000
449.3550, 4619.000
450.5450, 4663.000
451.7340, 4765.000
452.9230, 4822.000
454.1120, 4948.000
455.3000, 5156.000
456.4890, 5300.000
457.6770, 5485.000
458.8650, 5630.000
460.0530, 5724.000
461.2410, 5838.000
462.4290, 5794.000
463.6170, 5905.000
464.8040, 5934.000
465.9910, 5679.000
467.1780, 5651.000
468.3650, 5608.000
469.5520, 5585.000
470.7390, 5664.000
471.9250, 5763.000
473.1110, 5849.000
474.2970, 6019.000
475.4830, 6113.000
476.6690, 6112.000
477.8540, 6289.000
479.0400, 6167.000
480.2250, 6043.000
481.4100, 5794.000
482.5950, 5581.000
483.7800, 5291.000
484.9650, 5150.000
486.1490, 4927.000
487.3330, 4860.000
488.5170, 4774.000
489.7010, 4738.000
490.8850, 4726.000
492.0690, 4695.000
493.2520, 4636.000
494.4350, 4571.000
495.6190, 4591.000
496.8020, 4617.000
497.9840, 4538.000
499.1670, 4553.000
500.3490, 4656.000
501.5320, 4562.000
502.7140, 4649.000
503.8960, 4551.000
505.0780, 4648.000
506.2590, 4628.000
507.4410, 4671.000
508.6220, 4607.000
509.8030, 4618.000
510.9840, 4673.000
512.1650, 4699.000
513.3460, 4725.000
514.5260, 4740.000
515.7070, 4735.000
516.8870, 4748.000
518.0670, 4732.000
519.2470, 4578.000
520.4260, 4709.000
521.6060, 4661.000
522.7850, 4730.000
523.9650, 4605.000
525.1440, 4739.000
526.3220, 4742.000
527.5010, 4655.000
528.6800, 4702.000
529.8580, 4696.000
531.0360, 4701.000
532.2140, 4679.000
533.3920, 4651.000
534.5700, 4691.000
535.7480, 4707.000
536.9250, 4753.000
538.1020, 4681.000
539.2790, 4670.000
540.4560, 4716.000
541.6330, 4628.000
542.8100, 4757.000
543.9860, 4673.000
545.1620, 4657.000
546.3380, 4684.000
547.5140, 4524.000
548.6900, 4703.000
549.8660, 4655.000
551.0410, 4618.000
552.2160, 4705.000
553.3910, 4580.000
554.5660, 4662.000
555.7410, 4637.000
556.9160, 4683.000
558.0900, 4677.000
559.2650, 4717.000
560.4390, 4706.000
561.6130, 4726.000
562.7860, 4731.653
563.9600, 4729.000
565.1340, 4704.000
566.3070, 4749.000
567.4800, 4670.000
568.6530, 4674.000
569.8260, 4721.000
570.9980, 4759.000
572.1710, 4778.000
573.3430, 4788.000
574.5150, 4893.000
575.6870, 4835.000
576.8590, 4786.000
578.0310, 4954.000
579.2030, 4934.000
580.3740, 4871.000
581.5450, 4835.000
582.7160, 4848.000
583.8870, 4782.000
585.0580, 4812.000
586.2280, 4777.000
587.3990, 4751.000
588.5690, 4793.000
589.7390, 4796.000
590.9090, 4795.408
592.0780, 4829.000
593.2480, 4824.000
594.4170, 4816.000
595.5870, 4881.000
596.7560, 4899.409
597.9250, 4954.935
599.0930, 5000.000
600.2620, 5070.000
601.4300, 5133.000
602.5990, 5174.000
603.7670, 5225.000
604.9350, 5278.169
606.1020, 5312.809
607.2700, 5376.000
608.4370, 5372.000
609.6050, 5407.000
610.7720, 5406.000
611.9390, 5444.000
613.1060, 5316.000
614.2720, 5373.000
615.4390, 5355.000
616.6050, 5387.000
617.7710, 5359.000
618.9370, 5389.000
620.1030, 5339.000
621.2680, 5467.000
622.4340, 5433.000
623.5990, 5401.000
624.7640, 5495.000
625.9290, 5478.000
627.0940, 5479.000
628.2590, 5565.000
629.4230, 5560.000
630.5880, 5570.000
631.7520, 5539.000
632.9160, 5604.000
634.0800, 5606.000
635.2440, 5660.000
636.4070, 5646.000
637.5700, 5678.034
638.7340, 5707.000
639.8970, 5733.000
641.0600, 5785.000
642.2220, 5841.000
643.3850, 5828.000
644.5470, 5941.000
645.7090, 5891.000
646.8710, 5948.000
648.0330, 5852.000
649.1950, 5895.000
650.3570, 5737.000
651.5180, 5650.000
652.6790, 5550.000
653.8400, 5543.000
655.0010, 5421.000
656.1620, 5392.000
657.3230, 5301.000
658.4830, 5227.000
659.6430, 5178.000
660.8030, 5231.000
661.9630, 5218.000
663.1230, 5172.000
664.2830, 5147.291
665.4420, 5083.000
666.6020, 5023.000
667.7610, 5041.000
668.9200, 4978.000
670.0780, 4967.552
671.2370, 5024.000
672.3960, 4930.000
673.5540, 4924.000
674.7120, 4903.000
675.8700, 4994.000
677.0280, 4891.000
678.1860, 4950.000
679.3430, 4982.000
680.5000, 4771.000
681.6580, 4900.000
682.8150, 4865.000
683.9710, 4913.000
685.1280, 4916.000
686.2850, 4828.000
687.4410, 4890.000
688.5970, 4827.000
689.7530, 4965.000
690.9090, 4815.000
692.0650, 4855.000
693.2200, 4870.000
694.3760, 4964.000
695.5310, 4879.000
696.6860, 4947.000
697.8410, 4938.000
698.9960, 4937.000
700.1500, 4938.000
701.3050, 4963.000
702.4590, 5015.000
703.6130, 5008.262
704.7670, 5015.000
705.9210, 5022.000
707.0740, 5014.000
708.2280, 5018.000
709.3810, 5027.000
710.5340, 5069.000
711.6870, 5046.000
712.8400, 5038.000
713.9930, 5107.000
715.1450, 5131.000
716.2970, 5103.000
717.4490, 5096.000
718.6010, 5044.000
719.7530, 5052.000
720.9050, 5050.140
722.0560, 5051.813
723.2080, 5099.000
724.3590, 5099.000
725.5100, 5177.000
726.6610, 5233.000
727.8110, 5180.000
728.9620, 5307.000
730.1120, 5250.000
731.2620, 5344.000
732.4120, 5367.000
733.5620, 5420.000
734.7120, 5453.000
735.8620, 5492.000
737.0110, 5553.281
738.1600, 5670.000
739.3090, 5682.000
740.4580, 5704.000
741.6070, 5782.000
742.7550, 5783.000
743.9040, 5756.000
745.0520, 5750.000
746.2000, 5690.000
747.3480, 5725.000
748.4960, 5486.000
749.6430, 5615.000
750.7910, 5520.000
751.9380, 5455.000
753.0850, 5483.000
754.2320, 5381.000
755.3790, 5286.000
756.5260, 5303.000
757.6720, 5259.000
758.8180, 5340.000
759.9650, 5233.000
761.1110, 5220.000
762.2560, 5297.000
763.4020, 5195.000
764.5470, 5190.000
765.6930, 5221.000
766.8380, 5276.000
767.9830, 5269.000
769.1280, 5283.544
770.2720, 5175.000
771.4170, 5243.000
772.5610, 5243.000
773.7060, 5160.000
774.8500, 5260.000
775.9930, 5281.000
777.1370, 5200.000
778.2810, 5267.000
779.4240, 5310.000
780.5670, 5285.000
781.7100, 5269.000
782.8530, 5285.887
783.9960, 5212.000
785.1390, 5308.000
786.2810, 5285.000
787.4230, 5329.000
788.5650, 5301.000
789.7070, 5306.000
790.8490, 5248.000
791.9910, 5206.000
793.1320, 5186.000
794.2730, 5299.000
795.4140, 5334.000
796.5550, 5377.000
797.6960, 5310.000
798.8370, 5278.000
799.9770, 5279.000
801.1180, 5282.000
802.2580, 5384.000
803.3980, 5380.000
804.5380, 5427.000
805.6770, 5351.000
806.8170, 5431.000
807.9560, 5282.000
809.0950, 5310.000
810.2340, 5295.000
811.3730, 5336.000
812.5120, 5333.000
813.6500, 5282.000
814.7890, 5333.000
815.9270, 5308.000
817.0650, 5262.000
818.2030, 5401.000
819.3400, 5359.000
820.4780, 5377.000
821.6150, 5302.000
822.7530, 5281.000
823.8900, 5365.000
825.0270, 5392.000
826.1630, 5375.000
827.3000, 5391.000
828.4360, 5393.535
829.5730, 5384.000
830.7090, 5394.000
831.8450, 5405.000
832.9800, 5396.000
834.1160, 5415.483
835.2520, 5429.256
836.3870, 5429.000
837.5220, 5432.029
838.6570, 5436.147
839.7920, 5418.000
840.9260, 5404.000
842.0610, 5389.441
843.1950, 5381.225
844.3290, 5374.000
845.4630, 5372.000
846.5970, 5382.000
847.7310, 5386.000
848.8640, 5446.000
849.9980, 5469.000
851.1310, 5464.000
852.2640, 5521.000
853.3970, 5537.000
854.5300, 5579.000
855.6620, 5468.000
856.7940, 5469.000
857.9270, 5492.000
859.0590, 5528.000
860.1910, 5554.000
861.3220, 5570.000
862.4540, 5551.000
863.5850, 5587.000
864.7170, 5496.000
865.8480, 5463.000
866.9790, 5474.214
868.1090, 5540.000
869.2400, 5487.000
870.3710, 5553.000
871.5010, 5578.000
872.6310, 5571.000
873.7610, 5468.000
874.8910, 5525.000
876.0200, 5569.000
877.1500, 5433.000
878.2790, 5518.000
879.4080, 5516.000
880.5370, 5467.000
881.6660, 5472.000
882.7950, 5473.681
883.9230, 5578.000
885.0520, 5489.000
886.1800, 5569.000
887.3080, 5562.000
888.4360, 5571.000
889.5640, 5604.052
890.6910, 5558.000
891.8180, 5598.000
892.9460, 5535.000
894.0730, 5448.000
895.2000, 5557.000
896.3260, 5542.000
897.4530, 5647.000
898.5790, 5497.000
899.7060, 5565.000
900.8320, 5500.000
901.9580, 5624.000
903.0830, 5653.000
904.2090, 5574.000
905.3340, 5511.000
906.4600, 5694.000
907.5850, 5571.000
908.7100, 5653.000
909.8350, 5535.000
910.9590, 5600.000
912.0840, 5700.000
913.2080, 5562.000
914.3320, 5626.000
915.4560, 5603.000
916.5800, 5646.000
917.7040, 5640.000
918.8270, 5581.000
919.9510, 5601.000
921.0740, 5593.000
922.1970, 5665.000
923.3200, 5560.000
924.4430, 5599.000
925.5650, 5751.000
926.6870, 5620.000
927.8100, 5711.000
928.9320, 5629.000
930.0540, 5634.000
931.1750, 5629.000
932.2970, 5642.000
933.4180, 5640.000
934.5400, 5627.000
935.6610, 5652.000
936.7820, 5633.413
937.9030, 5627.310
939.0230, 5614.000
940.1440, 5619.000
941.2640, 5607.000
942.3840, 5643.000
943.5040, 5734.000
944.6240, 5719.000
945.7440, 5576.000
946.8630, 5738.000
947.9820, 5676.000
949.1020, 5705.000
950.2210, 5789.000
951.3390, 5701.000
952.4580, 5707.000
953.5770, 5779.000
954.6950, 5714.000
955.8130, 5734.000
956.9310, 5812.000
958.0490, 5734.000
959.1670, 5692.000
960.2840, 5714.000
961.4020, 5701.655
962.5190, 5698.000
963.6360, 5750.000
964.7530, 5793.000
965.8700, 5806.000
966.9860, 5766.000
968.1030, 5778.000
969.2190, 5782.891
970.3350, 5822.000
971.4510, 5807.000
972.5670, 5776.000
973.6830, 5784.000
974.7980, 5744.000
975.9140, 5844.000
977.0290, 5842.000
978.1440, 5802.000
979.2590, 5772.000
980.3730, 5843.000
981.4880, 5947.000
982.6020, 5960.000
983.7160, 5988.000
984.8300, 5870.000
985.9440, 5948.000
987.0580, 6061.000
988.1710, 6005.000
989.2850, 6102.000
990.3980, 6117.000
991.5110, 6161.000
992.6240, 6209.000
993.7370, 6338.000
994.8490, 6272.000
995.9620, 6397.000
997.0740, 6465.000
998.1860, 6481.000
999.2980, 6503.000
1000.410, 6662.000
1001.522, 6562.000
1002.633, 6664.000
1003.744, 6625.000
1004.856, 6681.000
1005.966, 6566.000
1007.077, 6598.000
1008.188, 6584.000
1009.298, 6486.000
1010.409, 6556.000
1011.519, 6490.000
1012.629, 6443.000
1013.739, 6633.000
1014.849, 6562.000
1015.958, 6586.000
1017.068, 6680.000
1018.177, 6731.000
1019.286, 6506.000
1020.395, 6516.000
1021.503, 6549.000
1022.612, 6520.000
1023.720, 6580.000
1024.829, 6577.000
1025.937, 6511.000
1027.045, 6554.786
1028.153, 6501.000
1029.260, 6563.000
1030.368, 6526.000
1031.475, 6521.000
1032.582, 6518.000
1033.689, 6529.000
1034.796, 6526.000
1035.903, 6548.743
1037.009, 6585.258
1038.115, 6601.000
1039.222, 6726.000
1040.328, 6771.000
1041.433, 6944.000
1042.539, 7138.000
1043.645, 7251.000
1044.750, 7359.000
1045.855, 7592.000
1046.960, 7925.000
1048.065, 8240.000
1049.170, 8849.000
1050.275, 9312.000
1051.379, 9820.000
1052.483, 10352.00
1053.587, 11011.00
1054.691, 11356.00
1055.795, 11737.00
1056.899, 11850.00
1058.002, 11581.42
1059.105, 11390.00
1060.209, 10707.00
1061.312, 10044.00
1062.414, 9591.000
1063.517, 8961.000
1064.620, 8474.000
1065.722, 8172.000
1066.824, 7669.000
1067.926, 7491.000
1069.028, 7289.000
1070.130, 7217.000
1071.231, 7168.000
1072.333, 7049.000
1073.434, 7074.000
1074.535, 6959.000
1075.636, 6935.000
1076.737, 6938.000
1077.837, 6922.000
1078.938, 6862.000
1080.038, 6897.000
1081.138, 6923.000
1082.238, 6868.000
1083.338, 6821.000
1084.437, 6945.000
1085.537, 6952.000
1086.636, 6930.000
1087.735, 6997.000
1088.834, 7061.000
1089.933, 7044.000
1091.032, 7093.000
1092.130, 7200.000
1093.228, 7243.000
1094.327, 7289.000
1095.425, 7411.000
1096.523, 7743.000
1097.620, 7696.995
1098.718, 7728.650
1099.815, 7747.000
1100.912, 7583.000
1102.009, 7545.000
1103.106, 7490.000
1104.203, 7324.000
1105.300, 7166.000
1106.396, 7131.000
1107.492, 7012.000
1108.589, 6998.000
1109.685, 7050.000
1110.780, 6861.000
1111.876, 6861.000
1112.971, 6860.000
1114.067, 6979.000
1115.162, 6893.000
1116.257, 6859.000
1117.352, 6923.000
1118.446, 6754.000
1119.541, 6862.000
1120.635, 6954.000
1121.729, 6940.000
1122.823, 6958.000
1123.917, 6969.000
1125.011, 7001.000
1126.105, 6994.000
1127.198, 7041.000
1128.291, 7102.000
1129.384, 7301.000
1130.477, 7363.000
1131.570, 7511.000
1132.663, 7545.000
1133.755, 7600.000
1134.847, 7841.000
1135.940, 7891.000
1137.031, 7835.000
1138.123, 7663.000
1139.215, 7612.000
1140.306, 7559.000
1141.398, 7521.000
1142.489, 7382.000
1143.580, 7277.000
1144.671, 7190.000
1145.761, 7114.000
1146.852, 7066.000
1147.942, 7093.000
1149.033, 7004.000
1150.123, 7129.000
1151.213, 7007.000
1152.302, 7091.000
1153.392, 7079.000
1154.481, 6964.000
1155.571, 7094.000
1156.660, 7049.000
1157.749, 7068.000
1158.837, 7034.000
1159.926, 6959.000
1161.014, 7098.000
1162.103, 6955.000
1163.191, 7049.000
1164.279, 7095.000
1165.367, 7029.000
1166.454, 7148.000
1167.542, 6999.000
1168.629, 7011.000
1169.716, 7044.000
1170.803, 7099.000
1171.890, 7125.000
1172.977, 7160.000
1174.064, 7177.650
1175.150, 7252.000
1176.236, 7170.000
1177.322, 7182.000
1178.408, 7118.000
1179.494, 7140.000
1180.580, 7162.000
1181.665, 7231.000
1182.750, 7194.000
1183.835, 7073.000
1184.920, 6970.000
1186.005, 7063.000
1187.090, 7098.000
1188.174, 6937.000
1189.259, 6961.000
1190.343, 6892.000
1191.427, 6912.000
1192.511, 6829.000
1193.594, 6785.000
1194.678, 6842.000
1195.761, 6784.000
1196.844, 6829.000
1197.928, 6911.000
1199.010, 6843.000
1200.093, 6832.000
1201.176, 6777.000
1202.258, 6876.000
1203.340, 6873.000
1204.423, 6824.000
1205.504, 6806.000
1206.586, 6988.000
1207.668, 6990.000
1208.749, 6910.000
1209.831, 6893.000
1210.912, 6844.000
1211.993, 6787.000
1213.074, 6921.000
1214.154, 6887.000
1215.235, 6890.000
1216.315, 6887.000
1217.395, 6924.000
1218.475, 6918.000
1219.555, 6865.000
1220.635, 6822.000
1221.715, 6843.000
1222.794, 6878.000
1223.873, 6873.000
1224.952, 6771.000
1226.031, 6819.000
1227.110, 6845.000
1228.189, 6867.000
1229.267, 6925.000
1230.345, 6759.000
1231.424, 6861.000
1232.502, 6792.000
1233.579, 6915.000
1234.657, 6913.000
1235.735, 6822.000
1236.812, 6819.000
1237.889, 6819.000
1238.966, 6772.000
1240.043, 6800.000
1241.120, 6760.000
1242.196, 6836.000
1243.273, 6810.000
1244.349, 6819.000
1245.425, 6856.000
1246.501, 6874.000
1247.577, 6864.524
1248.652, 6861.714
1249.728, 6829.000
1250.803, 6827.000
1251.878, 6790.000
1252.953, 6791.000
1254.028, 6797.000
1255.103, 6921.000
1256.177, 6815.000
1257.251, 6959.000
1258.326, 6891.000
1259.400, 6862.000
1260.473, 6920.000
1261.547, 6942.000
1262.621, 6844.000
1263.694, 6992.000
1264.767, 6839.000
1265.840, 6907.000
1266.913, 6938.000
1267.986, 6970.000
1269.059, 6927.000
1270.131, 6889.000
1271.203, 6925.000
1272.275, 6979.000
1273.347, 7008.000
1274.419, 7001.000
1275.491, 7009.000
1276.562, 7023.000
1277.634, 6945.000
1278.705, 6942.000
1279.776, 6848.000
1280.847, 7065.000
1281.917, 6913.000
1282.988, 6981.000
1284.058, 7024.000
1285.128, 6964.000
1286.199, 6970.000
1287.268, 7010.000
1288.338, 7031.000
1289.408, 7066.000
1290.477, 7025.000
1291.546, 7017.000
1292.616, 7090.000
1293.685, 7050.000
1294.753, 7100.000
1295.822, 7024.000
1296.890, 6963.000
1297.959, 7121.000
1299.027, 7027.000
1300.095, 7076.000
1301.163, 7121.000
1302.231, 7101.000
1303.298, 7104.805
1304.365, 7067.000
1305.433, 7062.000
1306.500, 7039.000
1307.567, 7041.000
1308.633, 7149.000
1309.700, 7066.000
1310.766, 7147.000
1311.833, 7159.000
1312.899, 7108.000
1313.965, 7189.000
1315.031, 7275.000
1316.096, 7077.000
1317.162, 7182.000
1318.227, 7229.000
1319.292, 7207.000
1320.357, 7235.000
1321.422, 7168.000
1322.487, 7206.000
1323.551, 7214.000
1324.616, 7234.000
1325.680, 7283.000
1326.744, 7227.000
1327.808, 7165.000
1328.872, 7301.000
1329.935, 7089.000
1330.999, 7040.000
1332.062, 7110.000
1333.125, 7052.000
1334.188, 7207.000
1335.251, 7171.000
1336.313, 7301.000
1337.376, 7150.000
1338.438, 7231.000
1339.500, 7194.000
1340.562, 7247.000
1341.624, 7240.000
1342.686, 7175.000
1343.747, 7145.000
1344.809, 7130.000
1345.870, 7161.000
1346.931, 7204.000
1347.992, 7151.000
1349.053, 7222.000
1350.113, 7314.000
1351.174, 7170.000
1352.234, 7298.000
1353.294, 7281.000
1354.354, 7208.000
1355.414, 7220.000
1356.474, 7178.000
1357.533, 7161.000
1358.592, 7281.000
1359.652, 7174.000
1360.711, 7225.000
1361.769, 7128.000
1362.828, 7155.000
1363.887, 7244.000
1364.945, 7282.000
1366.003, 7320.000
1367.061, 7256.000
1368.119, 7292.000
1369.177, 7277.000
1370.235, 7265.000
1371.292, 7250.000
1372.349, 7225.000
1373.406, 7187.000
1374.463, 7287.000
1375.520, 7335.000
1376.577, 7325.000
1377.633, 7335.000
1378.690, 7294.000
1379.746, 7290.000
1380.802, 7267.072
1381.858, 7292.000
1382.914, 7241.000
1383.969, 7280.000
1385.025, 7319.000
1386.080, 7421.000
1387.135, 7269.000
1388.190, 7323.000
1389.245, 7291.000
1390.299, 7385.000
1391.354, 7347.000
1392.408, 7414.000
1393.462, 7284.000
1394.516, 7247.000
1395.570, 7437.000
1396.624, 7218.000
1397.677, 7401.000
1398.730, 7377.000
1399.784, 7386.000
1400.837, 7460.000
1401.890, 7304.000
1402.942, 7381.000
1403.995, 7409.000
1405.047, 7413.000
1406.099, 7498.000
1407.152, 7477.000
1408.204, 7459.000
1409.255, 7394.000
1410.307, 7344.000
1411.358, 7372.000
1412.410, 7349.000
1413.461, 7321.000
1414.512, 7346.100
1415.563, 7431.000
1416.613, 7372.000
1417.664, 7437.000
1418.714, 7457.000
1419.764, 7369.000
1420.815, 7470.000
1421.864, 7351.000
1422.914, 7304.000
1423.964, 7408.000
1425.013, 7387.000
1426.062, 7312.000
1427.112, 7430.000
1428.161, 7449.000
1429.209, 7631.000
1430.258, 7548.808
1431.306, 7371.000
1432.355, 7429.000
1433.403, 7487.000
1434.451, 7471.000
1435.499, 7469.000
1436.547, 7487.000
1437.594, 7545.000
1438.642, 7488.000
1439.689, 7616.000
1440.736, 7623.000
1441.783, 7581.000
1442.830, 7583.000
1443.876, 7568.000
1444.923, 7647.000
1445.969, 7622.000
1447.015, 7724.000
1448.061, 7757.000
1449.107, 7622.000
1450.152, 7799.000
1451.198, 7821.000
1452.243, 7679.000
1453.289, 7667.000
1454.334, 7644.023
1455.378, 7591.000
1456.423, 7646.000
1457.468, 7653.000
1458.512, 7722.000
1459.556, 7758.000
1460.600, 7676.000
1461.644, 7805.000
1462.688, 7742.000
1463.732, 7602.000
1464.775, 7666.000
1465.819, 7662.000
1466.862, 7685.000
1467.905, 7630.000
1468.948, 7672.000
1469.990, 7671.000
1471.033, 7658.000
1472.075, 7684.000
1473.117, 7697.000
1474.160, 7563.000
1475.201, 7639.000
1476.243, 7635.000
1477.285, 7561.000
1478.326, 7598.000
1479.368, 7654.000
1480.409, 7598.000
1481.450, 7656.000
1482.490, 7655.000
1483.531, 7586.000
1484.572, 7545.000
1485.612, 7720.000
1486.652, 7728.000
1487.692, 7645.000
1488.732, 7561.000
1489.772, 7583.000
1490.811, 7625.000
1491.851, 7652.000
1492.890, 7534.000
1493.929, 7669.000
1494.968, 7601.000
1496.007, 7626.000
1497.045, 7662.000
1498.084, 7654.000
1499.122, 7670.121
1500.160, 7673.417
1501.198, 7658.000
1502.236, 7674.000
1503.274, 7639.000
1504.311, 7642.000
1505.349, 7618.000
1506.386, 7635.000
1507.423, 7639.000
1508.460, 7623.000
1509.497, 7629.000
1510.533, 7627.526
1511.570, 7646.000
1512.606, 7646.000
1513.642, 7649.000
1514.678, 7690.000
1515.714, 7737.000
1516.750, 7694.000
1517.785, 7695.000
1518.820, 7727.000
1519.856, 7689.000
1520.891, 7709.000
1521.926, 7795.000
1522.960, 7730.973
1523.995, 7832.000
1525.029, 7753.000
1526.063, 7704.000
1527.098, 7893.000
1528.131, 7828.000
1529.165, 7791.000
1530.199, 7687.000
1531.232, 7643.000
1532.266, 7704.000
1533.299, 7697.000
1534.332, 7794.000
1535.365, 7802.000
1536.397, 7741.000
1537.430, 7789.000
1538.462, 7808.000
1539.495, 7817.000
1540.527, 7780.000
1541.559, 7902.000
1542.590, 7849.000
1543.622, 7687.000
1544.653, 7653.000
1545.685, 7762.000
1546.716, 7840.000
1547.747, 7877.000
1548.778, 7836.000
1549.808, 7861.000
1550.839, 7813.000
1551.869, 7827.622
1552.899, 7931.000
1553.929, 7844.000
1554.959, 7986.000
1555.989, 8005.000
1557.019, 7858.000
1558.048, 7804.000
1559.077, 7812.000
1560.106, 7893.000
1561.135, 7828.000
1562.164, 7897.000
1563.193, 7951.000
1564.221, 7814.000
1565.250, 7857.000
1566.278, 8008.000
1567.306, 7886.000
1568.334, 7874.000
1569.361, 7799.000
1570.389, 7876.000
1571.416, 7753.000
1572.443, 7851.000
1573.471, 7743.000
1574.498, 7850.000
1575.524, 7956.000
1576.551, 7971.000
1577.577, 7916.000
##END=



