##NAMES=Lazulite
##RRUFFID=R060494
##IDEAL CHEMISTRY=MgAl_2_(PO_4_)_2_(OH)_2_
##LOCALITY=Champion mine, White Mountains, Mono County, California, USA
##OWNER=RRUFF
##SOURCE=Michael Scott
##DESCRIPTION=Dark-blue coarsely crystalline mass
##STATUS=The identification of this mineral has been confirmed by X-ray diffraction and chemical analysis
##URL=rruff.info/R060494
##MEASURED CHEMISTRY=(Mg_0.67_Fe^2+^_0.33_)_Î£=1_Al_2.00_(P_1.00_O_4_)_2_(OH)_2_
##PIN_ID=M01648
##ORIENTATION=Laser parallel to b* (0 1 0). Fiducial mark perpendicular to laser is parallel to c [0 0 1]
60.30200, 605.0000
61.54400, 631.0000
62.78600, 592.0000
64.02800, 596.0000
65.26900, 585.0000
66.51100, 573.0000
67.75200, 579.0000
68.99300, 583.0000
70.23400, 575.1131
71.47500, 563.0000
72.71600, 569.0000
73.95600, 569.0000
75.19700, 572.0000
76.43700, 550.0000
77.67700, 544.0000
78.91700, 558.0000
80.15600, 543.0000
81.39600, 551.0000
82.63500, 554.0000
83.87400, 556.0000
85.11300, 570.0000
86.35200, 570.7130
87.59100, 561.0000
88.83000, 581.0000
90.06800, 583.0000
91.30600, 590.0000
92.54400, 577.0000
93.78200, 621.0000
95.02000, 638.0000
96.25700, 697.0000
97.49400, 752.0000
98.73200, 776.0000
99.96900, 874.0000
101.2060, 902.0000
102.4420, 1023.000
103.6790, 1096.000
104.9150, 1223.000
106.1510, 1368.000
107.3870, 1504.000
108.6230, 1659.000
109.8590, 1876.000
111.0940, 2038.000
112.3300, 2365.000
113.5650, 2555.000
114.8000, 2891.000
116.0350, 3191.000
117.2700, 3360.000
118.5040, 3626.000
119.7390, 3896.000
120.9730, 4078.000
122.2070, 4392.000
123.4410, 4518.000
124.6740, 4989.000
125.9080, 5085.000
127.1410, 5318.000
128.3740, 5518.000
129.6080, 5712.000
130.8400, 5880.902
132.0730, 6081.000
133.3060, 6166.000
134.5380, 6233.000
135.7700, 6329.000
137.0020, 6588.000
138.2340, 6667.000
139.4660, 6861.000
140.6980, 7082.000
141.9290, 7127.000
143.1600, 7180.000
144.3910, 7342.000
145.6220, 7337.000
146.8530, 7442.000
148.0830, 7413.000
149.3140, 7454.000
150.5440, 7544.000
151.7740, 7484.000
153.0040, 7520.000
154.2340, 7570.000
155.4630, 7552.013
156.6930, 7703.000
157.9220, 7589.000
159.1510, 7711.000
160.3800, 7765.000
161.6090, 7887.000
162.8370, 7953.000
164.0660, 8111.000
165.2940, 8107.000
166.5220, 8144.000
167.7500, 8140.000
168.9780, 8337.000
170.2050, 8515.000
171.4330, 8779.000
172.6600, 8731.000
173.8870, 8845.000
175.1140, 8852.000
176.3410, 8772.000
177.5670, 8953.000
178.7940, 9020.000
180.0200, 8980.000
181.2460, 9273.000
182.4720, 9500.000
183.6980, 9720.000
184.9230, 9882.000
186.1490, 10207.00
187.3740, 10418.00
188.5990, 10861.00
189.8240, 11291.00
191.0490, 11744.00
192.2730, 11816.85
193.4980, 12060.00
194.7220, 11745.00
195.9460, 11351.00
197.1700, 10989.00
198.3940, 11014.00
199.6180, 10941.00
200.8410, 10760.00
202.0640, 10958.00
203.2870, 10866.00
204.5100, 10795.00
205.7330, 10604.00
206.9560, 10657.00
208.1780, 10499.00
209.4000, 10468.00
210.6230, 10411.00
211.8450, 10431.00
213.0660, 10468.00
214.2880, 10442.00
215.5090, 10403.00
216.7310, 10348.00
217.9520, 10489.00
219.1730, 10401.00
220.3940, 10437.00
221.6140, 10570.00
222.8350, 10489.00
224.0550, 10476.00
225.2750, 10322.00
226.4950, 10069.00
227.7150, 9878.000
228.9350, 9679.000
230.1540, 9572.000
231.3730, 9476.000
232.5930, 9263.000
233.8120, 9285.000
235.0300, 9125.000
236.2490, 9080.193
237.4680, 9097.000
238.6860, 9065.000
239.9040, 9083.000
241.1220, 9229.000
242.3400, 9204.000
243.5580, 9237.000
244.7750, 9499.000
245.9920, 9447.000
247.2100, 9633.000
248.4270, 9584.000
249.6430, 9713.000
250.8600, 9927.000
252.0770, 10148.00
253.2930, 10410.00
254.5090, 10457.00
255.7250, 10281.00
256.9410, 10098.00
258.1570, 9923.000
259.3720, 9631.000
260.5880, 9437.000
261.8030, 9492.000
263.0180, 9276.000
264.2330, 9376.000
265.4470, 9313.000
266.6620, 9371.000
267.8760, 9316.000
269.0900, 9225.000
270.3040, 9212.000
271.5180, 9220.495
272.7320, 9330.000
273.9460, 9371.000
275.1590, 9504.000
276.3720, 9747.000
277.5850, 9541.000
278.7980, 9861.000
280.0110, 9971.000
281.2230, 10000.00
282.4360, 9926.000
283.6480, 9896.000
284.8600, 9700.000
286.0720, 9572.000
287.2840, 9457.000
288.4950, 9333.000
289.7070, 9450.000
290.9180, 9299.000
292.1290, 9251.000
293.3400, 9129.000
294.5500, 9103.000
295.7610, 9184.000
296.9710, 9138.000
298.1820, 9060.000
299.3920, 8940.000
300.6020, 9060.000
301.8110, 8958.000
303.0210, 9067.000
304.2300, 9052.000
305.4400, 9115.000
306.6490, 9087.000
307.8580, 9224.000
309.0660, 9208.000
310.2750, 9210.000
311.4830, 9168.000
312.6920, 9161.000
313.9000, 9335.000
315.1080, 9342.000
316.3160, 9445.000
317.5230, 9475.000
318.7310, 9633.000
319.9380, 9605.000
321.1450, 9670.000
322.3520, 9796.000
323.5590, 9699.000
324.7650, 9795.000
325.9720, 9489.000
327.1780, 9537.000
328.3840, 9473.000
329.5900, 9492.000
330.7960, 9575.000
332.0020, 9603.000
333.2070, 9594.000
334.4120, 9591.000
335.6170, 9698.000
336.8220, 9579.000
338.0270, 9652.000
339.2320, 9639.000
340.4360, 9760.000
341.6410, 9746.000
342.8450, 9737.000
344.0490, 9772.000
345.2530, 9870.000
346.4560, 9886.000
347.6600, 10052.00
348.8630, 9920.000
350.0660, 10029.00
351.2690, 9866.000
352.4720, 10048.00
353.6750, 9960.000
354.8770, 10195.00
356.0790, 10211.00
357.2820, 10114.00
358.4840, 10057.00
359.6860, 10008.00
360.8870, 9976.000
362.0890, 9993.000
363.2900, 9805.000
364.4910, 9831.000
365.6920, 9883.000
366.8930, 9990.000
368.0940, 9986.485
369.2940, 10014.00
370.4950, 10005.00
371.6950, 10062.00
372.8950, 10035.00
374.0950, 10046.00
375.2940, 10268.00
376.4940, 10297.00
377.6930, 10297.00
378.8930, 10321.00
380.0920, 10316.00
381.2910, 10276.00
382.4890, 10046.00
383.6880, 10217.00
384.8860, 9988.000
386.0840, 10014.00
387.2820, 9962.000
388.4800, 10071.00
389.6780, 10022.00
390.8760, 10158.00
392.0730, 9983.000
393.2700, 10072.00
394.4670, 10017.00
395.6640, 10134.00
396.8610, 9988.000
398.0580, 10016.00
399.2540, 10166.00
400.4500, 10263.00
401.6460, 10426.00
402.8420, 10476.00
404.0380, 10751.00
405.2340, 11280.00
406.4290, 11577.00
407.6240, 11814.00
408.8190, 12247.00
410.0140, 12509.00
411.2090, 13325.00
412.4040, 14003.00
413.5980, 14259.00
414.7920, 13997.00
415.9870, 12962.00
417.1810, 12096.00
418.3740, 11458.00
419.5680, 11015.00
420.7610, 10688.00
421.9550, 10684.00
423.1480, 10641.00
424.3410, 10753.00
425.5340, 10755.00
426.7260, 10762.00
427.9190, 10741.00
429.1110, 10767.00
430.3030, 10686.00
431.4950, 10592.00
432.6870, 10537.00
433.8790, 10404.00
435.0700, 10437.00
436.2610, 10377.00
437.4530, 10526.00
438.6440, 10425.00
439.8340, 10554.00
441.0250, 10450.00
442.2160, 10516.00
443.4060, 10557.00
444.5960, 10705.00
445.7860, 10679.00
446.9760, 10763.00
448.1660, 10895.00
449.3550, 11099.00
450.5450, 11183.00
451.7340, 11401.00
452.9230, 11915.00
454.1120, 12303.00
455.3000, 12951.00
456.4890, 13555.00
457.6770, 14442.00
458.8650, 15041.00
460.0530, 15666.00
461.2410, 15972.00
462.4290, 16483.00
463.6170, 16813.00
464.8040, 17012.00
465.9910, 16584.00
467.1780, 15892.00
468.3650, 15212.00
469.5520, 14457.00
470.7390, 13803.00
471.9250, 13349.00
473.1110, 13212.00
474.2970, 12886.00
475.4830, 12802.00
476.6690, 12553.00
477.8540, 12668.00
479.0400, 12560.00
480.2250, 12246.00
481.4100, 12131.00
482.5950, 11925.00
483.7800, 11681.00
484.9650, 11370.00
486.1490, 11255.00
487.3330, 11137.00
488.5170, 11001.00
489.7010, 11071.00
490.8850, 10707.00
492.0690, 10902.00
493.2520, 10967.00
494.4350, 10778.00
495.6190, 10620.00
496.8020, 10822.00
497.9840, 10846.00
499.1670, 10867.00
500.3490, 10934.37
501.5320, 10820.00
502.7140, 10930.00
503.8960, 10856.00
505.0780, 10784.00
506.2590, 10974.00
507.4410, 11011.00
508.6220, 10802.00
509.8030, 10801.00
510.9840, 10769.00
512.1650, 10844.00
513.3460, 10751.00
514.5260, 10881.00
515.7070, 10856.00
516.8870, 10912.00
518.0670, 10889.00
519.2470, 10955.00
520.4260, 10906.00
521.6060, 10850.00
522.7850, 10961.00
523.9650, 11026.00
525.1440, 10996.00
526.3220, 11029.00
527.5010, 10995.00
528.6800, 10864.00
529.8580, 10969.00
531.0360, 10943.00
532.2140, 10879.00
533.3920, 10961.00
534.5700, 10930.00
535.7480, 11075.00
536.9250, 11039.00
538.1020, 10972.00
539.2790, 10935.00
540.4560, 11136.00
541.6330, 11087.00
542.8100, 11018.00
543.9860, 11060.00
545.1620, 10991.00
546.3380, 10882.00
547.5140, 11027.00
548.6900, 11073.00
549.8660, 11017.00
551.0410, 11166.00
552.2160, 10891.00
553.3910, 11076.00
554.5660, 11028.00
555.7410, 10983.00
556.9160, 11111.00
558.0900, 11064.00
559.2650, 11046.00
560.4390, 11059.00
561.6130, 11062.00
562.7860, 11131.00
563.9600, 10990.00
565.1340, 11188.00
566.3070, 11184.00
567.4800, 11045.00
568.6530, 11336.00
569.8260, 11245.00
570.9980, 11210.00
572.1710, 11176.00
573.3430, 11220.00
574.5150, 11312.00
575.6870, 11165.00
576.8590, 11395.00
578.0310, 11338.00
579.2030, 11402.00
580.3740, 11451.00
581.5450, 11438.00
582.7160, 11320.00
583.8870, 11172.00
585.0580, 11378.00
586.2280, 11321.00
587.3990, 11333.00
588.5690, 11407.00
589.7390, 11419.00
590.9090, 11325.00
592.0780, 11336.00
593.2480, 11407.00
594.4170, 11446.00
595.5870, 11471.00
596.7560, 11501.00
597.9250, 11542.00
599.0930, 11719.00
600.2620, 11697.00
601.4300, 11872.00
602.5990, 12001.00
603.7670, 11931.00
604.9350, 11941.00
606.1020, 12194.00
607.2700, 12199.00
608.4370, 12295.00
609.6050, 12364.80
610.7720, 12243.00
611.9390, 12380.00
613.1060, 12422.00
614.2720, 12339.00
615.4390, 12252.00
616.6050, 12317.00
617.7710, 12380.00
618.9370, 12252.00
620.1030, 12387.00
621.2680, 12191.00
622.4340, 12287.00
623.5990, 12411.00
624.7640, 12292.00
625.9290, 12393.00
627.0940, 12442.00
628.2590, 12519.00
629.4230, 12582.00
630.5880, 12667.00
631.7520, 12776.00
632.9160, 12754.00
634.0800, 12778.00
635.2440, 12890.00
636.4070, 12761.00
637.5700, 12910.00
638.7340, 12928.00
639.8970, 13120.00
641.0600, 13050.00
642.2220, 13057.00
643.3850, 13121.00
644.5470, 13238.00
645.7090, 13100.00
646.8710, 13191.00
648.0330, 13072.00
649.1950, 12972.00
650.3570, 12825.00
651.5180, 12832.00
652.6790, 12615.00
653.8400, 12452.00
655.0010, 12512.00
656.1620, 12295.00
657.3230, 12272.00
658.4830, 12229.00
659.6430, 12219.00
660.8030, 12119.00
661.9630, 12127.00
663.1230, 12128.00
664.2830, 12013.00
665.4420, 11900.00
666.6020, 11971.00
667.7610, 11961.00
668.9200, 11837.00
670.0780, 11955.00
671.2370, 11896.00
672.3960, 11781.00
673.5540, 11869.00
674.7120, 11902.00
675.8700, 11816.00
677.0280, 11743.00
678.1860, 11950.00
679.3430, 11815.00
680.5000, 11817.00
681.6580, 11853.40
682.8150, 11798.49
683.9710, 11859.00
685.1280, 11817.00
686.2850, 11851.00
687.4410, 11919.00
688.5970, 11971.00
689.7530, 11855.00
690.9090, 11871.00
692.0650, 11937.00
693.2200, 11880.00
694.3760, 11944.00
695.5310, 11950.50
696.6860, 12039.00
697.8410, 11982.00
698.9960, 11981.00
700.1500, 11984.09
701.3050, 11993.00
702.4590, 11999.00
703.6130, 12061.00
704.7670, 12015.00
705.9210, 12028.00
707.0740, 12119.00
708.2280, 12138.00
709.3810, 12143.04
710.5340, 12132.00
711.6870, 12123.00
712.8400, 12131.00
713.9930, 12107.00
715.1450, 12115.00
716.2970, 12225.00
717.4490, 12156.00
718.6010, 12237.00
719.7530, 12217.00
720.9050, 12212.00
722.0560, 12152.00
723.2080, 12240.00
724.3590, 12320.00
725.5100, 12402.00
726.6610, 12300.00
727.8110, 12315.00
728.9620, 12393.00
730.1120, 12384.00
731.2620, 12497.00
732.4120, 12437.00
733.5620, 12517.79
734.7120, 12436.00
735.8620, 12614.00
737.0110, 12601.00
738.1600, 12621.00
739.3090, 12681.00
740.4580, 12829.00
741.6070, 12896.00
742.7550, 12785.00
743.9040, 12821.00
745.0520, 12763.00
746.2000, 12808.00
747.3480, 12828.00
748.4960, 12773.00
749.6430, 12795.00
750.7910, 12600.00
751.9380, 12690.00
753.0850, 12599.00
754.2320, 12518.00
755.3790, 12521.00
756.5260, 12517.31
757.6720, 12604.00
758.8180, 12556.00
759.9650, 12648.00
761.1110, 12581.00
762.2560, 12710.00
763.4020, 12652.42
764.5470, 12581.00
765.6930, 12587.00
766.8380, 12668.00
767.9830, 12663.00
769.1280, 12630.00
770.2720, 12665.00
771.4170, 12603.00
772.5610, 12662.00
773.7060, 12649.00
774.8500, 12651.00
775.9930, 12716.00
777.1370, 12712.74
778.2810, 12719.00
779.4240, 12716.00
780.5670, 12715.00
781.7100, 12617.00
782.8530, 12772.00
783.9960, 12707.00
785.1390, 12630.00
786.2810, 12708.00
787.4230, 12672.00
788.5650, 12748.00
789.7070, 12835.00
790.8490, 12763.00
791.9910, 12874.00
793.1320, 12785.00
794.2730, 12796.00
795.4140, 12728.00
796.5550, 12900.00
797.6960, 12896.00
798.8370, 12922.00
799.9770, 12904.00
801.1180, 12921.93
802.2580, 12941.69
803.3980, 12938.00
804.5380, 12997.00
805.6770, 12998.00
806.8170, 13043.00
807.9560, 12993.00
809.0950, 13099.00
810.2340, 13114.00
811.3730, 13052.00
812.5120, 13044.00
813.6500, 13037.00
814.7890, 13071.00
815.9270, 13130.00
817.0650, 13128.10
818.2030, 13139.21
819.3400, 13140.00
820.4780, 13099.00
821.6150, 13055.00
822.7530, 12985.00
823.8900, 12919.00
825.0270, 13089.00
826.1630, 13157.00
827.3000, 13231.00
828.4360, 13117.00
829.5730, 13135.00
830.7090, 13079.00
831.8450, 13138.00
832.9800, 13123.00
834.1160, 13150.00
835.2520, 13194.00
836.3870, 13195.00
837.5220, 13204.00
838.6570, 13161.00
839.7920, 13282.00
840.9260, 13293.00
842.0610, 13251.00
843.1950, 13285.00
844.3290, 13401.00
845.4630, 13386.00
846.5970, 13398.56
847.7310, 13393.00
848.8640, 13342.00
849.9980, 13327.00
851.1310, 13271.00
852.2640, 13332.49
853.3970, 13410.00
854.5300, 13466.00
855.6620, 13470.00
856.7940, 13526.00
857.9270, 13441.00
859.0590, 13451.00
860.1910, 13505.00
861.3220, 13466.00
862.4540, 13478.00
863.5850, 13600.00
864.7170, 13618.00
865.8480, 13625.00
866.9790, 13504.00
868.1090, 13634.00
869.2400, 13613.00
870.3710, 13571.00
871.5010, 13657.00
872.6310, 13547.00
873.7610, 13689.00
874.8910, 13719.00
876.0200, 13462.00
877.1500, 13467.00
878.2790, 13615.00
879.4080, 13522.00
880.5370, 13707.00
881.6660, 13670.00
882.7950, 13587.00
883.9230, 13551.00
885.0520, 13545.00
886.1800, 13631.00
887.3080, 13703.00
888.4360, 13619.00
889.5640, 13700.00
890.6910, 13528.00
891.8180, 13608.00
892.9460, 13683.00
894.0730, 13531.00
895.2000, 13716.00
896.3260, 13702.00
897.4530, 13642.00
898.5790, 13698.00
899.7060, 13604.00
900.8320, 13637.00
901.9580, 13721.00
903.0830, 13792.00
904.2090, 13845.00
905.3340, 13900.00
906.4600, 13857.00
907.5850, 13779.00
908.7100, 13713.00
909.8350, 13741.00
910.9590, 13788.00
912.0840, 13712.00
913.2080, 13789.00
914.3320, 13737.00
915.4560, 13907.00
916.5800, 13892.00
917.7040, 13898.00
918.8270, 13919.00
919.9510, 13731.00
921.0740, 13854.00
922.1970, 14005.00
923.3200, 13865.00
924.4430, 13823.00
925.5650, 14027.00
926.6870, 14022.00
927.8100, 14081.00
928.9320, 14046.00
930.0540, 13787.00
931.1750, 13944.00
932.2970, 14027.00
933.4180, 14138.00
934.5400, 13871.00
935.6610, 13971.00
936.7820, 13928.00
937.9030, 14053.00
939.0230, 14076.00
940.1440, 14013.00
941.2640, 14115.00
942.3840, 13918.00
943.5040, 14040.00
944.6240, 13963.00
945.7440, 13965.00
946.8630, 14079.00
947.9820, 13843.00
949.1020, 14151.00
950.2210, 14144.00
951.3390, 14207.00
952.4580, 13997.00
953.5770, 14250.00
954.6950, 14022.00
955.8130, 14228.00
956.9310, 14103.00
958.0490, 14088.00
959.1670, 13997.00
960.2840, 14147.00
961.4020, 14028.00
962.5190, 14252.00
963.6360, 14361.00
964.7530, 14224.00
965.8700, 14182.00
966.9860, 14170.00
968.1030, 14179.00
969.2190, 14225.00
970.3350, 14211.00
971.4510, 14250.00
972.5670, 14181.00
973.6830, 14154.00
974.7980, 14354.00
975.9140, 14127.00
977.0290, 14274.00
978.1440, 14545.00
979.2590, 14489.00
980.3730, 14433.00
981.4880, 14461.00
982.6020, 14465.00
983.7160, 14462.00
984.8300, 14581.00
985.9440, 14706.00
987.0580, 14618.00
988.1710, 14753.00
989.2850, 14627.00
990.3980, 14755.00
991.5110, 14704.00
992.6240, 14847.00
993.7370, 14868.00
994.8490, 15027.00
995.9620, 15006.00
997.0740, 15262.00
998.1860, 15238.00
999.2980, 15233.00
1000.410, 15361.00
1001.522, 15457.00
1002.633, 15400.00
1003.744, 15548.00
1004.856, 15338.00
1005.966, 15256.00
1007.077, 15203.00
1008.188, 15214.00
1009.298, 15290.00
1010.409, 15210.00
1011.519, 15311.00
1012.629, 15221.00
1013.739, 15264.63
1014.849, 15348.00
1015.958, 15316.00
1017.068, 15399.00
1018.177, 15428.00
1019.286, 15260.00
1020.395, 15367.00
1021.503, 15361.00
1022.612, 15405.00
1023.720, 15402.18
1024.829, 15435.00
1025.937, 15392.00
1027.045, 15388.00
1028.153, 15455.00
1029.260, 15332.00
1030.368, 15352.00
1031.475, 15453.00
1032.582, 15427.00
1033.689, 15474.00
1034.796, 15540.69
1035.903, 15455.00
1037.009, 15641.00
1038.115, 15755.00
1039.222, 15754.00
1040.328, 16038.00
1041.433, 15886.00
1042.539, 16158.13
1043.645, 16340.00
1044.750, 16590.00
1045.855, 16951.00
1046.960, 17230.00
1048.065, 17706.00
1049.170, 18051.00
1050.275, 18785.00
1051.379, 19379.00
1052.483, 20174.00
1053.587, 20904.00
1054.691, 21434.00
1055.795, 22097.00
1056.899, 22220.00
1058.002, 22374.00
1059.105, 22009.00
1060.209, 21401.00
1061.312, 20537.00
1062.414, 19762.00
1063.517, 19025.00
1064.620, 18412.00
1065.722, 17909.00
1066.824, 17397.00
1067.926, 17082.00
1069.028, 16900.00
1070.130, 16494.00
1071.231, 16495.00
1072.333, 16357.00
1073.434, 16349.00
1074.535, 16263.00
1075.636, 16233.00
1076.737, 16224.00
1077.837, 16356.00
1078.938, 16352.00
1080.038, 16469.00
1081.138, 16392.00
1082.238, 16476.00
1083.338, 16494.00
1084.437, 16477.00
1085.537, 16703.00
1086.636, 16414.00
1087.735, 16717.00
1088.834, 16556.00
1089.933, 16430.00
1091.032, 16502.00
1092.130, 16643.00
1093.228, 16713.00
1094.327, 16914.00
1095.425, 17036.00
1096.523, 17165.00
1097.620, 17424.00
1098.718, 17655.00
1099.815, 17544.00
1100.912, 17670.00
1102.009, 17450.00
1103.106, 17244.00
1104.203, 17115.00
1105.300, 16734.00
1106.396, 16845.00
1107.492, 16454.00
1108.589, 16545.00
1109.685, 16383.00
1110.780, 16319.00
1111.876, 16354.00
1112.971, 16166.00
1114.067, 15993.00
1115.162, 16301.00
1116.257, 16230.00
1117.352, 16317.00
1118.446, 16318.00
1119.541, 16360.00
1120.635, 16357.00
1121.729, 16318.00
1122.823, 16398.00
1123.917, 16436.00
1125.011, 16490.00
1126.105, 16463.00
1127.198, 16780.00
1128.291, 16634.00
1129.384, 16899.00
1130.477, 16927.00
1131.570, 17098.00
1132.663, 17145.00
1133.755, 17450.00
1134.847, 17579.00
1135.940, 17880.00
1137.031, 17589.00
1138.123, 17535.00
1139.215, 17310.00
1140.306, 17154.43
1141.398, 17072.00
1142.489, 16877.00
1143.580, 16924.00
1144.671, 16862.00
1145.761, 16650.00
1146.852, 16774.00
1147.942, 16556.00
1149.033, 16514.00
1150.123, 16581.00
1151.213, 16621.00
1152.302, 16667.00
1153.392, 16555.00
1154.481, 16636.00
1155.571, 16582.00
1156.660, 16585.00
1157.749, 16656.00
1158.837, 16590.00
1159.926, 16595.00
1161.014, 16699.00
1162.103, 16492.00
1163.191, 16502.00
1164.279, 16572.00
1165.367, 16515.00
1166.454, 16482.00
1167.542, 16588.00
1168.629, 16502.00
1169.716, 16550.00
1170.803, 16528.00
1171.890, 16622.00
1172.977, 16620.00
1174.064, 16657.42
1175.150, 16711.00
1176.236, 16733.00
1177.322, 16760.00
1178.408, 16816.00
1179.494, 16836.00
1180.580, 16710.00
1181.665, 16809.00
1182.750, 16683.00
1183.835, 16565.00
1184.920, 16853.00
1186.005, 16588.00
1187.090, 16733.00
1188.174, 16609.00
1189.259, 16656.00
1190.343, 16645.00
1191.427, 16613.00
1192.511, 16471.00
1193.594, 16642.00
1194.678, 16717.00
1195.761, 16514.00
1196.844, 16618.00
1197.928, 16524.00
1199.010, 16676.00
1200.093, 16538.00
1201.176, 16724.00
1202.258, 16692.00
1203.340, 16798.00
1204.423, 16749.00
1205.504, 16751.00
1206.586, 16631.00
1207.668, 16797.00
1208.749, 16705.00
1209.831, 16648.00
1210.912, 16627.00
1211.993, 16755.00
1213.074, 16702.00
1214.154, 16841.00
1215.235, 16742.00
1216.315, 16706.00
1217.395, 16789.00
1218.475, 16730.87
1219.555, 16800.00
1220.635, 16753.00
1221.715, 16783.00
1222.794, 16826.00
1223.873, 16769.00
1224.952, 16858.00
1226.031, 16729.00
1227.110, 16803.00
1228.189, 16834.00
1229.267, 16834.00
1230.345, 16844.00
1231.424, 16799.00
1232.502, 16693.00
1233.579, 16777.00
1234.657, 16812.00
1235.735, 16731.00
1236.812, 16876.00
1237.889, 16855.00
1238.966, 16774.00
1240.043, 16883.00
1241.120, 16857.00
1242.196, 17007.00
1243.273, 17067.00
1244.349, 17003.00
1245.425, 16887.00
1246.501, 16857.00
1247.577, 16906.00
1248.652, 16981.00
1249.728, 16901.00
1250.803, 16842.00
1251.878, 16977.00
1252.953, 16768.00
1254.028, 17005.00
1255.103, 16777.00
1256.177, 17130.00
1257.251, 17070.00
1258.326, 17167.00
1259.400, 17203.00
1260.473, 17182.00
1261.547, 17121.00
1262.621, 17171.00
1263.694, 17141.00
1264.767, 17160.30
1265.840, 17234.00
1266.913, 17219.00
1267.986, 17250.00
1269.059, 17308.00
1270.131, 17271.91
1271.203, 17313.00
1272.275, 17229.00
1273.347, 17244.00
1274.419, 17216.00
1275.491, 17337.00
1276.562, 17395.00
1277.634, 17207.00
1278.705, 17328.00
1279.776, 17337.00
1280.847, 17309.00
1281.917, 17296.00
1282.988, 17412.00
1284.058, 17331.00
1285.128, 17359.00
1286.199, 17329.00
1287.268, 17255.00
1288.338, 17281.00
1289.408, 17412.00
1290.477, 17354.00
1291.546, 17380.00
1292.616, 17638.00
1293.685, 17581.00
1294.753, 17500.00
1295.822, 17426.00
1296.890, 17663.00
1297.959, 17497.00
1299.027, 17794.00
1300.095, 17596.00
1301.163, 17623.00
1302.231, 17520.00
1303.298, 17576.00
1304.365, 17563.00
1305.433, 17702.00
1306.500, 17534.00
1307.567, 17485.00
1308.633, 17757.00
1309.700, 17703.00
1310.766, 17772.00
1311.833, 17732.00
1312.899, 17748.00
1313.965, 17641.00
1315.031, 17713.00
1316.096, 17884.00
1317.162, 17751.00
1318.227, 17678.00
1319.292, 17826.00
1320.357, 17680.00
1321.422, 17928.00
1322.487, 17909.00
1323.551, 17902.00
1324.616, 17841.00
1325.680, 17705.00
1326.744, 17849.00
1327.808, 17768.00
1328.872, 17747.00
1329.935, 17816.00
1330.999, 17899.00
1332.062, 17690.00
1333.125, 17823.00
1334.188, 17734.00
1335.251, 17890.00
1336.313, 17749.00
1337.376, 17678.00
1338.438, 17842.00
1339.500, 17839.00
1340.562, 17874.00
1341.624, 18017.00
1342.686, 17952.00
1343.747, 17873.00
1344.809, 17887.00
1345.870, 17821.00
1346.931, 17862.00
1347.992, 17916.00
1349.053, 17923.00
1350.113, 17972.00
1351.174, 17988.32
1352.234, 17875.00
1353.294, 18052.00
1354.354, 17954.00
1355.414, 18038.00
1356.474, 17901.00
1357.533, 18038.00
1358.592, 17913.00
1359.652, 18107.00
1360.711, 17793.00
1361.769, 17982.00
1362.828, 17953.00
1363.887, 17961.00
1364.945, 18077.00
1366.003, 18035.00
1367.061, 18018.00
1368.119, 18074.00
1369.177, 18011.00
1370.235, 18068.00
1371.292, 18016.00
1372.349, 18073.00
1373.406, 18049.00
1374.463, 18148.00
1375.520, 18240.00
1376.577, 18310.00
1377.633, 18164.00
1378.690, 18216.00
1379.746, 18135.00
1380.802, 18201.00
1381.858, 18142.00
1382.914, 18203.00
1383.969, 18349.00
1385.025, 18202.00
1386.080, 18265.00
1387.135, 18122.00
1388.190, 18373.00
1389.245, 18225.00
1390.299, 18348.00
1391.354, 18390.00
1392.408, 18385.00
1393.462, 18396.55
1394.516, 18359.00
1395.570, 18295.00
1396.624, 18343.00
1397.677, 18239.00
1398.730, 18374.00
1399.784, 18299.00
1400.837, 18236.00
1401.890, 18365.00
1402.942, 18188.00
1403.995, 18337.00
1405.047, 18328.00
1406.099, 18357.00
1407.152, 18346.00
1408.204, 18366.84
1409.255, 18388.00
1410.307, 18391.00
1411.358, 18443.00
1412.410, 18434.00
1413.461, 18448.00
1414.512, 18442.96
1415.563, 18455.00
1416.613, 18412.00
1417.664, 18420.34
1418.714, 18446.67
1419.764, 18425.00
1420.815, 18485.00
1421.864, 18532.00
1422.914, 18481.00
1423.964, 18516.59
1425.013, 18738.00
1426.062, 18541.00
1427.112, 18593.00
1428.161, 18690.00
1429.209, 18424.00
1430.258, 18502.00
1431.306, 18582.00
1432.355, 18589.00
1433.403, 18563.00
1434.451, 18762.00
1435.499, 18691.00
1436.547, 18774.00
1437.594, 18771.00
1438.642, 18770.00
1439.689, 18776.00
1440.736, 18749.00
1441.783, 18770.00
1442.830, 18773.00
1443.876, 18807.00
1444.923, 18868.00
1445.969, 18849.00
1447.015, 18990.00
1448.061, 19028.00
1449.107, 19103.00
1450.152, 19100.00
1451.198, 19166.00
1452.243, 19092.00
1453.289, 18981.00
1454.334, 19178.00
1455.378, 18961.00
1456.423, 19055.00
1457.468, 19102.00
1458.512, 19045.00
1459.556, 19024.00
1460.600, 19002.00
1461.644, 18954.00
1462.688, 18927.06
1463.732, 18966.00
1464.775, 18865.00
1465.819, 18985.00
1466.862, 18995.00
1467.905, 18905.00
1468.948, 18972.00
1469.990, 18932.00
1471.033, 19065.00
1472.075, 18840.00
1473.117, 18974.00
1474.160, 18968.00
1475.201, 18763.00
1476.243, 19040.00
1477.285, 19066.00
1478.326, 19105.00
1479.368, 19007.00
1480.409, 18968.00
1481.450, 19075.00
1482.490, 18946.00
1483.531, 19072.00
1484.572, 18835.00
1485.612, 19183.00
1486.652, 19049.00
1487.692, 18948.00
1488.732, 18955.00
1489.772, 18940.00
1490.811, 18950.00
1491.851, 18818.00
1492.890, 18919.00
1493.929, 19126.00
1494.968, 19184.00
1496.007, 19031.00
1497.045, 19091.00
1498.084, 19044.00
1499.122, 19095.00
1500.160, 19205.00
1501.198, 18910.00
1502.236, 18994.00
1503.274, 19131.00
1504.311, 19272.00
1505.349, 19211.00
1506.386, 19112.00
1507.423, 19192.00
1508.460, 19043.00
1509.497, 19222.00
1510.533, 19147.00
1511.570, 19066.00
1512.606, 19221.00
1513.642, 19178.00
1514.678, 19257.00
1515.714, 19132.00
1516.750, 19125.00
1517.785, 19264.00
1518.820, 19187.00
1519.856, 19313.00
1520.891, 19338.00
1521.926, 19198.00
1522.960, 19472.00
1523.995, 19246.00
1525.029, 19282.00
1526.063, 19230.00
1527.098, 19357.00
1528.131, 19303.00
1529.165, 19305.00
1530.199, 19408.00
1531.232, 19284.00
1532.266, 19341.00
1533.299, 19577.00
1534.332, 19504.00
1535.365, 19451.00
1536.397, 19398.00
1537.430, 19532.00
1538.462, 19432.00
1539.495, 19497.00
1540.527, 19362.00
1541.559, 19466.00
1542.590, 19489.00
1543.622, 19502.00
1544.653, 19557.00
1545.685, 19543.00
1546.716, 19435.00
1547.747, 19512.00
1548.778, 19511.00
1549.808, 19713.00
1550.839, 19753.00
1551.869, 19712.00
1552.899, 19693.00
1553.929, 19571.00
1554.959, 19564.15
1555.989, 19623.00
1557.019, 19521.00
1558.048, 19573.00
1559.077, 19621.00
1560.106, 19644.00
1561.135, 19681.03
1562.164, 19680.23
1563.193, 19695.00
1564.221, 19690.00
1565.250, 19617.00
1566.278, 19667.00
1567.306, 19686.00
1568.334, 19648.00
1569.361, 19775.00
1570.389, 19596.00
1571.416, 19690.00
1572.443, 19635.00
1573.471, 19782.00
1574.498, 19771.00
1575.524, 19766.00
1576.551, 19714.00
1577.577, 19962.00
##END=



