##NAMES=Lazulite
##RRUFFID=R060494
##IDEAL CHEMISTRY=MgAl_2_(PO_4_)_2_(OH)_2_
##LOCALITY=Champion mine, White Mountains, Mono County, California, USA
##OWNER=RRUFF
##SOURCE=Michael Scott
##DESCRIPTION=Dark-blue coarsely crystalline mass
##STATUS=The identification of this mineral has been confirmed by X-ray diffraction and chemical analysis
##URL=rruff.info/R060494
##MEASURED CHEMISTRY=(Mg_0.67_Fe^2+^_0.33_)_Î£=1_Al_2.00_(P_1.00_O_4_)_2_(OH)_2_
##PIN_ID=M01007
##ORIENTATION=Laser parallel to c* (0 0 1). Fiducial mark perpendicular to laser is parallel to -a [-1 0 0]
60.30200, 2499.000
61.54400, 2560.000
62.78600, 2371.000
64.02800, 2359.000
65.26900, 2251.000
66.51100, 2070.000
67.75200, 2028.000
68.99300, 2026.000
70.23400, 2014.000
71.47500, 1950.000
72.71600, 2034.000
73.95600, 1945.684
75.19700, 2049.000
76.43700, 1836.000
77.67700, 1742.000
78.91700, 1680.000
80.15600, 1813.000
81.39600, 1826.000
82.63500, 1800.000
83.87400, 1761.000
85.11300, 1734.000
86.35200, 1795.475
87.59100, 1786.000
88.83000, 1850.845
90.06800, 1889.000
91.30600, 1714.000
92.54400, 1761.000
93.78200, 1859.000
95.02000, 1917.000
96.25700, 2008.000
97.49400, 2130.000
98.73200, 2287.000
99.96900, 2382.000
101.2060, 2402.000
102.4420, 2425.000
103.6790, 2487.000
104.9150, 2592.000
106.1510, 2729.000
107.3870, 2954.000
108.6230, 3235.000
109.8590, 3505.278
111.0940, 3800.000
112.3300, 4212.000
113.5650, 4618.000
114.8000, 5095.000
116.0350, 5416.291
117.2700, 5869.000
118.5040, 6095.000
119.7390, 6339.000
120.9730, 6690.000
122.2070, 7007.000
123.4410, 7516.000
124.6740, 7975.000
125.9080, 8339.000
127.1410, 8525.000
128.3740, 8831.000
129.6080, 9260.000
130.8400, 9715.000
132.0730, 10033.00
133.3060, 10338.00
134.5380, 10574.00
135.7700, 10829.00
137.0020, 11121.48
138.2340, 11497.00
139.4660, 11698.00
140.6980, 11947.00
141.9290, 12252.00
143.1600, 12437.00
144.3910, 12373.00
145.6220, 12480.00
146.8530, 12659.00
148.0830, 12898.00
149.3140, 12791.00
150.5440, 12817.00
151.7740, 12906.00
153.0040, 12830.00
154.2340, 12987.00
155.4630, 13058.00
156.6930, 13191.00
157.9220, 13089.00
159.1510, 13230.00
160.3800, 13283.00
161.6090, 13526.00
162.8370, 13814.00
164.0660, 14379.00
165.2940, 14703.00
166.5220, 14829.00
167.7500, 14994.00
168.9780, 15347.00
170.2050, 15741.00
171.4330, 16300.00
172.6600, 16830.00
173.8870, 16984.00
175.1140, 17249.00
176.3410, 16817.00
177.5670, 16755.00
178.7940, 17099.00
180.0200, 18054.00
181.2460, 19650.00
182.4720, 21641.00
183.6980, 23548.00
184.9230, 24573.00
186.1490, 24602.00
187.3740, 25672.00
188.5990, 27778.00
189.8240, 30360.00
191.0490, 32859.00
192.2730, 33274.00
193.4980, 31572.00
194.7220, 27671.00
195.9460, 23819.00
197.1700, 20633.00
198.3940, 18711.00
199.6180, 17458.00
200.8410, 16839.00
202.0640, 16443.00
203.2870, 15985.00
204.5100, 15705.00
205.7330, 15339.00
206.9560, 15341.00
208.1780, 15337.00
209.4000, 15360.00
210.6230, 15705.00
211.8450, 16200.00
213.0660, 16440.00
214.2880, 17005.00
215.5090, 17612.00
216.7310, 18032.00
217.9520, 18580.00
219.1730, 19066.00
220.3940, 19469.00
221.6140, 19804.00
222.8350, 20323.00
224.0550, 19984.00
225.2750, 19391.00
226.4950, 18410.00
227.7150, 17157.00
228.9350, 16133.00
230.1540, 15343.00
231.3730, 14616.00
232.5930, 14122.00
233.8120, 14100.00
235.0300, 13722.00
236.2490, 13880.00
237.4680, 13714.62
238.6860, 14015.00
239.9040, 13824.00
241.1220, 14184.00
242.3400, 14760.00
243.5580, 15463.00
244.7750, 16354.00
245.9920, 17243.00
247.2100, 17930.00
248.4270, 18022.00
249.6430, 18538.00
250.8600, 19650.00
252.0770, 20745.00
253.2930, 21602.00
254.5090, 21792.00
255.7250, 21013.00
256.9410, 19608.00
258.1570, 18016.00
259.3720, 16467.00
260.5880, 15607.00
261.8030, 14872.00
263.0180, 14668.00
264.2330, 14235.00
265.4470, 14281.00
266.6620, 14049.00
267.8760, 14011.00
269.0900, 14088.00
270.3040, 13968.00
271.5180, 13987.00
272.7320, 14120.00
273.9460, 14237.00
275.1590, 14196.00
276.3720, 14371.00
277.5850, 14369.00
278.7980, 14489.00
280.0110, 14583.00
281.2230, 14523.00
282.4360, 14592.00
283.6480, 14231.00
284.8600, 13949.00
286.0720, 13425.00
287.2840, 13259.00
288.4950, 12975.00
289.7070, 12736.00
290.9180, 12488.00
292.1290, 12441.00
293.3400, 12294.00
294.5500, 12167.00
295.7610, 12268.00
296.9710, 12197.00
298.1820, 12258.00
299.3920, 12183.00
300.6020, 12275.00
301.8110, 12344.00
303.0210, 12401.77
304.2300, 12376.86
305.4400, 12640.00
306.6490, 12368.00
307.8580, 12535.00
309.0660, 12738.00
310.2750, 12950.00
311.4830, 13087.00
312.6920, 13373.00
313.9000, 13653.00
315.1080, 13917.00
316.3160, 13955.00
317.5230, 14451.00
318.7310, 14478.00
319.9380, 15073.00
321.1450, 15230.00
322.3520, 15653.00
323.5590, 15661.00
324.7650, 15782.00
325.9720, 15864.00
327.1780, 15842.00
328.3840, 16181.00
329.5900, 16407.00
330.7960, 16777.00
332.0020, 17316.00
333.2070, 17877.00
334.4120, 18475.00
335.6170, 19308.00
336.8220, 20097.00
338.0270, 21010.00
339.2320, 22007.00
340.4360, 22446.00
341.6410, 23346.00
342.8450, 23960.00
344.0490, 24275.00
345.2530, 24887.00
346.4560, 24662.00
347.6600, 23873.00
348.8630, 23078.00
350.0660, 21804.00
351.2690, 20582.00
352.4720, 19436.00
353.6750, 18464.00
354.8770, 17869.00
356.0790, 17316.00
357.2820, 16816.00
358.4840, 16474.00
359.6860, 16432.00
360.8870, 16196.00
362.0890, 16151.00
363.2900, 16116.00
364.4910, 16253.00
365.6920, 16397.00
366.8930, 16452.00
368.0940, 16666.00
369.2940, 16953.00
370.4950, 17413.00
371.6950, 17602.00
372.8950, 18046.00
374.0950, 18212.00
375.2940, 18399.00
376.4940, 18492.00
377.6930, 18590.00
378.8930, 18298.00
380.0920, 17999.00
381.2910, 17600.00
382.4890, 16747.00
383.6880, 16187.00
384.8860, 15580.00
386.0840, 15074.00
387.2820, 14905.00
388.4800, 14616.00
389.6780, 14650.00
390.8760, 14377.00
392.0730, 14279.00
393.2700, 14138.00
394.4670, 13930.00
395.6640, 13990.00
396.8610, 13808.00
398.0580, 13865.00
399.2540, 13867.00
400.4500, 13882.00
401.6460, 14143.00
402.8420, 14643.00
404.0380, 15196.00
405.2340, 16163.00
406.4290, 16827.00
407.6240, 17219.00
408.8190, 17439.00
410.0140, 18093.00
411.2090, 19110.00
412.4040, 19920.00
413.5980, 20193.00
414.7920, 19061.00
415.9870, 17310.00
417.1810, 15496.00
418.3740, 14153.00
419.5680, 13529.00
420.7610, 13105.00
421.9550, 13038.00
423.1480, 13025.00
424.3410, 13044.00
425.5340, 13186.00
426.7260, 12963.00
427.9190, 13160.00
429.1110, 13137.00
430.3030, 13004.00
431.4950, 12851.00
432.6870, 13004.00
433.8790, 12895.00
435.0700, 12866.00
436.2610, 12853.00
437.4530, 12748.00
438.6440, 12706.00
439.8340, 12735.00
441.0250, 12715.95
442.2160, 12740.82
443.4060, 12800.00
444.5960, 12776.00
445.7860, 12860.00
446.9760, 12828.00
448.1660, 12817.00
449.3550, 12976.00
450.5450, 12995.00
451.7340, 13176.00
452.9230, 13430.00
454.1120, 13484.00
455.3000, 13530.00
456.4890, 13888.00
457.6770, 14078.00
458.8650, 14268.00
460.0530, 14548.00
461.2410, 14868.00
462.4290, 15076.00
463.6170, 15502.74
464.8040, 15902.00
465.9910, 16419.00
467.1780, 16961.00
468.3650, 17627.00
469.5520, 18614.00
470.7390, 19528.00
471.9250, 20162.00
473.1110, 21228.00
474.2970, 22057.00
475.4830, 22472.00
476.6690, 22837.00
477.8540, 22872.00
479.0400, 22183.00
480.2250, 21435.00
481.4100, 20109.00
482.5950, 18838.00
483.7800, 17511.00
484.9650, 16494.00
486.1490, 15650.00
487.3330, 14937.00
488.5170, 14467.00
489.7010, 14154.00
490.8850, 13818.00
492.0690, 13851.00
493.2520, 13574.00
494.4350, 13415.00
495.6190, 13492.00
496.8020, 13424.00
497.9840, 13437.00
499.1670, 13658.00
500.3490, 13307.00
501.5320, 13665.00
502.7140, 13692.00
503.8960, 13729.00
505.0780, 13847.00
506.2590, 13839.00
507.4410, 13974.00
508.6220, 14076.00
509.8030, 14146.00
510.9840, 14180.00
512.1650, 14261.00
513.3460, 14353.02
514.5260, 14449.00
515.7070, 14545.00
516.8870, 14562.00
518.0670, 14613.00
519.2470, 14540.00
520.4260, 14561.00
521.6060, 14493.00
522.7850, 14575.00
523.9650, 14644.00
525.1440, 14528.00
526.3220, 14627.00
527.5010, 14502.00
528.6800, 14328.00
529.8580, 14336.00
531.0360, 14402.00
532.2140, 14277.00
533.3920, 14312.00
534.5700, 14092.00
535.7480, 14100.00
536.9250, 14054.00
538.1020, 14112.00
539.2790, 13956.00
540.4560, 13848.00
541.6330, 13811.00
542.8100, 13766.00
543.9860, 13744.00
545.1620, 13505.00
546.3380, 13520.00
547.5140, 13413.00
548.6900, 13419.00
549.8660, 13304.00
551.0410, 13261.00
552.2160, 13307.00
553.3910, 13250.00
554.5660, 13190.00
555.7410, 13222.00
556.9160, 13222.91
558.0900, 13402.00
559.2650, 13309.00
560.4390, 13470.00
561.6130, 13529.00
562.7860, 13805.00
563.9600, 13761.00
565.1340, 13809.00
566.3070, 13935.00
567.4800, 13884.00
568.6530, 14034.00
569.8260, 14226.00
570.9980, 14278.00
572.1710, 14583.00
573.3430, 14615.00
574.5150, 14794.00
575.6870, 14886.00
576.8590, 15016.00
578.0310, 15053.96
579.2030, 15074.76
580.3740, 15012.00
581.5450, 14912.00
582.7160, 14722.00
583.8870, 14339.03
585.0580, 14146.69
586.2280, 13737.00
587.3990, 13625.00
588.5690, 13659.00
589.7390, 13568.00
590.9090, 13591.00
592.0780, 13564.00
593.2480, 13794.00
594.4170, 14006.00
595.5870, 14363.00
596.7560, 14833.00
597.9250, 15382.00
599.0930, 15988.00
600.2620, 16425.00
601.4300, 16966.00
602.5990, 17659.00
603.7670, 18170.00
604.9350, 18536.00
606.1020, 18729.44
607.2700, 18959.00
608.4370, 18750.00
609.6050, 18415.00
610.7720, 18271.00
611.9390, 17956.00
613.1060, 18117.00
614.2720, 17574.00
615.4390, 17670.00
616.6050, 17151.00
617.7710, 17198.00
618.9370, 17097.00
620.1030, 17044.00
621.2680, 17094.00
622.4340, 16897.00
623.5990, 17179.00
624.7640, 17335.00
625.9290, 17309.00
627.0940, 17712.00
628.2590, 17898.00
629.4230, 18106.00
630.5880, 18276.00
631.7520, 18458.00
632.9160, 18595.34
634.0800, 18639.00
635.2440, 18843.00
636.4070, 18922.00
637.5700, 19037.00
638.7340, 18928.00
639.8970, 19222.00
641.0600, 19388.00
642.2220, 19588.00
643.3850, 19861.00
644.5470, 19883.00
645.7090, 19739.00
646.8710, 19498.00
648.0330, 19329.00
649.1950, 18672.00
650.3570, 18214.00
651.5180, 17878.00
652.6790, 17141.00
653.8400, 16591.00
655.0010, 16077.00
656.1620, 15683.00
657.3230, 15320.00
658.4830, 15101.00
659.6430, 14933.00
660.8030, 14542.00
661.9630, 14436.00
663.1230, 14469.00
664.2830, 14280.00
665.4420, 14056.00
666.6020, 14242.00
667.7610, 13875.00
668.9200, 13822.00
670.0780, 13756.00
671.2370, 13543.00
672.3960, 13559.00
673.5540, 13574.00
674.7120, 13436.00
675.8700, 13295.00
677.0280, 13110.00
678.1860, 12989.00
679.3430, 13128.00
680.5000, 12961.00
681.6580, 12907.00
682.8150, 12913.00
683.9710, 12806.00
685.1280, 12771.00
686.2850, 12763.00
687.4410, 12665.00
688.5970, 12810.00
689.7530, 12707.00
690.9090, 12719.00
692.0650, 12704.00
693.2200, 12788.00
694.3760, 12808.56
695.5310, 12710.00
696.6860, 12914.00
697.8410, 13028.00
698.9960, 13086.00
700.1500, 13028.00
701.3050, 13164.00
702.4590, 13196.00
703.6130, 13317.00
704.7670, 13453.00
705.9210, 13513.00
707.0740, 13704.00
708.2280, 13808.00
709.3810, 13978.00
710.5340, 13926.00
711.6870, 14015.00
712.8400, 14159.00
713.9930, 14143.00
715.1450, 14267.00
716.2970, 14359.00
717.4490, 14413.00
718.6010, 14584.00
719.7530, 14574.00
720.9050, 14809.00
722.0560, 14843.00
723.2080, 15094.00
724.3590, 15143.00
725.5100, 15281.00
726.6610, 15715.00
727.8110, 15848.00
728.9620, 16131.00
730.1120, 16608.00
731.2620, 16923.00
732.4120, 17396.00
733.5620, 17832.62
734.7120, 18369.00
735.8620, 18770.00
737.0110, 19132.00
738.1600, 19645.00
739.3090, 20020.00
740.4580, 20051.00
741.6070, 20397.00
742.7550, 20557.00
743.9040, 20297.00
745.0520, 19957.00
746.2000, 19693.00
747.3480, 18937.00
748.4960, 18483.00
749.6430, 17962.00
750.7910, 17406.00
751.9380, 16817.00
753.0850, 16534.00
754.2320, 15901.00
755.3790, 15552.00
756.5260, 15370.00
757.6720, 15228.00
758.8180, 14966.00
759.9650, 14758.00
761.1110, 14528.00
762.2560, 14365.00
763.4020, 14253.00
764.5470, 14214.00
765.6930, 14033.00
766.8380, 14046.00
767.9830, 14151.00
769.1280, 13987.00
770.2720, 13861.00
771.4170, 13759.00
772.5610, 13865.00
773.7060, 13832.00
774.8500, 13695.00
775.9930, 13711.00
777.1370, 13655.00
778.2810, 13723.00
779.4240, 13743.00
780.5670, 13697.00
781.7100, 13582.00
782.8530, 13559.00
783.9960, 13570.00
785.1390, 13625.00
786.2810, 13558.00
787.4230, 13605.00
788.5650, 13603.00
789.7070, 13530.00
790.8490, 13450.00
791.9910, 13580.00
793.1320, 13622.00
794.2730, 13609.00
795.4140, 13495.00
796.5550, 13484.00
797.6960, 13487.00
798.8370, 13478.00
799.9770, 13415.00
801.1180, 13487.00
802.2580, 13426.00
803.3980, 13496.00
804.5380, 13357.00
805.6770, 13441.00
806.8170, 13409.00
807.9560, 13422.00
809.0950, 13286.00
810.2340, 13213.00
811.3730, 13240.00
812.5120, 13370.00
813.6500, 13430.00
814.7890, 13297.00
815.9270, 13344.00
817.0650, 13291.00
818.2030, 13211.00
819.3400, 13331.00
820.4780, 13358.00
821.6150, 13301.00
822.7530, 13251.00
823.8900, 13154.00
825.0270, 13220.00
826.1630, 13278.00
827.3000, 13230.00
828.4360, 13319.00
829.5730, 13213.00
830.7090, 13384.00
831.8450, 13221.00
832.9800, 13273.00
834.1160, 13270.00
835.2520, 13299.00
836.3870, 13454.00
837.5220, 13319.00
838.6570, 13131.00
839.7920, 13212.00
840.9260, 13196.00
842.0610, 13352.00
843.1950, 13287.00
844.3290, 13293.00
845.4630, 13133.00
846.5970, 13411.00
847.7310, 13222.00
848.8640, 13297.00
849.9980, 13357.00
851.1310, 13260.00
852.2640, 13289.00
853.3970, 13401.00
854.5300, 13330.00
855.6620, 13405.00
856.7940, 13356.00
857.9270, 13463.00
859.0590, 13307.00
860.1910, 13373.00
861.3220, 13515.00
862.4540, 13348.00
863.5850, 13332.00
864.7170, 13479.00
865.8480, 13258.00
866.9790, 13247.00
868.1090, 13323.00
869.2400, 13357.00
870.3710, 13301.00
871.5010, 13364.03
872.6310, 13282.00
873.7610, 13349.00
874.8910, 13283.00
876.0200, 13153.00
877.1500, 13276.00
878.2790, 13227.00
879.4080, 13293.00
880.5370, 13310.00
881.6660, 13279.00
882.7950, 13324.00
883.9230, 13232.00
885.0520, 13266.00
886.1800, 13376.00
887.3080, 13278.00
888.4360, 13283.00
889.5640, 13286.00
890.6910, 13131.00
891.8180, 13245.00
892.9460, 13286.00
894.0730, 13236.00
895.2000, 13313.00
896.3260, 13382.00
897.4530, 13326.00
898.5790, 13220.00
899.7060, 13395.00
900.8320, 13475.00
901.9580, 13258.00
903.0830, 13479.00
904.2090, 13386.00
905.3340, 13373.00
906.4600, 13248.00
907.5850, 13121.00
908.7100, 13392.00
909.8350, 13399.00
910.9590, 13372.00
912.0840, 13437.00
913.2080, 13337.00
914.3320, 13407.00
915.4560, 13526.00
916.5800, 13577.00
917.7040, 13428.00
918.8270, 13374.00
919.9510, 13306.00
921.0740, 13405.00
922.1970, 13370.67
923.3200, 13487.00
924.4430, 13456.00
925.5650, 13525.00
926.6870, 13638.00
927.8100, 13609.79
928.9320, 13524.00
930.0540, 13551.00
931.1750, 13658.00
932.2970, 13472.00
933.4180, 13467.00
934.5400, 13611.00
935.6610, 13451.00
936.7820, 13495.00
937.9030, 13496.00
939.0230, 13521.00
940.1440, 13623.00
941.2640, 13508.00
942.3840, 13602.00
943.5040, 13641.00
944.6240, 13578.00
945.7440, 13627.00
946.8630, 13730.00
947.9820, 13615.00
949.1020, 13733.00
950.2210, 13755.00
951.3390, 13617.00
952.4580, 13721.00
953.5770, 13770.00
954.6950, 13819.00
955.8130, 13857.41
956.9310, 13793.00
958.0490, 13838.00
959.1670, 13756.00
960.2840, 13616.00
961.4020, 13739.00
962.5190, 13903.00
963.6360, 13832.00
964.7530, 13921.00
965.8700, 13897.00
966.9860, 14046.00
968.1030, 13936.00
969.2190, 13887.00
970.3350, 14013.00
971.4510, 13921.00
972.5670, 14027.00
973.6830, 13911.00
974.7980, 13942.00
975.9140, 13940.00
977.0290, 14059.00
978.1440, 14222.00
979.2590, 14267.00
980.3730, 14359.00
981.4880, 14367.00
982.6020, 14498.00
983.7160, 14533.00
984.8300, 14558.00
985.9440, 14534.00
987.0580, 14601.00
988.1710, 14825.00
989.2850, 14876.00
990.3980, 15188.00
991.5110, 15181.00
992.6240, 15319.00
993.7370, 15429.00
994.8490, 15615.00
995.9620, 15801.00
997.0740, 15960.15
998.1860, 15967.00
999.2980, 16277.00
1000.410, 16371.00
1001.522, 16425.00
1002.633, 16727.00
1003.744, 16550.00
1004.856, 16679.00
1005.966, 16592.00
1007.077, 16823.00
1008.188, 16941.00
1009.298, 17237.00
1010.409, 17077.00
1011.519, 17265.00
1012.629, 17250.00
1013.739, 17395.00
1014.849, 17493.28
1015.958, 17540.00
1017.068, 17721.00
1018.177, 17750.00
1019.286, 17899.00
1020.395, 17753.00
1021.503, 17789.00
1022.612, 17757.00
1023.720, 17734.00
1024.829, 17832.00
1025.937, 17870.00
1027.045, 17720.00
1028.153, 17919.00
1029.260, 17896.00
1030.368, 17893.00
1031.475, 18064.00
1032.582, 17957.00
1033.689, 18117.00
1034.796, 18220.00
1035.903, 18495.00
1037.009, 19011.00
1038.115, 19061.00
1039.222, 19609.00
1040.328, 20234.00
1041.433, 21003.00
1042.539, 21750.00
1043.645, 22788.00
1044.750, 24083.00
1045.855, 25885.00
1046.960, 28082.00
1048.065, 30545.00
1049.170, 33327.00
1050.275, 36513.00
1051.379, 39737.00
1052.483, 43337.00
1053.587, 46599.00
1054.691, 48513.00
1055.795, 50174.00
1056.899, 50107.00
1058.002, 49594.00
1059.105, 47292.00
1060.209, 44270.00
1061.312, 40808.00
1062.414, 36647.00
1063.517, 33335.00
1064.620, 30093.00
1065.722, 27569.00
1066.824, 25731.00
1067.926, 24012.00
1069.028, 22902.00
1070.130, 22560.00
1071.231, 21129.00
1072.333, 20863.00
1073.434, 20404.00
1074.535, 20145.00
1075.636, 19879.00
1076.737, 19342.00
1077.837, 19334.00
1078.938, 19133.00
1080.038, 19087.00
1081.138, 19138.00
1082.238, 19160.00
1083.338, 18963.00
1084.437, 19017.00
1085.537, 19133.00
1086.636, 19470.00
1087.735, 19373.00
1088.834, 19700.00
1089.933, 20008.00
1091.032, 20670.00
1092.130, 21014.00
1093.228, 21808.00
1094.327, 22473.00
1095.425, 23360.00
1096.523, 24011.00
1097.620, 24592.00
1098.718, 25064.00
1099.815, 24786.00
1100.912, 24603.00
1102.009, 23951.00
1103.106, 23117.00
1104.203, 22346.00
1105.300, 21714.00
1106.396, 21501.00
1107.492, 20221.05
1108.589, 20213.22
1109.685, 20144.83
1110.780, 20019.17
1111.876, 19663.99
1112.971, 19605.15
1114.067, 19427.46
1115.162, 19245.04
1116.257, 19401.00
1117.352, 19272.00
1118.446, 19430.00
1119.541, 19574.00
1120.635, 19592.00
1121.729, 19586.00
1122.823, 19730.00
1123.917, 20619.00
1125.011, 21083.00
1126.105, 20956.00
1127.198, 20762.00
1128.291, 21493.00
1129.384, 21742.00
1130.477, 22071.00
1131.570, 22821.00
1132.663, 23733.00
1133.755, 24083.00
1134.847, 24635.00
1135.940, 24718.00
1137.031, 24785.00
1138.123, 24591.00
1139.215, 24116.00
1140.306, 23504.00
1141.398, 23021.00
1142.489, 22565.09
1143.580, 22048.00
1144.671, 21700.00
1145.761, 21313.00
1146.852, 20891.00
1147.942, 20907.00
1149.033, 20570.00
1150.123, 20265.00
1151.213, 20525.00
1152.302, 20253.00
1153.392, 19873.00
1154.481, 19860.00
1155.571, 19645.00
1156.660, 19774.00
1157.749, 19461.00
1158.837, 19460.00
1159.926, 19384.00
1161.014, 19549.00
1162.103, 19551.35
1163.191, 19787.00
1164.279, 19554.00
1165.367, 19612.00
1166.454, 19290.00
1167.542, 19295.00
1168.629, 19260.00
1169.716, 19452.00
1170.803, 19345.00
1171.890, 19560.00
1172.977, 19649.00
1174.064, 19670.00
1175.150, 19430.00
1176.236, 19701.00
1177.322, 19694.00
1178.408, 19640.00
1179.494, 19759.00
1180.580, 19671.00
1181.665, 19379.00
1182.750, 19373.00
1183.835, 19104.00
1184.920, 19007.00
1186.005, 18791.97
1187.090, 18453.00
1188.174, 18344.00
1189.259, 18228.00
1190.343, 18049.00
1191.427, 17910.00
1192.511, 17740.00
1193.594, 17525.00
1194.678, 17476.00
1195.761, 17605.00
1196.844, 17419.00
1197.928, 17487.00
1199.010, 17315.00
1200.093, 17377.00
1201.176, 17533.00
1202.258, 17591.00
1203.340, 17734.00
1204.423, 17801.77
1205.504, 17923.00
1206.586, 17955.00
1207.668, 18066.00
1208.749, 18082.16
1209.831, 18161.00
1210.912, 18070.00
1211.993, 18043.00
1213.074, 17949.00
1214.154, 18054.00
1215.235, 17999.00
1216.315, 18010.00
1217.395, 17957.00
1218.475, 17715.00
1219.555, 17756.00
1220.635, 17583.00
1221.715, 17654.00
1222.794, 17410.00
1223.873, 17593.00
1224.952, 17270.00
1226.031, 17181.00
1227.110, 17002.00
1228.189, 16896.00
1229.267, 16583.00
1230.345, 16554.00
1231.424, 16359.00
1232.502, 16436.00
1233.579, 16279.00
1234.657, 16252.00
1235.735, 16123.00
1236.812, 16112.00
1237.889, 16053.00
1238.966, 15870.00
1240.043, 16064.00
1241.120, 15761.00
1242.196, 15841.00
1243.273, 15884.00
1244.349, 15638.00
1245.425, 15861.00
1246.501, 15650.00
1247.577, 15783.00
1248.652, 15733.00
1249.728, 15764.00
1250.803, 15669.00
1251.878, 15630.00
1252.953, 15598.00
1254.028, 15555.00
1255.103, 15587.77
1256.177, 15658.00
1257.251, 15686.00
1258.326, 15720.00
1259.400, 15811.00
1260.473, 15657.00
1261.547, 15798.00
1262.621, 15819.00
1263.694, 15764.00
1264.767, 15601.00
1265.840, 15662.00
1266.913, 15657.00
1267.986, 15571.00
1269.059, 15686.00
1270.131, 15832.00
1271.203, 15695.00
1272.275, 16044.00
1273.347, 15766.00
1274.419, 15767.00
1275.491, 15674.00
1276.562, 15765.00
1277.634, 15825.00
1278.705, 15705.00
1279.776, 15812.40
1280.847, 16017.00
1281.917, 15778.00
1282.988, 15827.00
1284.058, 15581.00
1285.128, 15961.00
1286.199, 15756.00
1287.268, 15808.00
1288.338, 15983.00
1289.408, 15756.00
1290.477, 15833.00
1291.546, 15581.00
1292.616, 15838.00
1293.685, 15819.00
1294.753, 15748.00
1295.822, 15800.00
1296.890, 15761.34
1297.959, 15905.00
1299.027, 15781.00
1300.095, 15914.00
1301.163, 16005.00
1302.231, 15845.00
1303.298, 15785.00
1304.365, 15953.00
1305.433, 15888.00
1306.500, 15888.00
1307.567, 15918.00
1308.633, 15966.00
1309.700, 16071.00
1310.766, 16086.00
1311.833, 16030.00
1312.899, 15986.00
1313.965, 16143.00
1315.031, 15953.00
1316.096, 15848.00
1317.162, 16101.00
1318.227, 16095.00
1319.292, 15971.00
1320.357, 16273.00
1321.422, 15945.00
1322.487, 16146.00
1323.551, 16091.00
1324.616, 16048.00
1325.680, 16228.00
1326.744, 16087.00
1327.808, 16187.00
1328.872, 16033.00
1329.935, 16181.00
1330.999, 16124.00
1332.062, 16103.00
1333.125, 16091.00
1334.188, 16322.00
1335.251, 16382.00
1336.313, 16401.00
1337.376, 16433.25
1338.438, 16353.58
1339.500, 16316.00
1340.562, 16186.00
1341.624, 16055.00
1342.686, 16042.00
1343.747, 16163.00
1344.809, 16068.00
1345.870, 16249.00
1346.931, 16183.00
1347.992, 16198.00
1349.053, 16180.00
1350.113, 16264.00
1351.174, 16202.00
1352.234, 16212.00
1353.294, 16265.00
1354.354, 16111.00
1355.414, 16232.00
1356.474, 16232.00
1357.533, 16330.00
1358.592, 16340.00
1359.652, 16370.00
1360.711, 16292.00
1361.769, 16363.90
1362.828, 16589.00
1363.887, 16361.00
1364.945, 16485.00
1366.003, 16296.00
1367.061, 16257.00
1368.119, 16446.00
1369.177, 16403.00
1370.235, 16387.00
1371.292, 16515.00
1372.349, 16252.00
1373.406, 16494.00
1374.463, 16360.00
1375.520, 16271.00
1376.577, 16372.00
1377.633, 16574.00
1378.690, 16462.00
1379.746, 16375.00
1380.802, 16580.00
1381.858, 16573.00
1382.914, 16614.00
1383.969, 16707.00
1385.025, 16650.00
1386.080, 16542.00
1387.135, 16416.00
1388.190, 16559.00
1389.245, 16683.00
1390.299, 16375.00
1391.354, 16551.00
1392.408, 16598.00
1393.462, 16568.00
1394.516, 16625.00
1395.570, 16577.00
1396.624, 16605.00
1397.677, 16510.00
1398.730, 16623.00
1399.784, 16763.00
1400.837, 16590.00
1401.890, 16512.00
1402.942, 16668.00
1403.995, 16540.00
1405.047, 16705.00
1406.099, 16570.00
1407.152, 16756.00
1408.204, 16640.00
1409.255, 16679.00
1410.307, 16619.00
1411.358, 16765.00
1412.410, 16669.00
1413.461, 16694.00
1414.512, 16828.00
1415.563, 16701.00
1416.613, 16669.00
1417.664, 16810.00
1418.714, 16936.00
1419.764, 16754.00
1420.815, 16603.00
1421.864, 16603.00
1422.914, 16672.00
1423.964, 16522.00
1425.013, 16591.90
1426.062, 16795.00
1427.112, 16654.00
1428.161, 16693.00
1429.209, 16808.00
1430.258, 16729.00
1431.306, 16785.00
1432.355, 16801.00
1433.403, 16704.00
1434.451, 16709.00
1435.499, 16790.00
1436.547, 16786.29
1437.594, 16830.92
1438.642, 16899.00
1439.689, 16894.00
1440.736, 16941.00
1441.783, 16963.00
1442.830, 16963.00
1443.876, 16906.00
1444.923, 17092.00
1445.969, 17020.00
1447.015, 16973.00
1448.061, 17146.00
1449.107, 17150.00
1450.152, 17047.00
1451.198, 17017.00
1452.243, 17083.00
1453.289, 17124.00
1454.334, 17257.00
1455.378, 17047.00
1456.423, 17018.00
1457.468, 17266.00
1458.512, 17138.00
1459.556, 17212.00
1460.600, 17178.00
1461.644, 17128.00
1462.688, 17100.00
1463.732, 17204.00
1464.775, 17163.00
1465.819, 17157.59
1466.862, 17279.00
1467.905, 17107.00
1468.948, 17076.00
1469.990, 17066.00
1471.033, 17093.00
1472.075, 17032.00
1473.117, 17197.00
1474.160, 17275.00
1475.201, 17095.00
1476.243, 17270.00
1477.285, 17013.00
1478.326, 17275.00
1479.368, 16912.00
1480.409, 17187.00
1481.450, 17182.00
1482.490, 17325.00
1483.531, 17122.00
1484.572, 17063.00
1485.612, 17194.00
1486.652, 17167.00
1487.692, 17210.00
1488.732, 17051.00
1489.772, 17355.00
1490.811, 17180.00
1491.851, 17195.00
1492.890, 17323.00
1493.929, 17304.00
1494.968, 17175.00
1496.007, 17439.00
1497.045, 17350.00
1498.084, 17214.00
1499.122, 17275.00
1500.160, 17339.00
1501.198, 17312.00
1502.236, 17276.00
1503.274, 17119.00
1504.311, 17260.00
1505.349, 17194.00
1506.386, 17258.00
1507.423, 17273.00
1508.460, 17333.00
1509.497, 17308.00
1510.533, 17406.00
1511.570, 17342.00
1512.606, 17289.00
1513.642, 17415.00
1514.678, 17321.00
1515.714, 17317.00
1516.750, 17408.00
1517.785, 17423.00
1518.820, 17329.00
1519.856, 17323.00
1520.891, 17410.00
1521.926, 17538.00
1522.960, 17495.00
1523.995, 17366.00
1525.029, 17299.00
1526.063, 17496.00
1527.098, 17355.00
1528.131, 17519.00
1529.165, 17460.00
1530.199, 17482.00
1531.232, 17490.00
1532.266, 17442.00
1533.299, 17447.00
1534.332, 17405.00
1535.365, 17426.00
1536.397, 17465.00
1537.430, 17470.00
1538.462, 17527.00
1539.495, 17517.72
1540.527, 17520.00
1541.559, 17498.00
1542.590, 17418.00
1543.622, 17373.00
1544.653, 17515.00
1545.685, 17579.00
1546.716, 17472.00
1547.747, 17611.00
1548.778, 17580.00
1549.808, 17672.00
1550.839, 17510.00
1551.869, 17729.00
1552.899, 17671.00
1553.929, 17833.00
1554.959, 17772.00
1555.989, 17740.00
1557.019, 17516.00
1558.048, 17374.00
1559.077, 17457.00
1560.106, 17442.00
1561.135, 17443.00
1562.164, 17522.57
1563.193, 17652.00
1564.221, 17607.00
1565.250, 17595.00
1566.278, 17534.00
1567.306, 17503.93
1568.334, 17495.00
1569.361, 17442.95
1570.389, 17474.00
1571.416, 17488.00
1572.443, 17554.00
1573.471, 17627.00
1574.498, 17537.00
1575.524, 17626.00
1576.551, 17474.00
1577.577, 17643.00
##END=



