##NAMES=Lazulite
##RRUFFID=R060494
##IDEAL CHEMISTRY=MgAl_2_(PO_4_)_2_(OH)_2_
##LOCALITY=Champion mine, White Mountains, Mono County, California, USA
##OWNER=RRUFF
##SOURCE=Michael Scott
##DESCRIPTION=Dark-blue coarsely crystalline mass
##STATUS=The identification of this mineral has been confirmed by X-ray diffraction and chemical analysis
##URL=rruff.info/R060494
##MEASURED CHEMISTRY=(Mg_0.67_Fe^2+^_0.33_)_Î£=1_Al_2.00_(P_1.00_O_4_)_2_(OH)_2_
##PIN_ID=M01822
##ORIENTATION=Laser parallel to a* (1 0 0). Fiducial mark perpendicular to laser is parallel to b [0 1 0]
60.30200, 5563.000
61.54400, 5190.000
62.78600, 4964.000
64.02800, 4605.000
65.26900, 4572.000
66.51100, 4450.000
67.75200, 4292.000
68.99300, 4284.000
70.23400, 4234.000
71.47500, 3955.000
72.71600, 3860.000
73.95600, 3854.000
75.19700, 3615.000
76.43700, 3533.000
77.67700, 3489.000
78.91700, 3295.000
80.15600, 3253.000
81.39600, 3076.000
82.63500, 2916.000
83.87400, 2942.000
85.11300, 2796.000
86.35200, 2758.000
87.59100, 2770.000
88.83000, 2675.000
90.06800, 2591.000
91.30600, 2633.000
92.54400, 2662.000
93.78200, 2665.000
95.02000, 2704.221
96.25700, 2693.000
97.49400, 2764.000
98.73200, 2777.000
99.96900, 2820.000
101.2060, 2838.000
102.4420, 2845.000
103.6790, 2937.000
104.9150, 3067.000
106.1510, 3194.000
107.3870, 3464.000
108.6230, 3590.000
109.8590, 3849.000
111.0940, 4012.000
112.3300, 4290.000
113.5650, 4486.000
114.8000, 4960.000
116.0350, 5323.000
117.2700, 5406.000
118.5040, 5522.000
119.7390, 5806.000
120.9730, 5996.000
122.2070, 6293.000
123.4410, 6611.000
124.6740, 6887.000
125.9080, 7154.000
127.1410, 7386.385
128.3740, 7575.318
129.6080, 7782.000
130.8400, 7890.000
132.0730, 8029.000
133.3060, 8159.000
134.5380, 8305.000
135.7700, 8343.000
137.0020, 8508.000
138.2340, 8562.000
139.4660, 8892.000
140.6980, 9033.000
141.9290, 9045.000
143.1600, 9040.000
144.3910, 9091.000
145.6220, 9134.000
146.8530, 9150.000
148.0830, 9200.659
149.3140, 9317.000
150.5440, 9260.000
151.7740, 9384.000
153.0040, 9381.000
154.2340, 9362.000
155.4630, 9458.000
156.6930, 9474.000
157.9220, 9499.000
159.1510, 9545.000
160.3800, 9592.000
161.6090, 9623.000
162.8370, 9761.000
164.0660, 9844.123
165.2940, 10071.00
166.5220, 10140.00
167.7500, 10246.00
168.9780, 10495.00
170.2050, 10711.00
171.4330, 11118.00
172.6600, 11296.00
173.8870, 11456.00
175.1140, 11296.00
176.3410, 11198.00
177.5670, 11308.00
178.7940, 11457.00
180.0200, 11853.00
181.2460, 12431.00
182.4720, 13027.00
183.6980, 13805.00
184.9230, 14566.00
186.1490, 15798.00
187.3740, 17781.00
188.5990, 20631.00
189.8240, 24252.00
191.0490, 26799.00
192.2730, 27474.00
193.4980, 24976.00
194.7220, 21437.00
195.9460, 18377.00
197.1700, 15996.00
198.3940, 14434.00
199.6180, 13271.00
200.8410, 12669.00
202.0640, 12386.00
203.2870, 11814.00
204.5100, 11373.00
205.7330, 10919.00
206.9560, 10834.00
208.1780, 10532.00
209.4000, 10469.00
210.6230, 10584.00
211.8450, 10641.00
213.0660, 10738.00
214.2880, 10651.00
215.5090, 10625.00
216.7310, 10652.00
217.9520, 10830.00
219.1730, 11058.00
220.3940, 11202.00
221.6140, 11496.00
222.8350, 11558.00
224.0550, 11542.00
225.2750, 11313.00
226.4950, 10957.00
227.7150, 10782.00
228.9350, 10488.00
230.1540, 10371.00
231.3730, 10149.00
232.5930, 10067.00
233.8120, 10056.00
235.0300, 10088.00
236.2490, 10162.00
237.4680, 10079.00
238.6860, 10209.00
239.9040, 10249.00
241.1220, 10250.00
242.3400, 10354.00
243.5580, 10582.12
244.7750, 10947.00
245.9920, 11210.00
247.2100, 11649.00
248.4270, 12113.00
249.6430, 13027.00
250.8600, 13979.43
252.0770, 15290.00
253.2930, 15701.00
254.5090, 15958.00
255.7250, 15334.00
256.9410, 14049.00
258.1570, 12878.00
259.3720, 12290.00
260.5880, 11614.00
261.8030, 11285.00
263.0180, 11059.00
264.2330, 11020.00
265.4470, 10931.00
266.6620, 10821.00
267.8760, 10778.00
269.0900, 10858.00
270.3040, 10944.00
271.5180, 11025.00
272.7320, 11201.00
273.9460, 11293.00
275.1590, 11646.00
276.3720, 11946.00
277.5850, 12352.00
278.7980, 12629.00
280.0110, 12996.00
281.2230, 13079.00
282.4360, 13229.00
283.6480, 12817.00
284.8600, 12582.00
286.0720, 12030.00
287.2840, 11443.00
288.4950, 11050.00
289.7070, 10663.00
290.9180, 10403.93
292.1290, 10275.00
293.3400, 10139.00
294.5500, 10098.00
295.7610, 10013.84
296.9710, 10058.00
298.1820, 9918.000
299.3920, 9924.000
300.6020, 9867.000
301.8110, 9880.000
303.0210, 9915.000
304.2300, 9809.000
305.4400, 9895.000
306.6490, 9867.000
307.8580, 9940.000
309.0660, 10002.00
310.2750, 10071.00
311.4830, 10214.00
312.6920, 10149.00
313.9000, 10372.00
315.1080, 10478.00
316.3160, 10699.00
317.5230, 10861.00
318.7310, 11182.00
319.9380, 11335.00
321.1450, 11550.00
322.3520, 11791.00
323.5590, 11729.00
324.7650, 11540.00
325.9720, 11644.00
327.1780, 11724.00
328.3840, 11815.00
329.5900, 11996.13
330.7960, 12121.00
332.0020, 12431.00
333.2070, 12658.00
334.4120, 12996.00
335.6170, 13391.00
336.8220, 13780.00
338.0270, 14107.00
339.2320, 14633.00
340.4360, 15207.00
341.6410, 16157.00
342.8450, 16874.00
344.0490, 17636.00
345.2530, 18109.00
346.4560, 18156.00
347.6600, 17799.00
348.8630, 17148.00
350.0660, 16099.00
351.2690, 15345.00
352.4720, 14417.00
353.6750, 13618.00
354.8770, 13271.00
356.0790, 12857.00
357.2820, 12476.00
358.4840, 12432.00
359.6860, 12185.00
360.8870, 12362.00
362.0890, 12209.00
363.2900, 12189.00
364.4910, 12216.00
365.6920, 12426.00
366.8930, 12569.00
368.0940, 12829.00
369.2940, 13094.00
370.4950, 13578.00
371.6950, 14142.00
372.8950, 14544.00
374.0950, 15117.00
375.2940, 16024.00
376.4940, 16768.00
377.6930, 16612.00
378.8930, 16571.00
380.0920, 16282.00
381.2910, 15760.00
382.4890, 14926.00
383.6880, 14132.00
384.8860, 13538.00
386.0840, 12825.00
387.2820, 12561.00
388.4800, 12316.00
389.6780, 12090.00
390.8760, 11836.00
392.0730, 11625.00
393.2700, 11551.00
394.4670, 11534.00
395.6640, 11449.00
396.8610, 11322.00
398.0580, 11181.00
399.2540, 11071.00
400.4500, 11327.00
401.6460, 11396.00
402.8420, 11723.00
404.0380, 12103.00
405.2340, 12520.00
406.4290, 13108.00
407.6240, 13900.00
408.8190, 15035.00
410.0140, 16734.00
411.2090, 18498.00
412.4040, 20217.00
413.5980, 20670.00
414.7920, 19418.00
415.9870, 17153.00
417.1810, 15256.00
418.3740, 13713.00
419.5680, 12734.00
420.7610, 12145.00
421.9550, 11943.00
423.1480, 11934.00
424.3410, 11994.00
425.5340, 11961.00
426.7260, 11962.00
427.9190, 11847.00
429.1110, 11526.00
430.3030, 11394.00
431.4950, 11160.00
432.6870, 10895.00
433.8790, 10795.00
435.0700, 10618.00
436.2610, 10640.00
437.4530, 10609.00
438.6440, 10591.00
439.8340, 10568.00
441.0250, 10438.00
442.2160, 10629.00
443.4060, 10466.00
444.5960, 10502.00
445.7860, 10566.00
446.9760, 10501.00
448.1660, 10616.00
449.3550, 10584.00
450.5450, 10734.00
451.7340, 10732.00
452.9230, 10707.00
454.1120, 10869.00
455.3000, 10968.00
456.4890, 11016.00
457.6770, 11174.00
458.8650, 11391.00
460.0530, 11520.00
461.2410, 11537.00
462.4290, 11674.00
463.6170, 11760.00
464.8040, 11914.00
465.9910, 12005.00
467.1780, 12056.00
468.3650, 12191.00
469.5520, 12431.00
470.7390, 12791.00
471.9250, 13359.00
473.1110, 13670.00
474.2970, 14297.00
475.4830, 14915.00
476.6690, 15211.00
477.8540, 15241.00
479.0400, 15172.00
480.2250, 14737.00
481.4100, 14142.00
482.5950, 13557.00
483.7800, 12740.00
484.9650, 12307.00
486.1490, 11839.00
487.3330, 11542.00
488.5170, 11265.00
489.7010, 11242.00
490.8850, 10988.00
492.0690, 10951.00
493.2520, 10971.00
494.4350, 10862.00
495.6190, 10789.00
496.8020, 10911.00
497.9840, 10887.00
499.1670, 10782.00
500.3490, 10842.00
501.5320, 10769.00
502.7140, 10938.00
503.8960, 10818.00
505.0780, 10890.00
506.2590, 10966.00
507.4410, 11130.00
508.6220, 11103.63
509.8030, 11060.00
510.9840, 11102.00
512.1650, 11109.00
513.3460, 11129.00
514.5260, 11155.00
515.7070, 11180.00
516.8870, 11204.98
518.0670, 11227.48
519.2470, 11268.00
520.4260, 11282.00
521.6060, 11334.00
522.7850, 11387.00
523.9650, 11451.00
525.1440, 11397.00
526.3220, 11458.00
527.5010, 11515.00
528.6800, 11560.00
529.8580, 11454.00
531.0360, 11531.00
532.2140, 11549.00
533.3920, 11652.00
534.5700, 11581.00
535.7480, 11525.00
536.9250, 11618.00
538.1020, 11553.00
539.2790, 11421.00
540.4560, 11613.00
541.6330, 11542.00
542.8100, 11578.00
543.9860, 11291.00
545.1620, 11339.00
546.3380, 11202.00
547.5140, 11303.00
548.6900, 11216.00
549.8660, 11105.00
551.0410, 11113.00
552.2160, 11147.00
553.3910, 11062.00
554.5660, 11180.00
555.7410, 11039.00
556.9160, 11163.00
558.0900, 10998.00
559.2650, 11095.00
560.4390, 11181.00
561.6130, 11154.00
562.7860, 11391.00
563.9600, 11239.00
565.1340, 11230.00
566.3070, 11282.00
567.4800, 11399.00
568.6530, 11421.00
569.8260, 11446.00
570.9980, 11503.00
572.1710, 11458.00
573.3430, 11464.00
574.5150, 11496.00
575.6870, 11586.00
576.8590, 11563.74
578.0310, 11693.00
579.2030, 11543.00
580.3740, 11581.00
581.5450, 11525.00
582.7160, 11437.00
583.8870, 11531.00
585.0580, 11296.00
586.2280, 11333.00
587.3990, 11221.00
588.5690, 11389.00
589.7390, 11228.00
590.9090, 11349.00
592.0780, 11299.00
593.2480, 11398.00
594.4170, 11542.00
595.5870, 11601.00
596.7560, 11731.00
597.9250, 11962.00
599.0930, 12236.00
600.2620, 12525.00
601.4300, 12903.00
602.5990, 13278.00
603.7670, 13635.00
604.9350, 14205.00
606.1020, 14701.00
607.2700, 15140.00
608.4370, 15670.00
609.6050, 16029.00
610.7720, 16502.00
611.9390, 16791.00
613.1060, 17146.00
614.2720, 17316.00
615.4390, 17144.00
616.6050, 16825.00
617.7710, 16866.00
618.9370, 16648.00
620.1030, 16444.00
621.2680, 16519.00
622.4340, 16659.00
623.5990, 16533.00
624.7640, 16684.00
625.9290, 16707.00
627.0940, 16975.00
628.2590, 17379.10
629.4230, 17702.26
630.5880, 18251.00
631.7520, 18524.00
632.9160, 18665.00
634.0800, 18829.00
635.2440, 18774.00
636.4070, 18868.00
637.5700, 18718.00
638.7340, 18691.00
639.8970, 18827.00
641.0600, 18640.00
642.2220, 18678.00
643.3850, 18563.00
644.5470, 18174.00
645.7090, 18238.00
646.8710, 17970.00
648.0330, 17289.00
649.1950, 16770.00
650.3570, 15948.00
651.5180, 15172.00
652.6790, 14622.00
653.8400, 13940.00
655.0010, 13561.00
656.1620, 13255.00
657.3230, 12853.00
658.4830, 12518.00
659.6430, 12278.00
660.8030, 12050.00
661.9630, 11940.00
663.1230, 11824.00
664.2830, 11811.00
665.4420, 11706.00
666.6020, 11656.00
667.7610, 11585.00
668.9200, 11567.00
670.0780, 11493.43
671.2370, 11373.00
672.3960, 11390.00
673.5540, 11231.00
674.7120, 11212.00
675.8700, 11311.00
677.0280, 11115.00
678.1860, 11073.00
679.3430, 11061.00
680.5000, 10947.00
681.6580, 11031.00
682.8150, 10930.00
683.9710, 11013.00
685.1280, 10987.00
686.2850, 10892.00
687.4410, 10959.00
688.5970, 10917.00
689.7530, 10930.00
690.9090, 10954.00
692.0650, 10990.00
693.2200, 10952.00
694.3760, 10942.00
695.5310, 11057.00
696.6860, 10967.00
697.8410, 10916.00
698.9960, 10970.00
700.1500, 11099.00
701.3050, 11038.00
702.4590, 11091.00
703.6130, 11304.00
704.7670, 11155.00
705.9210, 11168.00
707.0740, 11314.00
708.2280, 11273.00
709.3810, 11342.28
710.5340, 11518.00
711.6870, 11431.00
712.8400, 11434.00
713.9930, 11517.00
715.1450, 11628.00
716.2970, 11636.00
717.4490, 11719.00
718.6010, 11732.00
719.7530, 11724.00
720.9050, 11832.00
722.0560, 11923.00
723.2080, 11937.00
724.3590, 12123.00
725.5100, 12094.00
726.6610, 12320.00
727.8110, 12270.00
728.9620, 12538.00
730.1120, 12717.00
731.2620, 12824.00
732.4120, 12927.00
733.5620, 13338.00
734.7120, 13549.00
735.8620, 13840.00
737.0110, 14063.14
738.1600, 14211.00
739.3090, 14447.00
740.4580, 14583.00
741.6070, 14789.00
742.7550, 14923.00
743.9040, 14767.00
745.0520, 14761.68
746.2000, 14530.00
747.3480, 14368.00
748.4960, 14228.00
749.6430, 13850.00
750.7910, 13525.00
751.9380, 13350.00
753.0850, 13055.00
754.2320, 12764.00
755.3790, 12750.00
756.5260, 12535.00
757.6720, 12436.00
758.8180, 12255.00
759.9650, 12127.00
761.1110, 12216.00
762.2560, 11960.00
763.4020, 11753.00
764.5470, 11901.00
765.6930, 11880.00
766.8380, 11894.00
767.9830, 11730.00
769.1280, 11758.00
770.2720, 11708.00
771.4170, 11805.00
772.5610, 11721.00
773.7060, 11680.00
774.8500, 11541.00
775.9930, 11620.00
777.1370, 11564.00
778.2810, 11788.00
779.4240, 11539.00
780.5670, 11738.00
781.7100, 11796.00
782.8530, 11789.00
783.9960, 11745.00
785.1390, 11717.00
786.2810, 11681.00
787.4230, 11750.00
788.5650, 11775.00
789.7070, 11607.00
790.8490, 11622.00
791.9910, 11741.00
793.1320, 11630.00
794.2730, 11750.00
795.4140, 11708.00
796.5550, 11672.00
797.6960, 11564.00
798.8370, 11665.00
799.9770, 11634.00
801.1180, 11704.00
802.2580, 11635.00
803.3980, 11761.00
804.5380, 11637.00
805.6770, 11657.00
806.8170, 11540.00
807.9560, 11690.00
809.0950, 11555.00
810.2340, 11665.00
811.3730, 11815.00
812.5120, 11509.00
813.6500, 11693.00
814.7890, 11668.42
815.9270, 11729.00
817.0650, 11747.00
818.2030, 11734.93
819.3400, 11608.00
820.4780, 11749.00
821.6150, 11692.00
822.7530, 11762.00
823.8900, 11663.00
825.0270, 11856.00
826.1630, 11618.00
827.3000, 11615.00
828.4360, 11881.00
829.5730, 11797.00
830.7090, 11852.00
831.8450, 11852.00
832.9800, 11944.00
834.1160, 11769.00
835.2520, 11882.00
836.3870, 11837.00
837.5220, 11710.00
838.6570, 11942.00
839.7920, 11825.00
840.9260, 11780.00
842.0610, 12145.00
843.1950, 12143.00
844.3290, 11994.00
845.4630, 11912.00
846.5970, 12004.00
847.7310, 12030.00
848.8640, 12078.00
849.9980, 12023.00
851.1310, 12067.61
852.2640, 12138.00
853.3970, 12091.00
854.5300, 12147.00
855.6620, 12155.00
856.7940, 12229.00
857.9270, 12020.00
859.0590, 11932.00
860.1910, 12043.00
861.3220, 12158.00
862.4540, 12141.00
863.5850, 12036.00
864.7170, 12076.00
865.8480, 11975.00
866.9790, 11935.00
868.1090, 12016.00
869.2400, 12048.00
870.3710, 12073.00
871.5010, 12008.00
872.6310, 11959.00
873.7610, 11936.00
874.8910, 11908.66
876.0200, 11919.00
877.1500, 11874.00
878.2790, 11927.00
879.4080, 11882.00
880.5370, 11896.00
881.6660, 11946.00
882.7950, 11839.00
883.9230, 11893.00
885.0520, 11938.00
886.1800, 11936.00
887.3080, 11814.00
888.4360, 11922.00
889.5640, 11848.00
890.6910, 11921.00
891.8180, 11853.00
892.9460, 11911.00
894.0730, 11910.00
895.2000, 11899.00
896.3260, 11992.00
897.4530, 11938.00
898.5790, 12029.00
899.7060, 11817.00
900.8320, 11967.00
901.9580, 11888.00
903.0830, 12012.00
904.2090, 12066.00
905.3340, 12042.00
906.4600, 11979.00
907.5850, 12040.00
908.7100, 12048.00
909.8350, 12135.00
910.9590, 12203.00
912.0840, 12142.00
913.2080, 12007.00
914.3320, 12095.00
915.4560, 12004.00
916.5800, 12085.00
917.7040, 12054.00
918.8270, 12059.00
919.9510, 12122.00
921.0740, 12239.00
922.1970, 12029.00
923.3200, 12019.00
924.4430, 12218.00
925.5650, 12297.00
926.6870, 12180.00
927.8100, 12137.00
928.9320, 12220.00
930.0540, 12252.00
931.1750, 12368.00
932.2970, 12274.00
933.4180, 12225.00
934.5400, 12357.00
935.6610, 12242.00
936.7820, 12245.00
937.9030, 12229.00
939.0230, 12230.00
940.1440, 12303.00
941.2640, 12332.00
942.3840, 12295.00
943.5040, 12283.00
944.6240, 12370.00
945.7440, 12412.00
946.8630, 12344.00
947.9820, 12338.00
949.1020, 12262.00
950.2210, 12438.00
951.3390, 12395.00
952.4580, 12315.00
953.5770, 12581.00
954.6950, 12530.00
955.8130, 12672.00
956.9310, 12669.16
958.0490, 12450.00
959.1670, 12610.00
960.2840, 12491.00
961.4020, 12460.00
962.5190, 12440.00
963.6360, 12660.00
964.7530, 12582.00
965.8700, 12696.00
966.9860, 12753.00
968.1030, 12654.00
969.2190, 12810.00
970.3350, 12800.00
971.4510, 12636.00
972.5670, 12958.00
973.6830, 12825.00
974.7980, 12827.00
975.9140, 13015.00
977.0290, 13016.00
978.1440, 13035.00
979.2590, 13044.00
980.3730, 13117.57
981.4880, 13254.00
982.6020, 13290.00
983.7160, 13386.00
984.8300, 13488.00
985.9440, 13586.00
987.0580, 13782.00
988.1710, 13782.00
989.2850, 13953.00
990.3980, 14104.00
991.5110, 14391.00
992.6240, 14623.00
993.7370, 14687.00
994.8490, 14743.00
995.9620, 15088.00
997.0740, 15060.00
998.1860, 15517.00
999.2980, 15712.00
1000.410, 15799.00
1001.522, 15897.00
1002.633, 15904.00
1003.744, 15977.00
1004.856, 16119.00
1005.966, 15926.00
1007.077, 15852.00
1008.188, 15924.00
1009.298, 15761.00
1010.409, 15939.00
1011.519, 16187.00
1012.629, 15894.00
1013.739, 16391.00
1014.849, 16632.00
1015.958, 16981.00
1017.068, 16984.36
1018.177, 16893.53
1019.286, 16778.00
1020.395, 16438.00
1021.503, 16179.00
1022.612, 15995.00
1023.720, 15949.00
1024.829, 15837.00
1025.937, 15531.00
1027.045, 15599.00
1028.153, 15443.00
1029.260, 15430.00
1030.368, 15459.00
1031.475, 15494.00
1032.582, 15502.00
1033.689, 15531.00
1034.796, 15628.00
1035.903, 15928.00
1037.009, 16116.00
1038.115, 16483.00
1039.222, 16693.00
1040.328, 17116.00
1041.433, 17443.00
1042.539, 18073.00
1043.645, 18495.00
1044.750, 19719.00
1045.855, 20887.00
1046.960, 22386.00
1048.065, 24029.00
1049.170, 26127.00
1050.275, 28599.00
1051.379, 31293.00
1052.483, 34507.00
1053.587, 37737.00
1054.691, 40637.00
1055.795, 42827.00
1056.899, 44301.00
1058.002, 43522.00
1059.105, 42289.00
1060.209, 39793.00
1061.312, 36656.00
1062.414, 32910.00
1063.517, 29718.00
1064.620, 26811.00
1065.722, 24435.00
1066.824, 22475.00
1067.926, 21034.00
1069.028, 19706.00
1070.130, 19097.00
1071.231, 18607.00
1072.333, 17915.00
1073.434, 17423.00
1074.535, 17052.00
1075.636, 17288.00
1076.737, 16852.00
1077.837, 17006.00
1078.938, 16917.00
1080.038, 16856.00
1081.138, 17019.00
1082.238, 17075.00
1083.338, 17087.00
1084.437, 17238.00
1085.537, 17498.00
1086.636, 17842.00
1087.735, 18232.00
1088.834, 18351.00
1089.933, 18837.00
1091.032, 19450.00
1092.130, 19756.00
1093.228, 20681.00
1094.327, 21208.00
1095.425, 22315.00
1096.523, 22935.00
1097.620, 23963.00
1098.718, 24409.00
1099.815, 24825.00
1100.912, 24569.00
1102.009, 24224.00
1103.106, 23116.00
1104.203, 22100.00
1105.300, 20901.00
1106.396, 20070.00
1107.492, 19162.00
1108.589, 18429.00
1109.685, 17912.00
1110.780, 17746.00
1111.876, 17106.00
1112.971, 16859.00
1114.067, 16909.00
1115.162, 16587.00
1116.257, 16588.00
1117.352, 16451.00
1118.446, 16424.00
1119.541, 16297.00
1120.635, 16468.00
1121.729, 16398.00
1122.823, 16529.00
1123.917, 16486.00
1125.011, 16762.00
1126.105, 16938.00
1127.198, 17079.00
1128.291, 17425.00
1129.384, 17844.00
1130.477, 18317.00
1131.570, 18654.00
1132.663, 19407.00
1133.755, 19956.00
1134.847, 20417.00
1135.940, 20462.00
1137.031, 20499.00
1138.123, 20135.00
1139.215, 19650.00
1140.306, 19000.00
1141.398, 18522.00
1142.489, 17875.00
1143.580, 17589.00
1144.671, 17066.00
1145.761, 16863.00
1146.852, 16588.00
1147.942, 16341.00
1149.033, 16405.00
1150.123, 16142.00
1151.213, 16040.00
1152.302, 16011.00
1153.392, 15903.00
1154.481, 15746.00
1155.571, 15749.00
1156.660, 15770.00
1157.749, 15549.00
1158.837, 15666.00
1159.926, 15396.00
1161.014, 15464.00
1162.103, 15743.00
1163.191, 15506.00
1164.279, 15363.00
1165.367, 15348.00
1166.454, 15286.00
1167.542, 15451.00
1168.629, 15314.00
1169.716, 15417.00
1170.803, 15392.00
1171.890, 15309.00
1172.977, 15151.00
1174.064, 15237.00
1175.150, 15127.00
1176.236, 15313.00
1177.322, 15142.00
1178.408, 14969.00
1179.494, 15048.00
1180.580, 15066.00
1181.665, 15155.00
1182.750, 15205.00
1183.835, 15176.62
1184.920, 15158.76
1186.005, 15042.00
1187.090, 15008.00
1188.174, 14966.98
1189.259, 14681.00
1190.343, 14938.00
1191.427, 14951.00
1192.511, 15023.00
1193.594, 14799.00
1194.678, 14762.00
1195.761, 14850.00
1196.844, 14738.00
1197.928, 14801.00
1199.010, 14818.00
1200.093, 14723.00
1201.176, 14897.00
1202.258, 14941.00
1203.340, 14907.00
1204.423, 15079.00
1205.504, 15148.00
1206.586, 15081.00
1207.668, 14976.00
1208.749, 15143.00
1209.831, 15174.00
1210.912, 15221.00
1211.993, 15334.00
1213.074, 15225.00
1214.154, 15116.00
1215.235, 15165.00
1216.315, 15231.00
1217.395, 15025.00
1218.475, 15171.00
1219.555, 15154.00
1220.635, 15133.00
1221.715, 15076.00
1222.794, 15080.00
1223.873, 14973.00
1224.952, 14952.00
1226.031, 14852.00
1227.110, 14940.00
1228.189, 14878.00
1229.267, 14796.00
1230.345, 14626.00
1231.424, 14752.00
1232.502, 14777.00
1233.579, 14545.00
1234.657, 14586.00
1235.735, 14702.00
1236.812, 14470.00
1237.889, 14610.00
1238.966, 14465.00
1240.043, 14597.00
1241.120, 14356.00
1242.196, 14485.00
1243.273, 14394.00
1244.349, 14512.00
1245.425, 14481.00
1246.501, 14384.00
1247.577, 14521.00
1248.652, 14379.00
1249.728, 14474.00
1250.803, 14542.00
1251.878, 14395.00
1252.953, 14429.00
1254.028, 14455.00
1255.103, 14547.00
1256.177, 14463.00
1257.251, 14461.00
1258.326, 14464.00
1259.400, 14392.00
1260.473, 14609.00
1261.547, 14539.00
1262.621, 14550.00
1263.694, 14475.00
1264.767, 14456.00
1265.840, 14518.00
1266.913, 14306.00
1267.986, 14586.00
1269.059, 14525.00
1270.131, 14552.78
1271.203, 14807.00
1272.275, 14551.00
1273.347, 14572.00
1274.419, 14422.00
1275.491, 14582.00
1276.562, 14644.00
1277.634, 14526.00
1278.705, 14485.00
1279.776, 14465.00
1280.847, 14576.00
1281.917, 14527.76
1282.988, 14729.00
1284.058, 14534.00
1285.128, 14493.00
1286.199, 14490.00
1287.268, 14606.00
1288.338, 14615.00
1289.408, 14536.00
1290.477, 14582.00
1291.546, 14677.00
1292.616, 14605.00
1293.685, 14662.00
1294.753, 14749.00
1295.822, 14592.00
1296.890, 14618.00
1297.959, 14710.00
1299.027, 14615.00
1300.095, 14682.00
1301.163, 14746.00
1302.231, 14672.00
1303.298, 14687.00
1304.365, 14632.00
1305.433, 14776.00
1306.500, 14678.00
1307.567, 14852.00
1308.633, 14821.00
1309.700, 14720.00
1310.766, 14893.00
1311.833, 14634.00
1312.899, 14821.00
1313.965, 14859.00
1315.031, 14897.05
1316.096, 14758.00
1317.162, 14995.00
1318.227, 14919.00
1319.292, 14679.00
1320.357, 14971.00
1321.422, 14934.00
1322.487, 14717.00
1323.551, 14963.00
1324.616, 14966.00
1325.680, 14929.00
1326.744, 14802.00
1327.808, 14963.00
1328.872, 14998.00
1329.935, 14881.00
1330.999, 14893.00
1332.062, 15022.00
1333.125, 14797.00
1334.188, 14974.00
1335.251, 14875.00
1336.313, 14946.00
1337.376, 14967.00
1338.438, 14907.00
1339.500, 15034.00
1340.562, 14911.00
1341.624, 14892.00
1342.686, 14741.00
1343.747, 14968.00
1344.809, 14909.00
1345.870, 14961.00
1346.931, 15086.00
1347.992, 14955.00
1349.053, 15098.00
1350.113, 14976.00
1351.174, 14956.00
1352.234, 15156.00
1353.294, 15149.00
1354.354, 15096.00
1355.414, 15112.00
1356.474, 15193.00
1357.533, 15039.00
1358.592, 15180.00
1359.652, 15253.00
1360.711, 15056.00
1361.769, 15228.00
1362.828, 15157.00
1363.887, 15245.00
1364.945, 15389.00
1366.003, 15349.16
1367.061, 15335.00
1368.119, 15321.00
1369.177, 15389.00
1370.235, 15243.00
1371.292, 15409.00
1372.349, 15421.00
1373.406, 15359.00
1374.463, 15297.00
1375.520, 15317.00
1376.577, 15234.00
1377.633, 15264.00
1378.690, 15454.00
1379.746, 15378.00
1380.802, 15436.00
1381.858, 15380.00
1382.914, 15370.00
1383.969, 15341.00
1385.025, 15455.00
1386.080, 15629.00
1387.135, 15494.00
1388.190, 15449.00
1389.245, 15389.00
1390.299, 15539.00
1391.354, 15572.00
1392.408, 15464.00
1393.462, 15364.00
1394.516, 15580.00
1395.570, 15543.00
1396.624, 15448.00
1397.677, 15387.00
1398.730, 15405.00
1399.784, 15389.83
1400.837, 15404.59
1401.890, 15462.00
1402.942, 15505.00
1403.995, 15563.00
1405.047, 15709.00
1406.099, 15608.00
1407.152, 15509.00
1408.204, 15691.00
1409.255, 15623.00
1410.307, 15416.00
1411.358, 15596.00
1412.410, 15558.00
1413.461, 15512.00
1414.512, 15617.00
1415.563, 15794.00
1416.613, 15743.00
1417.664, 15778.00
1418.714, 15532.00
1419.764, 15654.00
1420.815, 15652.00
1421.864, 15718.00
1422.914, 15614.00
1423.964, 15708.00
1425.013, 15726.00
1426.062, 15858.00
1427.112, 15810.00
1428.161, 15784.00
1429.209, 15704.00
1430.258, 15718.00
1431.306, 15786.00
1432.355, 15725.00
1433.403, 15919.00
1434.451, 15827.00
1435.499, 15871.00
1436.547, 15789.00
1437.594, 15900.00
1438.642, 15958.00
1439.689, 15864.00
1440.736, 15742.00
1441.783, 15891.00
1442.830, 16037.00
1443.876, 15905.00
1444.923, 15977.00
1445.969, 15935.00
1447.015, 15906.30
1448.061, 16082.00
1449.107, 15868.00
1450.152, 16092.00
1451.198, 16078.00
1452.243, 16081.00
1453.289, 16113.00
1454.334, 16014.00
1455.378, 16120.00
1456.423, 16156.00
1457.468, 16010.00
1458.512, 15899.00
1459.556, 16080.00
1460.600, 15943.00
1461.644, 16203.00
1462.688, 15905.00
1463.732, 15983.00
1464.775, 16221.00
1465.819, 16055.00
1466.862, 16248.00
1467.905, 16276.00
1468.948, 16176.00
1469.990, 16142.00
1471.033, 16121.00
1472.075, 16107.59
1473.117, 16048.00
1474.160, 16132.00
1475.201, 16161.00
1476.243, 16158.00
1477.285, 16138.00
1478.326, 16125.00
1479.368, 16195.00
1480.409, 16238.00
1481.450, 16177.00
1482.490, 16203.00
1483.531, 16192.00
1484.572, 16082.00
1485.612, 16261.00
1486.652, 16179.00
1487.692, 16276.00
1488.732, 16334.00
1489.772, 16193.00
1490.811, 16262.00
1491.851, 16343.00
1492.890, 16355.00
1493.929, 16230.00
1494.968, 16268.00
1496.007, 16200.00
1497.045, 16332.00
1498.084, 16140.00
1499.122, 16386.00
1500.160, 16321.00
1501.198, 16308.00
1502.236, 16359.00
1503.274, 16298.00
1504.311, 16370.00
1505.349, 16345.02
1506.386, 16286.00
1507.423, 16351.00
1508.460, 16327.00
1509.497, 16378.00
1510.533, 16410.00
1511.570, 16439.00
1512.606, 16278.00
1513.642, 16557.00
1514.678, 16555.00
1515.714, 16511.00
1516.750, 16250.00
1517.785, 16440.00
1518.820, 16428.00
1519.856, 16576.00
1520.891, 16452.00
1521.926, 16411.00
1522.960, 16428.00
1523.995, 16525.00
1525.029, 16357.00
1526.063, 16447.00
1527.098, 16578.00
1528.131, 16549.00
1529.165, 16463.00
1530.199, 16644.00
1531.232, 16472.00
1532.266, 16473.00
1533.299, 16562.00
1534.332, 16610.00
1535.365, 16737.00
1536.397, 16678.24
1537.430, 16613.00
1538.462, 16596.00
1539.495, 16741.00
1540.527, 16783.62
1541.559, 16746.00
1542.590, 16693.00
1543.622, 16726.00
1544.653, 16675.62
1545.685, 16636.00
1546.716, 16633.00
1547.747, 16771.00
1548.778, 16772.00
1549.808, 16633.00
1550.839, 16760.00
1551.869, 16947.00
1552.899, 16821.00
1553.929, 17006.00
1554.959, 16956.00
1555.989, 16843.00
1557.019, 16796.00
1558.048, 16798.00
1559.077, 16734.00
1560.106, 16674.00
1561.135, 16750.00
1562.164, 16797.00
1563.193, 16764.00
1564.221, 16719.00
1565.250, 16633.00
1566.278, 16700.64
1567.306, 16917.00
1568.334, 16828.00
1569.361, 16811.00
1570.389, 16872.00
1571.416, 16839.00
1572.443, 16788.00
1573.471, 16880.00
1574.498, 16864.00
1575.524, 16770.00
1576.551, 16782.00
1577.577, 17028.00
##END=



