##NAMES=Lazulite
##RRUFFID=R060494
##IDEAL CHEMISTRY=MgAl_2_(PO_4_)_2_(OH)_2_
##LOCALITY=Champion mine, White Mountains, Mono County, California, USA
##OWNER=RRUFF
##SOURCE=Michael Scott
##DESCRIPTION=Dark-blue coarsely crystalline mass
##STATUS=The identification of this mineral has been confirmed by X-ray diffraction and chemical analysis
##URL=rruff.info/R060494
##MEASURED CHEMISTRY=(Mg_0.67_Fe^2+^_0.33_)_Î£=1_Al_2.00_(P_1.00_O_4_)_2_(OH)_2_
##PIN_ID=M01648
##ORIENTATION=Laser parallel to b* (0 1 0). Fiducial mark perpendicular to laser is parallel to c [0 0 1]
60.30200, 531.0000
61.54400, 526.0000
62.78600, 528.0000
64.02800, 522.0000
65.26900, 533.0000
66.51100, 513.0000
67.75200, 519.0000
68.99300, 513.0000
70.23400, 518.0000
71.47500, 507.0000
72.71600, 509.0000
73.95600, 508.0000
75.19700, 503.0000
76.43700, 508.9826
77.67700, 503.5117
78.91700, 514.0000
80.15600, 501.0000
81.39600, 494.0000
82.63500, 499.0000
83.87400, 495.0000
85.11300, 518.0000
86.35200, 504.0000
87.59100, 505.0000
88.83000, 495.0000
90.06800, 517.0000
91.30600, 534.0000
92.54400, 563.0000
93.78200, 575.0000
95.02000, 597.0000
96.25700, 649.0000
97.49400, 713.0000
98.73200, 793.0000
99.96900, 824.0000
101.2060, 894.0000
102.4420, 978.0000
103.6790, 1104.000
104.9150, 1249.000
106.1510, 1399.000
107.3870, 1588.000
108.6230, 1769.000
109.8590, 2010.000
111.0940, 2165.000
112.3300, 2411.000
113.5650, 2708.000
114.8000, 3081.000
116.0350, 3280.000
117.2700, 3566.000
118.5040, 3891.000
119.7390, 4118.000
120.9730, 4362.000
122.2070, 4566.000
123.4410, 4989.000
124.6740, 5233.000
125.9080, 5482.000
127.1410, 5642.000
128.3740, 5942.000
129.6080, 6045.000
130.8400, 6133.000
132.0730, 6188.000
133.3060, 6214.000
134.5380, 6411.000
135.7700, 6510.000
137.0020, 6622.000
138.2340, 6805.000
139.4660, 7151.000
140.6980, 7351.000
141.9290, 7425.000
143.1600, 7362.000
144.3910, 7576.000
145.6220, 7429.000
146.8530, 7440.000
148.0830, 7238.000
149.3140, 7109.000
150.5440, 6997.000
151.7740, 6864.000
153.0040, 6891.000
154.2340, 6938.000
155.4630, 6946.000
156.6930, 6841.000
157.9220, 6821.000
159.1510, 6809.000
160.3800, 6814.000
161.6090, 6822.000
162.8370, 6940.000
164.0660, 7059.000
165.2940, 7161.000
166.5220, 7222.000
167.7500, 7226.000
168.9780, 7416.000
170.2050, 7548.000
171.4330, 7722.000
172.6600, 7757.000
173.8870, 8012.000
175.1140, 8062.000
176.3410, 8288.000
177.5670, 8546.000
178.7940, 8771.000
180.0200, 9068.000
181.2460, 9367.000
182.4720, 9931.000
183.6980, 10434.00
184.9230, 10951.00
186.1490, 11437.00
187.3740, 12126.12
188.5990, 12719.00
189.8240, 13549.00
191.0490, 14326.00
192.2730, 15075.00
193.4980, 15433.00
194.7220, 15702.00
195.9460, 15952.00
197.1700, 16333.00
198.3940, 16444.00
199.6180, 17082.00
200.8410, 17318.00
202.0640, 17567.00
203.2870, 17830.00
204.5100, 17670.00
205.7330, 17352.00
206.9560, 17297.00
208.1780, 16879.00
209.4000, 16401.00
210.6230, 15804.00
211.8450, 15333.00
213.0660, 14883.00
214.2880, 14394.00
215.5090, 13741.00
216.7310, 13206.00
217.9520, 12730.00
219.1730, 12211.00
220.3940, 11765.00
221.6140, 11341.00
222.8350, 10914.00
224.0550, 10596.96
225.2750, 10241.98
226.4950, 10017.00
227.7150, 9693.000
228.9350, 9432.000
230.1540, 9297.000
231.3730, 9057.000
232.5930, 8885.000
233.8120, 8754.000
235.0300, 8524.000
236.2490, 8315.000
237.4680, 8223.000
238.6860, 8185.000
239.9040, 8128.000
241.1220, 8096.277
242.3400, 8113.000
243.5580, 8096.000
244.7750, 8174.000
245.9920, 8176.655
247.2100, 8247.000
248.4270, 8256.000
249.6430, 8331.000
250.8600, 8420.000
252.0770, 8440.000
253.2930, 8502.000
254.5090, 8455.000
255.7250, 8482.000
256.9410, 8279.000
258.1570, 8219.000
259.3720, 8023.000
260.5880, 7956.000
261.8030, 7841.000
263.0180, 7815.000
264.2330, 7785.000
265.4470, 7730.000
266.6620, 7657.000
267.8760, 7581.000
269.0900, 7653.000
270.3040, 7613.000
271.5180, 7657.000
272.7320, 7726.000
273.9460, 7637.000
275.1590, 7772.000
276.3720, 7884.000
277.5850, 7866.000
278.7980, 7951.000
280.0110, 8202.000
281.2230, 8222.000
282.4360, 8112.000
283.6480, 8038.000
284.8600, 7998.000
286.0720, 7658.000
287.2840, 7544.000
288.4950, 7370.000
289.7070, 7299.000
290.9180, 7181.000
292.1290, 7109.000
293.3400, 7023.000
294.5500, 6888.000
295.7610, 7005.000
296.9710, 6978.000
298.1820, 7027.000
299.3920, 6827.000
300.6020, 6782.000
301.8110, 6820.000
303.0210, 6905.000
304.2300, 6917.000
305.4400, 6851.000
306.6490, 6916.000
307.8580, 6925.000
309.0660, 6908.000
310.2750, 6999.000
311.4830, 6988.000
312.6920, 6902.000
313.9000, 7074.000
315.1080, 7121.000
316.3160, 7095.000
317.5230, 7205.000
318.7310, 7028.000
319.9380, 7174.000
321.1450, 7153.000
322.3520, 7269.000
323.5590, 7259.000
324.7650, 7290.000
325.9720, 7258.000
327.1780, 7061.000
328.3840, 7102.000
329.5900, 7075.000
330.7960, 7120.000
332.0020, 7112.000
333.2070, 7021.000
334.4120, 7156.000
335.6170, 7061.000
336.8220, 7234.000
338.0270, 7094.000
339.2320, 7165.000
340.4360, 7214.000
341.6410, 7338.000
342.8450, 7330.000
344.0490, 7520.000
345.2530, 7625.000
346.4560, 7928.000
347.6600, 8295.000
348.8630, 8483.000
350.0660, 8670.248
351.2690, 8753.000
352.4720, 8920.000
353.6750, 9330.000
354.8770, 9502.000
356.0790, 9557.000
357.2820, 9454.000
358.4840, 9019.000
359.6860, 8556.000
360.8870, 8134.000
362.0890, 7810.000
363.2900, 7740.000
364.4910, 7599.364
365.6920, 7744.000
366.8930, 7677.000
368.0940, 7692.000
369.2940, 7858.000
370.4950, 7816.000
371.6950, 8032.000
372.8950, 8013.000
374.0950, 8150.000
375.2940, 8190.000
376.4940, 8073.000
377.6930, 8233.000
378.8930, 8170.000
380.0920, 8172.000
381.2910, 8086.000
382.4890, 8020.000
383.6880, 7937.938
384.8860, 7878.851
386.0840, 7776.000
387.2820, 7726.000
388.4800, 7746.000
389.6780, 7595.000
390.8760, 7762.000
392.0730, 7670.000
393.2700, 7621.000
394.4670, 7750.000
395.6640, 7653.000
396.8610, 7749.000
398.0580, 7946.000
399.2540, 7844.000
400.4500, 8017.000
401.6460, 8167.000
402.8420, 8379.000
404.0380, 8882.000
405.2340, 9210.000
406.4290, 9609.740
407.6240, 10237.00
408.8190, 10506.00
410.0140, 11005.00
411.2090, 11585.00
412.4040, 12118.00
413.5980, 12433.00
414.7920, 12478.00
415.9870, 11775.00
417.1810, 10555.00
418.3740, 9841.000
419.5680, 9233.000
420.7610, 8855.000
421.9550, 8898.000
423.1480, 8760.000
424.3410, 8594.000
425.5340, 8730.000
426.7260, 8783.000
427.9190, 8673.000
429.1110, 8776.000
430.3030, 8692.000
431.4950, 8749.000
432.6870, 8530.000
433.8790, 8409.000
435.0700, 8548.000
436.2610, 8564.000
437.4530, 8667.000
438.6440, 8785.000
439.8340, 8949.000
441.0250, 9102.000
442.2160, 9355.000
443.4060, 9513.000
444.5960, 9840.000
445.7860, 10176.00
446.9760, 10595.00
448.1660, 11304.00
449.3550, 11934.00
450.5450, 13125.00
451.7340, 14623.00
452.9230, 16540.00
454.1120, 19232.00
455.3000, 22559.00
456.4890, 26486.00
457.6770, 30515.00
458.8650, 33673.00
460.0530, 36655.00
461.2410, 39322.00
462.4290, 41806.00
463.6170, 43576.00
464.8040, 43421.00
465.9910, 41819.00
467.1780, 37491.00
468.3650, 32809.00
469.5520, 27824.00
470.7390, 23709.00
471.9250, 20477.00
473.1110, 18141.00
474.2970, 16392.00
475.4830, 15071.00
476.6690, 14307.00
477.8540, 13349.00
479.0400, 12696.00
480.2250, 12155.00
481.4100, 11731.00
482.5950, 11329.11
483.7800, 11040.00
484.9650, 10698.00
486.1490, 10282.00
487.3330, 9906.000
488.5170, 9693.000
489.7010, 9661.000
490.8850, 9535.000
492.0690, 9371.000
493.2520, 9338.000
494.4350, 9128.000
495.6190, 9133.000
496.8020, 9014.000
497.9840, 8896.000
499.1670, 8856.000
500.3490, 8888.000
501.5320, 8779.000
502.7140, 8739.000
503.8960, 8738.000
505.0780, 8644.000
506.2590, 8695.000
507.4410, 8709.000
508.6220, 8669.000
509.8030, 8650.000
510.9840, 8684.000
512.1650, 8679.000
513.3460, 8776.134
514.5260, 8787.000
515.7070, 8852.282
516.8870, 8789.407
518.0670, 8512.000
519.2470, 8519.000
520.4260, 8471.000
521.6060, 8465.000
522.7850, 8405.000
523.9650, 8344.000
525.1440, 8419.000
526.3220, 8353.000
527.5010, 8363.000
528.6800, 8307.000
529.8580, 8313.000
531.0360, 8333.000
532.2140, 8343.000
533.3920, 8399.000
534.5700, 8378.903
535.7480, 8307.000
536.9250, 8361.000
538.1020, 8298.000
539.2790, 8290.000
540.4560, 8322.000
541.6330, 8284.000
542.8100, 8305.000
543.9860, 8332.000
545.1620, 8322.838
546.3380, 8323.733
547.5140, 8360.000
548.6900, 8286.000
549.8660, 8339.000
551.0410, 8304.000
552.2160, 8268.000
553.3910, 8151.000
554.5660, 8275.000
555.7410, 8166.000
556.9160, 8328.000
558.0900, 8234.000
559.2650, 8191.000
560.4390, 8344.000
561.6130, 8263.000
562.7860, 8425.000
563.9600, 8240.000
565.1340, 8309.000
566.3070, 8288.000
567.4800, 8286.000
568.6530, 8279.000
569.8260, 8313.000
570.9980, 8362.000
572.1710, 8415.000
573.3430, 8428.810
574.5150, 8453.457
575.6870, 8465.000
576.8590, 8460.000
578.0310, 8486.000
579.2030, 8471.000
580.3740, 8490.066
581.5450, 8478.000
582.7160, 8538.000
583.8870, 8499.000
585.0580, 8564.000
586.2280, 8617.000
587.3990, 8413.000
588.5690, 8630.000
589.7390, 8558.000
590.9090, 8666.000
592.0780, 8641.000
593.2480, 8661.000
594.4170, 8887.000
595.5870, 8837.000
596.7560, 8754.000
597.9250, 8913.000
599.0930, 8881.000
600.2620, 8986.000
601.4300, 9148.000
602.5990, 9165.000
603.7670, 9187.000
604.9350, 9353.000
606.1020, 9412.000
607.2700, 9347.000
608.4370, 9493.000
609.6050, 9546.000
610.7720, 9608.000
611.9390, 9661.000
613.1060, 9779.000
614.2720, 9749.000
615.4390, 9808.000
616.6050, 9650.000
617.7710, 9628.000
618.9370, 9556.000
620.1030, 9585.000
621.2680, 9573.000
622.4340, 9636.000
623.5990, 9611.000
624.7640, 9761.000
625.9290, 9700.000
627.0940, 9856.000
628.2590, 9865.000
629.4230, 10115.00
630.5880, 9993.520
631.7520, 10172.29
632.9160, 10299.60
634.0800, 10378.23
635.2440, 10262.34
636.4070, 10397.58
637.5700, 10432.16
638.7340, 10462.66
639.8970, 10633.24
641.0600, 10545.60
642.2220, 10713.91
643.3850, 10486.00
644.5470, 10351.00
645.7090, 10275.00
646.8710, 10310.00
648.0330, 10215.00
649.1950, 10001.00
650.3570, 9803.000
651.5180, 9692.000
652.6790, 9529.786
653.8400, 9390.000
655.0010, 9298.000
656.1620, 9233.000
657.3230, 9140.000
658.4830, 9077.799
659.6430, 8999.000
660.8030, 8948.000
661.9630, 8863.000
663.1230, 8789.000
664.2830, 8721.000
665.4420, 8694.000
666.6020, 8682.000
667.7610, 8703.000
668.9200, 8738.000
670.0780, 8646.000
671.2370, 8646.000
672.3960, 8712.000
673.5540, 8449.000
674.7120, 8704.000
675.8700, 8537.000
677.0280, 8626.000
678.1860, 8677.000
679.3430, 8728.000
680.5000, 8747.306
681.6580, 8725.000
682.8150, 8730.000
683.9710, 8685.000
685.1280, 8624.000
686.2850, 8611.000
687.4410, 8614.000
688.5970, 8724.000
689.7530, 8702.000
690.9090, 8719.000
692.0650, 8677.000
693.2200, 8705.000
694.3760, 8728.000
695.5310, 8767.000
696.6860, 8754.000
697.8410, 8689.000
698.9960, 8751.000
700.1500, 8841.000
701.3050, 8730.000
702.4590, 8661.000
703.6130, 8762.000
704.7670, 8770.000
705.9210, 8798.000
707.0740, 8899.000
708.2280, 8878.000
709.3810, 8857.000
710.5340, 8927.000
711.6870, 8995.000
712.8400, 8882.000
713.9930, 8927.000
715.1450, 8855.000
716.2970, 8952.000
717.4490, 8839.000
718.6010, 8993.000
719.7530, 8995.000
720.9050, 8958.000
722.0560, 8908.000
723.2080, 8966.000
724.3590, 8960.000
725.5100, 8880.000
726.6610, 9019.000
727.8110, 8876.000
728.9620, 8933.133
730.1120, 8897.000
731.2620, 8972.000
732.4120, 8992.000
733.5620, 9029.000
734.7120, 8980.000
735.8620, 9077.000
737.0110, 9125.000
738.1600, 9103.000
739.3090, 9260.000
740.4580, 9206.000
741.6070, 9053.000
742.7550, 9190.000
743.9040, 9226.000
745.0520, 9168.000
746.2000, 9204.000
747.3480, 9261.000
748.4960, 9298.000
749.6430, 9205.000
750.7910, 9270.000
751.9380, 9135.000
753.0850, 9091.000
754.2320, 9072.000
755.3790, 9144.000
756.5260, 9119.000
757.6720, 9218.000
758.8180, 9164.000
759.9650, 9164.000
761.1110, 9138.000
762.2560, 9169.797
763.4020, 9181.000
764.5470, 9244.000
765.6930, 9312.000
766.8380, 9320.686
767.9830, 9207.000
769.1280, 9257.000
770.2720, 9220.000
771.4170, 9120.000
772.5610, 9209.000
773.7060, 9166.040
774.8500, 9285.000
775.9930, 9188.000
777.1370, 9255.000
778.2810, 9261.000
779.4240, 9367.000
780.5670, 9203.000
781.7100, 9407.000
782.8530, 9316.000
783.9960, 9490.000
785.1390, 9346.000
786.2810, 9285.000
787.4230, 9357.000
788.5650, 9452.000
789.7070, 9478.000
790.8490, 9479.000
791.9910, 9612.000
793.1320, 9485.000
794.2730, 9480.000
795.4140, 9616.000
796.5550, 9666.000
797.6960, 9524.000
798.8370, 9597.000
799.9770, 9655.000
801.1180, 9718.000
802.2580, 9736.268
803.3980, 9781.093
804.5380, 9801.000
805.6770, 9814.000
806.8170, 9942.000
807.9560, 9919.000
809.0950, 9925.000
810.2340, 9780.000
811.3730, 9884.000
812.5120, 9820.000
813.6500, 9745.000
814.7890, 9753.000
815.9270, 9673.000
817.0650, 9693.000
818.2030, 9785.000
819.3400, 9634.000
820.4780, 9745.000
821.6150, 9673.000
822.7530, 9638.000
823.8900, 9697.000
825.0270, 9755.000
826.1630, 9809.000
827.3000, 9894.000
828.4360, 9728.000
829.5730, 9850.000
830.7090, 9691.000
831.8450, 9782.000
832.9800, 9770.000
834.1160, 9715.000
835.2520, 9790.000
836.3870, 9834.000
837.5220, 9922.000
838.6570, 9904.000
839.7920, 9783.000
840.9260, 9968.000
842.0610, 9952.000
843.1950, 9821.000
844.3290, 9949.000
845.4630, 9933.000
846.5970, 9886.000
847.7310, 9974.000
848.8640, 10014.00
849.9980, 9940.000
851.1310, 10046.00
852.2640, 10067.00
853.3970, 10105.00
854.5300, 10025.00
855.6620, 10091.00
856.7940, 10110.00
857.9270, 10063.00
859.0590, 10204.00
860.1910, 10228.00
861.3220, 10139.00
862.4540, 10147.00
863.5850, 10203.00
864.7170, 10158.00
865.8480, 10220.00
866.9790, 10179.00
868.1090, 10135.00
869.2400, 10118.00
870.3710, 10114.00
871.5010, 10208.00
872.6310, 10066.00
873.7610, 10099.00
874.8910, 10048.00
876.0200, 10155.00
877.1500, 10108.00
878.2790, 10112.00
879.4080, 9981.000
880.5370, 10080.00
881.6660, 10014.00
882.7950, 10060.00
883.9230, 10111.00
885.0520, 10009.00
886.1800, 10102.00
887.3080, 10022.00
888.4360, 10063.00
889.5640, 10081.00
890.6910, 10199.00
891.8180, 10182.00
892.9460, 10178.00
894.0730, 10103.00
895.2000, 10233.00
896.3260, 10162.00
897.4530, 10211.00
898.5790, 10261.00
899.7060, 10246.00
900.8320, 10212.00
901.9580, 10299.00
903.0830, 10155.00
904.2090, 10264.00
905.3340, 10270.00
906.4600, 10210.00
907.5850, 10297.00
908.7100, 10224.00
909.8350, 10293.00
910.9590, 10304.00
912.0840, 10296.00
913.2080, 10363.00
914.3320, 10326.00
915.4560, 10345.37
916.5800, 10282.00
917.7040, 10341.00
918.8270, 10352.00
919.9510, 10342.00
921.0740, 10421.00
922.1970, 10390.00
923.3200, 10381.00
924.4430, 10378.00
925.5650, 10266.00
926.6870, 10264.00
927.8100, 10321.00
928.9320, 10279.00
930.0540, 10375.00
931.1750, 10398.00
932.2970, 10333.00
933.4180, 10332.00
934.5400, 10417.00
935.6610, 10314.00
936.7820, 10325.00
937.9030, 10346.00
939.0230, 10297.00
940.1440, 10405.00
941.2640, 10339.00
942.3840, 10256.00
943.5040, 10296.00
944.6240, 10225.00
945.7440, 10357.00
946.8630, 10279.00
947.9820, 10289.00
949.1020, 10354.00
950.2210, 10262.00
951.3390, 10367.00
952.4580, 10348.00
953.5770, 10318.00
954.6950, 10376.00
955.8130, 10402.00
956.9310, 10417.00
958.0490, 10393.00
959.1670, 10482.00
960.2840, 10309.00
961.4020, 10277.00
962.5190, 10334.00
963.6360, 10194.00
964.7530, 10366.00
965.8700, 10398.00
966.9860, 10427.00
968.1030, 10450.00
969.2190, 10464.00
970.3350, 10353.00
971.4510, 10498.00
972.5670, 10485.00
973.6830, 10403.00
974.7980, 10485.00
975.9140, 10490.00
977.0290, 10525.00
978.1440, 10457.00
979.2590, 10551.00
980.3730, 10488.00
981.4880, 10559.00
982.6020, 10567.00
983.7160, 10686.00
984.8300, 10701.00
985.9440, 10768.00
987.0580, 10810.00
988.1710, 10927.00
989.2850, 10906.00
990.3980, 10852.00
991.5110, 11042.00
992.6240, 10894.00
993.7370, 11131.00
994.8490, 11060.00
995.9620, 11231.00
997.0740, 11313.00
998.1860, 11401.00
999.2980, 11491.00
1000.410, 11463.00
1001.522, 11488.00
1002.633, 11467.00
1003.744, 11526.00
1004.856, 11443.00
1005.966, 11447.00
1007.077, 11239.00
1008.188, 11339.00
1009.298, 11169.00
1010.409, 11268.00
1011.519, 11063.00
1012.629, 11252.00
1013.739, 11354.00
1014.849, 11351.00
1015.958, 11422.00
1017.068, 11506.00
1018.177, 11135.00
1019.286, 11477.00
1020.395, 11266.00
1021.503, 11483.00
1022.612, 11314.00
1023.720, 11127.00
1024.829, 11258.00
1025.937, 11276.00
1027.045, 11376.00
1028.153, 11318.00
1029.260, 11426.00
1030.368, 11375.00
1031.475, 11270.00
1032.582, 11266.00
1033.689, 11300.42
1034.796, 11372.76
1035.903, 11479.00
1037.009, 11601.00
1038.115, 11771.00
1039.222, 11821.00
1040.328, 11881.00
1041.433, 12171.00
1042.539, 12058.00
1043.645, 12443.00
1044.750, 12526.00
1045.855, 13010.00
1046.960, 13191.00
1048.065, 13602.00
1049.170, 14142.00
1050.275, 14928.00
1051.379, 15400.00
1052.483, 16295.00
1053.587, 16943.00
1054.691, 17776.00
1055.795, 18323.00
1056.899, 18547.00
1058.002, 18624.00
1059.105, 18445.00
1060.209, 17821.00
1061.312, 17062.00
1062.414, 16451.00
1063.517, 15496.00
1064.620, 14756.00
1065.722, 14145.00
1066.824, 13708.00
1067.926, 13369.00
1069.028, 12994.00
1070.130, 12729.00
1071.231, 12808.00
1072.333, 12648.00
1073.434, 12504.00
1074.535, 12721.00
1075.636, 12747.00
1076.737, 13035.00
1077.837, 13139.00
1078.938, 13519.00
1080.038, 13644.00
1081.138, 14115.00
1082.238, 14037.00
1083.338, 14218.00
1084.437, 14178.00
1085.537, 14232.00
1086.636, 14002.00
1087.735, 13733.00
1088.834, 13213.00
1089.933, 13208.00
1091.032, 13119.00
1092.130, 13087.00
1093.228, 13381.00
1094.327, 13373.00
1095.425, 13449.00
1096.523, 13835.00
1097.620, 13853.00
1098.718, 13957.00
1099.815, 14006.00
1100.912, 14076.00
1102.009, 13956.00
1103.106, 13650.00
1104.203, 13613.00
1105.300, 13347.00
1106.396, 13171.00
1107.492, 12827.00
1108.589, 12694.00
1109.685, 12562.00
1110.780, 12425.00
1111.876, 12335.00
1112.971, 12180.00
1114.067, 12208.00
1115.162, 12332.00
1116.257, 12199.00
1117.352, 12232.00
1118.446, 12238.00
1119.541, 12170.00
1120.635, 12263.00
1121.729, 12145.00
1122.823, 12394.00
1123.917, 12254.00
1125.011, 12448.00
1126.105, 12317.00
1127.198, 12549.00
1128.291, 12535.00
1129.384, 12848.00
1130.477, 13030.00
1131.570, 13113.00
1132.663, 13280.00
1133.755, 13420.00
1134.847, 13589.00
1135.940, 13572.00
1137.031, 13457.00
1138.123, 13412.00
1139.215, 13289.03
1140.306, 13083.00
1141.398, 12999.00
1142.489, 12799.00
1143.580, 12587.00
1144.671, 12631.00
1145.761, 12451.00
1146.852, 12481.00
1147.942, 12398.00
1149.033, 12356.00
1150.123, 12314.00
1151.213, 12248.00
1152.302, 12262.00
1153.392, 12452.00
1154.481, 12326.00
1155.571, 12309.00
1156.660, 12514.00
1157.749, 12426.00
1158.837, 12382.00
1159.926, 12394.00
1161.014, 12438.00
1162.103, 12338.00
1163.191, 12305.00
1164.279, 12222.00
1165.367, 12235.00
1166.454, 12206.00
1167.542, 12205.00
1168.629, 12183.00
1169.716, 12125.00
1170.803, 12318.00
1171.890, 12334.00
1172.977, 12314.00
1174.064, 12355.00
1175.150, 12258.00
1176.236, 12276.00
1177.322, 12255.00
1178.408, 12243.00
1179.494, 12329.00
1180.580, 12323.82
1181.665, 12341.00
1182.750, 12386.00
1183.835, 12391.00
1184.920, 12403.00
1186.005, 12253.00
1187.090, 12320.00
1188.174, 12266.00
1189.259, 12220.00
1190.343, 12303.00
1191.427, 12186.00
1192.511, 12336.00
1193.594, 12131.00
1194.678, 12220.00
1195.761, 12250.00
1196.844, 12232.00
1197.928, 12249.00
1199.010, 12284.84
1200.093, 12288.00
1201.176, 12388.00
1202.258, 12382.00
1203.340, 12481.00
1204.423, 12452.00
1205.504, 12305.00
1206.586, 12487.00
1207.668, 12267.00
1208.749, 12431.00
1209.831, 12391.00
1210.912, 12375.00
1211.993, 12484.00
1213.074, 12377.00
1214.154, 12631.00
1215.235, 12491.00
1216.315, 12495.00
1217.395, 12611.00
1218.475, 12648.00
1219.555, 12446.00
1220.635, 12560.00
1221.715, 12517.00
1222.794, 12659.00
1223.873, 12607.00
1224.952, 12560.00
1226.031, 12652.00
1227.110, 12760.00
1228.189, 12575.00
1229.267, 12658.00
1230.345, 12630.00
1231.424, 12730.00
1232.502, 12577.00
1233.579, 12770.00
1234.657, 12784.00
1235.735, 12584.00
1236.812, 12649.00
1237.889, 12705.00
1238.966, 12508.26
1240.043, 12672.32
1241.120, 12775.34
1242.196, 12820.52
1243.273, 12637.60
1244.349, 12747.04
1245.425, 12737.96
1246.501, 12723.11
1247.577, 12870.96
1248.652, 12716.27
1249.728, 12859.61
1250.803, 12882.64
1251.878, 12959.34
1252.953, 12916.80
1254.028, 12909.83
1255.103, 13020.24
1256.177, 13064.16
1257.251, 13004.18
1258.326, 13078.63
1259.400, 12910.25
1260.473, 12953.15
1261.547, 13086.67
1262.621, 13027.87
1263.694, 13099.70
1264.767, 13120.47
1265.840, 13090.01
1266.913, 13180.00
1267.986, 13248.00
1269.059, 13242.00
1270.131, 13302.00
1271.203, 13253.00
1272.275, 13199.00
1273.347, 13111.00
1274.419, 13272.00
1275.491, 13294.00
1276.562, 13222.00
1277.634, 13134.00
1278.705, 13288.00
1279.776, 13339.00
1280.847, 13094.00
1281.917, 13290.00
1282.988, 13109.00
1284.058, 13295.00
1285.128, 13115.00
1286.199, 13258.00
1287.268, 13308.00
1288.338, 13291.00
1289.408, 13470.00
1290.477, 13328.00
1291.546, 13524.00
1292.616, 13276.00
1293.685, 13703.00
1294.753, 13588.00
1295.822, 13625.00
1296.890, 13601.00
1297.959, 13557.00
1299.027, 13616.00
1300.095, 13623.67
1301.163, 13565.00
1302.231, 13676.00
1303.298, 13643.00
1304.365, 13579.00
1305.433, 13736.00
1306.500, 13720.00
1307.567, 13818.00
1308.633, 13822.00
1309.700, 13710.00
1310.766, 13749.00
1311.833, 13775.00
1312.899, 13788.00
1313.965, 13941.00
1315.031, 13704.00
1316.096, 13867.00
1317.162, 13751.00
1318.227, 13852.00
1319.292, 13915.00
1320.357, 13819.00
1321.422, 13748.00
1322.487, 13950.00
1323.551, 13874.00
1324.616, 13812.00
1325.680, 13920.00
1326.744, 13824.66
1327.808, 13704.00
1328.872, 13765.00
1329.935, 13764.00
1330.999, 13746.00
1332.062, 13658.00
1333.125, 13677.00
1334.188, 13809.00
1335.251, 13725.00
1336.313, 13751.00
1337.376, 13712.00
1338.438, 13651.00
1339.500, 13741.00
1340.562, 13563.00
1341.624, 13814.00
1342.686, 13820.00
1343.747, 13750.00
1344.809, 13835.00
1345.870, 13795.00
1346.931, 13620.00
1347.992, 13861.00
1349.053, 13987.00
1350.113, 13949.00
1351.174, 13660.00
1352.234, 13754.00
1353.294, 13831.00
1354.354, 13791.00
1355.414, 13867.00
1356.474, 13903.00
1357.533, 13900.00
1358.592, 14010.00
1359.652, 13849.00
1360.711, 13715.00
1361.769, 14003.00
1362.828, 13857.00
1363.887, 13979.00
1364.945, 14022.00
1366.003, 13776.00
1367.061, 13797.00
1368.119, 13856.00
1369.177, 13942.00
1370.235, 13886.00
1371.292, 13918.00
1372.349, 14054.00
1373.406, 14101.00
1374.463, 14062.00
1375.520, 13976.00
1376.577, 14169.00
1377.633, 14085.00
1378.690, 14024.00
1379.746, 13876.00
1380.802, 14046.00
1381.858, 13937.00
1382.914, 13973.00
1383.969, 14075.00
1385.025, 14018.00
1386.080, 14058.00
1387.135, 14151.00
1388.190, 13951.00
1389.245, 14126.00
1390.299, 13761.00
1391.354, 14059.00
1392.408, 14004.00
1393.462, 14019.00
1394.516, 13859.00
1395.570, 13941.00
1396.624, 14111.00
1397.677, 13918.00
1398.730, 14003.00
1399.784, 14151.00
1400.837, 13960.00
1401.890, 13959.00
1402.942, 14007.00
1403.995, 14035.00
1405.047, 13978.00
1406.099, 13887.00
1407.152, 14089.00
1408.204, 14136.00
1409.255, 14072.00
1410.307, 14135.00
1411.358, 14122.00
1412.410, 14130.00
1413.461, 14125.00
1414.512, 14259.00
1415.563, 14294.00
1416.613, 14306.78
1417.664, 14077.00
1418.714, 14282.00
1419.764, 14159.00
1420.815, 14052.00
1421.864, 14088.00
1422.914, 14114.00
1423.964, 14230.00
1425.013, 14142.00
1426.062, 14198.00
1427.112, 14320.00
1428.161, 14312.00
1429.209, 14228.00
1430.258, 14276.00
1431.306, 14284.00
1432.355, 14325.00
1433.403, 14357.96
1434.451, 14428.00
1435.499, 14430.00
1436.547, 14413.00
1437.594, 14449.00
1438.642, 14691.00
1439.689, 14810.00
1440.736, 14713.00
1441.783, 14552.00
1442.830, 14834.00
1443.876, 14711.00
1444.923, 14818.00
1445.969, 14663.00
1447.015, 14710.00
1448.061, 14897.00
1449.107, 14822.00
1450.152, 14969.00
1451.198, 14904.00
1452.243, 14973.00
1453.289, 14970.00
1454.334, 14982.00
1455.378, 14971.00
1456.423, 14852.00
1457.468, 14933.00
1458.512, 14937.00
1459.556, 14774.00
1460.600, 14701.00
1461.644, 14608.00
1462.688, 14689.00
1463.732, 14688.00
1464.775, 14502.00
1465.819, 14609.00
1466.862, 14589.00
1467.905, 14566.00
1468.948, 14486.00
1469.990, 14562.00
1471.033, 14412.00
1472.075, 14479.00
1473.117, 14620.00
1474.160, 14634.00
1475.201, 14366.00
1476.243, 14589.00
1477.285, 14370.00
1478.326, 14421.78
1479.368, 14398.00
1480.409, 14423.00
1481.450, 14586.00
1482.490, 14471.00
1483.531, 14477.00
1484.572, 14325.00
1485.612, 14512.00
1486.652, 14288.00
1487.692, 14437.00
1488.732, 14454.00
1489.772, 14375.00
1490.811, 14425.00
1491.851, 14512.00
1492.890, 14521.00
1493.929, 14540.00
1494.968, 14554.00
1496.007, 14472.00
1497.045, 14428.00
1498.084, 14275.00
1499.122, 14352.00
1500.160, 14319.00
1501.198, 14410.00
1502.236, 14331.00
1503.274, 14591.00
1504.311, 14497.00
1505.349, 14420.00
1506.386, 14532.00
1507.423, 14376.00
1508.460, 14571.00
1509.497, 14561.00
1510.533, 14535.00
1511.570, 14439.00
1512.606, 14394.00
1513.642, 14502.00
1514.678, 14649.00
1515.714, 14524.00
1516.750, 14521.00
1517.785, 14776.00
1518.820, 14624.00
1519.856, 14681.00
1520.891, 14648.00
1521.926, 14797.00
1522.960, 14755.00
1523.995, 14722.00
1525.029, 14791.00
1526.063, 14787.00
1527.098, 14706.00
1528.131, 14748.00
1529.165, 14727.90
1530.199, 14784.00
1531.232, 14766.00
1532.266, 14837.00
1533.299, 14911.00
1534.332, 14765.00
1535.365, 14992.00
1536.397, 14912.00
1537.430, 14788.00
1538.462, 14816.00
1539.495, 14922.00
1540.527, 14755.00
1541.559, 14996.00
1542.590, 14744.00
1543.622, 15032.00
1544.653, 14864.00
1545.685, 14984.00
1546.716, 15044.00
1547.747, 14800.00
1548.778, 14900.00
1549.808, 14867.00
1550.839, 14964.00
1551.869, 15037.00
1552.899, 14973.00
1553.929, 15041.43
1554.959, 15096.00
1555.989, 15090.00
1557.019, 15075.00
1558.048, 15162.00
1559.077, 14933.00
1560.106, 15069.00
1561.135, 14963.00
1562.164, 14985.00
1563.193, 15202.00
1564.221, 15003.00
1565.250, 14964.00
1566.278, 15059.00
1567.306, 15059.00
1568.334, 15077.00
1569.361, 15042.00
1570.389, 15161.00
1571.416, 15062.00
1572.443, 15376.00
1573.471, 15248.00
1574.498, 15322.00
1575.524, 15169.00
1576.551, 15359.00
1577.577, 15278.00
##END=



