##NAMES=Legrandite
##RRUFFID=R040151
##IDEAL CHEMISTRY=Zn^2+^_2_As^5+^O_4_(OH)&#183;H_2_O
##LOCALITY=Mapimi, Durango, Mexico
##OWNER=RRUFF
##SOURCE=University of Arizona Mineral Museum
##DESCRIPTION=Yellow crystal fragments; same material used in McLean et al. (1971) study
##STATUS=The identification of this mineral has been confirmed by X-ray diffraction and chemical analysis
##URL=rruff.info/R040151
##MEASURED CHEMISTRY=Zn_1.88_Fe^2+^_0.04_As_1.03_O_4_(OH)Â·H_2_O
##PIN_ID=M01002
##ORIENTATION=Laser parallel to a* (1 0 0). Fiducial mark perpendicular to laser is parallel to -c [0 0 -1]
62.17000, 1256.000
63.41600, 1743.000
64.66100, 2157.000
65.90700, 2654.000
67.15200, 3013.000
68.39700, 3569.000
69.64100, 4274.000
70.88600, 5862.000
72.13000, 7547.000
73.37400, 9993.000
74.61800, 13007.00
75.86200, 15313.00
77.10600, 16055.00
78.34900, 15478.00
79.59300, 14891.00
80.83600, 14609.00
82.07900, 15108.00
83.32100, 16295.00
84.56400, 16971.00
85.80600, 16881.00
87.04800, 16193.00
88.29000, 15382.00
89.53200, 14733.00
90.77400, 14097.00
92.01500, 13766.00
93.25700, 13551.00
94.49800, 13635.00
95.73900, 13873.00
96.98000, 14527.00
98.22000, 14376.00
99.46100, 14352.00
100.7010, 14385.00
101.9410, 13956.00
103.1810, 13609.00
104.4210, 13328.00
105.6600, 13088.00
106.9000, 12860.00
108.1390, 12296.00
109.3780, 11699.00
110.6170, 11294.00
111.8550, 10850.00
113.0940, 10524.00
114.3320, 10312.00
115.5700, 10387.00
116.8080, 10450.00
118.0460, 10782.00
119.2830, 10946.00
120.5210, 11083.00
121.7580, 10970.00
122.9950, 10497.00
124.2320, 10077.00
125.4690, 9495.000
126.7050, 9171.000
127.9410, 8749.000
129.1780, 8593.000
130.4140, 8498.000
131.6490, 8469.000
132.8850, 8638.000
134.1200, 9033.000
135.3560, 9396.000
136.5910, 9796.000
137.8260, 10176.00
139.0610, 10638.00
140.2950, 11000.00
141.5290, 11258.00
142.7640, 11251.00
143.9980, 11560.00
145.2320, 11504.00
146.4650, 11519.00
147.6990, 11461.00
148.9320, 11635.00
150.1650, 11999.00
151.3980, 12470.00
152.6310, 13407.00
153.8640, 14170.00
155.0960, 15255.00
156.3280, 16497.00
157.5600, 18351.00
158.7920, 20103.00
160.0240, 22616.00
161.2560, 24885.00
162.4870, 26650.00
163.7180, 26754.00
164.9490, 26407.00
166.1800, 24759.00
167.4110, 22634.00
168.6410, 20434.00
169.8720, 18573.00
171.1020, 17116.00
172.3320, 16026.00
173.5620, 15237.00
174.7910, 14618.00
176.0210, 14009.00
177.2500, 13969.00
178.4790, 13753.00
179.7080, 14167.00
180.9370, 14473.00
182.1650, 15039.00
183.3940, 15264.00
184.6220, 15250.00
185.8500, 15572.00
187.0780, 16047.00
188.3050, 16256.00
189.5330, 16705.00
190.7600, 17127.00
191.9870, 17647.00
193.2140, 17613.00
194.4410, 18030.00
195.6680, 17976.00
196.8940, 17671.00
198.1200, 17280.00
199.3470, 16806.00
200.5720, 16023.00
201.7980, 15505.00
203.0240, 14804.00
204.2490, 14316.00
205.4740, 14198.00
206.6990, 13726.00
207.9240, 13982.00
209.1490, 13738.00
210.3740, 14085.00
211.5980, 14176.00
212.8220, 14519.00
214.0460, 14622.00
215.2700, 14627.00
216.4930, 14518.00
217.7170, 14464.00
218.9400, 14627.00
220.1630, 14585.00
221.3860, 14921.00
222.6090, 15251.00
223.8320, 15679.00
225.0540, 16218.00
226.2760, 16723.00
227.4980, 17212.00
228.7200, 17345.00
229.9420, 17300.00
231.1630, 17146.00
232.3850, 16773.00
233.6060, 16509.00
234.8270, 16141.00
236.0480, 16124.00
237.2690, 16263.00
238.4890, 16610.00
239.7090, 16998.00
240.9290, 17079.00
242.1490, 17470.00
243.3690, 17297.00
244.5890, 17238.00
245.8080, 16882.00
247.0270, 16462.00
248.2470, 16105.00
249.4650, 15908.17
250.6840, 15745.79
251.9030, 15681.00
253.1210, 15734.00
254.3390, 15866.00
255.5570, 16097.00
256.7750, 16573.00
257.9930, 17087.00
259.2100, 17258.00
260.4280, 17971.00
261.6450, 18803.00
262.8620, 19526.00
264.0790, 20510.00
265.2950, 21756.00
266.5120, 23186.00
267.7280, 24680.00
268.9440, 25761.00
270.1600, 26752.00
271.3760, 27478.00
272.5920, 27807.00
273.8070, 27201.00
275.0220, 26544.00
276.2370, 25348.00
277.4520, 23857.00
278.6670, 22626.00
279.8820, 21408.00
281.0960, 20227.66
282.3100, 19251.86
283.5240, 18185.00
284.7380, 17560.00
285.9520, 16839.00
287.1650, 16357.00
288.3780, 15468.00
289.5920, 15069.00
290.8050, 14555.00
292.0170, 14078.00
293.2300, 13371.00
294.4430, 13119.00
295.6550, 12594.00
296.8670, 12493.00
298.0790, 12162.00
299.2910, 11935.00
300.5020, 11884.00
301.7140, 11728.00
302.9250, 11686.00
304.1360, 11601.00
305.3470, 11508.00
306.5580, 11333.00
307.7680, 11317.00
308.9780, 11347.00
310.1890, 11352.00
311.3990, 11408.61
312.6090, 11523.00
313.8180, 11530.00
315.0280, 11552.00
316.2370, 11586.00
317.4460, 11594.55
318.6550, 11465.00
319.8640, 11581.00
321.0730, 11521.00
322.2810, 11409.00
323.4890, 11504.00
324.6980, 11566.00
325.9060, 11386.00
327.1130, 11445.00
328.3210, 11543.00
329.5280, 11446.00
330.7360, 11617.00
331.9430, 11580.00
333.1500, 11559.00
334.3560, 11579.00
335.5630, 11510.00
336.7690, 11773.00
337.9760, 11744.00
339.1820, 12058.00
340.3870, 12396.00
341.5930, 12570.00
342.7990, 12963.00
344.0040, 13449.00
345.2090, 13895.00
346.4140, 14588.00
347.6190, 15317.00
348.8240, 15943.00
350.0280, 16644.00
351.2330, 17539.00
352.4370, 18282.00
353.6410, 18743.00
354.8440, 19320.00
356.0480, 19438.00
357.2520, 19542.00
358.4550, 19291.00
359.6580, 18933.00
360.8610, 18041.00
362.0640, 17536.00
363.2660, 16546.00
364.4690, 15916.00
365.6710, 15233.00
366.8730, 14493.00
368.0750, 13934.00
369.2770, 13602.00
370.4780, 13415.00
371.6800, 13249.00
372.8810, 13212.00
374.0820, 13330.21
375.2830, 13514.82
376.4830, 13876.00
377.6840, 14241.00
378.8840, 14801.00
380.0840, 15399.00
381.2840, 15919.00
382.4840, 16768.00
383.6840, 17518.00
384.8830, 18157.00
386.0830, 18793.00
387.2820, 19341.00
388.4810, 20019.00
389.6800, 20055.00
390.8780, 20382.00
392.0770, 20637.00
393.2750, 20174.00
394.4730, 19721.00
395.6710, 19226.00
396.8690, 18508.00
398.0660, 17791.00
399.2640, 16960.00
400.4610, 16092.00
401.6580, 15705.00
402.8550, 15061.00
404.0520, 14585.00
405.2490, 14406.00
406.4450, 13776.00
407.6410, 13942.00
408.8370, 13723.00
410.0330, 13714.00
411.2290, 13529.00
412.4240, 13840.00
413.6200, 14070.00
414.8150, 14345.00
416.0100, 14766.00
417.2050, 15140.00
418.4000, 15558.00
419.5940, 15928.00
420.7880, 16450.00
421.9830, 16953.00
423.1770, 17713.00
424.3700, 18096.00
425.5640, 18608.00
426.7580, 19003.00
427.9510, 19480.00
429.1440, 19713.00
430.3370, 19946.00
431.5300, 20162.00
432.7220, 19969.00
433.9150, 19851.00
435.1070, 19288.00
436.2990, 18931.00
437.4910, 18463.00
438.6830, 17685.00
439.8750, 17292.00
441.0660, 16973.00
442.2570, 16455.00
443.4480, 16099.00
444.6390, 15953.00
445.8300, 15833.00
447.0210, 15775.00
448.2110, 15915.00
449.4010, 15900.00
450.5910, 16281.00
451.7810, 16509.00
452.9710, 16671.00
454.1610, 16999.00
455.3500, 17178.00
456.5390, 17484.00
457.7280, 17636.00
458.9170, 17689.00
460.1060, 17661.00
461.2940, 17923.00
462.4830, 17963.00
463.6710, 17645.00
464.8590, 17848.00
466.0470, 17819.00
467.2350, 17557.00
468.4220, 17331.00
469.6090, 17080.00
470.7970, 16763.00
471.9840, 16279.00
473.1700, 15674.00
474.3570, 15200.00
475.5440, 14541.00
476.7300, 14141.00
477.9160, 13653.18
479.1020, 13300.00
480.2880, 12832.00
481.4740, 12554.00
482.6590, 12248.00
483.8440, 12132.00
485.0300, 11991.00
486.2140, 11993.00
487.3990, 11739.00
488.5840, 11641.00
489.7680, 11682.00
490.9530, 11630.00
492.1370, 11613.00
493.3210, 11613.00
494.5040, 11713.00
495.6880, 11762.00
496.8720, 11896.00
498.0550, 12002.00
499.2380, 12320.00
500.4210, 12283.00
501.6040, 12676.00
502.7860, 12751.00
503.9690, 12874.00
505.1510, 13074.00
506.3330, 13105.00
507.5150, 13076.00
508.6970, 12637.00
509.8780, 12631.00
511.0600, 12260.00
512.2410, 12184.00
513.4220, 11794.00
514.6030, 11694.00
515.7840, 11346.00
516.9640, 11290.00
518.1440, 11247.00
519.3250, 11165.00
520.5050, 11210.00
521.6850, 10934.00
522.8640, 10956.00
524.0440, 11001.00
525.2230, 10779.00
526.4020, 10766.00
527.5820, 10949.00
528.7600, 10882.00
529.9390, 10788.00
531.1180, 10925.00
532.2960, 10980.00
533.4740, 10945.00
534.6520, 11044.00
535.8300, 10932.00
537.0080, 10891.00
538.1850, 10921.00
539.3630, 10790.00
540.5400, 10777.00
541.7170, 10730.00
542.8940, 10644.32
544.0700, 10542.00
545.2470, 10507.00
546.4230, 10450.00
547.5990, 10380.00
548.7750, 10306.00
549.9510, 10314.00
551.1270, 10310.00
552.3020, 10274.00
553.4780, 10262.22
554.6530, 10235.81
555.8280, 10207.00
557.0030, 10199.60
558.1770, 10178.00
559.3520, 10198.00
560.5260, 10196.76
561.7000, 10176.71
562.8740, 10215.00
564.0480, 10155.00
565.2220, 10145.69
566.3950, 10171.00
567.5680, 10082.00
568.7420, 10058.00
569.9150, 9969.000
571.0870, 10156.00
572.2600, 10097.00
573.4320, 10054.00
574.6050, 10083.00
575.7770, 10029.00
576.9490, 10053.00
578.1210, 9923.000
579.2920, 9986.000
580.4640, 9908.000
581.6350, 10062.00
582.8060, 9924.000
583.9770, 9991.000
585.1480, 9845.000
586.3190, 9841.000
587.4890, 9891.000
588.6590, 10068.00
589.8290, 9952.000
590.9990, 9947.000
592.1690, 9868.000
593.3390, 9968.000
594.5080, 9926.000
595.6770, 9928.000
596.8470, 9860.000
598.0160, 9745.000
599.1840, 9834.000
600.3530, 9976.000
601.5210, 9905.000
602.6900, 9911.000
603.8580, 9767.000
605.0260, 9757.000
606.1930, 9875.000
607.3610, 9705.000
608.5280, 9740.000
609.6960, 9892.000
610.8630, 9909.000
612.0300, 9762.000
613.1970, 9757.000
614.3630, 9715.000
615.5300, 9868.000
616.6960, 9838.000
617.8620, 9932.000
619.0280, 9824.000
620.1940, 9835.000
621.3590, 9936.000
622.5250, 10090.00
623.6900, 9913.000
624.8550, 10149.00
626.0200, 9995.000
627.1850, 10116.00
628.3490, 10329.00
629.5140, 10084.00
630.6780, 10141.00
631.8420, 10118.00
633.0060, 10075.00
634.1700, 10201.00
635.3330, 10175.00
636.4970, 10144.00
637.6600, 10156.00
638.8230, 10385.00
639.9860, 10256.00
641.1490, 10505.00
642.3110, 10536.00
643.4740, 10545.00
644.6360, 10757.00
645.7980, 10731.00
646.9600, 10904.00
648.1220, 11074.00
649.2840, 11057.00
650.4450, 11147.00
651.6060, 11349.00
652.7670, 11464.00
653.9280, 11618.00
655.0890, 11758.00
656.2500, 11815.00
657.4100, 11886.00
658.5700, 11923.00
659.7300, 11813.00
660.8900, 11851.00
662.0500, 11591.00
663.2100, 11402.00
664.3690, 11396.00
665.5280, 11328.00
666.6880, 11119.00
667.8460, 11173.00
669.0050, 11162.00
670.1640, 10995.00
671.3220, 11040.00
672.4810, 10888.00
673.6390, 10895.00
674.7970, 10765.00
675.9540, 10912.00
677.1120, 10904.00
678.2690, 10817.00
679.4270, 10968.00
680.5840, 10872.00
681.7410, 10805.00
682.8980, 10944.00
684.0540, 10834.00
685.2110, 10847.00
686.3670, 11000.00
687.5230, 10955.00
688.6790, 11064.00
689.8350, 10942.00
690.9900, 11083.00
692.1460, 11052.00
693.3010, 11166.00
694.4560, 11021.00
695.6110, 11314.00
696.7660, 11159.00
697.9210, 11368.00
699.0750, 11279.00
700.2290, 11251.00
701.3840, 11291.00
702.5370, 11232.00
703.6910, 11443.00
704.8450, 11400.00
705.9980, 11526.00
707.1520, 11436.00
708.3050, 11449.00
709.4580, 11448.00
710.6110, 11404.00
711.7630, 11605.00
712.9160, 11573.00
714.0680, 11683.00
715.2200, 11542.00
716.3720, 11641.00
717.5240, 11576.00
718.6760, 11565.00
719.8270, 11629.00
720.9780, 11479.00
722.1300, 11766.00
723.2810, 11563.00
724.4310, 11757.00
725.5820, 11690.00
726.7330, 11756.00
727.8830, 11809.00
729.0330, 11797.82
730.1830, 11852.66
731.3330, 11851.00
732.4830, 11930.00
733.6320, 11996.00
734.7810, 12088.00
735.9310, 12059.00
737.0800, 12205.00
738.2290, 12117.00
739.3770, 12310.00
740.5260, 12301.00
741.6740, 12377.00
742.8220, 12496.00
743.9700, 12500.00
745.1180, 12614.00
746.2660, 12486.00
747.4130, 12679.00
748.5610, 12891.00
749.7080, 12800.00
750.8550, 12835.00
752.0020, 12897.00
753.1490, 13001.00
754.2950, 13002.00
755.4420, 13092.00
756.5880, 13213.00
757.7340, 13240.00
758.8800, 13250.00
760.0250, 13574.00
761.1710, 13415.00
762.3160, 13721.00
763.4620, 13949.00
764.6070, 13954.00
765.7520, 13998.00
766.8960, 14240.00
768.0410, 14195.00
769.1850, 14422.00
770.3300, 14673.00
771.4740, 14725.00
772.6180, 15092.00
773.7610, 15544.00
774.9050, 15829.00
776.0480, 16049.00
777.1920, 16431.00
778.3350, 16762.00
779.4780, 17325.00
780.6200, 17731.00
781.7630, 18072.00
782.9060, 18405.70
784.0480, 18622.03
785.1900, 18826.00
786.3320, 18964.00
787.4740, 19117.19
788.6150, 19139.00
789.7570, 19334.00
790.8980, 19425.00
792.0390, 19489.00
793.1800, 19613.00
794.3210, 19577.00
795.4620, 19487.00
796.6020, 19599.00
797.7420, 19595.00
798.8830, 19356.00
800.0230, 19451.00
801.1620, 19604.00
802.3020, 19472.00
803.4420, 19802.00
804.5810, 19830.00
805.7200, 20060.00
806.8590, 20364.00
807.9980, 20718.00
809.1370, 20866.00
810.2750, 21383.00
811.4140, 21691.00
812.5520, 22302.00
813.6900, 22673.00
814.8280, 23233.00
815.9650, 23976.00
817.1030, 24708.00
818.2400, 25620.00
819.3780, 26978.00
820.5150, 27999.00
821.6520, 29064.00
822.7880, 29908.00
823.9250, 30840.00
825.0610, 31500.00
826.1980, 32032.00
827.3340, 32550.00
828.4700, 33110.94
829.6050, 33183.00
830.7410, 34161.00
831.8760, 34839.00
833.0120, 35413.00
834.1470, 36524.00
835.2820, 37922.00
836.4160, 39634.00
837.5510, 41221.00
838.6860, 42741.00
839.8200, 44813.00
840.9540, 46516.00
842.0880, 48897.00
843.2220, 50981.00
844.3550, 53476.00
845.4890, 56932.00
846.6220, 60729.00
847.7550, 64942.00
848.8880, 70777.00
850.0210, 77738.00
851.1540, 86367.00
852.2860, 97237.00
853.4190, 110666.0
854.5510, 126105.0
855.6830, 144342.0
856.8150, 163581.0
857.9460, 182673.0
859.0780, 199288.0
860.2090, 207870.0
861.3410, 207734.0
862.4720, 196645.0
863.6020, 179371.0
864.7330, 157592.0
865.8640, 134986.0
866.9940, 115717.0
868.1240, 99674.00
869.2540, 87877.00
870.3840, 78442.00
871.5140, 71515.00
872.6440, 66455.00
873.7730, 62732.00
874.9020, 59641.00
876.0320, 57255.00
877.1600, 55205.00
878.2890, 52811.00
879.4180, 50621.00
880.5460, 48727.00
881.6750, 46426.00
882.8030, 44570.00
883.9310, 42975.00
885.0590, 42110.00
886.1860, 41444.00
887.3140, 41642.00
888.4410, 42391.00
889.5680, 44329.00
890.6950, 46763.00
891.8220, 49975.00
892.9490, 55137.00
894.0750, 61389.00
895.2020, 69106.00
896.3280, 78443.00
897.4540, 88694.00
898.5800, 99518.00
899.7050, 109728.0
900.8310, 118203.0
901.9560, 121318.0
903.0820, 120741.0
904.2070, 115229.0
905.3320, 106675.0
906.4560, 95434.00
907.5810, 84136.00
908.7050, 74493.00
909.8300, 65435.00
910.9540, 58818.00
912.0780, 52620.00
913.2010, 47797.00
914.3250, 43682.00
915.4480, 40555.00
916.5720, 38533.00
917.6950, 36085.00
918.8180, 34617.00
919.9410, 32978.00
921.0630, 32073.00
922.1860, 31267.00
923.3080, 30683.00
924.4300, 30154.00
925.5520, 29373.00
926.6740, 29008.00
927.7960, 28411.00
928.9170, 27736.00
930.0390, 26819.00
931.1600, 26111.00
932.2810, 25258.00
933.4020, 24494.00
934.5230, 23898.00
935.6430, 22948.00
936.7640, 22370.00
937.8840, 21765.00
939.0040, 21190.00
940.1240, 20668.00
941.2440, 20134.00
942.3630, 19692.23
943.4830, 19166.00
944.6020, 18837.00
945.7210, 18338.00
946.8400, 17864.00
947.9590, 17577.47
949.0770, 17253.00
950.1960, 17002.00
951.3140, 16707.00
952.4320, 16503.00
953.5500, 16317.00
954.6680, 16026.00
955.7860, 15791.00
956.9030, 15570.00
958.0210, 15453.00
959.1380, 15264.00
960.2550, 15223.00
961.3720, 15179.00
962.4890, 15000.00
963.6050, 14950.00
964.7220, 14748.00
965.8380, 14709.00
966.9540, 14500.00
968.0700, 14591.00
969.1860, 14565.00
970.3010, 14419.00
971.4170, 14247.00
972.5320, 14295.00
973.6470, 14230.00
974.7620, 14047.00
975.8770, 14048.00
976.9910, 14022.00
978.1060, 13888.00
979.2200, 13861.00
980.3340, 13920.00
981.4480, 13959.00
982.5620, 13909.00
983.6760, 13693.00
984.7890, 13864.00
985.9030, 13577.00
987.0160, 13654.00
988.1290, 13524.00
989.2420, 13460.00
990.3550, 13547.00
991.4670, 13450.00
992.5800, 13346.00
993.6920, 13326.00
994.8040, 13341.00
995.9160, 13366.00
997.0280, 13403.00
998.1390, 13269.00
999.2510, 13231.00
1000.362, 13265.00
1001.473, 13259.00
1002.584, 13241.28
1003.695, 13248.27
1004.805, 13198.00
1005.916, 13228.00
1007.026, 13182.00
1008.136, 13164.00
1009.246, 13045.00
1010.356, 13161.00
1011.466, 13131.00
1012.576, 13134.00
1013.685, 13208.00
1014.794, 13146.00
1015.903, 13097.00
1017.012, 13181.00
1018.121, 13044.00
1019.229, 13259.00
1020.338, 13454.00
1021.446, 13514.00
1022.554, 13501.00
1023.662, 13689.00
1024.770, 13542.00
1025.878, 13644.00
1026.985, 13842.00
1028.092, 13770.00
1029.200, 13919.00
1030.307, 13887.00
1031.413, 13855.00
1032.520, 13740.00
1033.627, 13695.00
1034.733, 13606.00
1035.839, 13639.00
1036.945, 13363.00
1038.051, 13501.00
1039.157, 13225.00
1040.262, 13211.00
1041.368, 13172.00
1042.473, 13052.00
1043.578, 13051.00
1044.683, 12885.00
1045.788, 12917.00
1046.893, 12927.00
1047.997, 12792.00
1049.101, 12845.00
1050.205, 12861.00
1051.309, 12779.00
1052.413, 12729.00
1053.517, 12710.00
1054.621, 12694.00
1055.724, 12768.00
1056.827, 12726.00
1057.930, 12724.00
1059.033, 12620.00
1060.136, 12518.00
1061.238, 12686.00
1062.341, 12674.00
1063.443, 12533.00
1064.545, 12787.00
1065.647, 12735.00
1066.749, 12565.00
1067.850, 12597.00
1068.952, 12623.00
1070.053, 12557.00
1071.154, 12616.49
1072.255, 12606.79
1073.356, 12677.00
1074.457, 12643.00
1075.557, 12679.00
1076.658, 12720.00
1077.758, 12772.00
1078.858, 12751.68
1079.958, 12778.00
1081.057, 12733.00
1082.157, 12683.00
1083.256, 12727.00
1084.356, 12762.00
1085.455, 12705.00
1086.554, 12801.00
1087.653, 12701.00
1088.751, 12641.00
1089.850, 12564.00
1090.948, 12539.37
1092.046, 12839.00
1093.144, 12521.00
1094.242, 12631.00
1095.340, 12649.00
1096.437, 12478.00
1097.534, 12680.00
1098.632, 12588.00
1099.729, 12662.00
1100.826, 12657.00
1101.922, 12556.00
1103.019, 12649.00
1104.115, 12620.00
1105.212, 12601.00
1106.308, 12629.00
1107.404, 12696.00
1108.499, 12674.00
1109.595, 12474.00
1110.691, 12646.00
1111.786, 12549.00
1112.881, 12672.00
1113.976, 12698.00
1115.071, 12673.00
1116.166, 12656.00
1117.260, 12495.00
1118.355, 12554.37
1119.449, 12635.00
1120.543, 12610.00
1121.637, 12746.00
1122.731, 12824.00
1123.824, 12635.00
1124.918, 12702.00
1126.011, 12751.00
1127.104, 12549.00
1128.197, 12657.00
1129.290, 12571.00
1130.382, 12618.00
1131.475, 12661.68
1132.567, 12853.00
1133.659, 12703.00
1134.751, 12725.00
1135.843, 12641.00
1136.935, 12751.00
1138.027, 12690.00
1139.118, 12924.00
1140.209, 12629.00
1141.300, 12699.00
1142.391, 12609.00
1143.482, 12823.00
1144.573, 12918.00
1145.663, 12628.00
1146.754, 12763.00
1147.844, 12756.00
1148.934, 12823.00
1150.024, 12821.00
1151.113, 12816.35
1152.203, 12918.00
1153.292, 12802.00
1154.381, 12781.00
1155.470, 12805.00
1156.559, 12798.00
1157.648, 12812.00
1158.737, 12894.00
1159.825, 12806.00
1160.913, 12787.00
1162.001, 12901.00
1163.089, 12763.00
1164.177, 12852.00
1165.265, 12972.00
1166.352, 12755.00
1167.440, 12881.00
1168.527, 12989.00
1169.614, 12858.00
1170.701, 12995.00
1171.788, 12902.00
1172.874, 12905.00
1173.961, 12901.00
1175.047, 12904.00
1176.133, 13126.00
1177.219, 12914.00
1178.305, 13030.00
1179.390, 13090.00
1180.476, 13013.00
1181.561, 13139.00
1182.646, 12878.00
1183.731, 12902.00
1184.816, 13124.00
1185.901, 12994.00
1186.985, 13082.00
1188.070, 12960.00
1189.154, 12902.00
1190.238, 13140.00
1191.322, 12929.00
1192.406, 13112.00
1193.489, 13103.00
1194.573, 13089.00
1195.656, 13106.00
1196.739, 13219.00
1197.822, 13104.00
1198.905, 13173.00
1199.988, 13111.00
1201.070, 13238.00
1202.153, 13040.00
1203.235, 13041.00
1204.317, 13098.00
1205.399, 13242.00
1206.481, 12969.00
1207.562, 13203.00
1208.644, 12982.00
1209.725, 13109.00
1210.806, 13324.00
1211.887, 13064.00
1212.968, 13366.00
1214.049, 13285.00
1215.129, 13188.00
1216.209, 13181.00
1217.290, 13199.00
1218.370, 13216.62
1219.450, 13242.00
1220.529, 13263.03
1221.609, 13284.00
1222.688, 13292.00
1223.768, 13319.00
1224.847, 13292.06
1225.926, 13328.00
1227.005, 13280.00
1228.083, 13219.00
1229.162, 13224.16
1230.240, 13267.00
1231.318, 13309.00
1232.396, 13298.00
1233.474, 13328.97
1234.552, 13334.46
1235.629, 13338.00
1236.707, 13355.00
1237.784, 13338.00
1238.861, 13367.00
1239.938, 13429.00
1241.015, 13510.00
1242.092, 13514.00
1243.168, 13493.00
1244.244, 13456.00
1245.321, 13454.00
1246.397, 13366.00
1247.473, 13568.00
1248.548, 13621.00
1249.624, 13538.00
1250.699, 13548.00
1251.775, 13421.00
1252.850, 13457.00
1253.925, 13510.00
1254.999, 13610.00
1256.074, 13531.00
1257.148, 13483.00
1258.223, 13451.00
1259.297, 13448.00
1260.371, 13559.00
1261.445, 13474.00
1262.519, 13626.00
1263.592, 13611.00
1264.666, 13593.00
1265.739, 13675.00
1266.812, 13627.11
1267.885, 13747.00
1268.958, 13613.00
1270.030, 13623.00
1271.103, 13655.00
1272.175, 13751.00
1273.247, 13670.00
1274.319, 13686.00
1275.391, 13773.00
1276.463, 13849.00
1277.535, 13777.00
1278.606, 13800.00
1279.677, 13771.00
1280.748, 13748.00
1281.819, 13719.00
1282.890, 13745.00
1283.961, 13734.00
1285.031, 13758.00
1286.102, 13929.00
1287.172, 13824.00
1288.242, 13880.00
1289.312, 13819.00
1290.381, 13840.00
1291.451, 14019.00
1292.520, 13902.00
1293.590, 13921.00
1294.659, 13763.00
1295.728, 13876.00
1296.797, 13995.00
1297.865, 13946.00
1298.934, 14088.00
1300.002, 13950.00
1301.070, 13938.00
1302.138, 13955.00
1303.206, 13931.00
1304.274, 13999.00
1305.341, 13933.00
1306.409, 13994.00
1307.476, 14005.00
1308.543, 13969.00
1309.610, 14018.00
1310.677, 14163.00
1311.744, 14179.00
1312.810, 14177.00
1313.877, 14087.00
1314.943, 14115.68
1316.009, 14125.00
1317.075, 14081.00
1318.140, 14145.00
1319.206, 14085.00
1320.272, 14193.00
1321.337, 14254.00
1322.402, 14132.00
1323.467, 14154.00
1324.532, 14129.00
1325.596, 14101.00
1326.661, 14013.00
1327.725, 14209.00
1328.790, 14028.00
1329.854, 13971.00
1330.918, 14262.00
1331.981, 14217.00
1333.045, 14056.00
1334.108, 14163.00
1335.172, 14157.00
1336.235, 14298.00
1337.298, 14228.00
1338.361, 14492.00
1339.423, 14331.00
1340.486, 14035.00
1341.548, 14282.00
1342.611, 14272.00
1343.673, 14131.00
1344.735, 14235.00
1345.796, 14253.00
1346.858, 14279.00
1347.919, 14217.00
1348.981, 14329.00
1350.042, 14388.00
1351.103, 14269.00
1352.164, 14370.99
1353.225, 14358.00
1354.285, 14432.00
1355.346, 14435.00
1356.406, 14492.00
1357.466, 14385.00
1358.526, 14297.00
1359.586, 14494.00
1360.645, 14342.00
1361.705, 14514.00
1362.764, 14431.00
1363.823, 14496.00
1364.882, 14334.00
1365.941, 14324.00
1367.000, 14452.00
1368.059, 14483.00
1369.117, 14470.61
1370.175, 14488.00
1371.233, 14496.86
1372.291, 14496.00
1373.349, 14510.00
1374.407, 14530.00
1375.464, 14531.00
1376.522, 14528.00
1377.579, 14674.00
1378.636, 14594.00
1379.693, 14397.00
1380.750, 14528.00
1381.806, 14575.00
1382.863, 14528.00
1383.919, 14668.00
1384.975, 14617.00
1386.031, 14595.00
1387.087, 14526.00
1388.143, 14546.98
1389.199, 14480.59
1390.254, 14560.00
1391.309, 14646.00
1392.364, 14606.00
1393.419, 14696.22
1394.474, 14778.00
1395.529, 14732.00
1396.583, 14706.00
1397.638, 14596.00
1398.692, 14537.00
1399.746, 14561.00
1400.800, 14700.00
1401.853, 14687.00
1402.907, 14621.00
1403.960, 14731.00
1405.014, 14690.00
1406.067, 14602.00
1407.120, 14669.00
1408.173, 14647.00
1409.225, 14785.00
1410.278, 14608.00
1411.330, 14684.00
1412.383, 14677.00
1413.435, 14656.00
1414.487, 14746.00
1415.538, 14843.00
1416.590, 14768.00
1417.641, 14663.00
1418.693, 14654.00
1419.744, 14791.00
1420.795, 14707.00
1421.846, 14823.00
1422.897, 15002.00
1423.947, 14912.00
1424.998, 14816.00
1426.048, 14748.00
1427.098, 14803.00
1428.148, 14875.00
1429.198, 14754.00
1430.247, 14716.00
1431.297, 14908.00
1432.346, 14773.00
1433.396, 14938.00
1434.445, 15052.00
1435.494, 14888.00
1436.542, 15063.00
1437.591, 14909.00
1438.639, 15061.00
1439.688, 15139.00
1440.736, 15152.00
1441.784, 15105.00
1442.832, 15017.00
1443.880, 15096.00
1444.927, 15093.00
1445.975, 15174.00
1447.022, 15256.00
1448.069, 15159.00
1449.116, 15176.00
1450.163, 15140.00
1451.209, 15330.00
1452.256, 15214.00
1453.302, 15225.00
1454.348, 15337.00
1455.394, 15277.00
1456.440, 15195.00
1457.486, 15327.00
1458.532, 15122.00
1459.577, 15287.00
1460.623, 15386.00
1461.668, 15499.00
1462.713, 15279.00
1463.758, 15210.00
1464.802, 15193.00
1465.847, 15232.00
1466.891, 15288.00
1467.936, 15321.00
1468.980, 15339.00
1470.024, 15231.00
1471.067, 15281.00
1472.111, 15185.00
1473.155, 15324.00
1474.198, 15326.00
1475.241, 15326.00
1476.284, 15348.00
1477.327, 15348.00
1478.370, 15377.00
1479.413, 15366.00
1480.455, 15300.00
1481.497, 15333.81
1482.540, 15347.10
1483.582, 15327.00
1484.624, 15390.00
1485.665, 15352.00
1486.707, 15279.00
1487.748, 15418.00
1488.790, 15374.00
1489.831, 15376.30
1490.872, 15208.00
1491.912, 15332.00
1492.953, 15337.00
1493.994, 15273.00
1495.034, 15361.00
1496.074, 15467.00
1497.114, 15418.00
1498.154, 15301.00
1499.194, 15386.00
1500.234, 15283.00
1501.273, 15510.00
1502.313, 15359.00
1503.352, 15445.00
1504.391, 15454.00
1505.430, 15313.00
1506.468, 15416.00
1507.507, 15508.00
1508.545, 15481.00
1509.584, 15462.00
1510.622, 15352.00
1511.660, 15761.00
1512.698, 15554.00
1513.735, 15645.00
1514.773, 15514.00
1515.810, 15648.00
1516.848, 15609.00
1517.885, 15552.00
1518.922, 15648.00
1519.958, 15591.00
1520.995, 15546.00
1522.032, 15763.00
1523.068, 15701.00
1524.104, 15534.00
1525.140, 15782.00
1526.176, 15515.00
1527.212, 15574.00
1528.248, 15564.00
1529.283, 15572.00
1530.318, 15576.00
1531.353, 15621.46
1532.389, 15745.00
1533.423, 15741.00
1534.458, 15742.00
1535.493, 15818.84
1536.527, 15745.00
1537.561, 15791.00
1538.596, 15795.00
1539.630, 15677.00
1540.663, 15781.00
1541.697, 15847.00
1542.731, 15726.00
1543.764, 15810.00
1544.797, 15865.00
1545.830, 15716.00
1546.863, 15801.00
1547.896, 15862.00
1548.929, 15906.00
1549.961, 15714.00
1550.994, 16022.00
1552.026, 15893.00
1553.058, 15833.00
1554.090, 15539.00
1555.121, 15912.00
1556.153, 15906.00
1557.185, 15849.00
1558.216, 15977.00
1559.247, 15844.00
1560.278, 15850.00
1561.309, 15784.00
1562.340, 15951.00
1563.370, 15975.00
1564.401, 15830.00
1565.431, 15841.00
1566.461, 15770.00
1567.491, 15868.00
1568.521, 15715.00
1569.551, 15941.00
1570.580, 15935.00
1571.610, 16047.00
1572.639, 16041.00
1573.668, 15983.00
1574.697, 16163.00
1575.726, 16050.00
1576.754, 16124.00
1577.783, 16051.00
1578.811, 15954.00
1579.839, 16056.00
##END=



