##NAMES=Legrandite
##RRUFFID=R040151
##IDEAL CHEMISTRY=Zn^2+^_2_As^5+^O_4_(OH)&#183;H_2_O
##LOCALITY=Mapimi, Durango, Mexico
##OWNER=RRUFF
##SOURCE=University of Arizona Mineral Museum
##DESCRIPTION=Yellow crystal fragments; same material used in McLean et al. (1971) study
##STATUS=The identification of this mineral has been confirmed by X-ray diffraction and chemical analysis
##URL=rruff.info/R040151
##MEASURED CHEMISTRY=Zn_1.88_Fe^2+^_0.04_As_1.03_O_4_(OH)Â·H_2_O
##PIN_ID=M01002
##ORIENTATION=Laser parallel to a* (1 0 0). Fiducial mark perpendicular to laser is parallel to -c [0 0 -1]
62.17000, 1605.000
63.41600, 2167.000
64.66100, 2518.000
65.90700, 3116.000
67.15200, 3606.000
68.39700, 4375.000
69.64100, 5638.000
70.88600, 7685.000
72.13000, 10363.00
73.37400, 13881.00
74.61800, 17272.00
75.86200, 20181.00
77.10600, 20096.00
78.34900, 18905.00
79.59300, 17809.00
80.83600, 17591.00
82.07900, 18080.00
83.32100, 18949.00
84.56400, 18872.00
85.80600, 17862.00
87.04800, 16203.00
88.29000, 14877.00
89.53200, 13934.00
90.77400, 13530.00
92.01500, 13139.00
93.25700, 13419.00
94.49800, 13820.00
95.73900, 14434.00
96.98000, 15007.00
98.22000, 15320.00
99.46100, 15179.00
100.7010, 15042.00
101.9410, 14973.00
103.1810, 14445.00
104.4210, 14185.00
105.6600, 14144.00
106.9000, 14070.00
108.1390, 14203.00
109.3780, 14464.00
110.6170, 14930.00
111.8550, 15313.00
113.0940, 16097.00
114.3320, 16424.00
115.5700, 17124.00
116.8080, 17558.00
118.0460, 18569.00
119.2830, 19554.00
120.5210, 19957.00
121.7580, 19523.00
122.9950, 18546.00
124.2320, 16849.00
125.4690, 15173.00
126.7050, 13987.00
127.9410, 12600.00
129.1780, 11534.00
130.4140, 11048.00
131.6490, 10556.00
132.8850, 10622.00
134.1200, 10496.00
135.3560, 10533.00
136.5910, 10664.00
137.8260, 10908.00
139.0610, 12122.00
140.2950, 11607.96
141.5290, 12210.00
142.7640, 11277.00
143.9980, 11708.00
145.2320, 11802.00
146.4650, 12167.00
147.6990, 12592.00
148.9320, 13374.00
150.1650, 14565.00
151.3980, 15869.00
152.6310, 17646.00
153.8640, 19961.35
155.0960, 22803.00
156.3280, 26219.00
157.5600, 30895.00
158.7920, 36219.00
160.0240, 41529.00
161.2560, 47013.00
162.4870, 50080.00
163.7180, 50325.00
164.9490, 48101.00
166.1800, 44056.00
167.4110, 39745.00
168.6410, 35352.00
169.8720, 31717.00
171.1020, 29506.00
172.3320, 27272.00
173.5620, 25781.00
174.7910, 25127.00
176.0210, 24599.00
177.2500, 25028.00
178.4790, 25303.00
179.7080, 26449.00
180.9370, 27662.00
182.1650, 28087.94
183.3940, 29283.00
184.6220, 29306.00
185.8500, 29851.00
187.0780, 30276.00
188.3050, 30516.00
189.5330, 31063.00
190.7600, 31498.00
191.9870, 31614.00
193.2140, 31186.00
194.4410, 30209.00
195.6680, 29137.00
196.8940, 27747.00
198.1200, 26129.00
199.3470, 24664.00
200.5720, 22703.00
201.7980, 21289.00
203.0240, 19660.00
204.2490, 18308.00
205.4740, 17349.00
206.6990, 16602.00
207.9240, 16075.00
209.1490, 15652.00
210.3740, 15754.00
211.5980, 15936.00
212.8220, 15972.00
214.0460, 16234.00
215.2700, 16342.00
216.4930, 16801.00
217.7170, 17027.00
218.9400, 17508.00
220.1630, 17943.00
221.3860, 18812.00
222.6090, 19594.00
223.8320, 20412.00
225.0540, 21757.00
226.2760, 22538.00
227.4980, 23345.00
228.7200, 23768.00
229.9420, 23564.00
231.1630, 23319.00
232.3850, 22914.00
233.6060, 22190.00
234.8270, 21701.00
236.0480, 21443.00
237.2690, 21269.00
238.4890, 21279.00
239.7090, 21449.00
240.9290, 21593.00
242.1490, 21237.00
243.3690, 20987.00
244.5890, 20134.00
245.8080, 19443.00
247.0270, 18665.00
248.2470, 17609.00
249.4650, 16870.00
250.6840, 16076.00
251.9030, 15601.00
253.1210, 15189.00
254.3390, 14821.00
255.5570, 14608.49
256.7750, 14461.71
257.9930, 14422.00
259.2100, 14394.00
260.4280, 14554.00
261.6450, 14592.00
262.8620, 14985.00
264.0790, 15264.00
265.2950, 15655.00
266.5120, 16181.00
267.7280, 16560.00
268.9440, 16973.00
270.1600, 17310.00
271.3760, 17449.00
272.5920, 17300.00
273.8070, 17114.00
275.0220, 16908.00
276.2370, 16298.00
277.4520, 15844.00
278.6670, 15191.00
279.8820, 14902.00
281.0960, 14176.00
282.3100, 13834.00
283.5240, 13498.00
284.7380, 13347.00
285.9520, 13070.00
287.1650, 13020.00
288.3780, 12932.00
289.5920, 12698.00
290.8050, 12772.00
292.0170, 12696.00
293.2300, 12648.00
294.4430, 12787.00
295.6550, 12829.00
296.8670, 12840.00
298.0790, 12954.00
299.2910, 12999.00
300.5020, 13057.00
301.7140, 13053.00
302.9250, 12921.00
304.1360, 12903.00
305.3470, 12815.00
306.5580, 12577.00
307.7680, 12594.00
308.9780, 12466.00
310.1890, 12627.00
311.3990, 12544.00
312.6090, 12433.00
313.8180, 12490.00
315.0280, 12517.00
316.2370, 12545.00
317.4460, 12738.00
318.6550, 12874.00
319.8640, 12903.21
321.0730, 12914.00
322.2810, 12914.00
323.4890, 13040.00
324.6980, 12894.00
325.9060, 13109.00
327.1130, 13116.00
328.3210, 13206.00
329.5280, 13173.00
330.7360, 13198.00
331.9430, 13187.00
333.1500, 13143.00
334.3560, 13316.00
335.5630, 13331.00
336.7690, 13525.00
337.9760, 13777.00
339.1820, 13937.00
340.3870, 14096.00
341.5930, 14625.00
342.7990, 14961.00
344.0040, 15205.00
345.2090, 15647.00
346.4140, 16287.00
347.6190, 16844.00
348.8240, 17380.00
350.0280, 17689.00
351.2330, 18214.00
352.4370, 18321.00
353.6410, 18642.00
354.8440, 18677.00
356.0480, 18607.00
357.2520, 18346.00
358.4550, 18198.00
359.6580, 17726.00
360.8610, 17551.00
362.0640, 17024.00
363.2660, 16667.00
364.4690, 16605.00
365.6710, 16295.00
366.8730, 16517.00
368.0750, 16347.91
369.2770, 16202.00
370.4780, 16451.00
371.6800, 16580.00
372.8810, 17025.00
374.0820, 17661.00
375.2830, 18016.00
376.4830, 19037.00
377.6840, 19876.00
378.8840, 20965.00
380.0840, 22222.00
381.2840, 23326.00
382.4840, 24475.00
383.6840, 25498.00
384.8830, 26428.00
386.0830, 27160.00
387.2820, 28022.00
388.4810, 28388.00
389.6800, 28666.79
390.8780, 28505.00
392.0770, 28590.00
393.2750, 28018.00
394.4730, 27484.00
395.6710, 26813.00
396.8690, 25936.00
398.0660, 25043.00
399.2640, 24412.00
400.4610, 23607.00
401.6580, 23014.00
402.8550, 22679.00
404.0520, 22275.00
405.2490, 22265.00
406.4450, 22108.00
407.6410, 22282.00
408.8370, 22473.00
410.0330, 22771.00
411.2290, 23279.00
412.4240, 24058.00
413.6200, 24757.00
414.8150, 25776.00
416.0100, 26830.00
417.2050, 28062.00
418.4000, 29776.00
419.5940, 31275.00
420.7880, 33057.00
421.9830, 35062.00
423.1770, 36491.00
424.3700, 38444.00
425.5640, 40102.00
426.7580, 41844.00
427.9510, 43278.00
429.1440, 44324.00
430.3370, 45094.00
431.5300, 45154.00
432.7220, 44741.00
433.9150, 43930.00
435.1070, 42527.00
436.2990, 41040.00
437.4910, 39160.00
438.6830, 37705.00
439.8750, 35835.00
441.0660, 34440.00
442.2570, 33287.00
443.4480, 32096.00
444.6390, 31196.00
445.8300, 30693.00
447.0210, 30195.00
448.2110, 30299.00
449.4010, 30348.00
450.5910, 30725.00
451.7810, 31447.00
452.9710, 31990.00
454.1610, 32909.00
455.3500, 33812.00
456.5390, 34696.00
457.7280, 35195.00
458.9170, 36088.00
460.1060, 36695.00
461.2940, 37292.00
462.4830, 37520.00
463.6710, 37957.00
464.8590, 38109.00
466.0470, 37708.00
467.2350, 37535.00
468.4220, 36684.00
469.6090, 35812.00
470.7970, 34315.00
471.9840, 32767.00
473.1700, 30986.00
474.3570, 29117.00
475.5440, 27306.00
476.7300, 25851.00
477.9160, 24354.00
479.1020, 23210.00
480.2880, 22095.00
481.4740, 21150.00
482.6590, 20464.00
483.8440, 19816.00
485.0300, 19383.00
486.2140, 18910.00
487.3990, 18726.00
488.5840, 18482.00
489.7680, 18492.00
490.9530, 18529.00
492.1370, 18749.00
493.3210, 18860.00
494.5040, 19271.00
495.6880, 19632.00
496.8720, 20136.00
498.0550, 21036.00
499.2380, 21329.00
500.4210, 22134.00
501.6040, 22697.00
502.7860, 23455.00
503.9690, 23830.00
505.1510, 24168.00
506.3330, 23902.00
507.5150, 23798.00
508.6970, 23179.00
509.8780, 22395.00
511.0600, 21641.00
512.2410, 20639.00
513.4220, 20126.00
514.6030, 19181.00
515.7840, 18721.00
516.9640, 18352.00
518.1440, 17920.00
519.3250, 17630.00
520.5050, 17216.00
521.6850, 16978.00
522.8640, 16606.00
524.0440, 16388.27
525.2230, 16260.00
526.4020, 16002.00
527.5820, 15887.00
528.7600, 15757.00
529.9390, 15675.00
531.1180, 15415.00
532.2960, 15372.00
533.4740, 15500.00
534.6520, 15295.00
535.8300, 15335.00
537.0080, 15128.00
538.1850, 14897.00
539.3630, 15057.00
540.5400, 15097.00
541.7170, 14777.00
542.8940, 14590.00
544.0700, 14615.00
545.2470, 14658.00
546.4230, 14562.00
547.5990, 14445.00
548.7750, 14519.00
549.9510, 14497.00
551.1270, 14300.00
552.3020, 14385.00
553.4780, 14589.00
554.6530, 14540.00
555.8280, 14389.00
557.0030, 14312.00
558.1770, 14191.00
559.3520, 14441.00
560.5260, 14366.00
561.7000, 14357.00
562.8740, 14259.00
564.0480, 14247.36
565.2220, 14248.00
566.3950, 14227.00
567.5680, 14189.00
568.7420, 14232.00
569.9150, 14087.00
571.0870, 14210.00
572.2600, 14195.00
573.4320, 14035.00
574.6050, 13968.00
575.7770, 14049.00
576.9490, 13914.00
578.1210, 13993.00
579.2920, 13817.00
580.4640, 13817.00
581.6350, 13850.00
582.8060, 13832.00
583.9770, 13785.00
585.1480, 13800.73
586.3190, 13811.00
587.4890, 13737.00
588.6590, 13768.00
589.8290, 13636.00
590.9990, 13701.00
592.1690, 13650.00
593.3390, 13582.00
594.5080, 13668.00
595.6770, 13762.00
596.8470, 13459.00
598.0160, 13598.00
599.1840, 13598.00
600.3530, 13564.00
601.5210, 13680.00
602.6900, 13505.00
603.8580, 13346.00
605.0260, 13383.00
606.1930, 13395.00
607.3610, 13421.00
608.5280, 13473.00
609.6960, 13510.00
610.8630, 13539.00
612.0300, 13554.00
613.1970, 13526.75
614.3630, 13546.74
615.5300, 13452.00
616.6960, 13501.00
617.8620, 13492.00
619.0280, 13369.00
620.1940, 13553.00
621.3590, 13729.00
622.5250, 13608.00
623.6900, 13774.00
624.8550, 13737.00
626.0200, 13773.00
627.1850, 13883.00
628.3490, 13786.00
629.5140, 13666.00
630.6780, 13713.00
631.8420, 13609.00
633.0060, 13734.00
634.1700, 13781.00
635.3330, 13673.00
636.4970, 13753.00
637.6600, 13675.00
638.8230, 13594.00
639.9860, 13865.00
641.1490, 13621.00
642.3110, 13878.00
643.4740, 14075.00
644.6360, 14053.00
645.7980, 14077.00
646.9600, 14093.00
648.1220, 14123.00
649.2840, 14199.00
650.4450, 14267.00
651.6060, 14220.00
652.7670, 14212.00
653.9280, 14533.00
655.0890, 14407.00
656.2500, 14399.00
657.4100, 14480.00
658.5700, 14275.00
659.7300, 14366.00
660.8900, 14496.00
662.0500, 14362.00
663.2100, 14318.00
664.3690, 14309.00
665.5280, 14209.00
666.6880, 14211.75
667.8460, 14086.00
669.0050, 14236.00
670.1640, 14181.00
671.3220, 14318.00
672.4810, 14333.00
673.6390, 14182.00
674.7970, 14265.00
675.9540, 14212.00
677.1120, 14300.00
678.2690, 14307.00
679.4270, 14308.00
680.5840, 14227.00
681.7410, 14243.00
682.8980, 14447.00
684.0540, 14232.00
685.2110, 14466.00
686.3670, 14363.00
687.5230, 14253.00
688.6790, 14459.00
689.8350, 14471.00
690.9900, 14502.00
692.1460, 14367.00
693.3010, 14688.00
694.4560, 14422.00
695.6110, 14597.00
696.7660, 14418.00
697.9210, 14605.00
699.0750, 14642.00
700.2290, 14512.00
701.3840, 14667.00
702.5370, 14617.00
703.6910, 14688.00
704.8450, 14591.00
705.9980, 14860.00
707.1520, 14630.00
708.3050, 14843.00
709.4580, 14955.00
710.6110, 14706.00
711.7630, 14941.00
712.9160, 14654.00
714.0680, 15001.00
715.2200, 14846.00
716.3720, 14968.00
717.5240, 14939.00
718.6760, 15062.00
719.8270, 15240.00
720.9780, 15013.00
722.1300, 15234.00
723.2810, 15133.00
724.4310, 15003.00
725.5820, 15117.00
726.7330, 15142.00
727.8830, 15259.00
729.0330, 15301.00
730.1830, 15424.00
731.3330, 15448.00
732.4830, 15548.00
733.6320, 15498.00
734.7810, 15429.00
735.9310, 15608.00
737.0800, 15720.00
738.2290, 15463.00
739.3770, 15597.00
740.5260, 15779.00
741.6740, 15945.00
742.8220, 15840.00
743.9700, 15919.00
745.1180, 15947.00
746.2660, 15857.00
747.4130, 16096.00
748.5610, 16122.00
749.7080, 16178.00
750.8550, 16140.00
752.0020, 16271.00
753.1490, 16303.83
754.2950, 16437.00
755.4420, 16529.00
756.5880, 16423.00
757.7340, 16690.00
758.8800, 16599.00
760.0250, 16700.00
761.1710, 16969.00
762.3160, 16933.00
763.4620, 16914.00
764.6070, 17102.00
765.7520, 17236.00
766.8960, 17401.00
768.0410, 17561.00
769.1850, 17640.04
770.3300, 17719.00
771.4740, 17842.00
772.6180, 18023.00
773.7610, 18237.00
774.9050, 18297.00
776.0480, 18544.00
777.1920, 18687.00
778.3350, 18796.00
779.4780, 18972.00
780.6200, 19093.77
781.7630, 19273.00
782.9060, 19349.00
784.0480, 19485.00
785.1900, 19573.00
786.3320, 19413.00
787.4740, 19542.00
788.6150, 19449.00
789.7570, 19261.00
790.8980, 19512.00
792.0390, 19415.00
793.1800, 19506.00
794.3210, 19736.00
795.4620, 19882.00
796.6020, 20071.00
797.7420, 20413.00
798.8830, 20738.00
800.0230, 20987.00
801.1620, 21199.00
802.3020, 21620.00
803.4420, 21959.00
804.5810, 22231.00
805.7200, 22761.00
806.8590, 22959.00
807.9980, 23067.00
809.1370, 23491.00
810.2750, 24304.00
811.4140, 24685.00
812.5520, 25501.00
813.6900, 26605.00
814.8280, 27578.00
815.9650, 28733.00
817.1030, 30207.00
818.2400, 31478.00
819.3780, 33352.00
820.5150, 34688.00
821.6520, 36135.00
822.7880, 37427.00
823.9250, 37876.00
825.0610, 38476.00
826.1980, 38134.00
827.3340, 37232.00
828.4700, 37207.00
829.6050, 36718.00
830.7410, 36300.00
831.8760, 35946.00
833.0120, 35864.00
834.1470, 35916.00
835.2820, 36301.00
836.4160, 36828.00
837.5510, 37488.00
838.6860, 38829.00
839.8200, 40234.00
840.9540, 41977.00
842.0880, 44834.00
843.2220, 47753.00
844.3550, 51514.00
845.4890, 56036.00
846.6220, 62087.00
847.7550, 69831.00
848.8880, 78806.00
850.0210, 90740.00
851.1540, 106055.0
852.2860, 125288.0
853.4190, 148842.0
854.5510, 176906.0
855.6830, 209737.0
856.8150, 244224.0
857.9460, 279327.0
859.0780, 305780.0
860.2090, 319540.0
861.3410, 319345.0
862.4720, 302189.0
863.6020, 275392.0
864.7330, 239634.0
865.8640, 205845.0
866.9940, 175659.0
868.1240, 151570.0
869.2540, 132579.0
870.3840, 118516.0
871.5140, 107854.0
872.6440, 99832.00
873.7730, 94928.00
874.9020, 90488.00
876.0320, 86848.00
877.1600, 83228.00
878.2890, 79729.00
879.4180, 75771.00
880.5460, 73059.00
881.6750, 70156.00
882.8030, 67992.00
883.9310, 66604.00
885.0590, 66758.00
886.1860, 67725.00
887.3140, 69930.00
888.4410, 74068.00
889.5680, 80100.00
890.6950, 87360.00
891.8220, 97912.00
892.9490, 111310.0
894.0750, 127841.0
895.2020, 148145.0
896.3280, 171587.0
897.4540, 197656.0
898.5800, 223437.0
899.7050, 247147.0
900.8310, 264130.0
901.9560, 270789.0
903.0820, 266467.0
904.2070, 251027.0
905.3320, 227655.0
906.4560, 202253.0
907.5810, 176533.0
908.7050, 153953.0
909.8300, 133711.0
910.9540, 118076.0
912.0780, 104327.0
913.2010, 93735.00
914.3250, 85007.00
915.4480, 78106.00
916.5720, 72849.00
917.6950, 67867.00
918.8180, 64433.00
919.9410, 61190.00
921.0630, 58382.00
922.1860, 56344.00
923.3080, 54217.00
924.4300, 53238.00
925.5520, 51111.00
926.6740, 49636.00
927.7960, 47756.00
928.9170, 46924.00
930.0390, 45080.00
931.1600, 43937.00
932.2810, 42751.00
933.4020, 41111.00
934.5230, 39798.00
935.6430, 38721.00
936.7640, 37687.00
937.8840, 36473.00
939.0040, 35220.00
940.1240, 34168.00
941.2440, 33025.00
942.3630, 32032.00
943.4830, 31135.00
944.6020, 30191.00
945.7210, 29511.00
946.8400, 28756.00
947.9590, 28031.00
949.0770, 27423.00
950.1960, 26735.00
951.3140, 26409.00
952.4320, 25877.00
953.5500, 25477.00
954.6680, 24893.00
955.7860, 24692.00
956.9030, 24060.00
958.0210, 23917.00
959.1380, 23709.00
960.2550, 23195.00
961.3720, 23059.00
962.4890, 22740.00
963.6050, 22783.00
964.7220, 22403.00
965.8380, 22307.00
966.9540, 21855.00
968.0700, 21728.00
969.1860, 21631.00
970.3010, 21294.00
971.4170, 21522.00
972.5320, 21157.00
973.6470, 20986.00
974.7620, 20835.00
975.8770, 20912.00
976.9910, 20597.00
978.1060, 20559.00
979.2200, 20216.00
980.3340, 20127.00
981.4480, 20177.00
982.5620, 19963.00
983.6760, 19845.00
984.7890, 20016.00
985.9030, 19851.00
987.0160, 19848.00
988.1290, 19404.00
989.2420, 19546.00
990.3550, 19425.00
991.4670, 19388.00
992.5800, 19339.00
993.6920, 19163.00
994.8040, 19142.00
995.9160, 19066.00
997.0280, 19178.00
998.1390, 19000.00
999.2510, 19036.00
1000.362, 19101.00
1001.473, 18973.00
1002.584, 19122.00
1003.695, 18974.00
1004.805, 18865.00
1005.916, 18641.00
1007.026, 18786.00
1008.136, 18587.00
1009.246, 18699.00
1010.356, 18699.00
1011.466, 18600.00
1012.576, 18610.00
1013.685, 18773.00
1014.794, 18822.00
1015.903, 18766.00
1017.012, 18796.00
1018.121, 19030.00
1019.229, 19105.00
1020.338, 19121.00
1021.446, 19312.00
1022.554, 19327.00
1023.662, 19728.00
1024.770, 19827.00
1025.878, 19935.00
1026.985, 20245.00
1028.092, 20026.00
1029.200, 20529.00
1030.307, 20698.00
1031.413, 20343.00
1032.520, 19873.00
1033.627, 19711.00
1034.733, 19615.00
1035.839, 19419.00
1036.945, 19241.00
1038.051, 19091.00
1039.157, 18919.88
1040.262, 18736.00
1041.368, 18661.00
1042.473, 18524.48
1043.578, 18390.00
1044.683, 18343.00
1045.788, 18255.00
1046.893, 18180.80
1047.997, 18001.00
1049.101, 18016.00
1050.205, 17781.00
1051.309, 17753.00
1052.413, 17920.00
1053.517, 17777.00
1054.621, 17729.00
1055.724, 17658.00
1056.827, 17528.00
1057.930, 17611.00
1059.033, 17470.00
1060.136, 17511.00
1061.238, 17505.00
1062.341, 17412.00
1063.443, 17542.00
1064.545, 17569.00
1065.647, 17330.00
1066.749, 17363.00
1067.850, 17410.00
1068.952, 17496.00
1070.053, 17343.00
1071.154, 17599.00
1072.255, 17572.00
1073.356, 17589.00
1074.457, 17344.00
1075.557, 17457.00
1076.658, 17499.00
1077.758, 17433.00
1078.858, 17455.00
1079.958, 17602.00
1081.057, 17546.00
1082.157, 17603.00
1083.256, 17515.00
1084.356, 17498.66
1085.455, 17391.00
1086.554, 17407.00
1087.653, 17388.00
1088.751, 17326.00
1089.850, 17203.00
1090.948, 17103.00
1092.046, 17443.00
1093.144, 17291.00
1094.242, 17310.00
1095.340, 17148.00
1096.437, 17031.00
1097.534, 17289.00
1098.632, 17166.00
1099.729, 17272.00
1100.826, 17071.00
1101.922, 17205.00
1103.019, 16967.00
1104.115, 17043.00
1105.212, 17029.00
1106.308, 17070.00
1107.404, 17248.00
1108.499, 17173.00
1109.595, 17199.00
1110.691, 17407.00
1111.786, 16973.00
1112.881, 17045.00
1113.976, 17055.00
1115.071, 17278.00
1116.166, 17245.00
1117.260, 17076.00
1118.355, 17253.00
1119.449, 17110.00
1120.543, 17146.00
1121.637, 17091.00
1122.731, 17084.00
1123.824, 17092.00
1124.918, 17086.00
1126.011, 17188.00
1127.104, 17028.00
1128.197, 17220.00
1129.290, 17234.00
1130.382, 17128.00
1131.475, 17327.00
1132.567, 17208.00
1133.659, 17205.00
1134.751, 17198.00
1135.843, 17229.00
1136.935, 17285.00
1138.027, 17288.00
1139.118, 17121.00
1140.209, 17068.00
1141.300, 17228.00
1142.391, 17271.00
1143.482, 17418.00
1144.573, 17335.00
1145.663, 17236.00
1146.754, 17304.00
1147.844, 17284.00
1148.934, 17177.00
1150.024, 17316.00
1151.113, 17136.00
1152.203, 17206.00
1153.292, 17170.00
1154.381, 17308.00
1155.470, 17245.00
1156.559, 17244.00
1157.648, 17383.00
1158.737, 17282.00
1159.825, 17382.00
1160.913, 17279.00
1162.001, 17274.00
1163.089, 17302.00
1164.177, 17384.00
1165.265, 17352.00
1166.352, 17376.00
1167.440, 17318.00
1168.527, 17466.00
1169.614, 17379.00
1170.701, 17441.00
1171.788, 17408.00
1172.874, 17332.00
1173.961, 17209.00
1175.047, 17446.00
1176.133, 17428.00
1177.219, 17608.00
1178.305, 17577.00
1179.390, 17493.00
1180.476, 17524.00
1181.561, 17500.00
1182.646, 17402.00
1183.731, 17420.00
1184.816, 17436.00
1185.901, 17528.00
1186.985, 17628.00
1188.070, 17361.00
1189.154, 17622.00
1190.238, 17414.00
1191.322, 17370.00
1192.406, 17447.00
1193.489, 17611.00
1194.573, 17561.00
1195.656, 17566.00
1196.739, 17515.00
1197.822, 17591.00
1198.905, 17653.00
1199.988, 17486.00
1201.070, 17672.00
1202.153, 17572.00
1203.235, 17503.00
1204.317, 17565.00
1205.399, 17667.00
1206.481, 17422.00
1207.562, 17673.00
1208.644, 17611.00
1209.725, 17816.00
1210.806, 17555.00
1211.887, 17585.00
1212.968, 17743.00
1214.049, 17574.00
1215.129, 17767.00
1216.209, 17827.00
1217.290, 17690.00
1218.370, 17666.00
1219.450, 17703.00
1220.529, 17734.00
1221.609, 17737.24
1222.688, 17740.00
1223.768, 17823.00
1224.847, 17824.00
1225.926, 17976.00
1227.005, 17857.00
1228.083, 17793.00
1229.162, 17750.00
1230.240, 17897.00
1231.318, 17892.00
1232.396, 17826.00
1233.474, 17894.00
1234.552, 17704.00
1235.629, 17991.00
1236.707, 18047.00
1237.784, 17964.00
1238.861, 17940.00
1239.938, 17868.00
1241.015, 17860.00
1242.092, 18047.00
1243.168, 17897.00
1244.244, 18226.00
1245.321, 17949.00
1246.397, 17975.00
1247.473, 18050.00
1248.548, 17970.00
1249.624, 18156.00
1250.699, 18091.00
1251.775, 18036.00
1252.850, 17971.00
1253.925, 18098.00
1254.999, 18078.00
1256.074, 17841.00
1257.148, 17994.00
1258.223, 18126.00
1259.297, 18294.00
1260.371, 18016.00
1261.445, 18213.00
1262.519, 18269.00
1263.592, 18093.00
1264.666, 18272.00
1265.739, 18164.00
1266.812, 18112.00
1267.885, 18366.00
1268.958, 18210.00
1270.030, 18286.00
1271.103, 18219.00
1272.175, 18309.00
1273.247, 18328.00
1274.319, 18405.00
1275.391, 18238.00
1276.463, 18361.00
1277.535, 18285.00
1278.606, 18424.00
1279.677, 18399.00
1280.748, 18182.00
1281.819, 18247.00
1282.890, 18260.00
1283.961, 18317.00
1285.031, 18275.00
1286.102, 18492.00
1287.172, 18278.00
1288.242, 18495.00
1289.312, 18462.00
1290.381, 18288.00
1291.451, 18517.00
1292.520, 18505.00
1293.590, 18479.00
1294.659, 18463.00
1295.728, 18559.00
1296.797, 18535.00
1297.865, 18559.00
1298.934, 18557.20
1300.002, 18665.00
1301.070, 18515.00
1302.138, 18489.00
1303.206, 18468.00
1304.274, 18762.00
1305.341, 18536.00
1306.409, 18597.00
1307.476, 18797.00
1308.543, 18616.00
1309.610, 18758.00
1310.677, 18628.00
1311.744, 18891.00
1312.810, 18712.00
1313.877, 18723.00
1314.943, 18792.00
1316.009, 18581.00
1317.075, 18800.00
1318.140, 18588.00
1319.206, 18763.00
1320.272, 18807.00
1321.337, 18747.00
1322.402, 18728.00
1323.467, 18754.70
1324.532, 18800.33
1325.596, 18784.00
1326.661, 18844.00
1327.725, 18847.00
1328.790, 18866.37
1329.854, 18762.00
1330.918, 18874.00
1331.981, 18921.00
1333.045, 18864.00
1334.108, 18741.00
1335.172, 18806.00
1336.235, 18857.00
1337.298, 18760.00
1338.361, 18844.00
1339.423, 18826.00
1340.486, 18745.00
1341.548, 18761.00
1342.611, 18792.00
1343.673, 18929.00
1344.735, 18923.00
1345.796, 18846.00
1346.858, 18947.00
1347.919, 18801.00
1348.981, 18840.01
1350.042, 18893.00
1351.103, 18852.00
1352.164, 18928.00
1353.225, 18970.00
1354.285, 19071.00
1355.346, 18916.00
1356.406, 19167.00
1357.466, 18937.00
1358.526, 18926.00
1359.586, 19187.00
1360.645, 18953.00
1361.705, 19037.00
1362.764, 19023.00
1363.823, 19061.00
1364.882, 19051.00
1365.941, 19125.00
1367.000, 19164.00
1368.059, 19197.00
1369.117, 19187.00
1370.175, 19162.00
1371.233, 19065.00
1372.291, 19060.00
1373.349, 18980.00
1374.407, 19243.00
1375.464, 18984.00
1376.522, 19039.00
1377.579, 19326.00
1378.636, 19115.00
1379.693, 19117.00
1380.750, 19377.00
1381.806, 19140.00
1382.863, 19196.00
1383.919, 19245.00
1384.975, 19338.00
1386.031, 19408.00
1387.087, 19427.44
1388.143, 19357.00
1389.199, 19355.00
1390.254, 19408.00
1391.309, 19150.00
1392.364, 19205.00
1393.419, 19358.00
1394.474, 19273.00
1395.529, 19418.00
1396.583, 19456.00
1397.638, 19428.00
1398.692, 19418.54
1399.746, 19406.00
1400.800, 19276.00
1401.853, 19437.00
1402.907, 19404.00
1403.960, 19292.00
1405.014, 19437.00
1406.067, 19404.00
1407.120, 19386.00
1408.173, 19345.00
1409.225, 19395.00
1410.278, 19272.00
1411.330, 19482.00
1412.383, 19294.00
1413.435, 19464.00
1414.487, 19457.00
1415.538, 19363.00
1416.590, 19526.00
1417.641, 19540.00
1418.693, 19563.18
1419.744, 19496.00
1420.795, 19623.00
1421.846, 19508.00
1422.897, 19499.00
1423.947, 19531.00
1424.998, 19490.30
1426.048, 19485.71
1427.098, 19493.00
1428.148, 19484.00
1429.198, 19465.00
1430.247, 19557.00
1431.297, 19553.00
1432.346, 19463.00
1433.396, 19734.00
1434.445, 19811.00
1435.494, 19727.00
1436.542, 19762.00
1437.591, 19822.00
1438.639, 19797.73
1439.688, 19838.00
1440.736, 19877.00
1441.784, 19883.00
1442.832, 20018.00
1443.880, 19973.00
1444.927, 19952.00
1445.975, 20250.00
1447.022, 19937.00
1448.069, 20140.00
1449.116, 19870.00
1450.163, 20037.00
1451.209, 20047.00
1452.256, 19956.00
1453.302, 20238.00
1454.348, 19920.00
1455.394, 19990.00
1456.440, 20385.00
1457.486, 19965.00
1458.532, 20179.00
1459.577, 20197.00
1460.623, 20071.00
1461.668, 20135.00
1462.713, 20082.00
1463.758, 20066.00
1464.802, 19999.00
1465.847, 20013.00
1466.891, 20162.00
1467.936, 19893.00
1468.980, 20121.00
1470.024, 20148.00
1471.067, 20019.00
1472.111, 20030.00
1473.155, 20021.00
1474.198, 19909.00
1475.241, 19981.95
1476.284, 20098.00
1477.327, 20081.00
1478.370, 20054.00
1479.413, 20145.00
1480.455, 20019.00
1481.497, 20171.00
1482.540, 20191.00
1483.582, 20108.00
1484.624, 20009.00
1485.665, 20007.00
1486.707, 20159.00
1487.748, 19973.00
1488.790, 20134.00
1489.831, 20229.00
1490.872, 19922.00
1491.912, 20111.00
1492.953, 20236.00
1493.994, 20097.00
1495.034, 20080.00
1496.074, 20095.00
1497.114, 20205.00
1498.154, 20308.00
1499.194, 20266.00
1500.234, 20315.62
1501.273, 20304.22
1502.313, 20271.00
1503.352, 20254.00
1504.391, 20192.00
1505.430, 20150.00
1506.468, 20210.00
1507.507, 19994.00
1508.545, 20446.00
1509.584, 20306.00
1510.622, 20552.00
1511.660, 20531.00
1512.698, 20255.00
1513.735, 20324.00
1514.773, 20413.00
1515.810, 20484.00
1516.848, 20399.00
1517.885, 20383.00
1518.922, 20464.00
1519.958, 20223.00
1520.995, 20443.00
1522.032, 20446.00
1523.068, 20452.00
1524.104, 20616.00
1525.140, 20499.00
1526.176, 20581.00
1527.212, 20384.00
1528.248, 20605.00
1529.283, 20506.00
1530.318, 20629.00
1531.353, 20520.00
1532.389, 20582.00
1533.423, 20520.00
1534.458, 20546.00
1535.493, 20530.00
1536.527, 20535.00
1537.561, 20579.00
1538.596, 20577.00
1539.630, 20659.00
1540.663, 20681.00
1541.697, 20696.00
1542.731, 20619.00
1543.764, 20583.00
1544.797, 20630.80
1545.830, 20527.00
1546.863, 20693.00
1547.896, 20738.00
1548.929, 20696.00
1549.961, 20692.00
1550.994, 20772.00
1552.026, 20764.00
1553.058, 20755.04
1554.090, 20949.00
1555.121, 20717.00
1556.153, 20697.00
1557.185, 20703.00
1558.216, 20889.00
1559.247, 20829.00
1560.278, 20845.00
1561.309, 20697.00
1562.340, 20777.00
1563.370, 20790.00
1564.401, 20915.00
1565.431, 20710.00
1566.461, 20589.00
1567.491, 20822.00
1568.521, 20898.00
1569.551, 20757.00
1570.580, 20827.00
1571.610, 21073.00
1572.639, 20823.00
1573.668, 20959.00
1574.697, 20924.00
1575.726, 20879.00
1576.754, 21075.00
1577.783, 20844.00
1578.811, 20661.00
1579.839, 20839.00
##END=



