##NAMES=Legrandite
##RRUFFID=R040151
##IDEAL CHEMISTRY=Zn^2+^_2_As^5+^O_4_(OH)&#183;H_2_O
##LOCALITY=Mapimi, Durango, Mexico
##OWNER=RRUFF
##SOURCE=University of Arizona Mineral Museum
##DESCRIPTION=Yellow crystal fragments; same material used in McLean et al. (1971) study
##STATUS=The identification of this mineral has been confirmed by X-ray diffraction and chemical analysis
##URL=rruff.info/R040151
##MEASURED CHEMISTRY=Zn_1.88_Fe^2+^_0.04_As_1.03_O_4_(OH)Â·H_2_O
##PIN_ID=M01002
##ORIENTATION=Laser parallel to a* (1 0 0). Fiducial mark perpendicular to laser is parallel to -c [0 0 -1]
62.17000, 1632.000
63.41600, 2345.000
64.66100, 2871.000
65.90700, 3308.000
67.15200, 3671.000
68.39700, 4295.000
69.64100, 5421.000
70.88600, 7596.000
72.13000, 10330.00
73.37400, 14113.00
74.61800, 18085.00
75.86200, 21311.00
77.10600, 21747.00
78.34900, 21047.00
79.59300, 20035.00
80.83600, 19838.00
82.07900, 20638.00
83.32100, 22352.00
84.56400, 23261.00
85.80600, 22969.00
87.04800, 21662.00
88.29000, 20111.00
89.53200, 19049.00
90.77400, 17945.00
92.01500, 17568.00
93.25700, 17181.00
94.49800, 16959.00
95.73900, 16995.00
96.98000, 17082.00
98.22000, 16576.00
99.46100, 15672.00
100.7010, 14627.00
101.9410, 13522.00
103.1810, 12599.00
104.4210, 11692.31
105.6600, 10913.27
106.9000, 10205.29
108.1390, 9601.000
109.3780, 9055.000
110.6170, 8574.000
111.8550, 8247.000
113.0940, 7936.000
114.3320, 7803.000
115.5700, 7870.000
116.8080, 7751.000
118.0460, 7900.000
119.2830, 8021.000
120.5210, 8183.000
121.7580, 7897.000
122.9950, 7677.000
124.2320, 7628.000
125.4690, 7800.000
126.7050, 8111.000
127.9410, 8313.000
129.1780, 8901.000
130.4140, 9259.000
131.6490, 9826.000
132.8850, 10675.00
134.1200, 11472.00
135.3560, 12256.00
136.5910, 13147.97
137.8260, 14061.00
139.0610, 14789.00
140.2950, 15377.00
141.5290, 15910.00
142.7640, 16077.00
143.9980, 16064.00
145.2320, 15631.00
146.4650, 15278.00
147.6990, 14938.00
148.9320, 14804.00
150.1650, 14997.00
151.3980, 15709.00
152.6310, 16332.00
153.8640, 17158.00
155.0960, 17823.00
156.3280, 18363.00
157.5600, 19399.00
158.7920, 20420.00
160.0240, 21947.00
161.2560, 23496.00
162.4870, 24194.00
163.7180, 24389.00
164.9490, 23756.00
166.1800, 22244.00
167.4110, 20440.00
168.6410, 18511.00
169.8720, 16778.00
171.1020, 15655.00
172.3320, 14566.00
173.5620, 13664.00
174.7910, 12995.00
176.0210, 12495.00
177.2500, 11903.00
178.4790, 11484.00
179.7080, 11435.00
180.9370, 11172.00
182.1650, 11156.00
183.3940, 11184.00
184.6220, 11289.00
185.8500, 11759.00
187.0780, 12211.00
188.3050, 12430.00
189.5330, 13049.00
190.7600, 13622.00
191.9870, 14374.00
193.2140, 14890.00
194.4410, 15210.00
195.6680, 15463.00
196.8940, 15842.00
198.1200, 15681.00
199.3470, 15580.00
200.5720, 15574.00
201.7980, 15538.00
203.0240, 15535.00
204.2490, 15621.00
205.4740, 15780.00
206.6990, 16077.00
207.9240, 16442.00
209.1490, 16735.00
210.3740, 17293.00
211.5980, 17504.00
212.8220, 17855.00
214.0460, 17907.00
215.2700, 17895.00
216.4930, 17453.00
217.7170, 17125.00
218.9400, 16794.00
220.1630, 16626.00
221.3860, 16585.16
222.6090, 16527.00
223.8320, 16771.00
225.0540, 17094.00
226.2760, 17371.00
227.4980, 17776.00
228.7200, 18020.00
229.9420, 18183.00
231.1630, 18301.00
232.3850, 18405.00
233.6060, 18607.00
234.8270, 18919.00
236.0480, 19117.00
237.2690, 20152.00
238.4890, 20864.00
239.7090, 21811.00
240.9290, 22539.00
242.1490, 23252.00
243.3690, 23448.00
244.5890, 23590.00
245.8080, 23366.00
247.0270, 23157.00
248.2470, 22897.00
249.4650, 22896.00
250.6840, 23046.00
251.9030, 23452.00
253.1210, 23930.00
254.3390, 24895.00
255.5570, 26110.00
256.7750, 27025.00
257.9930, 28245.00
259.2100, 29860.00
260.4280, 31055.00
261.6450, 32737.00
262.8620, 34733.00
264.0790, 37091.00
265.2950, 40140.00
266.5120, 43036.00
267.7280, 45953.00
268.9440, 48612.00
270.1600, 50770.00
271.3760, 51991.00
272.5920, 52238.00
273.8070, 51189.00
275.0220, 49277.00
276.2370, 46461.00
277.4520, 43432.00
278.6670, 40110.00
279.8820, 37265.00
281.0960, 34380.00
282.3100, 32218.00
283.5240, 30543.00
284.7380, 28756.00
285.9520, 27467.00
287.1650, 25980.00
288.3780, 24668.00
289.5920, 22951.00
290.8050, 21729.00
292.0170, 20517.00
293.2300, 19473.00
294.4430, 18277.00
295.6550, 17317.00
296.8670, 16863.00
298.0790, 16219.00
299.2910, 16061.00
300.5020, 15689.00
301.7140, 15465.00
302.9250, 15288.00
304.1360, 15383.00
305.3470, 15135.00
306.5580, 15172.00
307.7680, 15198.00
308.9780, 14997.00
310.1890, 15116.00
311.3990, 15341.00
312.6090, 15274.00
313.8180, 15355.00
315.0280, 15515.00
316.2370, 15598.00
317.4460, 15669.00
318.6550, 15659.00
319.8640, 15665.77
321.0730, 15597.00
322.2810, 15559.00
323.4890, 15485.00
324.6980, 15483.19
325.9060, 15450.62
327.1130, 15485.00
328.3210, 15449.00
329.5280, 15452.00
330.7360, 15503.00
331.9430, 15544.00
333.1500, 15686.00
334.3560, 15492.00
335.5630, 15499.00
336.7690, 15786.00
337.9760, 15947.00
339.1820, 16274.00
340.3870, 16648.00
341.5930, 17221.93
342.7990, 17871.00
344.0040, 18739.00
345.2090, 19609.00
346.4140, 20729.00
347.6190, 22094.00
348.8240, 23415.00
350.0280, 24995.00
351.2330, 26443.00
352.4370, 27953.00
353.6410, 28970.00
354.8440, 29969.00
356.0480, 30583.00
357.2520, 30316.00
358.4550, 30112.00
359.6580, 28762.00
360.8610, 27499.00
362.0640, 25691.00
363.2660, 24019.00
364.4690, 22438.00
365.6710, 20947.00
366.8730, 19782.28
368.0750, 18523.00
369.2770, 17794.00
370.4780, 17052.00
371.6800, 16316.00
372.8810, 16108.00
374.0820, 16052.00
375.2830, 15966.00
376.4830, 16225.00
377.6840, 16609.00
378.8840, 17236.00
380.0840, 17739.00
381.2840, 18787.00
382.4840, 19496.00
383.6840, 20468.00
384.8830, 21320.00
386.0830, 22236.00
387.2820, 23209.00
388.4810, 23916.00
389.6800, 24620.00
390.8780, 24947.00
392.0770, 25100.00
393.2750, 24656.00
394.4730, 24013.00
395.6710, 23055.00
396.8690, 21868.00
398.0660, 20718.00
399.2640, 19540.00
400.4610, 18275.00
401.6580, 17466.00
402.8550, 16343.00
404.0520, 15603.00
405.2490, 14869.00
406.4450, 14287.00
407.6410, 13839.00
408.8370, 13425.00
410.0330, 13250.00
411.2290, 12816.00
412.4240, 12741.00
413.6200, 12563.00
414.8150, 12519.00
416.0100, 12429.00
417.2050, 12334.00
418.4000, 12320.00
419.5940, 12310.00
420.7880, 12169.00
421.9830, 12159.00
423.1770, 11995.00
424.3700, 11859.00
425.5640, 11700.00
426.7580, 11512.00
427.9510, 11420.00
429.1440, 11210.00
430.3370, 11108.00
431.5300, 10993.00
432.7220, 10822.00
433.9150, 10772.00
435.1070, 10504.00
436.2990, 10471.00
437.4910, 10328.00
438.6830, 10217.00
439.8750, 10271.00
441.0660, 10361.00
442.2570, 10326.00
443.4480, 10400.45
444.6390, 10444.08
445.8300, 10462.00
447.0210, 10573.00
448.2110, 10578.00
449.4010, 10690.00
450.5910, 10768.00
451.7810, 10845.00
452.9710, 11090.00
454.1610, 10846.00
455.3500, 11155.00
456.5390, 11024.00
457.7280, 11021.00
458.9170, 11079.00
460.1060, 11020.00
461.2940, 10936.00
462.4830, 11013.00
463.6710, 10965.00
464.8590, 10780.00
466.0470, 10842.00
467.2350, 10772.00
468.4220, 10631.00
469.6090, 10821.00
470.7970, 10682.00
471.9840, 10648.00
473.1700, 10669.00
474.3570, 10557.00
475.5440, 10565.64
476.7300, 10523.00
477.9160, 10511.00
479.1020, 10409.00
480.2880, 10360.00
481.4740, 10389.00
482.6590, 10320.00
483.8440, 10341.00
485.0300, 10330.00
486.2140, 10375.00
487.3990, 10295.00
488.5840, 10174.00
489.7680, 10266.00
490.9530, 10169.00
492.1370, 10288.00
493.3210, 10110.00
494.5040, 10149.00
495.6880, 10203.00
496.8720, 10099.00
498.0550, 10147.00
499.2380, 10086.00
500.4210, 10176.00
501.6040, 10299.00
502.7860, 10233.00
503.9690, 10349.00
505.1510, 10128.00
506.3330, 10256.00
507.5150, 10146.00
508.6970, 10197.00
509.8780, 10261.00
511.0600, 10247.00
512.2410, 10175.00
513.4220, 10218.00
514.6030, 10224.00
515.7840, 10174.00
516.9640, 10273.00
518.1440, 10414.00
519.3250, 10207.00
520.5050, 10192.00
521.6850, 10303.00
522.8640, 10262.00
524.0440, 10280.89
525.2230, 10454.00
526.4020, 10352.00
527.5820, 10311.00
528.7600, 10526.00
529.9390, 10495.00
531.1180, 10514.00
532.2960, 10602.00
533.4740, 10498.00
534.6520, 10528.00
535.8300, 10448.00
537.0080, 10572.00
538.1850, 10333.00
539.3630, 10487.00
540.5400, 10489.00
541.7170, 10407.00
542.8940, 10386.00
544.0700, 10449.00
545.2470, 10453.00
546.4230, 10348.00
547.5990, 10367.00
548.7750, 10192.00
549.9510, 10423.00
551.1270, 10481.00
552.3020, 10340.00
553.4780, 10461.00
554.6530, 10381.00
555.8280, 10448.00
557.0030, 10628.00
558.1770, 10526.00
559.3520, 10561.00
560.5260, 10419.00
561.7000, 10638.00
562.8740, 10560.00
564.0480, 10669.00
565.2220, 10555.00
566.3950, 10436.00
567.5680, 10601.00
568.7420, 10601.00
569.9150, 10650.00
571.0870, 10473.00
572.2600, 10533.00
573.4320, 10566.00
574.6050, 10533.00
575.7770, 10529.00
576.9490, 10513.00
578.1210, 10496.40
579.2920, 10592.00
580.4640, 10514.00
581.6350, 10513.00
582.8060, 10616.00
583.9770, 10490.00
585.1480, 10445.00
586.3190, 10584.00
587.4890, 10574.00
588.6590, 10513.00
589.8290, 10461.00
590.9990, 10619.00
592.1690, 10361.00
593.3390, 10353.00
594.5080, 10466.00
595.6770, 10301.00
596.8470, 10490.00
598.0160, 10320.00
599.1840, 10410.00
600.3530, 10516.00
601.5210, 10555.00
602.6900, 10364.00
603.8580, 10375.00
605.0260, 10380.00
606.1930, 10458.00
607.3610, 10455.00
608.5280, 10383.00
609.6960, 10382.00
610.8630, 10464.00
612.0300, 10443.00
613.1970, 10559.00
614.3630, 10606.00
615.5300, 10525.00
616.6960, 10571.00
617.8620, 10581.00
619.0280, 10581.00
620.1940, 10673.00
621.3590, 10610.00
622.5250, 10844.00
623.6900, 10802.00
624.8550, 10838.00
626.0200, 10879.00
627.1850, 10946.00
628.3490, 10937.25
629.5140, 10976.00
630.6780, 10964.00
631.8420, 10916.00
633.0060, 10999.00
634.1700, 10940.00
635.3330, 11063.00
636.4970, 11188.00
637.6600, 11182.00
638.8230, 11233.00
639.9860, 11388.00
641.1490, 11484.00
642.3110, 11512.00
643.4740, 11806.00
644.6360, 11910.00
645.7980, 11915.00
646.9600, 12164.00
648.1220, 12455.00
649.2840, 12689.00
650.4450, 12815.00
651.6060, 13115.00
652.7670, 13392.00
653.9280, 13685.00
655.0890, 13788.00
656.2500, 13908.00
657.4100, 14029.00
658.5700, 13967.00
659.7300, 14074.00
660.8900, 13801.00
662.0500, 13592.00
663.2100, 13293.00
664.3690, 13289.00
665.5280, 13120.00
666.6880, 12907.00
667.8460, 12623.00
669.0050, 12683.00
670.1640, 12297.00
671.3220, 12343.00
672.4810, 12256.00
673.6390, 12383.00
674.7970, 12059.00
675.9540, 12153.00
677.1120, 12110.00
678.2690, 12048.00
679.4270, 12435.00
680.5840, 12397.00
681.7410, 12436.00
682.8980, 12173.00
684.0540, 12317.00
685.2110, 12451.00
686.3670, 12425.00
687.5230, 12361.00
688.6790, 12404.00
689.8350, 12561.00
690.9900, 12727.00
692.1460, 12694.00
693.3010, 12541.00
694.4560, 12739.00
695.6110, 12828.00
696.7660, 12768.00
697.9210, 13066.00
699.0750, 12772.00
700.2290, 13178.00
701.3840, 13057.00
702.5370, 13109.00
703.6910, 13048.00
704.8450, 13029.00
705.9980, 13143.00
707.1520, 13165.00
708.3050, 13181.00
709.4580, 13257.00
710.6110, 13323.00
711.7630, 13252.00
712.9160, 13357.00
714.0680, 13416.00
715.2200, 13336.00
716.3720, 13380.00
717.5240, 13412.00
718.6760, 13452.00
719.8270, 13540.00
720.9780, 13387.00
722.1300, 13693.00
723.2810, 13451.00
724.4310, 13709.00
725.5820, 13798.00
726.7330, 13675.00
727.8830, 13792.00
729.0330, 13928.00
730.1830, 13852.00
731.3330, 13904.00
732.4830, 14166.00
733.6320, 14162.00
734.7810, 14201.00
735.9310, 14087.00
737.0800, 14167.00
738.2290, 14317.00
739.3770, 14434.00
740.5260, 14623.00
741.6740, 14640.00
742.8220, 14756.00
743.9700, 14824.00
745.1180, 14740.00
746.2660, 14926.00
747.4130, 14961.00
748.5610, 15317.00
749.7080, 15250.00
750.8550, 15469.00
752.0020, 15587.00
753.1490, 15660.00
754.2950, 15683.00
755.4420, 15869.00
756.5880, 16093.00
757.7340, 16049.00
758.8800, 16045.00
760.0250, 16260.00
761.1710, 16438.00
762.3160, 16722.00
763.4620, 16938.00
764.6070, 17160.42
765.7520, 17347.00
766.8960, 17619.00
768.0410, 17850.00
769.1850, 18099.00
770.3300, 18661.00
771.4740, 18969.00
772.6180, 19565.00
773.7610, 20243.00
774.9050, 20726.00
776.0480, 21596.00
777.1920, 22624.00
778.3350, 23340.00
779.4780, 24149.00
780.6200, 24864.00
781.7630, 25618.00
782.9060, 26459.00
784.0480, 26964.00
785.1900, 27499.00
786.3320, 28015.00
787.4740, 28343.00
788.6150, 28417.00
789.7570, 28742.00
790.8980, 28953.00
792.0390, 28904.00
793.1800, 29066.00
794.3210, 28690.00
795.4620, 28799.00
796.6020, 28380.00
797.7420, 28129.00
798.8830, 27843.00
800.0230, 27560.00
801.1620, 27391.00
802.3020, 27086.00
803.4420, 27339.00
804.5810, 27241.00
805.7200, 27581.00
806.8590, 27806.00
807.9980, 28314.00
809.1370, 28667.00
810.2750, 29217.00
811.4140, 29684.00
812.5520, 30204.00
813.6900, 30790.00
814.8280, 31848.00
815.9650, 32581.00
817.1030, 33675.10
818.2400, 34578.00
819.3780, 36030.00
820.5150, 37201.00
821.6520, 38560.00
822.7880, 39760.00
823.9250, 41240.00
825.0610, 42680.00
826.1980, 43733.00
827.3340, 44921.00
828.4700, 46280.00
829.6050, 47631.00
830.7410, 49552.00
831.8760, 51670.00
833.0120, 54199.00
834.1470, 56813.00
835.2820, 59804.00
836.4160, 62803.00
837.5510, 65905.00
838.6860, 69559.00
839.8200, 72690.00
840.9540, 75254.00
842.0880, 78756.00
843.2220, 81228.00
844.3550, 84214.00
845.4890, 87679.00
846.6220, 91552.00
847.7550, 96587.00
848.8880, 102294.0
850.0210, 109803.0
851.1540, 119110.0
852.2860, 131100.0
853.4190, 144323.0
854.5510, 160805.0
855.6830, 177746.0
856.8150, 195698.0
857.9460, 211547.0
859.0780, 221738.0
860.2090, 224598.0
861.3410, 218872.0
862.4720, 200897.0
863.6020, 178412.0
864.7330, 153092.0
865.8640, 129304.0
866.9940, 108492.0
868.1240, 92110.00
869.2540, 79182.00
870.3840, 69351.00
871.5140, 62007.00
872.6440, 56251.00
873.7730, 51842.00
874.9020, 48256.00
876.0320, 45361.00
877.1600, 43375.00
878.2890, 40984.00
879.4180, 39376.00
880.5460, 37918.00
881.6750, 36247.00
882.8030, 35333.00
883.9310, 34327.00
885.0590, 33595.00
886.1860, 33310.00
887.3140, 33246.00
888.4410, 33448.00
889.5680, 34228.00
890.6950, 35516.00
891.8220, 37007.00
892.9490, 39299.00
894.0750, 42430.00
895.2020, 46010.00
896.3280, 50626.00
897.4540, 55391.00
898.5800, 60063.00
899.7050, 64522.00
900.8310, 67393.00
901.9560, 68408.00
903.0820, 67021.00
904.2070, 63397.00
905.3320, 58645.00
906.4560, 53405.00
907.5810, 47787.00
908.7050, 42726.00
909.8300, 38521.00
910.9540, 35240.00
912.0780, 32362.00
913.2010, 30127.00
914.3250, 28788.00
915.4480, 26940.00
916.5720, 25915.00
917.6950, 24874.00
918.8180, 24415.00
919.9410, 23652.00
921.0630, 23058.00
922.1860, 22878.00
923.3080, 22520.00
924.4300, 22472.00
925.5520, 22026.00
926.6740, 21724.00
927.7960, 21426.00
928.9170, 20968.00
930.0390, 20645.00
931.1600, 20194.00
932.2810, 19550.00
933.4020, 19207.00
934.5230, 18769.00
935.6430, 18173.00
936.7640, 17878.00
937.8840, 17581.00
939.0040, 17399.00
940.1240, 17152.00
941.2440, 16880.95
942.3630, 16597.00
943.4830, 16339.00
944.6020, 16196.00
945.7210, 15923.00
946.8400, 15515.00
947.9590, 15427.00
949.0770, 15214.00
950.1960, 14975.00
951.3140, 14884.00
952.4320, 14700.19
953.5500, 14688.00
954.6680, 14456.00
955.7860, 14434.00
956.9030, 14358.00
958.0210, 14318.00
959.1380, 14219.00
960.2550, 14208.00
961.3720, 14130.00
962.4890, 14135.00
963.6050, 13941.00
964.7220, 13913.00
965.8380, 13757.00
966.9540, 13796.00
968.0700, 13656.00
969.1860, 13658.00
970.3010, 13678.00
971.4170, 13652.00
972.5320, 13624.00
973.6470, 13533.00
974.7620, 13474.00
975.8770, 13476.00
976.9910, 13505.00
978.1060, 13413.00
979.2200, 13469.00
980.3340, 13256.00
981.4480, 13275.00
982.5620, 13307.00
983.6760, 13219.00
984.7890, 13319.00
985.9030, 13232.00
987.0160, 13375.00
988.1290, 13298.46
989.2420, 13200.00
990.3550, 13162.00
991.4670, 13108.00
992.5800, 12972.00
993.6920, 12994.00
994.8040, 12993.00
995.9160, 13046.00
997.0280, 13163.00
998.1390, 13003.00
999.2510, 13132.00
1000.362, 13189.00
1001.473, 12988.00
1002.584, 13142.00
1003.695, 13225.00
1004.805, 13026.00
1005.916, 12999.00
1007.026, 13021.00
1008.136, 13040.00
1009.246, 12850.00
1010.356, 12938.00
1011.466, 12772.00
1012.576, 12839.00
1013.685, 12879.00
1014.794, 12916.00
1015.903, 12961.00
1017.012, 13048.00
1018.121, 13123.88
1019.229, 13183.26
1020.338, 13292.00
1021.446, 13327.00
1022.554, 13346.00
1023.662, 13440.00
1024.770, 13253.00
1025.878, 13478.00
1026.985, 13641.00
1028.092, 13408.00
1029.200, 13635.00
1030.307, 13378.00
1031.413, 13632.00
1032.520, 13438.00
1033.627, 13338.00
1034.733, 13463.00
1035.839, 13271.00
1036.945, 13511.00
1038.051, 13339.01
1039.157, 13175.00
1040.262, 13115.00
1041.368, 13084.00
1042.473, 12993.00
1043.578, 12980.00
1044.683, 12892.00
1045.788, 12757.00
1046.893, 12918.00
1047.997, 12724.00
1049.101, 12770.00
1050.205, 12782.00
1051.309, 12880.00
1052.413, 12849.00
1053.517, 12801.00
1054.621, 12618.00
1055.724, 12760.00
1056.827, 12795.00
1057.930, 12833.00
1059.033, 12628.00
1060.136, 12586.00
1061.238, 12623.00
1062.341, 12611.00
1063.443, 12760.00
1064.545, 12692.74
1065.647, 12690.00
1066.749, 12616.00
1067.850, 12572.00
1068.952, 12501.00
1070.053, 12584.00
1071.154, 12833.00
1072.255, 12620.00
1073.356, 12734.00
1074.457, 12559.00
1075.557, 12691.00
1076.658, 12668.00
1077.758, 12803.00
1078.858, 12648.00
1079.958, 12688.00
1081.057, 12793.00
1082.157, 12915.00
1083.256, 12692.00
1084.356, 12828.00
1085.455, 12697.00
1086.554, 12660.00
1087.653, 12803.00
1088.751, 12748.74
1089.850, 12671.00
1090.948, 12784.00
1092.046, 12679.00
1093.144, 12582.00
1094.242, 12603.00
1095.340, 12671.00
1096.437, 12500.00
1097.534, 12733.00
1098.632, 12704.00
1099.729, 12773.00
1100.826, 12606.00
1101.922, 12714.00
1103.019, 12517.00
1104.115, 12648.00
1105.212, 12740.00
1106.308, 12700.00
1107.404, 12673.00
1108.499, 12551.00
1109.595, 12663.00
1110.691, 12723.00
1111.786, 12694.00
1112.881, 12588.00
1113.976, 12679.00
1115.071, 12710.00
1116.166, 12753.00
1117.260, 12594.00
1118.355, 12718.00
1119.449, 12600.00
1120.543, 12743.00
1121.637, 12618.00
1122.731, 12691.00
1123.824, 12717.00
1124.918, 12690.00
1126.011, 12718.81
1127.104, 12654.00
1128.197, 12742.00
1129.290, 12636.00
1130.382, 12715.00
1131.475, 12799.00
1132.567, 12763.00
1133.659, 12812.00
1134.751, 12732.00
1135.843, 12824.00
1136.935, 12820.00
1138.027, 12756.00
1139.118, 12832.00
1140.209, 12739.00
1141.300, 12789.00
1142.391, 12752.00
1143.482, 12862.00
1144.573, 12668.00
1145.663, 12751.00
1146.754, 12822.00
1147.844, 12592.00
1148.934, 12768.00
1150.024, 12880.00
1151.113, 12770.00
1152.203, 12920.00
1153.292, 12896.00
1154.381, 13030.00
1155.470, 12793.00
1156.559, 12878.00
1157.648, 12757.00
1158.737, 12719.00
1159.825, 12901.00
1160.913, 12918.00
1162.001, 12846.00
1163.089, 13016.00
1164.177, 12959.00
1165.265, 12971.00
1166.352, 12804.00
1167.440, 12877.00
1168.527, 13024.00
1169.614, 13099.00
1170.701, 13098.08
1171.788, 12905.00
1172.874, 13022.00
1173.961, 13005.00
1175.047, 12897.00
1176.133, 12907.00
1177.219, 12846.00
1178.305, 12963.00
1179.390, 12945.00
1180.476, 12994.00
1181.561, 12995.00
1182.646, 13050.00
1183.731, 12961.00
1184.816, 12839.00
1185.901, 13019.00
1186.985, 12994.00
1188.070, 13030.00
1189.154, 13252.00
1190.238, 12959.00
1191.322, 13074.00
1192.406, 13001.00
1193.489, 13158.00
1194.573, 13031.00
1195.656, 13187.00
1196.739, 13120.00
1197.822, 13107.00
1198.905, 13238.00
1199.988, 13116.00
1201.070, 13070.00
1202.153, 13130.00
1203.235, 12941.00
1204.317, 12886.00
1205.399, 13172.00
1206.481, 13047.00
1207.562, 13188.00
1208.644, 13108.00
1209.725, 13123.00
1210.806, 13252.00
1211.887, 13253.00
1212.968, 13087.00
1214.049, 13261.00
1215.129, 13258.00
1216.209, 13105.00
1217.290, 13253.00
1218.370, 13419.00
1219.450, 13312.00
1220.529, 13297.00
1221.609, 13202.00
1222.688, 13203.00
1223.768, 13194.00
1224.847, 13245.00
1225.926, 13093.00
1227.005, 13120.00
1228.083, 13370.00
1229.162, 13248.00
1230.240, 13434.00
1231.318, 13330.00
1232.396, 13214.00
1233.474, 13349.00
1234.552, 13369.00
1235.629, 13429.00
1236.707, 13387.00
1237.784, 13441.00
1238.861, 13404.00
1239.938, 13388.00
1241.015, 13516.00
1242.092, 13291.00
1243.168, 13170.00
1244.244, 13421.00
1245.321, 13371.00
1246.397, 13380.00
1247.473, 13494.00
1248.548, 13613.00
1249.624, 13524.00
1250.699, 13630.00
1251.775, 13537.00
1252.850, 13500.00
1253.925, 13451.00
1254.999, 13448.00
1256.074, 13501.00
1257.148, 13424.00
1258.223, 13553.00
1259.297, 13524.00
1260.371, 13457.00
1261.445, 13528.00
1262.519, 13597.00
1263.592, 13528.00
1264.666, 13585.00
1265.739, 13679.00
1266.812, 13593.00
1267.885, 13714.00
1268.958, 13570.00
1270.030, 13746.00
1271.103, 13611.00
1272.175, 13754.00
1273.247, 13734.00
1274.319, 13609.00
1275.391, 13596.00
1276.463, 13683.00
1277.535, 13556.00
1278.606, 13668.00
1279.677, 13803.00
1280.748, 13888.00
1281.819, 13826.00
1282.890, 13759.00
1283.961, 13633.00
1285.031, 13624.80
1286.102, 13752.00
1287.172, 13629.00
1288.242, 13688.00
1289.312, 13810.00
1290.381, 13729.00
1291.451, 13968.00
1292.520, 13650.00
1293.590, 13835.00
1294.659, 13802.00
1295.728, 13652.00
1296.797, 13767.00
1297.865, 13700.22
1298.934, 14051.00
1300.002, 13756.00
1301.070, 13768.00
1302.138, 13904.00
1303.206, 13788.00
1304.274, 13894.00
1305.341, 13872.00
1306.409, 13882.00
1307.476, 13903.00
1308.543, 13945.00
1309.610, 13959.42
1310.677, 13946.00
1311.744, 14012.00
1312.810, 13993.00
1313.877, 14021.00
1314.943, 14075.00
1316.009, 14073.00
1317.075, 13988.00
1318.140, 14060.00
1319.206, 13972.00
1320.272, 14185.00
1321.337, 14111.00
1322.402, 14172.00
1323.467, 14228.00
1324.532, 14080.00
1325.596, 14139.00
1326.661, 14043.00
1327.725, 13944.00
1328.790, 13987.00
1329.854, 13978.00
1330.918, 13971.85
1331.981, 13986.64
1333.045, 14015.00
1334.108, 14035.00
1335.172, 14082.00
1336.235, 14084.54
1337.298, 14098.00
1338.361, 14108.00
1339.423, 14048.00
1340.486, 14072.00
1341.548, 14063.00
1342.611, 14048.00
1343.673, 14160.00
1344.735, 14198.00
1345.796, 14169.00
1346.858, 14197.00
1347.919, 14065.00
1348.981, 14076.00
1350.042, 14132.00
1351.103, 14266.00
1352.164, 14240.00
1353.225, 14178.00
1354.285, 14266.00
1355.346, 14196.00
1356.406, 14193.00
1357.466, 14231.00
1358.526, 14065.00
1359.586, 14309.00
1360.645, 14129.00
1361.705, 14191.00
1362.764, 14391.00
1363.823, 14143.00
1364.882, 14174.00
1365.941, 14350.00
1367.000, 14204.00
1368.059, 14238.00
1369.117, 14156.00
1370.175, 14382.00
1371.233, 14298.00
1372.291, 14377.00
1373.349, 14343.00
1374.407, 14336.00
1375.464, 14342.00
1376.522, 14350.00
1377.579, 14375.00
1378.636, 14280.00
1379.693, 14345.00
1380.750, 14381.00
1381.806, 14357.00
1382.863, 14465.00
1383.919, 14399.00
1384.975, 14353.00
1386.031, 14451.00
1387.087, 14349.00
1388.143, 14378.00
1389.199, 14471.00
1390.254, 14527.00
1391.309, 14400.00
1392.364, 14321.00
1393.419, 14565.00
1394.474, 14406.00
1395.529, 14479.00
1396.583, 14407.00
1397.638, 14563.00
1398.692, 14415.00
1399.746, 14510.19
1400.800, 14489.00
1401.853, 14486.00
1402.907, 14529.00
1403.960, 14483.40
1405.014, 14404.00
1406.067, 14467.00
1407.120, 14508.00
1408.173, 14590.00
1409.225, 14610.00
1410.278, 14555.00
1411.330, 14452.00
1412.383, 14497.00
1413.435, 14463.78
1414.487, 14727.00
1415.538, 14515.00
1416.590, 14581.00
1417.641, 14659.00
1418.693, 14382.00
1419.744, 14537.00
1420.795, 14412.00
1421.846, 14440.00
1422.897, 14691.00
1423.947, 14576.00
1424.998, 14668.00
1426.048, 14605.00
1427.098, 14749.00
1428.148, 14681.00
1429.198, 14682.00
1430.247, 14683.00
1431.297, 14613.00
1432.346, 14642.00
1433.396, 14840.00
1434.445, 14600.00
1435.494, 14808.00
1436.542, 14686.00
1437.591, 14740.00
1438.639, 14855.00
1439.688, 14657.00
1440.736, 14813.00
1441.784, 14690.00
1442.832, 14970.00
1443.880, 14882.00
1444.927, 14757.00
1445.975, 14918.00
1447.022, 15038.00
1448.069, 14974.00
1449.116, 14935.00
1450.163, 14898.00
1451.209, 14910.52
1452.256, 14886.00
1453.302, 14974.00
1454.348, 14999.00
1455.394, 15046.00
1456.440, 15040.00
1457.486, 15021.00
1458.532, 15027.85
1459.577, 15038.00
1460.623, 15029.00
1461.668, 14956.00
1462.713, 15014.00
1463.758, 14961.00
1464.802, 15019.00
1465.847, 14891.00
1466.891, 14975.00
1467.936, 14773.00
1468.980, 15090.00
1470.024, 14868.00
1471.067, 14884.00
1472.111, 15061.00
1473.155, 15016.00
1474.198, 15091.00
1475.241, 14967.00
1476.284, 14916.00
1477.327, 14957.00
1478.370, 15045.00
1479.413, 14988.15
1480.455, 15126.00
1481.497, 14996.00
1482.540, 14958.00
1483.582, 15068.00
1484.624, 14893.00
1485.665, 14863.00
1486.707, 14877.00
1487.748, 15027.00
1488.790, 14945.00
1489.831, 14794.00
1490.872, 15056.00
1491.912, 14932.00
1492.953, 15025.00
1493.994, 14921.00
1495.034, 14939.00
1496.074, 14945.00
1497.114, 15089.00
1498.154, 15050.00
1499.194, 15224.00
1500.234, 15163.00
1501.273, 15077.00
1502.313, 14897.00
1503.352, 15134.00
1504.391, 15059.00
1505.430, 14909.00
1506.468, 15063.00
1507.507, 15071.00
1508.545, 15120.00
1509.584, 15089.00
1510.622, 15134.00
1511.660, 15083.00
1512.698, 15114.00
1513.735, 15162.00
1514.773, 15204.00
1515.810, 15211.00
1516.848, 15298.00
1517.885, 15097.00
1518.922, 15228.00
1519.958, 15234.00
1520.995, 14935.00
1522.032, 15218.00
1523.068, 15348.00
1524.104, 15263.00
1525.140, 15292.00
1526.176, 15197.00
1527.212, 15314.00
1528.248, 15064.00
1529.283, 15399.00
1530.318, 15259.00
1531.353, 15232.00
1532.389, 15345.00
1533.423, 15212.00
1534.458, 15311.00
1535.493, 15316.00
1536.527, 15411.00
1537.561, 15476.00
1538.596, 15282.00
1539.630, 15512.00
1540.663, 15243.00
1541.697, 15348.00
1542.731, 15496.00
1543.764, 15412.00
1544.797, 15563.00
1545.830, 15319.00
1546.863, 15418.00
1547.896, 15265.00
1548.929, 15383.00
1549.961, 15376.00
1550.994, 15484.00
1552.026, 15334.00
1553.058, 15566.00
1554.090, 15432.00
1555.121, 15511.00
1556.153, 15348.00
1557.185, 15407.00
1558.216, 15476.00
1559.247, 15333.00
1560.278, 15567.00
1561.309, 15319.00
1562.340, 15344.00
1563.370, 15586.00
1564.401, 16052.00
1565.431, 16302.00
1566.461, 15899.00
1567.491, 15526.00
1568.521, 15399.00
1569.551, 15551.00
1570.580, 15616.00
1571.610, 15652.00
1572.639, 15510.00
1573.668, 15540.00
1574.697, 15417.00
1575.726, 15548.00
1576.754, 15592.00
1577.783, 15521.00
1578.811, 15636.00
1579.839, 15517.00
##END=



