##NAMES=Leucite
##RRUFFID=R060300
##IDEAL CHEMISTRY=K(Si_2_Al)O_6_
##LOCALITY=Alban Hills, Rome Province, Latium, Italy
##OWNER=RRUFF
##SOURCE=Herb Obodda
##DESCRIPTION=Colorless complete pseudocubic crystal showing trapezohedral faces
##STATUS=The identification of this mineral has been confirmed by X-ray diffraction and chemical analysis
##URL=rruff.info/R060300
##MEASURED CHEMISTRY=(K_0.98_Na_0.02_)_Î£=1_Al_1.00_Si_2.00_O_6_
##PIN_ID=M00574
##ORIENTATION=Laser parallel to -c* (0 0 -1). Fiducial mark perpendicular to laser is parallel to a [1 0 0]
83.90800, 9822.000
85.15000, 9810.000
86.39100, 9982.000
87.63200, 10111.00
88.87300, 10288.00
90.11400, 10578.00
91.35400, 10781.00
92.59500, 10716.00
93.83500, 10983.00
95.07500, 11018.00
96.31500, 11064.00
97.55400, 11087.00
98.79400, 10989.00
100.0330, 10824.00
101.2720, 10727.00
102.5110, 10481.00
103.7500, 10258.00
104.9890, 10354.00
106.2270, 10454.00
107.4650, 10560.00
108.7040, 10371.00
109.9420, 10461.00
111.1790, 10763.00
112.4170, 11057.00
113.6540, 11457.00
114.8920, 11749.00
116.1290, 11929.00
117.3650, 11982.00
118.6020, 11813.00
119.8390, 11502.00
121.0750, 11430.00
122.3110, 11191.00
123.5470, 10926.00
124.7830, 10533.00
126.0190, 10470.00
127.2540, 10533.00
128.4900, 10509.00
129.7250, 10745.00
130.9600, 11061.00
132.1950, 11217.00
133.4290, 11624.00
134.6640, 11942.00
135.8980, 12319.00
137.1320, 12825.00
138.3660, 13250.00
139.6000, 13477.00
140.8340, 13793.00
142.0670, 14299.00
143.3000, 14670.00
144.5330, 14978.56
145.7660, 15197.00
146.9990, 15573.00
148.2320, 15771.00
149.4640, 16061.00
150.6960, 16223.00
151.9280, 16291.52
153.1600, 16340.27
154.3920, 16306.00
155.6230, 16195.00
156.8550, 16120.00
158.0860, 15917.00
159.3170, 15482.00
160.5480, 15211.00
161.7780, 14888.00
163.0090, 14355.00
164.2390, 13977.00
165.4690, 13792.00
166.6990, 13367.00
167.9290, 13275.00
169.1590, 13120.00
170.3880, 13246.00
171.6180, 13295.00
172.8470, 13622.00
174.0760, 14120.00
175.3040, 14671.00
176.5330, 15362.00
177.7610, 15846.00
178.9900, 16331.00
180.2180, 16590.00
181.4460, 16856.00
182.6730, 16651.00
183.9010, 16604.00
185.1280, 16130.00
186.3560, 15700.00
187.5830, 15162.00
188.8100, 14641.00
190.0360, 13927.00
191.2630, 13374.00
192.4890, 12847.00
193.7150, 12223.00
194.9410, 11932.00
196.1670, 11533.00
197.3930, 11014.00
198.6180, 10855.00
199.8440, 10320.00
201.0690, 10264.00
202.2940, 10085.00
203.5190, 9851.000
204.7430, 9690.000
205.9680, 9601.000
207.1920, 9527.000
208.4160, 9439.000
209.6400, 9254.000
210.8640, 9270.000
212.0880, 9217.000
213.3110, 9086.000
214.5340, 9083.000
215.7570, 8975.000
216.9800, 8822.000
218.2030, 8906.000
219.4260, 8738.000
220.6480, 8531.000
221.8700, 8567.000
223.0920, 8514.000
224.3140, 8260.000
225.5360, 8259.000
226.7580, 7996.000
227.9790, 7983.000
229.2000, 7801.000
230.4210, 7626.000
231.6420, 7505.000
232.8630, 7414.245
234.0830, 7338.000
235.3040, 7293.000
236.5240, 7245.000
237.7440, 7173.000
238.9640, 7154.000
240.1830, 7076.000
241.4030, 6983.000
242.6220, 6904.000
243.8410, 6894.940
245.0600, 6920.000
246.2790, 6899.000
247.4980, 6898.000
248.7160, 6901.000
249.9340, 6823.000
251.1530, 6842.000
252.3710, 6804.000
253.5880, 6955.000
254.8060, 6977.000
256.0230, 6825.000
257.2410, 7014.000
258.4580, 6976.000
259.6750, 7049.000
260.8910, 7057.000
262.1080, 7053.000
263.3240, 7115.359
264.5410, 7077.000
265.7570, 7219.000
266.9730, 7179.000
268.1880, 7261.000
269.4040, 7273.000
270.6190, 7148.000
271.8350, 7315.000
273.0500, 7179.000
274.2650, 7168.000
275.4790, 7150.000
276.6940, 7184.000
277.9080, 7220.000
279.1220, 7194.000
280.3360, 7167.000
281.5500, 7268.000
282.7640, 7324.000
283.9770, 7345.000
285.1910, 7314.000
286.4040, 7511.000
287.6170, 7498.000
288.8300, 7722.000
290.0420, 7704.000
291.2550, 7833.000
292.4670, 7988.000
293.6790, 8113.000
294.8910, 8236.000
296.1030, 8553.000
297.3150, 8669.000
298.5260, 8712.000
299.7380, 8921.000
300.9490, 8911.000
302.1600, 8925.000
303.3710, 8965.000
304.5810, 8954.000
305.7920, 8755.000
307.0020, 8679.000
308.2120, 8680.000
309.4220, 8394.000
310.6320, 8351.000
311.8410, 8227.960
313.0510, 8244.484
314.2600, 8223.177
315.4690, 8166.020
316.6780, 7965.625
317.8870, 7950.191
319.0950, 7860.690
320.3040, 7768.094
321.5120, 7778.748
322.7200, 7599.246
323.9280, 7608.264
325.1360, 7542.029
326.3430, 7510.293
327.5510, 7403.919
328.7580, 7458.000
329.9650, 7321.000
331.1720, 7342.000
332.3790, 7360.000
333.5850, 7394.000
334.7910, 7353.000
335.9980, 7348.000
337.2040, 7237.000
338.4100, 7360.000
339.6150, 7264.547
340.8210, 7345.000
342.0260, 7249.000
343.2310, 7174.000
344.4360, 7311.000
345.6410, 7176.000
346.8460, 7182.000
348.0500, 7136.000
349.2550, 7066.000
350.4590, 7096.000
351.6630, 7179.000
352.8670, 7085.000
354.0700, 7136.000
355.2740, 7231.000
356.4770, 7176.000
357.6800, 7213.000
358.8830, 7203.000
360.0860, 7205.000
361.2890, 7231.000
362.4910, 7196.000
363.6930, 7194.000
364.8960, 7314.000
366.0980, 7265.000
367.2990, 7327.000
368.5010, 7309.000
369.7020, 7344.000
370.9040, 7352.779
372.1050, 7316.000
373.3060, 7335.000
374.5070, 7315.000
375.7070, 7244.000
376.9080, 7356.000
378.1080, 7287.000
379.3080, 7296.000
380.5080, 7320.000
381.7080, 7257.000
382.9070, 7311.000
384.1070, 7308.000
385.3060, 7311.000
386.5050, 7242.000
387.7040, 7479.000
388.9030, 7307.000
390.1010, 7260.000
391.3000, 7509.000
392.4980, 7389.000
393.6960, 7353.000
394.8940, 7410.000
396.0920, 7315.000
397.2890, 7344.000
398.4870, 7405.000
399.6840, 7392.000
400.8810, 7472.000
402.0780, 7339.000
403.2750, 7457.000
404.4710, 7414.000
405.6680, 7419.000
406.8640, 7574.000
408.0600, 7450.000
409.2560, 7440.000
410.4520, 7568.000
411.6470, 7676.000
412.8430, 7682.000
414.0380, 7736.000
415.2330, 7800.000
416.4280, 7948.000
417.6220, 8025.000
418.8170, 8178.000
420.0110, 8207.000
421.2050, 8295.000
422.4000, 8365.000
423.5930, 8496.000
424.7870, 8784.000
425.9810, 8895.000
427.1740, 9048.000
428.3670, 9154.000
429.5600, 9213.000
430.7530, 9324.000
431.9460, 9442.000
433.1380, 9403.000
434.3310, 9299.000
435.5230, 9105.000
436.7150, 9165.000
437.9070, 8965.000
439.0980, 8799.000
440.2900, 9035.000
441.4810, 8962.000
442.6720, 8525.000
443.8630, 8416.000
445.0540, 8447.000
446.2450, 8438.000
447.4350, 8364.000
448.6260, 8353.000
449.8160, 8550.000
451.0060, 8554.000
452.1960, 8623.000
453.3850, 8741.000
454.5750, 8848.000
455.7640, 8995.000
456.9530, 9242.000
458.1420, 9376.000
459.3310, 9520.000
460.5200, 9771.000
461.7080, 9770.000
462.8970, 10061.00
464.0850, 10197.00
465.2730, 10430.00
466.4610, 10697.00
467.6480, 11256.00
468.8360, 11634.00
470.0230, 12248.00
471.2100, 12960.00
472.3970, 13945.00
473.5840, 14927.00
474.7710, 16233.00
475.9570, 17822.00
477.1440, 19449.00
478.3300, 21180.00
479.5160, 22584.00
480.7020, 24783.00
481.8870, 26524.00
483.0730, 27758.00
484.2580, 29369.00
485.4430, 30464.00
486.6280, 31819.00
487.8130, 33174.00
488.9980, 34378.00
490.1820, 35691.00
491.3660, 37331.00
492.5510, 38924.00
493.7350, 40735.00
494.9180, 41688.00
496.1020, 42109.00
497.2860, 41849.00
498.4690, 41165.00
499.6520, 39890.00
500.8350, 38573.00
502.0180, 37573.00
503.2000, 36733.00
504.3830, 36495.00
505.5650, 36178.00
506.7470, 35630.00
507.9290, 35079.00
509.1110, 34168.00
510.2930, 32858.00
511.4740, 31440.00
512.6560, 30357.00
513.8370, 28690.00
515.0180, 27310.00
516.1980, 26566.00
517.3790, 25832.00
518.5600, 25906.00
519.7400, 25948.00
520.9200, 26424.00
522.1000, 27149.00
523.2800, 28266.00
524.4590, 29664.00
525.6390, 31127.00
526.8180, 32249.00
527.9970, 33270.00
529.1760, 33264.00
530.3550, 32758.00
531.5340, 31774.00
532.7120, 29729.00
533.8910, 27367.00
535.0690, 25199.00
536.2470, 22945.00
537.4250, 20736.00
538.6020, 18816.00
539.7800, 17221.00
540.9570, 16175.00
542.1340, 15293.00
543.3110, 14268.00
544.4880, 13680.00
545.6650, 13303.00
546.8410, 12582.00
548.0170, 12158.00
549.1940, 11805.00
550.3690, 11673.00
551.5450, 11220.00
552.7210, 11056.00
553.8960, 10880.00
555.0720, 10693.00
556.2470, 10464.00
557.4220, 10283.00
558.5970, 10098.00
559.7710, 9935.223
560.9460, 9806.000
562.1200, 9659.000
563.2940, 9567.000
564.4680, 9467.000
565.6420, 9324.000
566.8160, 9299.000
567.9890, 9234.000
569.1630, 9065.000
570.3360, 9218.000
571.5090, 8934.000
572.6820, 8854.000
573.8540, 8777.000
575.0270, 8832.000
576.1990, 8772.000
577.3710, 8763.000
578.5430, 8706.000
579.7150, 8713.000
580.8870, 8688.788
582.0580, 8763.000
583.2300, 8685.000
584.4010, 8732.000
585.5720, 8780.000
586.7430, 8633.000
587.9130, 8810.000
589.0840, 8832.000
590.2540, 8710.000
591.4240, 8700.000
592.5940, 8840.000
593.7640, 8782.000
594.9340, 8684.000
596.1030, 8813.000
597.2730, 8725.000
598.4420, 8729.000
599.6110, 8770.000
600.7800, 8641.000
601.9490, 8620.000
603.1170, 8699.000
604.2850, 8488.000
605.4540, 8577.000
606.6220, 8668.000
607.7900, 8565.000
608.9570, 8587.000
610.1250, 8614.000
611.2920, 8606.000
612.4590, 8636.510
613.6260, 8665.798
614.7930, 8690.000
615.9600, 8733.000
617.1270, 8792.000
618.2930, 8814.660
619.4590, 8819.000
620.6250, 8836.000
621.7910, 8897.000
622.9570, 8941.000
624.1220, 8953.000
625.2880, 8970.000
626.4530, 8950.568
627.6180, 9000.000
628.7830, 8894.000
629.9480, 8843.000
631.1120, 8830.000
632.2770, 8837.000
633.4410, 8940.000
634.6050, 8764.000
635.7690, 8822.000
636.9330, 8688.000
638.0960, 8716.000
639.2600, 8821.000
640.4230, 8681.000
641.5860, 8745.000
642.7490, 8845.000
643.9120, 8811.000
645.0740, 8859.713
646.2370, 8861.479
647.3990, 8881.000
648.5610, 8834.000
649.7230, 8866.000
650.8850, 8830.000
652.0460, 8806.000
653.2080, 8791.000
654.3690, 8748.000
655.5300, 8759.895
656.6910, 8752.199
657.8520, 8765.000
659.0130, 8791.000
660.1730, 8772.000
661.3330, 8839.000
662.4930, 8765.000
663.6530, 8795.000
664.8130, 8810.000
665.9730, 8843.000
667.1320, 8926.000
668.2920, 8982.000
669.4510, 8994.000
670.6100, 8916.000
671.7680, 8919.000
672.9270, 8881.000
674.0860, 8993.000
675.2440, 8944.955
676.4020, 9112.000
677.5600, 8965.000
678.7180, 8970.000
679.8760, 9056.000
681.0330, 9043.000
682.1900, 9043.000
683.3480, 9146.000
684.5050, 9108.000
685.6610, 9033.000
686.8180, 8950.000
687.9750, 8968.000
689.1310, 9068.000
690.2870, 8945.000
691.4430, 8993.000
692.5990, 9016.000
693.7550, 8901.000
694.9100, 8920.000
696.0660, 8765.000
697.2210, 8931.000
698.3760, 8777.000
699.5310, 8816.000
700.6860, 8824.000
701.8400, 8717.000
702.9940, 8813.000
704.1490, 8861.000
705.3030, 8904.000
706.4570, 8892.000
707.6100, 8922.000
708.7640, 9028.000
709.9170, 8901.000
711.0710, 8990.000
712.2240, 8939.000
713.3770, 9011.000
714.5290, 8995.000
715.6820, 9145.000
716.8340, 8977.000
717.9870, 9012.000
719.1390, 9128.000
720.2910, 9012.000
721.4430, 8997.000
722.5940, 9060.000
723.7460, 9152.000
724.8970, 9117.000
726.0480, 9109.212
727.1990, 9068.000
728.3500, 8997.000
729.5000, 9047.000
730.6510, 9007.000
731.8010, 9017.000
732.9510, 8957.000
734.1010, 9111.000
735.2510, 9036.000
736.4010, 9098.000
737.5500, 9133.000
738.7000, 9038.000
739.8490, 9152.000
740.9980, 9112.000
742.1470, 9168.000
743.2950, 9087.000
744.4440, 9071.000
745.5920, 9136.000
746.7400, 9047.000
747.8880, 9102.000
749.0360, 9065.000
750.1840, 9090.000
751.3310, 8998.000
752.4790, 9049.000
753.6260, 9031.000
754.7730, 9027.000
755.9200, 8995.000
757.0670, 8976.000
758.2130, 9051.000
759.3600, 9047.000
760.5060, 9004.000
761.6520, 9071.000
762.7980, 9013.000
763.9440, 9010.000
765.0890, 8937.000
766.2350, 9042.000
767.3800, 9083.000
768.5250, 9124.000
769.6700, 8913.000
770.8150, 8952.000
771.9590, 9023.000
773.1040, 9125.000
774.2480, 8967.000
775.3920, 9154.000
776.5360, 9090.000
777.6800, 8966.000
778.8240, 8992.000
779.9670, 8951.000
781.1100, 9084.000
782.2540, 8992.000
783.3970, 9092.000
784.5390, 9026.000
785.6820, 9016.000
786.8240, 9070.000
787.9670, 9046.862
789.1090, 9079.479
790.2510, 9072.000
791.3930, 9158.000
792.5350, 9155.000
793.6760, 9263.000
794.8170, 9117.000
795.9590, 9146.000
797.1000, 9295.000
798.2410, 9198.000
799.3810, 9275.000
800.5220, 9129.000
801.6620, 9230.000
802.8030, 9212.000
803.9430, 9233.000
805.0820, 9207.000
806.2220, 9230.000
807.3620, 9211.609
808.5010, 9093.000
809.6410, 9163.000
810.7800, 9152.000
811.9190, 9088.000
813.0570, 9144.000
814.1960, 9147.000
815.3340, 9111.000
816.4730, 9203.000
817.6110, 9115.000
818.7490, 9143.000
819.8870, 9177.000
821.0240, 9167.000
822.1620, 9039.000
823.2990, 9111.991
824.4360, 9105.627
825.5730, 9161.000
826.7100, 9202.000
827.8470, 9225.000
828.9830, 9289.000
830.1200, 9303.000
831.2560, 9358.000
832.3920, 9256.000
833.5280, 9304.000
834.6630, 9183.000
835.7990, 9244.000
836.9340, 9289.000
838.0700, 9323.000
839.2050, 9363.000
840.3400, 9377.766
841.4740, 9390.366
842.6090, 9397.000
843.7430, 9394.000
844.8780, 9397.000
846.0120, 9399.000
847.1460, 9380.000
848.2790, 9416.000
849.4130, 9328.000
850.5460, 9416.000
851.6800, 9535.000
852.8130, 9430.000
853.9460, 9492.000
855.0790, 9412.000
856.2110, 9491.000
857.3440, 9564.000
858.4760, 9677.000
859.6080, 9579.000
860.7400, 9772.000
861.8720, 9459.000
863.0040, 9617.000
864.1350, 9656.000
865.2670, 9572.000
866.3980, 9616.000
867.5290, 9573.000
868.6600, 9538.000
869.7900, 9541.000
870.9210, 9618.000
872.0510, 9608.000
873.1820, 9624.000
874.3120, 9620.000
875.4420, 9628.727
876.5710, 9639.000
877.7010, 9671.000
878.8300, 9647.000
879.9600, 9717.000
881.0890, 9663.000
882.2180, 9762.000
883.3460, 9670.000
884.4750, 9583.000
885.6040, 9624.000
886.7320, 9687.000
887.8600, 9767.000
888.9880, 9655.000
890.1160, 9676.000
891.2430, 9734.000
892.3710, 9628.000
893.4980, 9773.000
894.6260, 9718.000
895.7530, 9790.000
896.8790, 9813.000
898.0060, 9792.000
899.1330, 9727.000
900.2590, 9798.000
901.3850, 9708.000
902.5110, 9889.000
903.6370, 9886.000
904.7630, 9798.000
905.8890, 9711.000
907.0140, 9860.893
908.1390, 9967.416
909.2640, 10036.05
910.3890, 10068.83
911.5140, 9958.383
912.6390, 10032.89
913.7630, 10033.26
914.8870, 10030.58
916.0120, 10131.12
917.1360, 10041.48
918.2590, 10140.35
919.3830, 10163.98
920.5070, 10222.05
921.6300, 10205.53
922.7530, 10212.04
923.8760, 10293.15
924.9990, 10332.95
926.1220, 10307.84
927.2440, 10368.07
928.3670, 10275.81
929.4890, 10317.36
930.6110, 10416.64
931.7330, 10395.26
932.8540, 10456.83
933.9760, 10273.00
935.0980, 10491.00
936.2190, 10566.00
937.3400, 10399.00
938.4610, 10511.00
939.5820, 10561.00
940.7020, 10481.00
941.8230, 10547.00
942.9430, 10633.00
944.0630, 10605.00
945.1830, 10757.00
946.3030, 10729.00
947.4230, 10734.00
948.5420, 10818.00
949.6610, 10847.00
950.7810, 10933.00
951.9000, 11044.00
953.0190, 11085.00
954.1370, 11076.00
955.2560, 11199.00
956.3740, 11056.00
957.4920, 11501.00
958.6110, 11343.36
959.7280, 11297.31
960.8460, 11308.00
961.9640, 11129.00
963.0810, 11154.00
964.1990, 11302.00
965.3160, 11172.00
966.4330, 11338.00
967.5490, 11226.00
968.6660, 11459.00
969.7830, 11229.00
970.8990, 11434.00
972.0150, 11381.00
973.1310, 11284.00
974.2470, 11334.00
975.3630, 11285.00
976.4780, 11347.00
977.5930, 11246.00
978.7090, 11322.00
979.8240, 11422.00
980.9390, 11378.00
982.0530, 11603.00
983.1680, 11510.00
984.2820, 11536.00
985.3970, 11402.00
986.5110, 11485.00
987.6250, 11495.00
988.7380, 11597.00
989.8520, 11582.00
990.9660, 11669.00
992.0790, 11558.00
993.1920, 11716.00
994.3050, 11722.00
995.4180, 11635.00
996.5300, 11682.00
997.6430, 11814.00
998.7550, 11798.00
999.8680, 11875.00
1000.980, 11996.00
1002.091, 12138.00
1003.203, 12053.00
1004.315, 12030.00
1005.426, 11889.00
1006.537, 11837.00
1007.648, 11862.00
1008.759, 11970.00
1009.870, 11909.00
1010.981, 11969.00
1012.091, 11973.00
1013.201, 11858.00
1014.312, 11862.00
1015.422, 12009.00
1016.531, 12014.00
1017.641, 12111.00
1018.751, 12055.00
1019.860, 12019.00
1020.969, 12149.00
1022.078, 12128.00
1023.187, 11967.00
1024.296, 12246.00
1025.404, 12219.00
1026.513, 12181.00
1027.621, 12310.00
1028.729, 12272.18
1029.837, 12252.00
1030.945, 12226.00
1032.052, 12271.00
1033.160, 12064.00
1034.267, 12212.00
1035.374, 12250.00
1036.481, 12162.00
1037.588, 12388.00
1038.695, 12280.00
1039.801, 12274.00
1040.907, 12302.00
1042.014, 12438.00
1043.120, 12439.00
1044.225, 12369.00
1045.331, 12495.00
1046.437, 12504.00
1047.542, 12558.00
1048.647, 12712.00
1049.752, 12685.00
1050.857, 12836.00
1051.962, 12818.00
1053.067, 12887.00
1054.171, 12974.00
1055.275, 12978.00
1056.380, 13007.00
1057.484, 13041.00
1058.587, 12862.00
1059.691, 13023.00
1060.795, 12957.00
1061.898, 12992.00
1063.001, 13169.00
1064.104, 12959.00
1065.207, 13036.00
1066.310, 13014.00
1067.412, 12942.00
1068.515, 12924.00
1069.617, 12964.00
1070.719, 12919.00
1071.821, 12994.00
1072.923, 12721.00
1074.024, 12916.00
1075.126, 12820.00
1076.227, 12777.00
1077.328, 12853.00
1078.429, 12755.00
1079.530, 12854.00
1080.631, 12831.00
1081.731, 12790.00
1082.831, 12870.00
1083.932, 12815.00
1085.032, 12709.00
1086.132, 12613.00
1087.231, 12814.00
1088.331, 12705.00
1089.430, 12676.00
1090.530, 12686.00
1091.629, 12652.00
1092.728, 12655.12
1093.826, 12657.74
1094.925, 12673.00
1096.023, 12676.00
1097.122, 12728.00
1098.220, 12753.00
1099.318, 12645.00
1100.416, 12628.00
1101.513, 12661.00
1102.611, 12634.51
1103.708, 12661.00
1104.806, 12649.00
1105.903, 12674.00
1107.000, 12622.00
1108.096, 12830.00
1109.193, 12867.00
1110.289, 12735.00
1111.386, 12681.00
1112.482, 12543.00
1113.578, 12683.00
1114.673, 12696.00
1115.769, 12737.00
1116.865, 12540.00
1117.960, 12598.00
1119.055, 12622.00
1120.150, 12633.00
1121.245, 12602.00
1122.340, 12616.00
1123.434, 12520.00
1124.529, 12475.00
1125.623, 12610.00
1126.717, 12482.00
1127.811, 12521.42
1128.905, 12593.00
1129.998, 12480.00
1131.092, 12607.00
1132.185, 12552.00
1133.278, 12463.00
1134.371, 12505.00
1135.464, 12449.00
1136.557, 12505.00
1137.649, 12482.00
1138.742, 12390.00
1139.834, 12310.00
1140.926, 12297.00
1142.018, 12367.00
1143.109, 12355.00
1144.201, 12460.00
1145.292, 12461.00
1146.384, 12435.29
1147.475, 12321.00
1148.566, 12364.00
1149.657, 12246.00
1150.747, 12230.00
1151.838, 12211.00
1152.928, 12046.00
1154.018, 12080.00
1155.108, 12258.00
1156.198, 12133.00
1157.288, 12098.00
1158.377, 12069.00
1159.467, 12016.43
1160.556, 12013.00
1161.645, 12003.00
1162.734, 11990.00
1163.823, 12052.00
1164.911, 11958.00
1166.000, 11928.00
1167.088, 11910.00
1168.176, 11779.00
1169.264, 11905.00
1170.352, 11724.00
1171.440, 11894.00
1172.527, 11795.00
1173.615, 11885.00
1174.702, 11840.00
1175.789, 11734.00
1176.876, 11762.00
1177.963, 11719.00
1179.049, 11703.00
1180.136, 11682.00
1181.222, 11635.00
1182.308, 11740.00
1183.394, 11705.00
1184.480, 11736.00
1185.566, 11688.00
1186.651, 11760.00
1187.736, 11702.00
1188.822, 11692.00
1189.907, 11746.00
1190.992, 11824.00
1192.076, 11721.00
1193.161, 11701.00
1194.245, 11872.00
1195.330, 11827.00
1196.414, 11809.00
1197.498, 11773.00
1198.581, 11841.00
1199.665, 11720.00
1200.749, 11807.00
1201.832, 11712.00
1202.915, 11669.00
1203.998, 11785.00
1205.081, 11728.00
1206.164, 11800.00
1207.246, 11737.00
1208.329, 11793.00
1209.411, 11737.00
1210.493, 11727.00
1211.575, 11779.00
1212.657, 11843.00
1213.738, 11969.00
1214.820, 11851.00
1215.901, 11918.00
1216.982, 11825.00
1218.063, 11777.00
1219.144, 11846.00
1220.225, 11832.00
1221.305, 11904.00
1222.386, 11931.00
1223.466, 12002.00
1224.546, 11978.44
1225.626, 11931.00
1226.706, 11910.00
1227.785, 11869.00
1228.865, 11810.00
1229.944, 11887.00
1231.023, 11985.00
1232.102, 11871.00
1233.181, 11926.00
1234.260, 11842.00
1235.338, 11919.00
1236.417, 11977.00
1237.495, 12032.00
1238.573, 12081.00
1239.651, 12042.00
1240.729, 11998.00
1241.806, 12125.00
1242.884, 12018.00
1243.961, 11911.00
1245.038, 12127.00
1246.115, 11915.00
1247.192, 12070.00
1248.269, 12046.00
1249.345, 12114.00
1250.421, 12022.00
1251.498, 12059.00
1252.574, 12174.00
1253.650, 12017.00
1254.725, 11941.00
1255.801, 12208.00
1256.876, 12092.00
1257.952, 12202.00
1259.027, 12008.00
1260.102, 12181.00
1261.177, 12203.00
1262.251, 12176.00
1263.326, 12108.00
1264.400, 12138.00
1265.474, 12213.00
1266.548, 12293.00
1267.622, 12275.35
1268.696, 12293.42
1269.770, 12240.00
1270.843, 12284.00
1271.916, 12249.00
1272.990, 12327.00
1274.063, 12268.00
1275.135, 12230.00
1276.208, 12273.00
1277.281, 12238.00
1278.353, 12139.00
1279.425, 12292.00
1280.497, 12320.00
1281.569, 12283.00
1282.641, 12120.00
1283.712, 12293.00
1284.784, 12120.00
1285.855, 12466.00
1286.926, 12288.00
1287.997, 12330.00
1289.068, 12316.00
1290.139, 12288.00
1291.209, 12304.00
1292.280, 12324.00
1293.350, 12330.00
1294.420, 12296.00
1295.490, 12291.00
1296.560, 12325.00
1297.629, 12409.00
1298.699, 12454.00
1299.768, 12460.00
1300.837, 12354.00
1301.906, 12405.83
1302.975, 12431.00
1304.043, 12465.00
1305.112, 12493.89
1306.180, 12384.00
1307.249, 12544.00
1308.317, 12406.00
1309.385, 12423.00
1310.452, 12677.00
1311.520, 12464.00
1312.587, 12522.00
1313.655, 12484.00
1314.722, 12521.00
1315.789, 12653.00
1316.856, 12671.00
1317.922, 12582.00
1318.989, 12518.00
1320.055, 12517.00
1321.121, 12505.33
1322.187, 12464.00
1323.253, 12547.00
1324.319, 12596.00
1325.385, 12594.00
1326.450, 12508.00
1327.515, 12536.00
1328.581, 12565.00
1329.646, 12639.00
1330.710, 12549.00
1331.775, 12451.00
1332.840, 12528.00
1333.904, 12610.00
1334.968, 12661.00
1336.032, 12454.00
1337.096, 12364.00
1338.160, 12509.00
1339.224, 12563.00
1340.287, 12683.00
1341.350, 12584.00
1342.414, 12603.00
1343.477, 12709.00
1344.539, 12618.00
1345.602, 12690.00
1346.665, 12726.00
1347.727, 12724.00
1348.789, 12598.00
1349.851, 12541.00
1350.913, 12539.00
1351.975, 12662.00
1353.037, 12698.00
1354.098, 12787.00
1355.160, 12685.00
1356.221, 12784.00
1357.282, 12605.00
1358.343, 12638.00
1359.403, 12640.00
1360.464, 12733.00
1361.524, 12743.00
1362.585, 12691.00
1363.645, 12968.00
1364.705, 12677.00
1365.765, 12881.00
1366.824, 12873.00
1367.884, 12755.00
1368.943, 12823.00
1370.002, 12920.00
1371.061, 12861.00
1372.120, 12804.00
1373.179, 12902.00
1374.237, 12810.00
1375.296, 12884.00
1376.354, 12897.00
1377.412, 12782.00
1378.470, 12860.00
1379.528, 12957.00
1380.586, 12925.00
1381.643, 12934.00
1382.701, 12903.00
1383.758, 12903.00
1384.815, 12872.00
1385.872, 12878.00
1386.929, 12837.00
1387.985, 13024.00
1389.042, 12912.00
1390.098, 13056.00
1391.154, 12908.00
1392.210, 12952.00
1393.266, 13035.00
1394.322, 12849.00
1395.377, 12957.00
1396.433, 13012.00
1397.488, 12878.00
1398.543, 13033.00
1399.598, 12886.00
1400.653, 13027.00
1401.707, 12977.00
1402.762, 13140.00
1403.816, 13139.00
1404.870, 12973.00
1405.924, 12941.00
1406.978, 12774.00
1408.032, 12955.00
1409.085, 12978.00
1410.139, 13109.00
1411.192, 13039.00
1412.245, 12990.00
1413.298, 13166.00
1414.351, 13032.00
1415.404, 12951.00
1416.456, 13117.00
1417.509, 13068.00
1418.561, 12956.00
1419.613, 13143.00
1420.665, 13082.00
1421.717, 13181.00
1422.768, 13162.00
1423.820, 13138.00
1424.871, 13146.00
1425.922, 13210.00
1426.973, 13120.00
1428.024, 13218.00
1429.075, 13337.00
1430.125, 13209.00
1431.175, 13319.09
1432.226, 13133.00
1433.276, 13357.00
1434.326, 13264.00
1435.376, 13249.00
1436.425, 13309.00
1437.475, 13376.00
1438.524, 13386.00
1439.573, 13351.00
1440.622, 13491.00
1441.671, 13535.00
1442.720, 13632.00
1443.768, 13421.00
1444.817, 13562.00
1445.865, 13682.00
1446.913, 13495.00
1447.961, 13552.00
1449.009, 13541.00
1450.057, 13590.13
1451.104, 13707.00
1452.152, 13813.00
1453.199, 13598.00
1454.246, 13713.00
1455.293, 13674.00
1456.339, 13683.00
1457.386, 13727.00
1458.433, 13729.00
1459.479, 13618.00
1460.525, 13548.00
1461.571, 13537.00
1462.617, 13570.00
1463.663, 13498.00
1464.708, 13605.00
1465.754, 13591.00
1466.799, 13558.00
1467.844, 13611.00
1468.889, 13599.00
1469.934, 13591.00
1470.978, 13488.00
1472.023, 13639.00
1473.067, 13556.00
1474.111, 13504.00
1475.155, 13546.00
1476.199, 13529.77
1477.243, 13540.00
1478.287, 13569.00
1479.330, 13585.00
1480.373, 13544.00
1481.417, 13580.27
1482.460, 13567.24
1483.502, 13605.00
1484.545, 13596.00
1485.588, 13602.00
1486.630, 13678.00
1487.672, 13570.00
1488.714, 13615.00
1489.756, 13518.00
1490.798, 13576.00
1491.840, 13667.00
1492.881, 13621.00
1493.923, 13700.00
1494.964, 13603.00
1496.005, 13545.00
1497.046, 13614.00
1498.087, 13530.00
1499.127, 13553.00
1500.168, 13598.00
1501.208, 13575.94
1502.248, 13736.00
1503.288, 13651.00
1504.328, 13637.00
1505.368, 13764.00
1506.407, 13682.00
1507.446, 13672.00
1508.486, 13597.00
1509.525, 13621.00
1510.564, 13740.00
1511.603, 13592.00
1512.641, 13704.00
1513.680, 13604.00
1514.718, 13628.00
1515.756, 13906.00
1516.794, 13726.00
1517.832, 13793.00
1518.870, 13824.00
1519.907, 13693.00
1520.945, 13657.00
1521.982, 13794.00
1523.019, 13767.00
1524.056, 13722.00
1525.093, 13797.00
1526.130, 13774.83
1527.166, 13828.00
1528.203, 13819.00
1529.239, 13806.00
1530.275, 13838.00
1531.311, 13859.00
1532.347, 13773.00
1533.383, 13865.00
1534.418, 13892.00
1535.453, 13749.00
1536.489, 13886.00
1537.524, 13878.00
1538.559, 13911.00
1539.593, 14015.00
1540.628, 14053.00
1541.662, 13892.00
1542.697, 13949.00
1543.731, 13839.00
1544.765, 14007.00
1545.799, 13875.00
1546.832, 13917.00
1547.866, 13963.00
1548.899, 13902.00
1549.933, 14101.00
1550.966, 13925.00
1551.999, 13823.00
1553.031, 14115.00
1554.064, 13857.00
1555.097, 14142.00
1556.129, 13965.00
1557.161, 14024.00
1558.193, 13982.00
1559.225, 13917.00
1560.257, 13961.00
1561.289, 14033.00
1562.320, 13951.00
1563.351, 14041.00
1564.383, 13967.00
1565.414, 13986.00
1566.444, 13904.00
1567.475, 14083.00
1568.506, 13975.00
1569.536, 14026.00
1570.566, 14224.00
1571.597, 13929.00
1572.627, 13986.00
1573.656, 13976.00
1574.686, 14008.00
1575.716, 13985.00
1576.745, 14021.00
1577.774, 13962.00
##END=



