##NAMES=Leucite
##RRUFFID=R060300
##IDEAL CHEMISTRY=K(Si_2_Al)O_6_
##LOCALITY=Alban Hills, Rome Province, Latium, Italy
##OWNER=RRUFF
##SOURCE=Herb Obodda
##DESCRIPTION=Colorless complete pseudocubic crystal showing trapezohedral faces
##STATUS=The identification of this mineral has been confirmed by X-ray diffraction and chemical analysis
##URL=rruff.info/R060300
##MEASURED CHEMISTRY=(K_0.98_Na_0.02_)_Î£=1_Al_1.00_Si_2.00_O_6_
##PIN_ID=M00574
##ORIENTATION=Laser parallel to -c* (0 0 -1). Fiducial mark perpendicular to laser is parallel to a [1 0 0]
71.48500, 8091.000
72.72800, 8418.000
73.97100, 9240.000
75.21400, 10068.00
76.45600, 10716.00
77.69900, 11352.00
78.94100, 11931.00
80.18300, 12485.00
81.42500, 12498.00
82.66700, 12610.00
83.90800, 12584.00
85.15000, 12281.00
86.39100, 12017.00
87.63200, 11710.00
88.87300, 11383.00
90.11400, 11254.00
91.35400, 11160.00
92.59500, 10919.00
93.83500, 10882.00
95.07500, 10765.00
96.31500, 10517.00
97.55400, 10405.00
98.79400, 10353.00
100.0330, 10409.00
101.2720, 10130.00
102.5110, 10251.00
103.7500, 10047.04
104.9890, 10187.84
106.2270, 10297.60
107.4650, 10378.04
108.7040, 10341.42
109.9420, 10455.99
111.1790, 10509.88
112.4170, 10561.35
113.6540, 10656.00
114.8920, 10665.60
116.1290, 10804.14
117.3650, 10827.00
118.6020, 10776.00
119.8390, 10482.00
121.0750, 10171.00
122.3110, 10091.00
123.5470, 9918.000
124.7830, 9676.000
126.0190, 9798.000
127.2540, 9709.000
128.4900, 9744.000
129.7250, 9868.000
130.9600, 9952.856
132.1950, 10268.00
133.4290, 10351.00
134.6640, 10681.00
135.8980, 11038.00
137.1320, 11151.00
138.3660, 11611.00
139.6000, 11865.00
140.8340, 12068.00
142.0670, 12328.00
143.3000, 12667.00
144.5330, 12912.00
145.7660, 13262.27
146.9990, 13751.00
148.2320, 13853.00
149.4640, 14039.00
150.6960, 14116.00
151.9280, 14083.00
153.1600, 14228.00
154.3920, 14323.00
155.6230, 14045.00
156.8550, 14069.00
158.0860, 13925.00
159.3170, 13655.00
160.5480, 13247.00
161.7780, 13066.00
163.0090, 12817.00
164.2390, 12437.00
165.4690, 12268.00
166.6990, 12016.00
167.9290, 11884.00
169.1590, 11771.00
170.3880, 11627.00
171.6180, 11627.00
172.8470, 11854.00
174.0760, 12088.00
175.3040, 12357.00
176.5330, 12598.00
177.7610, 12895.00
178.9900, 13343.00
180.2180, 13483.00
181.4460, 13561.00
182.6730, 13465.00
183.9010, 13231.00
185.1280, 12951.00
186.3560, 12759.00
187.5830, 12524.00
188.8100, 12174.00
190.0360, 11960.00
191.2630, 11525.00
192.4890, 11361.00
193.7150, 11080.00
194.9410, 10655.00
196.1670, 10539.00
197.3930, 10151.00
198.6180, 10201.00
199.8440, 9845.000
201.0690, 9758.000
202.2940, 9671.000
203.5190, 9686.000
204.7430, 9421.000
205.9680, 9309.000
207.1920, 9232.000
208.4160, 9331.000
209.6400, 9368.000
210.8640, 9273.000
212.0880, 9316.000
213.3110, 9210.000
214.5340, 9159.000
215.7570, 8940.000
216.9800, 9005.000
218.2030, 8852.000
219.4260, 8800.000
220.6480, 8660.000
221.8700, 8622.000
223.0920, 8514.853
224.3140, 8366.000
225.5360, 8326.000
226.7580, 8229.000
227.9790, 8135.000
229.2000, 8131.000
230.4210, 7951.000
231.6420, 7877.000
232.8630, 7851.000
234.0830, 7814.000
235.3040, 7814.000
236.5240, 7769.081
237.7440, 7741.818
238.9640, 7694.000
240.1830, 7677.000
241.4030, 7634.000
242.6220, 7612.000
243.8410, 7606.151
245.0600, 7594.276
246.2790, 7619.000
247.4980, 7609.000
248.7160, 7651.000
249.9340, 7683.000
251.1530, 7683.580
252.3710, 7601.000
253.5880, 7656.000
254.8060, 7692.000
256.0230, 7583.000
257.2410, 7723.000
258.4580, 7808.000
259.6750, 7724.000
260.8910, 7705.000
262.1080, 7812.000
263.3240, 7718.000
264.5410, 7866.000
265.7570, 7901.000
266.9730, 7822.000
268.1880, 7989.000
269.4040, 7935.000
270.6190, 7817.000
271.8350, 7884.000
273.0500, 7881.000
274.2650, 7890.000
275.4790, 7801.000
276.6940, 7931.000
277.9080, 7877.000
279.1220, 8012.000
280.3360, 7949.000
281.5500, 8037.000
282.7640, 8006.000
283.9770, 8083.000
285.1910, 8090.000
286.4040, 8145.000
287.6170, 8085.000
288.8300, 8240.000
290.0420, 8244.000
291.2550, 8350.000
292.4670, 8440.000
293.6790, 8576.000
294.8910, 8721.000
296.1030, 8875.000
297.3150, 8998.000
298.5260, 8989.000
299.7380, 9213.000
300.9490, 9183.000
302.1600, 9396.000
303.3710, 9272.000
304.5810, 9294.000
305.7920, 9130.000
307.0020, 9143.000
308.2120, 9083.000
309.4220, 9023.000
310.6320, 8984.000
311.8410, 8820.000
313.0510, 8850.000
314.2600, 8759.000
315.4690, 8746.000
316.6780, 8725.000
317.8870, 8672.000
319.0950, 8745.000
320.3040, 8613.000
321.5120, 8652.000
322.7200, 8601.000
323.9280, 8686.000
325.1360, 8705.000
326.3430, 8633.000
327.5510, 8629.000
328.7580, 8623.000
329.9650, 8692.000
331.1720, 8749.000
332.3790, 8761.000
333.5850, 8747.000
334.7910, 8763.000
335.9980, 8781.575
337.2040, 8796.000
338.4100, 8826.000
339.6150, 8843.000
340.8210, 8852.000
342.0260, 8854.000
343.2310, 8772.000
344.4360, 8661.000
345.6410, 8788.000
346.8460, 8678.000
348.0500, 8567.000
349.2550, 8640.000
350.4590, 8634.000
351.6630, 8597.000
352.8670, 8543.000
354.0700, 8658.000
355.2740, 8511.000
356.4770, 8566.000
357.6800, 8623.000
358.8830, 8585.000
360.0860, 8677.000
361.2890, 8688.194
362.4910, 8661.000
363.6930, 8741.000
364.8960, 8734.000
366.0980, 8725.000
367.2990, 8776.000
368.5010, 8730.000
369.7020, 8838.000
370.9040, 8851.000
372.1050, 8836.000
373.3060, 8784.000
374.5070, 8861.000
375.7070, 8886.000
376.9080, 8841.000
378.1080, 8903.000
379.3080, 8885.000
380.5080, 8892.000
381.7080, 8907.000
382.9070, 8826.000
384.1070, 8980.000
385.3060, 9017.000
386.5050, 8898.000
387.7040, 9131.000
388.9030, 9002.000
390.1010, 8984.000
391.3000, 9118.000
392.4980, 9082.000
393.6960, 8958.000
394.8940, 8949.000
396.0920, 8946.000
397.2890, 9070.000
398.4870, 9021.000
399.6840, 8920.000
400.8810, 8856.000
402.0780, 8981.000
403.2750, 8933.000
404.4710, 8925.000
405.6680, 8919.000
406.8640, 8823.000
408.0600, 8785.000
409.2560, 8800.580
410.4520, 8848.000
411.6470, 8870.000
412.8430, 8954.000
414.0380, 9052.000
415.2330, 9006.000
416.4280, 8998.000
417.6220, 9115.000
418.8170, 9103.000
420.0110, 9234.000
421.2050, 9240.000
422.4000, 9351.000
423.5930, 9528.000
424.7870, 9615.000
425.9810, 9578.000
427.1740, 9734.000
428.3670, 9576.000
429.5600, 9931.000
430.7530, 9956.000
431.9460, 9968.000
433.1380, 9883.000
434.3310, 9890.000
435.5230, 9783.000
436.7150, 9743.000
437.9070, 9769.000
439.0980, 9485.000
440.2900, 9572.000
441.4810, 9439.000
442.6720, 9457.000
443.8630, 9482.000
445.0540, 9475.000
446.2450, 9453.000
447.4350, 9411.000
448.6260, 9465.000
449.8160, 9428.000
451.0060, 9441.000
452.1960, 9568.000
453.3850, 9755.000
454.5750, 9698.000
455.7640, 9851.000
456.9530, 9974.000
458.1420, 10040.00
459.3310, 10038.00
460.5200, 10330.00
461.7080, 10286.00
462.8970, 10444.00
464.0850, 10587.00
465.2730, 10824.00
466.4610, 11044.00
467.6480, 11505.00
468.8360, 11802.00
470.0230, 12219.00
471.2100, 12779.00
472.3970, 13480.00
473.5840, 14276.00
474.7710, 15163.00
475.9570, 16173.48
477.1440, 17265.00
478.3300, 18494.00
479.5160, 19839.00
480.7020, 21265.00
481.8870, 22505.00
483.0730, 23560.00
484.2580, 24764.00
485.4430, 25781.00
486.6280, 26763.00
487.8130, 27839.00
488.9980, 29098.00
490.1820, 30086.00
491.3660, 31698.00
492.5510, 32581.00
493.7350, 34125.00
494.9180, 34835.00
496.1020, 35032.00
497.2860, 34961.00
498.4690, 34404.00
499.6520, 33442.00
500.8350, 32409.00
502.0180, 31654.00
503.2000, 30853.00
504.3830, 30531.00
505.5650, 30116.00
506.7470, 29894.00
507.9290, 29684.00
509.1110, 28718.00
510.2930, 27881.00
511.4740, 26710.00
512.6560, 25641.00
513.8370, 24662.00
515.0180, 23637.00
516.1980, 22834.00
517.3790, 22851.00
518.5600, 22368.00
519.7400, 22501.00
520.9200, 22781.00
522.1000, 23605.00
523.2800, 24272.00
524.4590, 25203.00
525.6390, 26395.00
526.8180, 27358.00
527.9970, 27986.00
529.1760, 28176.00
530.3550, 27720.00
531.5340, 26851.00
532.7120, 25420.00
533.8910, 23911.00
535.0690, 22087.00
536.2470, 20255.00
537.4250, 18761.00
538.6020, 17463.00
539.7800, 16318.00
540.9570, 15425.00
542.1340, 14716.00
543.3110, 14045.00
544.4880, 13681.00
545.6650, 13126.00
546.8410, 12708.00
548.0170, 12535.00
549.1940, 12255.00
550.3690, 12112.00
551.5450, 11897.00
552.7210, 11613.00
553.8960, 11556.00
555.0720, 11279.00
556.2470, 11285.00
557.4220, 11134.00
558.5970, 10908.00
559.7710, 10987.00
560.9460, 10732.00
562.1200, 10652.00
563.2940, 10695.00
564.4680, 10494.00
565.6420, 10520.00
566.8160, 10413.00
567.9890, 10441.00
569.1630, 10265.00
570.3360, 10204.00
571.5090, 10231.00
572.6820, 10174.00
573.8540, 10149.00
575.0270, 10062.00
576.1990, 10124.00
577.3710, 10072.00
578.5430, 10084.00
579.7150, 10055.00
580.8870, 10081.00
582.0580, 10050.00
583.2300, 10025.00
584.4010, 10057.00
585.5720, 10125.00
586.7430, 10190.00
587.9130, 10053.00
589.0840, 10164.00
590.2540, 10232.00
591.4240, 10040.00
592.5940, 9973.000
593.7640, 10164.00
594.9340, 10102.00
596.1030, 10160.00
597.2730, 10114.00
598.4420, 10186.00
599.6110, 10132.00
600.7800, 10136.00
601.9490, 10104.00
603.1170, 10135.00
604.2850, 10124.00
605.4540, 10087.00
606.6220, 10102.00
607.7900, 10172.00
608.9570, 10134.00
610.1250, 10063.00
611.2920, 10110.00
612.4590, 10055.00
613.6260, 10174.00
614.7930, 10364.00
615.9600, 10219.00
617.1270, 10214.00
618.2930, 10410.00
619.4590, 10265.00
620.6250, 10395.00
621.7910, 10376.00
622.9570, 10326.00
624.1220, 10479.00
625.2880, 10475.00
626.4530, 10502.00
627.6180, 10618.00
628.7830, 10562.00
629.9480, 10470.00
631.1120, 10543.00
632.2770, 10408.00
633.4410, 10354.00
634.6050, 10414.00
635.7690, 10335.00
636.9330, 10423.00
638.0960, 10426.27
639.2600, 10226.00
640.4230, 10444.00
641.5860, 10379.00
642.7490, 10293.00
643.9120, 10478.00
645.0740, 10268.00
646.2370, 10439.00
647.3990, 10360.00
648.5610, 10505.00
649.7230, 10401.00
650.8850, 10426.00
652.0460, 10428.00
653.2080, 10403.00
654.3690, 10503.00
655.5300, 10556.00
656.6910, 10543.08
657.8520, 10536.00
659.0130, 10522.00
660.1730, 10525.37
661.3330, 10535.17
662.4930, 10530.00
663.6530, 10538.92
664.8130, 10558.00
665.9730, 10552.00
667.1320, 10553.00
668.2920, 10564.01
669.4510, 10586.00
670.6100, 10592.00
671.7680, 10622.00
672.9270, 10580.20
674.0860, 10654.31
675.2440, 10697.44
676.4020, 10711.25
677.5600, 10607.94
678.7180, 10655.87
679.8760, 10643.19
681.0330, 10628.02
682.1900, 10697.23
683.3480, 10610.96
684.5050, 10678.83
685.6610, 10685.17
686.8180, 10719.67
687.9750, 10693.19
689.1310, 10685.54
690.2870, 10738.90
691.4430, 10758.48
692.5990, 10724.97
693.7550, 10761.26
694.9100, 10655.00
696.0660, 10716.00
697.2210, 10600.00
698.3760, 10663.00
699.5310, 10684.00
700.6860, 10665.00
701.8400, 10572.00
702.9940, 10655.00
704.1490, 10761.00
705.3030, 10629.00
706.4570, 10742.00
707.6100, 10729.00
708.7640, 10707.00
709.9170, 10821.00
711.0710, 10727.00
712.2240, 10784.00
713.3770, 10915.00
714.5290, 10897.00
715.6820, 10912.00
716.8340, 10924.00
717.9870, 10961.00
719.1390, 10880.00
720.2910, 10838.00
721.4430, 10843.00
722.5940, 10744.00
723.7460, 11020.00
724.8970, 10903.00
726.0480, 11013.00
727.1990, 10945.00
728.3500, 11017.00
729.5000, 10978.00
730.6510, 10955.00
731.8010, 10963.00
732.9510, 10932.49
734.1010, 10946.00
735.2510, 10935.00
736.4010, 11007.58
737.5500, 11084.34
738.7000, 11130.13
739.8490, 11146.59
740.9980, 11045.93
742.1470, 11096.52
743.2950, 11086.48
744.4440, 11073.97
745.5920, 11145.83
746.7400, 11062.21
747.8880, 11132.73
749.0360, 11141.72
750.1840, 11178.88
751.3310, 11155.04
752.4790, 11150.04
753.6260, 11206.05
754.7730, 11228.27
755.9200, 11197.42
757.0670, 11236.36
758.2130, 11150.59
759.3600, 11174.25
760.5060, 11245.12
761.6520, 11217.33
762.7980, 11257.38
763.9440, 11271.58
765.0890, 11168.36
766.2350, 11269.36
767.3800, 11282.04
768.5250, 11204.04
769.6700, 11298.03
770.8150, 11232.53
771.9590, 11223.95
773.1040, 11258.22
774.2480, 11239.00
775.3920, 11276.00
776.5360, 11275.00
777.6800, 11299.60
778.8240, 11286.00
779.9670, 11353.00
781.1100, 11337.00
782.2540, 11356.00
783.3970, 11380.00
784.5390, 11370.47
785.6820, 11410.72
786.8240, 11366.00
787.9670, 11431.00
789.1090, 11423.00
790.2510, 11338.00
791.3930, 11444.00
792.5350, 11516.00
793.6760, 11427.00
794.8170, 11448.00
795.9590, 11495.00
797.1000, 11444.00
798.2410, 11344.00
799.3810, 11327.00
800.5220, 11384.00
801.6620, 11324.00
802.8030, 11580.00
803.9430, 11345.00
805.0820, 11276.00
806.2220, 11478.00
807.3620, 11322.00
808.5010, 11404.00
809.6410, 11365.00
810.7800, 11377.00
811.9190, 11352.00
813.0570, 11311.00
814.1960, 11366.00
815.3340, 11410.00
816.4730, 11403.04
817.6110, 11485.00
818.7490, 11407.00
819.8870, 11536.00
821.0240, 11500.00
822.1620, 11374.00
823.2990, 11391.00
824.4360, 11391.00
825.5730, 11554.00
826.7100, 11506.00
827.8470, 11509.00
828.9830, 11350.00
830.1200, 11405.00
831.2560, 11448.00
832.3920, 11516.00
833.5280, 11533.00
834.6630, 11600.00
835.7990, 11695.00
836.9340, 11619.00
838.0700, 11632.00
839.2050, 11534.00
840.3400, 11552.00
841.4740, 11653.00
842.6090, 11741.00
843.7430, 11666.00
844.8780, 11660.00
846.0120, 11794.00
847.1460, 11735.00
848.2790, 11728.00
849.4130, 11886.00
850.5460, 11724.00
851.6800, 11912.00
852.8130, 11871.00
853.9460, 12100.00
855.0790, 12027.23
856.2110, 12052.42
857.3440, 11949.00
858.4760, 11964.00
859.6080, 11991.00
860.7400, 11857.00
861.8720, 11942.00
863.0040, 11964.00
864.1350, 11920.00
865.2670, 11967.00
866.3980, 11970.00
867.5290, 12055.00
868.6600, 11932.00
869.7900, 11940.00
870.9210, 11912.00
872.0510, 12045.00
873.1820, 12050.00
874.3120, 12044.00
875.4420, 12042.00
876.5710, 12036.00
877.7010, 12092.00
878.8300, 12066.00
879.9600, 12016.00
881.0890, 11986.00
882.2180, 12142.00
883.3460, 12157.00
884.4750, 12110.00
885.6040, 12181.00
886.7320, 12104.00
887.8600, 12129.00
888.9880, 12206.00
890.1160, 12210.00
891.2430, 12321.00
892.3710, 12227.00
893.4980, 12198.00
894.6260, 12306.00
895.7530, 12140.00
896.8790, 12397.00
898.0060, 12269.00
899.1330, 12294.00
900.2590, 12321.00
901.3850, 12242.00
902.5110, 12302.00
903.6370, 12312.00
904.7630, 12379.00
905.8890, 12398.00
907.0140, 12349.00
908.1390, 12444.00
909.2640, 12455.00
910.3890, 12546.00
911.5140, 12577.00
912.6390, 12603.41
913.7630, 12662.00
914.8870, 12626.00
916.0120, 12667.00
917.1360, 12631.00
918.2590, 12694.00
919.3830, 12597.00
920.5070, 12859.00
921.6300, 12747.00
922.7530, 12878.00
923.8760, 12859.00
924.9990, 12738.00
926.1220, 12861.00
927.2440, 12909.69
928.3670, 12862.15
929.4890, 13123.00
930.6110, 12920.00
931.7330, 12914.00
932.8540, 13133.00
933.9760, 12975.00
935.0980, 13134.00
936.2190, 13124.00
937.3400, 13119.00
938.4610, 13109.00
939.5820, 13237.00
940.7020, 13384.00
941.8230, 13418.00
942.9430, 13441.00
944.0630, 13494.21
945.1830, 13450.06
946.3030, 13567.13
947.4230, 13653.23
948.5420, 13709.96
949.6610, 13649.58
950.7810, 13740.47
951.9000, 13770.71
953.0190, 13798.47
954.1370, 13910.57
955.2560, 13867.22
956.3740, 13977.98
957.4920, 14027.20
958.6110, 14104.63
959.7280, 14121.00
960.8460, 14156.23
961.9640, 14275.18
963.0810, 14299.00
964.1990, 14379.00
965.3160, 14360.00
966.4330, 14370.00
967.5490, 14255.00
968.6660, 14396.00
969.7830, 14383.00
970.8990, 14256.00
972.0150, 14186.00
973.1310, 14309.00
974.2470, 14259.00
975.3630, 14406.00
976.4780, 14291.00
977.5930, 14376.00
978.7090, 14387.00
979.8240, 14449.00
980.9390, 14402.00
982.0530, 14473.86
983.1680, 14516.00
984.2820, 14574.00
985.3970, 14620.00
986.5110, 14671.00
987.6250, 14607.00
988.7380, 14577.00
989.8520, 14566.00
990.9660, 14560.00
992.0790, 14538.00
993.1920, 14583.00
994.3050, 14627.00
995.4180, 14606.00
996.5300, 14815.00
997.6430, 14747.00
998.7550, 14855.00
999.8680, 14858.00
1000.980, 14946.00
1002.091, 14844.00
1003.203, 15004.00
1004.315, 14894.00
1005.426, 14967.00
1006.537, 14767.00
1007.648, 14906.00
1008.759, 14692.00
1009.870, 14934.00
1010.981, 14840.00
1012.091, 14910.00
1013.201, 14980.00
1014.312, 14915.00
1015.422, 14945.00
1016.531, 14942.00
1017.641, 14955.00
1018.751, 14880.00
1019.860, 14898.00
1020.969, 15119.00
1022.078, 14956.00
1023.187, 15077.00
1024.296, 15098.00
1025.404, 15039.00
1026.513, 15228.00
1027.621, 15151.00
1028.729, 15113.00
1029.837, 15002.00
1030.945, 15221.00
1032.052, 15072.00
1033.160, 15297.00
1034.267, 15345.00
1035.374, 15322.00
1036.481, 15185.00
1037.588, 15344.00
1038.695, 15257.00
1039.801, 15383.00
1040.907, 15479.00
1042.014, 15321.00
1043.120, 15379.00
1044.225, 15354.00
1045.331, 15545.00
1046.437, 15523.00
1047.542, 15568.00
1048.647, 15756.00
1049.752, 15793.00
1050.857, 15642.00
1051.962, 15659.00
1053.067, 15779.00
1054.171, 15757.00
1055.275, 15930.00
1056.380, 15955.00
1057.484, 15975.69
1058.587, 15993.92
1059.691, 15972.00
1060.795, 15908.00
1061.898, 15842.00
1063.001, 15756.00
1064.104, 15768.27
1065.207, 15938.00
1066.310, 15779.00
1067.412, 15925.00
1068.515, 15904.00
1069.617, 15966.00
1070.719, 15844.00
1071.821, 15894.00
1072.923, 15772.00
1074.024, 15847.00
1075.126, 15985.00
1076.227, 15793.00
1077.328, 15834.00
1078.429, 15931.00
1079.530, 15973.00
1080.631, 15949.00
1081.731, 15982.00
1082.831, 15932.00
1083.932, 16017.00
1085.032, 15964.00
1086.132, 15953.00
1087.231, 15979.00
1088.331, 15860.00
1089.430, 16087.00
1090.530, 15955.00
1091.629, 15828.00
1092.728, 16014.00
1093.826, 15940.00
1094.925, 15845.00
1096.023, 15735.00
1097.122, 15920.00
1098.220, 15789.00
1099.318, 16006.00
1100.416, 16100.00
1101.513, 16109.00
1102.611, 15918.00
1103.708, 15995.00
1104.806, 15959.00
1105.903, 15932.00
1107.000, 15982.65
1108.096, 16059.00
1109.193, 16005.00
1110.289, 15983.00
1111.386, 15921.00
1112.482, 15854.00
1113.578, 16059.00
1114.673, 16015.00
1115.769, 15993.00
1116.865, 16122.00
1117.960, 15827.00
1119.055, 15989.00
1120.150, 15868.00
1121.245, 16089.00
1122.340, 16071.00
1123.434, 15936.00
1124.529, 15840.00
1125.623, 15894.00
1126.717, 16005.00
1127.811, 15853.00
1128.905, 15839.00
1129.998, 15934.00
1131.092, 15908.00
1132.185, 15899.00
1133.278, 15919.57
1134.371, 15902.26
1135.464, 15894.00
1136.557, 15888.00
1137.649, 15853.00
1138.742, 15820.00
1139.834, 15795.00
1140.926, 15801.00
1142.018, 15823.00
1143.109, 15901.00
1144.201, 15551.00
1145.292, 15656.00
1146.384, 15573.00
1147.475, 15662.00
1148.566, 15552.00
1149.657, 15693.00
1150.747, 15583.00
1151.838, 15647.00
1152.928, 15541.00
1154.018, 15589.00
1155.108, 15522.00
1156.198, 15359.00
1157.288, 15541.00
1158.377, 15412.00
1159.467, 15413.00
1160.556, 15468.00
1161.645, 15321.00
1162.734, 15482.00
1163.823, 15271.00
1164.911, 15181.00
1166.000, 15325.00
1167.088, 15319.00
1168.176, 15327.00
1169.264, 15370.00
1170.352, 15312.00
1171.440, 15185.00
1172.527, 15221.00
1173.615, 15334.00
1174.702, 15166.00
1175.789, 15200.00
1176.876, 15299.00
1177.963, 15183.00
1179.049, 15256.00
1180.136, 15283.00
1181.222, 15269.00
1182.308, 15246.00
1183.394, 15166.00
1184.480, 15198.00
1185.566, 15164.00
1186.651, 15397.00
1187.736, 15125.00
1188.822, 15157.00
1189.907, 15343.00
1190.992, 15276.00
1192.076, 15305.00
1193.161, 15162.00
1194.245, 15104.00
1195.330, 15335.00
1196.414, 15364.00
1197.498, 15283.00
1198.581, 15247.00
1199.665, 15355.00
1200.749, 15281.00
1201.832, 15388.00
1202.915, 15300.00
1203.998, 15366.00
1205.081, 15339.00
1206.164, 15265.00
1207.246, 15440.00
1208.329, 15352.00
1209.411, 15285.00
1210.493, 15398.00
1211.575, 15371.00
1212.657, 15566.00
1213.738, 15576.00
1214.820, 15365.00
1215.901, 15674.00
1216.982, 15497.00
1218.063, 15485.00
1219.144, 15369.00
1220.225, 15448.00
1221.305, 15586.00
1222.386, 15286.00
1223.466, 15476.00
1224.546, 15620.00
1225.626, 15468.00
1226.706, 15635.00
1227.785, 15411.00
1228.865, 15548.00
1229.944, 15457.00
1231.023, 15613.00
1232.102, 15691.00
1233.181, 15732.00
1234.260, 15663.00
1235.338, 15825.00
1236.417, 15566.00
1237.495, 15817.00
1238.573, 15582.00
1239.651, 15802.00
1240.729, 15742.00
1241.806, 15700.00
1242.884, 15776.00
1243.961, 15791.00
1245.038, 15636.00
1246.115, 15814.00
1247.192, 15789.00
1248.269, 15843.00
1249.345, 15738.00
1250.421, 15754.00
1251.498, 15795.69
1252.574, 15918.00
1253.650, 15877.00
1254.725, 15930.00
1255.801, 15922.00
1256.876, 15892.00
1257.952, 15796.00
1259.027, 15924.00
1260.102, 15924.00
1261.177, 15786.00
1262.251, 16072.00
1263.326, 15988.00
1264.400, 15981.00
1265.474, 16060.00
1266.548, 16146.00
1267.622, 15978.00
1268.696, 16144.00
1269.770, 16233.00
1270.843, 16099.00
1271.916, 16201.00
1272.990, 16136.00
1274.063, 16108.00
1275.135, 16093.00
1276.208, 16115.00
1277.281, 16085.00
1278.353, 16143.00
1279.425, 16250.00
1280.497, 16119.00
1281.569, 16181.00
1282.641, 16199.00
1283.712, 16092.00
1284.784, 16243.00
1285.855, 16159.00
1286.926, 16107.00
1287.997, 16140.00
1289.068, 16259.00
1290.139, 16213.00
1291.209, 16218.00
1292.280, 16121.00
1293.350, 16321.00
1294.420, 16362.00
1295.490, 16298.00
1296.560, 16233.00
1297.629, 16390.00
1298.699, 16252.00
1299.768, 16265.00
1300.837, 16255.00
1301.906, 16311.00
1302.975, 16382.00
1304.043, 16412.47
1305.112, 16428.19
1306.180, 16473.00
1307.249, 16431.00
1308.317, 16348.00
1309.385, 16354.00
1310.452, 16431.00
1311.520, 16541.00
1312.587, 16470.00
1313.655, 16514.00
1314.722, 16379.00
1315.789, 16614.00
1316.856, 16580.00
1317.922, 16555.00
1318.989, 16631.00
1320.055, 16722.00
1321.121, 16690.00
1322.187, 16510.00
1323.253, 16616.00
1324.319, 16586.00
1325.385, 16583.00
1326.450, 16692.00
1327.515, 16750.00
1328.581, 16686.00
1329.646, 16703.00
1330.710, 16713.22
1331.775, 16689.89
1332.840, 16704.00
1333.904, 16673.00
1334.968, 16607.00
1336.032, 16574.00
1337.096, 16681.00
1338.160, 16645.00
1339.224, 16734.00
1340.287, 16674.00
1341.350, 16645.00
1342.414, 16628.00
1343.477, 16773.00
1344.539, 16606.00
1345.602, 16859.00
1346.665, 16623.00
1347.727, 16865.00
1348.789, 16670.00
1349.851, 16909.00
1350.913, 16651.00
1351.975, 16902.00
1353.037, 16734.00
1354.098, 16772.00
1355.160, 16756.00
1356.221, 16810.00
1357.282, 16860.00
1358.343, 16955.00
1359.403, 16888.00
1360.464, 16850.00
1361.524, 17125.00
1362.585, 17065.00
1363.645, 17020.00
1364.705, 17074.00
1365.765, 16976.00
1366.824, 17079.00
1367.884, 17081.86
1368.943, 16954.00
1370.002, 17109.00
1371.061, 17158.00
1372.120, 17062.00
1373.179, 17146.00
1374.237, 17066.00
1375.296, 17039.00
1376.354, 17063.00
1377.412, 17226.00
1378.470, 17235.00
1379.528, 17220.00
1380.586, 17044.00
1381.643, 17178.00
1382.701, 17208.00
1383.758, 17046.00
1384.815, 17095.00
1385.872, 17288.61
1386.929, 17363.83
1387.985, 17408.07
1389.042, 17423.00
1390.098, 17320.80
1391.154, 17369.84
1392.210, 17358.27
1393.266, 17344.21
1394.322, 17414.54
1395.377, 17329.37
1396.433, 17398.36
1397.488, 17405.81
1398.543, 17441.42
1399.598, 17416.05
1400.653, 17409.52
1401.707, 17463.98
1402.762, 17484.67
1403.816, 17452.27
1404.870, 17489.67
1405.924, 17402.37
1406.978, 17424.49
1408.032, 17493.83
1409.085, 17464.49
1410.139, 17503.01
1411.192, 17515.68
1412.245, 17410.92
1413.298, 17510.38
1414.351, 17521.53
1415.404, 17467.00
1416.456, 17404.00
1417.509, 17416.00
1418.561, 17411.00
1419.613, 17485.00
1420.665, 17487.00
1421.717, 17584.00
1422.768, 17667.00
1423.820, 17634.00
1424.871, 17529.00
1425.922, 17680.00
1426.973, 17512.00
1428.024, 17796.00
1429.075, 17613.00
1430.125, 17680.00
1431.175, 17699.00
1432.226, 17618.00
1433.276, 17804.00
1434.326, 17776.00
1435.376, 17795.00
1436.425, 17812.00
1437.475, 17882.00
1438.524, 17882.00
1439.573, 18069.00
1440.622, 18061.22
1441.671, 18088.00
1442.720, 18086.00
1443.768, 18058.00
1444.817, 17959.00
1445.865, 18101.00
1446.913, 18053.00
1447.961, 18150.00
1449.009, 18276.00
1450.057, 18170.00
1451.104, 18274.00
1452.152, 18272.00
1453.199, 18210.00
1454.246, 18349.00
1455.293, 18325.00
1456.339, 18186.00
1457.386, 17989.00
1458.433, 17944.00
1459.479, 17958.56
1460.525, 17910.68
1461.571, 18149.00
1462.617, 18016.00
1463.663, 18166.00
1464.708, 18350.00
1465.754, 18092.00
1466.799, 18224.00
1467.844, 18037.00
1468.889, 18094.00
1469.934, 18206.00
1470.978, 18218.00
1472.023, 18063.00
1473.067, 18241.00
1474.111, 18065.00
1475.155, 18245.00
1476.199, 18139.00
1477.243, 18187.00
1478.287, 18135.00
1479.330, 18095.00
1480.373, 18111.00
1481.417, 18387.00
1482.460, 18164.00
1483.502, 18154.00
1484.545, 18288.00
1485.588, 18139.00
1486.630, 18280.00
1487.672, 18299.00
1488.714, 18203.00
1489.756, 18416.00
1490.798, 18259.00
1491.840, 18285.00
1492.881, 18189.00
1493.923, 18306.00
1494.964, 18253.00
1496.005, 18383.00
1497.046, 18349.00
1498.087, 18431.00
1499.127, 18313.00
1500.168, 18293.00
1501.208, 18249.00
1502.248, 18307.00
1503.288, 18146.00
1504.328, 18259.00
1505.368, 18297.00
1506.407, 18414.00
1507.446, 18311.00
1508.486, 18334.00
1509.525, 18332.00
1510.564, 18474.00
1511.603, 18364.00
1512.641, 18415.00
1513.680, 18337.00
1514.718, 18398.00
1515.756, 18485.00
1516.794, 18507.00
1517.832, 18555.87
1518.870, 18429.00
1519.907, 18604.00
1520.945, 18498.00
1521.982, 18491.00
1523.019, 18576.00
1524.056, 18535.00
1525.093, 18750.00
1526.130, 18537.00
1527.166, 18597.00
1528.203, 18436.00
1529.239, 18704.00
1530.275, 18626.00
1531.311, 18609.00
1532.347, 18456.00
1533.383, 18556.00
1534.418, 18532.31
1535.453, 18695.00
1536.489, 18637.00
1537.524, 18725.00
1538.559, 18830.00
1539.593, 18811.38
1540.628, 18773.00
1541.662, 18803.00
1542.697, 18695.00
1543.731, 18564.00
1544.765, 18896.00
1545.799, 18863.00
1546.832, 18796.00
1547.866, 18835.00
1548.899, 18829.00
1549.933, 18831.00
1550.966, 18905.00
1551.999, 18977.00
1553.031, 18924.00
1554.064, 18732.00
1555.097, 18779.00
1556.129, 18794.00
1557.161, 18844.00
1558.193, 18835.56
1559.225, 18857.00
1560.257, 18822.00
1561.289, 18858.00
1562.320, 18865.00
1563.351, 18838.00
1564.383, 18868.91
1565.414, 18775.00
1566.444, 18927.00
1567.475, 19077.00
1568.506, 19192.00
1569.536, 19079.00
1570.566, 18923.00
1571.597, 18946.00
1572.627, 19057.00
1573.656, 18956.00
1574.686, 19048.00
1575.716, 18981.00
1576.745, 18993.00
1577.774, 19116.00
##END=



