##NAMES=Leucite
##RRUFFID=R060300
##IDEAL CHEMISTRY=K(Si_2_Al)O_6_
##LOCALITY=Alban Hills, Rome Province, Latium, Italy
##OWNER=RRUFF
##SOURCE=Herb Obodda
##DESCRIPTION=Colorless complete pseudocubic crystal showing trapezohedral faces
##STATUS=The identification of this mineral has been confirmed by X-ray diffraction and chemical analysis
##URL=rruff.info/R060300
##MEASURED CHEMISTRY=(K_0.98_Na_0.02_)_Î£=1_Al_1.00_Si_2.00_O_6_
##PIN_ID=M00574
##ORIENTATION=Laser parallel to -c* (0 0 -1). Fiducial mark perpendicular to laser is parallel to a [1 0 0]
76.45600, 10970.00
77.69900, 11467.00
78.94100, 11930.00
80.18300, 12188.00
81.42500, 12407.00
82.66700, 12629.00
83.90800, 12561.00
85.15000, 12470.00
86.39100, 12315.00
87.63200, 12230.00
88.87300, 12217.00
90.11400, 12280.00
91.35400, 12465.00
92.59500, 12323.00
93.83500, 12286.00
95.07500, 12297.00
96.31500, 12119.00
97.55400, 12030.00
98.79400, 12076.00
100.0330, 12109.00
101.2720, 11934.00
102.5110, 11742.00
103.7500, 11824.00
104.9890, 11771.00
106.2270, 11797.00
107.4650, 11997.00
108.7040, 11629.00
109.9420, 11749.00
111.1790, 11931.00
112.4170, 12043.00
113.6540, 12343.00
114.8920, 12488.00
116.1290, 12560.00
117.3650, 12739.00
118.6020, 12636.00
119.8390, 12501.00
121.0750, 12315.00
122.3110, 12164.00
123.5470, 11985.00
124.7830, 11805.00
126.0190, 11609.00
127.2540, 11743.00
128.4900, 11748.00
129.7250, 11919.00
130.9600, 12071.00
132.1950, 12430.00
133.4290, 12829.00
134.6640, 12920.00
135.8980, 13408.00
137.1320, 13495.00
138.3660, 13758.00
139.6000, 14346.00
140.8340, 14486.00
142.0670, 14746.00
143.3000, 15229.00
144.5330, 15502.00
145.7660, 15696.00
146.9990, 16089.00
148.2320, 16242.00
149.4640, 16476.00
150.6960, 16814.00
151.9280, 16706.00
153.1600, 16923.00
154.3920, 16916.00
155.6230, 16924.00
156.8550, 16716.00
158.0860, 16570.00
159.3170, 16270.00
160.5480, 15989.00
161.7780, 15592.00
163.0090, 15418.00
164.2390, 15139.00
165.4690, 14747.00
166.6990, 14462.00
167.9290, 14263.00
169.1590, 14058.00
170.3880, 14178.00
171.6180, 14343.00
172.8470, 14493.00
174.0760, 14704.00
175.3040, 14891.00
176.5330, 15412.00
177.7610, 16015.00
178.9900, 16308.00
180.2180, 16546.41
181.4460, 16551.00
182.6730, 16542.00
183.9010, 16432.00
185.1280, 15953.00
186.3560, 15738.00
187.5830, 15352.00
188.8100, 14989.00
190.0360, 14504.00
191.2630, 14074.00
192.4890, 13639.00
193.7150, 13331.00
194.9410, 13100.00
196.1670, 12877.00
197.3930, 12401.00
198.6180, 12390.00
199.8440, 12136.00
201.0690, 11894.00
202.2940, 12011.00
203.5190, 11715.00
204.7430, 11464.00
205.9680, 11458.00
207.1920, 11622.00
208.4160, 11544.00
209.6400, 11486.00
210.8640, 11481.00
212.0880, 11569.00
213.3110, 11328.00
214.5340, 11252.00
215.7570, 11497.00
216.9800, 11228.00
218.2030, 11056.00
219.4260, 11066.00
220.6480, 10939.00
221.8700, 10819.00
223.0920, 10636.00
224.3140, 10552.00
225.5360, 10385.00
226.7580, 10303.00
227.9790, 10173.00
229.2000, 10029.00
230.4210, 10016.00
231.6420, 9907.000
232.8630, 9830.000
234.0830, 9815.000
235.3040, 9790.000
236.5240, 9754.000
237.7440, 9603.000
238.9640, 9552.000
240.1830, 9504.000
241.4030, 9477.000
242.6220, 9475.000
243.8410, 9425.000
245.0600, 9392.329
246.2790, 9382.000
247.4980, 9345.000
248.7160, 9324.000
249.9340, 9398.000
251.1530, 9407.000
252.3710, 9439.000
253.5880, 9470.555
254.8060, 9483.869
256.0230, 9487.000
257.2410, 9551.000
258.4580, 9507.000
259.6750, 9600.000
260.8910, 9640.000
262.1080, 9768.000
263.3240, 9757.000
264.5410, 9667.000
265.7570, 9829.000
266.9730, 9708.000
268.1880, 9766.000
269.4040, 9778.000
270.6190, 9895.000
271.8350, 9717.000
273.0500, 9821.000
274.2650, 9792.000
275.4790, 9820.000
276.6940, 9792.000
277.9080, 9860.000
279.1220, 9931.000
280.3360, 9827.000
281.5500, 9861.000
282.7640, 9938.000
283.9770, 9887.000
285.1910, 10088.00
286.4040, 10156.00
287.6170, 10077.00
288.8300, 10152.00
290.0420, 10243.00
291.2550, 10329.00
292.4670, 10671.00
293.6790, 10734.00
294.8910, 10877.00
296.1030, 10990.00
297.3150, 11115.00
298.5260, 11136.00
299.7380, 11397.00
300.9490, 11598.00
302.1600, 11462.00
303.3710, 11535.00
304.5810, 11353.00
305.7920, 11428.00
307.0020, 11218.00
308.2120, 11348.00
309.4220, 11104.00
310.6320, 11036.00
311.8410, 11117.00
313.0510, 11042.00
314.2600, 10875.00
315.4690, 10886.00
316.6780, 10739.00
317.8870, 10781.00
319.0950, 10738.00
320.3040, 10699.00
321.5120, 10653.00
322.7200, 10599.00
323.9280, 10598.00
325.1360, 10565.00
326.3430, 10657.00
327.5510, 10758.00
328.7580, 10721.00
329.9650, 10633.00
331.1720, 10702.00
332.3790, 10705.00
333.5850, 10804.00
334.7910, 10847.00
335.9980, 10914.00
337.2040, 10915.00
338.4100, 10935.00
339.6150, 10956.00
340.8210, 10920.50
342.0260, 10869.00
343.2310, 10830.00
344.4360, 10707.00
345.6410, 10614.00
346.8460, 10736.00
348.0500, 10552.00
349.2550, 10651.00
350.4590, 10557.00
351.6630, 10443.00
352.8670, 10407.00
354.0700, 10395.77
355.2740, 10538.00
356.4770, 10425.00
357.6800, 10621.00
358.8830, 10610.00
360.0860, 10654.00
361.2890, 10489.00
362.4910, 10490.00
363.6930, 10684.00
364.8960, 10554.00
366.0980, 10756.00
367.2990, 10701.00
368.5010, 10701.00
369.7020, 10740.00
370.9040, 10681.00
372.1050, 10601.00
373.3060, 10862.00
374.5070, 10870.00
375.7070, 10802.00
376.9080, 10754.00
378.1080, 10895.00
379.3080, 10806.00
380.5080, 10923.00
381.7080, 10773.00
382.9070, 10956.00
384.1070, 10987.00
385.3060, 10825.00
386.5050, 10872.00
387.7040, 11062.00
388.9030, 10987.00
390.1010, 11099.00
391.3000, 11043.00
392.4980, 11162.00
393.6960, 11040.00
394.8940, 11016.00
396.0920, 11062.00
397.2890, 10958.00
398.4870, 11008.00
399.6840, 11003.00
400.8810, 10950.00
402.0780, 10846.00
403.2750, 11008.00
404.4710, 10858.00
405.6680, 10980.00
406.8640, 10986.00
408.0600, 10862.00
409.2560, 10868.00
410.4520, 10956.00
411.6470, 11000.00
412.8430, 11036.00
414.0380, 11138.00
415.2330, 11054.00
416.4280, 11022.00
417.6220, 11207.00
418.8170, 11327.00
420.0110, 11376.00
421.2050, 11434.00
422.4000, 11495.00
423.5930, 11760.00
424.7870, 11715.00
425.9810, 11880.00
427.1740, 11919.00
428.3670, 11832.00
429.5600, 12187.00
430.7530, 12159.00
431.9460, 12203.00
433.1380, 12219.00
434.3310, 12120.00
435.5230, 12159.00
436.7150, 12062.00
437.9070, 11858.00
439.0980, 11870.00
440.2900, 11693.00
441.4810, 11744.00
442.6720, 11676.00
443.8630, 11677.00
445.0540, 11559.00
446.2450, 11580.00
447.4350, 11625.00
448.6260, 11658.00
449.8160, 11693.00
451.0060, 11748.49
452.1960, 11790.00
453.3850, 11881.00
454.5750, 11982.00
455.7640, 12100.00
456.9530, 12236.00
458.1420, 12553.00
459.3310, 12471.00
460.5200, 12626.00
461.7080, 12921.00
462.8970, 12934.00
464.0850, 13234.00
465.2730, 13421.00
466.4610, 13622.00
467.6480, 14118.00
468.8360, 14533.00
470.0230, 14997.00
471.2100, 15704.00
472.3970, 16543.00
473.5840, 17406.00
474.7710, 18506.00
475.9570, 19863.00
477.1440, 21125.00
478.3300, 22592.00
479.5160, 24144.00
480.7020, 25660.00
481.8870, 27418.00
483.0730, 28418.00
484.2580, 29936.00
485.4430, 30971.00
486.6280, 32485.00
487.8130, 33244.00
488.9980, 34477.00
490.1820, 35963.00
491.3660, 37562.00
492.5510, 39216.00
493.7350, 40643.00
494.9180, 41600.00
496.1020, 41772.00
497.2860, 41738.00
498.4690, 41305.00
499.6520, 40123.00
500.8350, 39175.00
502.0180, 37998.00
503.2000, 37179.00
504.3830, 36685.00
505.5650, 36115.00
506.7470, 35850.00
507.9290, 35390.00
509.1110, 34578.00
510.2930, 33575.00
511.4740, 32281.00
512.6560, 31009.00
513.8370, 29667.00
515.0180, 28746.00
516.1980, 27857.00
517.3790, 27603.00
518.5600, 27320.00
519.7400, 27215.00
520.9200, 27872.00
522.1000, 28254.00
523.2800, 29182.00
524.4590, 30645.00
525.6390, 31691.00
526.8180, 32975.00
527.9970, 33844.00
529.1760, 33780.00
530.3550, 33343.00
531.5340, 32167.00
532.7120, 30509.00
533.8910, 28874.00
535.0690, 26667.00
536.2470, 24840.00
537.4250, 22898.00
538.6020, 21370.00
539.7800, 19865.00
540.9570, 18971.00
542.1340, 18080.00
543.3110, 17289.00
544.4880, 16593.00
545.6650, 16250.00
546.8410, 15742.00
548.0170, 15156.00
549.1940, 15077.00
550.3690, 14737.00
551.5450, 14428.00
552.7210, 14301.00
553.8960, 14271.00
555.0720, 14043.00
556.2470, 13808.00
557.4220, 13520.00
558.5970, 13576.00
559.7710, 13288.00
560.9460, 13337.00
562.1200, 13267.00
563.2940, 13055.00
564.4680, 13003.00
565.6420, 12943.00
566.8160, 12963.00
567.9890, 12901.00
569.1630, 12761.00
570.3360, 12722.00
571.5090, 12630.00
572.6820, 12562.00
573.8540, 12518.00
575.0270, 12539.00
576.1990, 12546.00
577.3710, 12497.00
578.5430, 12456.00
579.7150, 12543.00
580.8870, 12538.00
582.0580, 12378.00
583.2300, 12369.00
584.4010, 12444.00
585.5720, 12423.00
586.7430, 12457.00
587.9130, 12434.00
589.0840, 12370.00
590.2540, 12608.00
591.4240, 12498.00
592.5940, 12492.00
593.7640, 12594.00
594.9340, 12537.00
596.1030, 12561.10
597.2730, 12487.00
598.4420, 12517.00
599.6110, 12552.00
600.7800, 12476.00
601.9490, 12651.00
603.1170, 12547.00
604.2850, 12574.00
605.4540, 12565.82
606.6220, 12588.00
607.7900, 12489.00
608.9570, 12498.00
610.1250, 12473.00
611.2920, 12638.00
612.4590, 12478.00
613.6260, 12600.00
614.7930, 12506.00
615.9600, 12506.00
617.1270, 12744.00
618.2930, 12641.00
619.4590, 12712.00
620.6250, 12723.00
621.7910, 12910.00
622.9570, 12894.00
624.1220, 12862.00
625.2880, 12858.00
626.4530, 12760.00
627.6180, 12827.00
628.7830, 12926.00
629.9480, 12892.00
631.1120, 12803.00
632.2770, 12798.00
633.4410, 12804.00
634.6050, 12719.00
635.7690, 12742.92
636.9330, 12815.00
638.0960, 12762.00
639.2600, 12738.00
640.4230, 12803.00
641.5860, 12798.00
642.7490, 12746.00
643.9120, 12834.00
645.0740, 12971.00
646.2370, 12783.00
647.3990, 12677.00
648.5610, 12902.00
649.7230, 12944.00
650.8850, 12783.00
652.0460, 12957.00
653.2080, 12861.00
654.3690, 12894.00
655.5300, 12768.00
656.6910, 12944.00
657.8520, 12926.00
659.0130, 12996.00
660.1730, 12984.00
661.3330, 12794.00
662.4930, 12961.00
663.6530, 12796.00
664.8130, 13002.00
665.9730, 12989.00
667.1320, 12944.00
668.2920, 12966.00
669.4510, 13127.00
670.6100, 13188.00
671.7680, 13227.03
672.9270, 13321.00
674.0860, 13250.00
675.2440, 13240.00
676.4020, 13156.00
677.5600, 13151.00
678.7180, 13049.00
679.8760, 13270.00
681.0330, 13150.00
682.1900, 13270.00
683.3480, 13222.00
684.5050, 13159.00
685.6610, 13186.00
686.8180, 13033.00
687.9750, 13225.00
689.1310, 13100.00
690.2870, 13038.00
691.4430, 13110.00
692.5990, 13076.00
693.7550, 13109.36
694.9100, 13104.46
696.0660, 13138.00
697.2210, 13096.00
698.3760, 13020.00
699.5310, 13042.00
700.6860, 13015.00
701.8400, 13107.00
702.9940, 13206.00
704.1490, 13053.00
705.3030, 13055.00
706.4570, 13213.00
707.6100, 13136.00
708.7640, 13219.00
709.9170, 13266.00
711.0710, 13274.00
712.2240, 13185.00
713.3770, 13372.00
714.5290, 13289.00
715.6820, 13278.00
716.8340, 13330.00
717.9870, 13356.00
719.1390, 13370.00
720.2910, 13358.00
721.4430, 13466.00
722.5940, 13431.34
723.7460, 13496.00
724.8970, 13410.00
726.0480, 13417.00
727.1990, 13369.00
728.3500, 13578.00
729.5000, 13478.00
730.6510, 13547.00
731.8010, 13467.00
732.9510, 13515.00
734.1010, 13616.00
735.2510, 13390.00
736.4010, 13524.00
737.5500, 13465.00
738.7000, 13494.00
739.8490, 13498.00
740.9980, 13480.00
742.1470, 13500.00
743.2950, 13557.00
744.4440, 13592.00
745.5920, 13484.00
746.7400, 13648.00
747.8880, 13541.00
749.0360, 13431.00
750.1840, 13458.00
751.3310, 13533.00
752.4790, 13504.00
753.6260, 13554.00
754.7730, 13351.00
755.9200, 13557.00
757.0670, 13498.00
758.2130, 13522.00
759.3600, 13623.00
760.5060, 13641.00
761.6520, 13598.00
762.7980, 13504.00
763.9440, 13589.00
765.0890, 13635.00
766.2350, 13550.00
767.3800, 13697.00
768.5250, 13567.00
769.6700, 13607.00
770.8150, 13670.00
771.9590, 13859.00
773.1040, 13684.00
774.2480, 13723.00
775.3920, 13633.00
776.5360, 13717.00
777.6800, 13761.00
778.8240, 13708.00
779.9670, 13776.00
781.1100, 13883.00
782.2540, 13925.00
783.3970, 13908.00
784.5390, 13832.00
785.6820, 14014.00
786.8240, 13893.00
787.9670, 13934.00
789.1090, 14126.00
790.2510, 13916.00
791.3930, 13871.00
792.5350, 14005.00
793.6760, 13979.00
794.8170, 14076.00
795.9590, 13993.00
797.1000, 14002.00
798.2410, 14016.00
799.3810, 13859.00
800.5220, 14025.00
801.6620, 14105.00
802.8030, 13944.00
803.9430, 13955.00
805.0820, 13928.00
806.2220, 13917.00
807.3620, 14007.00
808.5010, 13893.00
809.6410, 13972.00
810.7800, 13748.00
811.9190, 13921.00
813.0570, 13841.00
814.1960, 13965.00
815.3340, 13929.00
816.4730, 13993.00
817.6110, 13927.00
818.7490, 14080.00
819.8870, 13939.00
821.0240, 13964.00
822.1620, 14174.00
823.2990, 13931.00
824.4360, 13819.00
825.5730, 13901.00
826.7100, 14138.00
827.8470, 14055.00
828.9830, 14183.00
830.1200, 13985.00
831.2560, 14032.00
832.3920, 14248.00
833.5280, 14080.00
834.6630, 14072.00
835.7990, 14000.00
836.9340, 13930.00
838.0700, 13991.57
839.2050, 14311.00
840.3400, 14062.00
841.4740, 14225.00
842.6090, 14172.00
843.7430, 14119.00
844.8780, 14102.00
846.0120, 14190.00
847.1460, 14130.00
848.2790, 14283.00
849.4130, 14284.00
850.5460, 14298.84
851.6800, 14414.00
852.8130, 14326.00
853.9460, 14352.00
855.0790, 14373.07
856.2110, 14511.00
857.3440, 14319.00
858.4760, 14481.00
859.6080, 14583.00
860.7400, 14449.00
861.8720, 14560.67
863.0040, 14491.00
864.1350, 14583.00
865.2670, 14492.00
866.3980, 14519.00
867.5290, 14552.00
868.6600, 14541.72
869.7900, 14457.00
870.9210, 14624.00
872.0510, 14573.00
873.1820, 14670.00
874.3120, 14690.00
875.4420, 14562.00
876.5710, 14440.00
877.7010, 14494.00
878.8300, 14475.00
879.9600, 14473.13
881.0890, 14474.00
882.2180, 14549.00
883.3460, 14689.00
884.4750, 14802.00
885.6040, 14806.23
886.7320, 14622.00
887.8600, 14793.00
888.9880, 14703.00
890.1160, 14666.00
891.2430, 14661.00
892.3710, 14681.00
893.4980, 14772.00
894.6260, 14887.00
895.7530, 14921.00
896.8790, 14768.00
898.0060, 14964.00
899.1330, 14804.00
900.2590, 14710.00
901.3850, 14955.00
902.5110, 14825.00
903.6370, 14982.00
904.7630, 14976.00
905.8890, 14853.00
907.0140, 14992.26
908.1390, 15137.00
909.2640, 15042.00
910.3890, 15169.00
911.5140, 15049.00
912.6390, 15092.00
913.7630, 15125.00
914.8870, 15146.00
916.0120, 15165.34
917.1360, 15190.10
918.2590, 15193.00
919.3830, 15216.00
920.5070, 15248.00
921.6300, 15279.79
922.7530, 15306.94
923.8760, 15365.14
924.9990, 15425.00
926.1220, 15468.00
927.2440, 15487.00
928.3670, 15381.00
929.4890, 15393.00
930.6110, 15632.00
931.7330, 15523.00
932.8540, 15562.89
933.9760, 15595.00
935.0980, 15523.00
936.2190, 15578.00
937.3400, 15645.00
938.4610, 15776.00
939.5820, 15671.00
940.7020, 15825.00
941.8230, 15810.00
942.9430, 15910.00
944.0630, 16054.00
945.1830, 15999.00
946.3030, 16205.00
947.4230, 16112.00
948.5420, 16092.00
949.6610, 16304.00
950.7810, 16314.00
951.9000, 16541.00
953.0190, 16457.00
954.1370, 16531.00
955.2560, 16598.29
956.3740, 16553.00
957.4920, 16549.77
958.6110, 16710.16
959.7280, 16809.29
960.8460, 16850.50
961.9640, 16660.25
963.0810, 16768.87
964.1990, 16757.72
965.3160, 16741.65
966.4330, 16892.33
967.5490, 16735.71
968.6660, 16883.75
969.7830, 16910.18
970.8990, 16992.24
972.0150, 16953.79
973.1310, 16952.57
974.2470, 17071.90
975.3630, 17124.48
976.4780, 17072.14
977.5930, 17157.72
978.7090, 16996.89
979.8240, 17052.30
980.9390, 17201.00
982.0530, 17154.70
983.1680, 17242.49
984.2820, 17279.20
985.3970, 17083.88
986.5110, 17292.10
987.6250, 17325.79
988.7380, 17180.26
989.8520, 17105.00
990.9660, 17220.00
992.0790, 17143.00
993.1920, 17269.00
994.3050, 17112.00
995.4180, 17244.00
996.5300, 17190.00
997.6430, 17211.00
998.7550, 17455.00
999.8680, 17360.00
1000.980, 17569.00
1002.091, 17433.00
1003.203, 17554.00
1004.315, 17645.00
1005.426, 17537.00
1006.537, 17645.00
1007.648, 17502.00
1008.759, 17596.00
1009.870, 17401.00
1010.981, 17400.00
1012.091, 17720.00
1013.201, 17661.00
1014.312, 17726.00
1015.422, 17725.00
1016.531, 17633.00
1017.641, 17620.00
1018.751, 17732.00
1019.860, 17631.00
1020.969, 17681.00
1022.078, 17812.00
1023.187, 17814.00
1024.296, 17766.00
1025.404, 17782.00
1026.513, 17783.00
1027.621, 17807.91
1028.729, 17874.00
1029.837, 17905.00
1030.945, 17908.00
1032.052, 17982.00
1033.160, 17936.00
1034.267, 17944.00
1035.374, 17847.00
1036.481, 17870.46
1037.588, 17883.92
1038.695, 17911.00
1039.801, 17957.00
1040.907, 18048.00
1042.014, 18087.00
1043.120, 18124.00
1044.225, 18129.00
1045.331, 18094.00
1046.437, 18386.00
1047.542, 18301.98
1048.647, 18403.00
1049.752, 18336.00
1050.857, 18317.00
1051.962, 18329.00
1053.067, 18595.00
1054.171, 18594.00
1055.275, 18596.00
1056.380, 18882.00
1057.484, 18543.00
1058.587, 18737.00
1059.691, 18630.00
1060.795, 18673.00
1061.898, 18823.00
1063.001, 18768.00
1064.104, 18648.00
1065.207, 18842.00
1066.310, 18657.00
1067.412, 18586.00
1068.515, 18735.00
1069.617, 18599.00
1070.719, 18587.00
1071.821, 18683.00
1072.923, 18686.00
1074.024, 18554.00
1075.126, 18586.00
1076.227, 18564.00
1077.328, 18708.00
1078.429, 18589.00
1079.530, 18604.00
1080.631, 18679.00
1081.731, 18621.00
1082.831, 18594.00
1083.932, 18657.00
1085.032, 18827.00
1086.132, 18866.00
1087.231, 18689.00
1088.331, 18723.00
1089.430, 18598.00
1090.530, 18721.00
1091.629, 18528.00
1092.728, 18555.00
1093.826, 18620.00
1094.925, 18539.00
1096.023, 18803.00
1097.122, 18584.00
1098.220, 18688.00
1099.318, 18601.00
1100.416, 18619.00
1101.513, 18773.00
1102.611, 18770.00
1103.708, 18712.00
1104.806, 18632.00
1105.903, 18789.00
1107.000, 18621.00
1108.096, 18720.00
1109.193, 18796.00
1110.289, 18794.00
1111.386, 18742.00
1112.482, 18781.00
1113.578, 18707.00
1114.673, 18693.98
1115.769, 18590.00
1116.865, 18649.00
1117.960, 18638.00
1119.055, 18654.00
1120.150, 18601.00
1121.245, 18476.00
1122.340, 18698.00
1123.434, 18500.00
1124.529, 18624.00
1125.623, 18522.00
1126.717, 18512.00
1127.811, 18630.00
1128.905, 18586.00
1129.998, 18578.00
1131.092, 18549.00
1132.185, 18519.00
1133.278, 18636.00
1134.371, 18618.00
1135.464, 18597.00
1136.557, 18429.00
1137.649, 18585.00
1138.742, 18402.00
1139.834, 18436.00
1140.926, 18533.00
1142.018, 18579.00
1143.109, 18440.00
1144.201, 18491.00
1145.292, 18380.00
1146.384, 18288.00
1147.475, 18443.00
1148.566, 18298.00
1149.657, 18345.00
1150.747, 18281.00
1151.838, 18236.00
1152.928, 18117.00
1154.018, 18330.00
1155.108, 18300.00
1156.198, 18208.00
1157.288, 18224.00
1158.377, 18074.00
1159.467, 18061.00
1160.556, 18100.00
1161.645, 18130.00
1162.734, 18015.00
1163.823, 18147.00
1164.911, 17889.00
1166.000, 18064.00
1167.088, 17922.00
1168.176, 18045.00
1169.264, 17838.00
1170.352, 18086.00
1171.440, 18012.00
1172.527, 18047.00
1173.615, 17919.00
1174.702, 18013.00
1175.789, 17981.00
1176.876, 17979.00
1177.963, 17897.00
1179.049, 17845.00
1180.136, 17934.00
1181.222, 18105.00
1182.308, 18071.00
1183.394, 18059.00
1184.480, 17968.00
1185.566, 18044.00
1186.651, 17859.00
1187.736, 17898.00
1188.822, 17856.00
1189.907, 18023.00
1190.992, 17836.00
1192.076, 17950.00
1193.161, 17942.00
1194.245, 17924.00
1195.330, 18031.00
1196.414, 18045.00
1197.498, 18162.00
1198.581, 18061.00
1199.665, 18069.00
1200.749, 18045.00
1201.832, 18102.00
1202.915, 17998.00
1203.998, 17870.00
1205.081, 18065.00
1206.164, 18199.00
1207.246, 18033.00
1208.329, 18082.00
1209.411, 18091.00
1210.493, 18099.81
1211.575, 18160.00
1212.657, 18179.00
1213.738, 18161.00
1214.820, 18104.00
1215.901, 18159.00
1216.982, 18168.00
1218.063, 18138.00
1219.144, 18170.00
1220.225, 18256.00
1221.305, 18100.00
1222.386, 18217.00
1223.466, 18250.00
1224.546, 18507.00
1225.626, 18189.00
1226.706, 18316.00
1227.785, 18436.00
1228.865, 18229.00
1229.944, 18400.00
1231.023, 18347.00
1232.102, 18407.00
1233.181, 18481.00
1234.260, 18439.00
1235.338, 18384.00
1236.417, 18367.00
1237.495, 18564.00
1238.573, 18541.00
1239.651, 18503.00
1240.729, 18615.00
1241.806, 18539.00
1242.884, 18544.00
1243.961, 18442.00
1245.038, 18556.00
1246.115, 18695.00
1247.192, 18500.00
1248.269, 18651.00
1249.345, 18433.00
1250.421, 18611.00
1251.498, 18639.00
1252.574, 18593.00
1253.650, 18672.00
1254.725, 18696.00
1255.801, 18644.00
1256.876, 18758.00
1257.952, 18709.00
1259.027, 18831.00
1260.102, 18683.00
1261.177, 18858.00
1262.251, 18730.00
1263.326, 18881.00
1264.400, 18869.78
1265.474, 18692.00
1266.548, 18897.00
1267.622, 18772.00
1268.696, 18808.00
1269.770, 18795.00
1270.843, 19025.00
1271.916, 18867.00
1272.990, 19008.00
1274.063, 18962.00
1275.135, 18804.00
1276.208, 18954.00
1277.281, 19014.00
1278.353, 18894.00
1279.425, 18910.00
1280.497, 18836.00
1281.569, 18941.00
1282.641, 18900.00
1283.712, 18882.00
1284.784, 19164.00
1285.855, 18972.00
1286.926, 18991.00
1287.997, 18901.00
1289.068, 19072.00
1290.139, 18773.00
1291.209, 19067.00
1292.280, 19204.00
1293.350, 19091.00
1294.420, 19077.00
1295.490, 18981.00
1296.560, 19056.00
1297.629, 18981.00
1298.699, 18993.01
1299.768, 19061.00
1300.837, 19014.00
1301.906, 19070.00
1302.975, 19106.00
1304.043, 19039.00
1305.112, 19069.00
1306.180, 19141.00
1307.249, 18963.00
1308.317, 19062.00
1309.385, 19152.00
1310.452, 19270.00
1311.520, 19349.00
1312.587, 19244.00
1313.655, 19335.00
1314.722, 19190.00
1315.789, 19407.00
1316.856, 19250.00
1317.922, 19471.00
1318.989, 19387.00
1320.055, 19369.00
1321.121, 19490.00
1322.187, 19285.00
1323.253, 19444.00
1324.319, 19414.00
1325.385, 19289.00
1326.450, 19255.00
1327.515, 19356.00
1328.581, 19477.00
1329.646, 19349.00
1330.710, 19427.00
1331.775, 19469.00
1332.840, 19408.00
1333.904, 19348.00
1334.968, 19415.00
1336.032, 19485.00
1337.096, 19300.00
1338.160, 19441.00
1339.224, 19635.00
1340.287, 19376.00
1341.350, 19304.00
1342.414, 19505.00
1343.477, 19400.00
1344.539, 19560.00
1345.602, 19517.00
1346.665, 19390.00
1347.727, 19449.00
1348.789, 19525.00
1349.851, 19517.00
1350.913, 19488.00
1351.975, 19478.00
1353.037, 19430.00
1354.098, 19540.00
1355.160, 19720.00
1356.221, 19635.00
1357.282, 19507.00
1358.343, 19727.00
1359.403, 19726.00
1360.464, 19754.00
1361.524, 19769.00
1362.585, 19768.19
1363.645, 19811.00
1364.705, 19823.00
1365.765, 19728.00
1366.824, 19863.00
1367.884, 19736.00
1368.943, 19855.00
1370.002, 19799.00
1371.061, 19803.00
1372.120, 19693.00
1373.179, 19705.00
1374.237, 19705.42
1375.296, 19916.00
1376.354, 19798.00
1377.412, 19840.00
1378.470, 19994.00
1379.528, 19943.11
1380.586, 20130.00
1381.643, 20023.00
1382.701, 19932.00
1383.758, 19995.00
1384.815, 19938.00
1385.872, 19862.00
1386.929, 20062.00
1387.985, 20021.00
1389.042, 20226.00
1390.098, 20023.00
1391.154, 19891.00
1392.210, 20055.00
1393.266, 20024.00
1394.322, 20141.00
1395.377, 20139.00
1396.433, 20040.00
1397.488, 20086.00
1398.543, 19967.00
1399.598, 20043.00
1400.653, 20151.00
1401.707, 20099.00
1402.762, 20053.00
1403.816, 20188.00
1404.870, 20219.00
1405.924, 20229.00
1406.978, 20082.00
1408.032, 20122.11
1409.085, 20118.00
1410.139, 20152.00
1411.192, 20278.00
1412.245, 20460.00
1413.298, 20047.00
1414.351, 20312.00
1415.404, 20437.00
1416.456, 20180.00
1417.509, 20307.00
1418.561, 20429.00
1419.613, 20385.00
1420.665, 20346.00
1421.717, 20431.00
1422.768, 20273.00
1423.820, 20608.00
1424.871, 20532.00
1425.922, 20579.00
1426.973, 20399.00
1428.024, 20471.00
1429.075, 20483.00
1430.125, 20477.00
1431.175, 20523.00
1432.226, 20494.00
1433.276, 20565.00
1434.326, 20710.00
1435.376, 20603.00
1436.425, 20646.00
1437.475, 20822.00
1438.524, 20711.00
1439.573, 20805.00
1440.622, 20725.00
1441.671, 20786.89
1442.720, 20895.00
1443.768, 20875.00
1444.817, 21006.00
1445.865, 20980.00
1446.913, 21054.00
1447.961, 21050.00
1449.009, 20895.00
1450.057, 20975.00
1451.104, 21246.00
1452.152, 21159.00
1453.199, 21090.00
1454.246, 21064.00
1455.293, 21055.00
1456.339, 21108.00
1457.386, 20996.00
1458.433, 21151.00
1459.479, 21240.00
1460.525, 21086.00
1461.571, 20883.00
1462.617, 21274.00
1463.663, 20853.00
1464.708, 21237.00
1465.754, 21094.00
1466.799, 21004.00
1467.844, 21160.00
1468.889, 21009.00
1469.934, 21253.00
1470.978, 21071.00
1472.023, 21182.00
1473.067, 21147.73
1474.111, 20997.00
1475.155, 21095.00
1476.199, 21020.00
1477.243, 21089.00
1478.287, 21089.00
1479.330, 20961.00
1480.373, 21211.00
1481.417, 21162.00
1482.460, 21284.00
1483.502, 21273.00
1484.545, 21220.00
1485.588, 21007.00
1486.630, 21221.00
1487.672, 21099.00
1488.714, 21167.00
1489.756, 21044.00
1490.798, 21058.00
1491.840, 21207.00
1492.881, 21042.00
1493.923, 21200.00
1494.964, 21017.00
1496.005, 21249.00
1497.046, 21513.00
1498.087, 21034.00
1499.127, 21181.00
1500.168, 21415.00
1501.208, 21181.00
1502.248, 21211.00
1503.288, 21151.00
1504.328, 21297.00
1505.368, 21244.00
1506.407, 21231.00
1507.446, 21129.00
1508.486, 21075.00
1509.525, 21140.00
1510.564, 21158.80
1511.603, 21194.00
1512.641, 21338.00
1513.680, 21270.00
1514.718, 21353.00
1515.756, 21468.00
1516.794, 21182.00
1517.832, 21435.00
1518.870, 21339.00
1519.907, 21312.00
1520.945, 21651.00
1521.982, 21560.00
1523.019, 21555.00
1524.056, 21459.00
1525.093, 21546.00
1526.130, 21498.00
1527.166, 21624.00
1528.203, 21608.00
1529.239, 21681.00
1530.275, 21614.00
1531.311, 21696.00
1532.347, 21558.00
1533.383, 21569.00
1534.418, 21478.00
1535.453, 21622.00
1536.489, 21690.00
1537.524, 21812.00
1538.559, 21609.00
1539.593, 21786.00
1540.628, 21792.00
1541.662, 21697.00
1542.697, 21972.00
1543.731, 21650.00
1544.765, 21682.00
1545.799, 21815.00
1546.832, 21748.00
1547.866, 21752.58
1548.899, 21763.32
1549.933, 21759.00
1550.966, 21616.00
1551.999, 21848.00
1553.031, 21564.00
1554.064, 21705.00
1555.097, 22076.00
1556.129, 21968.00
1557.161, 21846.00
1558.193, 21878.00
1559.225, 21768.00
1560.257, 21838.00
1561.289, 21954.00
1562.320, 21865.00
1563.351, 21856.00
1564.383, 21770.00
1565.414, 21817.00
1566.444, 21855.00
1567.475, 21756.00
1568.506, 21892.00
1569.536, 21871.00
1570.566, 21892.00
1571.597, 21936.00
1572.627, 22028.00
1573.656, 22053.00
1574.686, 21916.00
1575.716, 21976.00
1576.745, 21794.00
1577.774, 22144.00
##END=



