##NAMES=Levyne-Na
##RRUFFID=R060021
##IDEAL CHEMISTRY=Na_6_(Si_12_Al_6_)O_36_&#183;18H_2_O
##LOCALITY=Dallas, Oregon, USA
##OWNER=RRUFF
##SOURCE=Bob Downs
##DESCRIPTION=White tabular hexagonal-shaped crystals associated with analcime, R060023
##STATUS=The identification of this mineral has been confirmed by X-ray diffraction and chemical analysis
##URL=rruff.info/R060021
##MEASURED CHEMISTRY=(Na_0.70_Ca_0.26_K_0.04_)_6_(Si_0.58_Al_0.42_)_18_O_36_Â·18H_2_O
##PIN_ID=L01578
##ORIENTATION=Laser parallel to a* (1 0 0). Fiducial mark perpendicular to laser is parallel to -c [0 0 -1]
69.52600, 15945.00
70.76900, 18600.00
72.01200, 21171.00
73.25500, 23806.00
74.49700, 26615.00
75.74000, 28937.00
76.98200, 31049.00
78.22400, 31735.00
79.46600, 32587.00
80.70800, 32983.00
81.94900, 33138.00
83.19000, 33088.00
84.43100, 32927.00
85.67200, 32563.00
86.91300, 32266.75
88.15400, 31739.00
89.39400, 31451.00
90.63400, 31043.00
91.87400, 30712.00
93.11400, 30160.00
94.35400, 29958.00
95.59300, 29504.00
96.83200, 29198.00
98.07200, 29093.00
99.31000, 28775.00
100.5490, 28651.00
101.7880, 28367.00
103.0260, 28262.00
104.2640, 28298.00
105.5020, 28422.00
106.7400, 28326.71
107.9780, 28314.00
109.2150, 28213.00
110.4520, 28215.00
111.6890, 28056.00
112.9260, 28214.00
114.1630, 28375.00
115.3990, 28421.00
116.6360, 28053.00
117.8720, 27494.00
119.1080, 27081.00
120.3440, 26282.00
121.5790, 25740.00
122.8150, 25228.00
124.0500, 24341.00
125.2850, 24092.89
126.5200, 23566.00
127.7550, 23336.00
128.9890, 23387.00
130.2230, 22892.00
131.4570, 22809.00
132.6910, 22638.00
133.9250, 22673.00
135.1590, 22360.00
136.3920, 22274.00
137.6250, 22371.00
138.8580, 22145.30
140.0910, 22315.00
141.3240, 21969.00
142.5570, 21803.00
143.7890, 21760.00
145.0210, 21447.00
146.2530, 21491.00
147.4850, 21297.00
148.7160, 20933.00
149.9480, 20693.00
151.1790, 20497.00
152.4100, 20345.00
153.6410, 20342.00
154.8710, 20177.00
156.1020, 20090.00
157.3320, 19781.00
158.5620, 19809.00
159.7920, 19844.00
161.0220, 19524.00
162.2520, 19336.00
163.4810, 18854.00
164.7100, 18631.00
165.9390, 18164.00
167.1680, 17985.00
168.3970, 17353.00
169.6250, 17158.00
170.8540, 16786.00
172.0820, 16382.00
173.3100, 16009.00
174.5370, 15681.16
175.7650, 15372.28
176.9920, 15086.00
178.2200, 14837.00
179.4470, 14630.00
180.6740, 14394.00
181.9000, 14270.00
183.1270, 14109.00
184.3530, 14190.00
185.5790, 14028.00
186.8050, 13966.00
188.0310, 14070.00
189.2570, 14031.00
190.4820, 14174.00
191.7070, 14149.00
192.9320, 14210.00
194.1570, 14377.00
195.3820, 14366.00
196.6060, 14333.00
197.8310, 14345.00
199.0550, 14316.00
200.2790, 14305.00
201.5030, 14386.00
202.7260, 14421.00
203.9500, 14381.43
205.1730, 14178.00
206.3960, 14363.00
207.6190, 14053.00
208.8420, 14158.00
210.0640, 13974.00
211.2870, 13939.00
212.5090, 14098.00
213.7310, 13950.00
214.9530, 14005.00
216.1740, 13988.68
217.3960, 13984.00
218.6170, 13880.00
219.8380, 13960.00
221.0590, 13797.00
222.2800, 13636.00
223.5000, 13747.00
224.7210, 13706.00
225.9410, 13606.00
227.1610, 13584.00
228.3810, 13680.00
229.6000, 13606.00
230.8200, 13737.00
232.0390, 13745.00
233.2580, 13893.18
234.4770, 14301.00
235.6960, 14308.00
236.9150, 14576.00
238.1330, 14938.00
239.3510, 15130.00
240.5690, 15914.00
241.7870, 16359.00
243.0050, 16868.00
244.2220, 17682.00
245.4400, 17939.00
246.6570, 18291.00
247.8740, 18608.00
249.0910, 18996.00
250.3070, 18510.00
251.5240, 18664.00
252.7400, 18047.00
253.9560, 17757.00
255.1720, 17226.00
256.3880, 16872.00
257.6030, 16387.00
258.8190, 16009.00
260.0340, 15317.00
261.2490, 14977.00
262.4640, 14242.00
263.6780, 13814.00
264.8930, 13306.00
266.1070, 12995.00
267.3210, 12638.53
268.5350, 12262.00
269.7490, 12066.00
270.9630, 11879.00
272.1760, 11622.00
273.3890, 11540.00
274.6030, 11375.00
275.8150, 11487.00
277.0280, 11388.00
278.2410, 11618.00
279.4530, 11665.00
280.6650, 11939.00
281.8770, 12093.00
283.0890, 12208.00
284.3010, 12434.00
285.5120, 12636.00
286.7230, 12858.00
287.9350, 13137.00
289.1460, 13416.00
290.3560, 13650.00
291.5670, 13577.00
292.7770, 13834.00
293.9880, 13714.00
295.1980, 13825.00
296.4080, 13921.00
297.6170, 14099.00
298.8270, 14351.38
300.0360, 14613.36
301.2450, 15027.00
302.4540, 15415.00
303.6630, 15933.00
304.8720, 16664.00
306.0800, 17377.00
307.2890, 18314.00
308.4970, 19344.00
309.7050, 20391.00
310.9120, 21835.00
312.1200, 23195.00
313.3270, 24388.00
314.5350, 25927.00
315.7420, 27093.00
316.9490, 28062.00
318.1550, 29226.00
319.3620, 29582.00
320.5680, 29729.00
321.7740, 29596.00
322.9800, 28684.00
324.1860, 28017.00
325.3920, 27045.00
326.5970, 26103.00
327.8030, 25031.00
329.0080, 24049.00
330.2130, 23387.00
331.4180, 22854.00
332.6220, 22708.00
333.8270, 22106.00
335.0310, 22044.00
336.2350, 21567.00
337.4390, 21292.00
338.6430, 21068.00
339.8460, 20422.00
341.0500, 19939.00
342.2530, 19244.00
343.4560, 18741.00
344.6590, 18048.00
345.8610, 17548.00
347.0640, 17078.00
348.2660, 16690.49
349.4680, 16429.00
350.6700, 16230.00
351.8720, 16072.00
353.0740, 16143.00
354.2750, 16096.00
355.4770, 16479.00
356.6780, 16986.00
357.8790, 17395.00
359.0790, 17870.00
360.2800, 18399.00
361.4800, 19225.00
362.6810, 20225.00
363.8810, 21378.00
365.0810, 22240.00
366.2800, 23576.00
367.4800, 24776.00
368.6790, 26022.00
369.8780, 27411.00
371.0770, 28443.00
372.2760, 28908.00
373.4750, 29612.00
374.6730, 29958.00
375.8720, 29793.06
377.0700, 29544.00
378.2680, 28736.00
379.4660, 27336.00
380.6630, 25857.00
381.8610, 24407.00
383.0580, 22871.00
384.2550, 21473.00
385.4520, 20380.00
386.6490, 19380.82
387.8460, 18542.00
389.0420, 17990.00
390.2380, 17604.00
391.4340, 17347.00
392.6300, 17251.00
393.8260, 17010.00
395.0210, 16841.00
396.2170, 16657.00
397.4120, 16322.00
398.6070, 15916.00
399.8020, 15703.00
400.9970, 15112.00
402.1910, 14859.00
403.3860, 14098.00
404.5800, 13839.00
405.7740, 13262.00
406.9680, 12981.00
408.1610, 12442.00
409.3550, 12098.00
410.5480, 11854.00
411.7410, 11382.00
412.9340, 11204.00
414.1270, 11003.00
415.3200, 10877.00
416.5120, 10697.17
417.7040, 10544.95
418.8960, 10405.00
420.0880, 10249.00
421.2800, 10150.00
422.4720, 10017.00
423.6630, 10032.00
424.8540, 9866.000
426.0450, 9926.000
427.2360, 9933.000
428.4270, 9858.000
429.6180, 9936.000
430.8080, 9814.000
431.9980, 9948.000
433.1880, 9936.000
434.3780, 10078.00
435.5680, 10222.00
436.7570, 10319.00
437.9470, 10475.11
439.1360, 10510.00
440.3250, 10749.00
441.5140, 10891.00
442.7020, 11011.00
443.8910, 11378.00
445.0790, 11426.00
446.2670, 11703.00
447.4550, 11809.00
448.6430, 12176.00
449.8310, 12304.00
451.0180, 12514.00
452.2060, 12628.00
453.3930, 12838.00
454.5800, 12927.00
455.7660, 13165.00
456.9530, 13357.00
458.1400, 13487.00
459.3260, 13715.00
460.5120, 13727.00
461.6980, 14188.00
462.8840, 14290.00
464.0690, 14710.00
465.2550, 14917.00
466.4400, 14988.00
467.6250, 15039.00
468.8100, 15332.00
469.9950, 15649.00
471.1790, 15919.21
472.3640, 16316.00
473.5480, 16659.00
474.7320, 17115.00
475.9160, 17549.00
477.1000, 18020.00
478.2830, 18713.00
479.4670, 19485.00
480.6500, 20273.00
481.8330, 21355.00
483.0160, 22550.00
484.1980, 23768.00
485.3810, 25090.00
486.5630, 26821.00
487.7450, 28686.16
488.9270, 30826.00
490.1090, 33143.00
491.2910, 35801.00
492.4730, 38539.43
493.6540, 41334.16
494.8350, 44348.00
496.0160, 47263.00
497.1970, 50270.00
498.3780, 53277.00
499.5580, 55324.00
500.7380, 57796.00
501.9190, 59345.00
503.0990, 60219.00
504.2780, 60494.00
505.4580, 59857.00
506.6380, 58368.00
507.8170, 56481.00
508.9960, 53955.00
510.1750, 51211.00
511.3540, 47764.00
512.5320, 45103.00
513.7110, 42196.00
514.8890, 39383.00
516.0670, 36674.00
517.2450, 34644.00
518.4230, 32268.00
519.6010, 30938.00
520.7780, 29858.00
521.9560, 28300.00
523.1330, 27451.00
524.3100, 25742.00
525.4860, 23745.00
526.6630, 23004.00
527.8400, 22118.00
529.0160, 21288.00
530.1920, 20657.00
531.3680, 20256.00
532.5440, 19672.18
533.7190, 19090.00
534.8950, 18845.00
536.0700, 18439.00
537.2450, 18082.00
538.4200, 17960.00
539.5950, 17655.00
540.7690, 17424.00
541.9440, 17474.00
543.1180, 17241.00
544.2920, 16991.00
545.4660, 16866.00
546.6400, 16853.00
547.8140, 17033.00
548.9870, 17160.00
550.1600, 17125.00
551.3330, 17086.00
552.5060, 17351.00
553.6790, 17549.00
554.8520, 17805.00
556.0240, 17995.00
557.1960, 18212.00
558.3680, 18447.00
559.5400, 18576.00
560.7120, 18939.00
561.8840, 19238.00
563.0550, 19239.00
564.2260, 19484.00
565.3980, 19591.00
566.5680, 19409.00
567.7390, 19368.00
568.9100, 19295.00
570.0800, 18756.00
571.2510, 18453.00
572.4210, 18029.00
573.5910, 17537.00
574.7600, 16883.00
575.9300, 16221.00
577.0990, 15746.00
578.2690, 15150.00
579.4380, 14741.00
580.6070, 14229.07
581.7750, 13824.20
582.9440, 13357.00
584.1120, 13077.00
585.2810, 12813.00
586.4490, 12477.00
587.6170, 12102.00
588.7840, 11851.00
589.9520, 11647.00
591.1190, 11308.00
592.2870, 11233.00
593.4540, 10943.00
594.6210, 10825.00
595.7880, 10640.00
596.9540, 10631.00
598.1210, 10536.00
599.2870, 10378.00
600.4530, 10368.00
601.6190, 10086.00
602.7850, 10052.00
603.9500, 9878.000
605.1160, 9840.000
606.2810, 9881.000
607.4460, 9907.000
608.6110, 9759.000
609.7760, 9599.000
610.9410, 9685.000
612.1050, 9451.000
613.2690, 9379.000
614.4330, 9458.000
615.5970, 9329.000
616.7610, 9118.000
617.9250, 9277.000
619.0880, 9085.000
620.2520, 9170.000
621.4150, 8933.000
622.5780, 9010.000
623.7400, 8949.000
624.9030, 8780.000
626.0660, 8736.000
627.2280, 8805.000
628.3900, 8820.000
629.5520, 8777.000
630.7140, 8700.000
631.8750, 8751.000
633.0370, 8696.000
634.1980, 8755.000
635.3590, 8698.000
636.5200, 8736.000
637.6810, 8700.000
638.8420, 8692.000
640.0020, 8688.380
641.1630, 8650.000
642.3230, 8689.000
643.4830, 8606.000
644.6430, 8661.000
645.8020, 8696.000
646.9620, 8592.000
648.1210, 8793.000
649.2810, 8735.000
650.4400, 8800.000
651.5980, 8588.000
652.7570, 8677.000
653.9160, 8891.000
655.0740, 8771.000
656.2320, 8861.000
657.3900, 8790.000
658.5480, 8942.000
659.7060, 8867.000
660.8630, 8976.000
662.0210, 9091.000
663.1780, 9070.000
664.3350, 9184.000
665.4920, 9148.000
666.6490, 9367.000
667.8050, 9515.000
668.9620, 9587.000
670.1180, 9766.000
671.2740, 9735.000
672.4300, 9969.000
673.5860, 10143.00
674.7410, 10352.00
675.8970, 10596.00
677.0520, 10721.00
678.2070, 10886.00
679.3620, 11239.00
680.5170, 11657.00
681.6720, 11978.00
682.8260, 12229.00
683.9800, 12556.00
685.1340, 12724.00
686.2880, 13220.00
687.4420, 13569.00
688.5960, 13856.00
689.7490, 13662.00
690.9030, 13614.00
692.0560, 13857.00
693.2090, 13585.00
694.3620, 13661.00
695.5140, 13356.00
696.6670, 13024.00
697.8190, 12649.00
698.9710, 12430.00
700.1230, 12107.00
701.2750, 11588.00
702.4270, 11242.00
703.5780, 11041.00
704.7300, 10829.00
705.8810, 10376.00
707.0320, 10111.00
708.1830, 9918.000
709.3340, 9591.000
710.4840, 9345.000
711.6350, 9356.000
712.7850, 9004.000
713.9350, 8931.000
715.0850, 8888.000
716.2350, 8646.000
717.3840, 8641.000
718.5340, 8408.000
719.6830, 8427.000
720.8320, 8292.000
721.9810, 8380.000
723.1300, 8166.000
724.2780, 8171.691
725.4270, 8128.000
726.5750, 8010.000
727.7230, 8046.000
728.8710, 7806.000
730.0190, 7878.000
731.1670, 7943.000
732.3140, 7880.000
733.4610, 7984.000
734.6090, 7978.000
735.7560, 7878.000
736.9030, 7785.000
738.0490, 7822.000
739.1960, 7885.000
740.3420, 7912.000
741.4880, 7888.000
742.6340, 7745.000
743.7800, 7931.000
744.9260, 7958.000
746.0720, 7938.000
747.2170, 8095.000
748.3620, 7989.000
749.5070, 8169.000
750.6520, 8084.000
751.7970, 8252.000
752.9420, 8177.000
754.0860, 8399.000
755.2300, 8424.000
756.3740, 8522.000
757.5180, 8583.000
758.6620, 8686.000
759.8060, 8888.000
760.9490, 8860.000
762.0930, 9075.000
763.2360, 9041.000
764.3790, 9207.000
765.5220, 9283.000
766.6640, 9259.000
767.8070, 9142.000
768.9490, 9074.000
770.0910, 8956.000
771.2330, 8805.000
772.3750, 8691.000
773.5170, 8591.000
774.6590, 8447.000
775.8000, 8404.000
776.9410, 8251.000
778.0820, 8264.000
779.2230, 8167.000
780.3640, 8095.000
781.5050, 8094.000
782.6450, 8055.000
783.7850, 8075.000
784.9260, 7971.000
786.0660, 7934.000
787.2050, 7948.000
788.3450, 7854.000
789.4850, 7792.000
790.6240, 7941.000
791.7630, 7903.000
792.9020, 7968.000
794.0410, 7942.000
795.1800, 7937.000
796.3180, 7945.000
797.4570, 7784.000
798.5950, 7916.000
799.7330, 7730.000
800.8710, 7831.000
802.0090, 7749.000
803.1460, 7720.000
804.2840, 7727.000
805.4210, 7604.000
806.5580, 7614.000
807.6950, 7594.000
808.8320, 7553.000
809.9680, 7604.000
811.1050, 7548.000
812.2410, 7592.000
813.3770, 7472.000
814.5130, 7601.000
815.6490, 7435.000
816.7850, 7468.000
817.9200, 7466.000
819.0560, 7555.000
820.1910, 7448.000
821.3260, 7368.000
822.4610, 7455.000
823.5960, 7498.000
824.7300, 7308.000
825.8650, 7421.000
826.9990, 7406.000
828.1330, 7435.000
829.2670, 7452.607
830.4010, 7436.000
831.5340, 7408.000
832.6680, 7355.000
833.8010, 7353.374
834.9340, 7347.000
836.0670, 7334.000
837.2000, 7342.000
838.3330, 7341.000
839.4660, 7362.000
840.5980, 7356.000
841.7300, 7399.000
842.8620, 7353.000
843.9940, 7403.000
845.1260, 7317.000
846.2570, 7348.000
847.3890, 7257.000
848.5200, 7332.000
849.6510, 7318.000
850.7820, 7356.000
851.9130, 7379.000
853.0440, 7420.000
854.1740, 7407.000
855.3050, 7336.000
856.4350, 7310.000
857.5650, 7331.000
858.6950, 7450.000
859.8240, 7405.000
860.9540, 7447.000
862.0830, 7392.000
863.2130, 7431.000
864.3420, 7404.000
865.4710, 7382.000
866.5990, 7403.000
867.7280, 7381.709
868.8560, 7368.429
869.9850, 7428.000
871.1130, 7356.000
872.2410, 7488.000
873.3690, 7549.000
874.4960, 7477.000
875.6240, 7482.000
876.7510, 7557.000
877.8780, 7511.000
879.0060, 7529.000
880.1320, 7509.000
881.2590, 7547.000
882.3860, 7535.000
883.5120, 7624.000
884.6380, 7546.000
885.7650, 7534.000
886.8910, 7668.000
888.0160, 7595.000
889.1420, 7496.000
890.2680, 7588.000
891.3930, 7481.000
892.5180, 7584.000
893.6430, 7741.000
894.7680, 7592.000
895.8930, 7649.000
897.0170, 7657.000
898.1420, 7626.000
899.2660, 7554.000
900.3900, 7598.000
901.5140, 7621.000
902.6380, 7716.000
903.7610, 7605.000
904.8850, 7582.000
906.0080, 7517.000
907.1310, 7683.000
908.2540, 7604.000
909.3770, 7605.000
910.5000, 7703.000
911.6220, 7579.000
912.7450, 7629.000
913.8670, 7583.000
914.9890, 7643.000
916.1110, 7681.000
917.2330, 7669.015
918.3550, 7683.000
919.4760, 7680.000
920.5970, 7640.000
921.7180, 7639.000
922.8390, 7644.000
923.9600, 7652.000
925.0810, 7649.074
926.2020, 7664.000
927.3220, 7647.000
928.4420, 7729.000
929.5620, 7734.000
930.6820, 7770.000
931.8020, 7746.000
932.9220, 7843.000
934.0410, 7822.000
935.1600, 7774.000
936.2790, 7882.000
937.3980, 7910.000
938.5170, 7880.000
939.6360, 7856.000
940.7550, 7949.000
941.8730, 7981.000
942.9910, 7980.000
944.1090, 7993.000
945.2270, 8038.714
946.3450, 7937.000
947.4620, 8118.000
948.5800, 8090.000
949.6970, 8097.000
950.8140, 7963.000
951.9310, 8231.000
953.0480, 8155.000
954.1650, 8267.000
955.2810, 8295.000
956.3980, 8089.000
957.5140, 8086.000
958.6300, 8197.000
959.7460, 8110.000
960.8620, 8083.000
961.9780, 8198.000
963.0930, 8174.000
964.2080, 8370.000
965.3230, 8203.000
966.4380, 8296.000
967.5530, 8266.000
968.6680, 8251.000
969.7830, 8249.000
970.8970, 8333.000
972.0110, 8313.000
973.1250, 8470.000
974.2390, 8448.000
975.3530, 8500.000
976.4670, 8536.000
977.5800, 8590.000
978.6930, 8676.349
979.8070, 8750.049
980.9200, 8876.000
982.0320, 8928.000
983.1450, 9049.000
984.2580, 9118.000
985.3700, 9317.000
986.4820, 9451.000
987.5950, 9563.000
988.7070, 9699.000
989.8180, 9897.000
990.9300, 10003.00
992.0410, 9912.000
993.1530, 10062.00
994.2640, 10084.00
995.3750, 9940.000
996.4860, 9939.000
997.5970, 9853.240
998.7070, 9886.000
999.8180, 9695.000
1000.928, 9615.000
1002.038, 9543.129
1003.148, 9547.000
1004.258, 9496.000
1005.368, 9424.000
1006.477, 9397.000
1007.586, 9286.000
1008.696, 9263.000
1009.805, 9063.000
1010.914, 9290.000
1012.022, 9114.000
1013.131, 9060.000
1014.239, 9266.000
1015.348, 9034.000
1016.456, 9226.000
1017.564, 9177.000
1018.672, 9122.000
1019.780, 9146.000
1020.887, 9243.000
1021.994, 9322.000
1023.102, 9230.000
1024.209, 9437.000
1025.316, 9536.000
1026.423, 9361.000
1027.529, 9504.000
1028.636, 9578.000
1029.742, 9516.000
1030.848, 9511.000
1031.954, 9550.000
1033.060, 9573.910
1034.166, 9660.000
1035.272, 9697.000
1036.377, 9737.000
1037.482, 9791.000
1038.587, 9817.000
1039.692, 9906.000
1040.797, 9900.000
1041.902, 10028.00
1043.006, 9991.000
1044.111, 10018.00
1045.215, 10045.00
1046.319, 10062.00
1047.423, 10074.00
1048.527, 10115.81
1049.631, 10212.00
1050.734, 10167.00
1051.837, 10196.00
1052.941, 10160.00
1054.044, 10409.00
1055.146, 10399.00
1056.249, 10424.00
1057.352, 10284.00
1058.454, 10566.00
1059.556, 10473.50
1060.659, 10437.00
1061.761, 10457.00
1062.862, 10465.38
1063.964, 10538.00
1065.066, 10560.00
1066.167, 10730.00
1067.268, 10760.00
1068.369, 10979.00
1069.470, 11054.00
1070.571, 11072.00
1071.672, 11234.00
1072.772, 11311.00
1073.873, 11373.00
1074.973, 11567.00
1076.073, 11672.49
1077.173, 11872.00
1078.272, 12030.00
1079.372, 12219.00
1080.471, 12503.00
1081.571, 12744.00
1082.670, 12967.00
1083.769, 13243.00
1084.868, 13384.00
1085.966, 13799.00
1087.065, 14053.00
1088.163, 14410.00
1089.262, 14563.00
1090.360, 14993.00
1091.458, 15371.00
1092.555, 15582.00
1093.653, 15765.00
1094.751, 15907.00
1095.848, 16038.24
1096.945, 16125.50
1098.042, 16176.00
1099.139, 16160.00
1100.236, 16085.00
1101.333, 15896.00
1102.429, 15792.00
1103.525, 15533.00
1104.621, 15302.20
1105.718, 15019.74
1106.813, 14783.00
1107.909, 14388.00
1109.005, 14188.00
1110.100, 13929.00
1111.195, 13727.00
1112.291, 13492.00
1113.386, 13268.85
1114.480, 13112.00
1115.575, 12853.00
1116.670, 12626.00
1117.764, 12465.00
1118.858, 12291.00
1119.952, 12219.00
1121.046, 12157.00
1122.140, 12020.00
1123.234, 11804.00
1124.327, 11853.00
1125.421, 11727.00
1126.514, 11583.00
1127.607, 11555.00
1128.700, 11561.00
1129.792, 11474.99
1130.885, 11452.70
1131.978, 11446.00
1133.070, 11348.00
1134.162, 11447.00
1135.254, 11391.00
1136.346, 11315.00
1137.438, 11382.00
1138.529, 11339.00
1139.621, 11484.00
1140.712, 11369.00
1141.803, 11438.00
1142.894, 11365.00
1143.985, 11452.20
1145.076, 11699.00
1146.166, 11679.00
1147.257, 11824.00
1148.347, 12006.00
1149.437, 12018.00
1150.527, 12219.00
1151.617, 12194.00
1152.706, 12384.00
1153.796, 12510.00
1154.885, 12668.00
1155.975, 12691.00
1157.064, 12904.00
1158.153, 13023.00
1159.241, 13113.00
1160.330, 13307.00
1161.419, 13155.00
1162.507, 13405.00
1163.595, 13372.00
1164.683, 13580.00
1165.771, 13673.00
1166.859, 13675.16
1167.946, 13645.00
1169.034, 13677.00
1170.121, 13651.00
1171.208, 13593.00
1172.295, 13710.00
1173.382, 13658.00
1174.469, 13624.44
1175.556, 13542.61
1176.642, 13481.00
1177.728, 13277.00
1178.815, 13129.00
1179.901, 13005.00
1180.986, 12828.00
1182.072, 12725.00
1183.158, 12495.00
1184.243, 12376.00
1185.328, 12228.00
1186.414, 12001.00
1187.499, 11704.00
1188.583, 11573.00
1189.668, 11307.00
1190.753, 11110.00
1191.837, 11086.00
1192.921, 10841.00
1194.005, 10803.00
1195.089, 10680.00
1196.173, 10496.00
1197.257, 10406.00
1198.340, 10154.00
1199.424, 10159.00
1200.507, 10132.00
1201.590, 9905.000
1202.673, 9848.619
1203.756, 9817.000
1204.839, 9613.000
1205.921, 9650.000
1207.004, 9663.000
1208.086, 9636.000
1209.168, 9624.846
1210.250, 9586.687
1211.332, 9578.000
1212.413, 9449.000
1213.495, 9476.000
1214.576, 9320.000
1215.657, 9480.000
1216.738, 9385.000
1217.819, 9384.000
1218.900, 9313.000
1219.981, 9369.000
1221.061, 9227.000
1222.142, 9243.000
1223.222, 9216.000
1224.302, 9316.000
1225.382, 9229.000
1226.461, 9246.000
1227.541, 9246.000
1228.621, 9188.000
1229.700, 9203.000
1230.779, 9173.000
1231.858, 9180.000
1232.937, 9181.979
1234.016, 9200.000
1235.094, 9180.000
1236.173, 9202.000
1237.251, 9178.000
1238.329, 9221.000
1239.407, 9284.000
1240.485, 9335.000
1241.563, 9071.000
1242.641, 9235.000
1243.718, 9267.000
1244.795, 9073.000
1245.873, 9146.000
1246.950, 9230.000
1248.026, 9172.000
1249.103, 9140.000
1250.180, 9058.000
1251.256, 9146.000
1252.333, 9204.000
1253.409, 9183.000
1254.485, 9219.000
1255.561, 9232.000
1256.636, 9119.000
1257.712, 9228.000
1258.787, 9138.000
1259.863, 9284.000
1260.938, 9197.000
1262.013, 9315.000
1263.088, 9203.000
1264.162, 9246.000
1265.237, 9174.000
1266.312, 9217.000
1267.386, 9346.000
1268.460, 9305.000
1269.534, 9207.000
1270.608, 9312.000
1271.682, 9330.000
1272.755, 9333.000
1273.829, 9382.000
1274.902, 9268.000
1275.975, 9249.000
1277.048, 9243.000
1278.121, 9248.912
1279.194, 9207.000
1280.266, 9362.000
1281.339, 9317.000
1282.411, 9413.000
1283.483, 9330.000
1284.555, 9280.000
1285.627, 9571.000
1286.699, 9396.000
1287.770, 9455.000
1288.842, 9383.000
1289.913, 9343.000
1290.984, 9465.000
1292.055, 9432.000
1293.126, 9498.000
1294.197, 9641.000
1295.267, 9483.000
1296.338, 9429.000
1297.408, 9602.000
1298.478, 9494.000
1299.548, 9509.000
1300.618, 9592.000
1301.688, 9523.000
1302.758, 9611.000
1303.827, 9577.000
1304.896, 9497.000
1305.966, 9610.000
1307.035, 9657.000
1308.103, 9529.000
1309.172, 9705.000
1310.241, 9678.000
1311.309, 9468.000
1312.378, 9602.000
1313.446, 9740.000
1314.514, 9663.000
1315.582, 9679.000
1316.649, 9699.000
1317.717, 9639.000
1318.785, 9691.000
1319.852, 9760.000
1320.919, 9704.000
1321.986, 9687.000
1323.053, 9581.000
1324.120, 9794.000
1325.186, 9762.000
1326.253, 9698.000
1327.319, 9633.000
1328.385, 9670.000
1329.451, 9679.000
1330.517, 9710.000
1331.583, 9602.000
1332.649, 9581.000
1333.714, 9690.000
1334.780, 9648.000
1335.845, 9721.000
1336.910, 9588.000
1337.975, 9531.000
1339.040, 9568.000
1340.104, 9576.000
1341.169, 9566.421
1342.233, 9619.667
1343.297, 9575.000
1344.361, 9655.000
1345.425, 9662.000
1346.489, 9569.000
1347.553, 9531.000
1348.616, 9602.000
1349.680, 9747.000
1350.743, 9656.000
1351.806, 9647.000
1352.869, 9683.000
1353.932, 9579.000
1354.994, 9592.000
1356.057, 9676.000
1357.119, 9591.000
1358.182, 9675.000
1359.244, 9723.000
1360.306, 9826.000
1361.367, 9775.383
1362.429, 9606.000
1363.491, 9657.000
1364.552, 9700.000
1365.613, 9630.000
1366.675, 9695.000
1367.736, 9645.000
1368.796, 9678.694
1369.857, 9662.000
1370.918, 9720.000
1371.978, 9737.000
1373.038, 9707.000
1374.099, 9741.000
1375.159, 9794.000
1376.218, 9802.967
1377.278, 9795.000
1378.338, 9826.000
1379.397, 9783.000
1380.457, 9691.000
1381.516, 9750.000
1382.575, 9739.000
1383.634, 9739.000
1384.692, 9776.000
1385.751, 9677.000
1386.809, 9861.000
1387.868, 9709.000
1388.926, 9751.000
1389.984, 9664.000
1391.042, 9660.708
1392.100, 9803.000
1393.157, 9695.000
1394.215, 9742.000
1395.272, 9802.000
1396.330, 9774.000
1397.387, 9879.000
1398.444, 9812.000
1399.500, 9703.000
1400.557, 9820.000
1401.614, 9875.000
1402.670, 9759.000
1403.726, 9729.000
1404.782, 9890.000
1405.838, 9855.000
1406.894, 9749.000
1407.950, 9795.000
1409.005, 9842.000
1410.061, 9859.000
1411.116, 9884.022
1412.171, 9879.000
1413.226, 9911.000
1414.281, 9862.000
1415.336, 9879.000
1416.390, 9904.000
1417.445, 9974.000
1418.499, 9980.000
1419.553, 9897.000
1420.607, 9846.000
1421.661, 9855.000
1422.715, 9941.000
1423.769, 9860.000
1424.822, 9982.000
1425.875, 10032.00
1426.929, 9860.000
1427.982, 9986.000
1429.035, 9876.000
1430.087, 9942.000
1431.140, 9980.000
1432.193, 9926.000
1433.245, 9894.000
1434.297, 10035.00
1435.349, 9880.000
1436.401, 9992.000
1437.453, 9997.000
1438.505, 10057.00
1439.556, 10060.00
1440.608, 10071.00
1441.659, 9999.000
1442.710, 10075.00
1443.761, 10023.00
1444.812, 9943.000
1445.863, 10105.00
1446.913, 9951.000
1447.964, 10158.00
1449.014, 10031.00
1450.064, 10238.00
1451.114, 10084.00
1452.164, 10070.00
1453.214, 10161.00
1454.264, 10121.00
1455.313, 10263.00
1456.362, 10205.00
1457.412, 10293.00
1458.461, 10079.00
1459.510, 10140.00
1460.558, 10201.00
1461.607, 10222.00
1462.656, 10321.00
1463.704, 10270.00
1464.752, 10231.00
1465.800, 10245.00
1466.848, 10363.00
1467.896, 10323.00
1468.944, 10375.00
1469.991, 10372.00
1471.039, 10249.00
1472.086, 10257.00
1473.133, 10359.00
1474.180, 10473.00
1475.227, 10411.00
1476.274, 10423.00
1477.321, 10339.00
1478.367, 10331.00
1479.413, 10161.00
1480.460, 10274.00
1481.506, 10222.00
1482.552, 10313.00
1483.597, 10361.00
1484.643, 10450.00
1485.689, 10422.00
1486.734, 10300.05
1487.779, 10336.76
1488.824, 10357.27
1489.869, 10362.46
1490.914, 10306.41
1491.959, 10329.44
1493.003, 10320.77
1494.048, 10310.81
1495.092, 10344.96
1496.136, 10413.00
1497.180, 10371.00
1498.224, 10314.00
1499.268, 10324.00
1500.312, 10440.00
1501.355, 10497.00
1502.398, 10529.00
1503.442, 10514.00
1504.485, 10561.00
1505.528, 10523.00
1506.570, 10452.00
1507.613, 10407.00
1508.656, 10659.00
1509.698, 10521.00
1510.740, 10573.00
1511.782, 10577.00
1512.824, 10574.00
1513.866, 10627.00
1514.908, 10620.00
1515.949, 10521.00
1516.991, 10481.00
1518.032, 10580.00
1519.073, 10679.00
1520.114, 10628.00
1521.155, 10578.00
1522.196, 10618.00
1523.237, 10591.60
1524.277, 10663.00
1525.318, 10623.00
1526.358, 10679.00
1527.398, 10722.00
1528.438, 10551.00
1529.478, 10625.00
1530.517, 10617.82
1531.557, 10573.00
1532.596, 10667.00
1533.636, 10652.00
1534.675, 10637.00
1535.714, 10766.00
1536.753, 10647.00
1537.791, 10689.00
1538.830, 10682.00
1539.869, 10626.00
1540.907, 10784.00
1541.945, 10829.00
1542.983, 10828.00
1544.021, 10893.00
1545.059, 10803.00
1546.097, 10770.00
1547.134, 10811.00
1548.171, 10882.00
1549.209, 10931.00
1550.246, 10989.00
1551.283, 11006.00
1552.320, 10803.00
1553.356, 11184.00
1554.393, 11117.00
1555.429, 11052.00
1556.466, 10819.00
1557.502, 10943.00
1558.538, 10929.00
1559.574, 10870.00
1560.610, 10946.00
1561.645, 10911.00
1562.681, 10897.00
1563.716, 11076.00
1564.752, 11030.00
1565.787, 10961.00
1566.822, 11091.00
1567.857, 11023.00
1568.891, 11073.00
1569.926, 11040.00
1570.960, 11030.00
1571.995, 11011.00
1573.029, 11028.00
1574.063, 11121.00
1575.097, 11107.00
1576.130, 11158.00
1577.164, 11164.00
##END=



