##NAMES=Levyne-Na
##RRUFFID=R060021
##IDEAL CHEMISTRY=Na_6_(Si_12_Al_6_)O_36_&#183;18H_2_O
##LOCALITY=Dallas, Oregon, USA
##OWNER=RRUFF
##SOURCE=Bob Downs
##DESCRIPTION=White tabular hexagonal-shaped crystals associated with analcime, R060023
##STATUS=The identification of this mineral has been confirmed by X-ray diffraction and chemical analysis
##URL=rruff.info/R060021
##MEASURED CHEMISTRY=(Na_0.70_Ca_0.26_K_0.04_)_6_(Si_0.58_Al_0.42_)_18_O_36_Â·18H_2_O
##PIN_ID=L00788
##ORIENTATION=Laser parallel to c* (0 0 1). Fiducial mark perpendicular to laser is parallel to a [1 0 0]
88.15400, 21789.00
89.39400, 22003.00
90.63400, 22266.00
91.87400, 22616.00
93.11400, 22636.00
94.35400, 22745.00
95.59300, 22833.00
96.83200, 22751.00
98.07200, 22796.00
99.31000, 23253.00
100.5490, 23616.00
101.7880, 23893.00
103.0260, 24331.00
104.2640, 24660.00
105.5020, 25296.00
106.7400, 26332.00
107.9780, 27167.00
109.2150, 27876.00
110.4520, 28004.00
111.6890, 27890.00
112.9260, 28269.00
114.1630, 28793.00
115.3990, 28997.00
116.6360, 29285.00
117.8720, 28585.00
119.1080, 28054.00
120.3440, 28204.00
121.5790, 28667.00
122.8150, 28310.00
124.0500, 26588.00
125.2850, 24317.00
126.5200, 22451.00
127.7550, 21220.00
128.9890, 20775.00
130.2230, 20299.00
131.4570, 19915.00
132.6910, 19608.00
133.9250, 19312.00
135.1590, 19070.00
136.3920, 18800.00
137.6250, 18724.00
138.8580, 18667.00
140.0910, 18524.00
141.3240, 18145.00
142.5570, 17941.00
143.7890, 17713.00
145.0210, 17409.00
146.2530, 17174.00
147.4850, 17119.00
148.7160, 16881.00
149.9480, 16836.00
151.1790, 16574.00
152.4100, 16372.00
153.6410, 16238.00
154.8710, 16251.00
156.1020, 16072.00
157.3320, 16039.00
158.5620, 15933.00
159.7920, 15987.00
161.0220, 15999.00
162.2520, 15932.07
163.4810, 15840.38
164.7100, 15831.00
165.9390, 15545.00
167.1680, 15448.00
168.3970, 15306.00
169.6250, 15197.00
170.8540, 15140.00
172.0820, 15084.66
173.3100, 15087.00
174.5370, 15096.00
175.7650, 14991.00
176.9920, 15092.00
178.2200, 15170.00
179.4470, 15064.00
180.6740, 15253.00
181.9000, 15297.00
183.1270, 15173.00
184.3530, 15290.00
185.5790, 15251.20
186.8050, 15163.52
188.0310, 15184.00
189.2570, 15031.00
190.4820, 14818.00
191.7070, 14847.00
192.9320, 14470.00
194.1570, 14448.00
195.3820, 14123.00
196.6060, 13869.00
197.8310, 13843.00
199.0550, 13744.00
200.2790, 13579.00
201.5030, 13544.00
202.7260, 13393.00
203.9500, 13086.00
205.1730, 12866.00
206.3960, 12863.00
207.6190, 12735.00
208.8420, 12684.94
210.0640, 12563.56
211.2870, 12615.00
212.5090, 12378.00
213.7310, 12304.00
214.9530, 12390.00
216.1740, 12095.00
217.3960, 12109.00
218.6170, 12061.00
219.8380, 12088.00
221.0590, 12044.40
222.2800, 12034.58
223.5000, 12025.25
224.7210, 12017.28
225.9410, 11961.87
227.1610, 12008.24
228.3810, 12038.57
229.6000, 12085.14
230.8200, 12196.35
232.0390, 12238.67
233.2580, 12384.37
234.4770, 12513.49
235.6960, 12546.60
236.9150, 12575.00
238.1330, 12779.22
239.3510, 12824.82
240.5690, 13245.85
241.7870, 13165.00
243.0050, 13245.00
244.2220, 13492.00
245.4400, 13655.00
246.6570, 13777.00
247.8740, 14119.00
249.0910, 14266.00
250.3070, 14386.00
251.5240, 14575.00
252.7400, 14670.00
253.9560, 14635.00
255.1720, 14752.00
256.3880, 14753.00
257.6030, 14604.00
258.8190, 14670.00
260.0340, 14730.00
261.2490, 14612.00
262.4640, 14479.00
263.6780, 14451.00
264.8930, 14452.00
266.1070, 14315.00
267.3210, 14477.00
268.5350, 14405.38
269.7490, 14413.57
270.9630, 14418.00
272.1760, 14411.00
273.3890, 14438.00
274.6030, 14516.16
275.8150, 14595.70
277.0280, 14752.00
278.2410, 14868.00
279.4530, 15074.00
280.6650, 15302.00
281.8770, 15609.00
283.0890, 16214.00
284.3010, 16606.00
285.5120, 16977.00
286.7230, 17504.00
287.9350, 17715.00
289.1460, 18272.00
290.3560, 18455.00
291.5670, 18526.00
292.7770, 18545.00
293.9880, 18129.00
295.1980, 17800.00
296.4080, 17442.00
297.6170, 16845.54
298.8270, 16397.00
300.0360, 15628.00
301.2450, 15250.00
302.4540, 14675.00
303.6630, 14323.00
304.8720, 14091.00
306.0800, 13804.00
307.2890, 13836.00
308.4970, 13674.00
309.7050, 13724.00
310.9120, 13846.00
312.1200, 13887.99
313.3270, 13879.00
314.5350, 14107.00
315.7420, 14302.00
316.9490, 14293.00
318.1550, 14588.00
319.3620, 14694.00
320.5680, 14759.00
321.7740, 14752.00
322.9800, 14923.00
324.1860, 14778.00
325.3920, 14839.00
326.5970, 14843.00
327.8030, 14706.00
329.0080, 14668.00
330.2130, 14960.00
331.4180, 15059.00
332.6220, 15277.00
333.8270, 15610.00
335.0310, 15663.00
336.2350, 16157.00
337.4390, 16326.00
338.6430, 16452.00
339.8460, 17022.00
341.0500, 17114.00
342.2530, 17261.00
343.4560, 17507.00
344.6590, 17631.00
345.8610, 17594.00
347.0640, 17672.00
348.2660, 17641.00
349.4680, 17572.48
350.6700, 17516.00
351.8720, 17374.00
353.0740, 17283.00
354.2750, 17140.00
355.4770, 17143.00
356.6780, 16922.00
357.8790, 16816.00
359.0790, 16823.00
360.2800, 16803.00
361.4800, 16795.00
362.6810, 17050.67
363.8810, 17334.00
365.0810, 17790.00
366.2800, 18077.00
367.4800, 18805.00
368.6790, 18987.00
369.8780, 19624.00
371.0770, 20447.00
372.2760, 21205.00
373.4750, 21786.00
374.6730, 22295.94
375.8720, 22641.00
377.0700, 22869.00
378.2680, 22520.00
379.4660, 22295.00
380.6630, 21718.00
381.8610, 21075.00
383.0580, 21083.00
384.2550, 19927.00
385.4520, 19196.82
386.6490, 18583.00
387.8460, 17353.00
389.0420, 16429.00
390.2380, 16011.00
391.4340, 15726.00
392.6300, 15438.00
393.8260, 15163.00
395.0210, 14753.00
396.2170, 14595.00
397.4120, 14322.00
398.6070, 14192.00
399.8020, 14039.00
400.9970, 13784.00
402.1910, 13467.00
403.3860, 13307.00
404.5800, 13334.00
405.7740, 13088.00
406.9680, 13033.00
408.1610, 12782.00
409.3550, 12823.00
410.5480, 12632.00
411.7410, 12647.00
412.9340, 12600.00
414.1270, 12399.00
415.3200, 12254.00
416.5120, 12279.00
417.7040, 12367.00
418.8960, 12452.00
420.0880, 12360.24
421.2800, 12176.00
422.4720, 12208.00
423.6630, 12065.00
424.8540, 12064.00
426.0450, 12255.00
427.2360, 12273.25
428.4270, 12366.00
429.6180, 12505.00
430.8080, 12650.00
431.9980, 12667.00
433.1880, 12921.00
434.3780, 13042.00
435.5680, 13137.00
436.7570, 13427.00
437.9470, 13662.00
439.1360, 13945.00
440.3250, 14223.00
441.5140, 14469.00
442.7020, 14871.00
443.8910, 15142.00
445.0790, 15667.00
446.2670, 16104.00
447.4550, 16299.00
448.6430, 16735.00
449.8310, 17259.00
451.0180, 17533.00
452.2060, 17811.00
453.3930, 18147.00
454.5800, 18592.00
455.7660, 18918.00
456.9530, 19278.00
458.1400, 19752.00
459.3260, 20010.00
460.5120, 20457.00
461.6980, 20910.00
462.8840, 21325.00
464.0690, 21689.63
465.2550, 22002.03
466.4400, 22300.00
467.6250, 22486.00
468.8100, 22623.00
469.9950, 22648.18
471.1790, 22775.08
472.3640, 22884.82
473.5480, 22978.18
474.7320, 23342.00
475.9160, 23501.00
477.1000, 23830.00
478.2830, 24055.00
479.4670, 24318.00
480.6500, 24961.00
481.8330, 25422.00
483.0160, 26013.00
484.1980, 27155.00
485.3810, 27995.00
486.5630, 28738.00
487.7450, 29823.00
488.9270, 31045.00
490.1090, 32308.00
491.2910, 33512.00
492.4730, 34668.00
493.6540, 35901.00
494.8350, 37332.00
496.0160, 38216.00
497.1970, 39200.00
498.3780, 40215.00
499.5580, 40427.00
500.7380, 40636.00
501.9190, 40512.00
503.0990, 40139.00
504.2780, 39230.00
505.4580, 37938.00
506.6380, 36641.00
507.8170, 34925.00
508.9960, 33188.00
510.1750, 31397.00
511.3540, 29403.00
512.5320, 27738.00
513.7110, 25942.00
514.8890, 24511.00
516.0670, 23112.00
517.2450, 21842.39
518.4230, 20760.22
519.6010, 19724.00
520.7780, 18885.00
521.9560, 18091.00
523.1330, 17366.00
524.3100, 16869.00
525.4860, 16466.00
526.6630, 15896.00
527.8400, 15492.00
529.0160, 15449.00
530.1920, 14932.00
531.3680, 14727.00
532.5440, 14469.00
533.7190, 14122.00
534.8950, 13887.00
536.0700, 13827.00
537.2450, 13564.00
538.4200, 13518.00
539.5950, 13467.00
540.7690, 13200.00
541.9440, 13202.00
543.1180, 13046.00
544.2920, 13062.00
545.4660, 13004.00
546.6400, 12906.00
547.8140, 12857.00
548.9870, 12899.00
550.1600, 12808.00
551.3330, 12836.00
552.5060, 12938.00
553.6790, 12880.00
554.8520, 12898.00
556.0240, 13096.00
557.1960, 13055.00
558.3680, 13061.00
559.5400, 13058.00
560.7120, 13087.53
561.8840, 13264.00
563.0550, 13176.00
564.2260, 13356.00
565.3980, 13409.00
566.5680, 13517.00
567.7390, 13510.78
568.9100, 13294.00
570.0800, 13390.00
571.2510, 13273.00
572.4210, 13100.00
573.5910, 13084.00
574.7600, 12832.00
575.9300, 12700.00
577.0990, 12561.00
578.2690, 12494.00
579.4380, 12303.00
580.6070, 12183.00
581.7750, 11978.00
582.9440, 11867.83
584.1120, 11782.00
585.2810, 11660.00
586.4490, 11557.00
587.6170, 11509.00
588.7840, 11365.00
589.9520, 11215.00
591.1190, 11167.92
592.2870, 11031.97
593.4540, 11069.00
594.6210, 10877.00
595.7880, 10901.00
596.9540, 10922.00
598.1210, 10828.00
599.2870, 10849.00
600.4530, 10812.00
601.6190, 10744.00
602.7850, 10590.00
603.9500, 10653.00
605.1160, 10646.00
606.2810, 10556.00
607.4460, 10619.00
608.6110, 10503.00
609.7760, 10528.46
610.9410, 10485.18
612.1050, 10513.00
613.2690, 10427.00
614.4330, 10355.00
615.5970, 10376.00
616.7610, 10402.00
617.9250, 10399.00
619.0880, 10337.00
620.2520, 10340.00
621.4150, 10260.00
622.5780, 10249.00
623.7400, 10353.00
624.9030, 10339.18
626.0660, 10319.67
627.2280, 10418.00
628.3900, 10278.00
629.5520, 10250.00
630.7140, 10314.00
631.8750, 10203.27
633.0370, 10286.00
634.1980, 10135.00
635.3590, 10393.00
636.5200, 10452.00
637.6810, 10221.00
638.8420, 10318.00
640.0020, 10258.61
641.1630, 10216.00
642.3230, 10249.00
643.4830, 10152.00
644.6430, 10175.00
645.8020, 10164.00
646.9620, 10211.00
648.1210, 10208.00
649.2810, 10115.00
650.4400, 10183.00
651.5980, 10126.00
652.7570, 10171.00
653.9160, 10106.00
655.0740, 10209.00
656.2320, 10067.00
657.3900, 10147.00
658.5480, 10117.00
659.7060, 10116.00
660.8630, 10210.00
662.0210, 10193.00
663.1780, 10222.00
664.3350, 10241.00
665.4920, 10216.00
666.6490, 10382.00
667.8050, 10397.00
668.9620, 10476.00
670.1180, 10496.00
671.2740, 10509.00
672.4300, 10477.00
673.5860, 10516.00
674.7410, 10576.00
675.8970, 10640.00
677.0520, 10680.74
678.2070, 10772.00
679.3620, 10840.00
680.5170, 10765.00
681.6720, 10975.00
682.8260, 10856.00
683.9800, 11042.00
685.1340, 11322.00
686.2880, 11238.00
687.4420, 11275.00
688.5960, 11352.00
689.7490, 11333.45
690.9030, 11371.20
692.0560, 11354.00
693.2090, 11423.00
694.3620, 11354.00
695.5140, 11438.00
696.6670, 11157.00
697.8190, 11261.00
698.9710, 11012.00
700.1230, 10993.00
701.2750, 10998.00
702.4270, 10807.00
703.5780, 10724.00
704.7300, 10498.00
705.8810, 10557.00
707.0320, 10562.00
708.1830, 10451.00
709.3340, 10423.71
710.4840, 10514.00
711.6350, 10179.00
712.7850, 10218.00
713.9350, 9978.000
715.0850, 9961.000
716.2350, 9987.000
717.3840, 9929.000
718.5340, 9907.732
719.6830, 9900.774
720.8320, 9814.000
721.9810, 9843.000
723.1300, 9790.000
724.2780, 9698.000
725.4270, 9710.000
726.5750, 9621.000
727.7230, 9686.000
728.8710, 9744.000
730.0190, 9839.681
731.1670, 9805.210
732.3140, 9767.769
733.4610, 9712.000
734.6090, 9622.000
735.7560, 9519.138
736.9030, 9517.983
738.0490, 9539.806
739.1960, 9637.000
740.3420, 9701.000
741.4880, 9619.000
742.6340, 9728.000
743.7800, 9703.000
744.9260, 9646.000
746.0720, 9815.000
747.2170, 9568.000
748.3620, 9839.000
749.5070, 9756.000
750.6520, 9726.000
751.7970, 9680.000
752.9420, 9737.000
754.0860, 9713.000
755.2300, 9844.000
756.3740, 9689.000
757.5180, 9677.000
758.6620, 9809.000
759.8060, 9601.000
760.9490, 9750.000
762.0930, 9688.000
763.2360, 9743.000
764.3790, 9783.000
765.5220, 9627.000
766.6640, 9785.000
767.8070, 9894.000
768.9490, 9749.000
770.0910, 9838.000
771.2330, 9670.000
772.3750, 9842.000
773.5170, 9714.000
774.6590, 9728.000
775.8000, 9786.000
776.9410, 9681.000
778.0820, 9832.000
779.2230, 9612.000
780.3640, 9758.000
781.5050, 9717.000
782.6450, 9736.000
783.7850, 9653.000
784.9260, 9643.000
786.0660, 9733.000
787.2050, 9726.000
788.3450, 9689.000
789.4850, 9709.000
790.6240, 9710.000
791.7630, 9684.000
792.9020, 9568.000
794.0410, 9633.000
795.1800, 9521.000
796.3180, 9482.000
797.4570, 9462.000
798.5950, 9505.000
799.7330, 9511.000
800.8710, 9318.000
802.0090, 9475.000
803.1460, 9339.000
804.2840, 9557.000
805.4210, 9436.000
806.5580, 9444.000
807.6950, 9532.000
808.8320, 9412.000
809.9680, 9445.000
811.1050, 9434.078
812.2410, 9409.249
813.3770, 9363.000
814.5130, 9356.848
815.6490, 9340.789
816.7850, 9330.000
817.9200, 9348.000
819.0560, 9350.000
820.1910, 9389.000
821.3260, 9283.000
822.4610, 9354.000
823.5960, 9230.000
824.7300, 9301.000
825.8650, 9487.000
826.9990, 9305.000
828.1330, 9431.000
829.2670, 9365.000
830.4010, 9314.000
831.5340, 9227.777
832.6680, 9302.188
833.8010, 9345.962
834.9340, 9360.752
836.0670, 9259.742
837.2000, 9308.263
838.3330, 9296.858
839.4660, 9282.997
840.5980, 9352.561
841.7300, 9268.389
842.8620, 9391.000
843.9940, 9313.000
845.1260, 9349.000
846.2570, 9355.000
847.3890, 9401.000
848.5200, 9389.090
849.6510, 9413.475
850.7820, 9392.000
851.9130, 9444.000
853.0440, 9497.000
854.1740, 9522.867
855.3050, 9566.000
856.4350, 9556.000
857.5650, 9488.000
858.6950, 9490.000
859.8240, 9453.540
860.9540, 9456.372
862.0830, 9403.000
863.2130, 9479.000
864.3420, 9465.000
865.4710, 9471.000
866.5990, 9538.000
867.7280, 9561.000
868.8560, 9642.000
869.9850, 9675.000
871.1130, 9697.788
872.2410, 9674.630
873.3690, 9685.000
874.4960, 9602.000
875.6240, 9487.000
876.7510, 9504.000
877.8780, 9729.000
879.0060, 9573.000
880.1320, 9711.000
881.2590, 9599.000
882.3860, 9547.000
883.5120, 9729.000
884.6380, 9686.000
885.7650, 9632.000
886.8910, 9725.000
888.0160, 9702.000
889.1420, 9670.361
890.2680, 9729.000
891.3930, 9625.000
892.5180, 9676.000
893.6430, 9741.000
894.7680, 9715.000
895.8930, 9698.000
897.0170, 9741.000
898.1420, 9772.000
899.2660, 9687.000
900.3900, 9756.000
901.5140, 9761.000
902.6380, 9829.000
903.7610, 9874.000
904.8850, 9753.000
906.0080, 9967.000
907.1310, 9941.000
908.2540, 9846.000
909.3770, 9893.000
910.5000, 9873.000
911.6220, 9962.000
912.7450, 10033.00
913.8670, 10000.00
914.9890, 9931.000
916.1110, 10032.00
917.2330, 10063.00
918.3550, 10274.00
919.4760, 10288.00
920.5970, 10324.00
921.7180, 10350.00
922.8390, 10411.00
923.9600, 10540.00
925.0810, 10620.00
926.2020, 10823.00
927.3220, 10683.00
928.4420, 11052.00
929.5620, 10806.00
930.6820, 11151.00
931.8020, 11168.00
932.9220, 11183.00
934.0410, 11330.00
935.1600, 11402.00
936.2790, 11381.00
937.3980, 11316.00
938.5170, 11394.00
939.6360, 11295.00
940.7550, 11283.00
941.8730, 11351.00
942.9910, 11367.23
944.1090, 11385.49
945.2270, 11411.64
946.3450, 11436.00
947.4620, 11444.00
948.5800, 11493.00
949.6970, 11535.00
950.8140, 11598.00
951.9310, 11594.00
953.0480, 11636.00
954.1650, 11629.00
955.2810, 11549.00
956.3980, 11404.00
957.5140, 11387.91
958.6300, 11422.00
959.7460, 11273.00
960.8620, 11234.00
961.9780, 11173.45
963.0930, 11234.00
964.2080, 11084.00
965.3230, 11132.00
966.4380, 10971.00
967.5530, 10892.00
968.6680, 10888.24
969.7830, 10857.38
970.8970, 10855.00
972.0110, 10909.00
973.1250, 10927.00
974.2390, 10932.00
975.3530, 10941.00
976.4670, 11009.00
977.5800, 11056.99
978.6930, 11183.00
979.8070, 11203.00
980.9200, 11223.00
982.0320, 11278.00
983.1450, 11438.45
984.2580, 11606.00
985.3700, 11893.00
986.4820, 12015.00
987.5950, 12391.00
988.7070, 12344.00
989.8180, 12531.00
990.9300, 12723.00
992.0410, 12735.00
993.1530, 12680.00
994.2640, 12761.00
995.3750, 12694.43
996.4860, 12698.29
997.5970, 12617.00
998.7070, 12637.00
999.8180, 12609.00
1000.928, 12511.00
1002.038, 12397.00
1003.148, 12376.00
1004.258, 12057.00
1005.368, 12175.00
1006.477, 11938.00
1007.586, 11839.00
1008.696, 11757.00
1009.805, 11824.00
1010.914, 11780.00
1012.022, 11741.00
1013.131, 11603.00
1014.239, 11660.00
1015.348, 11584.41
1016.456, 11532.35
1017.564, 11567.00
1018.672, 11465.00
1019.780, 11535.00
1020.887, 11581.00
1021.994, 11477.00
1023.102, 11609.00
1024.209, 11555.00
1025.316, 11302.00
1026.423, 11307.00
1027.529, 11431.00
1028.636, 11468.00
1029.742, 11466.72
1030.848, 11447.00
1031.954, 11436.00
1033.060, 11376.00
1034.166, 11332.00
1035.272, 11376.00
1036.377, 11330.00
1037.482, 11357.00
1038.587, 11279.00
1039.692, 11204.00
1040.797, 11344.00
1041.902, 11283.00
1043.006, 11334.00
1044.111, 11253.00
1045.215, 11268.00
1046.319, 11182.00
1047.423, 11176.00
1048.527, 11317.00
1049.631, 11222.00
1050.734, 11261.00
1051.837, 11318.00
1052.941, 11266.00
1054.044, 11248.00
1055.146, 11128.00
1056.249, 11242.00
1057.352, 11389.00
1058.454, 11379.00
1059.556, 11138.00
1060.659, 11438.00
1061.761, 11185.00
1062.862, 11240.00
1063.964, 11308.00
1065.066, 11390.00
1066.167, 11422.00
1067.268, 11471.00
1068.369, 11377.00
1069.470, 11481.00
1070.571, 11375.00
1071.672, 11495.00
1072.772, 11504.00
1073.873, 11585.00
1074.973, 11478.00
1076.073, 11626.00
1077.173, 11710.00
1078.272, 11699.00
1079.372, 11869.00
1080.471, 11871.00
1081.571, 11992.00
1082.670, 11969.00
1083.769, 12055.00
1084.868, 12174.00
1085.966, 12209.00
1087.065, 12325.00
1088.163, 12477.00
1089.262, 12652.73
1090.360, 12750.95
1091.458, 12828.16
1092.555, 12885.25
1093.653, 12873.47
1094.751, 12942.04
1095.848, 12973.08
1096.945, 12998.98
1098.042, 13068.03
1099.139, 13046.85
1100.236, 13107.62
1101.333, 13130.41
1102.429, 13165.08
1103.525, 13162.07
1104.621, 13165.78
1105.718, 13199.66
1106.813, 13210.98
1107.909, 13189.03
1109.005, 13202.13
1110.100, 13142.13
1111.195, 13139.23
1112.291, 13158.82
1113.386, 13119.79
1114.480, 13114.77
1115.575, 13091.60
1116.670, 12983.00
1117.764, 12935.00
1118.858, 12937.00
1119.952, 12912.00
1121.046, 12883.86
1122.140, 12847.00
1123.234, 12843.00
1124.327, 12824.00
1125.421, 12824.87
1126.514, 12758.00
1127.607, 12775.00
1128.700, 12651.00
1129.792, 12560.00
1130.885, 12641.00
1131.978, 12548.00
1133.070, 12531.00
1134.162, 12422.00
1135.254, 12365.00
1136.346, 12374.00
1137.438, 12261.00
1138.529, 12359.00
1139.621, 12361.00
1140.712, 12360.00
1141.803, 12257.00
1142.894, 12141.00
1143.985, 12300.00
1145.076, 12210.00
1146.166, 12314.00
1147.257, 12126.00
1148.347, 12244.00
1149.437, 12175.00
1150.527, 12203.00
1151.617, 12184.00
1152.706, 12103.00
1153.796, 12232.00
1154.885, 12262.00
1155.975, 12114.00
1157.064, 12092.00
1158.153, 12079.00
1159.241, 12095.00
1160.330, 12093.00
1161.419, 12118.00
1162.507, 12091.82
1163.595, 11928.00
1164.683, 12092.00
1165.771, 11977.00
1166.859, 12078.00
1167.946, 12053.15
1169.034, 11991.29
1170.121, 12006.00
1171.208, 11873.00
1172.295, 11853.00
1173.382, 11788.00
1174.469, 11864.00
1175.556, 11722.00
1176.642, 11675.00
1177.728, 11750.00
1178.815, 11681.00
1179.901, 11579.00
1180.986, 11636.00
1182.072, 11549.00
1183.158, 11494.00
1184.243, 11554.00
1185.328, 11445.00
1186.414, 11467.00
1187.499, 11395.00
1188.583, 11243.00
1189.668, 11436.00
1190.753, 11325.09
1191.837, 11244.71
1192.921, 11300.00
1194.005, 11107.00
1195.089, 11045.00
1196.173, 11167.00
1197.257, 10952.00
1198.340, 11103.00
1199.424, 11080.00
1200.507, 11045.00
1201.590, 10921.00
1202.673, 10975.00
1203.756, 10873.00
1204.839, 10944.00
1205.921, 11045.00
1207.004, 11094.00
1208.086, 10998.00
1209.168, 10970.00
1210.250, 10951.00
1211.332, 10803.00
1212.413, 10874.00
1213.495, 10949.00
1214.576, 10789.00
1215.657, 10926.00
1216.738, 10848.00
1217.819, 10871.00
1218.900, 10884.00
1219.981, 10775.00
1221.061, 10815.00
1222.142, 10911.00
1223.222, 10805.00
1224.302, 11054.00
1225.382, 10803.00
1226.461, 10858.00
1227.541, 10923.00
1228.621, 10888.00
1229.700, 10883.00
1230.779, 10789.00
1231.858, 10817.64
1232.937, 10801.00
1234.016, 10858.00
1235.094, 10893.00
1236.173, 10959.00
1237.251, 10860.00
1238.329, 11013.00
1239.407, 10933.00
1240.485, 11026.00
1241.563, 10865.00
1242.641, 10985.00
1243.718, 10825.00
1244.795, 10956.00
1245.873, 10926.00
1246.950, 10885.00
1248.026, 10918.00
1249.103, 10952.00
1250.180, 10929.00
1251.256, 10917.00
1252.333, 10976.00
1253.409, 10989.00
1254.485, 10936.00
1255.561, 10967.00
1256.636, 10904.00
1257.712, 10992.00
1258.787, 11034.00
1259.863, 11016.00
1260.938, 10963.00
1262.013, 11071.00
1263.088, 10999.00
1264.162, 10967.00
1265.237, 11054.00
1266.312, 10863.00
1267.386, 11044.00
1268.460, 11024.00
1269.534, 11027.00
1270.608, 11051.00
1271.682, 11029.00
1272.755, 11137.00
1273.829, 10985.00
1274.902, 11080.00
1275.975, 11141.00
1277.048, 11092.00
1278.121, 11077.00
1279.194, 11050.00
1280.266, 11085.00
1281.339, 10974.58
1282.411, 11068.74
1283.483, 11132.27
1284.555, 11166.81
1285.627, 11085.55
1286.699, 11153.83
1287.770, 11162.16
1288.842, 11168.05
1289.913, 11257.35
1290.984, 11112.00
1292.055, 11256.00
1293.126, 11306.00
1294.197, 11124.00
1295.267, 11260.00
1296.338, 11193.00
1297.408, 11266.00
1298.478, 11306.00
1299.548, 11179.00
1300.618, 11171.00
1301.688, 11345.00
1302.758, 11355.00
1303.827, 11361.57
1304.896, 11307.00
1305.966, 11282.42
1307.035, 11350.11
1308.103, 11387.17
1309.172, 11395.25
1310.241, 11287.52
1311.309, 11329.33
1312.378, 11311.21
1313.446, 11290.63
1314.514, 11353.49
1315.582, 11262.61
1316.649, 11324.14
1317.717, 11324.83
1318.785, 11221.00
1319.852, 11284.00
1320.919, 11335.00
1321.986, 11443.00
1323.053, 11263.00
1324.120, 11422.00
1325.186, 11402.00
1326.253, 11437.00
1327.319, 11258.00
1328.385, 11512.00
1329.451, 11478.57
1330.517, 11351.11
1331.583, 11642.00
1332.649, 11358.00
1333.714, 11443.00
1334.780, 11391.60
1335.845, 11351.00
1336.910, 11333.00
1337.975, 11302.00
1339.040, 11320.04
1340.104, 11351.00
1341.169, 11401.00
1342.233, 11339.00
1343.297, 11437.00
1344.361, 11376.00
1345.425, 11422.00
1346.489, 11314.00
1347.553, 11364.00
1348.616, 11402.00
1349.680, 11394.23
1350.743, 11393.97
1351.806, 11458.00
1352.869, 11355.00
1353.932, 11370.00
1354.994, 11382.00
1356.057, 11488.00
1357.119, 11613.00
1358.182, 11472.00
1359.244, 11381.00
1360.306, 11437.00
1361.367, 11438.00
1362.429, 11455.00
1363.491, 11501.00
1364.552, 11452.00
1365.613, 11442.00
1366.675, 11438.00
1367.736, 11397.00
1368.796, 11461.00
1369.857, 11504.00
1370.918, 11465.00
1371.978, 11582.00
1373.038, 11460.00
1374.099, 11447.00
1375.159, 11470.00
1376.218, 11433.00
1377.278, 11523.00
1378.338, 11556.00
1379.397, 11383.00
1380.457, 11407.00
1381.516, 11462.00
1382.575, 11478.00
1383.634, 11553.00
1384.692, 11491.00
1385.751, 11578.00
1386.809, 11550.00
1387.868, 11587.00
1388.926, 11506.00
1389.984, 11516.00
1391.042, 11534.00
1392.100, 11520.00
1393.157, 11660.00
1394.215, 11475.00
1395.272, 11603.00
1396.330, 11570.00
1397.387, 11494.00
1398.444, 11485.00
1399.500, 11659.00
1400.557, 11671.00
1401.614, 11563.00
1402.670, 11637.00
1403.726, 11547.00
1404.782, 11572.00
1405.838, 11684.00
1406.894, 11622.00
1407.950, 11804.00
1409.005, 11750.00
1410.061, 11685.00
1411.116, 11636.00
1412.171, 11574.00
1413.226, 11610.00
1414.281, 11675.00
1415.336, 11769.00
1416.390, 11782.00
1417.445, 11802.00
1418.499, 11691.00
1419.553, 11799.00
1420.607, 11630.00
1421.661, 11650.00
1422.715, 11869.00
1423.769, 11714.00
1424.822, 11555.00
1425.875, 11790.00
1426.929, 11663.00
1427.982, 11857.00
1429.035, 11762.00
1430.087, 11698.00
1431.140, 11790.00
1432.193, 11804.00
1433.245, 11729.00
1434.297, 11936.00
1435.349, 11892.00
1436.401, 11914.00
1437.453, 11810.00
1438.505, 11824.00
1439.556, 11744.00
1440.608, 11840.00
1441.659, 11837.00
1442.710, 11862.00
1443.761, 11926.00
1444.812, 12009.00
1445.863, 11854.00
1446.913, 11992.00
1447.964, 11929.00
1449.014, 11833.00
1450.064, 11998.00
1451.114, 11908.00
1452.164, 11934.00
1453.214, 12060.00
1454.264, 12026.00
1455.313, 11967.00
1456.362, 11981.00
1457.412, 11974.00
1458.461, 11908.00
1459.510, 11962.29
1460.558, 11940.00
1461.607, 12004.00
1462.656, 12015.00
1463.704, 11981.00
1464.752, 11859.00
1465.800, 11920.00
1466.848, 11911.00
1467.896, 11806.38
1468.944, 11879.93
1469.991, 11922.85
1471.039, 11936.78
1472.086, 11834.91
1473.133, 11882.57
1474.180, 11870.31
1475.227, 11855.59
1476.274, 11924.30
1477.321, 11839.27
1478.367, 11906.65
1479.413, 11913.19
1480.460, 11947.58
1481.506, 11921.67
1482.552, 11914.38
1483.597, 12041.00
1484.643, 11954.00
1485.689, 12090.00
1486.734, 11959.00
1487.779, 11847.00
1488.824, 12042.00
1489.869, 11961.00
1490.914, 11975.00
1491.959, 12122.00
1493.003, 12160.00
1494.048, 12144.00
1495.092, 12018.00
1496.136, 12056.00
1497.180, 12048.00
1498.224, 12041.00
1499.268, 12072.76
1500.312, 12097.65
1501.355, 12139.00
1502.398, 12132.00
1503.442, 12211.00
1504.485, 12118.00
1505.528, 12116.00
1506.570, 12118.00
1507.613, 12279.00
1508.656, 12118.00
1509.698, 12222.00
1510.740, 12216.00
1511.782, 12176.00
1512.824, 12209.00
1513.866, 12227.40
1514.908, 12229.20
1515.949, 12294.00
1516.991, 12261.00
1518.032, 12253.00
1519.073, 12263.00
1520.114, 12201.00
1521.155, 12307.00
1522.196, 12321.00
1523.237, 12365.00
1524.277, 12295.00
1525.318, 12313.00
1526.358, 12328.00
1527.398, 12374.00
1528.438, 12386.00
1529.478, 12370.56
1530.517, 12378.00
1531.557, 12346.00
1532.596, 12354.00
1533.636, 12401.00
1534.675, 12244.00
1535.714, 12373.00
1536.753, 12330.00
1537.791, 12309.05
1538.830, 12429.00
1539.869, 12306.00
1540.907, 12473.00
1541.945, 12515.00
1542.983, 12525.00
1544.021, 12553.72
1545.059, 12525.98
1546.097, 12479.00
1547.134, 12477.00
1548.171, 12395.00
1549.209, 12417.00
1550.246, 12629.00
1551.283, 12633.00
1552.320, 12639.00
1553.356, 12620.00
1554.393, 12800.00
1555.429, 12945.00
1556.466, 12740.00
1557.502, 12639.00
1558.538, 12617.20
1559.574, 12508.42
1560.610, 12520.00
1561.645, 12418.00
1562.681, 12488.00
1563.716, 12455.00
1564.752, 12582.00
1565.787, 12520.00
1566.822, 12504.00
1567.857, 12566.00
1568.891, 12772.00
1569.926, 12700.00
1570.960, 12734.00
1571.995, 12813.00
1573.029, 12639.00
1574.063, 12861.00
1575.097, 12663.00
1576.130, 12673.00
1577.164, 12601.00
##END=



