##NAMES=Levyne-Na
##RRUFFID=R060021
##IDEAL CHEMISTRY=Na_6_(Si_12_Al_6_)O_36_&#183;18H_2_O
##LOCALITY=Dallas, Oregon, USA
##OWNER=RRUFF
##SOURCE=Bob Downs
##DESCRIPTION=White tabular hexagonal-shaped crystals associated with analcime, R060023
##STATUS=The identification of this mineral has been confirmed by X-ray diffraction and chemical analysis
##URL=rruff.info/R060021
##MEASURED CHEMISTRY=(Na_0.70_Ca_0.26_K_0.04_)_6_(Si_0.58_Al_0.42_)_18_O_36_Â·18H_2_O
##PIN_ID=L01578
##ORIENTATION=Laser parallel to a* (1 0 0). Fiducial mark perpendicular to laser is parallel to -c [0 0 -1]
69.52600, 9148.000
70.76900, 10383.00
72.01200, 11508.00
73.25500, 13175.00
74.49700, 14741.00
75.74000, 15935.00
76.98200, 17016.00
78.22400, 17563.00
79.46600, 18050.00
80.70800, 18474.00
81.94900, 19033.00
83.19000, 19731.00
84.43100, 19807.00
85.67200, 20033.00
86.91300, 19984.00
88.15400, 20171.00
89.39400, 20456.00
90.63400, 20569.33
91.87400, 21079.00
93.11400, 21006.00
94.35400, 21430.00
95.59300, 21663.00
96.83200, 21758.00
98.07200, 22199.00
99.31000, 22348.00
100.5490, 22946.00
101.7880, 23496.00
103.0260, 23924.00
104.2640, 25050.00
105.5020, 25551.00
106.7400, 26644.00
107.9780, 26912.00
109.2150, 27730.00
110.4520, 28025.00
111.6890, 28439.00
112.9260, 29112.00
114.1630, 29550.00
115.3990, 29523.00
116.6360, 29134.00
117.8720, 28300.00
119.1080, 27361.00
120.3440, 26205.00
121.5790, 25138.00
122.8150, 23933.00
124.0500, 22818.00
125.2850, 21958.00
126.5200, 20953.00
127.7550, 20407.00
128.9890, 20011.00
130.2230, 19414.00
131.4570, 19275.00
132.6910, 18892.00
133.9250, 18505.00
135.1590, 18263.00
136.3920, 18012.00
137.6250, 17830.00
138.8580, 17591.23
140.0910, 17352.00
141.3240, 17193.00
142.5570, 17043.00
143.7890, 16916.00
145.0210, 16748.00
146.2530, 16580.00
147.4850, 16208.00
148.7160, 16105.00
149.9480, 16045.00
151.1790, 15855.00
152.4100, 15856.00
153.6410, 15609.00
154.8710, 15491.00
156.1020, 15687.00
157.3320, 15473.00
158.5620, 15562.00
159.7920, 15711.00
161.0220, 15586.00
162.2520, 15688.00
163.4810, 15670.00
164.7100, 15511.00
165.9390, 15426.00
167.1680, 15225.00
168.3970, 15105.00
169.6250, 15061.00
170.8540, 14994.90
172.0820, 14998.12
173.3100, 15032.00
174.5370, 15078.00
175.7650, 15198.00
176.9920, 15304.00
178.2200, 15300.00
179.4470, 15685.00
180.6740, 15745.00
181.9000, 15703.00
183.1270, 16001.00
184.3530, 15924.00
185.5790, 16041.00
186.8050, 15826.00
188.0310, 15458.00
189.2570, 15274.00
190.4820, 15023.00
191.7070, 14721.00
192.9320, 14367.00
194.1570, 14020.00
195.3820, 13704.00
196.6060, 13440.00
197.8310, 12977.00
199.0550, 12676.00
200.2790, 12477.00
201.5030, 12301.00
202.7260, 12056.00
203.9500, 11837.00
205.1730, 11628.00
206.3960, 11454.68
207.6190, 11388.00
208.8420, 11187.00
210.0640, 11156.00
211.2870, 11124.00
212.5090, 10835.00
213.7310, 10765.00
214.9530, 10947.00
216.1740, 10913.00
217.3960, 10689.00
218.6170, 10637.00
219.8380, 10661.00
221.0590, 10699.00
222.2800, 10744.00
223.5000, 10731.00
224.7210, 10832.00
225.9410, 10790.00
227.1610, 10695.00
228.3810, 10758.00
229.6000, 10681.00
230.8200, 10621.00
232.0390, 10633.00
233.2580, 10849.00
234.4770, 10929.00
235.6960, 11003.00
236.9150, 11132.00
238.1330, 11217.00
239.3510, 11468.00
240.5690, 11802.00
241.7870, 11882.00
243.0050, 12217.00
244.2220, 12338.00
245.4400, 12645.00
246.6570, 12914.00
247.8740, 13277.00
249.0910, 13408.18
250.3070, 13616.00
251.5240, 13640.55
252.7400, 13836.00
253.9560, 13873.00
255.1720, 14055.00
256.3880, 13998.60
257.6030, 14180.00
258.8190, 13804.00
260.0340, 13730.00
261.2490, 13504.00
262.4640, 13142.00
263.6780, 13077.00
264.8930, 12800.00
266.1070, 12597.00
267.3210, 12617.00
268.5350, 12528.00
269.7490, 12500.00
270.9630, 12540.00
272.1760, 12636.00
273.3890, 12822.56
274.6030, 13079.00
275.8150, 13403.00
277.0280, 13914.00
278.2410, 14405.00
279.4530, 15187.00
280.6650, 15837.00
281.8770, 16496.00
283.0890, 17578.00
284.3010, 18634.00
285.5120, 19673.00
286.7230, 20733.00
287.9350, 21910.00
289.1460, 22701.00
290.3560, 23198.00
291.5670, 23230.00
292.7770, 23153.00
293.9880, 22720.00
295.1980, 21652.00
296.4080, 20609.00
297.6170, 19474.00
298.8270, 18184.00
300.0360, 17138.00
301.2450, 16064.00
302.4540, 15225.00
303.6630, 14779.00
304.8720, 14406.00
306.0800, 13695.00
307.2890, 13342.00
308.4970, 13147.00
309.7050, 13097.00
310.9120, 13024.00
312.1200, 13269.00
313.3270, 13464.00
314.5350, 13618.00
315.7420, 13945.00
316.9490, 14075.00
318.1550, 14368.00
319.3620, 14309.00
320.5680, 14412.00
321.7740, 14604.00
322.9800, 14387.00
324.1860, 14414.00
325.3920, 14547.00
326.5970, 14192.00
327.8030, 14312.47
329.0080, 14371.00
330.2130, 14340.00
331.4180, 14496.00
332.6220, 14697.00
333.8270, 15145.00
335.0310, 15540.00
336.2350, 15955.00
337.4390, 16448.00
338.6430, 16799.00
339.8460, 17228.00
341.0500, 17533.00
342.2530, 17455.00
343.4560, 17791.00
344.6590, 17903.00
345.8610, 18121.00
347.0640, 17985.00
348.2660, 17805.00
349.4680, 17868.00
350.6700, 17767.00
351.8720, 17493.00
353.0740, 17270.00
354.2750, 17047.00
355.4770, 16574.00
356.6780, 16377.00
357.8790, 16298.00
359.0790, 16340.00
360.2800, 16211.00
361.4800, 16476.00
362.6810, 16752.00
363.8810, 17401.00
365.0810, 18080.00
366.2800, 19301.00
367.4800, 20275.00
368.6790, 21742.00
369.8780, 22809.00
371.0770, 24598.00
372.2760, 26102.00
373.4750, 27820.00
374.6730, 29174.00
375.8720, 29759.00
377.0700, 30103.00
378.2680, 29784.00
379.4660, 29030.00
380.6630, 27495.00
381.8610, 25874.00
383.0580, 24263.00
384.2550, 22523.00
385.4520, 21154.00
386.6490, 19708.00
387.8460, 18540.00
389.0420, 17699.00
390.2380, 16814.00
391.4340, 16088.00
392.6300, 15747.00
393.8260, 15274.00
395.0210, 15051.00
396.2170, 14646.00
397.4120, 14277.00
398.6070, 13889.00
399.8020, 13801.00
400.9970, 13404.00
402.1910, 13262.00
403.3860, 12980.00
404.5800, 12874.00
405.7740, 12796.00
406.9680, 12438.00
408.1610, 12346.00
409.3550, 12149.00
410.5480, 11886.00
411.7410, 11707.00
412.9340, 11568.00
414.1270, 11265.00
415.3200, 11094.00
416.5120, 10972.00
417.7040, 10884.00
418.8960, 10796.00
420.0880, 10595.00
421.2800, 10553.00
422.4720, 10495.74
423.6630, 10505.96
424.8540, 10509.00
426.0450, 10649.00
427.2360, 10774.00
428.4270, 10882.00
429.6180, 11032.83
430.8080, 11159.96
431.9980, 11317.00
433.1880, 11460.00
434.3780, 11599.00
435.5680, 11793.00
436.7570, 12160.00
437.9470, 12413.00
439.1360, 12841.00
440.3250, 13146.80
441.5140, 13525.64
442.7020, 13805.00
443.8910, 14303.00
445.0790, 14602.00
446.2670, 14996.00
447.4550, 15447.00
448.6430, 15604.00
449.8310, 15896.00
451.0180, 15931.00
452.2060, 16276.00
453.3930, 16261.00
454.5800, 16585.00
455.7660, 16407.00
456.9530, 16569.00
458.1400, 16887.00
459.3260, 17145.00
460.5120, 17240.00
461.6980, 17380.00
462.8840, 17780.00
464.0690, 18101.00
465.2550, 18420.00
466.4400, 18778.00
467.6250, 19164.00
468.8100, 19370.00
469.9950, 19545.00
471.1790, 19990.89
472.3640, 20311.67
473.5480, 20785.00
474.7320, 21274.00
475.9160, 21848.44
477.1000, 22344.00
478.2830, 23246.00
479.4670, 23963.00
480.6500, 24903.00
481.8330, 25931.00
483.0160, 26871.00
484.1980, 28373.00
485.3810, 29613.00
486.5630, 30984.00
487.7450, 32847.00
488.9270, 34902.00
490.1090, 36739.00
491.2910, 38940.00
492.4730, 41497.00
493.6540, 43708.00
494.8350, 46075.00
496.0160, 48229.00
497.1970, 50767.00
498.3780, 52440.00
499.5580, 54270.00
500.7380, 55386.00
501.9190, 55486.00
503.0990, 55475.00
504.2780, 54344.00
505.4580, 52969.00
506.6380, 50486.00
507.8170, 48130.00
508.9960, 45225.00
510.1750, 41759.00
511.3540, 38558.00
512.5320, 35511.00
513.7110, 32613.00
514.8890, 30053.00
516.0670, 27862.00
517.2450, 25610.00
518.4230, 24025.00
519.6010, 22340.00
520.7780, 21351.00
521.9560, 19734.00
523.1330, 18829.00
524.3100, 17854.00
525.4860, 16918.00
526.6630, 16255.00
527.8400, 15711.00
529.0160, 15152.00
530.1920, 14648.00
531.3680, 14194.00
532.5440, 13852.00
533.7190, 13551.00
534.8950, 13261.00
536.0700, 12931.00
537.2450, 12747.00
538.4200, 12433.00
539.5950, 12445.00
540.7690, 12120.00
541.9440, 12038.00
543.1180, 11904.00
544.2920, 11800.00
545.4660, 11793.00
546.6400, 11679.00
547.8140, 11698.00
548.9870, 11741.00
550.1600, 11623.00
551.3330, 11567.00
552.5060, 11718.00
553.6790, 11757.00
554.8520, 11803.00
556.0240, 11896.00
557.1960, 12069.00
558.3680, 11992.00
559.5400, 12230.00
560.7120, 12425.00
561.8840, 12341.00
563.0550, 12521.00
564.2260, 12631.00
565.3980, 12645.00
566.5680, 12671.00
567.7390, 12890.00
568.9100, 12675.81
570.0800, 12691.00
571.2510, 12334.00
572.4210, 12145.00
573.5910, 11965.00
574.7600, 11674.00
575.9300, 11558.00
577.0990, 11286.00
578.2690, 11144.00
579.4380, 10889.00
580.6070, 10694.00
581.7750, 10424.00
582.9440, 10368.00
584.1120, 10093.00
585.2810, 9989.000
586.4490, 9832.000
587.6170, 9646.000
588.7840, 9381.000
589.9520, 9383.000
591.1190, 9200.000
592.2870, 9193.000
593.4540, 9043.000
594.6210, 9035.000
595.7880, 8880.000
596.9540, 8790.000
598.1210, 8751.000
599.2870, 8730.000
600.4530, 8637.000
601.6190, 8558.000
602.7850, 8590.000
603.9500, 8415.000
605.1160, 8489.000
606.2810, 8457.000
607.4460, 8296.000
608.6110, 8306.000
609.7760, 8126.000
610.9410, 8284.000
612.1050, 8162.000
613.2690, 8127.000
614.4330, 8098.000
615.5970, 7893.000
616.7610, 7872.000
617.9250, 7923.000
619.0880, 7770.000
620.2520, 7773.000
621.4150, 7799.000
622.5780, 7685.000
623.7400, 7841.000
624.9030, 7688.000
626.0660, 7715.000
627.2280, 7679.000
628.3900, 7608.000
629.5520, 7613.000
630.7140, 7539.000
631.8750, 7597.000
633.0370, 7502.000
634.1980, 7547.000
635.3590, 7519.000
636.5200, 7650.000
637.6810, 7543.000
638.8420, 7516.000
640.0020, 7582.000
641.1630, 7516.000
642.3230, 7546.000
643.4830, 7525.000
644.6430, 7510.377
645.8020, 7491.000
646.9620, 7521.000
648.1210, 7530.000
649.2810, 7590.000
650.4400, 7640.000
651.5980, 7622.000
652.7570, 7533.000
653.9160, 7609.000
655.0740, 7526.000
656.2320, 7520.000
657.3900, 7615.000
658.5480, 7569.000
659.7060, 7694.000
660.8630, 7899.000
662.0210, 7791.000
663.1780, 7910.000
664.3350, 7973.000
665.4920, 7991.000
666.6490, 8001.000
667.8050, 8195.000
668.9620, 8225.000
670.1180, 8322.000
671.2740, 8411.000
672.4300, 8392.000
673.5860, 8543.000
674.7410, 8611.000
675.8970, 8822.000
677.0520, 8835.000
678.2070, 8970.000
679.3620, 8956.000
680.5170, 9208.000
681.6720, 9329.000
682.8260, 9339.000
683.9800, 9412.000
685.1340, 9561.000
686.2880, 9807.000
687.4420, 9799.000
688.5960, 9976.000
689.7490, 9957.000
690.9030, 9979.000
692.0560, 10138.00
693.2090, 10052.00
694.3620, 9805.000
695.5140, 9990.000
696.6670, 9792.000
697.8190, 9467.000
698.9710, 9481.000
700.1230, 9133.000
701.2750, 9082.000
702.4270, 8801.000
703.5780, 8656.000
704.7300, 8487.000
705.8810, 8488.000
707.0320, 8158.000
708.1830, 8013.000
709.3340, 7955.000
710.4840, 7731.000
711.6350, 7697.000
712.7850, 7471.000
713.9350, 7456.000
715.0850, 7387.000
716.2350, 7247.668
717.3840, 7277.581
718.5340, 7277.273
719.6830, 7248.436
720.8320, 7105.482
721.9810, 7109.884
723.1300, 7055.233
724.2780, 6998.194
725.4270, 6991.499
726.5750, 6911.000
727.7230, 6902.000
728.8710, 6901.000
730.0190, 6836.000
731.1670, 6849.264
732.3140, 6813.000
733.4610, 6804.000
734.6090, 6823.000
735.7560, 6731.000
736.9030, 6808.000
738.0490, 6793.000
739.1960, 6819.000
740.3420, 6737.000
741.4880, 6895.000
742.6340, 6765.000
743.7800, 6911.000
744.9260, 6824.000
746.0720, 6919.000
747.2170, 6777.000
748.3620, 6979.000
749.5070, 6901.000
750.6520, 6921.000
751.7970, 6942.656
752.9420, 6996.765
754.0860, 7020.700
755.2300, 7016.072
756.3740, 6897.328
757.5180, 6925.941
758.6620, 6895.501
759.8060, 6862.639
760.9490, 6912.006
762.0930, 6809.860
763.2360, 6892.000
764.3790, 6860.000
765.5220, 6841.000
766.6640, 6894.000
767.8070, 6847.000
768.9490, 6845.000
770.0910, 6801.000
771.2330, 6804.000
772.3750, 6755.000
773.5170, 6723.000
774.6590, 6591.000
775.8000, 6708.000
776.9410, 6802.000
778.0820, 6595.000
779.2230, 6686.000
780.3640, 6704.000
781.5050, 6640.904
782.6450, 6492.000
783.7850, 6617.000
784.9260, 6549.000
786.0660, 6525.000
787.2050, 6537.000
788.3450, 6509.000
789.4850, 6518.000
790.6240, 6478.000
791.7630, 6470.003
792.9020, 6411.000
794.0410, 6412.000
795.1800, 6407.000
796.3180, 6323.000
797.4570, 6367.000
798.5950, 6302.000
799.7330, 6373.000
800.8710, 6370.000
802.0090, 6379.000
803.1460, 6277.000
804.2840, 6340.000
805.4210, 6400.000
806.5580, 6148.000
807.6950, 6241.000
808.8320, 6210.000
809.9680, 6307.000
811.1050, 6242.000
812.2410, 6242.000
813.3770, 6232.000
814.5130, 6210.000
815.6490, 6218.000
816.7850, 6207.000
817.9200, 6189.142
819.0560, 6275.000
820.1910, 6171.000
821.3260, 6202.000
822.4610, 6236.000
823.5960, 6169.000
824.7300, 6232.000
825.8650, 6184.556
826.9990, 6212.000
828.1330, 6145.000
829.2670, 6147.000
830.4010, 6176.000
831.5340, 6208.000
832.6680, 6213.000
833.8010, 6214.000
834.9340, 6215.000
836.0670, 6271.000
837.2000, 6162.000
838.3330, 6227.000
839.4660, 6242.000
840.5980, 6152.000
841.7300, 6137.000
842.8620, 6255.000
843.9940, 6170.000
845.1260, 6205.000
846.2570, 6136.000
847.3890, 6256.000
848.5200, 6214.000
849.6510, 6232.000
850.7820, 6231.000
851.9130, 6300.000
853.0440, 6253.000
854.1740, 6312.000
855.3050, 6367.000
856.4350, 6270.000
857.5650, 6337.000
858.6950, 6334.000
859.8240, 6341.000
860.9540, 6355.000
862.0830, 6317.000
863.2130, 6383.000
864.3420, 6342.000
865.4710, 6403.000
866.5990, 6306.000
867.7280, 6444.000
868.8560, 6226.000
869.9850, 6428.000
871.1130, 6312.000
872.2410, 6360.000
873.3690, 6374.000
874.4960, 6503.000
875.6240, 6471.000
876.7510, 6446.000
877.8780, 6432.000
879.0060, 6437.000
880.1320, 6418.000
881.2590, 6429.058
882.3860, 6425.387
883.5120, 6448.000
884.6380, 6442.000
885.7650, 6451.000
886.8910, 6489.545
888.0160, 6439.000
889.1420, 6488.000
890.2680, 6480.000
891.3930, 6440.000
892.5180, 6515.000
893.6430, 6526.000
894.7680, 6604.000
895.8930, 6593.793
897.0170, 6619.699
898.1420, 6572.000
899.2660, 6624.000
900.3900, 6612.000
901.5140, 6583.000
902.6380, 6611.000
903.7610, 6633.000
904.8850, 6614.000
906.0080, 6695.000
907.1310, 6680.000
908.2540, 6676.000
909.3770, 6718.000
910.5000, 6802.000
911.6220, 6800.000
912.7450, 6694.000
913.8670, 6863.000
914.9890, 6871.000
916.1110, 6963.000
917.2330, 7059.000
918.3550, 7208.000
919.4760, 7199.000
920.5970, 7334.000
921.7180, 7459.000
922.8390, 7568.068
923.9600, 7814.000
925.0810, 7905.000
926.2020, 8136.000
927.3220, 8390.000
928.4420, 8560.000
929.5620, 8639.728
930.6820, 8758.535
931.8020, 8833.636
932.9220, 8866.650
934.0410, 8772.025
935.1600, 8811.261
936.2790, 8777.944
937.3980, 8728.708
938.5170, 8748.189
939.6360, 8814.000
940.7550, 8822.000
941.8730, 8657.000
942.9910, 8725.000
944.1090, 8639.000
945.2270, 8872.000
946.3450, 8864.000
947.4620, 8730.000
948.5800, 8869.000
949.6970, 8679.000
950.8140, 8848.000
951.9310, 8802.000
953.0480, 8840.000
954.1650, 8828.000
955.2810, 8747.000
956.3980, 8664.000
957.5140, 8595.000
958.6300, 8579.000
959.7460, 8497.610
960.8620, 8437.645
961.9780, 8377.000
963.0930, 8298.000
964.2080, 8229.000
965.3230, 8169.000
966.4380, 8056.000
967.5530, 7979.000
968.6680, 7941.000
969.7830, 7988.000
970.8970, 8102.000
972.0110, 8173.000
973.1250, 8038.000
974.2390, 8203.000
975.3530, 8192.000
976.4670, 8292.000
977.5800, 8312.000
978.6930, 8712.000
979.8070, 8769.669
980.9200, 9005.000
982.0320, 9146.000
983.1450, 9351.000
984.2580, 9592.000
985.3700, 9979.000
986.4820, 10316.00
987.5950, 10569.00
988.7070, 10931.00
989.8180, 11257.00
990.9300, 11289.00
992.0410, 11651.00
993.1530, 11547.00
994.2640, 11531.00
995.3750, 11547.00
996.4860, 11557.00
997.5970, 11588.00
998.7070, 11024.00
999.8180, 10855.00
1000.928, 10544.00
1002.038, 10339.00
1003.148, 10219.00
1004.258, 9988.000
1005.368, 9732.000
1006.477, 9611.327
1007.586, 9312.000
1008.696, 9368.000
1009.805, 9045.000
1010.914, 9043.000
1012.022, 8766.000
1013.131, 8782.000
1014.239, 8662.000
1015.348, 8634.000
1016.456, 8565.000
1017.564, 8509.272
1018.672, 8511.000
1019.780, 8422.000
1020.887, 8428.000
1021.994, 8389.000
1023.102, 8446.000
1024.209, 8383.000
1025.316, 8226.000
1026.423, 8266.000
1027.529, 8235.000
1028.636, 8200.000
1029.742, 8219.000
1030.848, 8187.485
1031.954, 8225.000
1033.060, 8174.000
1034.166, 8214.000
1035.272, 8236.000
1036.377, 8056.000
1037.482, 8111.563
1038.587, 8062.444
1039.692, 8022.000
1040.797, 8083.000
1041.902, 7943.000
1043.006, 8041.000
1044.111, 8062.000
1045.215, 8067.000
1046.319, 8053.000
1047.423, 8054.576
1048.527, 7886.000
1049.631, 7999.000
1050.734, 7973.000
1051.837, 7873.000
1052.941, 8080.000
1054.044, 8000.458
1055.146, 7956.000
1056.249, 8041.000
1057.352, 7985.000
1058.454, 8035.000
1059.556, 8126.000
1060.659, 8082.000
1061.761, 8174.000
1062.862, 8195.838
1063.964, 8102.000
1065.066, 8246.000
1066.167, 8288.000
1067.268, 8269.000
1068.369, 8373.000
1069.470, 8418.000
1070.571, 8456.000
1071.672, 8563.000
1072.772, 8545.000
1073.873, 8685.000
1074.973, 8665.000
1076.073, 8816.000
1077.173, 8822.000
1078.272, 8770.000
1079.372, 8883.000
1080.471, 9140.000
1081.571, 9167.000
1082.670, 9336.000
1083.769, 9434.000
1084.868, 9493.000
1085.966, 9788.000
1087.065, 9897.000
1088.163, 10086.00
1089.262, 10180.00
1090.360, 10333.00
1091.458, 10640.00
1092.555, 10537.00
1093.653, 10808.00
1094.751, 10709.00
1095.848, 10933.00
1096.945, 10945.00
1098.042, 10929.00
1099.139, 10952.00
1100.236, 11100.00
1101.333, 10973.00
1102.429, 11009.00
1103.525, 10795.00
1104.621, 10759.00
1105.718, 10580.00
1106.813, 10623.00
1107.909, 10413.00
1109.005, 10242.11
1110.100, 10211.00
1111.195, 10126.00
1112.291, 10037.00
1113.386, 9928.851
1114.480, 9935.000
1115.575, 9760.000
1116.670, 9606.000
1117.764, 9717.000
1118.858, 9624.000
1119.952, 9534.000
1121.046, 9493.000
1122.140, 9425.000
1123.234, 9435.000
1124.327, 9281.000
1125.421, 9414.000
1126.514, 9211.000
1127.607, 9192.000
1128.700, 9138.000
1129.792, 9139.000
1130.885, 9002.000
1131.978, 8962.000
1133.070, 9053.000
1134.162, 8865.000
1135.254, 9046.000
1136.346, 8822.000
1137.438, 8921.000
1138.529, 8966.000
1139.621, 8870.000
1140.712, 8851.000
1141.803, 8645.000
1142.894, 8805.000
1143.985, 8872.000
1145.076, 8712.000
1146.166, 8785.000
1147.257, 8852.000
1148.347, 8892.000
1149.437, 8895.975
1150.527, 8900.849
1151.617, 8856.000
1152.706, 8865.000
1153.796, 8830.000
1154.885, 8828.000
1155.975, 8924.000
1157.064, 8693.000
1158.153, 8869.000
1159.241, 8892.000
1160.330, 8802.000
1161.419, 8882.000
1162.507, 8951.000
1163.595, 8990.000
1164.683, 8831.000
1165.771, 8775.000
1166.859, 8747.000
1167.946, 8906.000
1169.034, 8896.000
1170.121, 8728.484
1171.208, 8751.966
1172.295, 8745.263
1173.382, 8710.000
1174.469, 8560.617
1175.556, 8558.591
1176.642, 8497.558
1177.728, 8434.098
1178.815, 8452.818
1179.901, 8320.076
1180.986, 8477.000
1182.072, 8428.000
1183.158, 8388.861
1184.243, 8351.111
1185.328, 8270.000
1186.414, 8260.000
1187.499, 8180.000
1188.583, 8199.000
1189.668, 8037.000
1190.753, 8113.000
1191.837, 8031.000
1192.921, 7855.000
1194.005, 7876.000
1195.089, 7859.000
1196.173, 7708.000
1197.257, 7712.000
1198.340, 7612.000
1199.424, 7600.154
1200.507, 7594.147
1201.590, 7601.000
1202.673, 7623.000
1203.756, 7630.000
1204.839, 7690.000
1205.921, 7608.000
1207.004, 7541.000
1208.086, 7700.000
1209.168, 7610.000
1210.250, 7651.000
1211.332, 7616.000
1212.413, 7595.000
1213.495, 7653.000
1214.576, 7594.000
1215.657, 7576.000
1216.738, 7519.000
1217.819, 7523.000
1218.900, 7547.814
1219.981, 7763.000
1221.061, 7573.000
1222.142, 7702.000
1223.222, 7584.000
1224.302, 7502.000
1225.382, 7584.000
1226.461, 7596.000
1227.541, 7581.000
1228.621, 7677.000
1229.700, 7544.000
1230.779, 7522.000
1231.858, 7633.000
1232.937, 7606.000
1234.016, 7499.000
1235.094, 7633.000
1236.173, 7697.000
1237.251, 7638.000
1238.329, 7672.000
1239.407, 7731.000
1240.485, 7656.000
1241.563, 7579.000
1242.641, 7758.000
1243.718, 7656.000
1244.795, 7758.000
1245.873, 7736.000
1246.950, 7661.000
1248.026, 7804.000
1249.103, 7692.000
1250.180, 7603.000
1251.256, 7780.000
1252.333, 7757.000
1253.409, 7802.000
1254.485, 7749.000
1255.561, 7748.000
1256.636, 7748.873
1257.712, 7769.000
1258.787, 7742.000
1259.863, 7791.000
1260.938, 7802.000
1262.013, 7895.000
1263.088, 7884.000
1264.162, 7752.000
1265.237, 7884.000
1266.312, 7820.000
1267.386, 7906.000
1268.460, 7909.000
1269.534, 7872.000
1270.608, 7924.562
1271.682, 7859.000
1272.755, 7949.000
1273.829, 7972.000
1274.902, 7967.000
1275.975, 7889.000
1277.048, 8072.000
1278.121, 7970.000
1279.194, 8025.000
1280.266, 8100.000
1281.339, 8151.000
1282.411, 8106.000
1283.483, 8166.000
1284.555, 8143.427
1285.627, 8186.000
1286.699, 8142.000
1287.770, 8101.000
1288.842, 8150.000
1289.913, 8220.000
1290.984, 8252.000
1292.055, 8246.000
1293.126, 8241.000
1294.197, 8299.000
1295.267, 8357.000
1296.338, 8348.000
1297.408, 8372.000
1298.478, 8416.000
1299.548, 8437.034
1300.618, 8429.000
1301.688, 8513.000
1302.758, 8509.000
1303.827, 8538.718
1304.896, 8605.000
1305.966, 8511.000
1307.035, 8569.000
1308.103, 8530.000
1309.172, 8516.000
1310.241, 8560.000
1311.309, 8588.000
1312.378, 8504.000
1313.446, 8700.000
1314.514, 8603.000
1315.582, 8607.000
1316.649, 8525.000
1317.717, 8587.000
1318.785, 8570.000
1319.852, 8469.000
1320.919, 8583.000
1321.986, 8557.000
1323.053, 8450.000
1324.120, 8538.819
1325.186, 8469.499
1326.253, 8530.000
1327.319, 8494.000
1328.385, 8351.000
1329.451, 8487.000
1330.517, 8375.000
1331.583, 8367.000
1332.649, 8394.000
1333.714, 8419.000
1334.780, 8337.000
1335.845, 8361.737
1336.910, 8350.000
1337.975, 8345.000
1339.040, 8338.095
1340.104, 8321.000
1341.169, 8308.000
1342.233, 8278.000
1343.297, 8265.646
1344.361, 8239.000
1345.425, 8194.000
1346.489, 8184.000
1347.553, 8123.000
1348.616, 8185.000
1349.680, 8109.000
1350.743, 8151.000
1351.806, 8144.000
1352.869, 8247.000
1353.932, 8167.000
1354.994, 8312.000
1356.057, 8076.000
1357.119, 8111.000
1358.182, 8214.000
1359.244, 8106.000
1360.306, 8123.633
1361.367, 8171.000
1362.429, 8112.000
1363.491, 8095.000
1364.552, 8128.178
1365.613, 8111.334
1366.675, 8171.000
1367.736, 8150.000
1368.796, 8152.441
1369.857, 8186.000
1370.918, 8168.000
1371.978, 8148.000
1373.038, 8101.000
1374.099, 8090.000
1375.159, 8111.000
1376.218, 8138.000
1377.278, 8042.000
1378.338, 8173.000
1379.397, 8042.000
1380.457, 8087.000
1381.516, 8071.000
1382.575, 8135.000
1383.634, 8137.000
1384.692, 8234.000
1385.751, 8189.000
1386.809, 8136.000
1387.868, 8218.000
1388.926, 8118.000
1389.984, 8153.000
1391.042, 8143.000
1392.100, 8150.679
1393.157, 8223.000
1394.215, 8191.000
1395.272, 8188.000
1396.330, 8152.000
1397.387, 8159.440
1398.444, 8101.000
1399.500, 8177.000
1400.557, 8210.000
1401.614, 8232.000
1402.670, 8071.000
1403.726, 8079.000
1404.782, 8091.000
1405.838, 8221.000
1406.894, 8165.000
1407.950, 8307.000
1409.005, 8199.000
1410.061, 8081.000
1411.116, 8272.000
1412.171, 8310.000
1413.226, 8118.000
1414.281, 8263.000
1415.336, 8176.000
1416.390, 8253.000
1417.445, 8246.000
1418.499, 8092.000
1419.553, 8281.000
1420.607, 8310.000
1421.661, 8214.000
1422.715, 8353.000
1423.769, 8386.000
1424.822, 8309.000
1425.875, 8204.000
1426.929, 8194.000
1427.982, 8325.000
1429.035, 8148.000
1430.087, 8319.000
1431.140, 8361.000
1432.193, 8351.000
1433.245, 8240.000
1434.297, 8313.000
1435.349, 8320.000
1436.401, 8425.000
1437.453, 8326.000
1438.505, 8283.000
1439.556, 8296.000
1440.608, 8445.000
1441.659, 8340.000
1442.710, 8223.000
1443.761, 8468.000
1444.812, 8517.000
1445.863, 8356.000
1446.913, 8478.000
1447.964, 8403.000
1449.014, 8342.000
1450.064, 8428.000
1451.114, 8523.000
1452.164, 8534.000
1453.214, 8443.000
1454.264, 8391.000
1455.313, 8456.000
1456.362, 8401.000
1457.412, 8534.000
1458.461, 8396.000
1459.510, 8358.000
1460.558, 8483.000
1461.607, 8486.000
1462.656, 8404.000
1463.704, 8621.000
1464.752, 8527.000
1465.800, 8584.000
1466.848, 8558.000
1467.896, 8632.000
1468.944, 8667.000
1469.991, 8664.528
1471.039, 8582.000
1472.086, 8653.000
1473.133, 8605.000
1474.180, 8541.000
1475.227, 8644.000
1476.274, 8600.000
1477.321, 8644.000
1478.367, 8579.000
1479.413, 8707.000
1480.460, 8618.375
1481.506, 8629.410
1482.552, 8524.000
1483.597, 8612.000
1484.643, 8617.000
1485.689, 8657.000
1486.734, 8672.000
1487.779, 8670.000
1488.824, 8571.000
1489.869, 8685.000
1490.914, 8642.000
1491.959, 8563.000
1493.003, 8641.000
1494.048, 8604.000
1495.092, 8647.000
1496.136, 8609.000
1497.180, 8673.000
1498.224, 8682.000
1499.268, 8616.000
1500.312, 8594.000
1501.355, 8581.000
1502.398, 8659.000
1503.442, 8634.737
1504.485, 8779.000
1505.528, 8650.000
1506.570, 8741.000
1507.613, 8741.000
1508.656, 8715.000
1509.698, 8707.000
1510.740, 8751.000
1511.782, 8643.000
1512.824, 8754.000
1513.866, 8742.000
1514.908, 8831.000
1515.949, 8747.000
1516.991, 8721.000
1518.032, 8828.000
1519.073, 8807.000
1520.114, 8857.000
1521.155, 8793.000
1522.196, 8790.000
1523.237, 8828.000
1524.277, 8814.000
1525.318, 8806.000
1526.358, 8828.000
1527.398, 8833.586
1528.438, 8887.000
1529.478, 8872.000
1530.517, 8924.000
1531.557, 8940.719
1532.596, 8904.000
1533.636, 8997.000
1534.675, 9011.000
1535.714, 8962.000
1536.753, 8894.000
1537.791, 8953.000
1538.830, 8960.000
1539.869, 8951.000
1540.907, 8984.000
1541.945, 8940.000
1542.983, 8944.000
1544.021, 8989.000
1545.059, 8938.000
1546.097, 8990.000
1547.134, 9051.000
1548.171, 9065.000
1549.209, 9099.000
1550.246, 9139.000
1551.283, 9075.000
1552.320, 9120.000
1553.356, 9130.000
1554.393, 9282.000
1555.429, 9190.000
1556.466, 9175.000
1557.502, 9095.000
1558.538, 9088.000
1559.574, 9189.000
1560.610, 9188.000
1561.645, 9105.000
1562.681, 9158.000
1563.716, 9054.000
1564.752, 9198.000
1565.787, 9237.000
1566.822, 9160.000
1567.857, 9442.000
1568.891, 9330.000
1569.926, 9245.000
1570.960, 9339.104
1571.995, 9329.000
1573.029, 9328.000
1574.063, 9320.000
1575.097, 9295.000
1576.130, 9253.000
1577.164, 9391.000
##END=



