##NAMES=Levyne-Na
##RRUFFID=R060021
##IDEAL CHEMISTRY=Na_6_(Si_12_Al_6_)O_36_&#183;18H_2_O
##LOCALITY=Dallas, Oregon, USA
##OWNER=RRUFF
##SOURCE=Bob Downs
##DESCRIPTION=White tabular hexagonal-shaped crystals associated with analcime, R060023
##STATUS=The identification of this mineral has been confirmed by X-ray diffraction and chemical analysis
##URL=rruff.info/R060021
##MEASURED CHEMISTRY=(Na_0.70_Ca_0.26_K_0.04_)_6_(Si_0.58_Al_0.42_)_18_O_36_Â·18H_2_O
##PIN_ID=L00788
##ORIENTATION=Laser parallel to c* (0 0 1). Fiducial mark perpendicular to laser is parallel to a [1 0 0]
88.15400, 25227.00
89.39400, 25083.00
90.63400, 25235.00
91.87400, 25799.00
93.11400, 26233.00
94.35400, 25884.00
95.59300, 25665.00
96.83200, 26113.00
98.07200, 25723.00
99.31000, 27599.00
100.5490, 28782.00
101.7880, 27339.00
103.0260, 27046.00
104.2640, 27323.00
105.5020, 27735.00
106.7400, 28033.52
107.9780, 29016.00
109.2150, 29049.00
110.4520, 29455.00
111.6890, 29808.00
112.9260, 29792.00
114.1630, 30735.00
115.3990, 31275.00
116.6360, 31306.00
117.8720, 31795.00
119.1080, 30687.00
120.3440, 30526.00
121.5790, 30982.00
122.8150, 30409.00
124.0500, 28588.00
125.2850, 26475.00
126.5200, 24523.00
127.7550, 23857.00
128.9890, 23173.00
130.2230, 22725.00
131.4570, 22217.00
132.6910, 22090.00
133.9250, 21728.00
135.1590, 21417.00
136.3920, 21150.00
137.6250, 20863.00
138.8580, 20781.00
140.0910, 20342.00
141.3240, 20199.00
142.5570, 19954.00
143.7890, 19676.00
145.0210, 19668.00
146.2530, 19298.00
147.4850, 19087.07
148.7160, 19213.00
149.9480, 18591.00
151.1790, 18473.00
152.4100, 18378.00
153.6410, 18162.00
154.8710, 18005.00
156.1020, 17926.00
157.3320, 17832.00
158.5620, 17831.00
159.7920, 17838.00
161.0220, 17633.00
162.2520, 17618.00
163.4810, 17545.00
164.7100, 17425.00
165.9390, 17296.00
167.1680, 17149.00
168.3970, 17047.00
169.6250, 17021.00
170.8540, 16856.00
172.0820, 16820.00
173.3100, 16729.00
174.5370, 16620.00
175.7650, 16532.00
176.9920, 16573.00
178.2200, 16803.00
179.4470, 16695.00
180.6740, 16895.00
181.9000, 16709.00
183.1270, 16899.00
184.3530, 16813.00
185.5790, 16631.00
186.8050, 16632.00
188.0310, 16870.00
189.2570, 16488.00
190.4820, 16475.00
191.7070, 16110.00
192.9320, 16061.00
194.1570, 15972.00
195.3820, 15568.00
196.6060, 15336.00
197.8310, 15293.00
199.0550, 15162.00
200.2790, 14762.00
201.5030, 14822.00
202.7260, 14530.00
203.9500, 14425.00
205.1730, 14197.00
206.3960, 14068.00
207.6190, 13959.00
208.8420, 13802.00
210.0640, 13810.00
211.2870, 13825.00
212.5090, 13659.00
213.7310, 13489.00
214.9530, 13430.00
216.1740, 13497.00
217.3960, 13500.00
218.6170, 13607.00
219.8380, 13552.14
221.0590, 13529.74
222.2800, 13472.00
223.5000, 13366.00
224.7210, 13342.00
225.9410, 13317.93
227.1610, 13184.00
228.3810, 13320.00
229.6000, 13273.00
230.8200, 13272.00
232.0390, 13403.00
233.2580, 13545.00
234.4770, 13596.00
235.6960, 13805.00
236.9150, 13766.00
238.1330, 13825.00
239.3510, 14113.00
240.5690, 14091.00
241.7870, 14326.00
243.0050, 14419.00
244.2220, 14912.00
245.4400, 15018.00
246.6570, 15154.00
247.8740, 15141.00
249.0910, 15392.00
250.3070, 15448.00
251.5240, 15652.00
252.7400, 15532.00
253.9560, 15679.00
255.1720, 15915.00
256.3880, 15787.00
257.6030, 15844.00
258.8190, 15859.00
260.0340, 15823.00
261.2490, 15902.00
262.4640, 15734.00
263.6780, 15749.00
264.8930, 15739.60
266.1070, 15506.00
267.3210, 15709.00
268.5350, 15693.00
269.7490, 15628.00
270.9630, 15681.00
272.1760, 15662.00
273.3890, 15710.00
274.6030, 15946.00
275.8150, 16001.20
277.0280, 16090.04
278.2410, 16311.00
279.4530, 16348.00
280.6650, 16523.00
281.8770, 16931.00
283.0890, 17233.00
284.3010, 17791.00
285.5120, 18300.00
286.7230, 18610.00
287.9350, 18864.00
289.1460, 19279.00
290.3560, 19413.00
291.5670, 19610.00
292.7770, 19343.00
293.9880, 19216.00
295.1980, 18773.00
296.4080, 18351.00
297.6170, 17931.00
298.8270, 17293.00
300.0360, 16663.00
301.2450, 16145.00
302.4540, 15818.00
303.6630, 15309.00
304.8720, 15004.65
306.0800, 15030.00
307.2890, 14694.93
308.4970, 14677.62
309.7050, 14691.26
310.9120, 14736.73
312.1200, 14765.25
313.3270, 14925.92
314.5350, 15101.17
315.7420, 15337.00
316.9490, 15318.00
318.1550, 15492.00
319.3620, 15758.00
320.5680, 15843.00
321.7740, 15919.00
322.9800, 15940.00
324.1860, 15876.00
325.3920, 15875.93
326.5970, 15946.00
327.8030, 15839.00
329.0080, 15853.00
330.2130, 15986.00
331.4180, 16033.00
332.6220, 16445.00
333.8270, 16658.00
335.0310, 16820.00
336.2350, 17055.00
337.4390, 17242.00
338.6430, 17772.00
339.8460, 18130.00
341.0500, 18318.21
342.2530, 18487.68
343.4560, 18612.76
344.6590, 18694.68
345.8610, 18668.29
347.0640, 18732.69
348.2660, 18730.71
349.4680, 18705.52
350.6700, 18721.50
351.8720, 18600.80
353.0740, 18457.00
354.2750, 18443.00
355.4770, 18177.00
356.6780, 17972.00
357.8790, 17949.00
359.0790, 17860.00
360.2800, 17862.00
361.4800, 18112.00
362.6810, 18205.00
363.8810, 18581.00
365.0810, 18970.00
366.2800, 19244.00
367.4800, 19758.00
368.6790, 20453.00
369.8780, 21066.00
371.0770, 21627.00
372.2760, 22315.00
373.4750, 22906.00
374.6730, 23246.87
375.8720, 23660.00
377.0700, 23635.00
378.2680, 23560.00
379.4660, 23254.00
380.6630, 22683.00
381.8610, 21968.00
383.0580, 21141.00
384.2550, 21038.00
385.4520, 19742.00
386.6490, 18945.00
387.8460, 17924.00
389.0420, 17633.00
390.2380, 16960.00
391.4340, 16706.00
392.6300, 16266.00
393.8260, 15953.00
395.0210, 15625.00
396.2170, 15146.76
397.4120, 15051.20
398.6070, 14938.39
399.8020, 14809.29
400.9970, 14615.04
402.1910, 14505.03
403.3860, 14361.19
404.5800, 14216.08
405.7740, 14117.90
406.9680, 13926.00
408.1610, 13666.00
409.3550, 13820.74
410.5480, 13581.72
411.7410, 13517.28
412.9340, 13350.00
414.1270, 13370.00
415.3200, 13238.00
416.5120, 13273.00
417.7040, 13305.00
418.8960, 13034.00
420.0880, 12830.00
421.2800, 13104.00
422.4720, 13082.00
423.6630, 13109.00
424.8540, 13150.00
426.0450, 13041.00
427.2360, 13154.00
428.4270, 13252.00
429.6180, 13281.00
430.8080, 13547.00
431.9980, 13429.00
433.1880, 13705.00
434.3780, 13972.00
435.5680, 14023.00
436.7570, 14401.00
437.9470, 14724.00
439.1360, 14942.00
440.3250, 15313.00
441.5140, 15591.00
442.7020, 15947.00
443.8910, 16298.00
445.0790, 16769.00
446.2670, 17111.00
447.4550, 17455.00
448.6430, 17992.00
449.8310, 18242.00
451.0180, 18638.00
452.2060, 19150.00
453.3930, 19444.00
454.5800, 19883.00
455.7660, 20440.00
456.9530, 20841.00
458.1400, 21215.00
459.3260, 21652.92
460.5120, 21993.00
461.6980, 22395.00
462.8840, 22633.00
464.0690, 22951.00
465.2550, 23509.00
466.4400, 23630.00
467.6250, 23978.00
468.8100, 24147.00
469.9950, 24371.00
471.1790, 24363.00
472.3640, 24681.00
473.5480, 24555.00
474.7320, 24864.00
475.9160, 24983.00
477.1000, 25299.00
478.2830, 25565.00
479.4670, 26055.00
480.6500, 26562.00
481.8330, 26977.00
483.0160, 27646.00
484.1980, 28372.00
485.3810, 29338.00
486.5630, 30296.27
487.7450, 31722.00
488.9270, 32601.00
490.1090, 33851.00
491.2910, 35260.00
492.4730, 36104.00
493.6540, 37660.00
494.8350, 38875.00
496.0160, 39763.00
497.1970, 40599.00
498.3780, 41504.00
499.5580, 42095.50
500.7380, 42072.60
501.9190, 42026.67
503.0990, 41959.07
504.2780, 40179.00
505.4580, 39014.00
506.6380, 37912.00
507.8170, 36060.00
508.9960, 34378.00
510.1750, 32216.00
511.3540, 30546.00
512.5320, 28683.11
513.7110, 27188.00
514.8890, 25667.25
516.0670, 24087.00
517.2450, 22999.00
518.4230, 21770.00
519.6010, 20757.00
520.7780, 19923.00
521.9560, 19237.00
523.1330, 18424.00
524.3100, 17934.00
525.4860, 17309.00
526.6630, 16939.00
527.8400, 16580.00
529.0160, 16202.00
530.1920, 15756.00
531.3680, 15546.00
532.5440, 15182.00
533.7190, 14924.00
534.8950, 14744.00
536.0700, 14610.04
537.2450, 14591.00
538.4200, 14428.00
539.5950, 14295.00
540.7690, 14039.00
541.9440, 13954.00
543.1180, 13895.00
544.2920, 13959.00
545.4660, 13928.00
546.6400, 13892.00
547.8140, 13753.00
548.9870, 13728.00
550.1600, 13690.16
551.3330, 13555.00
552.5060, 13636.00
553.6790, 13767.00
554.8520, 13710.00
556.0240, 13776.00
557.1960, 13908.00
558.3680, 13865.00
559.5400, 13832.00
560.7120, 14015.00
561.8840, 14027.00
563.0550, 14036.00
564.2260, 14094.41
565.3980, 14059.00
566.5680, 14129.00
567.7390, 14113.00
568.9100, 14176.00
570.0800, 14117.00
571.2510, 14052.00
572.4210, 14024.00
573.5910, 13898.00
574.7600, 13774.00
575.9300, 13543.00
577.0990, 13281.00
578.2690, 13277.00
579.4380, 13069.00
580.6070, 13026.00
581.7750, 12920.00
582.9440, 12725.00
584.1120, 12615.00
585.2810, 12570.00
586.4490, 12361.00
587.6170, 12416.00
588.7840, 12166.00
589.9520, 12056.00
591.1190, 11981.00
592.2870, 11907.00
593.4540, 11834.00
594.6210, 11779.00
595.7880, 11740.00
596.9540, 11577.00
598.1210, 11711.00
599.2870, 11539.00
600.4530, 11541.00
601.6190, 11564.00
602.7850, 11493.00
603.9500, 11317.00
605.1160, 11398.00
606.2810, 11332.00
607.4460, 11318.00
608.6110, 11385.00
609.7760, 11367.00
610.9410, 11207.00
612.1050, 11161.00
613.2690, 11183.38
614.4330, 11153.00
615.5970, 11129.40
616.7610, 11113.00
617.9250, 11109.00
619.0880, 11046.00
620.2520, 11101.00
621.4150, 11024.00
622.5780, 11082.00
623.7400, 10981.00
624.9030, 11006.00
626.0660, 10990.00
627.2280, 10962.00
628.3900, 10982.00
629.5520, 11055.00
630.7140, 11078.00
631.8750, 11048.00
633.0370, 11043.00
634.1980, 11017.07
635.3590, 10983.39
636.5200, 10970.00
637.6810, 10930.00
638.8420, 10950.00
640.0020, 10971.00
641.1630, 10959.50
642.3230, 10993.00
643.4830, 10954.00
644.6430, 10870.00
645.8020, 10827.00
646.9620, 10810.07
648.1210, 10875.00
649.2810, 10812.00
650.4400, 10893.00
651.5980, 10941.00
652.7570, 10889.00
653.9160, 11023.00
655.0740, 10963.00
656.2320, 10836.00
657.3900, 10878.00
658.5480, 10903.00
659.7060, 10954.00
660.8630, 10962.00
662.0210, 10850.00
663.1780, 10978.00
664.3350, 10979.00
665.4920, 11004.00
666.6490, 11174.00
667.8050, 10982.00
668.9620, 11172.00
670.1180, 11051.00
671.2740, 11180.00
672.4300, 11315.00
673.5860, 11254.26
674.7410, 11385.00
675.8970, 11338.00
677.0520, 11235.00
678.2070, 11444.00
679.3620, 11555.00
680.5170, 11535.00
681.6720, 11712.00
682.8260, 11536.00
683.9800, 11775.00
685.1340, 11830.00
686.2880, 11840.00
687.4420, 12083.00
688.5960, 12052.00
689.7490, 12183.00
690.9030, 12142.00
692.0560, 12259.00
693.2090, 12209.00
694.3620, 12107.00
695.5140, 12029.00
696.6670, 11942.00
697.8190, 11844.29
698.9710, 11784.00
700.1230, 11679.00
701.2750, 11660.00
702.4270, 11639.00
703.5780, 11441.00
704.7300, 11498.00
705.8810, 11288.00
707.0320, 11305.00
708.1830, 11105.00
709.3340, 11103.00
710.4840, 10982.00
711.6350, 10797.00
712.7850, 10796.00
713.9350, 10809.00
715.0850, 10743.00
716.2350, 10697.00
717.3840, 10652.00
718.5340, 10570.06
719.6830, 10585.00
720.8320, 10463.00
721.9810, 10449.00
723.1300, 10512.00
724.2780, 10368.00
725.4270, 10321.00
726.5750, 10391.00
727.7230, 10300.00
728.8710, 10425.00
730.0190, 10447.00
731.1670, 10296.00
732.3140, 10424.00
733.4610, 10507.00
734.6090, 10451.00
735.7560, 10506.06
736.9030, 10333.00
738.0490, 10480.00
739.1960, 10394.00
740.3420, 10383.00
741.4880, 10394.00
742.6340, 10376.91
743.7800, 10348.63
744.9260, 10358.00
746.0720, 10402.00
747.2170, 10392.69
748.3620, 10579.00
749.5070, 10434.00
750.6520, 10442.00
751.7970, 10492.00
752.9420, 10318.00
754.0860, 10538.00
755.2300, 10434.20
756.3740, 10368.00
757.5180, 10400.00
758.6620, 10465.00
759.8060, 10484.00
760.9490, 10491.00
762.0930, 10604.00
763.2360, 10488.00
764.3790, 10523.00
765.5220, 10358.00
766.6640, 10468.00
767.8070, 10507.00
768.9490, 10603.00
770.0910, 10530.00
771.2330, 10497.00
772.3750, 10493.00
773.5170, 10405.00
774.6590, 10428.00
775.8000, 10413.00
776.9410, 10413.00
778.0820, 10501.00
779.2230, 10358.00
780.3640, 10411.00
781.5050, 10407.00
782.6450, 10513.00
783.7850, 10505.00
784.9260, 10510.00
786.0660, 10416.00
787.2050, 10456.00
788.3450, 10437.35
789.4850, 10456.03
790.6240, 10457.50
791.7630, 10442.66
792.9020, 10362.69
794.0410, 10366.83
795.1800, 10337.26
796.3180, 10306.32
797.4570, 10322.30
798.5950, 10251.82
799.7330, 10267.07
800.8710, 10248.09
802.0090, 10244.79
803.1460, 10116.00
804.2840, 10104.00
805.4210, 10075.00
806.5580, 10054.79
807.6950, 10072.00
808.8320, 10134.00
809.9680, 10131.39
811.1050, 10334.00
812.2410, 10087.00
813.3770, 10088.00
814.5130, 10015.00
815.6490, 10242.00
816.7850, 10215.00
817.9200, 9969.000
819.0560, 10220.00
820.1910, 10014.00
821.3260, 10051.00
822.4610, 10129.00
823.5960, 10397.00
824.7300, 10147.00
825.8650, 10175.00
826.9990, 10044.00
828.1330, 10130.00
829.2670, 10029.00
830.4010, 10077.00
831.5340, 10088.00
832.6680, 10082.00
833.8010, 9998.000
834.9340, 10045.29
836.0670, 10037.84
837.2000, 10095.00
838.3330, 10082.00
839.4660, 10127.00
840.5980, 10139.00
841.7300, 10159.00
842.8620, 10095.00
843.9940, 10113.00
845.1260, 10110.82
846.2570, 10052.00
847.3890, 10139.00
848.5200, 10121.00
849.6510, 10159.00
850.7820, 10107.00
851.9130, 10161.00
853.0440, 10163.00
854.1740, 10174.00
855.3050, 10085.00
856.4350, 10307.00
857.5650, 10196.00
858.6950, 10189.00
859.8240, 10279.00
860.9540, 10153.00
862.0830, 10231.00
863.2130, 10344.00
864.3420, 10174.00
865.4710, 10195.00
866.5990, 10260.00
867.7280, 10143.00
868.8560, 10301.00
869.9850, 10264.00
871.1130, 10302.00
872.2410, 10279.00
873.3690, 10268.95
874.4960, 10285.46
875.6240, 10255.00
876.7510, 10279.00
877.8780, 10304.00
879.0060, 10263.00
880.1320, 10366.00
881.2590, 10376.00
882.3860, 10274.00
883.5120, 10489.00
884.6380, 10372.00
885.7650, 10546.00
886.8910, 10329.00
888.0160, 10324.00
889.1420, 10380.00
890.2680, 10547.00
891.3930, 10361.00
892.5180, 10361.00
893.6430, 10415.00
894.7680, 10318.00
895.8930, 10451.00
897.0170, 10475.00
898.1420, 10476.00
899.2660, 10511.00
900.3900, 10592.00
901.5140, 10678.00
902.6380, 10605.01
903.7610, 10539.00
904.8850, 10471.00
906.0080, 10580.00
907.1310, 10564.00
908.2540, 10668.00
909.3770, 10595.00
910.5000, 10714.00
911.6220, 10716.00
912.7450, 10761.00
913.8670, 10814.05
914.9890, 10840.58
916.1110, 10884.00
917.2330, 10900.00
918.3550, 10927.00
919.4760, 10905.00
920.5970, 11063.00
921.7180, 11059.00
922.8390, 11293.00
923.9600, 11308.00
925.0810, 11449.00
926.2020, 11527.00
927.3220, 11511.00
928.4420, 11784.00
929.5620, 11801.00
930.6820, 12055.00
931.8020, 11915.00
932.9220, 12050.00
934.0410, 12050.00
935.1600, 12089.00
936.2790, 12091.00
937.3980, 12106.00
938.5170, 12268.00
939.6360, 12152.00
940.7550, 12153.00
941.8730, 12076.00
942.9910, 12230.00
944.1090, 12214.00
945.2270, 12317.00
946.3450, 12260.00
947.4620, 12362.00
948.5800, 12266.00
949.6970, 12352.00
950.8140, 12308.00
951.9310, 12296.21
953.0480, 12332.69
954.1650, 12341.37
955.2810, 12323.20
956.3980, 12229.30
957.5140, 12209.00
958.6300, 12144.42
959.7460, 12067.92
960.8620, 11877.00
961.9780, 12042.00
963.0930, 11928.00
964.2080, 11872.00
965.3230, 11878.00
966.4380, 11822.00
967.5530, 11683.00
968.6680, 11626.00
969.7830, 11676.00
970.8970, 11616.00
972.0110, 11642.86
973.1250, 11654.13
974.2390, 11714.00
975.3530, 11686.00
976.4670, 11789.00
977.5800, 11813.00
978.6930, 11793.00
979.8070, 12046.00
980.9200, 12017.00
982.0320, 12136.00
983.1450, 12225.00
984.2580, 12415.00
985.3700, 12643.00
986.4820, 12796.00
987.5950, 12879.00
988.7070, 13069.00
989.8180, 13099.51
990.9300, 13288.91
992.0410, 13422.12
993.1530, 13500.26
994.2640, 13474.38
995.3750, 13493.81
996.4860, 13440.72
997.5970, 13363.00
998.7070, 13413.00
999.8180, 13418.00
1000.928, 13419.00
1002.038, 13272.00
1003.148, 13173.00
1004.258, 13047.00
1005.368, 12847.00
1006.477, 12865.00
1007.586, 12756.00
1008.696, 12521.00
1009.805, 12570.00
1010.914, 12539.00
1012.022, 12468.00
1013.131, 12485.00
1014.239, 12380.00
1015.348, 12333.00
1016.456, 12327.49
1017.564, 12270.53
1018.672, 12319.00
1019.780, 12232.00
1020.887, 12255.10
1021.994, 12258.00
1023.102, 12318.00
1024.209, 12303.00
1025.316, 12340.00
1026.423, 12292.00
1027.529, 12363.00
1028.636, 12437.00
1029.742, 12132.00
1030.848, 12163.00
1031.954, 12145.00
1033.060, 12138.00
1034.166, 12230.00
1035.272, 12001.00
1036.377, 12084.00
1037.482, 12052.00
1038.587, 12264.00
1039.692, 12015.00
1040.797, 12156.00
1041.902, 12010.00
1043.006, 11962.00
1044.111, 12191.00
1045.215, 12111.00
1046.319, 12139.00
1047.423, 12139.00
1048.527, 11993.00
1049.631, 11889.00
1050.734, 12053.00
1051.837, 11989.00
1052.941, 12026.83
1054.044, 12037.99
1055.146, 12072.00
1056.249, 12035.00
1057.352, 12034.00
1058.454, 12103.00
1059.556, 12154.00
1060.659, 12094.00
1061.761, 11996.00
1062.862, 12030.00
1063.964, 11970.00
1065.066, 12139.00
1066.167, 12136.00
1067.268, 12219.00
1068.369, 12137.00
1069.470, 12214.22
1070.571, 12266.12
1071.672, 12293.00
1072.772, 12394.00
1073.873, 12418.00
1074.973, 12440.00
1076.073, 12379.00
1077.173, 12545.00
1078.272, 12410.00
1079.372, 12878.00
1080.471, 12796.00
1081.571, 12822.00
1082.670, 12907.00
1083.769, 12930.00
1084.868, 12995.00
1085.966, 13212.00
1087.065, 13342.00
1088.163, 13390.00
1089.262, 13569.00
1090.360, 13574.00
1091.458, 13763.00
1092.555, 13801.00
1093.653, 13767.00
1094.751, 13910.00
1095.848, 13961.00
1096.945, 14002.00
1098.042, 13952.00
1099.139, 14086.00
1100.236, 14086.00
1101.333, 14159.00
1102.429, 14175.00
1103.525, 14083.00
1104.621, 14156.00
1105.718, 14100.00
1106.813, 14101.00
1107.909, 13962.00
1109.005, 14029.00
1110.100, 13856.00
1111.195, 13863.00
1112.291, 13948.00
1113.386, 13789.00
1114.480, 13983.00
1115.575, 13863.00
1116.670, 13914.00
1117.764, 13865.00
1118.858, 13867.00
1119.952, 13857.00
1121.046, 13883.00
1122.140, 13715.00
1123.234, 13670.00
1124.327, 13665.00
1125.421, 13774.00
1126.514, 13628.00
1127.607, 13630.00
1128.700, 13538.00
1129.792, 13578.00
1130.885, 13520.00
1131.978, 13580.00
1133.070, 13380.00
1134.162, 13270.00
1135.254, 13657.00
1136.346, 13430.65
1137.438, 13120.00
1138.529, 13359.00
1139.621, 13189.00
1140.712, 13104.00
1141.803, 13050.00
1142.894, 13115.00
1143.985, 13057.63
1145.076, 13062.66
1146.166, 13038.00
1147.257, 13025.00
1148.347, 12987.00
1149.437, 12920.00
1150.527, 13084.00
1151.617, 13096.00
1152.706, 13172.00
1153.796, 13035.00
1154.885, 13151.00
1155.975, 13061.00
1157.064, 13094.00
1158.153, 12927.00
1159.241, 13049.00
1160.330, 13040.00
1161.419, 12954.00
1162.507, 13030.00
1163.595, 12826.00
1164.683, 12977.00
1165.771, 12813.00
1166.859, 12882.00
1167.946, 12864.00
1169.034, 12850.00
1170.121, 12884.00
1171.208, 12712.00
1172.295, 12743.00
1173.382, 12601.00
1174.469, 12547.00
1175.556, 12649.00
1176.642, 12570.00
1177.728, 12552.00
1178.815, 12437.00
1179.901, 12442.00
1180.986, 12466.00
1182.072, 12370.00
1183.158, 12189.00
1184.243, 12307.00
1185.328, 12171.00
1186.414, 12319.00
1187.499, 12350.00
1188.583, 12203.00
1189.668, 12075.00
1190.753, 11982.00
1191.837, 12030.00
1192.921, 11997.00
1194.005, 11856.00
1195.089, 11988.00
1196.173, 12056.00
1197.257, 11830.00
1198.340, 11934.00
1199.424, 11928.00
1200.507, 11811.00
1201.590, 11815.00
1202.673, 11799.59
1203.756, 11826.03
1204.839, 11835.23
1205.921, 11828.15
1207.004, 11755.91
1208.086, 11767.80
1209.168, 11745.98
1210.250, 11722.77
1211.332, 11746.50
1212.413, 11742.00
1213.495, 11697.00
1214.576, 11756.00
1215.657, 11683.00
1216.738, 11837.00
1217.819, 11709.00
1218.900, 11782.00
1219.981, 11739.00
1221.061, 11725.00
1222.142, 11674.00
1223.222, 11790.00
1224.302, 11660.00
1225.382, 11695.00
1226.461, 11795.00
1227.541, 11715.00
1228.621, 11872.00
1229.700, 11815.92
1230.779, 11703.00
1231.858, 11780.00
1232.937, 11687.00
1234.016, 11695.00
1235.094, 11763.00
1236.173, 11752.00
1237.251, 11786.00
1238.329, 11772.00
1239.407, 11784.76
1240.485, 11773.00
1241.563, 11777.00
1242.641, 11794.00
1243.718, 11743.00
1244.795, 11739.00
1245.873, 11778.00
1246.950, 11667.00
1248.026, 11835.00
1249.103, 11748.00
1250.180, 11737.00
1251.256, 11761.00
1252.333, 11702.00
1253.409, 11757.00
1254.485, 11737.00
1255.561, 11777.00
1256.636, 11793.00
1257.712, 11707.00
1258.787, 11881.00
1259.863, 11818.00
1260.938, 11851.00
1262.013, 11745.00
1263.088, 11811.00
1264.162, 11865.00
1265.237, 11772.00
1266.312, 11925.00
1267.386, 11871.90
1268.460, 11885.00
1269.534, 11823.00
1270.608, 11829.22
1271.682, 11860.00
1272.755, 11858.00
1273.829, 11803.00
1274.902, 11876.00
1275.975, 11916.00
1277.048, 11812.00
1278.121, 11934.00
1279.194, 11729.00
1280.266, 11774.31
1281.339, 11764.97
1282.411, 11796.00
1283.483, 11829.00
1284.555, 11933.00
1285.627, 11899.39
1286.699, 11956.00
1287.770, 11908.00
1288.842, 11971.00
1289.913, 12065.00
1290.984, 11892.00
1292.055, 12122.00
1293.126, 11986.00
1294.197, 12149.00
1295.267, 12138.00
1296.338, 11919.44
1297.408, 12048.58
1298.478, 12122.58
1299.548, 12144.42
1300.618, 11957.81
1301.688, 12040.36
1302.758, 12015.05
1303.827, 11985.30
1304.896, 12105.73
1305.966, 11949.44
1307.035, 12067.49
1308.103, 12076.03
1309.172, 12134.68
1310.241, 12084.81
1311.309, 12068.45
1312.378, 12160.66
1313.446, 12192.76
1314.514, 12130.39
1315.582, 12192.23
1316.649, 12032.14
1317.717, 12164.00
1318.785, 12150.00
1319.852, 12213.00
1320.919, 12066.00
1321.986, 12193.00
1323.053, 12074.00
1324.120, 12162.00
1325.186, 12151.00
1326.253, 12364.00
1327.319, 12041.00
1328.385, 12210.00
1329.451, 12195.00
1330.517, 12081.00
1331.583, 12228.00
1332.649, 12333.00
1333.714, 12255.00
1334.780, 12199.00
1335.845, 12087.00
1336.910, 12287.00
1337.975, 12322.00
1339.040, 12313.00
1340.104, 12313.00
1341.169, 12279.00
1342.233, 12355.00
1343.297, 12252.00
1344.361, 12199.00
1345.425, 12278.00
1346.489, 12242.00
1347.553, 12333.00
1348.616, 12193.00
1349.680, 12387.00
1350.743, 12295.00
1351.806, 12248.00
1352.869, 12149.00
1353.932, 12226.00
1354.994, 12254.00
1356.057, 12311.00
1357.119, 12203.00
1358.182, 12290.00
1359.244, 12208.00
1360.306, 12307.00
1361.367, 12437.00
1362.429, 12375.38
1363.491, 12485.00
1364.552, 12285.00
1365.613, 12527.00
1366.675, 12353.00
1367.736, 12258.00
1368.796, 12281.00
1369.857, 12335.00
1370.918, 12364.00
1371.978, 12423.00
1373.038, 12315.00
1374.099, 12267.00
1375.159, 12280.00
1376.218, 12225.00
1377.278, 12404.00
1378.338, 12388.00
1379.397, 12477.00
1380.457, 12356.00
1381.516, 12507.00
1382.575, 12285.00
1383.634, 12381.00
1384.692, 12273.00
1385.751, 12366.00
1386.809, 12288.00
1387.868, 12459.00
1388.926, 12374.00
1389.984, 12476.00
1391.042, 12466.00
1392.100, 12478.00
1393.157, 12327.00
1394.215, 12441.00
1395.272, 12379.00
1396.330, 12561.00
1397.387, 12508.00
1398.444, 12417.00
1399.500, 12458.00
1400.557, 12633.00
1401.614, 12429.00
1402.670, 12596.00
1403.726, 12434.00
1404.782, 12595.00
1405.838, 12656.00
1406.894, 12443.00
1407.950, 12640.00
1409.005, 12411.00
1410.061, 12652.00
1411.116, 12672.00
1412.171, 12412.00
1413.226, 12338.00
1414.281, 12521.00
1415.336, 12498.00
1416.390, 12492.00
1417.445, 12630.00
1418.499, 12457.00
1419.553, 12507.00
1420.607, 12572.00
1421.661, 12594.00
1422.715, 12607.00
1423.769, 12469.00
1424.822, 12611.00
1425.875, 12506.00
1426.929, 12467.00
1427.982, 12624.00
1429.035, 12546.39
1430.087, 12605.80
1431.140, 12548.00
1432.193, 12706.00
1433.245, 12671.00
1434.297, 12821.00
1435.349, 12633.00
1436.401, 12669.00
1437.453, 12871.00
1438.505, 12760.00
1439.556, 12805.00
1440.608, 12761.00
1441.659, 12788.00
1442.710, 12818.00
1443.761, 12668.00
1444.812, 12778.00
1445.863, 12839.00
1446.913, 13036.00
1447.964, 12794.00
1449.014, 12770.00
1450.064, 12710.00
1451.114, 12845.00
1452.164, 12794.00
1453.214, 12840.00
1454.264, 12788.00
1455.313, 12903.00
1456.362, 12870.00
1457.412, 12873.00
1458.461, 12875.00
1459.510, 12832.00
1460.558, 12911.21
1461.607, 12877.00
1462.656, 12943.00
1463.704, 12925.00
1464.752, 12916.15
1465.800, 12946.21
1466.848, 12876.00
1467.896, 12973.00
1468.944, 12945.00
1469.991, 12963.00
1471.039, 13082.00
1472.086, 12870.00
1473.133, 12920.00
1474.180, 12853.00
1475.227, 12706.00
1476.274, 13015.00
1477.321, 12904.00
1478.367, 12809.00
1479.413, 12903.00
1480.460, 13061.00
1481.506, 12854.00
1482.552, 12972.00
1483.597, 13107.00
1484.643, 13020.00
1485.689, 12965.00
1486.734, 12915.00
1487.779, 12888.00
1488.824, 12865.14
1489.869, 12872.41
1490.914, 12869.00
1491.959, 12910.00
1493.003, 12964.00
1494.048, 12977.00
1495.092, 13014.00
1496.136, 13146.00
1497.180, 13104.00
1498.224, 12938.00
1499.268, 12928.00
1500.312, 13049.00
1501.355, 12945.00
1502.398, 13043.00
1503.442, 13025.00
1504.485, 13126.00
1505.528, 13057.00
1506.570, 13178.00
1507.613, 13023.00
1508.656, 13063.00
1509.698, 12914.00
1510.740, 13019.00
1511.782, 13063.00
1512.824, 13035.00
1513.866, 13023.00
1514.908, 13156.00
1515.949, 13088.00
1516.991, 13141.00
1518.032, 13065.00
1519.073, 13251.00
1520.114, 13202.00
1521.155, 13269.00
1522.196, 13211.00
1523.237, 13341.00
1524.277, 13221.00
1525.318, 13101.00
1526.358, 13167.00
1527.398, 13254.00
1528.438, 13271.00
1529.478, 13325.00
1530.517, 13267.00
1531.557, 13230.00
1532.596, 13187.00
1533.636, 13275.00
1534.675, 13286.00
1535.714, 13310.00
1536.753, 13347.82
1537.791, 13300.00
1538.830, 13345.00
1539.869, 13314.00
1540.907, 13334.71
1541.945, 13394.00
1542.983, 13347.00
1544.021, 13346.00
1545.059, 13289.00
1546.097, 13270.00
1547.134, 13349.00
1548.171, 13346.30
1549.209, 13377.89
1550.246, 13468.00
1551.283, 13462.00
1552.320, 13572.00
1553.356, 13681.00
1554.393, 13784.00
1555.429, 13922.00
1556.466, 13636.00
1557.502, 13562.00
1558.538, 13426.00
1559.574, 13415.00
1560.610, 13451.00
1561.645, 13582.00
1562.681, 13489.00
1563.716, 13537.00
1564.752, 13355.00
1565.787, 13548.00
1566.822, 13592.00
1567.857, 13486.00
1568.891, 13552.00
1569.926, 13605.00
1570.960, 13700.00
1571.995, 13689.00
1573.029, 13718.00
1574.063, 13606.00
1575.097, 13628.00
1576.130, 13771.00
1577.164, 13780.00
##END=



