##NAMES=Levyne-Na
##RRUFFID=R060021
##IDEAL CHEMISTRY=Na_6_(Si_12_Al_6_)O_36_&#183;18H_2_O
##LOCALITY=Dallas, Oregon, USA
##OWNER=RRUFF
##SOURCE=Bob Downs
##DESCRIPTION=White tabular hexagonal-shaped crystals associated with analcime, R060023
##STATUS=The identification of this mineral has been confirmed by X-ray diffraction and chemical analysis
##URL=rruff.info/R060021
##MEASURED CHEMISTRY=(Na_0.70_Ca_0.26_K_0.04_)_6_(Si_0.58_Al_0.42_)_18_O_36_Â·18H_2_O
##PIN_ID=L01578
##ORIENTATION=Laser parallel to a* (1 0 0). Fiducial mark perpendicular to laser is parallel to -c [0 0 -1]
69.52600, 10164.00
70.76900, 11371.00
72.01200, 12777.00
73.25500, 14409.00
74.49700, 15936.00
75.74000, 17241.00
76.98200, 18034.00
78.22400, 18682.00
79.46600, 19007.00
80.70800, 19732.00
81.94900, 19854.00
83.19000, 20380.00
84.43100, 20460.00
85.67200, 20532.00
86.91300, 20654.00
88.15400, 20773.00
89.39400, 20996.00
90.63400, 21189.00
91.87400, 21520.00
93.11400, 21582.00
94.35400, 22197.00
95.59300, 22198.00
96.83200, 22297.00
98.07200, 22231.00
99.31000, 22319.00
100.5490, 22556.00
101.7880, 22936.00
103.0260, 22658.00
104.2640, 23084.00
105.5020, 23266.00
106.7400, 23348.00
107.9780, 23310.00
109.2150, 23408.00
110.4520, 23369.00
111.6890, 23148.00
112.9260, 23442.00
114.1630, 23588.00
115.3990, 23346.00
116.6360, 23072.00
117.8720, 22387.00
119.1080, 21852.00
120.3440, 21274.00
121.5790, 20434.00
122.8150, 20171.00
124.0500, 19247.00
125.2850, 18691.00
126.5200, 18176.00
127.7550, 17849.00
128.9890, 17818.00
130.2230, 17668.00
131.4570, 17276.00
132.6910, 17075.00
133.9250, 16796.00
135.1590, 16585.00
136.3920, 16644.00
137.6250, 16597.00
138.8580, 16605.00
140.0910, 16268.00
141.3240, 16235.00
142.5570, 15950.00
143.7890, 15848.00
145.0210, 15650.00
146.2530, 15691.00
147.4850, 15445.00
148.7160, 15356.00
149.9480, 15219.00
151.1790, 14829.00
152.4100, 14652.00
153.6410, 14714.00
154.8710, 14594.00
156.1020, 14564.00
157.3320, 14367.00
158.5620, 14325.00
159.7920, 14378.00
161.0220, 14226.00
162.2520, 14150.00
163.4810, 13887.00
164.7100, 13864.00
165.9390, 13834.00
167.1680, 13567.00
168.3970, 13470.00
169.6250, 13244.00
170.8540, 13267.00
172.0820, 13215.00
173.3100, 12873.00
174.5370, 13011.00
175.7650, 12882.00
176.9920, 12919.00
178.2200, 12892.00
179.4470, 12970.00
180.6740, 13134.00
181.9000, 13097.00
183.1270, 13285.00
184.3530, 13373.00
185.5790, 13676.00
186.8050, 13669.65
188.0310, 13754.00
189.2570, 13640.00
190.4820, 13719.73
191.7070, 13855.00
192.9320, 13799.00
194.1570, 13974.00
195.3820, 14041.00
196.6060, 14203.00
197.8310, 14164.00
199.0550, 14250.00
200.2790, 14226.00
201.5030, 13991.00
202.7260, 13800.00
203.9500, 13632.00
205.1730, 13443.00
206.3960, 13259.11
207.6190, 13154.00
208.8420, 12858.00
210.0640, 12694.00
211.2870, 12433.00
212.5090, 12375.00
213.7310, 12258.00
214.9530, 12255.00
216.1740, 12072.00
217.3960, 11822.00
218.6170, 12053.00
219.8380, 11774.00
221.0590, 11819.00
222.2800, 11623.00
223.5000, 11457.00
224.7210, 11356.00
225.9410, 11166.00
227.1610, 11073.66
228.3810, 10976.97
229.6000, 10929.00
230.8200, 10887.00
232.0390, 10891.34
233.2580, 10911.42
234.4770, 10984.00
235.6960, 11052.00
236.9150, 11174.00
238.1330, 11350.00
239.3510, 11500.00
240.5690, 11682.00
241.7870, 11872.00
243.0050, 12192.00
244.2220, 12340.00
245.4400, 12730.00
246.6570, 13002.00
247.8740, 13155.00
249.0910, 13278.00
250.3070, 13383.00
251.5240, 13501.00
252.7400, 13715.00
253.9560, 13786.00
255.1720, 14045.00
256.3880, 14113.00
257.6030, 14152.00
258.8190, 14232.00
260.0340, 13903.00
261.2490, 13621.00
262.4640, 13495.00
263.6780, 13028.00
264.8930, 12878.00
266.1070, 12430.00
267.3210, 12328.00
268.5350, 11780.00
269.7490, 11609.00
270.9630, 11432.00
272.1760, 11526.00
273.3890, 11382.00
274.6030, 11327.00
275.8150, 11294.00
277.0280, 11507.00
278.2410, 11492.00
279.4530, 11800.00
280.6650, 11850.00
281.8770, 12137.00
283.0890, 12560.00
284.3010, 12800.00
285.5120, 13254.00
286.7230, 13522.00
287.9350, 13828.00
289.1460, 14131.55
290.3560, 14531.02
291.5670, 14729.21
292.7770, 14727.46
293.9880, 14440.21
295.1980, 14129.23
296.4080, 13744.00
297.6170, 13476.00
298.8270, 13273.00
300.0360, 12800.00
301.2450, 12461.00
302.4540, 12268.00
303.6630, 12216.00
304.8720, 12169.00
306.0800, 12271.00
307.2890, 12129.00
308.4970, 12394.00
309.7050, 12462.00
310.9120, 12903.00
312.1200, 13171.00
313.3270, 13327.00
314.5350, 13725.00
315.7420, 13984.00
316.9490, 14487.00
318.1550, 14672.00
319.3620, 14860.00
320.5680, 14948.00
321.7740, 14880.00
322.9800, 14650.00
324.1860, 14644.00
325.3920, 14261.00
326.5970, 14026.00
327.8030, 13951.00
329.0080, 13663.00
330.2130, 13608.00
331.4180, 13596.00
332.6220, 13614.00
333.8270, 13705.18
335.0310, 13960.00
336.2350, 13961.00
337.4390, 14217.00
338.6430, 14348.00
339.8460, 14397.00
341.0500, 14350.00
342.2530, 14271.00
343.4560, 14219.00
344.6590, 13962.00
345.8610, 13877.00
347.0640, 13817.00
348.2660, 13661.00
349.4680, 13785.00
350.6700, 13516.00
351.8720, 13452.00
353.0740, 13450.00
354.2750, 13140.00
355.4770, 13036.00
356.6780, 13108.00
357.8790, 13050.00
359.0790, 13123.00
360.2800, 13230.00
361.4800, 13634.00
362.6810, 13815.00
363.8810, 14292.00
365.0810, 14744.00
366.2800, 15243.00
367.4800, 15902.00
368.6790, 16437.00
369.8780, 17195.00
371.0770, 17916.00
372.2760, 18722.00
373.4750, 19212.00
374.6730, 19772.00
375.8720, 19853.00
377.0700, 19930.00
378.2680, 19581.00
379.4660, 19220.00
380.6630, 18680.00
381.8610, 17911.00
383.0580, 16967.00
384.2550, 16158.00
385.4520, 15512.00
386.6490, 15019.00
387.8460, 14332.00
389.0420, 14000.00
390.2380, 13657.00
391.4340, 13365.00
392.6300, 13202.00
393.8260, 13135.00
395.0210, 12899.00
396.2170, 12807.46
397.4120, 12659.63
398.6070, 12540.00
399.8020, 12372.00
400.9970, 12198.00
402.1910, 12033.00
403.3860, 11825.00
404.5800, 11835.00
405.7740, 11655.00
406.9680, 11559.00
408.1610, 11326.00
409.3550, 11118.00
410.5480, 10809.00
411.7410, 10690.00
412.9340, 10504.00
414.1270, 10392.00
415.3200, 10244.14
416.5120, 10162.00
417.7040, 10012.00
418.8960, 9924.000
420.0880, 9870.599
421.2800, 9897.646
422.4720, 9908.498
423.6630, 9904.031
424.8540, 9838.332
426.0450, 9882.000
427.2360, 9785.000
428.4270, 9928.000
429.6180, 10098.00
430.8080, 10190.00
431.9980, 10171.00
433.1880, 10494.00
434.3780, 10536.00
435.5680, 10772.00
436.7570, 10996.23
437.9470, 11350.00
439.1360, 11487.00
440.3250, 11785.00
441.5140, 12122.00
442.7020, 12455.00
443.8910, 12731.00
445.0790, 13069.00
446.2670, 13331.00
447.4550, 13285.00
448.6430, 13534.00
449.8310, 13545.00
451.0180, 13648.00
452.2060, 13358.00
453.3930, 13518.00
454.5800, 13408.00
455.7660, 13391.00
456.9530, 13352.00
458.1400, 13298.00
459.3260, 13337.93
460.5120, 13487.00
461.6980, 13465.00
462.8840, 13443.00
464.0690, 13615.00
465.2550, 13632.00
466.4400, 13893.00
467.6250, 13874.00
468.8100, 14174.00
469.9950, 14266.00
471.1790, 14386.00
472.3640, 14863.00
473.5480, 14841.00
474.7320, 15106.00
475.9160, 15423.00
477.1000, 15687.00
478.2830, 15903.00
479.4670, 16548.00
480.6500, 16824.00
481.8330, 17547.00
483.0160, 18039.00
484.1980, 18673.00
485.3810, 19438.00
486.5630, 20337.00
487.7450, 21349.00
488.9270, 22401.00
490.1090, 23620.00
491.2910, 24596.00
492.4730, 26168.00
493.6540, 27224.00
494.8350, 28769.00
496.0160, 30549.00
497.1970, 31582.00
498.3780, 32872.00
499.5580, 34315.00
500.7380, 34803.00
501.9190, 35155.00
503.0990, 35381.00
504.2780, 34914.00
505.4580, 34459.00
506.6380, 33430.00
507.8170, 32330.00
508.9960, 30659.00
510.1750, 29025.00
511.3540, 27759.00
512.5320, 25655.00
513.7110, 24195.00
514.8890, 22843.00
516.0670, 21537.00
517.2450, 20377.00
518.4230, 19533.00
519.6010, 18542.00
520.7780, 17765.00
521.9560, 16918.00
523.1330, 16359.00
524.3100, 15835.00
525.4860, 15217.00
526.6630, 14823.00
527.8400, 14510.00
529.0160, 14110.00
530.1920, 13965.00
531.3680, 13789.00
532.5440, 13440.00
533.7190, 13201.00
534.8950, 12976.00
536.0700, 12915.00
537.2450, 12717.00
538.4200, 12594.59
539.5950, 12490.99
540.7690, 12336.00
541.9440, 12299.00
543.1180, 12164.00
544.2920, 12123.00
545.4660, 12053.00
546.6400, 11904.00
547.8140, 11965.00
548.9870, 11932.00
550.1600, 12075.00
551.3330, 12042.00
552.5060, 11964.00
553.6790, 12069.00
554.8520, 12061.00
556.0240, 11923.00
557.1960, 12255.00
558.3680, 12244.00
559.5400, 12295.00
560.7120, 12220.00
561.8840, 12307.00
563.0550, 12349.00
564.2260, 12316.00
565.3980, 12287.00
566.5680, 12356.00
567.7390, 12168.00
568.9100, 12269.00
570.0800, 12036.00
571.2510, 11774.00
572.4210, 11729.00
573.5910, 11479.00
574.7600, 11377.00
575.9300, 11120.00
577.0990, 10869.00
578.2690, 10606.00
579.4380, 10437.07
580.6070, 10332.00
581.7750, 10121.00
582.9440, 10084.00
584.1120, 9949.000
585.2810, 9875.000
586.4490, 9696.000
587.6170, 9601.000
588.7840, 9616.000
589.9520, 9375.000
591.1190, 9345.000
592.2870, 9218.000
593.4540, 9294.000
594.6210, 9138.000
595.7880, 9118.000
596.9540, 9013.000
598.1210, 8974.000
599.2870, 8961.000
600.4530, 8863.000
601.6190, 8987.000
602.7850, 8971.000
603.9500, 8993.000
605.1160, 8983.000
606.2810, 8873.000
607.4460, 8821.000
608.6110, 8707.000
609.7760, 8660.000
610.9410, 8641.000
612.1050, 8659.000
613.2690, 8632.000
614.4330, 8571.000
615.5970, 8431.000
616.7610, 8443.000
617.9250, 8436.000
619.0880, 8265.000
620.2520, 8306.000
621.4150, 8288.000
622.5780, 8285.000
623.7400, 8266.000
624.9030, 8199.000
626.0660, 8234.000
627.2280, 8217.000
628.3900, 8083.000
629.5520, 8110.000
630.7140, 8122.000
631.8750, 8156.000
633.0370, 8139.000
634.1980, 8077.000
635.3590, 8230.000
636.5200, 8009.000
637.6810, 8196.000
638.8420, 8128.000
640.0020, 8067.000
641.1630, 8144.000
642.3230, 8072.000
643.4830, 8121.000
644.6430, 8275.000
645.8020, 8243.000
646.9620, 8247.000
648.1210, 8151.000
649.2810, 8162.000
650.4400, 8237.000
651.5980, 8175.000
652.7570, 8263.000
653.9160, 8322.000
655.0740, 8268.000
656.2320, 8281.000
657.3900, 8243.000
658.5480, 8206.000
659.7060, 8315.000
660.8630, 8273.037
662.0210, 8318.692
663.1780, 8354.000
664.3350, 8337.000
665.4920, 8498.000
666.6490, 8427.000
667.8050, 8637.000
668.9620, 8635.666
670.1180, 8693.752
671.2740, 8658.000
672.4300, 8825.000
673.5860, 8749.000
674.7410, 8852.000
675.8970, 8982.000
677.0520, 8977.000
678.2070, 9063.000
679.3620, 9367.000
680.5170, 9368.000
681.6720, 9441.000
682.8260, 9585.000
683.9800, 9566.000
685.1340, 9783.000
686.2880, 9864.000
687.4420, 9938.000
688.5960, 10118.00
689.7490, 10151.00
690.9030, 10247.00
692.0560, 10275.00
693.2090, 10143.00
694.3620, 10219.00
695.5140, 10042.00
696.6670, 10039.00
697.8190, 9950.000
698.9710, 9729.000
700.1230, 9694.000
701.2750, 9514.000
702.4270, 9453.000
703.5780, 9213.000
704.7300, 9131.000
705.8810, 9025.000
707.0320, 8841.000
708.1830, 8865.000
709.3340, 8751.000
710.4840, 8543.000
711.6350, 8509.000
712.7850, 8398.000
713.9350, 8318.000
715.0850, 8284.000
716.2350, 8210.810
717.3840, 8176.616
718.5340, 8126.160
719.6830, 8060.441
720.8320, 7933.489
721.9810, 7885.603
723.1300, 7856.000
724.2780, 7861.000
725.4270, 7923.000
726.5750, 7854.000
727.7230, 7838.000
728.8710, 7774.000
730.0190, 7729.000
731.1670, 7744.000
732.3140, 7724.000
733.4610, 7710.051
734.6090, 7674.000
735.7560, 7677.000
736.9030, 7691.000
738.0490, 7584.174
739.1960, 7622.755
740.3420, 7645.136
741.4880, 7652.191
742.6340, 7598.013
743.7800, 7622.904
744.9260, 7616.107
746.0720, 7734.000
747.2170, 7633.000
748.3620, 7676.000
749.5070, 7713.000
750.6520, 7671.979
751.7970, 7725.000
752.9420, 7701.000
754.0860, 7733.000
755.2300, 7838.000
756.3740, 7785.000
757.5180, 7828.000
758.6620, 7935.000
759.8060, 7881.000
760.9490, 8034.000
762.0930, 7960.000
763.2360, 7866.000
764.3790, 7997.000
765.5220, 8029.000
766.6640, 8069.000
767.8070, 8040.000
768.9490, 8052.000
770.0910, 8032.000
771.2330, 7917.000
772.3750, 7899.000
773.5170, 7928.000
774.6590, 7830.000
775.8000, 7951.000
776.9410, 7890.000
778.0820, 7867.000
779.2230, 7730.000
780.3640, 7760.000
781.5050, 7689.000
782.6450, 7709.000
783.7850, 7723.000
784.9260, 7659.000
786.0660, 7749.000
787.2050, 7727.000
788.3450, 7573.000
789.4850, 7643.000
790.6240, 7574.000
791.7630, 7592.000
792.9020, 7666.000
794.0410, 7699.000
795.1800, 7697.041
796.3180, 7740.000
797.4570, 7677.000
798.5950, 7602.000
799.7330, 7578.000
800.8710, 7536.000
802.0090, 7535.347
803.1460, 7555.000
804.2840, 7533.000
805.4210, 7538.000
806.5580, 7536.720
807.6950, 7524.000
808.8320, 7534.000
809.9680, 7511.000
811.1050, 7513.000
812.2410, 7480.000
813.3770, 7516.000
814.5130, 7547.000
815.6490, 7509.000
816.7850, 7476.000
817.9200, 7509.000
819.0560, 7461.846
820.1910, 7545.000
821.3260, 7434.000
822.4610, 7365.000
823.5960, 7385.428
824.7300, 7382.000
825.8650, 7425.000
826.9990, 7510.000
828.1330, 7456.000
829.2670, 7522.000
830.4010, 7498.000
831.5340, 7538.000
832.6680, 7467.000
833.8010, 7581.000
834.9340, 7573.000
836.0670, 7417.000
837.2000, 7520.000
838.3330, 7574.000
839.4660, 7509.000
840.5980, 7512.000
841.7300, 7420.000
842.8620, 7420.124
843.9940, 7524.000
845.1260, 7407.000
846.2570, 7420.000
847.3890, 7442.000
848.5200, 7585.000
849.6510, 7620.000
850.7820, 7468.000
851.9130, 7555.000
853.0440, 7541.000
854.1740, 7540.000
855.3050, 7654.000
856.4350, 7528.000
857.5650, 7603.000
858.6950, 7532.000
859.8240, 7522.000
860.9540, 7607.000
862.0830, 7501.000
863.2130, 7624.000
864.3420, 7545.000
865.4710, 7745.000
866.5990, 7679.000
867.7280, 7591.000
868.8560, 7616.000
869.9850, 7622.000
871.1130, 7716.000
872.2410, 7602.000
873.3690, 7606.000
874.4960, 7654.000
875.6240, 7625.000
876.7510, 7748.000
877.8780, 7667.000
879.0060, 7821.000
880.1320, 7771.813
881.2590, 7766.217
882.3860, 7747.000
883.5120, 7725.000
884.6380, 7772.000
885.7650, 7766.000
886.8910, 7732.000
888.0160, 7699.000
889.1420, 7811.000
890.2680, 7909.000
891.3930, 7869.000
892.5180, 7768.000
893.6430, 7860.000
894.7680, 7832.000
895.8930, 7813.000
897.0170, 7898.000
898.1420, 7802.000
899.2660, 7896.000
900.3900, 7914.000
901.5140, 7900.000
902.6380, 7915.000
903.7610, 7993.000
904.8850, 7866.000
906.0080, 8012.000
907.1310, 7909.000
908.2540, 7947.000
909.3770, 8062.000
910.5000, 7948.000
911.6220, 7924.000
912.7450, 7993.000
913.8670, 8026.000
914.9890, 8026.000
916.1110, 8114.000
917.2330, 8086.000
918.3550, 8259.000
919.4760, 8174.000
920.5970, 8197.000
921.7180, 8323.000
922.8390, 8422.000
923.9600, 8413.000
925.0810, 8411.000
926.2020, 8560.000
927.3220, 8725.000
928.4420, 8694.000
929.5620, 8774.000
930.6820, 8736.000
931.8020, 8857.000
932.9220, 8969.000
934.0410, 9066.000
935.1600, 8999.000
936.2790, 8976.000
937.3980, 8963.000
938.5170, 8964.929
939.6360, 9103.000
940.7550, 9033.000
941.8730, 9076.000
942.9910, 9157.000
944.1090, 9076.000
945.2270, 9062.000
946.3450, 9198.000
947.4620, 9268.000
948.5800, 9250.000
949.6970, 9313.000
950.8140, 9325.000
951.9310, 9400.000
953.0480, 9435.000
954.1650, 9378.000
955.2810, 9358.000
956.3980, 9273.000
957.5140, 9266.000
958.6300, 9215.000
959.7460, 9124.000
960.8620, 9089.000
961.9780, 9067.000
963.0930, 9119.000
964.2080, 9035.000
965.3230, 8936.000
966.4380, 8990.000
967.5530, 8864.000
968.6680, 8970.000
969.7830, 8886.000
970.8970, 8800.000
972.0110, 8916.000
973.1250, 8859.000
974.2390, 9012.000
975.3530, 8930.000
976.4670, 9029.000
977.5800, 9046.000
978.6930, 9113.000
979.8070, 9250.000
980.9200, 9293.000
982.0320, 9388.000
983.1450, 9436.000
984.2580, 9600.000
985.3700, 9817.000
986.4820, 9881.000
987.5950, 10144.00
988.7070, 10201.00
989.8180, 10430.00
990.9300, 10427.00
992.0410, 10509.00
993.1530, 10622.00
994.2640, 10549.00
995.3750, 10489.00
996.4860, 10437.00
997.5970, 10435.00
998.7070, 10358.00
999.8180, 10338.00
1000.928, 10201.00
1002.038, 10092.00
1003.148, 10019.00
1004.258, 9905.000
1005.368, 9871.000
1006.477, 9750.000
1007.586, 9768.000
1008.696, 9740.000
1009.805, 9544.000
1010.914, 9572.000
1012.022, 9475.000
1013.131, 9540.000
1014.239, 9458.000
1015.348, 9435.000
1016.456, 9392.000
1017.564, 9447.000
1018.672, 9399.000
1019.780, 9455.000
1020.887, 9557.000
1021.994, 9565.000
1023.102, 9460.000
1024.209, 9468.000
1025.316, 9611.000
1026.423, 9428.000
1027.529, 9734.000
1028.636, 9475.000
1029.742, 9638.000
1030.848, 9531.000
1031.954, 9527.000
1033.060, 9438.000
1034.166, 9591.000
1035.272, 9682.000
1036.377, 9626.000
1037.482, 9609.000
1038.587, 9649.733
1039.692, 9574.000
1040.797, 9716.000
1041.902, 9602.000
1043.006, 9687.000
1044.111, 9682.000
1045.215, 9656.000
1046.319, 9638.000
1047.423, 9668.000
1048.527, 9599.000
1049.631, 9756.000
1050.734, 9717.000
1051.837, 9673.000
1052.941, 9857.000
1054.044, 9873.000
1055.146, 9723.000
1056.249, 9776.000
1057.352, 9873.000
1058.454, 9857.000
1059.556, 9834.000
1060.659, 9859.000
1061.761, 9888.000
1062.862, 9913.376
1063.964, 10045.00
1065.066, 10038.00
1066.167, 9922.000
1067.268, 10054.00
1068.369, 10212.00
1069.470, 10165.00
1070.571, 10326.00
1071.672, 10349.29
1072.772, 10357.00
1073.873, 10415.00
1074.973, 10495.00
1076.073, 10497.00
1077.173, 10572.00
1078.272, 10576.00
1079.372, 10737.00
1080.471, 10896.00
1081.571, 11017.00
1082.670, 11035.00
1083.769, 11313.00
1084.868, 11492.00
1085.966, 11475.00
1087.065, 11385.00
1088.163, 11755.00
1089.262, 11821.00
1090.360, 12055.00
1091.458, 12205.00
1092.555, 12373.00
1093.653, 12573.00
1094.751, 12603.00
1095.848, 12732.00
1096.945, 12713.00
1098.042, 12843.00
1099.139, 12710.00
1100.236, 12623.00
1101.333, 12619.00
1102.429, 12560.44
1103.525, 12546.00
1104.621, 12426.00
1105.718, 12476.00
1106.813, 12164.00
1107.909, 12363.00
1109.005, 12046.00
1110.100, 12025.00
1111.195, 11925.00
1112.291, 11944.00
1113.386, 11853.00
1114.480, 11757.00
1115.575, 11687.00
1116.670, 11641.00
1117.764, 11619.00
1118.858, 11507.00
1119.952, 11497.92
1121.046, 11423.75
1122.140, 11453.00
1123.234, 11342.00
1124.327, 11357.00
1125.421, 11410.00
1126.514, 11342.00
1127.607, 11312.00
1128.700, 11216.00
1129.792, 11166.00
1130.885, 11089.00
1131.978, 11202.00
1133.070, 11273.00
1134.162, 11088.00
1135.254, 11007.00
1136.346, 11011.00
1137.438, 11002.00
1138.529, 10974.00
1139.621, 10973.00
1140.712, 11113.00
1141.803, 11005.00
1142.894, 10928.00
1143.985, 11208.00
1145.076, 10983.00
1146.166, 11078.00
1147.257, 11172.00
1148.347, 11231.00
1149.437, 11289.81
1150.527, 11370.00
1151.617, 11343.00
1152.706, 11511.00
1153.796, 11486.31
1154.885, 11545.97
1155.975, 11419.00
1157.064, 11548.00
1158.153, 11472.00
1159.241, 11621.00
1160.330, 11585.00
1161.419, 11740.00
1162.507, 11702.81
1163.595, 11799.00
1164.683, 11690.00
1165.771, 11810.00
1166.859, 11910.00
1167.946, 11886.00
1169.034, 11902.00
1170.121, 11807.00
1171.208, 11907.00
1172.295, 11882.00
1173.382, 11803.00
1174.469, 11833.00
1175.556, 11800.00
1176.642, 11719.00
1177.728, 11619.00
1178.815, 11562.36
1179.901, 11567.00
1180.986, 11414.00
1182.072, 11348.00
1183.158, 11285.00
1184.243, 11138.00
1185.328, 11058.00
1186.414, 11024.00
1187.499, 10963.00
1188.583, 11022.00
1189.668, 10751.00
1190.753, 10567.00
1191.837, 10744.00
1192.921, 10561.00
1194.005, 10505.00
1195.089, 10538.00
1196.173, 10520.00
1197.257, 10304.00
1198.340, 10196.00
1199.424, 10118.00
1200.507, 10188.00
1201.590, 10136.00
1202.673, 10039.00
1203.756, 10076.00
1204.839, 10029.00
1205.921, 10040.00
1207.004, 10037.00
1208.086, 9942.000
1209.168, 9885.000
1210.250, 9895.000
1211.332, 9921.000
1212.413, 9841.000
1213.495, 9880.000
1214.576, 9939.000
1215.657, 9830.000
1216.738, 9825.000
1217.819, 9921.000
1218.900, 9839.000
1219.981, 9824.000
1221.061, 9871.917
1222.142, 9872.000
1223.222, 9995.000
1224.302, 9736.000
1225.382, 9909.000
1226.461, 9756.000
1227.541, 9865.000
1228.621, 9966.000
1229.700, 9927.205
1230.779, 10084.00
1231.858, 10012.00
1232.937, 9839.000
1234.016, 9931.000
1235.094, 9873.000
1236.173, 9994.000
1237.251, 9990.000
1238.329, 9979.000
1239.407, 9928.000
1240.485, 9900.000
1241.563, 9985.000
1242.641, 10059.00
1243.718, 9994.000
1244.795, 10053.00
1245.873, 10009.00
1246.950, 10044.00
1248.026, 10026.00
1249.103, 10174.00
1250.180, 10039.00
1251.256, 10102.00
1252.333, 10205.00
1253.409, 10076.60
1254.485, 10212.62
1255.561, 10297.55
1256.636, 10334.13
1257.712, 10177.61
1258.787, 10270.45
1259.863, 10263.36
1260.938, 10252.16
1262.013, 10380.09
1263.088, 10251.64
1264.162, 10377.35
1265.237, 10401.62
1266.312, 10472.32
1267.386, 10442.44
1268.460, 10443.63
1269.534, 10545.40
1270.608, 10591.48
1271.682, 10550.03
1272.755, 10623.65
1273.829, 10491.67
1274.902, 10540.10
1275.975, 10666.38
1277.048, 10629.97
1278.121, 10705.42
1279.194, 10738.27
1280.266, 10577.49
1281.339, 10753.44
1282.411, 10783.76
1283.483, 10664.55
1284.555, 10828.95
1285.627, 10730.35
1286.699, 10725.63
1287.770, 10791.54
1288.842, 10783.82
1289.913, 10892.19
1290.984, 10888.70
1292.055, 10875.22
1293.126, 10905.36
1294.197, 10811.90
1295.267, 10947.71
1296.338, 10926.92
1297.408, 10983.96
1298.478, 11058.65
1299.548, 10998.22
1300.618, 11080.84
1301.688, 10941.62
1302.758, 10988.03
1303.827, 11014.42
1304.896, 11159.45
1305.966, 11021.32
1307.035, 11062.55
1308.103, 11238.00
1309.172, 11281.00
1310.241, 11233.00
1311.309, 11261.00
1312.378, 11307.00
1313.446, 11185.00
1314.514, 11344.00
1315.582, 11410.00
1316.649, 11130.00
1317.717, 11204.00
1318.785, 11184.00
1319.852, 11166.00
1320.919, 11274.00
1321.986, 11313.00
1323.053, 11129.00
1324.120, 11175.00
1325.186, 11249.00
1326.253, 11095.00
1327.319, 11036.00
1328.385, 11090.00
1329.451, 11135.00
1330.517, 11046.00
1331.583, 11109.00
1332.649, 11074.00
1333.714, 11032.00
1334.780, 10998.00
1335.845, 10998.83
1336.910, 11043.00
1337.975, 11031.00
1339.040, 10890.00
1340.104, 10933.00
1341.169, 10894.00
1342.233, 11000.00
1343.297, 10970.92
1344.361, 10750.00
1345.425, 10973.00
1346.489, 10804.33
1347.553, 10869.59
1348.616, 10904.66
1349.680, 10911.17
1350.743, 10803.57
1351.806, 10843.32
1352.869, 10824.02
1353.932, 10802.29
1354.994, 10862.79
1356.057, 10763.00
1357.119, 10717.00
1358.182, 10713.00
1359.244, 10733.00
1360.306, 10782.00
1361.367, 10790.00
1362.429, 10765.00
1363.491, 10853.00
1364.552, 10759.00
1365.613, 10762.00
1366.675, 10828.00
1367.736, 10724.00
1368.796, 10702.00
1369.857, 10710.00
1370.918, 10776.00
1371.978, 10634.00
1373.038, 10690.00
1374.099, 10669.00
1375.159, 10653.00
1376.218, 10703.00
1377.278, 10714.00
1378.338, 10813.00
1379.397, 10728.00
1380.457, 10844.00
1381.516, 10689.00
1382.575, 10765.00
1383.634, 10693.00
1384.692, 10683.00
1385.751, 10759.00
1386.809, 10680.00
1387.868, 10794.00
1388.926, 10679.00
1389.984, 10737.00
1391.042, 10766.00
1392.100, 10868.00
1393.157, 10714.00
1394.215, 10815.00
1395.272, 10829.00
1396.330, 10772.08
1397.387, 10941.00
1398.444, 10725.00
1399.500, 10786.00
1400.557, 10758.86
1401.614, 10825.20
1402.670, 10861.36
1403.726, 10868.95
1404.782, 10762.43
1405.838, 10803.27
1406.894, 10785.05
1407.950, 10764.41
1409.005, 10825.99
1410.061, 10777.00
1411.116, 10804.00
1412.171, 11000.00
1413.226, 10956.56
1414.281, 10772.00
1415.336, 10974.00
1416.390, 10813.00
1417.445, 10801.00
1418.499, 10959.00
1419.553, 10921.00
1420.607, 10904.00
1421.661, 10885.00
1422.715, 10900.00
1423.769, 10975.00
1424.822, 10850.00
1425.875, 10929.00
1426.929, 10806.00
1427.982, 10859.00
1429.035, 10958.00
1430.087, 10987.00
1431.140, 11001.00
1432.193, 11020.00
1433.245, 10939.00
1434.297, 10881.00
1435.349, 10935.00
1436.401, 11007.00
1437.453, 10974.00
1438.505, 11068.00
1439.556, 11049.00
1440.608, 11061.80
1441.659, 11092.00
1442.710, 11076.00
1443.761, 11014.00
1444.812, 11033.00
1445.863, 11026.00
1446.913, 10978.00
1447.964, 11101.00
1449.014, 11115.00
1450.064, 11177.00
1451.114, 11040.00
1452.164, 10978.00
1453.214, 11068.00
1454.264, 11188.00
1455.313, 11121.00
1456.362, 11216.00
1457.412, 11090.00
1458.461, 11161.00
1459.510, 11164.00
1460.558, 11220.00
1461.607, 11173.00
1462.656, 11296.00
1463.704, 11232.00
1464.752, 11249.00
1465.800, 11100.00
1466.848, 11286.00
1467.896, 11124.00
1468.944, 11331.00
1469.991, 11254.00
1471.039, 11298.00
1472.086, 11211.00
1473.133, 11253.00
1474.180, 11261.00
1475.227, 11338.00
1476.274, 11349.00
1477.321, 11468.00
1478.367, 11494.00
1479.413, 11394.00
1480.460, 11460.00
1481.506, 11304.00
1482.552, 11274.00
1483.597, 11341.00
1484.643, 11194.00
1485.689, 11344.00
1486.734, 11326.00
1487.779, 11443.00
1488.824, 11361.00
1489.869, 11432.00
1490.914, 11330.00
1491.959, 11424.00
1493.003, 11311.00
1494.048, 11506.00
1495.092, 11398.00
1496.136, 11453.00
1497.180, 11553.00
1498.224, 11526.00
1499.268, 11381.00
1500.312, 11506.00
1501.355, 11471.00
1502.398, 11397.00
1503.442, 11457.00
1504.485, 11398.25
1505.528, 11412.48
1506.570, 11402.00
1507.613, 11435.00
1508.656, 11536.00
1509.698, 11564.00
1510.740, 11539.00
1511.782, 11679.00
1512.824, 11530.00
1513.866, 11463.00
1514.908, 11707.00
1515.949, 11480.00
1516.991, 11499.00
1518.032, 11692.00
1519.073, 11706.00
1520.114, 11649.00
1521.155, 11723.00
1522.196, 11737.00
1523.237, 11776.00
1524.277, 11795.00
1525.318, 11751.00
1526.358, 11779.00
1527.398, 11778.00
1528.438, 11696.00
1529.478, 11729.00
1530.517, 11700.68
1531.557, 11774.00
1532.596, 11707.00
1533.636, 11639.00
1534.675, 11676.00
1535.714, 11833.00
1536.753, 11807.00
1537.791, 11752.00
1538.830, 11887.00
1539.869, 11791.00
1540.907, 11955.00
1541.945, 12055.00
1542.983, 11765.00
1544.021, 12141.00
1545.059, 11899.00
1546.097, 11893.00
1547.134, 11865.00
1548.171, 11920.00
1549.209, 11999.00
1550.246, 12008.00
1551.283, 12009.00
1552.320, 12025.00
1553.356, 12015.85
1554.393, 12192.00
1555.429, 12025.00
1556.466, 12047.00
1557.502, 12106.00
1558.538, 11919.00
1559.574, 12053.00
1560.610, 11997.00
1561.645, 12037.00
1562.681, 12144.00
1563.716, 12182.00
1564.752, 12043.00
1565.787, 12096.00
1566.822, 12136.00
1567.857, 12126.63
1568.891, 12275.47
1569.926, 12373.26
1570.960, 12422.68
1571.995, 12279.01
1573.029, 12384.69
1574.063, 12390.43
1575.097, 12392.07
1576.130, 12532.80
1577.164, 12413.00
##END=



