##NAMES=Magnesiochromite
##RRUFFID=R050399
##IDEAL CHEMISTRY=MgCr^3+^_2_O_4_
##LOCALITY=Troodos Mountains, Cyprus
##OWNER=RRUFF
##SOURCE=Andy McCarthy
##DESCRIPTION=Black grains
##STATUS=The identification of this mineral has been confirmed by X-ray diffraction and chemical analysis
##URL=rruff.info/R050399
##MEASURED CHEMISTRY=(Mg_0.68_Fe^2+^_0.32_)_Σ=1_(Cr_1.29_Al_0.64_Fe^3+^_0.07_)_Σ=2_O__4
##PIN_ID=M01485
##ORIENTATION=Laser parallel to a* (1 0 0). Fiducial mark perpendicular to laser is parallel to c [0 0 1]
127.7920, 11513.00
129.0260, 11283.00
130.2590, 11414.00
131.4920, 11090.00
132.7250, 11218.00
133.9580, 11412.00
135.1910, 11534.00
136.4230, 11805.00
137.6560, 11814.76
138.8880, 11842.77
140.1200, 11873.00
141.3520, 11740.00
142.5830, 11766.00
143.8150, 11714.00
145.0460, 11748.91
146.2770, 11992.00
147.5080, 11959.00
148.7390, 11910.00
149.9700, 12198.00
151.2000, 12477.00
152.4310, 11938.00
153.6610, 12061.00
154.8910, 11928.00
156.1210, 11691.00
157.3500, 11906.00
158.5800, 11643.00
159.8090, 11609.00
161.0380, 11848.00
162.2670, 12319.00
163.4960, 12244.93
164.7240, 12146.42
165.9530, 12293.00
167.1810, 11746.00
168.4090, 11551.00
169.6370, 11765.00
170.8650, 11429.00
172.0920, 11364.00
173.3200, 11362.00
174.5470, 11258.00
175.7740, 11443.00
177.0010, 11405.32
178.2280, 11318.61
179.4540, 11494.00
180.6810, 11215.00
181.9070, 11235.00
183.1330, 11431.00
184.3590, 11209.00
185.5850, 11091.00
186.8100, 11123.00
188.0350, 11091.00
189.2610, 11138.00
190.4860, 11196.00
191.7110, 11155.00
192.9350, 11239.00
194.1600, 11093.00
195.3840, 11001.00
196.6080, 11184.00
197.8320, 11268.00
199.0560, 11093.00
200.2800, 11152.69
201.5030, 11197.00
202.7270, 10990.00
203.9500, 11029.00
205.1730, 10918.00
206.3950, 10902.00
207.6180, 10849.00
208.8410, 10772.00
210.0630, 10912.00
211.2850, 10705.00
212.5070, 10778.00
213.7290, 10912.00
214.9500, 10962.00
216.1720, 10879.00
217.3930, 10876.00
218.6140, 10796.00
219.8350, 10794.59
221.0560, 10754.52
222.2770, 10789.00
223.4970, 10712.00
224.7170, 10704.00
225.9370, 10729.00
227.1570, 10702.00
228.3770, 10596.00
229.5970, 10508.00
230.8160, 10630.00
232.0350, 10440.00
233.2540, 10418.00
234.4730, 10500.00
235.6920, 10468.00
236.9110, 10446.00
238.1290, 10570.00
239.3470, 10309.00
240.5650, 10533.00
241.7830, 10330.00
243.0010, 10353.00
244.2180, 10218.00
245.4360, 10254.00
246.6530, 10267.98
247.8700, 10587.00
249.0870, 10336.00
250.3040, 10349.00
251.5200, 10340.00
252.7370, 10138.00
253.9530, 10124.00
255.1690, 10072.00
256.3850, 10143.00
257.6000, 10046.00
258.8160, 10173.00
260.0310, 10242.00
261.2460, 10043.00
262.4610, 10150.00
263.6760, 10030.00
264.8910, 9972.056
266.1050, 10170.71
267.3200, 10274.38
268.5340, 10288.20
269.7480, 9943.007
270.9620, 10061.41
272.1750, 9994.034
273.3890, 9919.028
274.6020, 10102.69
275.8150, 9809.731
277.0280, 9810.000
278.2410, 9751.000
279.4540, 9831.000
280.6660, 9887.000
281.8790, 9889.000
283.0910, 9824.000
284.3030, 9664.000
285.5140, 9723.000
286.7260, 9693.000
287.9380, 9612.000
289.1490, 9786.000
290.3600, 9642.000
291.5710, 9488.000
292.7820, 9536.000
293.9920, 9698.000
295.2030, 9606.000
296.4130, 9572.000
297.6230, 9529.000
298.8330, 9480.000
300.0430, 9285.000
301.2520, 9403.000
302.4620, 9537.000
303.6710, 9247.000
304.8800, 9470.000
306.0890, 9411.000
307.2980, 9364.000
308.5070, 9424.000
309.7150, 9265.000
310.9230, 9205.000
312.1310, 9447.000
313.3390, 9415.000
314.5470, 9566.000
315.7550, 9306.000
316.9620, 9330.000
318.1690, 9270.000
319.3760, 9243.533
320.5830, 9489.000
321.7900, 9326.000
322.9960, 9378.000
324.2030, 9466.000
325.4090, 9307.000
326.6150, 9513.000
327.8210, 9742.000
329.0270, 9346.000
330.2320, 9351.000
331.4380, 9271.000
332.6430, 9459.000
333.8480, 9342.000
335.0530, 9474.000
336.2580, 9406.000
337.4620, 9393.000
338.6670, 9591.000
339.8710, 9458.000
341.0750, 9558.000
342.2790, 9511.000
343.4820, 9534.000
344.6860, 9526.000
345.8890, 9516.000
347.0920, 9499.000
348.2960, 9399.000
349.4980, 9484.000
350.7010, 9375.000
351.9040, 9674.000
353.1060, 9645.495
354.3080, 9840.000
355.5100, 9856.000
356.7120, 9488.000
357.9140, 9716.000
359.1150, 9574.000
360.3170, 9556.000
361.5180, 9946.000
362.7190, 9706.630
363.9200, 9673.000
365.1200, 9896.000
366.3210, 9943.000
367.5210, 9931.854
368.7210, 9941.000
369.9210, 9945.000
371.1210, 9819.000
372.3210, 9932.000
373.5200, 9934.000
374.7200, 10148.00
375.9190, 10218.00
377.1180, 10241.98
378.3170, 10144.00
379.5150, 10251.00
380.7140, 10130.00
381.9120, 10068.00
383.1110, 10233.00
384.3090, 10294.00
385.5060, 10260.00
386.7040, 10226.00
387.9020, 10248.00
389.0990, 10556.00
390.2960, 10361.00
391.4930, 10299.00
392.6900, 10721.00
393.8860, 10410.44
395.0830, 10383.00
396.2790, 10229.00
397.4750, 10471.00
398.6710, 10530.00
399.8670, 10728.00
401.0630, 10431.00
402.2580, 10687.00
403.4540, 10432.00
404.6490, 10629.00
405.8440, 10775.00
407.0390, 10699.00
408.2330, 10639.00
409.4280, 10691.00
410.6220, 10909.00
411.8160, 10622.00
413.0100, 10953.00
414.2040, 10790.00
415.3980, 10838.00
416.5910, 10798.00
417.7850, 10965.00
418.9780, 10877.00
420.1710, 11108.00
421.3640, 10827.00
422.5560, 10796.00
423.7490, 11006.00
424.9410, 10942.26
426.1330, 11030.59
427.3250, 11075.00
428.5170, 11150.00
429.7090, 11050.00
430.9000, 11130.00
432.0910, 11149.00
433.2820, 11281.00
434.4730, 11255.00
435.6640, 11331.78
436.8550, 11265.00
438.0450, 11436.00
439.2360, 11420.00
440.4260, 11480.00
441.6160, 11629.00
442.8060, 11530.00
443.9950, 11588.00
445.1850, 11479.00
446.3740, 11744.00
447.5630, 11723.00
448.7520, 11693.00
449.9410, 11897.00
451.1300, 11663.00
452.3180, 12085.00
453.5060, 12072.00
454.6950, 11992.00
455.8830, 12137.00
457.0700, 12007.00
458.2580, 12257.00
459.4450, 12112.00
460.6330, 12240.00
461.8200, 12539.00
463.0070, 12325.00
464.1940, 12482.00
465.3800, 12510.00
466.5670, 12535.00
467.7530, 12342.00
468.9390, 12679.00
470.1250, 12508.00
471.3110, 12642.00
472.4970, 12589.00
473.6820, 12595.05
474.8680, 12702.35
476.0530, 12686.00
477.2380, 12855.00
478.4230, 13012.00
479.6070, 13048.00
480.7920, 13025.00
481.9760, 13199.00
483.1600, 13262.00
484.3440, 13179.00
485.5280, 13323.00
486.7120, 13337.00
487.8950, 13307.00
489.0780, 13355.00
490.2620, 13297.00
491.4450, 13338.00
492.6270, 13178.00
493.8100, 13097.00
494.9920, 13171.00
496.1750, 13291.00
497.3570, 13221.00
498.5390, 13357.03
499.7210, 13418.55
500.9020, 13538.00
502.0840, 13548.00
503.2650, 13664.00
504.4460, 13618.00
505.6270, 13777.60
506.8080, 13834.78
507.9890, 14007.00
509.1690, 14098.00
510.3500, 14098.00
511.5300, 14390.00
512.7100, 14401.83
513.8900, 14355.00
515.0690, 14614.00
516.2490, 14866.00
517.4280, 15050.00
518.6070, 15253.00
519.7860, 15232.00
520.9650, 15463.00
522.1440, 15734.00
523.3220, 16062.00
524.5010, 16425.00
525.6790, 16322.00
526.8570, 16706.00
528.0350, 16977.00
529.2130, 17052.00
530.3900, 17661.00
531.5670, 18039.00
532.7450, 18177.11
533.9220, 18577.00
535.0980, 18695.00
536.2750, 19145.00
537.4520, 19804.00
538.6280, 20475.00
539.8040, 20892.00
540.9800, 21588.00
542.1560, 22199.00
543.3320, 22603.00
544.5070, 23305.00
545.6830, 23975.00
546.8580, 24317.00
548.0330, 24915.00
549.2080, 25580.00
550.3830, 26215.00
551.5570, 26523.00
552.7310, 27167.00
553.9060, 27410.00
555.0800, 27989.00
556.2540, 28222.94
557.4270, 28205.43
558.6010, 28691.15
559.7740, 29061.15
560.9470, 29320.80
562.1210, 29201.09
563.2930, 29524.15
564.4660, 29641.07
565.6390, 29729.88
566.8110, 30056.74
567.9830, 29886.51
569.1550, 30168.34
570.3270, 30241.07
571.4990, 30379.67
572.6710, 30310.86
573.8420, 30279.33
575.0130, 30414.36
576.1840, 30425.42
577.3550, 30253.34
578.5260, 30274.76
579.6970, 29893.50
580.8670, 29827.36
582.0370, 29885.53
583.2070, 29620.87
584.3770, 29309.00
585.5470, 28702.00
586.7170, 28612.00
587.8860, 28310.00
589.0550, 27901.00
590.2240, 27716.00
591.3930, 27009.00
592.5620, 26692.00
593.7310, 26420.00
594.8990, 26028.00
596.0670, 25867.00
597.2350, 25648.00
598.4030, 25441.69
599.5710, 25352.00
600.7390, 25078.00
601.9060, 24926.00
603.0740, 24636.00
604.2410, 24414.00
605.4080, 24096.00
606.5740, 23980.00
607.7410, 23612.00
608.9080, 23646.00
610.0740, 23103.00
611.2400, 22771.08
612.4060, 22668.84
613.5720, 22471.64
614.7370, 22184.87
615.9030, 21538.79
617.0680, 21356.60
618.2330, 20988.61
619.3980, 20613.00
620.5630, 19702.00
621.7280, 19300.00
622.8920, 18789.00
624.0570, 18292.00
625.2210, 18169.00
626.3850, 17911.00
627.5490, 17586.28
628.7120, 17265.00
629.8760, 17085.00
631.0390, 16857.00
632.2020, 16717.00
633.3650, 16699.00
634.5280, 16899.00
635.6910, 16968.00
636.8530, 17217.00
638.0160, 17361.00
639.1780, 17771.75
640.3400, 18308.00
641.5020, 18768.00
642.6640, 19445.00
643.8250, 20158.00
644.9870, 20676.00
646.1480, 21176.00
647.3090, 21885.00
648.4700, 22289.00
649.6300, 22971.00
650.7910, 23368.00
651.9510, 23549.00
653.1120, 23901.00
654.2720, 24205.00
655.4320, 24114.00
656.5910, 24306.00
657.7510, 24633.00
658.9100, 24557.00
660.0690, 24740.00
661.2290, 24523.00
662.3880, 24511.28
663.5460, 24354.00
664.7050, 24434.00
665.8630, 24434.00
667.0220, 24658.00
668.1800, 24705.00
669.3380, 24865.00
670.4950, 25233.00
671.6530, 25058.00
672.8100, 25433.00
673.9680, 26047.00
675.1250, 26218.00
676.2820, 26398.00
677.4390, 27055.00
678.5950, 27402.00
679.7520, 28098.00
680.9080, 28619.00
682.0640, 29443.00
683.2200, 29857.00
684.3760, 30772.00
685.5320, 31247.00
686.6870, 32274.00
687.8420, 32708.00
688.9980, 33744.00
690.1530, 34308.00
691.3070, 35445.00
692.4620, 36076.00
693.6170, 36873.00
694.7710, 37352.00
695.9250, 38291.00
697.0790, 38985.18
698.2330, 39286.93
699.3870, 39506.38
700.5400, 39647.81
701.6940, 39478.15
702.8470, 39527.00
704.0000, 39376.04
705.1530, 39031.95
706.3050, 38797.00
707.4580, 38119.00
708.6100, 36714.00
709.7630, 35973.00
710.9150, 35155.00
712.0660, 34219.00
713.2180, 33182.00
714.3700, 32322.00
715.5210, 31158.00
716.6720, 29983.00
717.8240, 29260.00
718.9740, 28070.00
720.1250, 27273.00
721.2760, 26121.00
722.4260, 25325.00
723.5770, 24277.00
724.7270, 23266.00
725.8770, 22803.00
727.0260, 22862.00
728.1760, 21746.31
729.3250, 21141.96
730.4750, 20265.00
731.6240, 19363.00
732.7730, 18966.00
733.9220, 18378.00
735.0700, 17703.00
736.2190, 17521.00
737.3670, 16995.00
738.5150, 16781.00
739.6630, 16146.00
740.8110, 15954.00
741.9590, 15588.00
743.1060, 15316.00
744.2540, 14961.00
745.4010, 14686.17
746.5480, 14297.00
747.6950, 14154.00
748.8410, 13746.00
749.9880, 13505.00
751.1340, 13227.00
752.2800, 13070.00
753.4260, 12854.00
754.5720, 12789.00
755.7180, 12523.00
756.8640, 12386.00
758.0090, 12184.00
759.1540, 12062.00
760.2990, 11924.00
761.4440, 11671.11
762.5890, 11830.00
763.7340, 11293.00
764.8780, 11229.00
766.0220, 11311.00
767.1660, 11159.00
768.3100, 11097.49
769.4540, 10784.00
770.5980, 10860.00
771.7410, 10679.00
772.8840, 10550.00
774.0280, 10499.00
775.1700, 10434.00
776.3130, 10302.00
777.4560, 10261.00
778.5980, 10328.00
779.7410, 9966.000
780.8830, 10027.00
782.0250, 9819.000
783.1670, 9899.000
784.3080, 9922.000
785.4500, 9643.000
786.5910, 9550.000
787.7320, 9619.000
788.8730, 9638.000
790.0140, 9502.000
791.1550, 9448.000
792.2950, 9312.000
793.4360, 9388.000
794.5760, 9128.000
795.7160, 9346.000
796.8560, 9212.000
797.9960, 9125.000
799.1350, 9162.000
800.2750, 9035.000
801.4140, 8999.000
802.5530, 8953.577
803.6920, 8966.000
804.8310, 8866.000
805.9690, 8825.000
807.1080, 8835.147
808.2460, 8845.354
809.3840, 8907.000
810.5220, 8919.000
811.6600, 8835.000
812.7970, 8781.000
813.9350, 8695.000
815.0720, 8660.458
816.2090, 8643.000
817.3460, 8593.000
818.4830, 8581.995
819.6200, 8551.000
820.7560, 8541.000
821.8930, 8532.000
823.0290, 8451.000
824.1650, 8519.000
825.3010, 8582.000
826.4360, 8337.000
827.5720, 8409.000
828.7070, 8480.000
829.8420, 8226.000
830.9770, 8425.000
832.1120, 8341.373
833.2470, 8308.522
834.3820, 8334.000
835.5160, 8256.000
836.6500, 8242.000
837.7840, 8171.000
838.9180, 8130.973
840.0520, 8115.562
841.1860, 8082.000
842.3190, 8144.000
843.4520, 8208.000
844.5850, 8358.000
845.7180, 8120.000
846.8510, 7910.000
847.9840, 8055.000
849.1160, 7973.000
850.2490, 8149.000
851.3810, 8024.000
852.5130, 8250.000
853.6450, 8199.000
854.7760, 7997.000
855.9080, 8218.000
857.0390, 8052.000
858.1700, 7803.000
859.3010, 7861.000
860.4320, 7761.000
861.5630, 8028.000
862.6930, 7987.000
863.8240, 7751.000
864.9540, 7995.000
866.0840, 7737.000
867.2140, 7839.000
868.3440, 7825.729
869.4730, 8073.000
870.6030, 7736.000
871.7320, 7835.000
872.8610, 7678.000
873.9900, 7687.000
875.1190, 7780.000
876.2470, 7616.000
877.3760, 7645.000
878.5040, 7815.000
879.6320, 7733.000
880.7600, 7766.000
881.8880, 7754.000
883.0150, 7747.000
884.1430, 7691.000
885.2700, 7730.000
886.3970, 7729.000
887.5240, 7859.000
888.6510, 7801.044
889.7780, 7572.000
890.9040, 7706.000
892.0310, 7741.000
893.1570, 7624.000
894.2830, 7769.000
895.4090, 7498.000
896.5350, 7627.000
897.6600, 7590.000
898.7860, 7643.000
899.9110, 7543.000
901.0360, 7524.000
902.1610, 7614.000
903.2860, 7492.000
904.4100, 7514.000
905.5350, 7659.000
906.6590, 7686.000
907.7830, 7456.000
908.9070, 7523.000
910.0310, 7494.000
911.1540, 7482.000
912.2780, 7550.000
913.4010, 7498.000
914.5240, 7511.498
915.6470, 7466.474
916.7700, 7515.000
917.8930, 7386.000
919.0150, 7433.000
920.1380, 7486.000
921.2600, 7473.000
922.3820, 7367.000
923.5040, 7461.000
924.6260, 7407.000
925.7470, 7461.000
926.8690, 7500.000
927.9900, 7524.000
929.1110, 7468.000
930.2320, 7394.000
931.3530, 7378.000
932.4730, 7347.000
933.5940, 7366.000
934.7140, 7316.000
935.8340, 7360.000
936.9540, 7469.000
938.0740, 7267.000
939.1930, 7233.000
940.3130, 7418.000
941.4320, 7320.000
942.5510, 7369.000
943.6700, 7235.000
944.7890, 7395.000
945.9080, 7351.000
947.0260, 7353.000
948.1450, 7321.000
949.2630, 7173.000
950.3810, 7432.000
951.4990, 7303.000
952.6170, 7530.000
953.7340, 7425.000
954.8520, 7288.000
955.9690, 7321.000
957.0860, 7335.000
958.2030, 7231.000
959.3200, 7399.000
960.4360, 7258.000
961.5530, 7126.000
962.6690, 7286.000
963.7850, 7267.000
964.9010, 7357.000
966.0170, 7208.000
967.1330, 7264.000
968.2480, 7222.000
969.3630, 7387.000
970.4790, 7270.000
971.5940, 7235.000
972.7080, 7141.000
973.8230, 7238.000
974.9380, 7284.000
976.0520, 7212.000
977.1660, 7255.000
978.2800, 7137.000
979.3940, 7461.000
980.5080, 7295.000
981.6220, 7326.920
982.7350, 7417.000
983.8480, 7232.000
984.9610, 7306.000
986.0740, 7232.000
987.1870, 7344.000
988.3000, 7281.000
989.4120, 7212.000
990.5250, 7361.000
991.6370, 7343.000
992.7490, 7376.000
993.8610, 7571.000
994.9720, 7568.134
996.0840, 7611.000
997.1950, 7682.781
998.3060, 7480.000
999.4170, 7462.000
1000.528, 7269.000
1001.639, 7423.000
1002.750, 7489.000
1003.860, 7341.000
1004.970, 7477.000
1006.080, 7496.000
1007.190, 7245.000
1008.300, 7437.000
1009.410, 7287.000
1010.519, 7288.000
1011.628, 7369.000
1012.738, 7493.000
1013.846, 7431.000
1014.955, 7477.801
1016.064, 7406.000
1017.172, 7426.000
1018.281, 7409.000
1019.389, 7347.000
1020.497, 7302.000
1021.605, 7344.000
1022.713, 7285.000
1023.820, 7371.000
1024.928, 7535.000
1026.035, 7375.000
1027.142, 7526.000
1028.249, 7378.000
1029.356, 7134.362
1030.462, 7366.739
1031.569, 7504.162
1032.675, 7551.709
1033.781, 7240.241
1034.887, 7392.364
1035.993, 7358.702
1037.098, 7317.406
1038.204, 7534.777
1039.309, 7275.512
1040.415, 7488.782
1041.520, 7540.000
1042.624, 7389.000
1043.729, 7436.000
1044.834, 7553.000
1045.938, 7521.000
1047.042, 7582.000
1048.146, 7598.000
1049.250, 7528.000
1050.354, 7600.000
1051.458, 7524.000
1052.561, 7608.000
1053.664, 7796.000
1054.767, 7932.000
1055.870, 7591.000
1056.973, 7876.000
1058.076, 7632.000
1059.178, 7780.000
1060.281, 7600.000
1061.383, 7781.000
1062.485, 7569.000
1063.587, 7704.000
1064.688, 7734.000
1065.790, 7755.000
1066.891, 7733.000
1067.993, 7762.000
1069.094, 7579.674
1070.195, 7813.095
1071.295, 7951.536
1072.396, 8000.126
1073.496, 7689.688
1074.597, 7842.859
1075.697, 7810.226
1076.797, 7769.975
1077.897, 7988.378
1078.996, 7730.143
1080.096, 7944.444
1081.195, 7970.108
1082.294, 8082.100
1083.393, 8007.158
1084.492, 7989.953
1085.591, 8159.743
1086.689, 8225.979
1087.788, 7968.000
1088.886, 7996.000
1089.984, 7961.167
1091.082, 7999.490
1092.180, 7981.000
1093.277, 8097.000
1094.375, 8139.000
1095.472, 8215.000
1096.569, 8352.000
1097.666, 8113.000
1098.763, 8279.000
1099.860, 8216.000
1100.956, 8330.000
1102.053, 8314.000
1103.149, 8397.000
1104.245, 8309.000
1105.341, 8354.000
1106.436, 8323.000
1107.532, 8174.159
1108.627, 8446.645
1109.723, 8621.362
1110.818, 8703.312
1111.913, 8423.394
1113.007, 8604.178
1114.102, 8596.368
1115.197, 8578.084
1116.291, 8815.570
1117.385, 8573.587
1118.479, 8801.276
1119.573, 8837.498
1120.666, 8957.180
1121.760, 8887.103
1122.853, 8758.000
1123.947, 8786.000
1125.040, 8843.000
1126.132, 8982.000
1127.225, 8822.000
1128.318, 8930.000
1129.410, 8837.000
1130.502, 8910.000
1131.595, 8806.000
1132.687, 8938.000
1133.778, 8849.000
1134.870, 9044.000
1135.961, 8941.000
1137.053, 8981.000
1138.144, 8879.000
1139.235, 8903.000
1140.326, 8872.000
1141.416, 8850.330
1142.507, 8944.000
1143.597, 8879.000
1144.688, 8831.000
1145.778, 8928.000
1146.868, 8887.000
1147.957, 9021.000
1149.047, 8902.000
1150.136, 8941.000
1151.226, 8772.000
1152.315, 8946.000
1153.404, 8910.000
1154.493, 8831.000
1155.581, 8789.000
1156.670, 8970.000
1157.758, 8837.000
1158.846, 8863.000
1159.934, 8703.000
1161.022, 8827.000
1162.110, 8740.000
1163.198, 8936.000
1164.285, 8864.000
1165.372, 8937.000
1166.459, 8903.480
1167.546, 8853.839
1168.633, 8775.000
1169.720, 8745.000
1170.806, 8684.000
1171.892, 8637.000
1172.979, 8828.000
1174.065, 8927.000
1175.150, 8817.000
1176.236, 8831.000
1177.322, 8786.103
1178.407, 8907.000
1179.492, 8647.000
1180.577, 8724.000
1181.662, 8627.000
1182.747, 8837.000
1183.832, 8592.000
1184.916, 8497.000
1186.000, 8747.000
1187.084, 8778.000
1188.168, 8676.000
1189.252, 8681.000
1190.336, 8508.000
1191.419, 8571.000
1192.503, 8528.000
1193.586, 8661.000
1194.669, 8618.000
1195.752, 8592.591
1196.835, 8793.000
1197.917, 8436.000
1199.000, 8565.000
1200.082, 8389.000
1201.164, 8460.576
1202.246, 8520.000
1203.328, 8631.000
1204.409, 8504.000
1205.491, 8448.000
1206.572, 8362.000
1207.653, 8452.000
1208.734, 8427.000
1209.815, 8373.000
1210.896, 8432.513
1211.976, 8434.000
1213.057, 8447.000
1214.137, 8531.000
1215.217, 8484.000
1216.297, 8415.000
1217.377, 8511.000
1218.456, 8387.000
1219.536, 8317.000
1220.615, 8256.000
1221.694, 8242.000
1222.773, 8193.000
1223.852, 8323.000
1224.931, 8457.000
1226.009, 8211.000
1227.088, 8364.000
1228.166, 8274.000
1229.244, 8390.000
1230.322, 8269.000
1231.400, 8264.000
1232.477, 8215.000
1233.555, 8456.000
1234.632, 8234.000
1235.709, 8323.000
1236.786, 8407.000
1237.863, 8301.000
1238.939, 8195.000
1240.016, 8247.000
1241.092, 8190.000
1242.168, 8047.000
1243.245, 8289.000
1244.320, 8296.000
1245.396, 8226.000
1246.472, 8249.000
1247.547, 8192.000
1248.622, 8210.901
1249.697, 8193.000
1250.772, 8253.000
1251.847, 8279.000
1252.922, 8306.000
1253.996, 8335.655
1255.071, 8174.000
1256.145, 8395.000
1257.219, 8240.000
1258.293, 8300.000
1259.366, 8281.000
1260.440, 8257.000
1261.513, 8338.000
1262.587, 8234.000
1263.660, 8287.000
1264.733, 8226.325
1265.805, 8239.000
1266.878, 8130.000
1267.951, 8128.000
1269.023, 8130.000
1270.095, 8126.000
1271.167, 8097.000
1272.239, 8147.000
1273.311, 8203.000
1274.382, 8177.000
1275.454, 8225.000
1276.525, 8229.000
1277.596, 8317.000
1278.667, 8062.000
1279.738, 7988.000
1280.808, 8118.000
1281.879, 8165.000
1282.949, 8101.000
1284.019, 8139.000
1285.089, 8157.953
1286.159, 8095.634
1287.229, 8218.000
1288.298, 8091.000
1289.368, 8107.000
1290.437, 8306.000
1291.506, 8171.000
1292.575, 8275.000
1293.644, 8189.000
1294.712, 8272.000
1295.781, 8306.000
1296.849, 8118.000
1297.917, 8301.000
1298.985, 8224.889
1300.053, 8095.000
1301.121, 8191.000
1302.188, 8231.000
1303.255, 8139.000
1304.323, 8255.000
1305.390, 8174.000
1306.457, 8130.000
1307.523, 8156.000
1308.590, 8095.000
1309.656, 8108.000
1310.723, 8264.000
1311.789, 7930.235
1312.855, 8125.337
1313.921, 8225.473
1314.986, 8235.768
1316.052, 7887.026
1317.117, 8001.899
1318.182, 7930.984
1319.248, 8021.000
1320.312, 7935.000
1321.377, 7991.000
1322.442, 7926.000
1323.506, 7959.977
1324.571, 7966.768
1325.635, 7974.000
1326.699, 7990.000
1327.762, 7881.000
1328.826, 7880.000
1329.890, 7834.000
1330.953, 7894.000
1332.016, 7890.000
1333.079, 7896.291
1334.142, 7817.000
1335.205, 7875.000
1336.268, 7874.000
1337.330, 7769.000
1338.392, 7704.000
1339.454, 7858.000
1340.516, 7690.000
1341.578, 7755.000
1342.640, 7578.000
1343.701, 7731.000
1344.763, 7803.000
1345.824, 7678.000
1346.885, 7733.000
1347.946, 7758.000
1349.007, 7648.284
1350.067, 8113.000
1351.128, 7589.000
1352.188, 7790.000
1353.248, 8007.000
1354.308, 7675.000
1355.368, 7733.000
1356.428, 7962.000
1357.487, 7782.027
1358.547, 7825.000
1359.606, 7753.000
1360.665, 7602.000
1361.724, 7586.000
1362.783, 7656.000
1363.841, 7775.000
1364.900, 7687.000
1365.958, 7790.000
1367.016, 7748.000
1368.074, 7739.000
1369.132, 7688.000
1370.190, 7751.000
1371.247, 7711.000
1372.304, 7727.000
1373.362, 7669.000
1374.419, 7537.000
1375.476, 7721.000
1376.532, 7807.000
1377.589, 7647.000
1378.645, 7683.000
1379.702, 7568.000
1380.758, 7653.000
1381.814, 7513.000
1382.870, 7647.000
1383.925, 7546.000
1384.981, 7520.000
1386.036, 7703.000
1387.092, 7535.000
1388.147, 7666.000
1389.202, 7782.000
1390.256, 7554.000
1391.311, 7628.000
1392.365, 7588.000
1393.420, 7644.000
1394.474, 7482.000
1395.528, 7610.000
1396.582, 7595.000
1397.636, 7715.000
1398.689, 7685.000
1399.742, 7498.000
1400.796, 7378.000
1401.849, 7447.000
1402.902, 7341.082
1403.955, 7433.000
1405.007, 7358.000
1406.060, 7459.000
1407.112, 7564.000
1408.164, 7500.000
1409.216, 7418.000
1410.268, 7355.000
1411.320, 7300.000
1412.371, 7394.000
1413.423, 7521.000
1414.474, 7443.896
1415.525, 7344.000
1416.576, 7412.000
1417.627, 7355.000
1418.678, 7427.000
1419.728, 7427.000
1420.778, 7445.000
1421.829, 7369.000
1422.879, 7217.000
1423.928, 7343.000
1424.978, 7345.000
1426.028, 7154.000
1427.077, 7266.000
1428.126, 7282.000
1429.176, 7219.000
1430.225, 7307.000
1431.273, 7148.000
1432.322, 7262.000
1433.371, 7075.000
1434.419, 7255.000
1435.467, 7084.000
1436.515, 7247.000
1437.563, 7048.000
1438.611, 7075.000
1439.658, 7096.000
1440.706, 7016.000
1441.753, 7111.000
1442.800, 7106.000
1443.847, 7050.000
1444.894, 6997.000
1445.941, 7069.000
1446.987, 6963.000
1448.034, 7095.000
1449.080, 7097.000
1450.126, 7019.000
1451.172, 6975.000
1452.218, 6907.000
1453.263, 6933.000
1454.309, 7024.000
1455.354, 6899.000
1456.399, 6774.000
1457.444, 6668.000
1458.489, 6873.000
1459.534, 6864.000
1460.579, 6878.000
1461.623, 6829.000
1462.667, 6706.000
1463.711, 6673.000
1464.755, 6783.000
1465.799, 7067.000
1466.843, 6667.000
1467.886, 6871.000
1468.930, 6581.000
1469.973, 6666.000
1471.016, 6686.000
1472.059, 6716.000
1473.101, 6591.000
1474.144, 6503.000
1475.186, 6597.000
1476.229, 6693.000
1477.271, 6494.000
1478.313, 6586.000
1479.355, 6590.000
1480.396, 6423.000
1481.438, 6757.000
1482.479, 6520.000
1483.520, 6523.000
1484.561, 6515.000
1485.602, 6583.000
1486.643, 6518.000
1487.684, 6449.000
1488.724, 6338.000
1489.765, 6440.000
1490.805, 6416.000
1491.845, 6481.000
1492.885, 6277.000
1493.924, 6505.000
1494.964, 6383.302
1496.003, 6333.000
1497.042, 6375.000
1498.082, 6227.000
1499.120, 6372.000
1500.159, 6358.960
1501.198, 6315.000
1502.236, 6415.000
1503.275, 6315.000
1504.313, 6240.000
1505.351, 6284.000
1506.389, 6282.000
1507.427, 6061.913
1508.464, 6268.503
1509.502, 6380.117
1510.539, 6401.877
1511.576, 6064.623
1512.613, 6190.961
1513.650, 6131.513
1514.687, 6064.447
1515.723, 6256.044
1516.759, 5971.018
1517.796, 6245.000
1518.832, 6155.259
1519.868, 6235.000
1520.903, 6105.000
1521.939, 6132.000
1522.975, 6194.000
1524.010, 6060.000
1525.045, 6054.000
1526.080, 6136.000
1527.115, 6095.000
1528.150, 6070.000
1529.184, 6079.000
1530.219, 6150.000
1531.253, 6160.000
1532.287, 6051.000
1533.321, 6203.000
1534.355, 6072.000
1535.388, 6008.000
1536.422, 6073.000
1537.455, 5995.000
1538.488, 6126.000
1539.522, 6123.000
1540.554, 6053.000
1541.587, 6076.000
1542.620, 6011.000
1543.652, 5955.000
1544.685, 6027.000
1545.717, 6075.000
1546.749, 6065.000
1547.781, 6025.000
1548.812, 6234.000
1549.844, 6254.000
1550.875, 6274.000
1551.906, 6624.000
1552.938, 6654.000
1553.968, 6863.000
1554.999, 6667.000
1556.030, 6240.000
1557.060, 6119.000
1558.091, 6001.000
1559.121, 6046.000
1560.151, 6033.000
1561.181, 6071.000
1562.211, 6020.000
1563.240, 5962.000
1564.270, 5952.808
1565.299, 5949.242
1566.328, 5887.000
1567.357, 5981.000
1568.386, 5973.000
1569.415, 5973.000
1570.443, 5976.000
1571.472, 5881.000
1572.500, 5973.000
1573.528, 6016.000
1574.556, 5986.000
1575.584, 6469.000
1576.611, 5944.000
1577.639, 5917.000
##END=



