##NAMES=Magnetite
##RRUFFID=R060656
##IDEAL CHEMISTRY=Fe^2+^Fe^3+^_2_O_4_
##LOCALITY=Jacupiranga Pegmatite, Sao Paulo State, Brazil
##OWNER=RRUFF
##SOURCE=Michael Scott
##DESCRIPTION=Black rounded octahedra associated with phlogopite and diopside
##STATUS=The identification of this mineral has been confirmed by X-ray diffraction and chemical analysis
##URL=rruff.info/R060656
##MEASURED CHEMISTRY=(Fe^2+^_0.98_Mg_0.01_Mn_0.01_)(Fe^3+^_1.96_Ti_0.02_Mg_0.02_)O_4_
##PIN_ID=M00920
##ORIENTATION=Laser parallel to a* (1 0 0). Fiducial mark perpendicular to laser is parallel to b [0 1 0]
165.9310, 6571.000
167.1590, 6606.000
168.3880, 6597.000
169.6160, 6604.229
170.8440, 6595.218
172.0720, 6601.855
173.3000, 6521.000
174.5280, 6650.000
175.7550, 6542.000
176.9820, 6634.000
178.2100, 6639.000
179.4370, 6603.000
180.6630, 6594.000
181.8900, 6616.000
183.1170, 6610.000
184.3430, 6617.000
185.5690, 6572.000
186.7950, 6778.000
188.0210, 6690.000
189.2470, 6908.000
190.4720, 6773.000
191.6970, 6825.000
192.9230, 6932.000
194.1480, 6876.915
195.3730, 7012.000
196.5970, 6919.000
197.8220, 6945.000
199.0460, 6997.000
200.2700, 6979.000
201.4940, 6943.000
202.7180, 6985.000
203.9420, 6735.000
205.1660, 6511.000
206.3890, 6368.000
207.6120, 6310.000
208.8350, 6267.000
210.0580, 6341.000
211.2810, 6356.000
212.5040, 6360.000
213.7260, 6361.000
214.9480, 6355.178
216.1700, 6362.695
217.3920, 6337.697
218.6140, 6367.000
219.8360, 6375.000
221.0570, 6366.000
222.2790, 6373.965
223.5000, 6364.922
224.7210, 6363.000
225.9410, 6346.648
227.1620, 6340.000
228.3820, 6328.000
229.6030, 6398.000
230.8230, 6352.000
232.0430, 6312.000
233.2630, 6456.000
234.4820, 6375.000
235.7020, 6365.000
236.9210, 6380.000
238.1400, 6426.000
239.3590, 6380.000
240.5780, 6365.000
241.7970, 6380.000
243.0150, 6357.000
244.2340, 6319.000
245.4520, 6425.000
246.6700, 6419.000
247.8880, 6387.000
249.1060, 6353.000
250.3230, 6415.000
251.5400, 6471.000
252.7580, 6390.000
253.9750, 6527.000
255.1920, 6445.000
256.4080, 6464.000
257.6250, 6390.000
258.8410, 6557.000
260.0580, 6492.000
261.2740, 6517.000
262.4900, 6548.000
263.7050, 6567.847
264.9210, 6700.000
266.1360, 6648.000
267.3520, 6729.000
268.5670, 6723.000
269.7820, 6634.000
270.9960, 6670.000
272.2110, 6635.000
273.4250, 6643.330
274.6400, 6659.306
275.8540, 6717.000
277.0680, 6702.000
278.2810, 6807.000
279.4950, 6864.000
280.7090, 6884.000
281.9220, 7004.000
283.1350, 7000.321
284.3480, 7003.000
285.5610, 7006.000
286.7730, 7074.573
287.9860, 7089.354
289.1980, 7196.000
290.4100, 7219.000
291.6220, 7196.000
292.8340, 7359.000
294.0460, 7272.000
295.2570, 7406.000
296.4690, 7407.000
297.6800, 7415.000
298.8910, 7382.000
300.1020, 7317.000
301.3120, 7508.000
302.5230, 7532.000
303.7330, 7454.000
304.9440, 7503.000
306.1540, 7495.000
307.3630, 7504.000
308.5730, 7514.000
309.7830, 7496.000
310.9920, 7534.881
312.2010, 7561.866
313.4100, 7573.768
314.6190, 7571.396
315.8280, 7512.003
317.0370, 7505.322
318.2450, 7461.371
319.4530, 7466.000
320.6610, 7347.000
321.8690, 7404.000
323.0770, 7251.000
324.2850, 7417.000
325.4920, 7370.000
326.6990, 7307.000
327.9060, 7216.000
329.1130, 7208.970
330.3200, 7219.000
331.5270, 7185.000
332.7330, 7126.000
333.9390, 7126.000
335.1450, 7047.000
336.3510, 7052.000
337.5570, 7000.000
338.7630, 6953.455
339.9680, 6930.000
341.1740, 6888.000
342.3790, 6868.000
343.5840, 6895.000
344.7890, 6853.000
345.9930, 6827.000
347.1980, 6850.000
348.4020, 6816.000
349.6060, 6769.000
350.8100, 6858.000
352.0140, 6830.000
353.2180, 6782.000
354.4210, 6700.000
355.6250, 6782.000
356.8280, 6645.000
358.0310, 6625.000
359.2340, 6646.000
360.4360, 6721.000
361.6390, 6417.731
362.8410, 6613.423
364.0430, 6729.024
365.2450, 6768.589
366.4470, 6518.375
367.6490, 6631.643
368.8510, 6592.697
370.0520, 6543.035
371.2530, 6694.114
372.4540, 6462.023
373.6550, 6600.514
374.8560, 6584.547
376.0560, 6632.497
377.2570, 6528.000
378.4570, 6649.000
379.6570, 6692.000
380.8570, 6643.560
382.0570, 6586.000
383.2560, 6587.000
384.4560, 6472.000
385.6550, 6568.000
386.8540, 6576.000
388.0530, 6602.000
389.2520, 6409.000
390.4510, 6494.000
391.6490, 6511.000
392.8470, 6555.000
394.0450, 6630.000
395.2430, 6552.000
396.4410, 6588.000
397.6390, 6590.000
398.8360, 6506.000
400.0340, 6692.000
401.2310, 6588.000
402.4280, 6460.696
403.6250, 6638.711
404.8210, 6741.304
406.0180, 6772.539
407.2140, 6518.661
408.4100, 6632.940
409.6060, 6599.679
410.8020, 6560.367
411.9980, 6726.462
413.1930, 6514.048
414.3890, 6676.886
415.5840, 6689.927
416.7790, 6771.524
417.9740, 6704.669
419.1680, 6683.662
420.3630, 6811.159
421.5570, 6856.425
422.7510, 6772.477
423.9450, 6709.000
425.1390, 6824.000
426.3330, 6605.000
427.5270, 6695.000
428.7200, 6677.000
429.9130, 6758.000
431.1060, 6756.000
432.2990, 6756.000
433.4920, 6769.000
434.6840, 6664.000
435.8770, 6766.000
437.0690, 6798.000
438.2610, 6688.000
439.4530, 6848.000
440.6450, 6782.000
441.8360, 6781.000
443.0280, 6820.000
444.2190, 6757.000
445.4100, 6759.000
446.6010, 6878.000
447.7920, 6844.000
448.9820, 6815.000
450.1730, 6909.000
451.3630, 6772.000
452.5530, 6807.000
453.7430, 6812.000
454.9330, 6804.000
456.1230, 6833.000
457.3120, 6838.000
458.5010, 6896.000
459.6910, 6776.000
460.8800, 6753.000
462.0680, 6811.000
463.2570, 6732.000
464.4460, 6786.000
465.6340, 6915.000
466.8220, 6885.000
468.0100, 6935.000
469.1980, 6882.000
470.3860, 6880.000
471.5730, 6908.000
472.7600, 6813.000
473.9480, 6975.000
475.1350, 6854.000
476.3210, 6877.000
477.5080, 6946.000
478.6950, 6997.000
479.8810, 7042.000
481.0670, 7116.272
482.2530, 6980.000
483.4390, 7185.000
484.6250, 7230.000
485.8100, 7114.000
486.9960, 7172.087
488.1810, 7107.000
489.3660, 7130.000
490.5510, 7047.000
491.7360, 7161.000
492.9200, 7200.000
494.1050, 7203.000
495.2890, 7091.000
496.4730, 7223.000
497.6570, 7095.853
498.8400, 7284.730
500.0240, 7398.206
501.2070, 7440.304
502.3910, 7197.309
503.5740, 7322.456
504.7570, 7300.062
505.9400, 7271.620
507.1220, 7448.569
508.3050, 7247.028
509.4870, 7420.719
510.6690, 7444.620
511.8510, 7537.076
513.0330, 7481.080
514.2140, 7651.000
515.3960, 7557.000
516.5770, 7500.000
517.7580, 7524.000
518.9390, 7655.000
520.1200, 7629.000
521.3010, 7668.000
522.4810, 7701.000
523.6610, 7702.000
524.8420, 7713.000
526.0220, 7770.000
527.2010, 7792.000
528.3810, 7835.000
529.5610, 7841.219
530.7400, 7873.000
531.9190, 7862.000
533.0980, 7987.000
534.2770, 8051.000
535.4560, 7882.000
536.6340, 8068.000
537.8120, 7883.000
538.9910, 7980.000
540.1690, 8072.000
541.3460, 8068.000
542.5240, 8044.000
543.7020, 8136.000
544.8790, 8175.000
546.0560, 8135.000
547.2330, 8056.000
548.4100, 8086.000
549.5870, 8060.000
550.7630, 8201.000
551.9400, 8148.000
553.1160, 8189.000
554.2920, 8193.000
555.4680, 8223.000
556.6440, 8224.000
557.8190, 8227.272
558.9950, 8251.907
560.1700, 8261.467
561.3450, 8256.753
562.5200, 8195.018
563.6950, 8206.914
564.8690, 8174.000
566.0440, 8095.000
567.2180, 8156.000
568.3920, 8183.000
569.5660, 8135.000
570.7400, 8163.000
571.9130, 8131.136
573.0870, 8094.000
574.2600, 8058.000
575.4330, 7994.000
576.6060, 7912.000
577.7790, 7833.242
578.9520, 7791.000
580.1240, 7674.000
581.2960, 7601.475
582.4690, 7517.000
583.6410, 7407.000
584.8120, 7319.000
585.9840, 7199.000
587.1560, 7281.000
588.3270, 7236.000
589.4980, 7144.000
590.6690, 7085.000
591.8400, 7092.347
593.0110, 7169.000
594.1810, 7128.000
595.3510, 7208.000
596.5220, 7237.000
597.6920, 7237.000
598.8610, 7414.000
600.0310, 7387.000
601.2010, 7364.000
602.3700, 7399.000
603.5390, 7339.000
604.7080, 7470.000
605.8770, 7360.000
607.0460, 7488.000
608.2140, 7502.111
609.3830, 7513.000
610.5510, 7598.000
611.7190, 7607.000
612.8870, 7697.000
614.0550, 7733.000
615.2220, 7793.000
616.3900, 7894.000
617.5570, 7970.000
618.7240, 7933.000
619.8910, 8073.000
621.0580, 8146.054
622.2240, 8117.958
623.3910, 8248.685
624.5570, 8354.213
625.7230, 8435.954
626.8890, 8422.658
628.0550, 8532.085
629.2200, 8855.091
630.3860, 8989.135
631.5510, 9107.276
632.7160, 9212.212
633.8810, 9161.449
635.0460, 9390.506
636.2100, 9555.393
637.3750, 9750.764
638.5390, 9897.000
639.7030, 10099.00
640.8670, 10456.00
642.0310, 10681.00
643.1950, 10881.00
644.3580, 11251.00
645.5210, 11391.00
646.6850, 11743.24
647.8480, 12025.00
649.0100, 12430.00
650.1730, 12611.00
651.3350, 13036.00
652.4980, 13333.00
653.6600, 13854.00
654.8220, 14227.00
655.9840, 14536.00
657.1450, 14929.00
658.3070, 15400.00
659.4680, 15759.81
660.6300, 16164.29
661.7910, 16538.00
662.9510, 16868.00
664.1120, 17150.00
665.2730, 17369.00
666.4330, 17503.00
667.5930, 17590.46
668.7530, 17562.00
669.9130, 17597.00
671.0730, 17572.00
672.2320, 17507.00
673.3920, 17219.00
674.5510, 17034.00
675.7100, 16657.00
676.8690, 16146.00
678.0280, 16126.42
679.1860, 15837.29
680.3450, 15522.71
681.5030, 15184.64
682.6610, 14751.53
683.8190, 14526.09
684.9770, 13988.44
686.1340, 14004.00
687.2920, 13153.00
688.4490, 13013.00
689.6060, 12524.00
690.7630, 12253.00
691.9200, 11940.00
693.0760, 11676.00
694.2330, 11330.00
695.3890, 10956.00
696.5450, 10875.00
697.7010, 10623.00
698.8570, 10219.00
700.0130, 10123.00
701.1680, 9820.000
702.3230, 9741.000
703.4780, 9445.000
704.6330, 9164.000
705.7880, 8985.000
706.9430, 8887.000
708.0970, 8749.000
709.2520, 8538.000
710.4060, 8423.000
711.5600, 8198.000
712.7140, 8204.000
713.8670, 8006.000
715.0210, 7975.000
716.1740, 7889.000
717.3270, 7644.000
718.4800, 7666.000
719.6330, 7484.000
720.7860, 7490.000
721.9380, 7342.000
723.0910, 7249.000
724.2430, 7173.000
725.3950, 7141.000
726.5470, 7040.591
727.6980, 6996.000
728.8500, 6896.000
730.0010, 6858.000
731.1530, 6829.000
732.3040, 6740.000
733.4550, 6623.000
734.6050, 6642.000
735.7560, 6540.000
736.9060, 6627.000
738.0560, 6455.000
739.2060, 6449.000
740.3560, 6470.824
741.5060, 6425.672
742.6560, 6436.000
743.8050, 6444.000
744.9540, 6259.000
746.1030, 6224.000
747.2520, 6268.000
748.4010, 6189.000
749.5500, 6237.000
750.6980, 6162.000
751.8460, 6225.000
752.9950, 6118.000
754.1420, 6044.000
755.2900, 6100.000
756.4380, 5998.000
757.5850, 6093.000
758.7330, 6012.000
759.8800, 5958.000
761.0270, 5971.000
762.1730, 6029.000
763.3200, 5962.000
764.4670, 5920.000
765.6130, 5871.000
766.7590, 5805.000
767.9050, 5845.000
769.0510, 5861.000
770.1960, 5812.000
771.3420, 5823.284
772.4870, 5841.273
773.6320, 5784.000
774.7770, 5735.000
775.9220, 5720.404
777.0670, 5708.000
778.2110, 5734.000
779.3560, 5693.000
780.5000, 5737.000
781.6440, 5707.000
782.7880, 5685.000
783.9320, 5697.000
785.0750, 5728.000
786.2180, 5699.000
787.3620, 5698.772
788.5050, 5714.000
789.6480, 5636.000
790.7900, 5639.000
791.9330, 5561.000
793.0750, 5674.000
794.2170, 5592.000
795.3590, 5586.000
796.5010, 5609.000
797.6430, 5547.000
798.7850, 5634.000
799.9260, 5665.000
801.0670, 5485.000
802.2080, 5599.000
803.3490, 5561.000
804.4900, 5501.000
805.6310, 5545.000
806.7710, 5551.000
807.9110, 5592.000
809.0510, 5601.000
810.1910, 5566.000
811.3310, 5578.921
812.4710, 5592.044
813.6100, 5526.000
814.7490, 5641.000
815.8880, 5570.000
817.0270, 5596.000
818.1660, 5571.894
819.3050, 5554.789
820.4430, 5484.000
821.5820, 5541.000
822.7200, 5507.000
823.8580, 5506.000
824.9950, 5518.000
826.1330, 5522.000
827.2710, 5499.000
828.4080, 5500.906
829.5450, 5501.000
830.6820, 5483.000
831.8190, 5509.000
832.9560, 5512.000
834.0920, 5549.000
835.2280, 5506.000
836.3650, 5458.000
837.5010, 5440.000
838.6360, 5511.000
839.7720, 5510.000
840.9080, 5514.000
842.0430, 5450.000
843.1780, 5502.000
844.3130, 5455.000
845.4480, 5439.000
846.5830, 5465.000
847.7170, 5453.946
848.8520, 5488.000
849.9860, 5480.000
851.1200, 5547.000
852.2540, 5554.000
853.3870, 5544.568
854.5210, 5498.212
855.6540, 5573.000
856.7880, 5356.000
857.9210, 5484.000
859.0540, 5465.000
860.1860, 5546.000
861.3190, 5432.000
862.4510, 5488.000
863.5840, 5413.000
864.7160, 5485.000
865.8480, 5589.000
866.9790, 5501.000
868.1110, 5504.000
869.2420, 5516.000
870.3740, 5449.859
871.5050, 5523.000
872.6360, 5406.000
873.7660, 5463.000
874.8970, 5532.000
876.0280, 5435.000
877.1580, 5500.000
878.2880, 5473.000
879.4180, 5575.000
880.5480, 5501.000
881.6770, 5503.000
882.8070, 5420.000
883.9360, 5435.000
885.0650, 5423.694
886.1940, 5508.000
887.3230, 5441.000
888.4520, 5467.000
889.5800, 5490.000
890.7090, 5513.000
891.8370, 5512.000
892.9650, 5471.000
894.0930, 5496.000
895.2200, 5495.000
896.3480, 5559.000
897.4750, 5484.848
898.6020, 5478.000
899.7290, 5374.211
900.8560, 5491.384
901.9830, 5558.278
903.1090, 5577.596
904.2360, 5406.844
905.3620, 5481.527
906.4880, 5457.850
907.6140, 5430.140
908.7400, 5539.367
909.8650, 5396.256
910.9900, 5503.310
912.1160, 5510.505
913.2410, 5563.401
914.3660, 5517.331
915.4900, 5501.825
916.6150, 5585.321
917.7390, 5613.999
918.8640, 5556.535
919.9880, 5612.335
921.1120, 5465.765
922.2350, 5496.775
923.3590, 5604.406
924.4820, 5551.914
925.6060, 5609.523
926.7290, 5625.199
927.8520, 5450.312
928.9740, 5606.830
930.0970, 5620.027
931.2190, 5567.643
932.3420, 5623.000
933.4640, 5595.000
934.5860, 5569.000
935.7080, 5563.000
936.8290, 5634.000
937.9510, 5607.000
939.0720, 5602.573
940.1930, 5656.000
941.3140, 5527.000
942.4350, 5590.000
943.5560, 5503.000
944.6760, 5733.000
945.7960, 5678.595
946.9170, 5682.412
948.0370, 5682.000
949.1560, 5639.000
950.2760, 5570.000
951.3960, 5556.000
952.5150, 5631.000
953.6340, 5546.000
954.7530, 5519.000
955.8720, 5594.000
956.9910, 5533.000
958.1090, 5556.000
959.2280, 5508.000
960.3460, 5478.000
961.4640, 5573.000
962.5820, 5638.000
963.6990, 5587.000
964.8170, 5579.000
965.9340, 5625.000
967.0510, 5674.000
968.1690, 5744.000
969.2850, 5598.000
970.4020, 5827.000
971.5190, 5561.000
972.6350, 5617.000
973.7510, 5617.000
974.8670, 5673.000
975.9830, 5632.000
977.0990, 5553.000
978.2150, 5573.432
979.3300, 5571.059
980.4450, 5536.000
981.5600, 5648.000
982.6750, 5638.000
983.7900, 5703.000
984.9050, 5612.000
986.0190, 5638.000
987.1340, 5649.000
988.2480, 5713.000
989.3620, 5592.000
990.4750, 5698.000
991.5890, 5707.000
992.7020, 5607.000
993.8160, 5775.000
994.9290, 5785.000
996.0420, 5720.000
997.1550, 5775.000
998.2670, 5714.000
999.3800, 5692.000
1000.492, 5705.000
1001.604, 5769.000
1002.716, 5774.000
1003.828, 5727.000
1004.940, 5713.000
1006.051, 5719.113
1007.163, 5720.830
1008.274, 5754.000
1009.385, 5725.000
1010.496, 5781.000
1011.606, 5700.000
1012.717, 5702.000
1013.827, 5784.000
1014.937, 5724.000
1016.047, 5766.000
1017.157, 5706.000
1018.267, 5724.000
1019.377, 5671.000
1020.486, 5674.000
1021.595, 5823.000
1022.704, 5677.000
1023.813, 5673.000
1024.922, 5846.000
1026.030, 5705.000
1027.139, 5691.000
1028.247, 5672.000
1029.355, 5757.000
1030.463, 5676.000
1031.571, 5777.000
1032.678, 5685.000
1033.786, 5756.000
1034.893, 5677.000
1036.000, 5755.000
1037.107, 5772.000
1038.214, 5722.000
1039.321, 5752.000
1040.427, 5738.000
1041.533, 5769.000
1042.639, 5763.000
1043.745, 5744.000
1044.851, 5818.000
1045.957, 5782.000
1047.062, 5745.000
1048.168, 5833.000
1049.273, 5872.000
1050.378, 5743.000
1051.482, 5773.000
1052.587, 5806.000
1053.692, 5785.000
1054.796, 5861.000
1055.900, 5853.000
1057.004, 5893.000
1058.108, 5891.112
1059.212, 5838.000
1060.315, 5860.000
1061.418, 5808.000
1062.522, 5771.000
1063.625, 5833.000
1064.728, 5840.000
1065.830, 5919.000
1066.933, 5784.000
1068.035, 5866.000
1069.137, 5836.000
1070.239, 5862.000
1071.341, 5746.000
1072.443, 5828.008
1073.545, 5939.218
1074.646, 6000.154
1075.747, 6013.515
1076.848, 5836.804
1077.949, 5905.530
1079.050, 5875.896
1080.150, 5842.232
1081.251, 5945.503
1082.351, 5796.441
1083.451, 5897.543
1084.551, 5898.784
1085.651, 5945.729
1086.750, 5893.710
1087.850, 5872.256
1088.949, 5949.804
1090.048, 5972.536
1091.147, 5909.124
1092.246, 5958.978
1093.345, 5806.462
1094.443, 5831.532
1095.541, 5933.220
1096.639, 5874.788
1097.737, 5926.454
1098.835, 5936.189
1099.933, 5813.000
1101.030, 5837.000
1102.128, 5844.000
1103.225, 5771.000
1104.322, 5845.000
1105.419, 5799.074
1106.515, 5776.000
1107.612, 5837.000
1108.708, 5687.000
1109.804, 5839.000
1110.900, 5836.000
1111.996, 5884.000
1113.092, 5766.000
1114.187, 5714.000
1115.283, 5779.000
1116.378, 5745.000
1117.473, 5824.000
1118.568, 5772.000
1119.662, 5745.000
1120.757, 5866.000
1121.851, 5725.000
1122.946, 5791.000
1124.040, 5693.000
1125.134, 5743.000
1126.227, 5775.000
1127.321, 5791.000
1128.414, 5693.000
1129.508, 5677.000
1130.601, 5861.000
1131.693, 5600.000
1132.786, 5743.000
1133.879, 5806.000
1134.971, 5754.077
1136.064, 5722.000
1137.156, 5775.000
1138.248, 5681.000
1139.339, 5604.000
1140.431, 5703.000
1141.522, 5723.000
1142.614, 5672.000
1143.705, 5651.000
1144.796, 5642.674
1145.887, 5612.447
1146.977, 5616.000
1148.068, 5602.000
1149.158, 5598.000
1150.248, 5643.000
1151.338, 5695.000
1152.428, 5767.000
1153.518, 5708.000
1154.607, 5677.000
1155.696, 5710.000
1156.785, 5651.000
1157.874, 5622.000
1158.963, 5747.000
1160.052, 5662.000
1161.141, 5758.000
1162.229, 5672.000
1163.317, 5706.000
1164.405, 5656.000
1165.493, 5653.000
1166.581, 5626.000
1167.668, 5721.000
1168.756, 5572.000
1169.843, 5717.000
1170.930, 5646.000
1172.017, 5594.000
1173.103, 5797.000
1174.190, 5687.000
1175.276, 5593.000
1176.363, 5720.000
1177.449, 5624.000
1178.535, 5633.000
1179.620, 5680.000
1180.706, 5696.000
1181.791, 5654.000
1182.877, 5638.775
1183.962, 5597.000
1185.047, 5606.000
1186.131, 5582.000
1187.216, 5716.000
1188.300, 5628.000
1189.385, 5663.000
1190.469, 5715.000
1191.553, 5639.000
1192.637, 5663.000
1193.720, 5725.000
1194.804, 5607.000
1195.887, 5684.000
1196.970, 5668.000
1198.053, 5601.000
1199.136, 5640.000
1200.219, 5632.049
1201.301, 5629.000
1202.383, 5683.000
1203.465, 5676.000
1204.547, 5715.000
1205.629, 5672.000
1206.711, 5669.000
1207.792, 5612.000
1208.874, 5661.000
1209.955, 5663.000
1211.036, 5618.000
1212.117, 5645.000
1213.198, 5734.000
1214.278, 5712.000
1215.359, 5747.000
1216.439, 5628.000
1217.519, 5721.000
1218.599, 5575.000
1219.678, 5688.000
1220.758, 5600.000
1221.837, 5641.000
1222.917, 5785.000
1223.996, 5704.000
1225.075, 5726.000
1226.153, 5609.000
1227.232, 5658.000
1228.310, 5696.000
1229.389, 5786.000
1230.467, 5686.000
1231.545, 5663.000
1232.622, 5700.000
1233.700, 5742.000
1234.777, 5629.708
1235.855, 5744.423
1236.932, 5808.861
1238.009, 5825.723
1239.086, 5652.514
1240.162, 5724.742
1241.239, 5698.610
1242.315, 5668.444
1243.391, 5775.217
1244.467, 5629.653
1245.543, 5734.254
1246.619, 5738.994
1247.694, 5789.437
1248.769, 5740.913
1249.844, 5722.958
1250.919, 5804.001
1251.994, 5830.228
1253.069, 5770.311
1254.144, 5785.000
1255.218, 5734.000
1256.292, 5742.792
1257.366, 5782.000
1258.440, 5750.000
1259.514, 5735.000
1260.587, 5716.000
1261.661, 5688.000
1262.734, 5660.000
1263.807, 5769.000
1264.880, 5806.000
1265.952, 5802.000
1267.025, 5777.000
1268.097, 5728.000
1269.170, 5679.000
1270.242, 5728.000
1271.314, 5718.000
1272.385, 5745.000
1273.457, 5766.000
1274.528, 5790.000
1275.600, 5603.146
1276.671, 5777.774
1277.742, 5876.985
1278.812, 5904.830
1279.883, 5647.571
1280.954, 5758.467
1282.024, 5721.821
1283.094, 5679.125
1284.164, 5841.836
1285.234, 5626.042
1286.303, 5785.493
1287.373, 5795.154
1288.442, 5873.369
1289.511, 5803.133
1290.580, 5800.000
1291.649, 5869.000
1292.718, 5746.000
1293.786, 5802.000
1294.855, 5867.000
1295.923, 5807.000
1296.991, 5847.000
1298.059, 5824.000
1299.126, 5779.000
1300.194, 5870.000
1301.261, 5897.000
1302.328, 5778.000
1303.395, 5870.000
1304.462, 5822.000
1305.529, 5741.000
1306.596, 5882.000
1307.662, 5864.000
1308.728, 5880.000
1309.794, 5848.477
1310.860, 5865.000
1311.926, 5807.000
1312.991, 5818.891
1314.057, 5828.871
1315.122, 5844.000
1316.187, 5827.000
1317.252, 5893.000
1318.317, 5808.000
1319.381, 5907.000
1320.446, 5857.000
1321.510, 5811.000
1322.574, 5924.000
1323.638, 5929.000
1324.702, 5772.000
1325.766, 5884.270
1326.829, 6181.000
1327.892, 5942.000
1328.956, 5955.000
1330.019, 5978.000
1331.081, 5891.000
1332.144, 5805.000
1333.206, 5775.000
1334.269, 5771.950
1335.331, 5983.000
1336.393, 5774.000
1337.455, 5929.000
1338.516, 5823.000
1339.578, 5864.000
1340.639, 5815.000
1341.701, 5876.000
1342.762, 5860.000
1343.822, 5903.000
1344.883, 5922.000
1345.944, 5919.000
1347.004, 5789.164
1348.064, 5956.711
1349.124, 6048.842
1350.184, 6069.609
1351.244, 5805.270
1352.304, 5909.086
1353.363, 5865.367
1354.422, 5815.598
1355.481, 5971.236
1356.540, 5748.369
1357.599, 5900.749
1358.657, 5983.000
1359.716, 5921.000
1360.774, 5878.000
1361.832, 5953.000
1362.890, 5896.000
1363.948, 5993.000
1365.006, 5787.000
1366.063, 5899.000
1367.120, 5912.000
1368.178, 5943.000
1369.234, 5973.000
1370.291, 6025.000
1371.348, 6009.142
1372.404, 5877.000
1373.461, 5958.000
1374.517, 5965.000
1375.573, 5891.000
1376.629, 5930.000
1377.684, 5830.000
1378.740, 5831.000
1379.795, 5853.000
1380.850, 5954.000
1381.905, 6000.000
1382.960, 5985.950
1384.015, 5912.000
1385.070, 5939.000
1386.124, 5965.000
1387.178, 5942.000
1388.232, 5986.000
1389.286, 5901.000
1390.340, 5967.000
1391.393, 5961.000
1392.447, 5904.000
1393.500, 5960.000
1394.553, 5957.000
1395.606, 6092.000
1396.659, 5891.000
1397.711, 5869.000
1398.764, 6016.000
1399.816, 5953.000
1400.868, 6019.000
1401.920, 5925.000
1402.972, 6004.000
1404.023, 5953.000
1405.075, 5955.000
1406.126, 5964.000
1407.177, 5919.000
1408.228, 5926.286
1409.279, 5926.281
1410.330, 5908.000
1411.380, 5933.000
1412.431, 5933.000
1413.481, 5920.000
1414.531, 5958.000
1415.580, 5929.000
1416.630, 6000.000
1417.680, 5824.111
1418.729, 5991.411
1419.778, 6083.294
1420.827, 6103.813
1421.876, 5839.226
1422.925, 5942.794
1423.973, 5898.828
1425.022, 5848.807
1426.070, 6004.198
1427.118, 5979.000
1428.166, 6017.000
1429.214, 6083.000
1430.261, 5959.000
1431.309, 5880.000
1432.356, 5875.000
1433.403, 5909.000
1434.450, 5947.000
1435.497, 5896.000
1436.543, 5951.000
1437.590, 5903.000
1438.636, 5939.000
1439.682, 5920.468
1440.728, 5870.000
1441.774, 5901.000
1442.819, 5920.000
1443.865, 5949.000
1444.910, 5950.000
1445.955, 5990.000
1447.000, 5976.100
1448.045, 5981.338
1449.090, 5954.000
1450.134, 5998.000
1451.178, 5990.000
1452.223, 6060.000
1453.267, 5980.000
1454.310, 6064.000
1455.354, 6018.000
1456.398, 6006.000
1457.441, 6024.000
1458.484, 5913.000
1459.527, 5944.000
1460.570, 5899.000
1461.613, 5975.000
1462.655, 5892.000
1463.698, 5913.000
1464.740, 5994.000
1465.782, 5977.000
1466.824, 5978.000
1467.866, 5924.000
1468.907, 5953.000
1469.948, 5905.000
1470.990, 5980.000
1472.031, 5999.000
1473.072, 6009.000
1474.112, 6066.000
1475.153, 6020.000
1476.194, 6007.000
1477.234, 5970.000
1478.274, 6051.000
1479.314, 6034.000
1480.354, 6026.000
1481.393, 6112.000
1482.433, 6036.387
1483.472, 6167.000
1484.511, 6013.000
1485.550, 5897.000
1486.589, 6028.000
1487.628, 5888.000
1488.666, 5927.000
1489.704, 6041.000
1490.743, 5970.000
1491.781, 6013.531
1492.819, 6124.000
1493.856, 6043.000
1494.894, 5919.000
1495.931, 6025.000
1496.968, 5915.000
1498.005, 5958.000
1499.042, 6035.000
1500.079, 6003.000
1501.115, 5970.000
1502.152, 6000.000
1503.188, 5883.000
1504.224, 6064.000
1505.260, 5975.000
1506.296, 6038.000
1507.331, 5913.000
1508.367, 5974.174
1509.402, 5969.000
1510.437, 6047.000
1511.472, 5884.000
1512.507, 5879.000
1513.541, 5916.000
1514.576, 6001.000
1515.610, 6027.000
1516.644, 6016.959
1517.678, 5929.000
1518.712, 5971.000
1519.746, 5942.000
1520.779, 5940.000
1521.813, 5943.000
1522.846, 5974.000
1523.879, 5900.000
1524.912, 5928.000
1525.944, 5982.000
1526.977, 5907.000
1528.009, 5939.000
1529.041, 5952.000
1530.073, 5947.000
1531.105, 5983.000
1532.137, 5998.000
1533.168, 5908.000
1534.200, 5900.000
1535.231, 5904.000
1536.262, 5967.000
1537.293, 5939.000
1538.324, 5965.976
1539.354, 5900.863
1540.385, 5985.018
1541.415, 6031.467
1542.445, 6042.234
1543.475, 5910.448
1544.505, 5962.739
1545.534, 5941.263
1546.564, 5916.760
1547.593, 5994.961
1548.622, 5883.912
1549.651, 5960.484
1550.680, 5962.162
1551.708, 5998.119
1552.737, 5959.849
1553.765, 5944.506
1554.793, 6003.413
1555.821, 6021.208
1556.849, 5974.395
1557.877, 6012.531
1558.904, 5898.891
1559.932, 5918.437
1560.959, 5995.448
1561.986, 5952.370
1563.013, 5991.865
1564.039, 5999.913
1565.066, 5891.000
1566.092, 5956.000
1567.119, 5843.000
1568.145, 5981.000
1569.170, 5923.265
1570.196, 5970.000
1571.222, 5874.000
1572.247, 5934.000
1573.272, 5884.000
1574.297, 5941.000
1575.322, 5960.000
1576.347, 5886.000
1577.372, 5777.000
##END=



