##NAMES=Magnesite
##RRUFFID=R050676
##IDEAL CHEMISTRY=MgCO_3_
##LOCALITY=Tyrol, Austria
##OWNER=RRUFF
##SOURCE=University of Arizona Mineral Museum
##DESCRIPTION=Brown rhombohedral crystals
##STATUS=The identification of this mineral has been confirmed by X-ray diffraction and chemical analysis
##URL=rruff.info/R050676
##MEASURED CHEMISTRY=(Mg_0.87_Fe^2+^_0.12_Ca_0.01_)_Î£=1_CO_3_; trace amounts of Mn and Cd; CO_2_ estimated by difference
##PIN_ID=M01410
##ORIENTATION=Laser parallel to c* (0 0 1). Fiducial mark perpendicular to laser is parallel to a [1 0 0]
61.07900, 6973.000
62.32000, 6967.000
63.56100, 7210.000
64.80100, 7701.000
66.04100, 7605.000
67.28100, 7810.000
68.52100, 7874.000
69.76100, 8064.000
71.00100, 7991.000
72.24000, 8031.000
73.47900, 8022.000
74.71800, 8073.000
75.95700, 8176.000
77.19600, 8282.000
78.43500, 8391.227
79.67300, 8195.000
80.91200, 8559.000
82.15000, 8818.000
83.38800, 8722.000
84.62600, 8480.000
85.86300, 8087.000
87.10100, 7822.000
88.33800, 7608.000
89.57500, 7633.000
90.81200, 7599.000
92.04900, 7654.000
93.28600, 7702.000
94.52300, 7591.000
95.75900, 7706.000
96.99500, 7701.000
98.23100, 7736.000
99.46700, 7778.479
100.7030, 7774.000
101.9390, 7808.000
103.1740, 7805.000
104.4090, 7781.000
105.6440, 7897.000
106.8790, 7844.000
108.1140, 7625.000
109.3490, 7650.000
110.5830, 7670.000
111.8180, 7824.000
113.0520, 7681.000
114.2860, 7684.000
115.5200, 8031.000
116.7530, 7848.000
117.9870, 7848.000
119.2200, 8134.000
120.4530, 8733.000
121.6860, 8828.000
122.9190, 8565.000
124.1520, 8164.000
125.3850, 7944.000
126.6170, 7606.000
127.8490, 7537.000
129.0810, 7458.825
130.3130, 7642.000
131.5450, 7556.000
132.7770, 7562.000
134.0080, 7754.000
135.2390, 7576.000
136.4710, 7641.000
137.7020, 7579.000
138.9320, 7638.000
140.1630, 7532.000
141.3930, 7678.000
142.6240, 7600.000
143.8540, 7676.000
145.0840, 7598.000
146.3140, 7771.000
147.5440, 7804.000
148.7730, 7723.000
150.0020, 7698.000
151.2320, 7612.000
152.4610, 7732.000
153.6900, 7721.000
154.9180, 7816.000
156.1470, 7789.000
157.3750, 7776.000
158.6040, 8042.000
159.8320, 7931.000
161.0600, 7722.000
162.2870, 8008.000
163.5150, 8071.000
164.7420, 8112.000
165.9700, 8134.000
167.1970, 8120.000
168.4240, 8146.000
169.6510, 8163.000
170.8770, 8164.000
172.1040, 8049.000
173.3300, 8156.000
174.5560, 8204.000
175.7820, 8092.000
177.0080, 8179.000
178.2340, 8159.000
179.4590, 8376.000
180.6850, 8351.000
181.9100, 8622.000
183.1350, 8681.000
184.3600, 8520.000
185.5850, 8622.000
186.8090, 8787.000
188.0340, 8830.000
189.2580, 8852.000
190.4820, 9109.000
191.7060, 9361.000
192.9300, 9503.000
194.1530, 9797.000
195.3770, 10223.00
196.6000, 10545.00
197.8230, 11059.00
199.0460, 11874.00
200.2690, 12696.00
201.4910, 13658.00
202.7140, 14714.00
203.9360, 16283.00
205.1580, 17997.00
206.3800, 20314.00
207.6020, 22491.00
208.8240, 24596.00
210.0450, 25209.00
211.2670, 24271.00
212.4880, 22350.00
213.7090, 19218.00
214.9300, 16378.00
216.1510, 13593.00
217.3710, 11878.00
218.5920, 10764.00
219.8120, 9910.000
221.0320, 9183.000
222.2520, 8850.000
223.4720, 8645.000
224.6910, 8469.000
225.9110, 8327.132
227.1300, 8298.000
228.3490, 8165.000
229.5680, 8293.000
230.7870, 8227.000
232.0050, 8255.000
233.2240, 8220.000
234.4420, 7991.000
235.6600, 8143.000
236.8780, 8033.000
238.0960, 8179.000
239.3140, 8087.000
240.5310, 8009.000
241.7490, 7989.000
242.9660, 7943.000
244.1830, 8091.000
245.4000, 8239.000
246.6160, 8044.000
247.8330, 8204.000
249.0490, 8170.000
250.2660, 8180.000
251.4820, 8298.000
252.6980, 8182.000
253.9130, 8281.000
255.1290, 8183.000
256.3440, 8316.000
257.5600, 8262.000
258.7750, 8255.000
259.9900, 8206.000
261.2040, 8294.000
262.4190, 8227.421
263.6330, 8318.000
264.8480, 8259.000
266.0620, 8157.000
267.2760, 8372.000
268.4900, 8402.000
269.7030, 8304.110
270.9170, 8417.000
272.1300, 8366.567
273.3430, 8324.000
274.5560, 8367.000
275.7690, 8276.000
276.9820, 8309.000
278.1940, 8377.000
279.4070, 8369.000
280.6190, 8397.000
281.8310, 8342.000
283.0430, 8405.000
284.2550, 8316.000
285.4660, 8292.000
286.6770, 8446.000
287.8890, 8496.000
289.1000, 8406.000
290.3110, 8459.000
291.5210, 8449.000
292.7320, 8487.000
293.9420, 8452.000
295.1530, 8532.000
296.3630, 8624.000
297.5730, 8435.000
298.7830, 8665.000
299.9920, 8563.000
301.2020, 8674.000
302.4110, 8881.000
303.6200, 8790.511
304.8290, 9171.000
306.0380, 8982.000
307.2470, 8874.000
308.4550, 9412.000
309.6630, 9302.000
310.8720, 9658.000
312.0800, 10047.00
313.2880, 10387.00
314.4950, 10878.00
315.7030, 11604.00
316.9100, 12519.00
318.1170, 13543.00
319.3240, 14754.00
320.5310, 16546.00
321.7380, 18485.00
322.9450, 20390.00
324.1510, 22275.00
325.3570, 23325.00
326.5630, 23305.00
327.7690, 22297.00
328.9750, 20248.00
330.1810, 18042.00
331.3860, 15682.00
332.5910, 13854.00
333.7960, 12653.00
335.0010, 11693.00
336.2060, 10992.00
337.4110, 10422.00
338.6150, 10118.00
339.8200, 9903.000
341.0240, 9749.000
342.2280, 9545.000
343.4320, 9372.000
344.6350, 9425.000
345.8390, 9291.000
347.0420, 9277.000
348.2450, 9257.000
349.4480, 9217.000
350.6510, 9220.000
351.8540, 9041.000
353.0560, 9143.000
354.2590, 8994.000
355.4610, 9044.000
356.6630, 9032.000
357.8650, 9159.000
359.0670, 8927.000
360.2680, 9013.000
361.4700, 9068.000
362.6710, 9147.000
363.8720, 9080.000
365.0730, 9080.000
366.2740, 9133.000
367.4740, 9160.000
368.6750, 9085.000
369.8750, 9114.000
371.0750, 9041.000
372.2750, 9143.000
373.4750, 9167.000
374.6740, 9098.000
375.8740, 9291.000
377.0730, 9119.000
378.2720, 9163.000
379.4710, 9129.000
380.6700, 9093.000
381.8690, 9202.000
383.0670, 9133.000
384.2660, 9294.000
385.4640, 9151.000
386.6620, 9265.000
387.8600, 9215.000
389.0570, 9115.000
390.2550, 9197.000
391.4520, 9180.000
392.6490, 9276.000
393.8460, 9151.000
395.0430, 9060.000
396.2400, 9067.000
397.4370, 9061.000
398.6330, 9025.000
399.8290, 9117.000
401.0250, 9134.000
402.2210, 9196.000
403.4170, 9118.000
404.6130, 9181.000
405.8080, 9076.000
407.0030, 9040.000
408.1980, 9051.333
409.3930, 9096.000
410.5880, 9065.000
411.7830, 9144.000
412.9770, 9206.000
414.1720, 9120.000
415.3660, 9090.000
416.5600, 9199.000
417.7530, 9182.000
418.9470, 9282.000
420.1410, 9212.000
421.3340, 9240.000
422.5270, 9283.000
423.7200, 9152.000
424.9130, 9332.000
426.1060, 9241.000
427.2980, 9311.000
428.4900, 9338.000
429.6830, 9210.000
430.8750, 9290.000
432.0670, 9424.000
433.2580, 9290.000
434.4500, 9236.000
435.6410, 9324.000
436.8320, 9405.000
438.0240, 9398.000
439.2140, 9430.000
440.4050, 9407.000
441.5960, 9350.000
442.7860, 9386.000
443.9760, 9341.000
445.1670, 9367.000
446.3560, 9426.000
447.5460, 9420.000
448.7360, 9494.000
449.9250, 9352.000
451.1150, 9521.000
452.3040, 9481.000
453.4930, 9483.000
454.6810, 9586.000
455.8700, 9521.000
457.0590, 9507.000
458.2470, 9582.000
459.4350, 9565.000
460.6230, 9642.000
461.8110, 9685.000
462.9980, 9583.000
464.1860, 9773.000
465.3730, 9688.000
466.5600, 9838.000
467.7470, 9802.000
468.9340, 9822.000
470.1210, 9715.000
471.3080, 9995.000
472.4940, 9805.000
473.6800, 10028.00
474.8660, 10027.00
476.0520, 10062.00
477.2380, 10006.00
478.4230, 10044.00
479.6090, 10056.00
480.7940, 10194.00
481.9790, 10282.00
483.1640, 10279.00
484.3490, 10415.00
485.5330, 10328.00
486.7180, 10434.00
487.9020, 10444.00
489.0860, 10478.00
490.2700, 10521.00
491.4540, 10472.00
492.6370, 10565.00
493.8210, 10524.00
495.0040, 10684.00
496.1870, 10745.00
497.3700, 10672.00
498.5530, 10731.00
499.7360, 10930.00
500.9180, 10784.00
502.1000, 10934.00
503.2830, 10872.00
504.4650, 10813.00
505.6460, 10873.00
506.8280, 10741.00
508.0100, 10806.85
509.1910, 10825.75
510.3720, 10890.00
511.5530, 10927.00
512.7340, 10996.00
513.9150, 11063.00
515.0950, 10958.00
516.2760, 10893.00
517.4560, 10968.00
518.6360, 10926.00
519.8160, 10989.00
520.9950, 10816.00
522.1750, 10855.00
523.3540, 10813.00
524.5340, 10779.00
525.7130, 10957.00
526.8920, 10982.00
528.0700, 10887.00
529.2490, 10808.00
530.4270, 10719.00
531.6060, 10807.00
532.7840, 10739.00
533.9620, 10702.00
535.1390, 10818.00
536.3170, 10829.00
537.4940, 10662.00
538.6720, 10592.00
539.8490, 10717.00
541.0260, 10609.00
542.2030, 10794.00
543.3790, 10573.00
544.5560, 10761.00
545.7320, 10755.00
546.9080, 10680.00
548.0840, 10757.00
549.2600, 10590.00
550.4360, 10686.00
551.6110, 10522.00
552.7860, 10717.00
553.9620, 10615.00
555.1370, 10790.00
556.3110, 10635.00
557.4860, 10614.00
558.6610, 10621.00
559.8350, 10596.00
561.0090, 10591.38
562.1830, 10552.00
563.3570, 10596.00
564.5310, 10635.00
565.7040, 10688.00
566.8780, 10598.00
568.0510, 10547.00
569.2240, 10550.00
570.3970, 10716.00
571.5700, 10695.00
572.7420, 10585.00
573.9150, 10707.00
575.0870, 10531.00
576.2590, 10548.00
577.4310, 10570.00
578.6030, 10637.00
579.7740, 10724.00
580.9460, 10683.00
582.1170, 10668.00
583.2880, 10670.00
584.4590, 10739.00
585.6300, 10675.00
586.8010, 10795.00
587.9710, 10634.00
589.1410, 10637.00
590.3110, 10594.00
591.4810, 10639.00
592.6510, 10573.00
593.8210, 10779.00
594.9900, 10638.00
596.1600, 10707.00
597.3290, 10887.00
598.4980, 10598.00
599.6670, 10833.00
600.8350, 10683.00
602.0040, 10644.00
603.1720, 10769.00
604.3400, 10709.00
605.5080, 10695.00
606.6760, 10681.00
607.8440, 10749.00
609.0120, 10788.00
610.1790, 10687.00
611.3460, 10871.00
612.5130, 10914.00
613.6800, 10733.00
614.8470, 10899.00
616.0130, 10935.00
617.1800, 10990.00
618.3460, 10928.00
619.5120, 10894.00
620.6780, 10935.00
621.8440, 11027.00
623.0090, 10987.00
624.1750, 10806.00
625.3400, 10949.00
626.5050, 10962.00
627.6700, 11018.00
628.8350, 11106.00
629.9990, 11010.00
631.1640, 11090.00
632.3280, 10966.00
633.4920, 11157.00
634.6560, 10935.00
635.8200, 11020.00
636.9840, 11070.00
638.1470, 10917.00
639.3100, 11145.00
640.4730, 11021.00
641.6360, 11196.00
642.7990, 11178.00
643.9620, 11190.00
645.1240, 11140.00
646.2870, 11215.00
647.4490, 11240.00
648.6110, 11395.00
649.7730, 11301.00
650.9340, 11406.00
652.0960, 11369.00
653.2570, 11339.00
654.4180, 11310.00
655.5790, 11390.00
656.7400, 11272.00
657.9010, 11267.00
659.0620, 11378.00
660.2220, 11230.00
661.3820, 11388.00
662.5420, 11382.00
663.7020, 11398.00
664.8620, 11336.00
666.0210, 11474.00
667.1810, 11563.00
668.3400, 11579.00
669.4990, 11395.00
670.6580, 11617.00
671.8170, 11563.00
672.9750, 11642.00
674.1340, 11749.00
675.2920, 11686.00
676.4500, 11764.00
677.6080, 11711.00
678.7660, 11585.00
679.9230, 11688.00
681.0810, 11860.00
682.2380, 11822.00
683.3950, 11662.00
684.5520, 11880.00
685.7090, 11865.00
686.8660, 11985.00
688.0220, 11893.00
689.1780, 11903.00
690.3340, 11803.00
691.4900, 11814.00
692.6460, 11892.00
693.8020, 11995.00
694.9570, 12019.40
696.1130, 12022.00
697.2680, 12142.00
698.4230, 12131.00
699.5780, 12239.00
700.7320, 12307.00
701.8870, 12465.00
703.0410, 12590.00
704.1950, 12540.00
705.3490, 12663.31
706.5030, 12703.85
707.6570, 12827.00
708.8110, 12855.00
709.9640, 13083.00
711.1170, 13249.00
712.2700, 13222.00
713.4230, 13591.00
714.5760, 13870.00
715.7280, 13891.00
716.8810, 14134.00
718.0330, 14493.00
719.1850, 15019.00
720.3370, 15414.00
721.4890, 15619.00
722.6400, 16262.00
723.7920, 16790.00
724.9430, 17447.00
726.0940, 18317.00
727.2450, 19162.00
728.3960, 20027.00
729.5460, 21227.00
730.6970, 22408.00
731.8470, 23764.00
732.9970, 24959.00
734.1470, 26115.00
735.2970, 27129.00
736.4460, 27953.00
737.5960, 28270.00
738.7450, 27986.00
739.8940, 27430.00
741.0430, 26329.00
742.1920, 25346.00
743.3410, 23712.00
744.4890, 22420.00
745.6370, 21154.00
746.7850, 19713.00
747.9330, 18602.00
749.0810, 17543.00
750.2290, 16674.00
751.3760, 16046.00
752.5240, 15273.00
753.6710, 14867.00
754.8180, 14386.00
755.9650, 14084.00
757.1110, 13562.00
758.2580, 13354.00
759.4040, 13131.00
760.5510, 13092.00
761.6970, 12757.00
762.8420, 12600.00
763.9880, 12585.00
765.1340, 12574.00
766.2790, 12431.00
767.4240, 12289.00
768.5690, 12116.00
769.7140, 12130.83
770.8590, 12267.00
772.0030, 12142.00
773.1480, 12336.00
774.2920, 12279.00
775.4360, 12226.00
776.5800, 12278.00
777.7240, 12310.00
778.8670, 12241.00
780.0110, 12197.00
781.1540, 12073.00
782.2970, 12126.00
783.4400, 12133.00
784.5830, 12329.00
785.7250, 12377.00
786.8680, 12296.00
788.0100, 12236.00
789.1520, 12308.00
790.2940, 12303.00
791.4360, 12316.00
792.5780, 12342.76
793.7190, 12389.00
794.8600, 12367.00
796.0010, 12419.00
797.1420, 12436.00
798.2830, 12404.00
799.4240, 12352.00
800.5640, 12436.12
801.7050, 12492.94
802.8450, 12501.00
803.9850, 12626.00
805.1250, 12480.00
806.2640, 12320.00
807.4040, 12396.00
808.5430, 12426.00
809.6820, 12491.00
810.8210, 12657.00
811.9600, 12501.00
813.0990, 12641.00
814.2370, 12684.00
815.3760, 12611.00
816.5140, 12535.00
817.6520, 12600.00
818.7900, 12635.00
819.9270, 12695.00
821.0650, 12756.00
822.2020, 12682.00
823.3390, 12588.00
824.4760, 12826.00
825.6130, 12731.00
826.7500, 12760.00
827.8870, 12779.00
829.0230, 12616.00
830.1590, 12870.00
831.2950, 12615.00
832.4310, 12691.00
833.5670, 12770.00
834.7030, 12825.00
835.8380, 12813.00
836.9730, 12746.00
838.1080, 12759.00
839.2430, 12721.00
840.3780, 12795.00
841.5130, 12888.00
842.6470, 12959.00
843.7810, 12826.00
844.9150, 13152.00
846.0490, 12965.71
847.1830, 13108.00
848.3170, 12872.00
849.4500, 12817.00
850.5830, 12963.00
851.7160, 13112.00
852.8490, 13102.00
853.9820, 13109.00
855.1150, 12949.00
856.2470, 12963.00
857.3800, 13115.00
858.5120, 13074.00
859.6440, 13137.00
860.7760, 13081.00
861.9070, 13190.00
863.0390, 13212.00
864.1700, 13110.00
865.3010, 13233.00
866.4320, 13260.00
867.5630, 13673.00
868.6940, 14089.00
869.8240, 13819.52
870.9540, 13441.00
872.0850, 13474.00
873.2150, 13620.00
874.3450, 13707.00
875.4740, 13856.00
876.6040, 13780.00
877.7330, 13789.00
878.8620, 13804.00
879.9910, 13698.00
881.1200, 13751.00
882.2490, 13770.00
883.3770, 13623.00
884.5060, 13631.17
885.6340, 13457.00
886.7620, 13490.00
887.8900, 13536.00
889.0180, 13455.00
890.1450, 13473.21
891.2730, 13472.85
892.4000, 13442.00
893.5270, 13517.00
894.6540, 13563.00
895.7810, 13665.00
896.9070, 13507.00
898.0340, 13668.00
899.1600, 13644.00
900.2860, 13504.00
901.4120, 13516.00
902.5380, 13501.00
903.6630, 13551.00
904.7890, 13548.76
905.9140, 13562.23
907.0390, 13586.00
908.1640, 13594.00
909.2890, 13630.00
910.4130, 13668.08
911.5380, 13652.10
912.6620, 13702.00
913.7860, 13703.00
914.9100, 13729.00
916.0340, 13770.93
917.1580, 13789.35
918.2810, 13841.00
919.4040, 13852.00
920.5280, 13863.00
921.6510, 13891.00
922.7730, 13894.00
923.8960, 13826.00
925.0180, 13780.00
926.1410, 14008.00
927.2630, 13923.00
928.3850, 14048.00
929.5070, 13945.00
930.6280, 13893.00
931.7500, 14006.00
932.8710, 13847.00
933.9920, 13981.00
935.1130, 13853.00
936.2340, 13912.00
937.3550, 14132.00
938.4760, 14050.00
939.5960, 14107.00
940.7160, 14066.00
941.8360, 14115.00
942.9560, 14131.00
944.0760, 14117.85
945.1950, 14139.00
946.3150, 14154.00
947.4340, 14159.00
948.5530, 14269.00
949.6720, 14165.00
950.7900, 13995.00
951.9090, 14290.00
953.0270, 14286.00
954.1460, 14278.00
955.2640, 14486.00
956.3820, 14515.00
957.4990, 14526.00
958.6170, 14545.00
959.7340, 14970.00
960.8520, 15028.00
961.9690, 15184.00
963.0860, 15380.00
964.2020, 15220.00
965.3190, 15139.00
966.4350, 14982.00
967.5520, 14837.00
968.6680, 14454.00
969.7840, 14687.00
970.8990, 14591.00
972.0150, 14385.00
973.1310, 14690.00
974.2460, 14739.00
975.3610, 14769.00
976.4760, 14621.00
977.5910, 14703.00
978.7050, 14593.00
979.8200, 14724.00
980.9340, 14594.00
982.0480, 14535.00
983.1620, 14430.00
984.2760, 14525.00
985.3900, 14658.00
986.5030, 14519.00
987.6160, 14708.00
988.7300, 14572.00
989.8430, 14550.00
990.9550, 14514.00
992.0680, 14603.00
993.1810, 14588.00
994.2930, 14675.00
995.4050, 14694.00
996.5170, 14762.00
997.6290, 14759.00
998.7410, 14645.00
999.8520, 14710.00
1000.964, 14665.00
1002.075, 14676.15
1003.186, 14649.00
1004.297, 14726.00
1005.407, 14680.00
1006.518, 14706.00
1007.628, 14756.00
1008.738, 14674.00
1009.848, 14667.00
1010.958, 14795.00
1012.068, 14764.00
1013.178, 14822.00
1014.287, 14793.00
1015.396, 14794.00
1016.505, 14767.00
1017.614, 14855.00
1018.723, 14852.00
1019.831, 14814.00
1020.940, 15013.00
1022.048, 14888.00
1023.156, 15208.00
1024.264, 15088.00
1025.372, 15121.00
1026.479, 15032.00
1027.587, 15030.00
1028.694, 15259.00
1029.801, 15449.00
1030.908, 15554.00
1032.015, 15686.25
1033.121, 15752.13
1034.228, 15811.00
1035.334, 15882.00
1036.440, 15942.54
1037.546, 16021.28
1038.652, 16041.31
1039.758, 16123.00
1040.863, 16116.00
1041.968, 16356.00
1043.074, 16316.00
1044.178, 16713.00
1045.283, 16660.00
1046.388, 16864.00
1047.492, 17032.00
1048.597, 17145.00
1049.701, 17346.00
1050.805, 17440.00
1051.909, 17695.00
1053.012, 17632.00
1054.116, 17940.00
1055.219, 18349.00
1056.322, 18658.00
1057.425, 18611.00
1058.528, 19123.00
1059.631, 19470.00
1060.733, 20068.00
1061.836, 20634.00
1062.938, 21034.00
1064.040, 21519.00
1065.142, 22239.00
1066.243, 23065.00
1067.345, 23779.00
1068.446, 24954.00
1069.547, 26008.00
1070.648, 27587.00
1071.749, 29134.00
1072.850, 30753.00
1073.951, 32758.00
1075.051, 35099.00
1076.151, 37939.00
1077.251, 41020.00
1078.351, 44563.00
1079.451, 49008.00
1080.550, 54624.00
1081.650, 61481.00
1082.749, 69553.00
1083.848, 79969.00
1084.947, 92411.00
1086.046, 107165.0
1087.144, 124035.0
1088.243, 143585.0
1089.341, 165130.0
1090.439, 186143.0
1091.537, 206591.0
1092.635, 221765.0
1093.732, 231020.0
1094.830, 231044.0
1095.927, 222620.0
1097.024, 208387.0
1098.121, 189244.0
1099.218, 168778.0
1100.314, 149332.0
1101.411, 130314.0
1102.507, 113268.0
1103.603, 98196.00
1104.699, 84974.00
1105.795, 73326.00
1106.890, 63456.00
1107.986, 55904.00
1109.081, 49110.00
1110.176, 43567.00
1111.271, 39241.00
1112.366, 35586.00
1113.461, 32743.00
1114.555, 30231.00
1115.649, 27946.00
1116.744, 26559.00
1117.838, 25042.00
1118.931, 24014.00
1120.025, 23145.00
1121.119, 22319.00
1122.212, 21593.00
1123.305, 21238.00
1124.398, 20439.00
1125.491, 20177.00
1126.584, 19741.00
1127.676, 19353.00
1128.768, 19147.00
1129.861, 18860.70
1130.953, 18693.00
1132.044, 18494.00
1133.136, 18263.00
1134.228, 18105.00
1135.319, 18192.00
1136.410, 17896.00
1137.501, 17790.00
1138.592, 17846.00
1139.683, 17588.00
1140.773, 17705.00
1141.864, 17578.00
1142.954, 17507.00
1144.044, 17434.00
1145.134, 17553.00
1146.224, 17348.00
1147.313, 17417.00
1148.402, 17316.00
1149.492, 17215.00
1150.581, 17251.00
1151.670, 17262.00
1152.758, 17322.00
1153.847, 17147.00
1154.935, 17390.00
1156.024, 17232.00
1157.112, 17084.00
1158.200, 17079.00
1159.287, 17229.00
1160.375, 17048.00
1161.462, 17174.00
1162.550, 17015.00
1163.637, 17050.00
1164.724, 17210.00
1165.810, 17041.00
1166.897, 17011.00
1167.983, 17020.00
1169.070, 17132.00
1170.156, 17141.00
1171.242, 17132.00
1172.327, 17162.38
1173.413, 17070.00
1174.499, 17158.00
1175.584, 17076.00
1176.669, 17092.00
1177.754, 17201.00
1178.839, 17107.00
1179.923, 17161.92
1181.008, 17199.00
1182.092, 17190.00
1183.176, 17085.00
1184.260, 17133.00
1185.344, 17133.00
1186.428, 17181.00
1187.511, 17065.00
1188.595, 17295.00
1189.678, 17154.00
1190.761, 17326.00
1191.843, 17137.00
1192.926, 17243.00
1194.009, 17302.00
1195.091, 17305.00
1196.173, 17215.00
1197.255, 17108.00
1198.337, 17783.00
1199.419, 18009.00
1200.500, 17488.00
1201.582, 17330.00
1202.663, 17144.00
1203.744, 17230.00
1204.825, 17318.00
1205.905, 17384.00
1206.986, 17553.00
1208.066, 17491.11
1209.146, 17235.00
1210.226, 17409.00
1211.306, 17366.00
1212.386, 17352.00
1213.466, 17388.00
1214.545, 17505.00
1215.624, 17411.00
1216.703, 17435.00
1217.782, 17610.00
1218.861, 17529.00
1219.939, 17669.00
1221.018, 17523.00
1222.096, 17490.00
1223.174, 17446.00
1224.252, 17450.00
1225.330, 17617.00
1226.407, 17627.00
1227.485, 17646.00
1228.562, 17485.00
1229.639, 17548.00
1230.716, 17648.00
1231.793, 17513.00
1232.869, 17624.00
1233.946, 17829.00
1235.022, 17685.00
1236.098, 17762.00
1237.174, 17589.00
1238.250, 17650.00
1239.325, 17804.00
1240.401, 17832.00
1241.476, 17623.00
1242.551, 17952.00
1243.626, 17740.00
1244.701, 17898.00
1245.776, 17890.00
1246.850, 17972.00
1247.924, 17870.00
1248.999, 17813.00
1250.073, 17930.00
1251.146, 18019.00
1252.220, 17946.00
1253.293, 17937.00
1254.367, 17992.00
1255.440, 18046.00
1256.513, 18059.00
1257.586, 18072.00
1258.658, 18159.00
1259.731, 18030.00
1260.803, 18094.00
1261.875, 17968.00
1262.947, 18036.00
1264.019, 18143.00
1265.091, 18199.00
1266.162, 17927.00
1267.234, 18230.00
1268.305, 18330.00
1269.376, 17929.00
1270.447, 18340.00
1271.517, 18169.00
1272.588, 18230.00
1273.658, 18037.00
1274.729, 18192.00
1275.799, 18164.00
1276.868, 18228.00
1277.938, 18298.00
1279.008, 18313.00
1280.077, 18398.00
1281.146, 18171.00
1282.215, 18211.00
1283.284, 18286.00
1284.353, 18398.00
1285.421, 18371.08
1286.490, 18169.00
1287.558, 18371.00
1288.626, 18242.00
1289.694, 18294.00
1290.762, 18421.00
1291.829, 18361.00
1292.897, 18441.00
1293.964, 18414.00
1295.031, 18351.00
1296.098, 18457.00
1297.165, 18442.00
1298.231, 18396.00
1299.298, 18418.00
1300.364, 18550.00
1301.430, 18586.00
1302.496, 18465.00
1303.562, 18603.00
1304.627, 18586.00
1305.693, 18652.00
1306.758, 18696.00
1307.823, 18663.00
1308.888, 18690.00
1309.953, 18566.00
1311.018, 18851.00
1312.082, 18682.00
1313.146, 18627.00
1314.210, 18742.00
1315.274, 18622.00
1316.338, 18955.00
1317.402, 18867.00
1318.465, 18767.00
1319.529, 18657.00
1320.592, 18639.00
1321.655, 18884.00
1322.718, 18806.00
1323.780, 18664.00
1324.843, 18917.00
1325.905, 18656.00
1326.967, 18710.00
1328.029, 18704.00
1329.091, 18885.00
1330.153, 18736.00
1331.214, 18773.00
1332.275, 18945.00
1333.337, 18835.00
1334.398, 18934.00
1335.458, 18948.00
1336.519, 19031.00
1337.580, 18771.00
1338.640, 18831.00
1339.700, 18846.00
1340.760, 18958.00
1341.820, 18964.00
1342.880, 18832.00
1343.939, 19019.00
1344.999, 19011.00
1346.058, 18772.00
1347.117, 18999.00
1348.176, 18837.00
1349.235, 19013.00
1350.293, 19030.00
1351.351, 18894.00
1352.410, 19076.00
1353.468, 18922.00
1354.526, 18878.00
1355.583, 18953.00
1356.641, 18963.00
1357.698, 19021.00
1358.756, 19042.00
1359.813, 19042.11
1360.869, 19018.99
1361.926, 19062.00
1362.983, 18956.00
1364.039, 19021.00
1365.095, 19073.00
1366.152, 19008.00
1367.207, 19000.00
1368.263, 18906.00
1369.319, 19062.00
1370.374, 19001.00
1371.430, 19211.00
1372.485, 19007.00
1373.540, 18954.00
1374.594, 19002.00
1375.649, 19035.00
1376.703, 19062.00
1377.758, 19065.00
1378.812, 19087.00
1379.866, 19244.00
1380.920, 19148.00
1381.973, 18979.00
1383.027, 19139.00
1384.080, 19098.00
1385.133, 19053.00
1386.186, 19038.00
1387.239, 19060.00
1388.291, 19136.00
1389.344, 18902.00
1390.396, 19152.00
1391.448, 19079.00
1392.500, 19192.00
1393.552, 18979.00
1394.604, 19073.00
1395.655, 19136.00
1396.707, 19146.00
1397.758, 19158.00
1398.809, 19209.00
1399.860, 18953.00
1400.910, 19229.00
1401.961, 19003.00
1403.011, 19241.00
1404.061, 19209.00
1405.111, 19281.00
1406.161, 19120.00
1407.211, 19227.00
1408.260, 19247.00
1409.310, 19256.00
1410.359, 19240.00
1411.408, 19337.00
1412.457, 19406.00
1413.506, 19252.00
1414.554, 19261.00
1415.603, 19493.00
1416.651, 19500.00
1417.699, 19388.00
1418.747, 19394.00
1419.794, 19357.00
1420.842, 19480.00
1421.889, 19566.00
1422.937, 19309.00
1423.984, 19620.00
1425.031, 19537.00
1426.077, 19760.00
1427.124, 19851.00
1428.170, 19741.00
1429.217, 19796.00
1430.263, 19922.00
1431.309, 20078.00
1432.354, 20101.00
1433.400, 20103.00
1434.445, 20494.00
1435.491, 20794.00
1436.536, 20604.00
1437.581, 20969.00
1438.625, 21354.00
1439.670, 21974.00
1440.714, 22057.00
1441.759, 22583.00
1442.803, 22544.00
1443.847, 22967.00
1444.890, 22957.00
1445.934, 22883.00
1446.978, 22652.00
1448.021, 22463.00
1449.064, 22025.00
1450.107, 21892.00
1451.150, 21832.00
1452.192, 21729.00
1453.235, 21634.00
1454.277, 21352.00
1455.319, 21276.00
1456.361, 21219.00
1457.403, 21183.00
1458.445, 21137.00
1459.486, 21052.00
1460.528, 21088.00
1461.569, 21004.00
1462.610, 21130.00
1463.651, 20994.00
1464.691, 21036.00
1465.732, 20999.00
1466.772, 20870.00
1467.812, 21011.00
1468.852, 21008.00
1469.892, 21024.00
1470.932, 20870.00
1471.971, 20994.00
1473.011, 21042.00
1474.050, 20856.00
1475.089, 20836.00
1476.128, 20828.00
1477.166, 20927.00
1478.205, 21066.00
1479.243, 21119.00
1480.282, 21021.00
1481.320, 20877.00
1482.357, 21002.00
1483.395, 20991.00
1484.433, 20862.00
1485.470, 21048.00
1486.507, 20891.00
1487.544, 20839.00
1488.581, 20913.00
1489.618, 20857.00
1490.655, 20880.00
1491.691, 20856.00
1492.727, 20815.00
1493.763, 20827.00
1494.799, 20866.00
1495.835, 20726.00
1496.871, 20831.00
1497.906, 20612.00
1498.941, 20751.00
1499.976, 20820.00
1501.011, 20897.00
1502.046, 20937.00
1503.081, 20721.00
1504.115, 20811.00
1505.149, 20886.00
1506.183, 20652.00
1507.217, 20856.00
1508.251, 20838.00
1509.285, 20772.00
1510.318, 20707.00
1511.352, 20852.00
1512.385, 20713.00
1513.418, 20926.00
1514.450, 20859.00
1515.483, 20937.00
1516.516, 21011.00
1517.548, 20950.00
1518.580, 21073.00
1519.612, 21032.00
1520.644, 21178.00
1521.675, 20998.00
1522.707, 20966.00
1523.738, 21046.00
1524.769, 20938.00
1525.800, 20810.00
1526.831, 20924.00
1527.862, 21236.00
1528.892, 21203.00
1529.923, 21157.00
1530.953, 21049.00
1531.983, 21178.00
1533.013, 21179.00
1534.042, 20966.00
1535.072, 21291.00
1536.101, 21275.00
1537.131, 21067.00
1538.160, 21143.00
1539.188, 21198.00
1540.217, 21337.00
1541.246, 21414.00
1542.274, 21406.00
1543.302, 21378.00
1544.330, 21413.07
1545.358, 21349.00
1546.386, 21438.00
1547.413, 21427.00
1548.441, 21471.00
1549.468, 21456.00
1550.495, 21423.00
1551.522, 21453.00
1552.549, 21358.00
1553.575, 21499.00
1554.602, 21399.00
1555.628, 21245.00
1556.654, 21383.00
1557.680, 21427.00
1558.706, 21593.00
1559.731, 21546.00
1560.757, 21389.00
1561.782, 21404.00
1562.807, 21309.00
1563.832, 21492.00
1564.857, 21586.00
1565.881, 21535.00
1566.906, 21640.00
1567.930, 21550.00
1568.954, 21600.80
1569.978, 21663.00
1571.002, 21625.00
1572.025, 21506.00
1573.049, 21456.00
1574.072, 21731.00
1575.095, 21546.00
1576.118, 21556.00
1577.141, 21459.00
##END=



