##NAMES=Magnesio-hastingsite
##RRUFFID=R070288
##IDEAL CHEMISTRY=NaCa_2_(Mg_4_Fe^3+^)Si_6_Al_2_O_22_(OH)_2_
##LOCALITY=Dallas Gem Mine (Gem Mine; Benitoite Mine), New Idria District, San Benito County, California, USA
##OWNER=RRUFF
##SOURCE=Michael Scott
##DESCRIPTION=Dark brown to black prismatic crystals frozen in albite
##STATUS=The identification of this mineral is confirmed by single-crystal X-ray diffraction and chemical analysis.
##URL=rruff.info/R070288
##MEASURED CHEMISTRY=(Na_0.51_[box]_0.33_K_0.16_)_Σ=1_(Ca_1.75_Na_0.25_)_Σ=2_(Mg_3.02_Fe^2+^_0.61_Ti_0.37_)_Σ=4_(Fe^3+^_0.73_Al_0.27_)_Σ=1_Si_5.84_Al_2.16_O_22_(OH)_2_; (OH) estimated by difference
##PIN_ID=M01310
##ORIENTATION=Laser parallel to c* (0 0 1). Fiducial mark perpendicular to laser is parallel to a [1 0 0]
87.63200, 10579.00
88.87300, 10621.00
90.11400, 10762.00
91.35400, 11060.00
92.59500, 10668.00
93.83500, 10718.00
95.07500, 10368.00
96.31500, 10136.00
97.55400, 10152.00
98.79400, 10117.00
100.0330, 10153.00
101.2720, 10020.00
102.5110, 10121.00
103.7500, 10265.00
104.9890, 10607.00
106.2270, 11372.00
107.4650, 11230.00
108.7040, 10979.00
109.9420, 10777.00
111.1790, 11513.82
112.4170, 11897.10
113.6540, 12970.00
114.8920, 13302.00
116.1290, 13492.00
117.3650, 13633.00
118.6020, 13755.00
119.8390, 13731.54
121.0750, 13687.52
122.3110, 13448.34
123.5470, 13015.36
124.7830, 12269.00
126.0190, 12101.00
127.2540, 11912.00
128.4900, 11910.00
129.7250, 11897.00
130.9600, 11757.00
132.1950, 11600.00
133.4290, 11434.00
134.6640, 11331.80
135.8980, 11370.71
137.1320, 11399.15
138.3660, 11419.15
139.6000, 11323.25
140.8340, 11439.88
142.0670, 11509.69
143.3000, 11603.85
144.5330, 11828.67
145.7660, 11890.59
146.9990, 12109.00
148.2320, 12275.00
149.4640, 12467.00
150.6960, 12931.72
151.9280, 13719.00
153.1600, 14164.00
154.3920, 15160.00
155.6230, 16239.00
156.8550, 17718.00
158.0860, 19135.00
159.3170, 20930.00
160.5480, 22334.00
161.7780, 23364.00
163.0090, 23901.00
164.2390, 23785.00
165.4690, 23007.00
166.6990, 22124.00
167.9290, 21170.00
169.1590, 20161.00
170.3880, 19177.00
171.6180, 18318.00
172.8470, 17694.00
174.0760, 17097.00
175.3040, 16822.00
176.5330, 16488.00
177.7610, 16421.00
178.9900, 16329.00
180.2180, 16378.00
181.4460, 16564.00
182.6730, 16692.00
183.9010, 16864.00
185.1280, 16936.00
186.3560, 16976.90
187.5830, 17040.00
188.8100, 16982.00
190.0360, 16901.00
191.2630, 16899.00
192.4890, 16837.00
193.7150, 16700.00
194.9410, 16539.00
196.1670, 16660.00
197.3930, 16581.00
198.6180, 16769.00
199.8440, 16702.00
201.0690, 16814.00
202.2940, 17109.00
203.5190, 17188.00
204.7430, 17549.00
205.9680, 17956.00
207.1920, 18527.00
208.4160, 19255.00
209.6400, 20029.00
210.8640, 21197.00
212.0880, 22243.00
213.3110, 23503.00
214.5340, 25144.43
215.7570, 27495.00
216.9800, 28857.00
218.2030, 31256.00
219.4260, 33599.00
220.6480, 35867.00
221.8700, 38065.00
223.0920, 39793.00
224.3140, 40576.00
225.5360, 40950.00
226.7580, 40277.00
227.9790, 39151.00
229.2000, 36958.00
230.4210, 34547.00
231.6420, 31797.00
232.8630, 29066.00
234.0830, 26601.00
235.3040, 24563.00
236.5240, 22845.00
237.7440, 21400.00
238.9640, 20060.00
240.1830, 18881.00
241.4030, 18117.00
242.6220, 17410.00
243.8410, 16883.00
245.0600, 16388.00
246.2790, 15963.00
247.4980, 15541.00
248.7160, 15208.00
249.9340, 14953.00
251.1530, 14795.00
252.3710, 14583.00
253.5880, 14404.00
254.8060, 14174.04
256.0230, 13980.00
257.2410, 13634.00
258.4580, 13587.00
259.6750, 13196.00
260.8910, 13314.00
262.1080, 12997.00
263.3240, 12995.00
264.5410, 12943.00
265.7570, 12670.00
266.9730, 12605.00
268.1880, 12667.00
269.4040, 12677.00
270.6190, 12833.00
271.8350, 12459.00
273.0500, 12497.00
274.2650, 12517.00
275.4790, 12294.00
276.6940, 12497.00
277.9080, 12530.00
279.1220, 12546.00
280.3360, 12497.00
281.5500, 12726.00
282.7640, 12843.00
283.9770, 12964.00
285.1910, 13109.00
286.4040, 13194.00
287.6170, 13284.00
288.8300, 13417.00
290.0420, 13667.00
291.2550, 13909.00
292.4670, 14058.00
293.6790, 14328.00
294.8910, 14397.00
296.1030, 14527.00
297.3150, 14602.00
298.5260, 14579.00
299.7380, 14577.00
300.9490, 14844.00
302.1600, 14923.00
303.3710, 14842.00
304.5810, 14613.00
305.7920, 14639.00
307.0020, 14830.00
308.2120, 14938.00
309.4220, 14962.81
310.6320, 14931.00
311.8410, 14982.00
313.0510, 14981.00
314.2600, 14909.00
315.4690, 15027.00
316.6780, 15054.00
317.8870, 15228.00
319.0950, 15261.00
320.3040, 15282.23
321.5120, 15324.00
322.7200, 15208.00
323.9280, 15190.00
325.1360, 14998.00
326.3430, 14899.00
327.5510, 15154.00
328.7580, 14960.00
329.9650, 14880.23
331.1720, 14894.00
332.3790, 14521.00
333.5850, 14535.00
334.7910, 14331.00
335.9980, 14378.00
337.2040, 14335.00
338.4100, 14188.00
339.6150, 14087.00
340.8210, 13934.00
342.0260, 13866.00
343.2310, 13841.00
344.4360, 13729.00
345.6410, 13763.00
346.8460, 13671.00
348.0500, 13508.00
349.2550, 13494.00
350.4590, 13492.00
351.6630, 13319.00
352.8670, 13318.00
354.0700, 13219.00
355.2740, 13185.00
356.4770, 13151.00
357.6800, 13196.00
358.8830, 13204.00
360.0860, 13321.00
361.2890, 13308.14
362.4910, 13323.00
363.6930, 13338.00
364.8960, 13371.00
366.0980, 13398.00
367.2990, 13419.17
368.5010, 13488.00
369.7020, 13443.00
370.9040, 13549.00
372.1050, 13518.45
373.3060, 13604.00
374.5070, 13593.00
375.7070, 13557.00
376.9080, 13558.00
378.1080, 13700.00
379.3080, 13561.00
380.5080, 13647.00
381.7080, 13535.00
382.9070, 13586.00
384.1070, 13412.00
385.3060, 13357.00
386.5050, 13334.00
387.7040, 13362.00
388.9030, 13281.00
390.1010, 13144.00
391.3000, 13057.00
392.4980, 12918.10
393.6960, 12794.56
394.8940, 12631.00
396.0920, 12489.00
397.2890, 12327.00
398.4870, 12077.00
399.6840, 12054.00
400.8810, 11992.00
402.0780, 11662.00
403.2750, 11783.00
404.4710, 11867.00
405.6680, 11690.00
406.8640, 11629.00
408.0600, 11716.00
409.2560, 11656.00
410.4520, 11579.00
411.6470, 11532.00
412.8430, 11425.00
414.0380, 11376.00
415.2330, 11302.44
416.4280, 11333.00
417.6220, 11159.00
418.8170, 11106.00
420.0110, 11019.00
421.2050, 10831.00
422.4000, 10834.00
423.5930, 10791.00
424.7870, 10497.00
425.9810, 10503.68
427.1740, 10415.29
428.3670, 10328.00
429.5600, 10317.00
430.7530, 10268.00
431.9460, 10156.00
433.1380, 10188.00
434.3310, 10104.00
435.5230, 10100.00
436.7150, 10118.00
437.9070, 9990.000
439.0980, 10030.00
440.2900, 10045.00
441.4810, 9991.000
442.6720, 9982.000
443.8630, 9908.000
445.0540, 9935.000
446.2450, 10056.00
447.4350, 10034.00
448.6260, 10024.00
449.8160, 10089.00
451.0060, 10053.97
452.1960, 10180.00
453.3850, 10002.00
454.5750, 10110.00
455.7640, 10010.00
456.9530, 10025.00
458.1420, 10076.00
459.3310, 9976.000
460.5200, 10086.00
461.7080, 10005.00
462.8970, 10069.00
464.0850, 9987.000
465.2730, 9962.000
466.4610, 10039.00
467.6480, 10081.00
468.8360, 9992.000
470.0230, 9897.000
471.2100, 9976.000
472.3970, 10003.00
473.5840, 9900.000
474.7710, 9810.000
475.9570, 9927.000
477.1440, 10025.00
478.3300, 10215.00
479.5160, 10031.00
480.7020, 9986.000
481.8870, 10125.00
483.0730, 10155.00
484.2580, 10109.00
485.4430, 10100.00
486.6280, 10181.00
487.8130, 10185.00
488.9980, 10196.00
490.1820, 10219.00
491.3660, 10192.00
492.5510, 10328.00
493.7350, 10403.00
494.9180, 10293.00
496.1020, 10410.00
497.2860, 10372.00
498.4690, 10454.00
499.6520, 10619.00
500.8350, 10675.00
502.0180, 10704.00
503.2000, 10790.00
504.3830, 10834.28
505.5650, 10876.00
506.7470, 10932.00
507.9290, 10974.00
509.1110, 10981.00
510.2930, 11101.00
511.4740, 11062.00
512.6560, 11213.00
513.8370, 11167.00
515.0180, 11273.00
516.1980, 11364.00
517.3790, 11473.00
518.5600, 11534.00
519.7400, 11511.00
520.9200, 11671.00
522.1000, 11736.00
523.2800, 11688.00
524.4590, 11926.00
525.6390, 11862.00
526.8180, 11903.00
527.9970, 12158.00
529.1760, 12236.00
530.3550, 12368.00
531.5340, 12449.00
532.7120, 12479.00
533.8910, 12406.00
535.0690, 12295.00
536.2470, 12328.00
537.4250, 12453.00
538.6020, 12571.00
539.7800, 12613.00
540.9570, 12637.51
542.1340, 12503.00
543.3110, 12548.00
544.4880, 12475.00
545.6650, 12310.00
546.8410, 12307.00
548.0170, 12253.03
549.1940, 12393.00
550.3690, 12230.00
551.5450, 12330.00
552.7210, 12324.00
553.8960, 12379.00
555.0720, 12188.00
556.2470, 12228.00
557.4220, 12253.00
558.5970, 12053.00
559.7710, 12051.00
560.9460, 12080.00
562.1200, 12204.00
563.2940, 11948.00
564.4680, 12058.00
565.6420, 11965.00
566.8160, 11868.00
567.9890, 11919.00
569.1630, 11964.00
570.3360, 11960.00
571.5090, 11875.00
572.6820, 11677.00
573.8540, 11512.00
575.0270, 11284.00
576.1990, 11024.00
577.3710, 10899.00
578.5430, 10546.00
579.7150, 10391.87
580.8870, 10343.00
582.0580, 9998.000
583.2300, 9882.000
584.4010, 9693.000
585.5720, 9720.000
586.7430, 9502.000
587.9130, 9421.000
589.0840, 9232.000
590.2540, 9037.000
591.4240, 9141.000
592.5940, 9073.000
593.7640, 9083.000
594.9340, 9047.000
596.1030, 9075.000
597.2730, 9065.070
598.4420, 9097.000
599.6110, 9114.000
600.7800, 9153.000
601.9490, 9278.000
603.1170, 9229.000
604.2850, 9357.000
605.4540, 9568.000
606.6220, 9475.000
607.7900, 9574.000
608.9570, 9639.000
610.1250, 9848.000
611.2920, 10093.00
612.4590, 10276.00
613.6260, 10457.06
614.7930, 10610.56
615.9600, 10749.00
617.1270, 10932.00
618.2930, 11136.05
619.4590, 11306.00
620.6250, 11630.00
621.7910, 11947.00
622.9570, 12301.00
624.1220, 12576.00
625.2880, 13174.00
626.4530, 13550.00
627.6180, 14253.00
628.7830, 14991.00
629.9480, 14904.00
631.1120, 15800.00
632.2770, 16402.00
633.4410, 17667.00
634.6050, 18331.00
635.7690, 18746.00
636.9330, 19610.00
638.0960, 20384.00
639.2600, 21516.00
640.4230, 22346.00
641.5860, 23305.00
642.7490, 24319.00
643.9120, 25269.53
645.0740, 26258.56
646.2370, 27240.00
647.3990, 28157.00
648.5610, 29016.00
649.7230, 29820.00
650.8850, 30364.00
652.0460, 31375.00
653.2080, 31831.00
654.3690, 32556.00
655.5300, 32881.00
656.6910, 33973.00
657.8520, 34293.00
659.0130, 35202.00
660.1730, 36070.00
661.3330, 35933.00
662.4930, 36405.00
663.6530, 36355.00
664.8130, 36419.00
665.9730, 35820.00
667.1320, 35204.00
668.2920, 34161.00
669.4510, 32985.00
670.6100, 31895.00
671.7680, 30753.00
672.9270, 29138.00
674.0860, 27846.00
675.2440, 26745.00
676.4020, 25292.00
677.5600, 24159.00
678.7180, 23195.00
679.8760, 22309.00
681.0330, 21927.00
682.1900, 21278.00
683.3480, 20964.00
684.5050, 20553.00
685.6610, 20113.00
686.8180, 19831.00
687.9750, 19423.00
689.1310, 18965.00
690.2870, 18655.00
691.4430, 17883.00
692.5990, 17227.54
693.7550, 17005.20
694.9100, 16641.39
696.0660, 16144.21
697.2210, 15031.10
698.3760, 14779.44
699.5310, 14222.55
700.6860, 13680.57
701.8400, 13632.15
702.9940, 12755.99
704.1490, 12756.97
705.3030, 12447.91
706.4570, 12322.46
707.6100, 12132.00
708.7640, 11863.00
709.9170, 11751.00
711.0710, 11637.00
712.2240, 11513.00
713.3770, 11362.00
714.5290, 11467.00
715.6820, 11217.00
716.8340, 11252.00
717.9870, 11155.00
719.1390, 10990.00
720.2910, 11125.00
721.4430, 11024.00
722.5940, 10993.00
723.7460, 11010.00
724.8970, 11001.00
726.0480, 10864.00
727.1990, 10947.00
728.3500, 10988.00
729.5000, 10939.00
730.6510, 11105.00
731.8010, 10874.00
732.9510, 11044.00
734.1010, 10915.00
735.2510, 10972.00
736.4010, 10793.00
737.5500, 10970.00
738.7000, 10923.48
739.8490, 10839.00
740.9980, 10851.00
742.1470, 10985.00
743.2950, 10703.00
744.4440, 10820.00
745.5920, 11072.00
746.7400, 11000.00
747.8880, 11006.00
749.0360, 10796.00
750.1840, 10882.00
751.3310, 11002.00
752.4790, 10965.00
753.6260, 10959.00
754.7730, 11176.00
755.9200, 11150.00
757.0670, 11179.00
758.2130, 11223.39
759.3600, 11266.03
760.5060, 11203.00
761.6520, 11402.00
762.7980, 11397.00
763.9440, 11457.00
765.0890, 11654.00
766.2350, 11623.00
767.3800, 11848.00
768.5250, 11806.00
769.6700, 11983.00
770.8150, 12206.00
771.9590, 12708.00
773.1040, 12807.00
774.2480, 12951.00
775.3920, 12888.00
776.5360, 12911.00
777.6800, 12987.00
778.8240, 13301.00
779.9670, 13536.00
781.1100, 13788.00
782.2540, 14053.60
783.3970, 14238.00
784.5390, 14526.00
785.6820, 14734.00
786.8240, 14910.00
787.9670, 14937.00
789.1090, 15038.00
790.2510, 15225.00
791.3930, 15541.00
792.5350, 15589.00
793.6760, 15614.00
794.8170, 15546.00
795.9590, 15634.12
797.1000, 15578.00
798.2410, 15729.00
799.3810, 15591.00
800.5220, 15594.00
801.6620, 15664.00
802.8030, 15354.00
803.9430, 15719.00
805.0820, 15457.00
806.2220, 15527.80
807.3620, 15449.64
808.5010, 15458.00
809.6410, 15331.00
810.7800, 15020.00
811.9190, 15295.00
813.0570, 15140.00
814.1960, 15312.00
815.3340, 15341.00
816.4730, 15112.00
817.6110, 15257.18
818.7490, 15140.51
819.8870, 15248.00
821.0240, 15134.00
822.1620, 15027.00
823.2990, 15219.00
824.4360, 15094.00
825.5730, 15012.00
826.7100, 15041.00
827.8470, 14945.00
828.9830, 14742.00
830.1200, 14713.00
831.2560, 14476.00
832.3920, 14474.00
833.5280, 14119.00
834.6630, 14127.00
835.7990, 13776.00
836.9340, 13499.00
838.0700, 13234.00
839.2050, 12964.00
840.3400, 12786.00
841.4740, 12425.00
842.6090, 12185.00
843.7430, 12029.00
844.8780, 11800.00
846.0120, 11622.00
847.1460, 11480.00
848.2790, 11367.00
849.4130, 11081.00
850.5460, 11040.00
851.6800, 10955.00
852.8130, 10706.00
853.9460, 10760.00
855.0790, 10666.00
856.2110, 10470.00
857.3440, 10576.00
858.4760, 10340.00
859.6080, 10441.00
860.7400, 10474.00
861.8720, 10375.00
863.0040, 10222.91
864.1350, 10278.21
865.2670, 10319.40
866.3980, 10347.85
867.5290, 10289.22
868.6600, 10370.76
869.7900, 10413.02
870.9210, 10465.33
872.0510, 10601.11
873.1820, 10617.38
874.3120, 10776.19
875.4420, 10894.97
876.5710, 11049.55
877.7010, 11068.00
878.8300, 11012.00
879.9600, 11210.00
881.0890, 11283.00
882.2180, 11536.00
883.3460, 11647.00
884.4750, 11617.00
885.6040, 11919.00
886.7320, 12015.00
887.8600, 12094.00
888.9880, 12323.00
890.1160, 12482.00
891.2430, 12656.00
892.3710, 12799.00
893.4980, 12931.00
894.6260, 13030.00
895.7530, 13195.88
896.8790, 13309.00
898.0060, 13436.00
899.1330, 13490.00
900.2590, 13455.00
901.3850, 13695.00
902.5110, 13838.00
903.6370, 13842.00
904.7630, 14108.00
905.8890, 14022.00
907.0140, 14009.00
908.1390, 14223.00
909.2640, 14079.00
910.3890, 14059.00
911.5140, 13801.00
912.6390, 13851.00
913.7630, 13954.00
914.8870, 13856.00
916.0120, 13575.00
917.1360, 13442.00
918.2590, 13304.00
919.3830, 13281.00
920.5070, 13060.00
921.6300, 12800.00
922.7530, 12818.00
923.8760, 12844.00
924.9990, 12560.00
926.1220, 12484.00
927.2440, 12572.00
928.3670, 12454.00
929.4890, 12354.00
930.6110, 12424.00
931.7330, 12255.00
932.8540, 12230.00
933.9760, 12152.00
935.0980, 12226.00
936.2190, 12287.00
937.3400, 12347.00
938.4610, 12376.00
939.5820, 12377.00
940.7020, 12307.00
941.8230, 12489.00
942.9430, 12433.00
944.0630, 12525.00
945.1830, 12464.00
946.3030, 12589.00
947.4230, 12648.00
948.5420, 12563.00
949.6610, 12901.00
950.7810, 12881.00
951.9000, 12874.00
953.0190, 13071.00
954.1370, 13077.00
955.2560, 13106.00
956.3740, 13281.00
957.4920, 13226.00
958.6110, 13522.00
959.7280, 13578.00
960.8460, 13557.00
961.9640, 13712.00
963.0810, 13550.00
964.1990, 13764.00
965.3160, 13944.00
966.4330, 13765.00
967.5490, 13976.00
968.6660, 13953.00
969.7830, 14097.00
970.8990, 13916.00
972.0150, 14267.00
973.1310, 14235.00
974.2470, 14353.00
975.3630, 14452.00
976.4780, 14339.00
977.5930, 14609.00
978.7090, 14614.00
979.8240, 14766.00
980.9390, 14703.00
982.0530, 14932.00
983.1680, 15100.00
984.2820, 15150.00
985.3970, 15350.00
986.5110, 15467.00
987.6250, 15458.00
988.7380, 15604.00
989.8520, 16004.00
990.9660, 16091.00
992.0790, 16180.00
993.1920, 16653.00
994.3050, 16936.00
995.4180, 16968.00
996.5300, 17679.00
997.6430, 17750.00
998.7550, 18181.00
999.8680, 18585.00
1000.980, 19053.00
1002.091, 19252.00
1003.203, 19716.00
1004.315, 19855.00
1005.426, 20364.00
1006.537, 20719.00
1007.648, 20865.00
1008.759, 21045.00
1009.870, 21127.00
1010.981, 21171.00
1012.091, 21238.00
1013.201, 21220.00
1014.312, 21217.00
1015.422, 21079.00
1016.531, 20973.00
1017.641, 20887.00
1018.751, 20668.00
1019.860, 20408.00
1020.969, 20201.00
1022.078, 19976.00
1023.187, 19786.00
1024.296, 19476.00
1025.404, 19253.17
1026.513, 18915.00
1027.621, 18706.00
1028.729, 18470.00
1029.837, 18139.00
1030.945, 17954.63
1032.052, 17614.00
1033.160, 17569.00
1034.267, 17251.00
1035.374, 17175.00
1036.481, 16748.00
1037.588, 16467.00
1038.695, 16403.00
1039.801, 16108.00
1040.907, 16044.00
1042.014, 15850.00
1043.120, 15609.00
1044.225, 15389.00
1045.331, 15311.00
1046.437, 15019.00
1047.542, 14996.00
1048.647, 14958.00
1049.752, 14458.00
1050.857, 14393.00
1051.962, 14189.00
1053.067, 14239.00
1054.171, 13789.00
1055.275, 13657.00
1056.380, 13676.00
1057.484, 13413.00
1058.587, 13159.00
1059.691, 13095.00
1060.795, 12829.00
1061.898, 12680.00
1063.001, 12477.00
1064.104, 12212.00
1065.207, 12048.00
1066.310, 11841.00
1067.412, 11663.00
1068.515, 11512.39
1069.617, 11346.36
1070.719, 11145.76
1071.821, 11059.41
1072.923, 10947.67
1074.024, 10812.29
1075.126, 10565.07
1076.227, 10475.10
1077.328, 10330.04
1078.429, 10188.10
1079.530, 10136.31
1080.631, 9934.358
1081.731, 9892.560
1082.831, 9794.702
1083.932, 9730.595
1085.032, 9611.079
1086.132, 9456.000
1087.231, 9284.000
1088.331, 9358.000
1089.430, 9162.000
1090.530, 9252.000
1091.629, 9004.000
1092.728, 9091.000
1093.826, 9073.312
1094.925, 9084.467
1096.023, 8877.000
1097.122, 8835.700
1098.220, 8631.000
1099.318, 8614.000
1100.416, 8637.000
1101.513, 8574.000
1102.611, 8570.628
1103.708, 8558.000
1104.806, 8478.000
1105.903, 8438.000
1107.000, 8300.000
1108.096, 8316.000
1109.193, 8356.000
1110.289, 8203.000
1111.386, 8145.000
1112.482, 8103.000
1113.578, 8110.000
1114.673, 8042.000
1115.769, 8019.000
1116.865, 7884.000
1117.960, 7959.000
1119.055, 7832.000
1120.150, 7874.000
1121.245, 7761.000
1122.340, 7733.000
1123.434, 7777.000
1124.529, 7710.000
1125.623, 7739.000
1126.717, 7667.000
1127.811, 7717.000
1128.905, 7630.000
1129.998, 7661.000
1131.092, 7589.000
1132.185, 7666.000
1133.278, 7506.000
1134.371, 7477.000
1135.464, 7566.000
1136.557, 7617.000
1137.649, 7549.000
1138.742, 7488.000
1139.834, 7523.000
1140.926, 7464.000
1142.018, 7542.000
1143.109, 7496.000
1144.201, 7558.000
1145.292, 7476.000
1146.384, 7367.000
1147.475, 7466.000
1148.566, 7414.009
1149.657, 7430.436
1150.747, 7416.000
1151.838, 7464.000
1152.928, 7372.000
1154.018, 7368.000
1155.108, 7438.000
1156.198, 7411.000
1157.288, 7334.000
1158.377, 7451.000
1159.467, 7377.000
1160.556, 7406.000
1161.645, 7410.000
1162.734, 7272.000
1163.823, 7407.000
1164.911, 7267.000
1166.000, 7432.000
1167.088, 7308.000
1168.176, 7222.000
1169.264, 7218.000
1170.352, 7210.000
1171.440, 7232.375
1172.527, 7320.000
1173.615, 7334.000
1174.702, 7367.000
1175.789, 7413.000
1176.876, 7283.000
1177.963, 7317.000
1179.049, 7423.000
1180.136, 7285.000
1181.222, 7276.000
1182.308, 7246.000
1183.394, 7310.000
1184.480, 7208.000
1185.566, 7377.000
1186.651, 7299.000
1187.736, 7435.000
1188.822, 7195.000
1189.907, 7302.000
1190.992, 7277.000
1192.076, 7291.000
1193.161, 7271.000
1194.245, 7301.000
1195.330, 7211.000
1196.414, 7301.000
1197.498, 7262.000
1198.581, 7349.000
1199.665, 7334.000
1200.749, 7359.879
1201.832, 7439.000
1202.915, 7335.000
1203.998, 7377.000
1205.081, 7217.000
1206.164, 7328.000
1207.246, 7318.000
1208.329, 7292.411
1209.411, 7233.000
1210.493, 7275.000
1211.575, 7390.000
1212.657, 7342.000
1213.738, 7349.000
1214.820, 7335.000
1215.901, 7284.000
1216.982, 7239.000
1218.063, 7377.000
1219.144, 7279.000
1220.225, 7367.147
1221.305, 7318.702
1222.386, 7298.364
1223.466, 7239.000
1224.546, 7282.000
1225.626, 7302.000
1226.706, 7359.000
1227.785, 7404.000
1228.865, 7334.000
1229.944, 7257.000
1231.023, 7382.000
1232.102, 7334.000
1233.181, 7218.000
1234.260, 7511.000
1235.338, 7344.000
1236.417, 7374.000
1237.495, 7533.000
1238.573, 7305.000
1239.651, 7395.000
1240.729, 7340.000
1241.806, 7385.000
1242.884, 7349.000
1243.961, 7298.000
1245.038, 7454.000
1246.115, 7345.000
1247.192, 7297.000
1248.269, 7394.000
1249.345, 7378.000
1250.421, 7421.000
1251.498, 7350.000
1252.574, 7268.000
1253.650, 7381.000
1254.725, 7204.000
1255.801, 7363.000
1256.876, 7393.000
1257.952, 7380.000
1259.027, 7464.000
1260.102, 7280.000
1261.177, 7420.000
1262.251, 7341.000
1263.326, 7459.000
1264.400, 7460.000
1265.474, 7380.000
1266.548, 7326.000
1267.622, 7456.000
1268.696, 7407.000
1269.770, 7419.000
1270.843, 7350.000
1271.916, 7359.000
1272.990, 7354.000
1274.063, 7375.000
1275.135, 7352.000
1276.208, 7450.000
1277.281, 7405.000
1278.353, 7346.000
1279.425, 7358.000
1280.497, 7472.000
1281.569, 7398.000
1282.641, 7432.000
1283.712, 7389.000
1284.784, 7325.000
1285.855, 7348.000
1286.926, 7353.678
1287.997, 7428.000
1289.068, 7421.000
1290.139, 7451.000
1291.209, 7458.000
1292.280, 7441.000
1293.350, 7434.000
1294.420, 7466.000
1295.490, 7458.958
1296.560, 7346.000
1297.629, 7458.000
1298.699, 7391.000
1299.768, 7336.000
1300.837, 7497.000
1301.906, 7442.000
1302.975, 7427.000
1304.043, 7550.000
1305.112, 7346.000
1306.180, 7467.000
1307.249, 7419.000
1308.317, 7315.000
1309.385, 7471.000
1310.452, 7432.000
1311.520, 7470.000
1312.587, 7537.000
1313.655, 7597.000
1314.722, 7390.000
1315.789, 7525.000
1316.856, 7477.000
1317.922, 7573.000
1318.989, 7475.000
1320.055, 7475.000
1321.121, 7482.000
1322.187, 7519.000
1323.253, 7466.000
1324.319, 7499.000
1325.385, 7464.000
1326.450, 7383.000
1327.515, 7414.000
1328.581, 7437.000
1329.646, 7393.000
1330.710, 7338.000
1331.775, 7530.000
1332.840, 7417.000
1333.904, 7421.000
1334.968, 7462.000
1336.032, 7395.000
1337.096, 7446.000
1338.160, 7438.000
1339.224, 7403.000
1340.287, 7486.000
1341.350, 7334.000
1342.414, 7586.000
1343.477, 7482.000
1344.539, 7543.000
1345.602, 7396.000
1346.665, 7559.000
1347.727, 7544.000
1348.789, 7491.000
1349.851, 7494.000
1350.913, 7477.313
1351.975, 7479.000
1353.037, 7497.000
1354.098, 7478.000
1355.160, 7546.000
1356.221, 7473.000
1357.282, 7529.000
1358.343, 7403.000
1359.403, 7478.000
1360.464, 7486.000
1361.524, 7578.000
1362.585, 7576.158
1363.645, 7424.000
1364.705, 7574.000
1365.765, 7520.000
1366.824, 7485.000
1367.884, 7549.000
1368.943, 7556.000
1370.002, 7567.000
1371.061, 7501.000
1372.120, 7493.000
1373.179, 7363.000
1374.237, 7518.000
1375.296, 7432.000
1376.354, 7600.000
1377.412, 7545.000
1378.470, 7515.000
1379.528, 7568.000
1380.586, 7491.000
1381.643, 7550.000
1382.701, 7457.000
1383.758, 7440.000
1384.815, 7476.000
1385.872, 7476.000
1386.929, 7459.000
1387.985, 7518.000
1389.042, 7487.404
1390.098, 7529.000
1391.154, 7453.000
1392.210, 7451.000
1393.266, 7403.000
1394.322, 7398.438
1395.377, 7431.320
1396.433, 7400.000
1397.488, 7494.000
1398.543, 7494.000
1399.598, 7468.000
1400.653, 7496.000
1401.707, 7484.000
1402.762, 7494.000
1403.816, 7482.000
1404.870, 7498.000
1405.924, 7554.000
1406.978, 7502.000
1408.032, 7489.000
1409.085, 7423.000
1410.139, 7482.000
1411.192, 7481.000
1412.245, 7410.000
1413.298, 7493.000
1414.351, 7444.000
1415.404, 7491.000
1416.456, 7478.000
1417.509, 7520.000
1418.561, 7508.000
1419.613, 7540.000
1420.665, 7467.000
1421.717, 7557.000
1422.768, 7470.000
1423.820, 7516.000
1424.871, 7489.000
1425.922, 7522.000
1426.973, 7451.000
1428.024, 7520.000
1429.075, 7523.000
1430.125, 7589.000
1431.175, 7557.000
1432.226, 7549.000
1433.276, 7481.000
1434.326, 7565.000
1435.376, 7553.000
1436.425, 7539.686
1437.475, 7676.000
1438.524, 7520.000
1439.573, 7558.000
1440.622, 7555.000
1441.671, 7627.000
1442.720, 7610.000
1443.768, 7508.000
1444.817, 7544.000
1445.865, 7530.000
1446.913, 7514.000
1447.961, 7576.000
1449.009, 7557.000
1450.057, 7669.000
1451.104, 7603.000
1452.152, 7621.000
1453.199, 7561.000
1454.246, 7577.000
1455.293, 7491.000
1456.339, 7605.000
1457.386, 7543.000
1458.433, 7640.000
1459.479, 7513.000
1460.525, 7538.000
1461.571, 7641.000
1462.617, 7509.000
1463.663, 7591.000
1464.708, 7620.000
1465.754, 7578.956
1466.799, 7566.000
1467.844, 7513.000
1468.889, 7507.802
1469.934, 7538.000
1470.978, 7506.000
1472.023, 7548.000
1473.067, 7589.000
1474.111, 7638.000
1475.155, 7624.534
1476.199, 7531.000
1477.243, 7610.000
1478.287, 7574.000
1479.330, 7610.000
1480.373, 7632.093
1481.417, 7633.207
1482.460, 7662.000
1483.502, 7657.000
1484.545, 7658.005
1485.588, 7653.000
1486.630, 7639.000
1487.672, 7683.616
1488.714, 7663.000
1489.756, 7753.000
1490.798, 7655.000
1491.840, 7631.000
1492.881, 7550.000
1493.923, 7623.000
1494.964, 7664.000
1496.005, 7583.000
1497.046, 7620.000
1498.087, 7636.000
1499.127, 7593.459
1500.168, 7750.000
1501.208, 7583.000
1502.248, 7568.000
1503.288, 7631.000
1504.328, 7550.000
1505.368, 7614.000
1506.407, 7578.000
1507.446, 7621.000
1508.486, 7540.000
1509.525, 7642.000
1510.564, 7576.000
1511.603, 7587.000
1512.641, 7592.000
1513.680, 7589.000
1514.718, 7645.000
1515.756, 7570.000
1516.794, 7685.000
1517.832, 7637.000
1518.870, 7552.000
1519.907, 7607.000
1520.945, 7649.000
1521.982, 7533.000
1523.019, 7564.000
1524.056, 7568.000
1525.093, 7547.000
1526.130, 7593.000
1527.166, 7509.000
1528.203, 7721.000
1529.239, 7551.000
1530.275, 7537.000
1531.311, 7660.000
1532.347, 7577.000
1533.383, 7646.000
1534.418, 7571.000
1535.453, 7620.000
1536.489, 7704.000
1537.524, 7560.000
1538.559, 7625.000
1539.593, 7613.000
1540.628, 7615.000
1541.662, 7630.168
1542.697, 7632.533
1543.731, 7630.000
1544.765, 7654.244
1545.799, 7664.030
1546.832, 7569.291
1547.866, 7654.803
1548.899, 7707.615
1549.933, 7729.417
1550.966, 7632.213
1551.999, 7684.892
1553.031, 7675.191
1554.064, 7661.360
1555.097, 7730.426
1556.129, 7642.056
1557.161, 7706.489
1558.193, 7707.625
1559.225, 7735.335
1560.257, 7700.300
1561.289, 7682.494
1562.320, 7724.172
1563.351, 7730.367
1564.383, 7709.000
1565.414, 7725.000
1566.444, 7727.062
1567.475, 7840.000
1568.506, 7695.000
1569.536, 7772.000
1570.566, 7732.000
1571.597, 7624.000
1572.627, 7710.000
1573.656, 7730.000
1574.686, 7634.000
1575.716, 7751.000
1576.745, 7598.000
1577.774, 7576.000
##END=



