##NAMES=Magnesio-hastingsite
##RRUFFID=R070288
##IDEAL CHEMISTRY=NaCa_2_(Mg_4_Fe^3+^)Si_6_Al_2_O_22_(OH)_2_
##LOCALITY=Dallas Gem Mine (Gem Mine; Benitoite Mine), New Idria District, San Benito County, California, USA
##OWNER=RRUFF
##SOURCE=Michael Scott
##DESCRIPTION=Dark brown to black prismatic crystals frozen in albite
##STATUS=The identification of this mineral is confirmed by single-crystal X-ray diffraction and chemical analysis.
##URL=rruff.info/R070288
##MEASURED CHEMISTRY=(Na_0.51_[box]_0.33_K_0.16_)_Σ=1_(Ca_1.75_Na_0.25_)_Σ=2_(Mg_3.02_Fe^2+^_0.61_Ti_0.37_)_Σ=4_(Fe^3+^_0.73_Al_0.27_)_Σ=1_Si_5.84_Al_2.16_O_22_(OH)_2_; (OH) estimated by difference
##PIN_ID=M01097
##ORIENTATION=Laser parallel to a* (1 0 0). Fiducial mark perpendicular to laser is parallel to b [0 1 0]
88.87300, 8615.000
90.11400, 9387.000
91.35400, 10247.00
92.59500, 9853.000
93.83500, 10053.00
95.07500, 10103.00
96.31500, 9816.000
97.55400, 9680.000
98.79400, 10234.00
100.0330, 10297.00
101.2720, 10119.00
102.5110, 10188.98
103.7500, 10630.81
104.9890, 11056.89
106.2270, 11467.72
107.4650, 11818.96
108.7040, 12247.48
109.9420, 12644.83
111.1790, 12956.00
112.4170, 13891.00
113.6540, 15221.00
114.8920, 15614.00
116.1290, 15974.00
117.3650, 15860.00
118.6020, 15531.00
119.8390, 15564.00
121.0750, 15033.00
122.3110, 15015.00
123.5470, 14518.00
124.7830, 13838.00
126.0190, 13481.00
127.2540, 13217.00
128.4900, 13089.82
129.7250, 13096.03
130.9600, 13086.47
132.1950, 13062.00
133.4290, 12944.00
134.6640, 12991.00
135.8980, 12980.97
137.1320, 13104.56
138.3660, 13212.40
139.6000, 13305.32
140.8340, 13396.10
142.0670, 13448.86
143.3000, 13547.00
144.5330, 13564.00
145.7660, 13624.00
146.9990, 13710.93
148.2320, 13827.00
149.4640, 13891.00
150.6960, 14007.00
151.9280, 14124.00
153.1600, 14279.39
154.3920, 14347.00
155.6230, 14441.43
156.8550, 14489.00
158.0860, 14559.00
159.3170, 14608.49
160.5480, 14578.01
161.7780, 14675.99
163.0090, 14658.04
164.2390, 14674.00
165.4690, 14435.00
166.6990, 14497.00
167.9290, 14516.00
169.1590, 14587.00
170.3880, 14703.00
171.6180, 14678.00
172.8470, 14621.00
174.0760, 14742.00
175.3040, 14715.00
176.5330, 14668.00
177.7610, 14776.00
178.9900, 14810.00
180.2180, 14734.00
181.4460, 14962.00
182.6730, 14971.00
183.9010, 15011.00
185.1280, 14872.00
186.3560, 14996.00
187.5830, 14960.00
188.8100, 14687.00
190.0360, 14729.00
191.2630, 14548.00
192.4890, 14377.00
193.7150, 14204.00
194.9410, 14013.00
196.1670, 13894.00
197.3930, 13827.00
198.6180, 13575.00
199.8440, 13410.00
201.0690, 13253.00
202.2940, 13237.00
203.5190, 12941.22
204.7430, 12856.14
205.9680, 12530.00
207.1920, 12498.00
208.4160, 12538.00
209.6400, 12252.00
210.8640, 12259.00
212.0880, 12002.00
213.3110, 11861.00
214.5340, 11923.00
215.7570, 12089.00
216.9800, 12078.00
218.2030, 12131.75
219.4260, 12073.00
220.6480, 12156.00
221.8700, 12180.00
223.0920, 12208.00
224.3140, 12053.00
225.5360, 11920.00
226.7580, 12077.00
227.9790, 11998.00
229.2000, 11985.00
230.4210, 11784.00
231.6420, 11867.00
232.8630, 11744.00
234.0830, 11880.00
235.3040, 11807.35
236.5240, 11805.44
237.7440, 11787.75
238.9640, 11755.16
240.1830, 11663.01
241.4030, 11647.77
242.6220, 11601.73
243.8410, 11554.42
245.0600, 11550.04
246.2790, 11466.55
247.4980, 11461.50
248.7160, 11495.00
249.9340, 11462.00
251.1530, 11438.00
252.3710, 11197.00
253.5880, 11179.00
254.8060, 11196.00
256.0230, 11052.00
257.2410, 11204.00
258.4580, 11025.00
259.6750, 11077.00
260.8910, 10988.00
262.1080, 10777.00
263.3240, 10862.00
264.5410, 10788.00
265.7570, 10853.00
266.9730, 10757.70
268.1880, 10836.00
269.4040, 10589.00
270.6190, 10611.00
271.8350, 10602.00
273.0500, 10654.00
274.2650, 10580.00
275.4790, 10650.00
276.6940, 10706.00
277.9080, 10591.00
279.1220, 10494.00
280.3360, 10620.00
281.5500, 10551.00
282.7640, 10635.00
283.9770, 10639.00
285.1910, 10530.00
286.4040, 10605.42
287.6170, 10557.50
288.8300, 10636.00
290.0420, 10577.00
291.2550, 10583.00
292.4670, 10677.00
293.6790, 10603.00
294.8910, 10733.00
296.1030, 10532.45
297.3150, 10609.43
298.5260, 10650.96
299.7380, 10658.92
300.9490, 10532.81
302.1600, 10579.83
303.3710, 10557.47
304.5810, 10532.26
305.7920, 10603.65
307.0020, 10497.05
308.2120, 10566.91
309.4220, 10566.32
310.6320, 10597.98
311.8410, 10559.83
313.0510, 10543.24
314.2600, 10596.49
315.4690, 10611.06
316.6780, 10564.88
317.8870, 10598.59
319.0950, 10448.00
320.3040, 10608.00
321.5120, 10416.00
322.7200, 10504.00
323.9280, 10472.00
325.1360, 10464.00
326.3430, 10475.00
327.5510, 10332.00
328.7580, 10268.00
329.9650, 10402.00
331.1720, 10363.00
332.3790, 10418.00
333.5850, 10478.00
334.7910, 10475.00
335.9980, 10303.00
337.2040, 10363.00
338.4100, 10264.00
339.6150, 10407.00
340.8210, 10352.21
342.0260, 10364.00
343.2310, 10307.00
344.4360, 10286.00
345.6410, 10220.00
346.8460, 10132.00
348.0500, 10162.00
349.2550, 10025.00
350.4590, 10230.00
351.6630, 10196.00
352.8670, 10275.00
354.0700, 10153.00
355.2740, 10243.00
356.4770, 10135.00
357.6800, 10269.00
358.8830, 10207.00
360.0860, 10297.00
361.2890, 10275.00
362.4910, 10371.00
363.6930, 10386.00
364.8960, 10505.00
366.0980, 10371.00
367.2990, 10560.00
368.5010, 10541.00
369.7020, 10491.00
370.9040, 10604.00
372.1050, 10445.00
373.3060, 10593.00
374.5070, 10681.00
375.7070, 10661.87
376.9080, 10708.02
378.1080, 10749.00
379.3080, 10712.00
380.5080, 10736.23
381.7080, 10758.64
382.9070, 10763.33
384.1070, 10751.23
385.3060, 10672.11
386.5050, 10679.55
387.7040, 10652.30
388.9030, 10655.05
390.1010, 10606.41
391.3000, 10570.95
392.4980, 10548.82
393.6960, 10535.98
394.8940, 10544.62
396.0920, 10496.00
397.2890, 10474.00
398.4870, 10485.00
399.6840, 10499.00
400.8810, 10442.00
402.0780, 10537.00
403.2750, 10608.00
404.4710, 10531.00
405.6680, 10551.74
406.8640, 10588.46
408.0600, 10611.83
409.2560, 10622.56
410.4520, 10582.79
411.6470, 10608.22
412.8430, 10607.53
414.0380, 10605.76
415.2330, 10640.37
416.4280, 10607.94
417.6220, 10732.00
418.8170, 10678.00
420.0110, 10751.00
421.2050, 10763.00
422.4000, 10714.00
423.5930, 10681.00
424.7870, 10603.00
425.9810, 10672.00
427.1740, 10558.00
428.3670, 10587.00
429.5600, 10504.00
430.7530, 10482.00
431.9460, 10407.97
433.1380, 10419.86
434.3310, 10413.99
435.5230, 10391.37
436.7150, 10301.71
437.9070, 10298.61
439.0980, 10260.84
440.2900, 10221.63
441.4810, 10230.75
442.6720, 10150.86
443.8630, 10159.20
445.0540, 10132.33
446.2450, 10121.57
447.4350, 10115.13
448.6260, 10064.90
449.8160, 10069.66
451.0060, 10057.64
452.1960, 9978.585
453.3850, 9986.106
454.5750, 9958.923
455.7640, 9930.331
456.9530, 9950.037
458.1420, 9880.745
459.3310, 9899.685
460.5200, 9883.404
461.7080, 9883.258
462.8970, 9848.190
464.0850, 9908.000
465.2730, 9767.000
466.4610, 9832.000
467.6480, 9839.000
468.8360, 9704.000
470.0230, 9840.000
471.2100, 9767.693
472.3970, 9824.712
473.5840, 9863.999
474.7710, 9886.506
475.9570, 9841.962
477.1440, 9883.996
478.3300, 9891.326
479.5160, 9897.233
480.7020, 9951.438
481.8870, 9996.370
483.0730, 9970.069
484.2580, 10141.00
485.4430, 10174.00
486.6280, 10265.00
487.8130, 10153.00
488.9980, 10366.00
490.1820, 10264.00
491.3660, 10486.00
492.5510, 10611.00
493.7350, 10599.00
494.9180, 10645.00
496.1020, 10801.00
497.2860, 10784.00
498.4690, 11000.00
499.6520, 11216.00
500.8350, 11003.00
502.0180, 11331.00
503.2000, 11418.00
504.3830, 11327.00
505.5650, 11569.00
506.7470, 11740.00
507.9290, 11818.00
509.1110, 12072.00
510.2930, 12039.00
511.4740, 12221.00
512.6560, 12327.00
513.8370, 12594.00
515.0180, 12687.00
516.1980, 12779.00
517.3790, 13022.00
518.5600, 13093.00
519.7400, 13392.00
520.9200, 13415.00
522.1000, 13604.00
523.2800, 13697.00
524.4590, 13781.00
525.6390, 13900.00
526.8180, 14225.00
527.9970, 14136.00
529.1760, 14371.00
530.3550, 14477.00
531.5340, 14493.00
532.7120, 14645.00
533.8910, 14759.00
535.0690, 14694.00
536.2470, 14954.00
537.4250, 14838.00
538.6020, 15095.00
539.7800, 15083.00
540.9570, 15103.88
542.1340, 15177.84
543.3110, 15139.00
544.4880, 15248.00
545.6650, 15253.23
546.8410, 15332.44
548.0170, 15385.83
549.1940, 15414.38
550.3690, 15367.79
551.5450, 15399.69
552.7210, 15388.82
553.8960, 15368.46
555.0720, 15388.31
556.2470, 15311.11
557.4220, 15314.07
558.5970, 15273.75
559.7710, 15241.53
560.9460, 15175.60
562.1200, 15043.00
563.2940, 14972.88
564.4680, 14866.75
565.6420, 14674.33
566.8160, 14549.23
567.9890, 14370.35
569.1630, 14170.66
570.3360, 14000.22
571.5090, 13721.57
572.6820, 13511.93
573.8540, 13248.10
575.0270, 13050.10
576.1990, 12845.00
577.3710, 12648.00
578.5430, 12325.00
579.7150, 12081.00
580.8870, 11963.00
582.0580, 11556.00
583.2300, 11472.00
584.4010, 11240.00
585.5720, 10987.00
586.7430, 10910.00
587.9130, 10827.00
589.0840, 10773.00
590.2540, 10511.00
591.4240, 10260.00
592.5940, 10188.00
593.7640, 10000.00
594.9340, 10025.00
596.1030, 9897.000
597.2730, 9920.000
598.4420, 9809.000
599.6110, 9835.000
600.7800, 9742.000
601.9490, 9851.000
603.1170, 9700.000
604.2850, 9712.000
605.4540, 9632.000
606.6220, 9861.000
607.7900, 9837.000
608.9570, 9770.000
610.1250, 9865.000
611.2920, 9771.000
612.4590, 9891.000
613.6260, 9852.000
614.7930, 9864.000
615.9600, 10013.00
617.1270, 10001.00
618.2930, 9980.000
619.4590, 10037.00
620.6250, 10100.00
621.7910, 10282.00
622.9570, 10331.00
624.1220, 10309.00
625.2880, 10367.00
626.4530, 10304.00
627.6180, 10577.00
628.7830, 10633.00
629.9480, 10498.00
631.1120, 10762.00
632.2770, 10761.00
633.4410, 10983.00
634.6050, 10920.00
635.7690, 11161.00
636.9330, 11160.00
638.0960, 11340.00
639.2600, 11522.00
640.4230, 11521.34
641.5860, 11685.13
642.7490, 11833.16
643.9120, 11966.27
645.0740, 12039.69
646.2370, 12190.16
647.3990, 12309.68
648.5610, 12427.94
649.7230, 12589.14
650.8850, 12671.22
652.0460, 12721.00
653.2080, 12965.00
654.3690, 13011.00
655.5300, 13074.00
656.6910, 13200.00
657.8520, 13236.00
659.0130, 13424.00
660.1730, 13525.00
661.3330, 13507.00
662.4930, 13636.00
663.6530, 13565.48
664.8130, 13581.67
665.9730, 13582.09
667.1320, 13567.62
668.2920, 13493.55
669.4510, 13503.00
670.6100, 13352.00
671.7680, 13342.78
672.9270, 13256.47
674.0860, 13154.40
675.2440, 13037.52
676.4020, 12861.05
677.5600, 12720.14
678.7180, 12760.49
679.8760, 12785.09
681.0330, 12794.76
682.1900, 12744.85
683.3480, 12771.89
684.5050, 12768.08
685.6610, 12763.01
686.8180, 13036.00
687.9750, 13042.00
689.1310, 13035.00
690.2870, 13181.00
691.4430, 13110.00
692.5990, 12931.00
693.7550, 12892.39
694.9100, 12804.23
696.0660, 12763.73
697.2210, 12707.87
698.3760, 12747.19
699.5310, 12761.13
700.6860, 12772.21
701.8400, 12735.73
702.9940, 12788.25
704.1490, 12822.00
705.3030, 12866.50
706.4570, 12965.96
707.6100, 12998.28
708.7640, 13122.65
709.9170, 13139.69
711.0710, 13233.74
712.2240, 13296.89
713.3770, 13358.78
714.5290, 13463.53
715.6820, 13520.39
716.8340, 13643.00
717.9870, 13761.00
719.1390, 13948.00
720.2910, 14095.00
721.4430, 14276.00
722.5940, 14379.36
723.7460, 14336.83
724.8970, 14444.78
726.0480, 14525.99
727.1990, 14581.62
728.3500, 14551.10
729.5000, 14619.54
730.6510, 14640.83
731.8010, 14655.04
732.9510, 14722.12
734.1010, 14676.58
735.2510, 14732.04
736.4010, 14739.71
737.5500, 14735.30
738.7000, 14782.59
739.8490, 14816.51
740.9980, 14837.79
742.1470, 14808.56
743.2950, 14844.54
744.4440, 14854.39
745.5920, 14863.16
746.7400, 14908.31
747.8880, 14886.42
749.0360, 14931.00
750.1840, 14949.04
751.3310, 15049.00
752.4790, 14910.46
753.6260, 14942.72
754.7730, 14959.21
755.9200, 14960.79
757.0670, 14902.78
758.2130, 14921.72
759.3600, 14909.82
760.5060, 14896.66
761.6520, 14983.00
762.7980, 15002.00
763.9440, 14924.00
765.0890, 14881.00
766.2350, 15049.00
767.3800, 15068.00
768.5250, 15201.00
769.6700, 15120.00
770.8150, 15266.00
771.9590, 15163.00
773.1040, 15342.00
774.2480, 15333.00
775.3920, 15411.00
776.5360, 15408.00
777.6800, 15491.00
778.8240, 15590.00
779.9670, 15686.00
781.1100, 15763.00
782.2540, 15758.00
783.3970, 15915.00
784.5390, 15975.00
785.6820, 16067.00
786.8240, 15975.00
787.9670, 16218.00
789.1090, 16195.61
790.2510, 16305.49
791.3930, 16374.14
792.5350, 16402.51
793.6760, 16340.36
794.8170, 16341.33
795.9590, 16284.09
797.1000, 16202.02
798.2410, 16144.78
799.3810, 16136.00
800.5220, 16086.97
801.6620, 16069.96
802.8030, 16031.90
803.9430, 15973.88
805.0820, 15845.62
806.2220, 15800.62
807.3620, 15717.69
808.5010, 15630.15
809.6410, 15587.59
810.7800, 15452.86
811.9190, 15403.11
813.0570, 15314.99
814.1960, 15239.66
815.3340, 15126.27
816.4730, 15020.33
817.6110, 14946.16
818.7490, 14824.00
819.8870, 14781.00
821.0240, 14614.00
822.1620, 14501.00
823.2990, 14417.00
824.4360, 14248.26
825.5730, 14171.00
826.7100, 13954.00
827.8470, 13919.00
828.9830, 13781.00
830.1200, 13445.00
831.2560, 13425.00
832.3920, 13424.00
833.5280, 13124.00
834.6630, 13043.00
835.7990, 12863.00
836.9340, 12737.00
838.0700, 12710.00
839.2050, 12430.00
840.3400, 12391.00
841.4740, 12298.00
842.6090, 12180.00
843.7430, 12154.83
844.8780, 12007.00
846.0120, 12064.00
847.1460, 11975.00
848.2790, 11919.00
849.4130, 11836.00
850.5460, 11940.00
851.6800, 11850.47
852.8130, 11845.00
853.9460, 11789.00
855.0790, 11726.00
856.2110, 11690.00
857.3440, 11676.79
858.4760, 11681.88
859.6080, 11679.00
860.7400, 11756.00
861.8720, 11733.59
863.0040, 11806.43
864.1350, 11863.48
865.2670, 11905.65
866.3980, 11888.19
867.5290, 11947.68
868.6600, 11976.33
869.7900, 12003.69
870.9210, 12074.01
872.0510, 12065.19
873.1820, 12134.83
874.3120, 12173.12
875.4420, 12225.75
876.5710, 12247.32
877.7010, 12278.50
878.8300, 12340.69
879.9600, 12385.73
881.0890, 12487.00
882.2180, 12502.81
883.3460, 12644.00
884.4750, 12614.00
885.6040, 12665.00
886.7320, 12704.01
887.8600, 12829.00
888.9880, 12793.49
890.1160, 12883.46
891.2430, 12946.39
892.3710, 12982.88
893.4980, 12967.72
894.6260, 12977.75
895.7530, 12952.34
896.8790, 12949.72
898.0060, 12870.05
899.1330, 12921.47
900.2590, 12903.55
901.3850, 12866.44
902.5110, 12752.72
903.6370, 12737.94
904.7630, 12683.50
905.8890, 12627.45
907.0140, 12626.62
908.1390, 12524.09
909.2640, 12487.66
910.3890, 12512.70
911.5140, 12517.46
912.6390, 12503.05
913.7630, 12412.05
914.8870, 12419.98
916.0120, 12388.24
917.1360, 12354.89
918.2590, 12376.76
919.3830, 12296.90
920.5070, 12317.87
921.6300, 12298.62
922.7530, 12288.00
923.8760, 12276.00
924.9990, 12271.85
926.1220, 12315.44
927.2440, 12348.93
928.3670, 12370.49
929.4890, 12380.82
930.6110, 12342.07
931.7330, 12369.94
932.8540, 12373.09
933.9760, 12376.59
935.0980, 12417.89
936.2190, 12393.56
937.3400, 12437.11
938.4610, 12455.53
939.5820, 12487.52
940.7020, 12494.61
941.8230, 12511.25
942.9430, 12547.00
944.0630, 12577.97
945.1830, 12594.02
946.3030, 12550.49
947.4230, 12583.90
948.5420, 12586.47
949.6610, 12587.77
950.7810, 12632.01
951.9000, 12573.00
953.0190, 12537.00
954.1370, 12512.00
955.2560, 12553.00
956.3740, 12477.00
957.4920, 12558.00
958.6110, 12545.68
959.7280, 12494.23
960.8460, 12552.00
961.9640, 12423.00
963.0810, 12364.00
964.1990, 12391.00
965.3160, 12315.87
966.4330, 12422.00
967.5490, 12292.00
968.6660, 12315.00
969.7830, 12350.00
970.8990, 12212.13
972.0150, 12241.09
973.1310, 12251.41
974.2470, 12244.19
975.3630, 12161.99
976.4780, 12180.36
977.5930, 12160.71
978.7090, 12141.06
979.8240, 12178.24
980.9390, 12115.34
982.0530, 12154.91
983.1680, 12155.85
984.2820, 12176.84
985.3970, 12186.00
986.5110, 12172.00
987.6250, 12194.00
988.7380, 12211.96
989.8520, 12293.00
990.9660, 12251.00
992.0790, 12269.00
993.1920, 12295.00
994.3050, 12243.00
995.4180, 12284.00
996.5300, 12301.49
997.6430, 12336.00
998.7550, 12378.00
999.8680, 12431.00
1000.980, 12486.00
1002.091, 12425.00
1003.203, 12407.00
1004.315, 12510.00
1005.426, 12522.47
1006.537, 12574.72
1007.648, 12605.59
1008.759, 12616.23
1009.870, 12546.08
1010.981, 12580.26
1012.091, 12572.63
1013.201, 12563.29
1014.312, 12612.15
1015.422, 12553.75
1016.531, 12601.69
1017.641, 12607.18
1018.751, 12632.10
1019.860, 12614.94
1020.969, 12610.78
1022.078, 12648.71
1023.187, 12636.00
1024.296, 12621.00
1025.404, 12642.97
1026.513, 12590.45
1027.621, 12615.10
1028.729, 12617.38
1029.837, 12530.28
1030.945, 12558.59
1032.052, 12540.66
1033.160, 12520.82
1034.267, 12565.39
1035.374, 12491.29
1036.481, 12534.84
1037.588, 12531.42
1038.695, 12549.50
1039.801, 12521.04
1040.907, 12506.95
1042.014, 12539.42
1043.120, 12546.11
1044.225, 12515.42
1045.331, 12440.80
1046.437, 12465.11
1047.542, 12449.78
1048.647, 12432.82
1049.752, 12471.06
1050.857, 12407.59
1051.962, 12444.96
1053.067, 12442.07
1054.171, 12457.61
1055.275, 12433.26
1056.380, 12398.00
1057.484, 12335.00
1058.587, 12423.78
1059.691, 12402.92
1060.795, 12461.00
1061.898, 12451.00
1063.001, 12445.12
1064.104, 12441.44
1065.207, 12412.00
1066.310, 12409.00
1067.412, 12377.35
1068.515, 12394.00
1069.617, 12279.00
1070.719, 12238.00
1071.821, 12185.00
1072.923, 12261.00
1074.024, 12216.96
1075.126, 12260.00
1076.227, 12224.00
1077.328, 12177.00
1078.429, 12188.00
1079.530, 12130.03
1080.631, 12100.22
1081.731, 12044.00
1082.831, 11994.00
1083.932, 11944.00
1085.032, 11839.00
1086.132, 11854.23
1087.231, 11865.55
1088.331, 11836.00
1089.430, 11929.00
1090.530, 11875.00
1091.629, 11810.00
1092.728, 11846.00
1093.826, 11676.00
1094.925, 11624.00
1096.023, 11726.00
1097.122, 11600.00
1098.220, 11708.00
1099.318, 11495.00
1100.416, 11682.00
1101.513, 11458.00
1102.611, 11533.00
1103.708, 11520.00
1104.806, 11452.00
1105.903, 11471.00
1107.000, 11464.00
1108.096, 11393.00
1109.193, 11274.00
1110.289, 11419.00
1111.386, 11270.00
1112.482, 11130.00
1113.578, 11218.00
1114.673, 11271.00
1115.769, 11374.00
1116.865, 11351.00
1117.960, 11350.41
1119.055, 11241.00
1120.150, 11254.00
1121.245, 11140.00
1122.340, 11066.38
1123.434, 11216.00
1124.529, 11047.00
1125.623, 11054.00
1126.717, 11217.00
1127.811, 11105.07
1128.905, 11032.00
1129.998, 11084.00
1131.092, 11006.00
1132.185, 10990.00
1133.278, 10944.00
1134.371, 10907.15
1135.464, 10908.67
1136.557, 10884.00
1137.649, 10866.00
1138.742, 10934.00
1139.834, 10823.00
1140.926, 10771.00
1142.018, 10879.00
1143.109, 10936.00
1144.201, 10919.00
1145.292, 10882.00
1146.384, 10806.00
1147.475, 10862.00
1148.566, 10870.00
1149.657, 10915.00
1150.747, 10899.00
1151.838, 10695.00
1152.928, 10772.00
1154.018, 10783.00
1155.108, 10887.00
1156.198, 10816.00
1157.288, 10747.00
1158.377, 10784.00
1159.467, 10745.00
1160.556, 10914.00
1161.645, 10853.00
1162.734, 10769.00
1163.823, 10738.00
1164.911, 10608.00
1166.000, 10786.00
1167.088, 10820.00
1168.176, 10645.00
1169.264, 10833.00
1170.352, 10674.00
1171.440, 10674.00
1172.527, 10764.00
1173.615, 10797.00
1174.702, 10728.00
1175.789, 10728.00
1176.876, 10890.00
1177.963, 10872.00
1179.049, 10788.00
1180.136, 10904.00
1181.222, 10778.00
1182.308, 10755.00
1183.394, 10707.00
1184.480, 10737.00
1185.566, 10659.00
1186.651, 10770.00
1187.736, 10788.00
1188.822, 10807.00
1189.907, 10674.00
1190.992, 10742.00
1192.076, 10817.00
1193.161, 10685.00
1194.245, 10876.00
1195.330, 10716.00
1196.414, 10722.00
1197.498, 10718.00
1198.581, 10781.00
1199.665, 10838.00
1200.749, 10760.00
1201.832, 10744.00
1202.915, 10879.00
1203.998, 10954.00
1205.081, 10702.00
1206.164, 10814.00
1207.246, 10776.00
1208.329, 10840.00
1209.411, 10760.00
1210.493, 10852.00
1211.575, 10954.00
1212.657, 10800.00
1213.738, 10859.00
1214.820, 10672.00
1215.901, 10875.00
1216.982, 10908.00
1218.063, 10818.00
1219.144, 10791.00
1220.225, 10957.00
1221.305, 10948.00
1222.386, 10946.32
1223.466, 10851.00
1224.546, 10895.00
1225.626, 10938.00
1226.706, 10907.91
1227.785, 10923.00
1228.865, 10938.31
1229.944, 10880.00
1231.023, 10937.00
1232.102, 10973.00
1233.181, 10914.00
1234.260, 10714.00
1235.338, 10959.00
1236.417, 10797.00
1237.495, 10861.00
1238.573, 11004.00
1239.651, 10964.00
1240.729, 10803.00
1241.806, 11020.00
1242.884, 10914.78
1243.961, 10956.00
1245.038, 10976.00
1246.115, 10897.00
1247.192, 11046.00
1248.269, 10961.00
1249.345, 10996.00
1250.421, 10856.00
1251.498, 11053.00
1252.574, 10892.00
1253.650, 11027.00
1254.725, 10859.68
1255.801, 10971.83
1256.876, 11036.69
1257.952, 11056.81
1259.027, 10898.16
1260.102, 10970.35
1261.177, 10950.03
1262.251, 10925.91
1263.326, 11030.58
1264.400, 10897.93
1265.474, 11000.56
1266.548, 11009.27
1267.622, 11060.96
1268.696, 11019.58
1269.770, 11006.94
1270.843, 11087.41
1271.916, 11116.33
1272.990, 11064.23
1274.063, 11118.65
1275.135, 10982.74
1276.208, 11013.85
1277.281, 11117.02
1278.353, 11069.59
1279.425, 11125.71
1280.497, 11142.39
1281.569, 10979.85
1282.641, 11129.00
1283.712, 11143.35
1284.784, 11019.30
1285.855, 11157.76
1286.926, 11052.78
1287.997, 11034.70
1289.068, 11082.01
1290.139, 11061.15
1291.209, 11147.77
1292.280, 11130.84
1293.350, 11104.67
1294.420, 11118.86
1295.490, 11095.82
1296.560, 11130.68
1297.629, 11097.73
1298.699, 11136.85
1299.768, 11192.30
1300.837, 11122.68
1301.906, 11122.42
1302.975, 11207.03
1304.043, 11256.17
1305.112, 11271.75
1306.180, 11153.26
1307.249, 11207.90
1308.317, 11193.16
1309.385, 11175.57
1310.452, 11254.57
1311.520, 11155.58
1312.587, 11233.04
1313.655, 11240.07
1314.722, 11279.34
1315.789, 11248.80
1316.856, 11239.81
1317.922, 11300.66
1318.989, 11322.85
1320.055, 11284.26
1321.121, 11325.58
1322.187, 11224.14
1323.253, 11247.97
1324.319, 11325.84
1325.385, 11290.77
1326.450, 11333.35
1327.515, 11346.36
1328.581, 11224.95
1329.646, 11337.31
1330.710, 11348.56
1331.775, 11256.02
1332.840, 11360.36
1333.904, 11282.13
1334.968, 11269.06
1336.032, 11197.71
1337.096, 11335.92
1338.160, 11415.35
1339.224, 11439.17
1340.287, 11240.78
1341.350, 11329.32
1342.414, 11302.87
1343.477, 11271.71
1344.539, 11400.62
1345.602, 11234.56
1346.665, 11360.93
1347.727, 11370.57
1348.789, 11433.63
1349.851, 11381.00
1350.913, 11364.11
1351.975, 11462.95
1353.037, 11497.70
1354.098, 11431.75
1355.160, 11498.21
1356.221, 11328.10
1357.282, 11365.58
1358.343, 11492.62
1359.403, 11432.49
1360.464, 11501.06
1361.524, 11520.61
1362.585, 11317.39
1363.645, 11501.59
1364.705, 11518.25
1365.765, 11362.87
1366.824, 11533.79
1367.884, 11402.12
1368.943, 11378.46
1370.002, 11436.08
1371.061, 11408.97
1372.120, 11515.45
1373.179, 11493.23
1374.237, 11459.50
1375.296, 11475.97
1376.354, 11350.23
1377.412, 11488.29
1378.470, 11446.16
1379.528, 11493.60
1380.586, 11561.34
1381.643, 11473.62
1382.701, 11550.48
1383.758, 11372.11
1384.815, 11407.30
1385.872, 11419.50
1386.929, 11568.19
1387.985, 11391.07
1389.042, 11420.32
1390.098, 11537.45
1391.154, 11531.62
1392.210, 11577.20
1393.266, 11470.59
1394.322, 11506.95
1395.377, 11503.90
1396.433, 11637.03
1397.488, 11662.65
1398.543, 11558.62
1399.598, 11455.14
1400.653, 11598.06
1401.707, 11507.44
1402.762, 11542.81
1403.816, 11448.05
1404.870, 11465.65
1405.924, 11481.47
1406.978, 11554.88
1408.032, 11453.65
1409.085, 11578.95
1410.139, 11573.33
1411.192, 11606.27
1412.245, 11634.92
1413.298, 11487.86
1414.351, 11484.84
1415.404, 11687.92
1416.456, 11576.69
1417.509, 11528.89
1418.561, 11526.19
1419.613, 11736.33
1420.665, 11748.64
1421.717, 11524.48
1422.768, 11725.23
1423.820, 11664.57
1424.871, 11681.60
1425.922, 11670.28
1426.973, 11739.00
1428.024, 11579.00
1429.075, 11650.22
1430.125, 11652.69
1431.175, 11523.00
1432.226, 11744.00
1433.276, 11615.00
1434.326, 11748.00
1435.376, 11667.00
1436.425, 11661.00
1437.475, 11808.00
1438.524, 11580.00
1439.573, 11725.00
1440.622, 11687.00
1441.671, 11786.00
1442.720, 11708.00
1443.768, 11731.00
1444.817, 11839.00
1445.865, 11759.00
1446.913, 11717.00
1447.961, 11719.00
1449.009, 11708.72
1450.057, 11856.00
1451.104, 11778.00
1452.152, 11767.00
1453.199, 11850.00
1454.246, 11790.00
1455.293, 11840.00
1456.339, 11779.00
1457.386, 11877.00
1458.433, 11773.00
1459.479, 11822.00
1460.525, 11774.00
1461.571, 11702.00
1462.617, 11951.00
1463.663, 11920.00
1464.708, 11663.00
1465.754, 11879.00
1466.799, 11816.00
1467.844, 11835.00
1468.889, 11870.00
1469.934, 11893.00
1470.978, 11919.00
1472.023, 11903.98
1473.067, 11941.00
1474.111, 11876.00
1475.155, 11861.00
1476.199, 11885.00
1477.243, 11888.00
1478.287, 11812.00
1479.330, 11783.00
1480.373, 11943.00
1481.417, 11757.00
1482.460, 11832.00
1483.502, 12017.00
1484.545, 11823.00
1485.588, 11765.00
1486.630, 11928.00
1487.672, 11740.00
1488.714, 11871.00
1489.756, 11935.00
1490.798, 11969.00
1491.840, 12077.00
1492.881, 11812.00
1493.923, 11986.00
1494.964, 11893.00
1496.005, 11884.00
1497.046, 11915.44
1498.087, 12000.21
1499.127, 12049.52
1500.168, 12065.27
1501.208, 11946.94
1502.248, 12001.74
1503.288, 11987.16
1504.328, 11969.73
1505.368, 12048.90
1506.407, 11950.07
1507.446, 12027.71
1508.486, 12034.90
1509.525, 12074.33
1510.564, 12043.95
1511.603, 12035.14
1512.641, 12096.15
1513.680, 12118.50
1514.718, 12080.08
1515.756, 12121.56
1516.794, 12020.28
1517.832, 12044.28
1518.870, 12122.31
1519.907, 11949.00
1520.945, 12066.00
1521.982, 11917.00
1523.019, 12136.00
1524.056, 12027.55
1525.093, 12191.00
1526.130, 11986.00
1527.166, 11963.00
1528.203, 12095.00
1529.239, 12052.79
1530.275, 12121.00
1531.311, 12013.08
1532.347, 12176.38
1533.383, 12268.75
1534.418, 12294.00
1535.453, 12051.10
1536.489, 12154.46
1537.524, 12119.06
1538.559, 12077.96
1539.593, 12230.05
1540.628, 12026.16
1541.662, 12175.19
1542.697, 12183.33
1543.731, 12255.96
1544.765, 12188.96
1545.799, 12165.09
1546.832, 12280.88
1547.866, 12319.34
1548.899, 12236.27
1549.933, 12313.00
1550.966, 12104.22
1551.999, 12145.97
1553.031, 12295.82
1554.064, 12219.77
1555.097, 12299.04
1556.129, 12319.16
1557.161, 12070.44
1558.193, 12289.25
1559.225, 12305.88
1560.257, 12114.89
1561.289, 12317.68
1562.320, 12155.31
1563.351, 12123.29
1564.383, 12189.35
1565.414, 12153.16
1566.444, 12278.18
1567.475, 12247.89
1568.506, 12203.73
1569.536, 12220.12
1570.566, 12193.47
1571.597, 12228.06
1572.627, 12173.74
1573.656, 12227.52
1574.686, 12209.00
1575.716, 12201.00
1576.745, 12219.00
1577.774, 12181.00
##END=



