##NAMES=Magnesite
##RRUFFID=R050676
##IDEAL CHEMISTRY=MgCO_3_
##LOCALITY=Tyrol, Austria
##OWNER=RRUFF
##SOURCE=University of Arizona Mineral Museum
##DESCRIPTION=Brown rhombohedral crystals
##STATUS=The identification of this mineral has been confirmed by X-ray diffraction and chemical analysis
##URL=rruff.info/R050676
##MEASURED CHEMISTRY=(Mg_0.87_Fe^2+^_0.12_Ca_0.01_)_Î£=1_CO_3_; trace amounts of Mn and Cd; CO_2_ estimated by difference
##PIN_ID=M00629
##ORIENTATION=Laser parallel to -a* (-1 0 0). Fiducial mark perpendicular to laser is parallel to c [0 0 1]
88.33800, 10193.00
89.57500, 10276.00
90.81200, 10279.00
92.04900, 10320.00
93.28600, 10146.00
94.52300, 10304.00
95.75900, 10198.00
96.99500, 10044.00
98.23100, 10196.00
99.46700, 10206.00
100.7030, 10415.00
101.9390, 10361.00
103.1740, 10261.00
104.4090, 10553.00
105.6440, 10621.00
106.8790, 10524.00
108.1140, 10268.00
109.3490, 10150.00
110.5830, 10245.00
111.8180, 10227.00
113.0520, 10160.00
114.2860, 10347.00
115.5200, 10817.00
116.7530, 10592.00
117.9870, 10612.00
119.2200, 10725.00
120.4530, 11755.00
121.6860, 11847.00
122.9190, 11786.00
124.1520, 11009.00
125.3850, 10460.00
126.6170, 10161.00
127.8490, 9885.000
129.0810, 10101.00
130.3130, 9904.000
131.5450, 9973.000
132.7770, 9851.000
134.0080, 9977.000
135.2390, 10016.00
136.4710, 10045.00
137.7020, 9985.000
138.9320, 9972.000
140.1630, 9920.000
141.3930, 9949.000
142.6240, 9921.000
143.8540, 10108.00
145.0840, 10137.00
146.3140, 10131.00
147.5440, 10206.00
148.7730, 10152.00
150.0020, 10125.00
151.2320, 10101.00
152.4610, 10193.00
153.6900, 10147.00
154.9180, 10227.00
156.1470, 10236.00
157.3750, 10163.00
158.6040, 10245.00
159.8320, 10146.00
161.0600, 10203.00
162.2870, 10242.88
163.5150, 10288.00
164.7420, 10344.00
165.9700, 10421.00
167.1970, 10455.00
168.4240, 10486.00
169.6510, 10424.00
170.8770, 10499.00
172.1040, 10488.00
173.3300, 10537.00
174.5560, 10575.00
175.7820, 10601.00
177.0080, 10665.00
178.2340, 10883.00
179.4590, 10710.00
180.6850, 10950.00
181.9100, 10927.00
183.1350, 10816.00
184.3600, 11124.00
185.5850, 11156.00
186.8090, 11321.00
188.0340, 11308.00
189.2580, 11618.00
190.4820, 11561.00
191.7060, 11931.00
192.9300, 12276.00
194.1530, 12426.00
195.3770, 12974.00
196.6000, 13430.00
197.8230, 14108.00
199.0460, 15061.00
200.2690, 15851.00
201.4910, 17072.00
202.7140, 18712.00
203.9360, 20576.00
205.1580, 23127.00
206.3800, 25992.00
207.6020, 29155.00
208.8240, 32073.00
210.0450, 33418.00
211.2670, 32187.00
212.4880, 29353.00
213.7090, 25280.00
214.9300, 21437.00
216.1510, 18377.00
217.3710, 16063.00
218.5920, 14544.00
219.8120, 13452.00
221.0320, 12789.00
222.2520, 12463.00
223.4720, 11949.00
224.6910, 11574.00
225.9110, 11576.00
227.1300, 11449.00
228.3490, 11245.00
229.5680, 11382.00
230.7870, 11327.00
232.0050, 11277.00
233.2240, 11402.00
234.4420, 11164.00
235.6600, 11445.00
236.8780, 11440.00
238.0960, 11283.00
239.3140, 11250.00
240.5310, 11181.24
241.7490, 11300.00
242.9660, 11119.00
244.1830, 11297.00
245.4000, 11420.00
246.6160, 11263.00
247.8330, 11275.00
249.0490, 11371.00
250.2660, 11367.00
251.4820, 11370.00
252.6980, 11400.00
253.9130, 11696.00
255.1290, 11523.00
256.3440, 11674.00
257.5600, 11515.00
258.7750, 11492.00
259.9900, 11545.00
261.2040, 11530.00
262.4190, 11732.00
263.6330, 11963.00
264.8480, 11686.00
266.0620, 11929.00
267.2760, 11889.00
268.4900, 11998.00
269.7030, 11764.00
270.9170, 11966.00
272.1300, 11930.00
273.3430, 12205.00
274.5560, 12032.00
275.7690, 12228.00
276.9820, 12071.00
278.1940, 12231.00
279.4070, 12353.00
280.6190, 12430.00
281.8310, 12400.00
283.0430, 12439.00
284.2550, 12447.00
285.4660, 12358.00
286.6770, 12617.00
287.8890, 12795.00
289.1000, 12569.00
290.3110, 12907.00
291.5210, 12999.00
292.7320, 13001.00
293.9420, 13240.00
295.1530, 13273.00
296.3630, 13294.00
297.5730, 13548.00
298.7830, 13931.00
299.9920, 14184.00
301.2020, 14641.49
302.4110, 15639.00
303.6200, 15717.00
304.8290, 15990.00
306.0380, 16837.00
307.2470, 17954.00
308.4550, 19608.00
309.6630, 21467.00
310.8720, 24435.00
312.0800, 28055.00
313.2880, 31969.00
314.4950, 37595.00
315.7030, 44058.00
316.9100, 52451.00
318.1170, 62333.00
319.3240, 74403.00
320.5310, 87946.00
321.7380, 101748.0
322.9450, 114556.0
324.1510, 123267.0
325.3570, 123627.0
326.5630, 116243.0
327.7690, 102843.0
328.9750, 86591.00
330.1810, 70907.00
331.3860, 56852.00
332.5910, 45942.00
333.7960, 37645.00
335.0010, 31821.00
336.2060, 27457.00
337.4110, 24115.00
338.6150, 22082.00
339.8200, 20487.00
341.0240, 19421.00
342.2280, 18249.00
343.4320, 17567.00
344.6350, 16518.00
345.8390, 16366.00
347.0420, 15786.00
348.2450, 15451.00
349.4480, 15085.00
350.6510, 15019.00
351.8540, 14518.00
353.0560, 14436.00
354.2590, 14261.00
355.4610, 14124.00
356.6630, 14082.90
357.8650, 14135.00
359.0670, 13940.00
360.2680, 13846.00
361.4700, 13640.00
362.6710, 13723.00
363.8720, 13397.00
365.0730, 13688.00
366.2740, 13492.00
367.4740, 13582.00
368.6750, 13528.00
369.8750, 13563.00
371.0750, 13472.00
372.2750, 13819.00
373.4750, 13396.00
374.6740, 13426.00
375.8740, 13392.00
377.0730, 13076.00
378.2720, 13336.00
379.4710, 13364.00
380.6700, 13162.00
381.8690, 13117.00
383.0670, 13063.28
384.2660, 13253.00
385.4640, 13063.00
386.6620, 13099.00
387.8600, 13335.00
389.0570, 13192.00
390.2550, 13144.00
391.4520, 13201.00
392.6490, 13124.00
393.8460, 13209.00
395.0430, 13045.00
396.2400, 12998.00
397.4370, 13032.00
398.6330, 12961.00
399.8290, 13048.00
401.0250, 12958.00
402.2210, 12935.00
403.4170, 12917.02
404.6130, 12886.27
405.8080, 12896.00
407.0030, 12830.00
408.1980, 12957.00
409.3930, 12852.00
410.5880, 12928.00
411.7830, 12794.00
412.9770, 12874.00
414.1720, 12985.00
415.3660, 12850.00
416.5600, 12928.00
417.7530, 12798.00
418.9470, 12856.00
420.1410, 12955.00
421.3340, 12709.00
422.5270, 12939.00
423.7200, 12862.00
424.9130, 12800.00
426.1060, 12842.00
427.2980, 12774.00
428.4900, 13021.00
429.6830, 12670.00
430.8750, 12777.00
432.0670, 13015.00
433.2580, 12853.00
434.4500, 12780.00
435.6410, 13102.00
436.8320, 13018.00
438.0240, 13119.00
439.2140, 12953.00
440.4050, 13053.00
441.5960, 12908.00
442.7860, 13081.00
443.9760, 13018.00
445.1670, 13046.00
446.3560, 13236.00
447.5460, 13032.00
448.7360, 13279.00
449.9250, 12978.00
451.1150, 13058.00
452.3040, 13085.00
453.4930, 13144.00
454.6810, 13134.00
455.8700, 13144.00
457.0590, 13190.66
458.2470, 13131.00
459.4350, 13241.00
460.6230, 13490.00
461.8110, 13477.00
462.9980, 13530.00
464.1860, 13549.00
465.3730, 13500.00
466.5600, 13475.00
467.7470, 13558.00
468.9340, 13596.00
470.1210, 13609.00
471.3080, 13580.00
472.4940, 13588.00
473.6800, 14029.00
474.8660, 14090.00
476.0520, 13944.00
477.2380, 14066.00
478.4230, 14022.00
479.6090, 14030.00
480.7940, 14152.00
481.9790, 14237.00
483.1640, 14422.00
484.3490, 14384.00
485.5330, 14341.00
486.7180, 14394.00
487.9020, 14667.00
489.0860, 14487.00
490.2700, 14659.00
491.4540, 14903.00
492.6370, 14789.00
493.8210, 14902.00
495.0040, 14931.00
496.1870, 15005.00
497.3700, 15031.00
498.5530, 14897.00
499.7360, 15064.00
500.9180, 15074.00
502.1000, 15305.00
503.2830, 15054.00
504.4650, 15395.00
505.6460, 15322.00
506.8280, 15197.00
508.0100, 15540.00
509.1910, 15278.00
510.3720, 15204.00
511.5530, 15350.00
512.7340, 15331.00
513.9150, 15522.00
515.0950, 15304.00
516.2760, 15158.00
517.4560, 15144.00
518.6360, 15463.00
519.8160, 15363.00
520.9950, 15330.00
522.1750, 15114.00
523.3540, 15234.00
524.5340, 15109.00
525.7130, 15222.00
526.8920, 15170.00
528.0700, 15182.00
529.2490, 15025.00
530.4270, 14768.00
531.6060, 15001.00
532.7840, 14843.00
533.9620, 14792.00
535.1390, 15091.00
536.3170, 14991.00
537.4940, 14698.00
538.6720, 14700.00
539.8490, 14775.00
541.0260, 14594.00
542.2030, 14800.00
543.3790, 14568.00
544.5560, 14787.00
545.7320, 14574.00
546.9080, 14613.00
548.0840, 14751.00
549.2600, 14638.00
550.4360, 14422.00
551.6110, 14645.00
552.7860, 14554.00
553.9620, 14702.00
555.1370, 14543.00
556.3110, 14527.00
557.4860, 14603.00
558.6610, 14557.00
559.8350, 14511.00
561.0090, 14425.00
562.1830, 14455.00
563.3570, 14681.00
564.5310, 14500.00
565.7040, 14549.00
566.8780, 14572.00
568.0510, 14295.00
569.2240, 14335.00
570.3970, 14695.00
571.5700, 14413.00
572.7420, 14592.00
573.9150, 14479.00
575.0870, 14546.00
576.2590, 14472.00
577.4310, 14415.00
578.6030, 14228.00
579.7740, 14290.00
580.9460, 14507.00
582.1170, 14427.00
583.2880, 14304.00
584.4590, 14478.00
585.6300, 14441.00
586.8010, 14466.00
587.9710, 14516.46
589.1410, 14435.00
590.3110, 14505.00
591.4810, 14411.00
592.6510, 14311.00
593.8210, 14640.00
594.9900, 14552.00
596.1600, 14651.00
597.3290, 14577.00
598.4980, 14145.00
599.6670, 14689.00
600.8350, 14263.00
602.0040, 14483.00
603.1720, 14475.00
604.3400, 14502.00
605.5080, 14549.00
606.6760, 14397.00
607.8440, 14521.00
609.0120, 14644.00
610.1790, 14571.00
611.3460, 14698.00
612.5130, 14604.00
613.6800, 14503.00
614.8470, 14646.00
616.0130, 14550.00
617.1800, 14664.00
618.3460, 14876.00
619.5120, 14507.00
620.6780, 14713.00
621.8440, 14751.00
623.0090, 14865.00
624.1750, 14773.00
625.3400, 15017.00
626.5050, 14816.00
627.6700, 15182.00
628.8350, 14627.00
629.9990, 14633.00
631.1640, 14857.00
632.3280, 14850.00
633.4920, 14900.00
634.6560, 14734.00
635.8200, 14958.00
636.9840, 14921.00
638.1470, 14852.00
639.3100, 15020.00
640.4730, 14933.00
641.6360, 15154.00
642.7990, 15084.00
643.9620, 14851.00
645.1240, 15242.00
646.2870, 14964.00
647.4490, 15243.00
648.6110, 15267.00
649.7730, 14953.00
650.9340, 15257.00
652.0960, 15091.00
653.2570, 15168.00
654.4180, 15099.00
655.5790, 15046.00
656.7400, 15147.00
657.9010, 14955.00
659.0620, 15172.00
660.2220, 15310.00
661.3820, 15117.00
662.5420, 15275.78
663.7020, 15387.00
664.8620, 15324.00
666.0210, 15320.00
667.1810, 15392.00
668.3400, 15452.00
669.4990, 15166.00
670.6580, 15344.00
671.8170, 15349.00
672.9750, 15463.00
674.1340, 15192.00
675.2920, 15296.00
676.4500, 15339.00
677.6080, 15456.00
678.7660, 15469.82
679.9230, 15570.00
681.0810, 15465.00
682.2380, 15474.00
683.3950, 15387.00
684.5520, 15494.00
685.7090, 15340.00
686.8660, 15549.00
688.0220, 15658.00
689.1780, 15440.00
690.3340, 15493.00
691.4900, 15395.00
692.6460, 15715.00
693.8020, 15808.00
694.9570, 15792.00
696.1130, 15640.00
697.2680, 15899.00
698.4230, 15929.00
699.5780, 15894.00
700.7320, 16011.00
701.8870, 16013.00
703.0410, 16049.92
704.1950, 15990.00
705.3490, 16133.00
706.5030, 16251.00
707.6570, 16328.00
708.8110, 16575.00
709.9640, 16526.00
711.1170, 16575.00
712.2700, 16542.00
713.4230, 16730.63
714.5760, 17128.00
715.7280, 17222.00
716.8810, 17557.00
718.0330, 17972.00
719.1850, 18003.00
720.3370, 18190.00
721.4890, 18626.00
722.6400, 18649.00
723.7920, 19130.00
724.9430, 19699.00
726.0940, 20414.00
727.2450, 20780.00
728.3960, 21374.00
729.5460, 22475.00
730.6970, 23018.00
731.8470, 24211.00
732.9970, 24867.00
734.1470, 25958.00
735.2970, 26628.00
736.4460, 27588.00
737.5960, 27470.00
738.7450, 27751.00
739.8940, 27556.00
741.0430, 26745.00
742.1920, 26141.00
743.3410, 24646.00
744.4890, 23830.00
745.6370, 22902.00
746.7850, 21778.00
747.9330, 21063.00
749.0810, 20269.00
750.2290, 19815.00
751.3760, 19224.00
752.5240, 18657.00
753.6710, 18481.00
754.8180, 17914.00
755.9650, 17548.00
757.1110, 17406.00
758.2580, 17043.00
759.4040, 16912.00
760.5510, 16833.00
761.6970, 16665.00
762.8420, 16561.40
763.9880, 16443.94
765.1340, 16336.00
766.2790, 16220.00
767.4240, 16149.00
768.5690, 16062.00
769.7140, 16214.00
770.8590, 15918.00
772.0030, 15813.00
773.1480, 16030.00
774.2920, 15739.00
775.4360, 15896.00
776.5800, 16047.00
777.7240, 16100.00
778.8670, 15944.00
780.0110, 15971.00
781.1540, 16147.00
782.2970, 15835.00
783.4400, 16290.00
784.5830, 16445.00
785.7250, 16180.00
786.8680, 16225.00
788.0100, 16375.00
789.1520, 16146.00
790.2940, 16388.00
791.4360, 16369.00
792.5780, 16572.00
793.7190, 16497.00
794.8600, 16553.00
796.0010, 16605.00
797.1420, 16550.25
798.2830, 16458.00
799.4240, 16436.00
800.5640, 16433.00
801.7050, 16247.00
802.8450, 16731.00
803.9850, 16770.00
805.1250, 16499.00
806.2640, 16719.00
807.4040, 16397.00
808.5430, 16620.00
809.6820, 16745.00
810.8210, 16530.00
811.9600, 16767.00
813.0990, 16699.00
814.2370, 16647.00
815.3760, 16713.00
816.5140, 16691.00
817.6520, 16630.00
818.7900, 16656.00
819.9270, 16772.00
821.0650, 16962.00
822.2020, 16714.00
823.3390, 16835.00
824.4760, 16774.00
825.6130, 16899.00
826.7500, 17071.00
827.8870, 16859.00
829.0230, 16709.00
830.1590, 16983.00
831.2950, 16813.00
832.4310, 16889.00
833.5670, 17284.00
834.7030, 17226.00
835.8380, 16812.00
836.9730, 16984.00
838.1080, 17171.00
839.2430, 17108.00
840.3780, 17209.00
841.5130, 17321.00
842.6470, 17150.00
843.7810, 17360.00
844.9150, 17284.00
846.0490, 17156.00
847.1830, 17610.00
848.3170, 17406.00
849.4500, 17354.00
850.5830, 17437.00
851.7160, 17420.00
852.8490, 17564.00
853.9820, 17603.00
855.1150, 17544.00
856.2470, 17456.00
857.3800, 17672.00
858.5120, 17598.00
859.6440, 17450.00
860.7760, 17593.00
861.9070, 17724.00
863.0390, 17901.00
864.1700, 17776.00
865.3010, 17754.00
866.4320, 17724.00
867.5630, 17647.00
868.6940, 17997.00
869.8240, 18108.00
870.9540, 18209.00
872.0850, 18323.00
873.2150, 18698.00
874.3450, 18650.00
875.4740, 19036.00
876.6040, 18994.00
877.7330, 18762.00
878.8620, 19077.00
879.9910, 19052.00
881.1200, 19156.00
882.2490, 18805.00
883.3770, 18534.00
884.5060, 18056.00
885.6340, 18120.00
886.7620, 18163.00
887.8900, 18120.00
889.0180, 17944.00
890.1450, 18070.00
891.2730, 17999.00
892.4000, 18131.00
893.5270, 18171.00
894.6540, 18036.00
895.7810, 18193.00
896.9070, 18035.00
898.0340, 18249.00
899.1600, 18133.00
900.2860, 17980.00
901.4120, 18315.00
902.5380, 18291.00
903.6630, 18161.00
904.7890, 18086.00
905.9140, 18143.00
907.0390, 18197.00
908.1640, 18274.00
909.2890, 18283.00
910.4130, 18357.00
911.5380, 18284.00
912.6620, 18464.00
913.7860, 18163.00
914.9100, 18311.00
916.0340, 18391.00
917.1580, 18424.00
918.2810, 18491.74
919.4040, 18529.84
920.5280, 18519.00
921.6510, 18604.00
922.7730, 18569.00
923.8960, 18604.97
925.0180, 18475.00
926.1410, 18572.00
927.2630, 18383.00
928.3850, 18472.00
929.5070, 18680.00
930.6280, 18502.00
931.7500, 18642.00
932.8710, 18655.00
933.9920, 18505.00
935.1130, 18634.00
936.2340, 18827.00
937.3550, 18601.00
938.4760, 18611.00
939.5960, 18736.00
940.7160, 19007.00
941.8360, 18858.00
942.9560, 18918.00
944.0760, 18716.00
945.1950, 18984.00
946.3150, 18763.00
947.4340, 19053.00
948.5530, 18958.00
949.6720, 18939.00
950.7900, 19047.52
951.9090, 18981.00
953.0270, 19042.00
954.1460, 19130.00
955.2640, 18974.00
956.3820, 19204.00
957.4990, 19130.00
958.6170, 19271.00
959.7340, 19130.00
960.8520, 19423.00
961.9690, 19346.19
963.0860, 19130.00
964.2020, 19200.00
965.3190, 19426.00
966.4350, 19068.00
967.5520, 19148.00
968.6680, 19270.00
969.7840, 19198.00
970.8990, 19482.00
972.0150, 18939.00
973.1310, 19418.00
974.2460, 19433.00
975.3610, 19316.00
976.4760, 19678.00
977.5910, 19387.00
978.7050, 19370.00
979.8200, 19418.00
980.9340, 19571.00
982.0480, 19352.00
983.1620, 19331.00
984.2760, 19504.00
985.3900, 19563.00
986.5030, 19456.00
987.6160, 19558.00
988.7300, 19322.00
989.8430, 19611.00
990.9550, 19671.00
992.0680, 19633.00
993.1810, 19496.00
994.2930, 19491.00
995.4050, 19511.00
996.5170, 19749.00
997.6290, 19823.00
998.7410, 20018.00
999.8520, 19928.00
1000.964, 19824.00
1002.075, 20251.00
1003.186, 19837.00
1004.297, 20085.00
1005.407, 19949.00
1006.518, 19885.00
1007.628, 19944.00
1008.738, 19731.00
1009.848, 19809.00
1010.958, 19668.00
1012.068, 19613.00
1013.178, 19652.00
1014.287, 19733.00
1015.396, 19788.00
1016.505, 19782.00
1017.614, 19940.00
1018.723, 19657.00
1019.831, 19886.00
1020.940, 20123.00
1022.048, 19709.00
1023.156, 20210.00
1024.264, 20089.00
1025.372, 20085.00
1026.479, 20084.00
1027.587, 20300.00
1028.694, 20339.00
1029.801, 20535.00
1030.908, 20607.00
1032.015, 20761.00
1033.121, 20802.00
1034.228, 20895.00
1035.334, 20934.00
1036.440, 21051.15
1037.546, 21148.98
1038.652, 21373.00
1039.758, 21412.00
1040.863, 21752.00
1041.968, 21968.00
1043.074, 21863.00
1044.178, 22271.00
1045.283, 22570.00
1046.388, 22570.00
1047.492, 22737.00
1048.597, 23231.00
1049.701, 23525.00
1050.805, 23661.00
1051.909, 23903.00
1053.012, 24228.00
1054.116, 24640.00
1055.219, 24953.00
1056.322, 25560.00
1057.425, 26016.62
1058.528, 26493.00
1059.631, 27179.00
1060.733, 27727.00
1061.836, 28439.00
1062.938, 29306.00
1064.040, 29997.00
1065.142, 31208.00
1066.243, 32435.00
1067.345, 33776.00
1068.446, 36443.00
1069.547, 38855.00
1070.648, 40881.00
1071.749, 43077.00
1072.850, 45624.11
1073.951, 48039.00
1075.051, 51369.00
1076.151, 55530.00
1077.251, 59931.00
1078.351, 65874.00
1079.451, 72983.00
1080.550, 81121.00
1081.650, 92034.00
1082.749, 104452.0
1083.848, 119896.0
1084.947, 138728.0
1086.046, 161690.0
1087.144, 188436.0
1088.243, 218744.0
1089.341, 254056.0
1090.439, 288771.0
1091.537, 323283.0
1092.635, 350069.0
1093.732, 366866.0
1094.830, 369092.0
1095.927, 356136.0
1097.024, 334097.0
1098.121, 302411.0
1099.218, 269478.0
1100.314, 236642.0
1101.411, 205934.0
1102.507, 178061.0
1103.603, 153423.0
1104.699, 132004.0
1105.795, 112774.0
1106.890, 97654.00
1107.986, 84850.00
1109.081, 74038.00
1110.176, 65403.00
1111.271, 58097.00
1112.366, 52626.00
1113.461, 47904.00
1114.555, 43872.00
1115.649, 40433.00
1116.744, 37967.00
1117.838, 35855.00
1118.931, 33864.00
1120.025, 32633.00
1121.119, 31080.00
1122.212, 29955.00
1123.305, 29243.00
1124.398, 28471.00
1125.491, 27930.00
1126.584, 27112.00
1127.676, 26828.00
1128.768, 26260.00
1129.861, 25651.00
1130.953, 25309.00
1132.044, 25156.00
1133.136, 25025.00
1134.228, 24686.00
1135.319, 24503.00
1136.410, 24251.00
1137.501, 23960.00
1138.592, 23781.00
1139.683, 23702.00
1140.773, 23540.00
1141.864, 23543.00
1142.954, 23396.15
1144.044, 23300.00
1145.134, 23193.00
1146.224, 23223.00
1147.313, 23176.00
1148.402, 23264.00
1149.492, 23064.00
1150.581, 22829.00
1151.670, 23088.00
1152.758, 23070.00
1153.847, 22690.00
1154.935, 22630.00
1156.024, 22850.00
1157.112, 22837.00
1158.200, 22764.00
1159.287, 22858.00
1160.375, 22820.00
1161.462, 22769.00
1162.550, 22772.00
1163.637, 22641.00
1164.724, 22829.00
1165.810, 22700.00
1166.897, 22582.00
1167.983, 22701.00
1169.070, 22777.00
1170.156, 22835.00
1171.242, 22832.00
1172.327, 22678.00
1173.413, 22681.00
1174.499, 22867.00
1175.584, 22611.00
1176.669, 22907.00
1177.754, 22678.00
1178.839, 22803.00
1179.923, 22775.00
1181.008, 22720.00
1182.092, 22783.00
1183.176, 22703.00
1184.260, 22739.60
1185.344, 22768.00
1186.428, 22779.00
1187.511, 22730.00
1188.595, 22744.00
1189.678, 22854.00
1190.761, 23011.00
1191.843, 22811.00
1192.926, 22663.00
1194.009, 22659.00
1195.091, 22826.00
1196.173, 22984.00
1197.255, 22904.00
1198.337, 22756.00
1199.419, 23163.00
1200.500, 22987.00
1201.582, 22992.00
1202.663, 23038.00
1203.744, 23002.00
1204.825, 23219.00
1205.905, 23145.91
1206.986, 23319.00
1208.066, 23087.00
1209.146, 23140.00
1210.226, 23039.00
1211.306, 23139.00
1212.386, 23302.00
1213.466, 23034.00
1214.545, 23205.00
1215.624, 23207.00
1216.703, 22905.00
1217.782, 23118.00
1218.861, 23287.00
1219.939, 23238.00
1221.018, 23258.00
1222.096, 23109.00
1223.174, 23106.00
1224.252, 23119.00
1225.330, 23558.00
1226.407, 23146.00
1227.485, 23585.00
1228.562, 23176.00
1229.639, 23344.00
1230.716, 23412.00
1231.793, 23346.00
1232.869, 23523.99
1233.946, 23683.00
1235.022, 23670.00
1236.098, 23591.00
1237.174, 23494.00
1238.250, 23618.00
1239.325, 23590.00
1240.401, 23757.00
1241.476, 23601.00
1242.551, 23646.19
1243.626, 23850.00
1244.701, 23584.00
1245.776, 23705.00
1246.850, 23659.00
1247.924, 23564.00
1248.999, 23681.00
1250.073, 23711.00
1251.146, 23785.00
1252.220, 23845.00
1253.293, 23907.00
1254.367, 23898.78
1255.440, 24039.00
1256.513, 23882.00
1257.586, 23842.00
1258.658, 23885.00
1259.731, 23941.00
1260.803, 24068.00
1261.875, 23872.00
1262.947, 24085.00
1264.019, 23914.00
1265.091, 23963.00
1266.162, 24046.00
1267.234, 24022.33
1268.305, 24344.00
1269.376, 24059.00
1270.447, 24152.00
1271.517, 24025.00
1272.588, 24565.00
1273.658, 24176.00
1274.729, 24473.00
1275.799, 24577.00
1276.868, 24125.00
1277.938, 24101.00
1279.008, 24336.00
1280.077, 24560.00
1281.146, 24131.00
1282.215, 24542.00
1283.284, 24380.00
1284.353, 24607.00
1285.421, 24555.85
1286.490, 24299.00
1287.558, 24449.00
1288.626, 24552.00
1289.694, 24646.00
1290.762, 24662.00
1291.829, 24437.00
1292.897, 24399.00
1293.964, 24430.00
1295.031, 24491.00
1296.098, 24447.00
1297.165, 24646.00
1298.231, 24462.00
1299.298, 24576.00
1300.364, 24625.00
1301.430, 24595.00
1302.496, 24499.00
1303.562, 24764.00
1304.627, 24673.00
1305.693, 24823.00
1306.758, 24891.00
1307.823, 24957.00
1308.888, 24701.00
1309.953, 24915.00
1311.018, 24779.84
1312.082, 25022.00
1313.146, 24713.00
1314.210, 24866.00
1315.274, 24935.00
1316.338, 24935.00
1317.402, 24946.00
1318.465, 24994.00
1319.529, 25004.00
1320.592, 25058.00
1321.655, 25248.00
1322.718, 24924.00
1323.780, 25142.00
1324.843, 25101.00
1325.905, 24915.00
1326.967, 25054.00
1328.029, 24869.00
1329.091, 24938.00
1330.153, 24969.00
1331.214, 25178.00
1332.275, 25067.00
1333.337, 25012.00
1334.398, 25110.00
1335.458, 24940.00
1336.519, 25034.00
1337.580, 25009.00
1338.640, 24970.17
1339.700, 25009.43
1340.760, 25047.00
1341.820, 24965.00
1342.880, 25212.00
1343.939, 25104.00
1344.999, 25201.00
1346.058, 24849.00
1347.117, 24983.00
1348.176, 24800.00
1349.235, 24931.00
1350.293, 25151.00
1351.351, 25064.00
1352.410, 25085.00
1353.468, 25114.00
1354.526, 24913.00
1355.583, 25182.00
1356.641, 24987.00
1357.698, 24916.00
1358.756, 24800.00
1359.813, 25168.00
1360.869, 25092.00
1361.926, 25051.00
1362.983, 25200.00
1364.039, 25149.00
1365.095, 25135.00
1366.152, 25091.00
1367.207, 25085.00
1368.263, 25055.43
1369.319, 25174.00
1370.374, 25038.00
1371.430, 25224.00
1372.485, 25297.00
1373.540, 25317.00
1374.594, 25253.00
1375.649, 25154.00
1376.703, 25353.00
1377.758, 24983.00
1378.812, 25237.00
1379.866, 25450.00
1380.920, 25205.00
1381.973, 25214.00
1383.027, 25144.00
1384.080, 25219.00
1385.133, 25159.28
1386.186, 25337.00
1387.239, 25152.00
1388.291, 25241.00
1389.344, 25365.00
1390.396, 25307.00
1391.448, 25385.05
1392.500, 25310.00
1393.552, 25335.00
1394.604, 25318.00
1395.655, 25112.00
1396.707, 25213.00
1397.758, 25289.00
1398.809, 25510.00
1399.860, 25298.00
1400.910, 25356.00
1401.961, 25254.00
1403.011, 25468.00
1404.061, 25551.00
1405.111, 25458.00
1406.161, 25666.00
1407.211, 25531.00
1408.260, 25290.00
1409.310, 25391.00
1410.359, 25318.00
1411.408, 25535.00
1412.457, 25842.00
1413.506, 25612.00
1414.554, 25768.00
1415.603, 25653.00
1416.651, 25707.00
1417.699, 25692.00
1418.747, 25805.00
1419.794, 25514.00
1420.842, 25850.00
1421.889, 25992.00
1422.937, 25619.00
1423.984, 26095.00
1425.031, 25958.00
1426.077, 26193.00
1427.124, 26368.00
1428.170, 26263.00
1429.217, 26508.00
1430.263, 26458.00
1431.309, 26520.00
1432.354, 26448.00
1433.400, 26681.00
1434.445, 26728.00
1435.491, 27048.00
1436.536, 27015.00
1437.581, 27326.00
1438.625, 27716.00
1439.670, 28021.00
1440.714, 28328.00
1441.759, 28654.00
1442.803, 28883.00
1443.847, 28947.00
1444.890, 29035.44
1445.934, 29200.00
1446.978, 28913.00
1448.021, 28749.00
1449.064, 28511.00
1450.107, 28452.00
1451.150, 28345.00
1452.192, 28171.34
1453.235, 28162.24
1454.277, 27934.00
1455.319, 28043.00
1456.361, 28064.00
1457.403, 27914.00
1458.445, 27911.00
1459.486, 27644.00
1460.528, 27845.00
1461.569, 27721.00
1462.610, 27870.00
1463.651, 27667.00
1464.691, 27957.00
1465.732, 27481.00
1466.772, 27504.00
1467.812, 27556.00
1468.852, 27317.00
1469.892, 27757.00
1470.932, 27387.00
1471.971, 27563.00
1473.011, 27573.00
1474.050, 27594.00
1475.089, 27129.00
1476.128, 27452.00
1477.166, 27130.00
1478.205, 27232.00
1479.243, 27588.00
1480.282, 27439.00
1481.320, 27380.00
1482.357, 27367.00
1483.395, 27332.00
1484.433, 27254.84
1485.470, 27132.00
1486.507, 27135.00
1487.544, 27106.00
1488.581, 27128.00
1489.618, 27088.25
1490.655, 27119.00
1491.691, 26969.00
1492.727, 27115.00
1493.763, 26956.00
1494.799, 26834.00
1495.835, 26791.00
1496.871, 26952.00
1497.906, 26949.00
1498.941, 26905.00
1499.976, 26761.00
1501.011, 27050.00
1502.046, 27161.00
1503.081, 26983.00
1504.115, 27017.00
1505.149, 27085.00
1506.183, 27050.00
1507.217, 26871.00
1508.251, 26940.00
1509.285, 27213.00
1510.318, 26942.00
1511.352, 27084.43
1512.385, 26996.00
1513.418, 27041.00
1514.450, 27212.00
1515.483, 27144.00
1516.516, 26838.00
1517.548, 27122.00
1518.580, 27090.00
1519.612, 27117.00
1520.644, 27389.00
1521.675, 27012.00
1522.707, 27078.00
1523.738, 27372.00
1524.769, 27125.00
1525.800, 27141.00
1526.831, 27055.00
1527.862, 27112.61
1528.892, 27401.00
1529.923, 27328.00
1530.953, 27277.00
1531.983, 27349.00
1533.013, 27234.00
1534.042, 27415.00
1535.072, 27258.00
1536.101, 27424.00
1537.131, 27379.00
1538.160, 27652.00
1539.188, 27295.00
1540.217, 27708.00
1541.246, 27437.00
1542.274, 27480.00
1543.302, 27518.00
1544.330, 27372.00
1545.358, 27435.00
1546.386, 27573.00
1547.413, 27709.00
1548.441, 27638.00
1549.468, 27734.26
1550.495, 27707.00
1551.522, 27676.00
1552.549, 27616.00
1553.575, 27656.53
1554.602, 27405.00
1555.628, 27727.00
1556.654, 27575.00
1557.680, 27584.00
1558.706, 27371.00
1559.731, 27675.00
1560.757, 27491.00
1561.782, 27606.00
1562.807, 27581.00
1563.832, 27692.00
1564.857, 27702.00
1565.881, 27684.00
1566.906, 27897.00
1567.930, 27804.00
1568.954, 27604.00
1569.978, 27519.00
1571.002, 27618.00
1572.025, 27670.00
1573.049, 27691.00
1574.072, 27795.00
1575.095, 27592.00
1576.118, 27754.00
1577.141, 27864.00
##END=



