##NAMES=Magnetite
##RRUFFID=R060656
##IDEAL CHEMISTRY=Fe^2+^Fe^3+^_2_O_4_
##LOCALITY=Jacupiranga Pegmatite, Sao Paulo State, Brazil
##OWNER=RRUFF
##SOURCE=Michael Scott
##DESCRIPTION=Black rounded octahedra associated with phlogopite and diopside
##STATUS=The identification of this mineral has been confirmed by X-ray diffraction and chemical analysis
##URL=rruff.info/R060656
##MEASURED CHEMISTRY=(Fe^2+^_0.98_Mg_0.01_Mn_0.01_)(Fe^3+^_1.96_Ti_0.02_Mg_0.02_)O_4_
##PIN_ID=M00920
##ORIENTATION=Laser parallel to a* (1 0 0). Fiducial mark perpendicular to laser is parallel to b [0 1 0]
173.3000, 12478.00
174.5280, 12591.00
175.7550, 12575.00
176.9820, 12601.00
178.2100, 12723.00
179.4370, 12672.00
180.6630, 12625.00
181.8900, 12735.00
183.1170, 12722.00
184.3430, 12716.00
185.5690, 12879.00
186.7950, 12866.00
188.0210, 12977.00
189.2470, 13059.00
190.4720, 12957.00
191.6970, 12766.67
192.9230, 12978.44
194.1480, 13123.31
195.3730, 13204.91
196.5970, 13033.72
197.8220, 13188.94
199.0460, 13213.33
200.2700, 13333.00
201.4940, 13058.00
202.7180, 12988.00
203.9420, 12852.00
205.1660, 12624.00
206.3890, 12466.00
207.6120, 12342.00
208.8350, 12353.00
210.0580, 12454.00
211.2810, 12522.00
212.5040, 12391.00
213.7260, 12392.00
214.9480, 12464.00
216.1700, 12413.00
217.3920, 12413.00
218.6140, 12461.00
219.8360, 12441.00
221.0570, 12404.00
222.2790, 12490.00
223.5000, 12483.00
224.7210, 12457.00
225.9410, 12381.00
227.1620, 12604.00
228.3820, 12425.19
229.6030, 12424.52
230.8230, 12578.56
232.0430, 12665.73
233.2630, 12689.64
234.4820, 12460.80
235.7020, 12558.34
236.9210, 12525.08
238.1400, 12486.46
239.3590, 12629.92
240.5780, 12437.85
241.7970, 12520.00
243.0150, 12560.00
244.2340, 12514.00
245.4520, 12459.00
246.6700, 12484.00
247.8880, 12575.00
249.1060, 12694.00
250.3230, 12702.00
251.5400, 12573.00
252.7580, 12499.00
253.9750, 12627.00
255.1920, 12595.00
256.4080, 12788.00
257.6250, 12789.00
258.8410, 12772.00
260.0580, 12730.00
261.2740, 12718.00
262.4900, 12712.58
263.7050, 12768.00
264.9210, 12722.00
266.1360, 12885.00
267.3520, 12915.00
268.5670, 12881.00
269.7820, 13008.00
270.9960, 12921.00
272.2110, 12902.00
273.4250, 12937.00
274.6400, 12943.94
275.8540, 12975.97
277.0680, 13105.00
278.2810, 13016.00
279.4950, 13203.00
280.7090, 13153.00
281.9220, 13179.77
283.1350, 13575.00
284.3480, 13282.00
285.5610, 13295.00
286.7730, 13519.00
287.9860, 13440.00
289.1980, 13518.00
290.4100, 13459.00
291.6220, 13543.00
292.8340, 13830.00
294.0460, 13779.00
295.2570, 13749.00
296.4690, 13840.00
297.6800, 13780.00
298.8910, 13917.00
300.1020, 13932.00
301.3120, 13915.00
302.5230, 13980.65
303.7330, 13979.00
304.9440, 14061.00
306.1540, 14051.00
307.3630, 14177.00
308.5730, 14013.00
309.7830, 13946.00
310.9920, 13888.00
312.2010, 14107.00
313.4100, 14062.00
314.6190, 13989.00
315.8280, 14100.00
317.0370, 13971.00
318.2450, 13736.00
319.4530, 13904.00
320.6610, 13807.00
321.8690, 13966.00
323.0770, 13862.00
324.2850, 13741.00
325.4920, 13789.00
326.6990, 13751.00
327.9060, 13658.00
329.1130, 13717.00
330.3200, 13670.00
331.5270, 13664.00
332.7330, 13463.66
333.9390, 13590.71
335.1450, 13650.90
336.3510, 13647.82
337.5570, 13392.00
338.7630, 13540.96
339.9680, 13472.90
341.1740, 13399.45
342.3790, 13508.12
343.5840, 13281.25
344.7890, 13387.04
345.9930, 13360.06
347.1980, 13352.00
348.4020, 13318.00
349.6060, 13398.00
350.8100, 13345.00
352.0140, 13331.00
353.2180, 13153.00
354.4210, 13282.00
355.6250, 13249.00
356.8280, 13296.00
358.0310, 13308.00
359.2340, 13279.00
360.4360, 13182.00
361.6390, 13236.00
362.8410, 13203.00
364.0430, 13252.00
365.2450, 13223.00
366.4470, 13093.00
367.6490, 13249.00
368.8510, 13182.00
370.0520, 13171.00
371.2530, 13221.00
372.4540, 13180.00
373.6550, 13202.00
374.8560, 13111.00
376.0560, 13253.00
377.2570, 13333.00
378.4570, 13304.00
379.6570, 13180.00
380.8570, 13373.00
382.0570, 13169.00
383.2560, 13102.00
384.4560, 13250.00
385.6550, 13036.00
386.8540, 13254.00
388.0530, 13245.00
389.2520, 13226.00
390.4510, 13185.00
391.6490, 13258.00
392.8470, 13242.00
394.0450, 13221.00
395.2430, 13180.00
396.4410, 13315.00
397.6390, 13256.00
398.8360, 13307.88
400.0340, 13281.00
401.2310, 13320.00
402.4280, 13339.67
403.6250, 13413.00
404.8210, 13348.00
406.0180, 13365.00
407.2140, 13164.35
408.4100, 13333.99
409.6060, 13436.76
410.8020, 13476.27
411.9980, 13263.03
413.1930, 13376.15
414.3890, 13358.48
415.5840, 13335.44
416.7790, 13494.50
417.9740, 13318.01
419.1680, 13474.16
420.3630, 13497.54
421.5570, 13663.00
422.7510, 13405.00
423.9450, 13485.66
425.1390, 13706.00
426.3330, 13522.00
427.5270, 13553.00
428.7200, 13564.00
429.9130, 13649.00
431.1060, 13574.62
432.2990, 13638.00
433.4920, 13548.00
434.6840, 13581.00
435.8770, 13795.00
437.0690, 13465.00
438.2610, 13787.00
439.4530, 13822.00
440.6450, 13601.00
441.8360, 13802.00
443.0280, 13650.00
444.2190, 13644.00
445.4100, 13798.00
446.6010, 13733.60
447.7920, 13707.00
448.9820, 13810.00
450.1730, 13831.00
451.3630, 13877.00
452.5530, 13738.00
453.7430, 13696.00
454.9330, 13946.00
456.1230, 13763.00
457.3120, 13944.00
458.5010, 13894.00
459.6910, 13886.00
460.8800, 13847.00
462.0680, 13682.89
463.2570, 13850.59
464.4460, 13951.43
465.6340, 13989.00
466.8220, 13773.82
468.0100, 13885.01
469.1980, 13865.40
470.3860, 13840.43
471.5730, 13997.55
472.7600, 13819.12
473.9480, 13973.35
475.1350, 13994.79
476.3210, 13985.00
477.5080, 14035.00
478.6950, 13775.33
479.8810, 13957.62
481.0670, 14073.04
482.2530, 14125.21
483.4390, 13924.62
484.6250, 14050.40
485.8100, 14045.37
486.9960, 14034.99
488.1810, 14206.69
489.3660, 14042.84
490.5510, 14211.64
491.7360, 14247.66
492.9200, 14344.43
494.1050, 14364.00
495.2890, 14475.00
496.4730, 14488.00
497.6570, 14510.00
498.8400, 14512.00
500.0240, 14539.00
501.2070, 14561.00
502.3910, 14454.75
503.5740, 14609.12
504.7570, 14696.62
505.9400, 14720.87
507.1220, 14492.36
508.3050, 14590.23
509.4870, 14608.00
510.6690, 14532.00
511.8510, 14746.00
513.0330, 14895.00
514.2140, 14796.50
515.3960, 14988.28
516.5770, 15113.17
517.7580, 15174.80
518.9390, 14983.68
520.1200, 15118.92
521.3010, 15123.38
522.4810, 15122.43
523.6610, 15303.58
524.8420, 15149.22
526.0220, 15293.00
527.2010, 15303.00
528.3810, 15339.00
529.5610, 15403.03
530.7400, 15389.33
531.9190, 15533.00
533.0980, 15398.00
534.2770, 15374.00
535.4560, 15399.00
536.6340, 15558.00
537.8120, 15513.00
538.9910, 15494.00
540.1690, 15687.00
541.3460, 15549.00
542.5240, 15627.00
543.7020, 15733.00
544.8790, 15612.00
546.0560, 15581.00
547.2330, 15900.00
548.4100, 15813.00
549.5870, 15838.00
550.7630, 15918.44
551.9400, 15852.00
553.1160, 16004.00
554.2920, 15801.00
555.4680, 15976.00
556.6440, 16112.00
557.8190, 16041.00
558.9950, 15837.00
560.1700, 15936.00
561.3450, 15872.00
562.5200, 15928.00
563.6950, 15861.00
564.8690, 15857.00
566.0440, 15933.00
567.2180, 15906.00
568.3920, 15998.00
569.5660, 15878.00
570.7400, 16014.00
571.9130, 15994.00
573.0870, 15756.00
574.2600, 15999.00
575.4330, 15875.00
576.6060, 15526.00
577.7790, 15482.00
578.9520, 15380.00
580.1240, 15142.00
581.2960, 15038.00
582.4690, 14878.00
583.6410, 14853.00
584.8120, 14675.00
585.9840, 14597.00
587.1560, 14566.00
588.3270, 14499.00
589.4980, 14306.00
590.6690, 14450.00
591.8400, 14354.00
593.0110, 14451.00
594.1810, 14411.00
595.3510, 14422.00
596.5220, 14419.00
597.6920, 14450.76
598.8610, 14485.00
600.0310, 14564.00
601.2010, 14430.00
602.3700, 14516.00
603.5390, 14481.00
604.7080, 14536.00
605.8770, 14713.00
607.0460, 14675.00
608.2140, 14788.00
609.3830, 14873.00
610.5510, 14827.00
611.7190, 14973.00
612.8870, 15014.00
614.0550, 15167.00
615.2220, 15112.00
616.3900, 15005.00
617.5570, 15377.00
618.7240, 15306.00
619.8910, 15341.00
621.0580, 15652.00
622.2240, 15411.00
623.3910, 15619.00
624.5570, 15920.00
625.7230, 15832.00
626.8890, 15977.00
628.0550, 16071.00
629.2200, 16211.00
630.3860, 16372.63
631.5510, 16480.00
632.7160, 16670.00
633.8810, 16799.00
635.0460, 16852.00
636.2100, 17173.00
637.3750, 17268.00
638.5390, 17566.00
639.7030, 18082.00
640.8670, 17997.00
642.0310, 18479.00
643.1950, 18488.00
644.3580, 18884.00
645.5210, 19025.00
646.6850, 19478.00
647.8480, 19923.00
649.0100, 20201.00
650.1730, 20543.00
651.3350, 20942.00
652.4980, 21278.00
653.6600, 21826.00
654.8220, 22327.00
655.9840, 22814.00
657.1450, 23118.00
658.3070, 23603.00
659.4680, 23995.00
660.6300, 24507.00
661.7910, 24800.00
662.9510, 25096.00
664.1120, 25364.42
665.2730, 25524.45
666.4330, 25703.00
667.5930, 25732.00
668.7530, 25784.00
669.9130, 25753.00
671.0730, 25663.00
672.2320, 25275.00
673.3920, 25314.00
674.5510, 24874.00
675.7100, 24426.00
676.8690, 24365.00
678.0280, 23874.00
679.1860, 23759.00
680.3450, 22978.00
681.5030, 22842.00
682.6610, 22337.00
683.8190, 21901.00
684.9770, 21468.00
686.1340, 21238.00
687.2920, 20770.00
688.4490, 20581.00
689.6060, 20014.00
690.7630, 19756.00
691.9200, 19229.00
693.0760, 19220.00
694.2330, 18903.00
695.3890, 18678.00
696.5450, 18614.00
697.7010, 18184.55
698.8570, 17908.72
700.0130, 17553.00
701.1680, 17172.00
702.3230, 17066.00
703.4780, 16789.00
704.6330, 16790.00
705.7880, 16433.00
706.9430, 16356.00
708.0970, 16416.00
709.2520, 16278.00
710.4060, 16256.00
711.5600, 15963.57
712.7140, 15631.00
713.8670, 15345.00
715.0210, 15365.00
716.1740, 15196.00
717.3270, 15247.69
718.4800, 15025.00
719.6330, 15261.00
720.7860, 15006.59
721.9380, 14637.00
723.0910, 14444.00
724.2430, 14527.00
725.3950, 14380.00
726.5470, 14219.00
727.6980, 14150.00
728.8500, 14120.00
730.0010, 14118.00
731.1530, 14077.00
732.3040, 14034.00
733.4550, 14049.00
734.6050, 13890.00
735.7560, 13837.00
736.9060, 13842.00
738.0560, 13742.00
739.2060, 13722.77
740.3560, 13577.00
741.5060, 13608.00
742.6560, 13591.00
743.8050, 13469.00
744.9540, 13357.40
746.1030, 13477.68
747.2520, 13531.10
748.4010, 13521.25
749.5500, 13258.66
750.6980, 13322.46
751.8460, 13255.47
752.9950, 13183.09
754.1420, 13365.00
755.2900, 13120.00
756.4380, 13242.00
757.5850, 13180.00
758.7330, 13277.00
759.8800, 13149.00
761.0270, 13095.00
762.1730, 12976.00
763.3200, 13051.00
764.4670, 13141.00
765.6130, 13057.00
766.7590, 13100.00
767.9050, 13142.00
769.0510, 13038.00
770.1960, 13041.00
771.3420, 13091.00
772.4870, 12903.00
773.6320, 13009.00
774.7770, 13142.00
775.9220, 13134.00
777.0670, 12898.00
778.2110, 12833.00
779.3560, 12945.00
780.5000, 12960.00
781.6440, 12972.00
782.7880, 12870.00
783.9320, 12942.00
785.0750, 12896.00
786.2180, 12834.00
787.3620, 12880.00
788.5050, 12761.00
789.6480, 12838.00
790.7900, 12881.00
791.9330, 13039.00
793.0750, 12883.00
794.2170, 12903.00
795.3590, 12925.00
796.5010, 12839.00
797.6430, 12828.00
798.7850, 12712.00
799.9260, 12764.00
801.0670, 12708.00
802.2080, 12710.16
803.3490, 12847.00
804.4900, 12739.00
805.6310, 12855.00
806.7710, 12889.00
807.9110, 12862.00
809.0510, 12930.38
810.1910, 12907.46
811.3310, 12932.00
812.4710, 12890.00
813.6100, 12791.00
814.7490, 12769.00
815.8880, 12660.00
817.0270, 12666.00
818.1660, 12951.00
819.3050, 12713.00
820.4430, 12822.00
821.5820, 12810.00
822.7200, 12772.00
823.8580, 12671.00
824.9950, 12741.00
826.1330, 12801.00
827.2710, 12808.00
828.4080, 12833.67
829.5450, 12824.53
830.6820, 12814.00
831.8190, 12789.00
832.9560, 12742.00
834.0920, 12740.00
835.2280, 12684.91
836.3650, 12688.93
837.5010, 12668.73
838.6360, 12700.00
839.7720, 12645.00
840.9080, 12669.00
842.0430, 12659.00
843.1780, 12573.00
844.3130, 12704.00
845.4480, 12700.00
846.5830, 12784.00
847.7170, 12715.00
848.8520, 12601.00
849.9860, 12777.00
851.1200, 12611.00
852.2540, 12743.00
853.3870, 12698.00
854.5210, 12749.00
855.6540, 12901.00
856.7880, 12646.00
857.9210, 12698.00
859.0540, 12784.00
860.1860, 12814.00
861.3190, 12851.00
862.4510, 12734.00
863.5840, 12830.00
864.7160, 12735.00
865.8480, 12789.00
866.9790, 12937.00
868.1110, 12727.00
869.2420, 12851.00
870.3740, 12760.00
871.5050, 12837.00
872.6360, 12793.00
873.7660, 12884.00
874.8970, 12806.00
876.0280, 12795.00
877.1580, 12702.00
878.2880, 12806.00
879.4180, 12735.00
880.5480, 12767.00
881.6770, 12775.66
882.8070, 12742.33
883.9360, 12731.00
885.0650, 12894.00
886.1940, 12796.24
887.3230, 12836.18
888.4520, 12783.00
889.5800, 12683.33
890.7090, 12837.82
891.8370, 12925.46
892.9650, 12949.83
894.0930, 12721.46
895.2200, 12819.45
896.3480, 12786.65
897.4750, 12748.49
898.6020, 12892.42
899.7290, 12700.80
900.8560, 12841.84
901.9830, 12850.09
903.1090, 12919.12
904.2360, 12856.54
905.3620, 12834.61
906.4880, 12944.32
907.6140, 12981.14
908.7400, 12903.42
909.8650, 12976.30
910.9900, 12780.08
912.1160, 12820.01
913.2410, 12961.82
914.3660, 12890.71
915.4900, 12966.00
916.6150, 12985.53
917.7390, 12966.00
918.8640, 12859.00
919.9880, 12942.00
921.1120, 12814.00
922.2350, 12908.00
923.3590, 12960.00
924.4820, 12822.00
925.6060, 12972.00
926.7290, 12844.00
927.8520, 12938.00
928.9740, 12862.00
930.0970, 12942.00
931.2190, 13004.00
932.3420, 12905.00
933.4640, 12990.00
934.5860, 12956.00
935.7080, 12918.00
936.8290, 12986.00
937.9510, 12843.00
939.0720, 12932.00
940.1930, 12939.00
941.3140, 12906.00
942.4350, 13030.00
943.5560, 12938.00
944.6760, 12993.00
945.7960, 12924.00
946.9170, 12925.00
948.0370, 12954.00
949.1560, 13010.00
950.2760, 13045.00
951.3960, 12974.00
952.5150, 12958.00
953.6340, 13113.00
954.7530, 12959.00
955.8720, 12882.00
956.9910, 13099.00
958.1090, 13010.00
959.2280, 12827.00
960.3460, 13015.00
961.4640, 13075.00
962.5820, 12935.00
963.6990, 13040.00
964.8170, 12897.00
965.9340, 12927.00
967.0510, 12989.00
968.1690, 12987.00
969.2850, 13040.29
970.4020, 13049.00
971.5190, 13119.00
972.6350, 13050.00
973.7510, 13081.00
974.8670, 12968.00
975.9830, 13100.00
977.0990, 12944.00
978.2150, 12938.00
979.3300, 13083.00
980.4450, 13184.00
981.5600, 13116.00
982.6750, 13162.00
983.7900, 13016.00
984.9050, 13269.00
986.0190, 13066.00
987.1340, 13068.00
988.2480, 13208.00
989.3620, 13175.00
990.4750, 12916.00
991.5890, 13048.00
992.7020, 13092.00
993.8160, 13110.00
994.9290, 13200.00
996.0420, 13197.00
997.1550, 13224.00
998.2670, 13009.00
999.3800, 12971.00
1000.492, 13065.00
1001.604, 13042.00
1002.716, 13214.00
1003.828, 13186.00
1004.940, 13276.00
1006.051, 13286.00
1007.163, 13044.00
1008.274, 13117.00
1009.385, 13067.00
1010.496, 13006.38
1011.606, 13163.99
1012.717, 13254.74
1013.827, 13282.23
1014.937, 13056.96
1016.047, 13158.07
1017.157, 13128.38
1018.267, 13093.33
1019.377, 13240.37
1020.486, 13051.87
1021.595, 13196.02
1022.704, 13207.38
1023.813, 13279.51
1024.922, 13220.04
1026.030, 13201.22
1027.139, 13314.04
1028.247, 13353.97
1029.355, 13299.00
1030.463, 13189.00
1031.571, 13300.00
1032.678, 13272.00
1033.786, 13236.00
1034.893, 13336.00
1036.000, 13097.00
1037.107, 13240.00
1038.214, 13212.00
1039.321, 13095.00
1040.427, 13174.00
1041.533, 13142.79
1042.639, 13137.82
1043.745, 13266.00
1044.851, 13134.00
1045.957, 13350.00
1047.062, 13319.00
1048.168, 13340.71
1049.273, 13378.95
1050.378, 13368.00
1051.482, 13204.21
1052.587, 13359.76
1053.692, 13448.45
1054.796, 13473.87
1055.900, 13246.54
1057.004, 13345.58
1058.108, 13313.83
1059.212, 13276.72
1060.315, 13421.70
1061.418, 13231.13
1062.522, 13373.22
1063.625, 13382.52
1064.728, 13452.59
1065.830, 13391.06
1066.933, 13370.18
1068.035, 13480.94
1069.137, 13518.81
1070.239, 13442.13
1071.341, 13516.07
1072.443, 13320.90
1073.545, 13286.00
1074.646, 13423.00
1075.747, 13362.00
1076.848, 13447.00
1077.949, 13414.00
1079.050, 13308.00
1080.150, 13356.00
1081.251, 13299.00
1082.351, 13468.00
1083.451, 13423.00
1084.551, 13388.00
1085.651, 13335.00
1086.750, 13471.00
1087.850, 13406.14
1088.949, 13320.78
1090.048, 13466.22
1091.147, 13544.80
1092.246, 13560.12
1093.345, 13322.69
1094.443, 13411.64
1095.541, 13369.79
1096.639, 13322.58
1097.737, 13457.46
1098.835, 13256.80
1099.933, 13388.80
1101.030, 13388.01
1102.128, 13447.99
1103.225, 13376.37
1104.322, 13345.40
1105.419, 13446.08
1106.515, 13473.87
1107.612, 13392.00
1108.708, 13217.00
1109.804, 13259.00
1110.900, 13307.00
1111.996, 13396.00
1113.092, 13316.00
1114.187, 13349.00
1115.283, 13370.00
1116.378, 13271.00
1117.473, 13237.00
1118.568, 13339.00
1119.662, 13246.00
1120.757, 13380.00
1121.851, 13393.00
1122.946, 13301.00
1124.040, 13242.00
1125.134, 13365.00
1126.227, 13360.00
1127.321, 13298.00
1128.414, 13314.00
1129.508, 13305.00
1130.601, 13257.00
1131.693, 13242.38
1132.786, 13103.00
1133.879, 13197.00
1134.971, 13120.00
1136.064, 13160.00
1137.156, 13151.00
1138.248, 13307.00
1139.339, 13207.00
1140.431, 13103.00
1141.522, 13275.00
1142.614, 13123.00
1143.705, 13189.00
1144.796, 13256.00
1145.887, 13207.00
1146.977, 13288.00
1148.068, 13368.00
1149.158, 13204.00
1150.248, 13273.00
1151.338, 13078.00
1152.428, 13279.00
1153.518, 13195.00
1154.607, 13198.00
1155.696, 13209.39
1156.785, 13296.00
1157.874, 13173.00
1158.963, 13201.00
1160.052, 13279.00
1161.141, 13088.00
1162.229, 13109.00
1163.317, 13175.00
1164.405, 13123.00
1165.493, 13085.00
1166.581, 13086.00
1167.668, 13121.00
1168.756, 13122.00
1169.843, 13140.51
1170.930, 13189.00
1172.017, 13190.00
1173.103, 13209.00
1174.190, 13275.00
1175.276, 13088.74
1176.363, 13239.38
1177.449, 13323.17
1178.535, 13343.70
1179.620, 13111.48
1180.706, 13205.63
1181.791, 13168.98
1182.877, 13126.97
1183.962, 13267.06
1185.047, 13071.60
1186.131, 13208.80
1187.216, 13213.21
1188.300, 13278.39
1189.385, 13211.97
1190.469, 13186.20
1191.553, 13292.07
1192.637, 13325.05
1193.720, 13243.49
1194.804, 13312.54
1195.887, 13112.48
1196.970, 13148.57
1198.053, 13286.54
1199.136, 13211.59
1200.219, 13283.05
1201.301, 13298.75
1202.383, 13179.50
1203.465, 13211.00
1204.547, 13191.00
1205.629, 13108.00
1206.711, 13061.00
1207.792, 13036.00
1208.874, 13299.00
1209.955, 13212.00
1211.036, 13203.00
1212.117, 13320.00
1213.198, 13103.00
1214.278, 13279.00
1215.359, 13160.00
1216.439, 13257.00
1217.519, 13175.00
1218.599, 13129.00
1219.678, 13153.00
1220.758, 13112.00
1221.837, 13129.00
1222.917, 13170.00
1223.996, 13097.00
1225.075, 13226.00
1226.153, 13139.00
1227.232, 13140.00
1228.310, 13089.00
1229.389, 13157.00
1230.467, 13252.00
1231.545, 13326.00
1232.622, 13235.00
1233.700, 13107.00
1234.777, 13172.00
1235.855, 13274.00
1236.932, 13364.00
1238.009, 13273.00
1239.086, 13332.00
1240.162, 13123.00
1241.239, 13185.00
1242.315, 13228.00
1243.391, 13029.00
1244.467, 13173.00
1245.543, 13177.00
1246.619, 13210.27
1247.694, 13251.00
1248.769, 13369.00
1249.844, 13238.00
1250.919, 13289.00
1251.994, 13200.00
1253.069, 13216.00
1254.144, 13208.43
1255.218, 13274.00
1256.292, 13239.00
1257.366, 13272.45
1258.440, 13279.00
1259.514, 13303.00
1260.587, 13298.00
1261.661, 13306.00
1262.734, 13211.00
1263.807, 13250.00
1264.880, 13220.21
1265.952, 13213.00
1267.025, 13250.00
1268.097, 13320.00
1269.170, 13432.00
1270.242, 13191.00
1271.314, 13294.00
1272.385, 13180.00
1273.457, 13351.00
1274.528, 13256.00
1275.600, 13431.00
1276.671, 13217.00
1277.742, 13317.00
1278.812, 13312.00
1279.883, 13297.00
1280.954, 13284.00
1282.024, 13193.00
1283.094, 13278.00
1284.164, 13373.00
1285.234, 13363.00
1286.303, 13269.00
1287.373, 13379.00
1288.442, 13208.00
1289.511, 13352.00
1290.580, 13356.00
1291.649, 13296.00
1292.718, 13349.00
1293.786, 13349.00
1294.855, 13270.00
1295.923, 13296.00
1296.991, 13308.60
1298.059, 13275.89
1299.126, 13375.00
1300.194, 13327.00
1301.261, 13338.00
1302.328, 13353.39
1303.395, 13351.00
1304.462, 13334.00
1305.529, 13389.00
1306.596, 13359.00
1307.662, 13439.00
1308.728, 13301.00
1309.794, 13409.00
1310.860, 13361.00
1311.926, 13460.00
1312.991, 13441.59
1314.057, 13294.00
1315.122, 13421.00
1316.187, 13360.00
1317.252, 13354.00
1318.317, 13485.00
1319.381, 13347.00
1320.446, 13340.00
1321.510, 13274.00
1322.574, 13249.00
1323.638, 13434.00
1324.702, 13322.00
1325.766, 13473.00
1326.829, 13287.00
1327.892, 13317.16
1328.956, 13475.90
1330.019, 13567.77
1331.081, 13596.37
1332.144, 13372.23
1333.206, 13474.46
1334.269, 13445.89
1335.331, 13411.96
1336.393, 13560.12
1337.455, 13372.73
1338.516, 13518.00
1339.578, 13530.48
1340.639, 13603.73
1341.701, 13545.39
1342.762, 13527.68
1343.822, 13641.62
1344.883, 13546.35
1345.944, 13406.00
1347.004, 13513.00
1348.064, 13382.00
1349.124, 13336.00
1350.184, 13468.00
1351.244, 13439.00
1352.304, 13366.68
1353.363, 13520.01
1354.422, 13606.49
1355.481, 13629.70
1356.540, 13400.17
1357.599, 13497.00
1358.657, 13463.04
1359.716, 13423.72
1360.774, 13566.50
1361.832, 13373.72
1362.890, 13513.61
1363.948, 13520.70
1365.006, 13588.57
1366.063, 13524.83
1367.120, 13501.74
1368.178, 13610.30
1369.234, 13645.97
1370.291, 13567.08
1371.348, 13638.81
1372.404, 13441.44
1373.461, 13480.21
1374.517, 13620.86
1375.573, 13548.59
1376.629, 13622.73
1377.684, 13641.11
1378.740, 13406.08
1379.795, 13611.75
1380.850, 13626.83
1381.905, 13446.22
1382.960, 13636.79
1384.015, 13483.16
1385.070, 13441.00
1386.124, 13567.00
1387.178, 13372.00
1388.232, 13495.86
1389.286, 13458.00
1390.340, 13629.00
1391.393, 13492.00
1392.447, 13520.00
1393.500, 13559.00
1394.553, 13546.00
1395.606, 13376.00
1396.659, 13607.00
1397.711, 13360.00
1398.764, 13437.00
1399.816, 13584.00
1400.868, 13517.86
1401.920, 13530.65
1402.972, 13650.00
1404.023, 13423.00
1405.075, 13536.00
1406.126, 13522.00
1407.177, 13502.00
1408.228, 13494.00
1409.279, 13476.00
1410.330, 13510.00
1411.380, 13505.00
1412.431, 13421.00
1413.481, 13645.00
1414.531, 13717.00
1415.580, 13589.00
1416.630, 13443.00
1417.680, 13522.00
1418.729, 13530.00
1419.778, 13425.00
1420.827, 13555.00
1421.876, 13596.00
1422.925, 13565.00
1423.973, 13536.00
1425.022, 13479.00
1426.070, 13454.00
1427.118, 13473.69
1428.166, 13472.56
1429.214, 13501.00
1430.261, 13539.00
1431.309, 13475.00
1432.356, 13518.00
1433.403, 13440.00
1434.450, 13522.00
1435.497, 13444.00
1436.543, 13422.00
1437.590, 13471.28
1438.636, 13621.90
1439.682, 13705.66
1440.728, 13726.16
1441.774, 13493.90
1442.819, 13588.03
1443.865, 13551.35
1444.910, 13509.31
1445.955, 13649.37
1447.000, 13453.88
1448.045, 13591.05
1449.090, 13595.43
1450.134, 13660.59
1451.178, 13594.14
1452.223, 13568.34
1453.267, 13674.18
1454.310, 13707.14
1455.354, 13625.54
1456.398, 13694.56
1457.441, 13494.48
1458.484, 13530.54
1459.527, 13668.48
1460.570, 13593.50
1461.613, 13664.93
1462.655, 13680.60
1463.698, 13442.87
1464.740, 13645.83
1465.782, 13658.20
1466.824, 13474.89
1467.866, 13662.75
1468.907, 13506.41
1469.948, 13472.94
1470.990, 13531.92
1472.031, 13494.51
1473.072, 13609.07
1474.112, 13577.23
1475.153, 13532.32
1476.194, 13544.48
1477.234, 13394.90
1478.274, 13545.39
1479.314, 13573.00
1480.354, 13443.00
1481.393, 13592.00
1482.433, 13328.00
1483.472, 13564.00
1484.511, 13464.00
1485.550, 13575.00
1486.589, 13397.00
1487.628, 13505.48
1488.666, 13495.84
1489.704, 13619.00
1490.743, 13508.00
1491.781, 13486.00
1492.819, 13423.00
1493.856, 13575.00
1494.894, 13637.00
1495.931, 13463.00
1496.968, 13545.00
1498.005, 13486.00
1499.042, 13477.92
1500.079, 13603.00
1501.115, 13548.00
1502.152, 13413.00
1503.188, 13527.00
1504.224, 13527.00
1505.260, 13384.00
1506.296, 13433.00
1507.331, 13577.00
1508.367, 13549.00
1509.402, 13463.00
1510.437, 13590.00
1511.472, 13549.00
1512.507, 13425.00
1513.541, 13464.00
1514.576, 13507.00
1515.610, 13545.00
1516.644, 13561.00
1517.678, 13556.24
1518.712, 13474.00
1519.746, 13465.00
1520.779, 13557.00
1521.813, 13411.00
1522.846, 13542.00
1523.879, 13384.00
1524.912, 13553.00
1525.944, 13566.00
1526.977, 13559.00
1528.009, 13533.00
1529.041, 13547.00
1530.073, 13460.00
1531.105, 13429.00
1532.137, 13423.54
1533.168, 13474.00
1534.200, 13440.00
1535.231, 13419.99
1536.262, 13573.43
1537.293, 13660.01
1538.324, 13683.33
1539.354, 13453.90
1540.385, 13550.85
1541.415, 13516.99
1542.445, 13477.78
1543.475, 13620.66
1544.505, 13427.99
1545.534, 13567.98
1546.564, 13579.44
1547.593, 13598.22
1548.622, 13364.25
1549.651, 13456.66
1550.680, 13418.27
1551.708, 13374.52
1552.737, 13512.85
1553.765, 13315.65
1554.793, 13451.11
1555.821, 13453.77
1556.849, 13517.21
1557.877, 13449.04
1558.904, 13421.53
1559.932, 13525.66
1560.959, 13556.90
1561.986, 13494.00
1563.013, 13449.00
1564.039, 13478.37
1565.066, 13471.00
1566.092, 13445.00
1567.119, 13495.00
1568.145, 13432.00
1569.170, 13508.00
1570.196, 13477.00
1571.222, 13320.00
1572.247, 13436.00
1573.272, 13504.00
1574.297, 13299.00
1575.322, 13406.00
1576.347, 13518.00
1577.372, 13404.00
##END=



