##NAMES=Magnesio-hastingsite
##RRUFFID=R070288
##IDEAL CHEMISTRY=NaCa_2_(Mg_4_Fe^3+^)Si_6_Al_2_O_22_(OH)_2_
##LOCALITY=Dallas Gem Mine (Gem Mine; Benitoite Mine), New Idria District, San Benito County, California, USA
##OWNER=RRUFF
##SOURCE=Michael Scott
##DESCRIPTION=Dark brown to black prismatic crystals frozen in albite
##STATUS=The identification of this mineral is confirmed by single-crystal X-ray diffraction and chemical analysis.
##URL=rruff.info/R070288
##MEASURED CHEMISTRY=(Na_0.51_[box]_0.33_K_0.16_)_Σ=1_(Ca_1.75_Na_0.25_)_Σ=2_(Mg_3.02_Fe^2+^_0.61_Ti_0.37_)_Σ=4_(Fe^3+^_0.73_Al_0.27_)_Σ=1_Si_5.84_Al_2.16_O_22_(OH)_2_; (OH) estimated by difference
##PIN_ID=M01712
##ORIENTATION=Laser parallel to (1 0 1). Fiducial mark perpendicular to laser is parallel to b [0 1 0]
127.7630, 9517.000
128.9970, 9670.000
130.2300, 10292.00
131.4640, 10161.24
132.6970, 10492.00
133.9300, 10584.00
135.1630, 10826.64
136.3950, 10740.33
137.6280, 10641.14
138.8600, 10529.93
140.0920, 10370.35
141.3240, 9901.000
142.5560, 9608.000
143.7880, 9563.000
145.0190, 9559.000
146.2510, 9666.000
147.4820, 9633.000
148.7130, 9539.000
149.9440, 9742.000
151.1750, 9665.501
152.4050, 9836.451
153.6360, 9989.931
154.8660, 10125.96
156.0960, 10230.95
157.3260, 10346.80
158.5560, 10440.45
159.7850, 10553.00
161.0150, 10539.00
162.2440, 10536.52
163.4730, 10428.09
164.7020, 10370.00
165.9310, 10146.00
167.1590, 9922.000
168.3880, 9850.000
169.6160, 9779.000
170.8440, 9812.000
172.0720, 9715.000
173.3000, 9568.000
174.5280, 9511.000
175.7550, 9608.000
176.9820, 9360.000
178.2100, 9565.000
179.4370, 9424.000
180.6630, 9559.000
181.8900, 9427.000
183.1170, 9455.000
184.3430, 9523.000
185.5690, 9749.854
186.7950, 10130.72
188.0210, 10506.75
189.2470, 10427.00
190.4720, 10591.68
191.6970, 10055.30
192.9230, 10351.00
194.1480, 9380.000
195.3730, 9293.000
196.5970, 9321.000
197.8220, 9200.000
199.0460, 9240.000
200.2700, 9416.000
201.4940, 9357.000
202.7180, 9187.000
203.9420, 8967.000
205.1660, 8800.000
206.3890, 8835.000
207.6120, 8740.000
208.8350, 8814.000
210.0580, 8826.725
211.2810, 8897.376
212.5040, 8952.035
213.7260, 8991.535
214.9480, 8970.578
216.1700, 9027.688
217.3920, 9053.512
218.6140, 9078.054
219.8360, 9146.150
221.0570, 9196.899
222.2790, 9247.846
223.5000, 9283.636
224.7210, 9258.969
225.9410, 9312.344
227.1620, 9334.458
228.3820, 9355.265
229.6030, 9419.651
230.8230, 9403.753
232.0430, 9467.424
233.2630, 9501.175
234.4820, 9507.876
235.7020, 9590.000
236.9210, 9665.000
238.1400, 9663.502
239.3590, 9652.211
240.5780, 9628.126
241.7970, 9591.936
243.0150, 9507.414
244.2340, 9485.312
245.4520, 9438.214
246.6700, 9394.000
247.8880, 9349.000
249.1060, 9254.755
250.3230, 9222.000
251.5400, 9096.000
252.7580, 8952.000
253.9750, 8947.000
255.1920, 8792.000
256.4080, 8769.000
257.6250, 8693.676
258.8410, 8736.227
260.0580, 8737.155
261.2740, 8698.785
262.4900, 8503.229
263.7050, 8510.688
264.9210, 8436.763
266.1360, 8359.544
267.3520, 8395.527
268.5670, 8222.878
269.7820, 8257.107
270.9960, 8338.000
272.2110, 8145.000
273.4250, 8318.000
274.6400, 8256.000
275.8540, 8201.000
277.0680, 8097.000
278.2810, 8187.000
279.4950, 8166.000
280.7090, 8074.000
281.9220, 8152.000
283.1350, 8175.000
284.3480, 8108.000
285.5610, 8126.000
286.7730, 8179.000
287.9860, 8211.000
289.1980, 8153.000
290.4100, 8278.000
291.6220, 8200.000
292.8340, 8211.000
294.0460, 8210.000
295.2570, 8128.000
296.4690, 8199.000
297.6800, 8164.000
298.8910, 8083.000
300.1020, 8068.000
301.3120, 8113.000
302.5230, 8290.000
303.7330, 8270.000
304.9440, 8177.000
306.1540, 8280.000
307.3630, 8165.000
308.5730, 8053.000
309.7830, 8171.000
310.9920, 8183.000
312.2010, 8209.000
313.4100, 8230.000
314.6190, 8221.000
315.8280, 8168.000
317.0370, 8242.000
318.2450, 8231.561
319.4530, 8336.000
320.6610, 8237.000
321.8690, 8412.000
323.0770, 8322.000
324.2850, 8238.074
325.4920, 8320.499
326.6990, 8367.742
327.9060, 8381.694
329.1130, 8262.644
330.3200, 8315.338
331.5270, 8299.205
332.7330, 8280.248
333.9390, 8357.112
335.1450, 8257.405
336.3510, 8332.751
337.5570, 8338.218
338.7630, 8375.666
339.9680, 8343.860
341.1740, 8331.000
342.3790, 8429.000
343.5840, 8190.000
344.7890, 8314.000
345.9930, 8278.000
347.1980, 8358.000
348.4020, 8377.979
349.6060, 8285.000
350.8100, 8403.000
352.0140, 8328.000
353.2180, 8315.000
354.4210, 8384.000
355.6250, 8366.000
356.8280, 8458.000
358.0310, 8522.000
359.2340, 8343.000
360.4360, 8341.197
361.6390, 8478.981
362.8410, 8575.150
364.0430, 8631.976
365.2450, 8531.616
366.4470, 8634.229
367.6490, 8655.499
368.8510, 8673.435
370.0520, 8804.577
371.2530, 8727.045
372.4540, 8856.393
373.6550, 8903.157
374.8560, 8987.718
376.0560, 8990.399
377.2570, 9021.000
378.4570, 9148.000
379.6570, 9166.000
380.8570, 9362.000
382.0570, 9497.285
383.2560, 9411.044
384.4560, 9419.859
385.6550, 9261.000
386.8540, 9210.000
388.0530, 9181.000
389.2520, 9102.000
390.4510, 9133.000
391.6490, 9070.940
392.8470, 9045.419
394.0450, 9017.000
395.2430, 9003.000
396.4410, 9016.000
397.6390, 9038.000
398.8360, 9093.000
400.0340, 9107.000
401.2310, 9035.000
402.4280, 9028.000
403.6250, 9182.000
404.8210, 9184.734
406.0180, 9327.000
407.2140, 9338.000
408.4100, 9354.319
409.6060, 9363.755
410.8020, 9355.000
411.9980, 9306.000
413.1930, 9311.000
414.3890, 9301.000
415.5840, 9310.668
416.7790, 9362.000
417.9740, 9332.000
419.1680, 9342.000
420.3630, 9300.000
421.5570, 9339.000
422.7510, 9252.412
423.9450, 9097.271
425.1390, 9086.646
426.3330, 9057.631
427.5270, 8964.900
428.7200, 8947.013
429.9130, 8894.586
431.1060, 8837.623
432.2990, 8820.960
433.4920, 8851.000
434.6840, 8864.000
435.8770, 8743.000
437.0690, 8660.000
438.2610, 8510.000
439.4530, 8544.000
440.6450, 8454.000
441.8360, 8390.000
443.0280, 8396.000
444.2190, 8336.000
445.4100, 8407.000
446.6010, 8372.000
447.7920, 8308.000
448.9820, 8363.000
450.1730, 8345.000
451.3630, 8247.000
452.5530, 8324.000
453.7430, 8160.000
454.9330, 8286.000
456.1230, 8172.000
457.3120, 8138.000
458.5010, 8173.000
459.6910, 8260.000
460.8800, 8099.000
462.0680, 8274.000
463.2570, 8174.000
464.4460, 8189.000
465.6340, 8181.000
466.8220, 8061.000
468.0100, 8201.000
469.1980, 8102.000
470.3860, 8272.000
471.5730, 8221.000
472.7600, 8262.000
473.9480, 8081.000
475.1350, 8159.000
476.3210, 8138.000
477.5080, 8172.000
478.6950, 8263.000
479.8810, 8269.278
481.0670, 8293.000
482.2530, 8361.000
483.4390, 8302.000
484.6250, 8355.000
485.8100, 8166.000
486.9960, 8331.000
488.1810, 8265.000
489.3660, 8325.000
490.5510, 8441.000
491.7360, 8413.000
492.9200, 8423.000
494.1050, 8474.014
495.2890, 8505.022
496.4730, 8591.855
497.6570, 8665.896
498.8400, 8727.780
500.0240, 8741.349
501.2070, 8817.323
502.3910, 8868.316
503.5740, 8918.235
504.7570, 9002.998
505.9400, 9023.554
507.1220, 9107.717
508.3050, 9166.517
509.4870, 9236.898
510.6690, 9282.097
511.8510, 9335.074
513.0330, 9413.242
514.2140, 9477.412
515.3960, 9519.712
516.5770, 9590.785
517.7580, 9610.362
518.9390, 9675.129
520.1200, 9759.388
521.3010, 9857.000
522.4810, 9863.000
523.6610, 9924.018
524.8420, 10014.00
526.0220, 9957.000
527.2010, 9878.000
528.3810, 9868.000
529.5610, 9912.000
530.7400, 9977.000
531.9190, 9979.746
533.0980, 10017.00
534.2770, 10023.00
535.4560, 9946.000
536.6340, 9952.000
537.8120, 9936.000
538.9910, 10123.00
540.1690, 9998.000
541.3460, 10121.00
542.5240, 10100.00
543.7020, 9992.000
544.8790, 9951.000
546.0560, 9933.000
547.2330, 10042.00
548.4100, 9983.000
549.5870, 10059.00
550.7630, 9995.000
551.9400, 9882.000
553.1160, 9890.000
554.2920, 9834.813
555.4680, 9953.000
556.6440, 9855.000
557.8190, 9806.000
558.9950, 9940.000
560.1700, 9908.000
561.3450, 10001.00
562.5200, 9905.000
563.6950, 9889.000
564.8690, 9787.000
566.0440, 9790.000
567.2180, 9790.000
568.3920, 9692.000
569.5660, 9796.000
570.7400, 9722.000
571.9130, 9601.000
573.0870, 9583.000
574.2600, 9460.000
575.4330, 9444.000
576.6060, 9258.000
577.7790, 9304.000
578.9520, 9137.000
580.1240, 9208.000
581.2960, 9023.976
582.4690, 8908.974
583.6410, 8952.767
584.8120, 8955.023
585.9840, 8917.894
587.1560, 8723.579
588.3270, 8732.278
589.4980, 8659.639
590.6690, 8583.661
591.8400, 8620.928
593.0110, 8449.521
594.1810, 8485.033
595.3510, 8437.966
596.5220, 8428.652
597.6920, 8337.535
598.8610, 8271.741
600.0310, 8287.775
601.2010, 8258.478
602.3700, 8157.983
603.5390, 8160.420
604.7080, 8109.000
605.8770, 8115.000
607.0460, 8081.000
608.2140, 8111.000
609.3830, 8145.000
610.5510, 8125.000
611.7190, 8163.000
612.8870, 8209.000
614.0550, 8186.087
615.2220, 8222.000
616.3900, 8124.000
617.5570, 8333.000
618.7240, 8223.000
619.8910, 8378.000
621.0580, 8327.000
622.2240, 8286.000
623.3910, 8417.000
624.5570, 8384.000
625.7230, 8427.000
626.8890, 8443.546
628.0550, 8529.000
629.2200, 8456.000
630.3860, 8632.000
631.5510, 8696.000
632.7160, 8625.000
633.8810, 8763.000
635.0460, 8839.000
636.2100, 8921.000
637.3750, 9088.000
638.5390, 9157.000
639.7030, 9246.888
640.8670, 9282.000
642.0310, 9417.000
643.1950, 9476.000
644.3580, 9615.000
645.5210, 9629.000
646.6850, 9804.000
647.8480, 9843.673
649.0100, 9884.000
650.1730, 9959.196
651.3350, 10006.13
652.4980, 10049.54
653.6600, 10089.54
654.8220, 10116.11
655.9840, 10160.04
657.1450, 10196.97
658.3070, 10264.00
659.4680, 10300.00
660.6300, 10372.00
661.7910, 10490.00
662.9510, 10396.00
664.1120, 10351.00
665.2730, 10427.00
666.4330, 10247.00
667.5930, 10336.00
668.7530, 10147.00
669.9130, 10128.00
671.0730, 10057.00
672.2320, 10006.00
673.3920, 9947.000
674.5510, 9794.000
675.7100, 9793.000
676.8690, 9617.000
678.0280, 9590.000
679.1860, 9550.000
680.3450, 9494.000
681.5030, 9501.000
682.6610, 9469.000
683.8190, 9418.000
684.9770, 9328.000
686.1340, 9426.000
687.2920, 9276.000
688.4490, 9275.000
689.6060, 9303.000
690.7630, 9202.000
691.9200, 9168.000
693.0760, 9014.000
694.2330, 9188.000
695.3890, 9042.000
696.5450, 9153.000
697.7010, 9058.000
698.8570, 9154.000
700.0130, 9110.000
701.1680, 8962.000
702.3230, 9103.000
703.4780, 9056.000
704.6330, 9116.000
705.7880, 9173.000
706.9430, 9287.000
708.0970, 9255.000
709.2520, 9212.000
710.4060, 9282.000
711.5600, 9358.000
712.7140, 9470.000
713.8670, 9400.000
715.0210, 9495.000
716.1740, 9572.000
717.3270, 9536.000
718.4800, 9714.000
719.6330, 9647.000
720.7860, 9697.000
721.9380, 9764.000
723.0910, 9804.000
724.2430, 9818.385
725.3950, 9816.000
726.5470, 9858.000
727.6980, 9920.000
728.8500, 10015.00
730.0010, 10176.00
731.1530, 10188.35
732.3040, 10070.00
733.4550, 10206.00
734.6050, 10186.00
735.7560, 10068.00
736.9060, 10157.00
738.0560, 10111.00
739.2060, 10104.13
740.3560, 10233.27
741.5060, 10309.20
742.6560, 10334.77
743.8050, 10159.16
744.9540, 10243.32
746.1030, 10223.38
747.2520, 10199.17
748.4010, 10319.89
749.5500, 10173.54
750.6980, 10291.96
751.8460, 10304.69
752.9950, 10365.80
754.1420, 10322.14
755.2900, 10260.97
756.4380, 10341.67
757.5850, 10400.96
758.7330, 10439.93
759.8800, 10403.11
761.0270, 10459.92
762.1730, 10476.63
763.3200, 10489.96
764.4670, 10554.72
765.6130, 10519.48
766.7590, 10579.73
767.9050, 10599.30
769.0510, 10634.82
770.1960, 10688.89
771.3420, 10695.70
772.4870, 10796.92
773.6320, 10882.48
774.7770, 10953.24
775.9220, 10964.86
777.0670, 11052.85
778.2110, 11110.17
779.3560, 11166.30
780.5000, 11264.98
781.6440, 11311.00
782.7880, 11384.07
783.9320, 11426.00
785.0750, 11506.00
786.2180, 11533.88
787.3620, 11576.48
788.5050, 11579.00
789.6480, 11633.00
790.7900, 11576.00
791.9330, 11683.00
793.0750, 11684.00
794.2170, 11684.21
795.3590, 11778.00
796.5010, 11691.00
797.6430, 11672.00
798.7850, 11679.00
799.9260, 11525.00
801.0670, 11566.00
802.2080, 11418.82
803.3490, 11399.30
804.4900, 11364.13
805.6310, 11314.17
806.7710, 11205.09
807.9110, 11172.40
809.0510, 11109.10
810.1910, 11044.55
811.3310, 11000.84
812.4710, 10991.18
813.6100, 10965.91
814.7490, 10925.84
815.8880, 10826.62
817.0270, 10803.79
818.1660, 10750.34
819.3050, 10695.63
820.4430, 10683.58
821.5820, 10672.00
822.7200, 10621.01
823.8580, 10567.00
824.9950, 10507.74
826.1330, 10537.89
827.2710, 10525.86
828.4080, 10471.99
829.5450, 10361.50
830.6820, 10239.56
831.8190, 10224.79
832.9560, 10183.00
834.0920, 10149.00
835.2280, 10122.00
836.3650, 10032.00
837.5010, 9971.000
838.6360, 9965.088
839.7720, 9931.862
840.9080, 9895.000
842.0430, 9942.000
843.1780, 9785.000
844.3130, 9797.000
845.4480, 9804.000
846.5830, 9930.000
847.7170, 9806.000
848.8520, 9917.000
849.9860, 9791.000
851.1200, 9836.000
852.2540, 9836.000
853.3870, 9880.000
854.5210, 9846.000
855.6540, 9878.520
856.7880, 9850.805
857.9210, 9892.000
859.0540, 9810.000
860.1860, 9765.000
861.3190, 9777.000
862.4510, 9703.000
863.5840, 9743.000
864.7160, 9996.000
865.8480, 9791.000
866.9790, 9932.000
868.1110, 9970.000
869.2420, 9757.000
870.3740, 9934.735
871.5050, 10120.00
872.6360, 10020.00
873.7660, 10099.00
874.8970, 10033.00
876.0280, 10044.39
877.1580, 10020.86
878.2880, 10042.00
879.4180, 10006.00
880.5480, 9958.000
881.6770, 10080.00
882.8070, 10043.00
883.9360, 10091.88
885.0650, 10090.30
886.1940, 10235.00
887.3230, 10028.00
888.4520, 10225.00
889.5800, 10157.00
890.7090, 10194.00
891.8370, 10240.00
892.9650, 10316.00
894.0930, 10345.00
895.2200, 10381.16
896.3480, 10403.39
897.4750, 10398.00
898.6020, 10376.00
899.7290, 10315.00
900.8560, 10341.43
901.9830, 10408.00
903.1090, 10334.00
904.2360, 10318.00
905.3620, 10242.00
906.4880, 10296.00
907.6140, 10350.00
908.7400, 10316.00
909.8650, 10234.00
910.9900, 10284.00
912.1160, 10258.00
913.2410, 10362.00
914.3660, 10304.00
915.4900, 10214.00
916.6150, 10148.00
917.7390, 10269.00
918.8640, 10183.00
919.9880, 10306.00
921.1120, 10224.00
922.2350, 10165.00
923.3590, 10242.00
924.4820, 10209.00
925.6060, 10338.00
926.7290, 10311.00
927.8520, 10292.00
928.9740, 10329.00
930.0970, 10269.00
931.2190, 10418.00
932.3420, 10234.00
933.4640, 10405.00
934.5860, 10309.00
935.7080, 10486.00
936.8290, 10334.00
937.9510, 10364.00
939.0720, 10362.00
940.1930, 10439.00
941.3140, 10485.00
942.4350, 10498.00
943.5560, 10395.00
944.6760, 10440.00
945.7960, 10451.00
946.9170, 10517.00
948.0370, 10489.00
949.1560, 10630.00
950.2760, 10497.00
951.3960, 10603.00
952.5150, 10526.00
953.6340, 10511.00
954.7530, 10706.00
955.8720, 10621.00
956.9910, 10586.00
958.1090, 10544.96
959.2280, 10654.81
960.3460, 10721.62
961.4640, 10747.71
962.5820, 10611.15
963.6990, 10684.62
964.8170, 10673.93
965.9340, 10659.77
967.0510, 10762.80
968.1690, 10649.90
969.2850, 10751.06
970.4020, 10766.77
971.5190, 10821.59
972.6350, 10791.71
973.7510, 10787.99
974.8670, 10869.00
975.9830, 10903.08
977.0990, 10863.46
978.2150, 10920.76
979.3300, 10822.00
980.4450, 10816.00
981.5600, 10888.39
982.6750, 10831.00
983.7900, 10915.00
984.9050, 10968.00
986.0190, 10874.00
987.1340, 11101.00
988.2480, 10940.00
989.3620, 11044.00
990.4750, 11064.00
991.5890, 11095.00
992.7020, 11204.00
993.8160, 11234.27
994.9290, 11311.27
996.0420, 11352.00
997.1550, 11434.00
998.2670, 11478.00
999.3800, 11501.00
1000.492, 11733.00
1001.604, 11859.00
1002.716, 11768.49
1003.828, 11831.73
1004.940, 11859.80
1006.051, 11854.58
1007.163, 11716.36
1008.274, 11749.89
1009.385, 11714.59
1010.496, 11676.47
1011.606, 11777.00
1012.717, 11711.71
1013.827, 11727.95
1014.937, 11731.40
1016.047, 11722.75
1017.157, 11665.73
1018.267, 11671.17
1019.377, 11651.57
1020.486, 11630.96
1021.595, 11645.20
1022.704, 11595.23
1023.813, 11608.91
1024.922, 11597.18
1026.030, 11554.41
1027.139, 11578.12
1028.247, 11517.16
1029.355, 11482.35
1030.463, 11532.26
1031.571, 11535.27
1032.678, 11464.57
1033.786, 11490.78
1034.893, 11447.00
1036.000, 11393.00
1037.107, 11241.00
1038.214, 11321.00
1039.321, 11287.00
1040.427, 11111.00
1041.533, 11115.00
1042.639, 11063.00
1043.745, 11241.00
1044.851, 11037.00
1045.957, 11058.00
1047.062, 10955.00
1048.168, 10959.00
1049.273, 10930.00
1050.378, 10793.00
1051.482, 10956.00
1052.587, 10913.00
1053.692, 10830.00
1054.796, 10804.00
1055.900, 10817.00
1057.004, 10817.00
1058.108, 10808.29
1059.212, 10821.67
1060.315, 10781.00
1061.418, 10826.00
1062.522, 10772.00
1063.625, 10746.00
1064.728, 10794.00
1065.830, 10738.00
1066.933, 10728.00
1068.035, 10773.00
1069.137, 10716.55
1070.239, 10660.31
1071.341, 10743.60
1072.443, 10783.85
1073.545, 10783.40
1074.646, 10620.30
1075.747, 10667.24
1076.848, 10630.00
1077.949, 10589.31
1079.050, 10665.81
1080.150, 10526.38
1081.251, 10601.03
1082.351, 10590.22
1083.451, 10618.53
1084.551, 10562.15
1085.651, 10531.92
1086.750, 10586.43
1087.850, 10594.01
1088.949, 10527.89
1090.048, 10558.70
1091.147, 10416.33
1092.246, 10339.00
1093.345, 10368.00
1094.443, 10378.00
1095.541, 10409.00
1096.639, 10427.00
1097.737, 10456.00
1098.835, 10277.00
1099.933, 10220.00
1101.030, 10242.00
1102.128, 10326.00
1103.225, 10196.00
1104.322, 10196.00
1105.419, 10236.00
1106.515, 10240.00
1107.612, 10197.00
1108.708, 10310.00
1109.804, 10180.00
1110.900, 10205.00
1111.996, 10164.00
1113.092, 10064.00
1114.187, 10154.00
1115.283, 10083.90
1116.378, 10093.00
1117.473, 10087.00
1118.568, 10068.00
1119.662, 10143.00
1120.757, 10168.00
1121.851, 10098.00
1122.946, 10151.00
1124.040, 10241.00
1125.134, 10159.00
1126.227, 10205.83
1127.321, 10196.66
1128.414, 10168.00
1129.508, 10138.00
1130.601, 10079.00
1131.693, 10049.50
1132.786, 10252.00
1133.879, 9988.000
1134.971, 10013.00
1136.064, 10030.00
1137.156, 9834.000
1138.248, 9927.000
1139.339, 9827.000
1140.431, 9992.000
1141.522, 9977.000
1142.614, 9979.000
1143.705, 9980.000
1144.796, 9990.000
1145.887, 9971.660
1146.977, 9923.000
1148.068, 9966.000
1149.158, 9910.000
1150.248, 9968.000
1151.338, 9913.000
1152.428, 9895.000
1153.518, 9862.000
1154.607, 10015.00
1155.696, 9898.000
1156.785, 10018.00
1157.874, 10008.50
1158.963, 9971.000
1160.052, 9874.000
1161.141, 10066.00
1162.229, 9719.000
1163.317, 9971.000
1164.405, 9929.000
1165.493, 9934.000
1166.581, 9872.000
1167.668, 10028.00
1168.756, 9930.000
1169.843, 9900.000
1170.930, 9932.087
1172.017, 10109.00
1173.103, 9964.000
1174.190, 9868.000
1175.276, 9992.000
1176.363, 9900.000
1177.449, 10099.00
1178.535, 9947.000
1179.620, 9935.000
1180.706, 9930.000
1181.791, 9927.000
1182.877, 9920.000
1183.962, 9977.000
1185.047, 9984.000
1186.131, 10064.00
1187.216, 10070.00
1188.300, 10050.00
1189.385, 9934.000
1190.469, 10022.00
1191.553, 10025.00
1192.637, 10155.00
1193.720, 10037.00
1194.804, 10085.00
1195.887, 10066.00
1196.970, 10124.00
1198.053, 10111.00
1199.136, 10100.00
1200.219, 10107.00
1201.301, 10311.00
1202.383, 10194.27
1203.465, 10238.00
1204.547, 10071.00
1205.629, 10107.00
1206.711, 10018.00
1207.792, 10134.00
1208.874, 10156.00
1209.955, 10164.00
1211.036, 10091.00
1212.117, 10220.00
1213.198, 10181.94
1214.278, 10305.00
1215.359, 10174.00
1216.439, 10158.00
1217.519, 10074.00
1218.599, 10186.00
1219.678, 10234.00
1220.758, 10207.00
1221.837, 10319.00
1222.917, 10221.00
1223.996, 10207.00
1225.075, 10273.00
1226.153, 10273.00
1227.232, 10254.00
1228.310, 10292.00
1229.389, 10413.00
1230.467, 10279.00
1231.545, 10219.00
1232.622, 10354.00
1233.700, 10321.00
1234.777, 10402.00
1235.855, 10426.00
1236.932, 10256.00
1238.009, 10265.00
1239.086, 10293.00
1240.162, 10288.00
1241.239, 10290.35
1242.315, 10282.00
1243.391, 10308.00
1244.467, 10306.00
1245.543, 10382.00
1246.619, 10268.00
1247.694, 10391.00
1248.769, 10315.00
1249.844, 10397.00
1250.919, 10378.00
1251.994, 10363.00
1253.069, 10394.00
1254.144, 10352.00
1255.218, 10243.00
1256.292, 10419.00
1257.366, 10444.00
1258.440, 10419.00
1259.514, 10331.00
1260.587, 10448.00
1261.661, 10517.00
1262.734, 10332.00
1263.807, 10609.00
1264.880, 10433.00
1265.952, 10555.00
1267.025, 10514.00
1268.097, 10330.00
1269.170, 10551.00
1270.242, 10431.00
1271.314, 10614.00
1272.385, 10461.00
1273.457, 10590.00
1274.528, 10417.00
1275.600, 10494.00
1276.671, 10523.00
1277.742, 10621.00
1278.812, 10483.00
1279.883, 10531.00
1280.954, 10531.00
1282.024, 10506.00
1283.094, 10574.00
1284.164, 10558.00
1285.234, 10624.88
1286.303, 10696.00
1287.373, 10689.00
1288.442, 10710.00
1289.511, 10720.64
1290.580, 10632.00
1291.649, 10689.00
1292.718, 10646.00
1293.786, 10571.00
1294.855, 10546.00
1295.923, 10685.00
1296.991, 10549.00
1298.059, 10495.00
1299.126, 10627.00
1300.194, 10584.00
1301.261, 10701.00
1302.328, 10743.00
1303.395, 10630.00
1304.462, 10679.00
1305.529, 10649.00
1306.596, 10706.00
1307.662, 10713.00
1308.728, 10786.00
1309.794, 10779.13
1310.860, 10885.00
1311.926, 10777.00
1312.991, 10775.00
1314.057, 10773.00
1315.122, 10844.00
1316.187, 10809.00
1317.252, 10772.00
1318.317, 10757.00
1319.381, 10782.00
1320.446, 10880.00
1321.510, 10804.00
1322.574, 10830.00
1323.638, 10818.00
1324.702, 10778.00
1325.766, 10840.00
1326.829, 10811.17
1327.892, 10917.00
1328.956, 10768.00
1330.019, 10856.00
1331.081, 10745.00
1332.144, 10831.00
1333.206, 10699.00
1334.269, 10825.00
1335.331, 10697.00
1336.393, 10720.58
1337.455, 10823.69
1338.516, 10883.76
1339.578, 10903.12
1340.639, 10759.82
1341.701, 10826.56
1342.762, 10809.12
1343.822, 10788.23
1344.883, 10884.53
1345.944, 10764.89
1347.004, 10859.33
1348.064, 10868.30
1349.124, 10916.39
1350.184, 10879.79
1351.244, 10869.35
1352.304, 10943.62
1353.363, 10970.99
1354.422, 10924.63
1355.481, 10975.20
1356.540, 10852.59
1357.599, 10840.00
1358.657, 10829.61
1359.716, 10929.83
1360.774, 10987.04
1361.832, 11003.52
1362.890, 10857.35
1363.948, 10921.22
1365.006, 10900.92
1366.063, 10877.16
1367.120, 10970.58
1368.178, 10848.07
1369.234, 10939.64
1370.291, 10945.75
1371.348, 10990.97
1372.404, 10948.00
1373.461, 10923.00
1374.517, 10865.00
1375.573, 10752.00
1376.629, 10878.00
1377.684, 11057.00
1378.740, 11056.00
1379.795, 10879.00
1380.850, 11066.00
1381.905, 10873.00
1382.960, 10761.00
1384.015, 11027.00
1385.070, 10905.00
1386.124, 10981.00
1387.178, 10947.00
1388.232, 10969.00
1389.286, 10953.00
1390.340, 11049.00
1391.393, 10975.00
1392.447, 10955.00
1393.500, 11074.00
1394.553, 10996.00
1395.606, 10960.00
1396.659, 10999.07
1397.711, 10780.00
1398.764, 10966.00
1399.816, 10909.22
1400.868, 11010.77
1401.920, 11069.30
1402.972, 11087.11
1404.023, 10942.26
1405.075, 11007.46
1406.126, 10988.47
1407.177, 10966.04
1408.228, 11060.79
1409.279, 10939.60
1410.330, 11032.49
1411.380, 11039.92
1412.431, 11086.47
1413.481, 11048.32
1414.531, 11036.33
1415.580, 11109.06
1416.630, 11134.88
1417.680, 11086.98
1418.729, 11136.01
1419.778, 11086.00
1420.827, 11053.54
1421.876, 11158.00
1422.925, 11034.00
1423.973, 11113.00
1425.022, 11174.00
1426.070, 11335.00
1427.118, 11290.19
1428.166, 11326.28
1429.214, 11256.00
1430.261, 11251.00
1431.309, 11279.00
1432.356, 11181.00
1433.403, 11256.00
1434.450, 11320.00
1435.497, 11327.00
1436.543, 11382.25
1437.590, 11417.00
1438.636, 11441.00
1439.682, 11513.10
1440.728, 11546.00
1441.774, 11583.00
1442.819, 11422.00
1443.865, 11433.00
1444.910, 11524.00
1445.955, 11651.00
1447.000, 11596.00
1448.045, 11546.00
1449.090, 11560.00
1450.134, 11741.00
1451.178, 11708.00
1452.223, 11683.46
1453.267, 11604.00
1454.310, 11526.00
1455.354, 11614.00
1456.398, 11529.00
1457.441, 11591.00
1458.484, 11566.00
1459.527, 11544.00
1460.570, 11526.00
1461.613, 11530.00
1462.655, 11494.88
1463.698, 11366.00
1464.740, 11489.00
1465.782, 11455.00
1466.824, 11558.00
1467.866, 11524.00
1468.907, 11442.00
1469.948, 11401.00
1470.990, 11364.00
1472.031, 11350.00
1473.072, 11456.00
1474.112, 11472.00
1475.153, 11349.00
1476.194, 11501.00
1477.234, 11333.00
1478.274, 11507.00
1479.314, 11564.00
1480.354, 11457.10
1481.393, 11518.90
1482.433, 11314.00
1483.472, 11476.00
1484.511, 11425.00
1485.550, 11470.00
1486.589, 11557.00
1487.628, 11454.00
1488.666, 11385.00
1489.704, 11383.00
1490.743, 11338.00
1491.781, 11424.00
1492.819, 11420.00
1493.856, 11425.85
1494.894, 11455.00
1495.931, 11417.00
1496.968, 11407.00
1498.005, 11356.21
1499.042, 11457.00
1500.079, 11395.00
1501.115, 11408.45
1502.152, 11512.25
1503.188, 11573.01
1504.224, 11593.07
1505.260, 11450.46
1506.296, 11517.90
1507.331, 11501.15
1508.367, 11480.96
1509.402, 11577.95
1510.437, 11459.00
1511.472, 11554.13
1512.507, 11563.80
1513.541, 11612.59
1514.576, 11576.68
1515.610, 11566.92
1516.644, 11641.89
1517.678, 11669.95
1518.712, 11624.29
1519.746, 11675.55
1520.779, 11553.63
1521.813, 11583.69
1522.846, 11679.30
1523.879, 11637.89
1524.912, 11690.70
1525.944, 11707.62
1526.977, 11561.48
1528.009, 11698.93
1529.041, 11713.73
1530.073, 11602.59
1531.105, 11730.32
1532.137, 11636.55
1533.168, 11621.84
1534.200, 11666.63
1535.231, 11649.39
1536.262, 11655.30
1537.293, 11757.92
1538.324, 11817.51
1539.354, 11836.39
1540.385, 11692.61
1541.415, 11758.87
1542.445, 11740.95
1543.475, 11719.58
1544.505, 11815.40
1545.534, 11695.27
1546.564, 11789.23
1547.593, 11797.73
1548.622, 11845.33
1549.651, 11808.25
1550.680, 11797.33
1551.708, 11871.12
1552.737, 11898.00
1553.765, 11851.16
1554.793, 11901.25
1555.821, 11778.16
1556.849, 11807.04
1557.877, 11901.49
1558.904, 11858.91
1559.932, 11910.54
1560.959, 11926.30
1561.986, 11778.97
1563.013, 11915.25
1564.039, 11928.88
1565.066, 11816.57
1566.092, 11943.13
1567.119, 11848.19
1568.145, 11832.31
1569.170, 11875.92
1570.196, 11857.51
1571.222, 11936.90
1572.247, 11914.00
1573.272, 11981.00
1574.297, 11997.00
1575.322, 11872.00
1576.347, 11878.00
1577.372, 11993.00
##END=



