##NAMES=Magnesio-hastingsite
##RRUFFID=R070288
##IDEAL CHEMISTRY=NaCa_2_(Mg_4_Fe^3+^)Si_6_Al_2_O_22_(OH)_2_
##LOCALITY=Dallas Gem Mine (Gem Mine; Benitoite Mine), New Idria District, San Benito County, California, USA
##OWNER=RRUFF
##SOURCE=Michael Scott
##DESCRIPTION=Dark brown to black prismatic crystals frozen in albite
##STATUS=The identification of this mineral is confirmed by single-crystal X-ray diffraction and chemical analysis.
##URL=rruff.info/R070288
##MEASURED CHEMISTRY=(Na_0.51_[box]_0.33_K_0.16_)_Σ=1_(Ca_1.75_Na_0.25_)_Σ=2_(Mg_3.02_Fe^2+^_0.61_Ti_0.37_)_Σ=4_(Fe^3+^_0.73_Al_0.27_)_Σ=1_Si_5.84_Al_2.16_O_22_(OH)_2_; (OH) estimated by difference
##PIN_ID=M01712
##ORIENTATION=Laser parallel to (1 0 1). Fiducial mark perpendicular to laser is parallel to b [0 1 0]
127.7630, 9629.000
128.9970, 9839.000
130.2300, 9841.000
131.4640, 9998.000
132.6970, 10478.00
133.9300, 9558.000
135.1630, 9535.000
136.3950, 9481.000
137.6280, 9777.000
138.8600, 10156.00
140.0920, 10175.00
141.3240, 10066.00
142.5560, 9599.000
143.7880, 9650.000
145.0190, 9630.000
146.2510, 9701.000
147.4820, 9874.000
148.7130, 9552.000
149.9440, 9698.000
151.1750, 9795.000
152.4050, 9702.000
153.6360, 10047.00
154.8660, 10302.00
156.0960, 10297.28
157.3260, 10329.00
158.5560, 10438.00
159.7850, 10551.00
161.0150, 10654.00
162.2440, 10633.54
163.4730, 10703.86
164.7020, 10664.86
165.9310, 10518.60
167.1590, 10156.52
168.3880, 9910.701
169.6160, 9985.000
170.8440, 9923.000
172.0720, 9827.000
173.3000, 9610.000
174.5280, 9652.000
175.7550, 9570.000
176.9820, 9501.000
178.2100, 9582.000
179.4370, 9542.000
180.6630, 9681.000
181.8900, 9674.000
183.1170, 9591.000
184.3430, 9556.000
185.5690, 9574.062
186.7950, 9705.000
188.0210, 9582.192
189.2470, 9602.393
190.4720, 9584.268
191.6970, 9529.823
192.9230, 9330.230
194.1480, 9318.050
195.3730, 9417.000
196.5970, 9173.000
197.8220, 9236.000
199.0460, 9191.000
200.2700, 9239.000
201.4940, 9266.000
202.7180, 9052.000
203.9420, 9099.000
205.1660, 8871.000
206.3890, 8704.000
207.6120, 8768.000
208.8350, 8748.000
210.0580, 8884.000
211.2810, 8926.000
212.5040, 8979.000
213.7260, 9161.000
214.9480, 9190.000
216.1700, 9515.000
217.3920, 10325.09
218.6140, 10700.44
219.8360, 10964.40
221.0570, 11017.66
222.2790, 11009.45
223.5000, 10941.90
224.7210, 10706.22
225.9410, 10634.97
227.1620, 10491.00
228.3820, 10289.00
229.6030, 10150.00
230.8230, 10020.00
232.0430, 9730.000
233.2630, 9477.000
234.4820, 9332.000
235.7020, 9277.000
236.9210, 9008.000
238.1400, 8935.000
239.3590, 8734.000
240.5780, 8779.000
241.7970, 8631.000
243.0150, 8510.000
244.2340, 8453.000
245.4520, 8560.000
246.6700, 8312.000
247.8880, 8426.000
249.1060, 8281.000
250.3230, 8236.000
251.5400, 8113.000
252.7580, 8031.123
253.9750, 8025.398
255.1920, 8003.682
256.4080, 7966.869
257.6250, 7869.565
258.8410, 7850.361
260.0580, 7799.837
261.2740, 7748.067
262.4900, 7739.851
263.7050, 7651.409
264.9210, 7642.502
266.1360, 7601.867
267.3520, 7575.734
268.5670, 7518.158
269.7820, 7470.303
270.9960, 7583.000
272.2110, 7524.000
273.4250, 7458.000
274.6400, 7245.503
275.8540, 7301.025
277.0680, 7340.557
278.2810, 7364.939
279.4950, 7328.883
280.7090, 7370.892
281.9220, 7381.599
283.1350, 7391.024
284.3480, 7444.003
285.5610, 7416.724
286.7730, 7459.000
287.9860, 7387.000
289.1980, 7379.000
290.4100, 7498.000
291.6220, 7442.000
292.8340, 7547.000
294.0460, 7414.000
295.2570, 7494.000
296.4690, 7450.000
297.6800, 7585.000
298.8910, 7499.000
300.1020, 7435.000
301.3120, 7471.068
302.5230, 7570.000
303.7330, 7426.000
304.9440, 7555.000
306.1540, 7508.000
307.3630, 7590.000
308.5730, 7556.000
309.7830, 7444.000
310.9920, 7552.376
312.2010, 7526.063
313.4100, 7621.000
314.6190, 7619.000
315.8280, 7543.000
317.0370, 7607.000
318.2450, 7544.000
319.4530, 7534.000
320.6610, 7626.000
321.8690, 7616.000
323.0770, 7609.562
324.2850, 7732.000
325.4920, 7622.000
326.6990, 7578.000
327.9060, 7706.000
329.1130, 7646.000
330.3200, 7603.000
331.5270, 7648.000
332.7330, 7612.000
333.9390, 7594.257
335.1450, 7614.483
336.3510, 7549.000
337.5570, 7639.000
338.7630, 7642.000
339.9680, 7676.000
341.1740, 7626.000
342.3790, 7644.000
343.5840, 7568.000
344.7890, 7655.000
345.9930, 7596.000
347.1980, 7613.000
348.4020, 7536.000
349.6060, 7717.000
350.8100, 7663.000
352.0140, 7683.117
353.2180, 7658.000
354.4210, 7729.000
355.6250, 7700.000
356.8280, 7824.000
358.0310, 7786.000
359.2340, 7813.000
360.4360, 7890.000
361.6390, 7889.000
362.8410, 7981.000
364.0430, 8069.000
365.2450, 8089.219
366.4470, 8231.000
367.6490, 8144.000
368.8510, 8186.600
370.0520, 8275.748
371.2530, 8326.516
372.4540, 8340.966
373.6550, 8337.292
374.8560, 8267.039
376.0560, 8248.668
377.2570, 8227.221
378.4570, 8152.000
379.6570, 8224.000
380.8570, 8063.868
382.0570, 8117.369
383.2560, 8132.519
384.4560, 8111.323
385.6550, 7945.062
386.8540, 7966.157
388.0530, 7912.169
389.2520, 8019.000
390.4510, 7848.000
391.6490, 7940.000
392.8470, 7841.854
394.0450, 7792.424
395.2430, 7752.000
396.4410, 7684.000
397.6390, 7790.000
398.8360, 7731.000
400.0340, 7726.000
401.2310, 7830.000
402.4280, 7732.000
403.6250, 7690.000
404.8210, 7667.077
406.0180, 7747.527
407.2140, 7789.602
408.4100, 7795.359
409.6060, 7656.023
410.8020, 7704.045
411.9980, 7676.982
413.1930, 7665.000
414.3890, 7661.593
415.5840, 7722.582
416.7790, 7745.191
417.9740, 7731.482
419.1680, 7572.703
420.3630, 7601.258
421.5570, 7554.752
422.7510, 7505.167
423.9450, 7560.116
425.1390, 7422.440
426.3330, 7556.000
427.5270, 7260.000
428.7200, 7365.000
429.9130, 7362.000
431.1060, 7313.000
432.2990, 7287.000
433.4920, 7299.000
434.6840, 7236.000
435.8770, 7257.000
437.0690, 7291.000
438.2610, 7177.000
439.4530, 7338.000
440.6450, 7185.000
441.8360, 7252.000
443.0280, 7173.000
444.2190, 7190.453
445.4100, 7158.972
446.6010, 7277.000
447.7920, 7094.000
448.9820, 7174.000
450.1730, 7177.000
451.3630, 7106.000
452.5530, 7129.000
453.7430, 7114.000
454.9330, 7053.000
456.1230, 7036.000
457.3120, 7218.000
458.5010, 7128.000
459.6910, 7116.000
460.8800, 7026.000
462.0680, 7153.000
463.2570, 6996.000
464.4460, 7057.000
465.6340, 7097.000
466.8220, 7049.000
468.0100, 7231.000
469.1980, 7123.616
470.3860, 7158.000
471.5730, 7033.000
472.7600, 7035.000
473.9480, 7054.000
475.1350, 6859.000
476.3210, 7041.000
477.5080, 6950.000
478.6950, 7099.000
479.8810, 7090.000
481.0670, 7139.000
482.2530, 7178.000
483.4390, 7085.000
484.6250, 7140.000
485.8100, 7177.000
486.9960, 7099.000
488.1810, 7180.000
489.3660, 7174.000
490.5510, 7312.000
491.7360, 7281.000
492.9200, 7323.000
494.1050, 7293.000
495.2890, 7465.000
496.4730, 7388.000
497.6570, 7522.000
498.8400, 7551.000
500.0240, 7692.000
501.2070, 7742.000
502.3910, 7776.000
503.5740, 7784.000
504.7570, 8004.000
505.9400, 8005.000
507.1220, 8131.000
508.3050, 8195.000
509.4870, 8161.000
510.6690, 8387.000
511.8510, 8384.107
513.0330, 8390.649
514.2140, 8452.374
515.3960, 8498.129
516.5770, 8528.731
517.7580, 8498.877
518.9390, 8547.089
520.1200, 8564.015
521.3010, 8579.659
522.4810, 8638.836
523.6610, 8617.754
524.8420, 8676.261
526.0220, 8702.985
527.2010, 8744.226
528.3810, 8754.008
529.5610, 8773.513
530.7400, 8824.486
531.9190, 8858.023
533.0980, 8864.000
534.2770, 8907.000
535.4560, 8885.000
536.6340, 8895.000
537.8120, 8989.000
538.9910, 8929.203
540.1690, 8787.000
541.3460, 8911.000
542.5240, 8872.000
543.7020, 8938.000
544.8790, 8863.000
546.0560, 8917.000
547.2330, 8941.000
548.4100, 8950.000
549.5870, 8912.000
550.7630, 8896.000
551.9400, 8885.000
553.1160, 8966.000
554.2920, 8914.000
555.4680, 8947.000
556.6440, 8907.976
557.8190, 8944.000
558.9950, 8831.000
560.1700, 8841.000
561.3450, 8858.000
562.5200, 8922.000
563.6950, 8797.000
564.8690, 8774.000
566.0440, 8751.000
567.2180, 8708.000
568.3920, 8580.844
569.5660, 8582.946
570.7400, 8549.863
571.9130, 8483.555
573.0870, 8284.184
574.2600, 8256.618
575.4330, 8160.229
576.6060, 8061.015
577.7790, 8057.627
578.9520, 7877.663
580.1240, 7872.821
581.2960, 7798.102
582.4690, 7683.000
583.6410, 7594.000
584.8120, 7624.000
585.9840, 7537.000
587.1560, 7471.000
588.3270, 7357.000
589.4980, 7320.510
590.6690, 7303.000
591.8400, 7278.000
593.0110, 7248.503
594.1810, 7192.000
595.3510, 7209.000
596.5220, 7118.168
597.6920, 7126.053
598.8610, 7008.000
600.0310, 7068.000
601.2010, 7028.000
602.3700, 7086.000
603.5390, 6940.000
604.7080, 7076.000
605.8770, 7042.000
607.0460, 7097.000
608.2140, 7142.000
609.3830, 7125.000
610.5510, 7127.000
611.7190, 7145.000
612.8870, 7163.000
614.0550, 7254.000
615.2220, 7199.000
616.3900, 7422.000
617.5570, 7230.000
618.7240, 7432.000
619.8910, 7446.000
621.0580, 7393.000
622.2240, 7446.000
623.3910, 7533.587
624.5570, 7544.258
625.7230, 7769.000
626.8890, 7707.000
628.0550, 7789.583
629.2200, 7993.000
630.3860, 7986.000
631.5510, 8215.000
632.7160, 8284.000
633.8810, 8372.000
635.0460, 8441.000
636.2100, 8526.000
637.3750, 8703.000
638.5390, 8868.000
639.7030, 9147.000
640.8670, 9185.000
642.0310, 9451.000
643.1950, 9636.601
644.3580, 9773.083
645.5210, 9893.579
646.6850, 9999.027
647.8480, 10043.94
649.0100, 10166.82
650.1730, 10258.50
651.3350, 10348.83
652.4980, 10521.84
653.6600, 10603.01
654.8220, 10678.84
655.9840, 10749.64
657.1450, 10800.22
658.3070, 10876.88
659.4680, 10943.06
660.6300, 10988.00
661.7910, 10924.02
662.9510, 10989.00
664.1120, 10824.00
665.2730, 10783.00
666.4330, 10817.00
667.5930, 10552.00
668.7530, 10514.00
669.9130, 10273.00
671.0730, 10165.00
672.2320, 9953.000
673.3920, 9724.000
674.5510, 9530.000
675.7100, 9554.000
676.8690, 9438.000
678.0280, 9315.000
679.1860, 9119.000
680.3450, 9060.000
681.5030, 8928.000
682.6610, 8973.000
683.8190, 8925.000
684.9770, 8839.000
686.1340, 8810.000
687.2920, 8800.000
688.4490, 8789.000
689.6060, 8639.000
690.7630, 8642.188
691.9200, 8604.000
693.0760, 8467.000
694.2330, 8484.000
695.3890, 8227.000
696.5450, 8336.000
697.7010, 8126.000
698.8570, 8190.000
700.0130, 8167.000
701.1680, 8011.000
702.3230, 8104.000
703.4780, 7946.000
704.6330, 8040.000
705.7880, 7900.000
706.9430, 8161.000
708.0970, 8128.000
709.2520, 8143.000
710.4060, 8225.000
711.5600, 8021.000
712.7140, 8177.000
713.8670, 8166.000
715.0210, 8169.000
716.1740, 8451.000
717.3270, 8325.000
718.4800, 8467.000
719.6330, 8487.000
720.7860, 8476.000
721.9380, 8390.000
723.0910, 8366.000
724.2430, 8499.000
725.3950, 8639.000
726.5470, 8592.000
727.6980, 8519.000
728.8500, 8634.000
730.0010, 8635.000
731.1530, 8518.000
732.3040, 8572.000
733.4550, 8666.000
734.6050, 8608.280
735.7560, 8664.000
736.9060, 8703.000
738.0560, 8697.688
739.2060, 8691.000
740.3560, 8681.000
741.5060, 8663.466
742.6560, 8662.000
743.8050, 8658.000
744.9540, 8688.000
746.1030, 8766.000
747.2520, 8724.958
748.4010, 8745.613
749.5500, 8703.000
750.6980, 8698.000
751.8460, 8666.254
752.9950, 8773.476
754.1420, 8845.470
755.2900, 8884.193
756.4380, 8789.917
757.5850, 8867.362
758.7330, 8876.002
759.8800, 8881.797
761.0270, 8983.413
762.1730, 8908.435
763.3200, 9008.532
764.4670, 9038.752
765.6130, 9100.929
766.7590, 9093.854
767.9050, 9080.652
769.0510, 9169.758
770.1960, 9242.824
771.3420, 9300.806
772.4870, 9298.287
773.6320, 9373.834
774.7770, 9418.093
775.9220, 9461.072
777.0670, 9547.606
778.2110, 9553.834
779.3560, 9639.678
780.5000, 9693.712
781.6440, 9762.282
782.7880, 9799.377
783.9320, 9846.192
785.0750, 9924.451
786.2180, 9985.274
787.3620, 10018.74
788.5050, 10088.19
789.6480, 10093.28
790.7900, 10154.79
791.9330, 10255.00
793.0750, 10225.00
794.2170, 10155.60
795.3590, 10262.64
796.5010, 10302.55
797.6430, 10275.63
798.7850, 10166.77
799.9260, 10265.46
801.0670, 10141.00
802.2080, 10159.00
803.3490, 10202.00
804.4900, 10142.00
805.6310, 10122.00
806.7710, 10085.00
807.9110, 10187.00
809.0510, 10113.00
810.1910, 10144.00
811.3310, 9925.841
812.4710, 9942.372
813.6100, 9942.930
814.7490, 9928.354
815.8880, 9853.324
817.0270, 9856.360
818.1660, 9828.110
819.3050, 9798.579
820.4430, 9812.621
821.5820, 9746.385
822.7200, 9729.000
823.8580, 9705.000
824.9950, 9674.292
826.1330, 9596.000
827.2710, 9605.000
828.4080, 9549.000
829.5450, 9523.000
830.6820, 9395.000
831.8190, 9491.000
832.9560, 9360.000
834.0920, 9297.000
835.2280, 9112.000
836.3650, 9028.000
837.5010, 8968.000
838.6360, 8836.000
839.7720, 8908.000
840.9080, 8889.000
842.0430, 8793.000
843.1780, 8737.000
844.3130, 8816.000
845.4480, 8534.000
846.5830, 8580.000
847.7170, 8699.000
848.8520, 8659.000
849.9860, 8542.000
851.1200, 8486.000
852.2540, 8547.000
853.3870, 8643.000
854.5210, 8566.000
855.6540, 8514.000
856.7880, 8440.709
857.9210, 8529.351
859.0540, 8574.759
860.1860, 8579.348
861.3190, 8416.194
862.4510, 8473.173
863.5840, 8444.089
864.7160, 8412.958
865.8480, 8505.323
866.9790, 8374.500
868.1110, 8468.010
869.2420, 8474.122
870.3740, 8522.479
871.5050, 8484.229
872.6360, 8474.742
873.7660, 8554.952
874.8970, 8587.887
876.0280, 8577.000
877.1580, 8577.000
878.2880, 8602.000
879.4180, 8635.000
880.5480, 8643.574
881.6770, 8656.000
882.8070, 8691.000
883.9360, 8708.000
885.0650, 8757.000
886.1940, 8794.000
887.3230, 8863.000
888.4520, 9183.000
889.5800, 9322.288
890.7090, 9380.000
891.8370, 9772.000
892.9650, 9768.988
894.0930, 9770.461
895.2200, 9754.000
896.3480, 9628.000
897.4750, 9203.000
898.6020, 9152.000
899.7290, 9190.000
900.8560, 9155.000
901.9830, 9225.000
903.1090, 9153.000
904.2360, 9168.000
905.3620, 9162.000
906.4880, 9255.000
907.6140, 9085.000
908.7400, 8974.000
909.8650, 9192.000
910.9900, 9020.000
912.1160, 9129.000
913.2410, 9036.000
914.3660, 9051.000
915.4900, 9167.000
916.6150, 9123.000
917.7390, 9088.000
918.8640, 9102.000
919.9880, 9071.558
921.1120, 9068.083
922.2350, 9067.000
923.3590, 9066.000
924.4820, 9092.000
925.6060, 9114.000
926.7290, 9042.000
927.8520, 9020.000
928.9740, 9104.000
930.0970, 9025.000
931.2190, 9131.000
932.3420, 9128.000
933.4640, 9081.000
934.5860, 8957.000
935.7080, 9099.000
936.8290, 9121.000
937.9510, 9213.000
939.0720, 9117.000
940.1930, 9067.000
941.3140, 9204.000
942.4350, 9168.000
943.5560, 9170.000
944.6760, 9209.000
945.7960, 9289.000
946.9170, 9261.000
948.0370, 9159.000
949.1560, 9140.776
950.2760, 9254.322
951.3960, 9323.091
952.5150, 9349.479
953.6340, 9206.593
954.7530, 9282.290
955.8720, 9270.389
956.9910, 9254.896
958.1090, 9361.348
959.2280, 9243.081
960.3460, 9347.599
961.4640, 9363.182
962.5820, 9419.467
963.6990, 9387.604
964.8170, 9382.974
965.9340, 9466.501
967.0510, 9501.210
968.1690, 9459.210
969.2850, 9518.062
970.4020, 9502.359
971.5190, 9542.791
972.6350, 9545.209
973.7510, 9382.692
974.8670, 9443.099
975.9830, 9420.247
977.0990, 9398.144
978.2150, 9502.335
979.3300, 9386.125
980.4450, 9497.041
981.5600, 9523.354
982.6750, 9594.702
983.7900, 9695.000
984.9050, 9520.000
986.0190, 9690.000
987.1340, 9636.000
988.2480, 9735.000
989.3620, 9770.000
990.4750, 9713.000
991.5890, 9952.000
992.7020, 9780.000
993.8160, 9851.000
994.9290, 10013.00
996.0420, 9977.212
997.1550, 10163.68
998.2670, 10099.00
999.3800, 10476.00
1000.492, 10544.00
1001.604, 10734.00
1002.716, 10887.00
1003.828, 10891.60
1004.940, 10759.00
1006.051, 10872.00
1007.163, 10626.00
1008.274, 10518.00
1009.385, 10796.00
1010.496, 10638.00
1011.606, 10688.59
1012.717, 10912.00
1013.827, 10668.00
1014.937, 10644.00
1016.047, 10635.00
1017.157, 10468.00
1018.267, 10466.00
1019.377, 10497.00
1020.486, 10462.00
1021.595, 10422.00
1022.704, 10459.00
1023.813, 10357.29
1024.922, 10382.16
1026.030, 10264.00
1027.139, 10303.00
1028.247, 10176.46
1029.355, 10224.36
1030.463, 10227.48
1031.571, 10188.22
1032.678, 9979.749
1033.786, 9989.804
1034.893, 9912.312
1036.000, 9831.224
1037.107, 9903.000
1038.214, 9800.000
1039.321, 9802.000
1040.427, 9719.000
1041.533, 9610.000
1042.639, 9583.000
1043.745, 9556.000
1044.851, 9517.000
1045.957, 9540.000
1047.062, 9598.000
1048.168, 9572.000
1049.273, 9425.000
1050.378, 9246.000
1051.482, 9555.000
1052.587, 9350.000
1053.692, 9447.000
1054.796, 9340.000
1055.900, 9256.000
1057.004, 9273.000
1058.108, 9225.000
1059.212, 9108.000
1060.315, 9218.000
1061.418, 9213.000
1062.522, 9120.000
1063.625, 9047.000
1064.728, 9161.000
1065.830, 9106.000
1066.933, 9083.000
1068.035, 8905.000
1069.137, 9015.000
1070.239, 8958.821
1071.341, 8933.000
1072.443, 8968.000
1073.545, 8995.000
1074.646, 8959.723
1075.747, 8885.567
1076.848, 8896.620
1077.949, 8852.000
1079.050, 8836.000
1080.150, 8850.281
1081.251, 8770.952
1082.351, 8783.000
1083.451, 8792.000
1084.551, 8674.000
1085.651, 8777.000
1086.750, 8724.000
1087.850, 8623.000
1088.949, 8638.000
1090.048, 8455.000
1091.147, 8534.000
1092.246, 8480.000
1093.345, 8536.000
1094.443, 8507.000
1095.541, 8491.087
1096.639, 8456.000
1097.737, 8457.000
1098.835, 8427.099
1099.933, 8421.000
1101.030, 8481.000
1102.128, 8312.000
1103.225, 8446.000
1104.322, 8344.000
1105.419, 8304.000
1106.515, 8365.000
1107.612, 8215.000
1108.708, 8197.000
1109.804, 8249.000
1110.900, 8192.000
1111.996, 8187.760
1113.092, 8272.000
1114.187, 8200.000
1115.283, 8044.000
1116.378, 8187.000
1117.473, 8121.000
1118.568, 8076.000
1119.662, 8277.000
1120.757, 8208.000
1121.851, 8133.000
1122.946, 8281.000
1124.040, 8193.000
1125.134, 8252.000
1126.227, 8139.000
1127.321, 8153.000
1128.414, 8175.000
1129.508, 8141.000
1130.601, 8064.000
1131.693, 7956.000
1132.786, 7957.916
1133.879, 7938.121
1134.971, 7955.000
1136.064, 7967.000
1137.156, 7953.895
1138.248, 8007.000
1139.339, 7945.000
1140.431, 7900.000
1141.522, 7901.000
1142.614, 7964.000
1143.705, 7959.000
1144.796, 8033.000
1145.887, 7896.000
1146.977, 7846.766
1148.068, 7945.241
1149.158, 7998.942
1150.248, 8010.272
1151.338, 7852.328
1152.428, 7912.967
1153.518, 7886.008
1154.607, 7855.460
1155.696, 7946.868
1156.785, 7813.547
1157.874, 7903.021
1158.963, 7903.559
1160.052, 7944.800
1161.141, 7897.903
1162.229, 7878.232
1163.317, 7946.729
1164.405, 7966.406
1165.493, 7909.365
1166.581, 7953.198
1167.668, 7937.000
1168.756, 7818.000
1169.843, 7815.000
1170.930, 7869.000
1172.017, 7866.000
1173.103, 7914.000
1174.190, 7794.528
1175.276, 7901.394
1176.363, 7963.487
1177.449, 7983.206
1178.535, 7833.649
1179.620, 7902.671
1180.706, 7884.100
1181.791, 7861.932
1182.877, 7961.723
1183.962, 7836.783
1185.047, 7934.636
1186.131, 7943.550
1187.216, 7993.171
1188.300, 7954.649
1189.385, 7943.355
1190.469, 8020.224
1191.553, 8048.273
1192.637, 7999.605
1193.720, 8051.805
1194.804, 7892.000
1195.887, 8074.000
1196.970, 7956.000
1198.053, 7970.000
1199.136, 7992.000
1200.219, 8077.000
1201.301, 8117.000
1202.383, 8121.000
1203.465, 8137.000
1204.547, 8152.000
1205.629, 8169.000
1206.711, 8181.000
1207.792, 8090.000
1208.874, 8120.433
1209.955, 8156.000
1211.036, 8090.000
1212.117, 8182.000
1213.198, 8140.000
1214.278, 8107.000
1215.359, 8146.000
1216.439, 8180.000
1217.519, 8087.000
1218.599, 8075.000
1219.678, 8120.000
1220.758, 8088.000
1221.837, 8116.321
1222.917, 8164.000
1223.996, 8180.000
1225.075, 8166.000
1226.153, 8260.000
1227.232, 8220.000
1228.310, 8220.000
1229.389, 8136.000
1230.467, 8103.000
1231.545, 8108.000
1232.622, 8215.000
1233.700, 8102.000
1234.777, 8243.000
1235.855, 8198.000
1236.932, 8163.000
1238.009, 8248.000
1239.086, 8093.000
1240.162, 8324.000
1241.239, 8274.000
1242.315, 8200.000
1243.391, 8229.092
1244.467, 8258.000
1245.543, 8185.000
1246.619, 8178.000
1247.694, 8338.000
1248.769, 8268.000
1249.844, 8278.000
1250.919, 8332.000
1251.994, 8271.000
1253.069, 8226.000
1254.144, 8340.000
1255.218, 8165.000
1256.292, 8277.000
1257.366, 8293.000
1258.440, 8280.000
1259.514, 8415.000
1260.587, 8350.000
1261.661, 8328.000
1262.734, 8338.000
1263.807, 8311.000
1264.880, 8394.000
1265.952, 8418.000
1267.025, 8438.000
1268.097, 8436.000
1269.170, 8430.000
1270.242, 8399.000
1271.314, 8356.891
1272.385, 8463.263
1273.457, 8524.861
1274.528, 8544.085
1275.600, 8394.037
1276.671, 8462.570
1277.742, 8443.504
1278.812, 8420.843
1279.883, 8520.141
1280.954, 8394.710
1282.024, 8492.069
1283.094, 8500.494
1284.164, 8549.621
1285.234, 8510.610
1286.303, 8498.818
1287.373, 8575.198
1288.442, 8602.754
1289.511, 8553.593
1290.580, 8605.304
1291.649, 8476.787
1292.718, 8506.423
1293.786, 8604.291
1294.855, 8559.561
1295.923, 8612.880
1296.991, 8628.854
1298.059, 8475.117
1299.126, 8616.522
1300.194, 8630.291
1301.261, 8512.995
1302.328, 8644.288
1303.395, 8545.061
1304.462, 8528.115
1305.529, 8573.092
1306.596, 8553.516
1307.662, 8534.000
1308.728, 8652.000
1309.794, 8568.000
1310.860, 8611.000
1311.926, 8633.763
1312.991, 8602.018
1314.057, 8677.000
1315.122, 8599.000
1316.187, 8637.000
1317.252, 8660.000
1318.317, 8631.000
1319.381, 8755.000
1320.446, 8642.000
1321.510, 8663.000
1322.574, 8583.000
1323.638, 8707.000
1324.702, 8541.000
1325.766, 8633.000
1326.829, 8518.000
1327.892, 8566.000
1328.956, 8607.000
1330.019, 8570.000
1331.081, 8580.000
1332.144, 8501.975
1333.206, 8603.482
1334.269, 8660.213
1335.331, 8674.573
1336.393, 8519.658
1337.455, 8583.327
1338.516, 8559.397
1339.578, 8531.876
1340.639, 8626.311
1341.701, 8496.016
1342.762, 8588.517
1343.822, 8592.082
1344.883, 8636.350
1345.944, 8592.479
1347.004, 8575.832
1348.064, 8647.353
1349.124, 8670.054
1350.184, 8616.037
1351.244, 8662.894
1352.304, 8529.521
1353.363, 8554.303
1354.422, 8647.320
1355.481, 8597.735
1356.540, 8646.204
1357.599, 8657.328
1358.657, 8646.763
1359.716, 8635.300
1360.774, 8644.218
1361.832, 8601.000
1362.890, 8587.000
1363.948, 8508.000
1365.006, 8471.000
1366.063, 8494.265
1367.120, 8597.055
1368.178, 8655.068
1369.234, 8670.710
1370.291, 8517.078
1371.348, 8582.029
1372.404, 8559.382
1373.461, 8533.143
1374.517, 8628.858
1375.573, 8499.846
1376.629, 8593.628
1377.684, 8598.474
1378.740, 8644.023
1379.795, 8601.434
1380.850, 8586.067
1381.905, 8658.868
1382.960, 8682.851
1384.015, 8630.114
1385.070, 8678.251
1386.124, 8546.159
1387.178, 8572.220
1388.232, 8666.517
1389.286, 8618.212
1390.340, 8520.000
1391.393, 8651.000
1392.447, 8498.000
1393.500, 8520.000
1394.553, 8607.000
1395.606, 8541.593
1396.659, 8615.290
1397.711, 8657.003
1398.764, 8668.451
1399.816, 8558.988
1400.868, 8605.657
1401.920, 8589.756
1402.972, 8571.288
1404.023, 8639.931
1405.075, 8548.055
1406.126, 8615.315
1407.177, 8619.052
1408.228, 8651.862
1409.279, 8621.716
1410.330, 8611.014
1411.380, 8663.289
1412.431, 8680.693
1413.481, 8643.299
1414.531, 8677.957
1415.580, 8583.879
1416.630, 8602.769
1417.680, 8670.397
1418.729, 8636.168
1419.778, 8671.976
1420.827, 8599.000
1421.876, 8631.547
1422.925, 8626.915
1423.973, 8679.000
1425.022, 8664.689
1426.070, 8720.110
1427.118, 8759.542
1428.166, 8783.839
1429.214, 8747.680
1430.261, 8789.569
1431.309, 8800.191
1432.356, 8809.514
1433.403, 8862.391
1434.450, 8835.008
1435.497, 8887.194
1436.543, 8907.601
1437.590, 8942.562
1438.636, 8946.026
1439.682, 8959.214
1440.728, 9003.891
1441.774, 9031.131
1442.819, 9052.384
1443.865, 9081.196
1444.910, 9100.863
1445.955, 9111.883
1447.000, 9088.357
1448.045, 9109.441
1449.090, 9112.646
1450.134, 9115.112
1451.178, 9142.467
1452.223, 9123.966
1453.267, 9150.926
1454.310, 9159.729
1455.354, 9170.000
1456.398, 9162.392
1457.441, 9122.965
1458.484, 9120.262
1459.527, 9108.911
1460.570, 9063.015
1461.613, 9061.726
1462.655, 9042.575
1463.698, 9022.678
1464.740, 9027.682
1465.782, 8986.824
1466.824, 8991.435
1467.866, 8977.895
1468.907, 8972.675
1469.948, 8949.468
1470.990, 8931.803
1472.031, 8932.146
1473.072, 8925.000
1474.112, 8850.000
1475.153, 8842.516
1476.194, 8840.265
1477.234, 8775.000
1478.274, 8845.000
1479.314, 8778.000
1480.354, 8772.000
1481.393, 8760.000
1482.433, 8635.000
1483.472, 8750.000
1484.511, 8674.000
1485.550, 8741.475
1486.589, 8854.000
1487.628, 8843.000
1488.666, 8724.000
1489.704, 8673.000
1490.743, 8674.000
1491.781, 8798.000
1492.819, 8761.000
1493.856, 8802.000
1494.894, 8758.000
1495.931, 8774.000
1496.968, 8688.000
1498.005, 8783.000
1499.042, 8674.487
1500.079, 8675.000
1501.115, 8598.000
1502.152, 8666.000
1503.188, 8672.953
1504.224, 8655.000
1505.260, 8754.000
1506.296, 8734.090
1507.331, 8816.850
1508.367, 8864.430
1509.402, 8878.716
1510.437, 8760.001
1511.472, 8813.030
1512.507, 8797.231
1513.541, 8778.608
1514.576, 8855.810
1515.610, 8756.437
1516.644, 8832.116
1517.678, 8837.917
1518.712, 8875.700
1519.746, 8844.230
1520.779, 8834.148
1521.813, 8893.344
1522.846, 8914.178
1523.879, 8874.734
1524.912, 8771.000
1525.944, 8821.000
1526.977, 8767.000
1528.009, 8845.000
1529.041, 8812.000
1530.073, 8923.000
1531.105, 8923.000
1532.137, 8963.000
1533.168, 8805.000
1534.200, 8932.000
1535.231, 8862.000
1536.262, 8920.000
1537.293, 8916.537
1538.324, 8794.000
1539.354, 8798.983
1540.385, 8892.351
1541.415, 8949.674
1542.445, 8972.854
1543.475, 8862.186
1544.505, 8922.412
1545.534, 8912.953
1546.564, 8899.830
1547.593, 8981.675
1548.622, 8886.099
1549.651, 8964.728
1550.680, 8972.632
1551.708, 9011.665
1552.737, 8980.603
1553.765, 8970.080
1554.793, 9027.987
1555.821, 9046.689
1556.849, 9004.268
1557.877, 9040.256
1558.904, 8933.793
1559.932, 8950.746
1560.959, 9020.471
1561.986, 8977.306
1563.013, 9010.339
1564.039, 9013.192
1565.066, 8949.000
1566.092, 8956.000
1567.119, 9042.000
1568.145, 8889.000
1569.170, 9085.000
1570.196, 9139.000
1571.222, 8979.000
1572.247, 9111.000
1573.272, 9038.000
1574.297, 8981.000
1575.322, 9177.000
1576.347, 9223.000
1577.372, 9237.000
##END=



