##NAMES=Magnesioferrite
##RRUFFID=R060869
##IDEAL CHEMISTRY=MgFe^3+^_2_O_4_
##LOCALITY=Langban, Filipstad, Varmland, Sweden
##OWNER=RRUFF
##SOURCE=Michael Scott
##DESCRIPTION=Black semimetallic massive
##STATUS=The identification of this mineral is confirmed by single-crystal X-ray diffraction and chemical analysis.
##URL=rruff.info/R060869
##MEASURED CHEMISTRY=(Mg_0.67_Mn^2+^_0.30_Fe^2+^_0.03_)_Σ=1_(Fe^3+^_1.97_Al_0.03_)_Σ=2_O_4_
##PIN_ID=L00748
##ORIENTATION=Laser parallel to a* (1 0 0). Fiducial mark perpendicular to laser is parallel to b [0 1 0]
126.5580, 13584.00
127.7920, 13231.00
129.0260, 13093.00
130.2590, 12989.46
131.4920, 13256.29
132.7250, 13410.80
133.9580, 13459.02
135.1910, 13082.63
136.4230, 13254.54
137.6560, 13206.72
138.8880, 13149.88
140.1200, 13398.96
141.3520, 13084.32
142.5830, 13328.54
143.8150, 13349.67
145.0460, 13240.23
146.2770, 13241.47
147.5080, 13204.00
148.7390, 13232.00
149.9700, 13265.00
151.2000, 13343.00
152.4310, 13216.00
153.6610, 13323.00
154.8910, 12996.39
156.1210, 13237.40
157.3500, 13367.52
158.5800, 13392.75
159.8090, 12994.78
161.0380, 13146.53
162.2670, 13079.95
163.4960, 13005.77
164.7240, 13238.92
165.9530, 12909.76
167.1810, 13140.88
168.4090, 13150.31
169.6370, 13263.25
170.8650, 13156.51
172.0920, 13119.46
173.3200, 13304.98
174.5470, 13369.44
175.7740, 13242.87
177.0010, 13370.73
178.2280, 13047.90
179.4540, 13123.19
180.6810, 13371.06
181.9070, 13262.61
183.1330, 13401.53
184.3590, 13448.17
185.5850, 13070.50
186.8100, 13155.00
188.0350, 13263.00
189.2610, 13318.00
190.4860, 13390.00
191.7110, 13425.99
192.9350, 13466.00
194.1600, 13430.00
195.3840, 13482.00
196.6080, 13400.00
197.8320, 13501.00
199.0560, 13470.00
200.2800, 13330.00
201.5030, 13343.00
202.7270, 13267.00
203.9500, 13219.00
205.1730, 13102.00
206.3950, 13043.00
207.6180, 12948.00
208.8410, 12916.00
210.0630, 12825.00
211.2850, 12776.00
212.5070, 12717.00
213.7290, 12777.00
214.9500, 12630.00
216.1720, 12762.00
217.3930, 12803.00
218.6140, 12722.00
219.8350, 12564.00
221.0560, 12557.00
222.2770, 12536.64
223.4970, 12574.43
224.7170, 12542.00
225.9370, 12660.00
227.1570, 12565.00
228.3770, 12395.00
229.5970, 12337.00
230.8160, 12408.00
232.0350, 12404.00
233.2540, 12384.00
234.4730, 12501.00
235.6920, 12599.00
236.9110, 12383.00
238.1290, 12412.00
239.3470, 12447.00
240.5650, 12335.00
241.7830, 12378.00
243.0010, 12396.00
244.2180, 12383.00
245.4360, 12389.00
246.6530, 12397.00
247.8700, 12467.00
249.0870, 12528.00
250.3040, 12294.00
251.5200, 12654.00
252.7370, 12440.00
253.9530, 12425.00
255.1690, 12710.00
256.3850, 12504.46
257.6000, 12552.00
258.8160, 12480.00
260.0310, 12459.00
261.2460, 12621.00
262.4610, 12538.00
263.6760, 12640.00
264.8910, 12538.99
266.1050, 12661.24
267.3200, 12736.70
268.5340, 12767.87
269.7480, 12622.11
270.9620, 12704.81
272.1750, 12695.94
273.3890, 12683.33
274.6020, 12798.18
275.8150, 12639.00
277.0280, 12721.00
278.2410, 12610.00
279.4540, 12664.00
280.6660, 12643.00
281.8790, 12599.00
283.0910, 12646.74
284.3030, 12778.30
285.5140, 12863.04
286.7260, 12903.51
287.9380, 12767.05
289.1490, 12859.04
290.3600, 12859.47
291.5710, 12856.15
292.7820, 12980.29
293.9920, 12869.53
295.2030, 13069.00
296.4130, 13060.00
297.6230, 13119.87
298.8330, 13062.00
300.0430, 13138.00
301.2520, 13188.00
302.4620, 13219.00
303.6710, 13298.00
304.8800, 13372.00
306.0890, 13362.00
307.2980, 13475.00
308.5070, 13381.00
309.7150, 13499.00
310.9230, 13544.00
312.1310, 13697.00
313.3390, 13746.00
314.5470, 13823.00
315.7550, 13732.00
316.9620, 13840.00
318.1690, 13975.00
319.3760, 13830.00
320.5830, 14102.00
321.7900, 13999.00
322.9960, 14240.00
324.2030, 14214.00
325.4090, 14307.00
326.6150, 14422.18
327.8210, 14431.00
329.0270, 14516.00
330.2320, 14550.00
331.4380, 14416.00
332.6430, 14405.00
333.8480, 14677.00
335.0530, 14547.00
336.2580, 14590.00
337.4620, 14728.00
338.6670, 14748.00
339.8710, 14864.00
341.0750, 15041.00
342.2790, 14849.00
343.4820, 14911.00
344.6860, 14820.00
345.8890, 14883.00
347.0920, 14815.86
348.2960, 15045.00
349.4980, 14811.00
350.7010, 14645.00
351.9040, 14872.00
353.1060, 14663.00
354.3080, 14727.00
355.5100, 14607.00
356.7120, 14571.00
357.9140, 14471.00
359.1150, 14478.00
360.3170, 14521.00
361.5180, 14531.17
362.7190, 14473.00
363.9200, 14520.00
365.1200, 14539.00
366.3210, 14251.00
367.5210, 14270.00
368.7210, 14654.00
369.9210, 14311.00
371.1210, 14381.00
372.3210, 14250.00
373.5200, 14310.00
374.7200, 14130.00
375.9190, 14194.00
377.1180, 14426.00
378.3170, 14347.00
379.5150, 14304.00
380.7140, 14314.00
381.9120, 14114.00
383.1110, 14201.00
384.3090, 14038.00
385.5060, 14213.00
386.7040, 14308.00
387.9020, 14238.00
389.0990, 14191.00
390.2960, 14197.00
391.4930, 14268.00
392.6900, 14173.97
393.8860, 14234.02
395.0830, 14084.00
396.2790, 14202.00
397.4750, 14258.00
398.6710, 14094.00
399.8670, 14142.00
401.0630, 14172.00
402.2580, 13991.00
403.4540, 14281.00
404.6490, 14254.00
405.8440, 14261.00
407.0390, 14166.00
408.2330, 14221.00
409.4280, 14342.00
410.6220, 14286.00
411.8160, 14358.00
413.0100, 14305.00
414.2040, 14537.00
415.3980, 14383.00
416.5910, 14353.00
417.7850, 14493.00
418.9780, 14419.86
420.1710, 14338.00
421.3640, 14392.00
422.5560, 14475.00
423.7490, 14296.40
424.9410, 14898.00
426.1330, 14481.00
427.3250, 14613.00
428.5170, 14736.00
429.7090, 14603.00
430.9000, 14536.00
432.0910, 14576.00
433.2820, 14797.00
434.4730, 14735.00
435.6640, 14875.00
436.8550, 14843.19
438.0450, 14797.00
439.2360, 14794.00
440.4260, 14820.00
441.6160, 14900.00
442.8060, 14857.00
443.9950, 15061.00
445.1850, 14899.00
446.3740, 15023.00
447.5630, 15037.53
448.7520, 15017.50
449.9410, 15085.00
451.1300, 15062.00
452.3180, 15095.00
453.5060, 15143.00
454.6950, 15134.00
455.8830, 15272.00
457.0700, 15225.00
458.2580, 15150.25
459.4450, 15351.30
460.6330, 15458.73
461.8200, 15477.61
463.0070, 15142.63
464.1940, 15264.58
465.3800, 15423.91
466.5670, 15457.00
467.7530, 15635.00
468.9390, 15565.00
470.1250, 15702.00
471.3110, 15562.00
472.4970, 15518.00
473.6820, 15703.00
474.8680, 15793.00
476.0530, 15808.00
477.2380, 15945.44
478.4230, 15971.27
479.6070, 16093.00
480.7920, 16107.00
481.9760, 16131.00
483.1600, 16284.00
484.3440, 16103.00
485.5280, 16240.00
486.7120, 16235.00
487.8950, 16371.00
489.0780, 16376.00
490.2620, 16365.00
491.4450, 16545.00
492.6270, 16570.00
493.8100, 16461.00
494.9920, 16611.00
496.1750, 16663.00
497.3570, 16565.00
498.5390, 16900.00
499.7210, 16774.00
500.9020, 16634.00
502.0840, 16790.00
503.2650, 16693.00
504.4460, 17100.00
505.6270, 17026.00
506.8080, 16851.00
507.9890, 16635.00
509.1690, 16700.00
510.3500, 16813.00
511.5300, 16576.00
512.7100, 16849.00
513.8900, 16980.00
515.0690, 16897.00
516.2490, 16826.00
517.4280, 17060.00
518.6070, 16842.00
519.7860, 17147.00
520.9650, 17185.00
522.1440, 17272.00
523.3220, 17323.00
524.5010, 17303.00
525.6790, 17479.00
526.8570, 17373.00
528.0350, 17611.00
529.2130, 17407.00
530.3900, 17630.00
531.5670, 17707.00
532.7450, 17642.00
533.9220, 17743.00
535.0980, 17818.00
536.2750, 18020.00
537.4520, 18026.51
538.6280, 18097.58
539.8040, 18109.00
540.9800, 18158.00
542.1560, 18222.00
543.3320, 18280.00
544.5070, 18361.56
545.6830, 18455.39
546.8580, 18555.00
548.0330, 18687.00
549.2080, 18831.00
550.3830, 18996.00
551.5570, 18841.00
552.7310, 19316.00
553.9060, 19184.00
555.0800, 19260.00
556.2540, 19063.00
557.4270, 19483.00
558.6010, 19612.00
559.7740, 19714.00
560.9470, 19741.00
562.1210, 20004.00
563.2930, 20079.00
564.4660, 20029.00
565.6390, 20367.00
566.8110, 20591.00
567.9830, 20533.00
569.1550, 20652.00
570.3270, 20820.00
571.4990, 21316.00
572.6710, 21380.00
573.8420, 21677.00
575.0130, 21812.00
576.1840, 21809.00
577.3550, 22002.00
578.5260, 22238.00
579.6970, 22390.00
580.8670, 22821.00
582.0370, 23065.00
583.2070, 23364.49
584.3770, 23443.00
585.5470, 23514.13
586.7170, 24255.50
587.8860, 24884.15
589.0550, 25406.52
590.2240, 25504.27
591.3930, 26150.32
592.5620, 27437.00
593.7310, 27734.00
594.8990, 28595.00
596.0670, 29463.00
597.2350, 30347.00
598.4030, 31251.00
599.5710, 32235.00
600.7390, 33245.00
601.9060, 34380.00
603.0740, 35464.00
604.2410, 36489.29
605.4080, 37550.00
606.5740, 38521.00
607.7410, 39564.00
608.9080, 40502.00
610.0740, 41390.00
611.2400, 42327.00
612.4060, 43117.00
613.5720, 43987.00
614.7370, 44661.00
615.9030, 45343.00
617.0680, 45665.00
618.2330, 45908.00
619.3980, 45970.94
620.5630, 45924.20
621.7280, 45579.00
622.8920, 45405.00
624.0570, 44875.00
625.2210, 44229.00
626.3850, 43784.00
627.5490, 43182.00
628.7120, 42347.00
629.8760, 41614.00
631.0390, 40550.00
632.2020, 39546.00
633.3650, 38721.00
634.5280, 37763.77
635.6910, 37029.00
636.8530, 36024.00
638.0160, 35077.00
639.1780, 34179.42
640.3400, 33498.00
641.5020, 32560.00
642.6640, 31998.00
643.8250, 31399.00
644.9870, 30611.00
646.1480, 30073.00
647.3090, 29448.00
648.4700, 28868.00
649.6300, 28254.00
650.7910, 27847.00
651.9510, 27478.00
653.1120, 26776.00
654.2720, 26640.00
655.4320, 26378.00
656.5910, 26285.00
657.7510, 25763.00
658.9100, 25315.00
660.0690, 25110.00
661.2290, 24984.00
662.3880, 24586.00
663.5460, 24337.00
664.7050, 24269.00
665.8630, 23975.00
667.0220, 23636.00
668.1800, 23594.00
669.3380, 23380.00
670.4950, 23198.00
671.6530, 23119.00
672.8100, 23048.00
673.9680, 22845.00
675.1250, 22761.00
676.2820, 22550.00
677.4390, 22352.00
678.5950, 22534.00
679.7520, 22162.20
680.9080, 22275.50
682.0640, 22295.21
683.2200, 22226.35
684.3760, 21803.64
685.5320, 21837.85
686.6870, 21689.04
687.8420, 21513.00
688.9980, 21329.00
690.1530, 21250.00
691.3070, 21145.00
692.4620, 21136.00
693.6170, 21015.00
694.7710, 20854.00
695.9250, 20989.00
697.0790, 20669.00
698.2330, 20729.00
699.3870, 20654.00
700.5400, 20577.00
701.6940, 20455.41
702.8470, 20336.20
704.0000, 20078.00
705.1530, 20071.00
706.3050, 19830.00
707.4580, 19728.00
708.6100, 19504.00
709.7630, 19444.00
710.9150, 19316.00
712.0660, 19103.00
713.2180, 19030.00
714.3700, 18760.00
715.5210, 18760.00
716.6720, 18519.00
717.8240, 18399.00
718.9740, 18098.00
720.1250, 17875.00
721.2760, 17763.00
722.4260, 17607.00
723.5770, 17461.00
724.7270, 17299.58
725.8770, 17130.23
727.0260, 16921.00
728.1760, 16840.00
729.3250, 16589.00
730.4750, 16564.00
731.6240, 16623.00
732.7730, 16221.00
733.9220, 16246.00
735.0700, 16256.00
736.2190, 16047.00
737.3670, 15802.00
738.5150, 15696.00
739.6630, 15603.00
740.8110, 15581.00
741.9590, 15456.00
743.1060, 15360.87
744.2540, 15264.69
745.4010, 15166.00
746.5480, 15098.61
747.6950, 15039.00
748.8410, 14964.00
749.9880, 14924.00
751.1340, 14849.00
752.2800, 14996.00
753.4260, 14827.00
754.5720, 14829.00
755.7180, 14809.00
756.8640, 14703.00
758.0090, 14673.69
759.1540, 14662.00
760.2990, 14554.00
761.4440, 14471.00
762.5890, 14452.00
763.7340, 14406.00
764.8780, 14355.42
766.0220, 14323.12
767.1660, 14265.00
768.3100, 14289.00
769.4540, 14241.00
770.5980, 14327.00
771.7410, 14264.00
772.8840, 14189.00
774.0280, 14200.00
775.1700, 14017.00
776.3130, 14245.00
777.4560, 14160.00
778.5980, 14050.00
779.7410, 14159.00
780.8830, 14038.00
782.0250, 13918.00
783.1670, 13899.00
784.3080, 14028.00
785.4500, 14043.00
786.5910, 14042.00
787.7320, 13954.00
788.8730, 13972.00
790.0140, 13898.00
791.1550, 13968.00
792.2950, 13905.00
793.4360, 13922.00
794.5760, 13927.53
795.7160, 13881.00
796.8560, 13929.00
797.9960, 13844.00
799.1350, 13843.00
800.2750, 13778.00
801.4140, 13874.00
802.5530, 13895.00
803.6920, 13849.00
804.8310, 13750.00
805.9690, 13900.00
807.1080, 13887.00
808.2460, 13765.00
809.3840, 13801.00
810.5220, 13665.00
811.6600, 13861.00
812.7970, 13785.00
813.9350, 13751.59
815.0720, 13933.00
816.2090, 13673.00
817.3460, 13740.00
818.4830, 13767.00
819.6200, 13728.00
820.7560, 13866.00
821.8930, 13620.00
823.0290, 13798.00
824.1650, 13643.00
825.3010, 13736.00
826.4360, 13740.00
827.5720, 13747.00
828.7070, 13732.00
829.8420, 13679.00
830.9770, 13727.00
832.1120, 13743.00
833.2470, 13619.00
834.3820, 13736.00
835.5160, 13502.00
836.6500, 13488.00
837.7840, 13611.00
838.9180, 13728.00
840.0520, 13657.44
841.1860, 13771.00
842.3190, 13582.00
843.4520, 13687.00
844.5850, 13722.00
845.7180, 13694.00
846.8510, 13800.00
847.9840, 13699.00
849.1160, 13791.00
850.2490, 13670.00
851.3810, 13659.00
852.5130, 13709.00
853.6450, 13721.00
854.7760, 13676.00
855.9080, 13773.00
857.0390, 13623.00
858.1700, 13717.00
859.3010, 13522.00
860.4320, 13593.59
861.5630, 13588.06
862.6930, 13606.00
863.8240, 13673.00
864.9540, 13523.00
866.0840, 13644.00
867.2140, 13583.96
868.3440, 13633.71
869.4730, 13550.00
870.6030, 13755.00
871.7320, 13773.00
872.8610, 13815.00
873.9900, 13792.67
875.1190, 13825.71
876.2470, 13801.10
877.3760, 13816.00
878.5040, 13768.00
879.6320, 13759.60
880.7600, 13685.00
881.8880, 13736.00
883.0150, 13744.00
884.1430, 13776.00
885.2700, 13807.00
886.3970, 13838.49
887.5240, 13820.00
888.6510, 13894.00
889.7780, 13775.00
890.9040, 13741.00
892.0310, 13728.00
893.1570, 13730.00
894.2830, 13702.00
895.4090, 13873.00
896.5350, 13767.00
897.6600, 13815.00
898.7860, 13911.00
899.9110, 13850.00
901.0360, 13785.00
902.1610, 13898.00
903.2860, 13809.00
904.4100, 13796.00
905.5350, 13827.00
906.6590, 13797.00
907.7830, 13927.00
908.9070, 13897.00
910.0310, 14070.00
911.1540, 13865.00
912.2780, 13836.00
913.4010, 13756.00
914.5240, 13899.00
915.6470, 13874.00
916.7700, 13876.00
917.8930, 13857.00
919.0150, 13799.00
920.1380, 13850.00
921.2600, 13814.00
922.3820, 13813.62
923.5040, 13843.97
924.6260, 13852.00
925.7470, 13848.00
926.8690, 13961.00
927.9900, 13881.00
929.1110, 13711.46
930.2320, 13936.68
931.3530, 14068.30
932.4730, 14111.34
933.5940, 13800.54
934.7140, 13946.65
935.8340, 13909.65
936.9540, 13865.14
938.0740, 14075.56
939.1930, 13816.21
940.3130, 14022.58
941.4320, 14043.05
942.5510, 14148.59
943.6700, 14069.89
944.7890, 14048.10
945.9080, 14210.61
947.0260, 14271.07
948.1450, 14123.00
949.2630, 13939.00
950.3810, 14154.00
951.4990, 14002.00
952.6170, 14033.00
953.7340, 13875.00
954.8520, 14054.00
955.9690, 13955.00
957.0860, 14035.08
958.2030, 14110.00
959.3200, 14149.00
960.4360, 14143.00
961.5530, 14107.00
962.6690, 14102.00
963.7850, 14163.00
964.9010, 14230.00
966.0170, 14205.00
967.1330, 14242.97
968.2480, 14128.00
969.3630, 14223.00
970.4790, 14124.00
971.5940, 14053.00
972.7080, 14428.00
973.8230, 14258.00
974.9380, 14336.00
976.0520, 14227.00
977.1660, 14203.00
978.2800, 14217.00
979.3940, 14311.00
980.5080, 14232.00
981.6220, 14334.00
982.7350, 14233.00
983.8480, 14256.00
984.9610, 14341.00
986.0740, 14404.00
987.1870, 14275.00
988.3000, 14361.33
989.4120, 14340.49
990.5250, 14399.00
991.6370, 14341.00
992.7490, 14388.00
993.8610, 14356.00
994.9720, 14327.00
996.0840, 14414.00
997.1950, 14431.00
998.3060, 14537.00
999.4170, 14575.00
1000.528, 14566.00
1001.639, 14636.00
1002.750, 14609.60
1003.860, 14605.90
1004.970, 14592.00
1006.080, 14531.00
1007.190, 14345.71
1008.300, 14557.13
1009.410, 14674.94
1010.519, 14704.19
1011.628, 14379.59
1012.738, 14511.91
1013.846, 14461.12
1014.955, 14402.82
1016.064, 14599.46
1017.172, 14326.32
1018.281, 14518.91
1019.389, 14495.00
1020.497, 14549.00
1021.605, 14449.00
1022.713, 14466.00
1023.820, 14434.00
1024.928, 14598.00
1026.035, 14516.00
1027.142, 14370.00
1028.249, 14576.00
1029.356, 14561.00
1030.462, 14662.00
1031.569, 14515.00
1032.675, 14492.00
1033.781, 14546.00
1034.887, 14589.00
1035.993, 14521.00
1037.098, 14718.00
1038.204, 14672.00
1039.309, 14576.00
1040.415, 14676.00
1041.520, 14620.00
1042.624, 14560.00
1043.729, 14692.00
1044.834, 14538.00
1045.938, 14634.00
1047.042, 14686.00
1048.146, 14642.00
1049.250, 14706.00
1050.354, 14663.00
1051.458, 14676.00
1052.561, 14804.00
1053.664, 14658.00
1054.767, 14713.00
1055.870, 14716.00
1056.973, 14839.00
1058.076, 14823.00
1059.178, 14816.00
1060.281, 14673.00
1061.383, 14644.00
1062.485, 14640.00
1063.587, 14817.00
1064.688, 14764.00
1065.790, 14880.00
1066.891, 14977.00
1067.993, 14964.00
1069.094, 14868.00
1070.195, 14968.00
1071.295, 14818.00
1072.396, 14882.00
1073.496, 14819.00
1074.597, 14845.00
1075.697, 14882.00
1076.797, 14864.00
1077.897, 14776.00
1078.996, 14823.00
1080.096, 14738.00
1081.195, 14890.00
1082.294, 14901.00
1083.393, 14774.00
1084.492, 14756.00
1085.591, 14977.00
1086.689, 14853.00
1087.788, 14858.00
1088.886, 14913.00
1089.984, 14869.00
1091.082, 14899.00
1092.180, 14941.00
1093.277, 14978.00
1094.375, 14896.00
1095.472, 14897.00
1096.569, 14911.07
1097.666, 14909.48
1098.763, 14885.00
1099.860, 14972.00
1100.956, 14835.00
1102.053, 14855.00
1103.149, 14959.00
1104.245, 15011.00
1105.341, 14954.00
1106.436, 14998.00
1107.532, 14918.00
1108.627, 14953.16
1109.723, 14949.00
1110.818, 14935.00
1111.913, 14998.00
1113.007, 15007.59
1114.102, 14945.00
1115.197, 15062.00
1116.291, 15031.00
1117.385, 15007.00
1118.479, 15175.00
1119.573, 15107.65
1120.666, 15124.61
1121.760, 15066.00
1122.853, 15083.00
1123.947, 14972.00
1125.040, 14963.00
1126.132, 14922.00
1127.225, 15011.00
1128.318, 14959.00
1129.410, 14950.00
1130.502, 15082.00
1131.595, 14854.00
1132.687, 14913.00
1133.778, 14790.00
1134.870, 15128.00
1135.961, 14992.00
1137.053, 15023.00
1138.144, 14982.00
1139.235, 14830.00
1140.326, 14944.00
1141.416, 15057.00
1142.507, 15053.00
1143.597, 14994.00
1144.688, 14884.00
1145.778, 14978.00
1146.868, 14979.00
1147.957, 14954.00
1149.047, 15013.00
1150.136, 15196.00
1151.226, 15092.00
1152.315, 15060.00
1153.404, 15094.00
1154.493, 14927.00
1155.581, 14996.00
1156.670, 15148.00
1157.758, 15056.00
1158.846, 15145.00
1159.934, 15173.00
1161.022, 15113.00
1162.110, 15219.00
1163.198, 15175.00
1164.285, 15222.00
1165.372, 15192.00
1166.459, 15254.00
1167.546, 15162.00
1168.633, 15260.00
1169.720, 15292.00
1170.806, 15198.00
1171.892, 15412.00
1172.979, 15314.00
1174.065, 15353.00
1175.150, 15189.48
1176.236, 15458.65
1177.322, 15615.51
1178.407, 15666.07
1179.492, 15292.01
1180.577, 15466.26
1181.662, 15420.77
1182.747, 15366.27
1183.832, 15617.69
1184.916, 15305.38
1186.000, 15551.94
1187.084, 15575.41
1188.168, 15700.98
1189.252, 15605.46
1190.336, 15691.00
1191.419, 15628.00
1192.503, 15692.00
1193.586, 15545.00
1194.669, 15794.00
1195.752, 15690.54
1196.835, 15799.00
1197.917, 15758.00
1199.000, 15686.00
1200.082, 15953.00
1201.164, 15738.00
1202.246, 15855.00
1203.328, 15920.00
1204.409, 15703.00
1205.491, 15774.00
1206.572, 15807.00
1207.653, 15900.00
1208.734, 15945.00
1209.815, 15715.00
1210.896, 15899.00
1211.976, 15772.00
1213.057, 15805.00
1214.137, 16031.00
1215.217, 15949.41
1216.297, 15908.00
1217.377, 16081.00
1218.456, 16041.00
1219.536, 16260.00
1220.615, 16149.74
1221.694, 16149.00
1222.773, 15982.00
1223.852, 16032.00
1224.931, 16005.00
1226.009, 16000.00
1227.088, 15917.00
1228.166, 16210.00
1229.244, 16134.85
1230.322, 16102.44
1231.400, 16224.00
1232.477, 15961.00
1233.555, 16004.00
1234.632, 16003.00
1235.709, 15975.00
1236.786, 15956.26
1237.863, 16127.00
1238.939, 15797.00
1240.016, 16157.00
1241.092, 15966.00
1242.168, 16049.00
1243.245, 16318.00
1244.320, 16170.00
1245.396, 16201.17
1246.472, 15954.00
1247.547, 16040.00
1248.622, 16090.00
1249.697, 16066.93
1250.772, 16030.07
1251.847, 15907.00
1252.922, 15889.00
1253.996, 15856.00
1255.071, 15860.00
1256.145, 15921.00
1257.219, 15703.00
1258.293, 15931.00
1259.366, 15851.00
1260.440, 15929.00
1261.513, 16021.00
1262.587, 15678.00
1263.660, 15868.00
1264.733, 15745.00
1265.805, 15827.00
1266.878, 15854.00
1267.951, 15640.00
1269.023, 15760.00
1270.095, 15575.00
1271.167, 15671.00
1272.239, 15702.00
1273.311, 15684.00
1274.382, 15733.73
1275.454, 15709.00
1276.525, 15752.00
1277.596, 15753.43
1278.667, 15637.00
1279.738, 15731.00
1280.808, 15672.00
1281.879, 15586.00
1282.949, 15639.14
1284.019, 15523.85
1285.089, 15723.33
1286.159, 15829.21
1287.229, 15846.52
1288.298, 15510.00
1289.368, 15630.38
1290.437, 15567.67
1291.506, 15497.44
1292.575, 15682.15
1293.644, 15397.09
1294.712, 15577.77
1295.781, 15572.53
1296.849, 15652.38
1297.917, 15548.00
1298.985, 15500.51
1300.053, 15637.34
1301.121, 15672.11
1302.188, 15546.52
1303.255, 15631.80
1304.323, 15340.32
1305.390, 15379.45
1306.457, 15561.22
1307.523, 15444.92
1308.590, 15404.00
1309.656, 15330.00
1310.723, 15503.00
1311.789, 15320.00
1312.855, 15447.00
1313.921, 15546.00
1314.986, 15454.00
1316.052, 15470.00
1317.117, 15399.00
1318.182, 15307.00
1319.248, 15291.00
1320.312, 15304.00
1321.377, 15263.29
1322.442, 15281.00
1323.506, 15237.00
1324.571, 15338.00
1325.635, 15311.00
1326.699, 15214.00
1327.762, 15424.00
1328.826, 15257.00
1329.890, 15250.00
1330.953, 15290.00
1332.016, 15158.00
1333.079, 15361.00
1334.142, 15287.66
1335.205, 15213.00
1336.268, 15301.00
1337.330, 15229.00
1338.392, 15255.00
1339.454, 15347.00
1340.516, 15191.00
1341.578, 15240.00
1342.640, 15173.00
1343.701, 15064.00
1344.763, 15278.00
1345.824, 15326.00
1346.885, 15371.00
1347.946, 15283.00
1349.007, 15319.36
1350.067, 15267.89
1351.128, 15293.00
1352.188, 15191.00
1353.248, 15178.00
1354.308, 15171.00
1355.368, 15185.00
1356.428, 15188.00
1357.487, 15182.98
1358.547, 15186.58
1359.606, 15196.00
1360.665, 15160.00
1361.724, 15211.00
1362.783, 15158.00
1363.841, 15099.00
1364.900, 15171.00
1365.958, 15103.00
1367.016, 15049.00
1368.074, 15029.00
1369.132, 15113.00
1370.190, 15123.00
1371.247, 15006.00
1372.304, 15003.00
1373.362, 14932.00
1374.419, 15031.00
1375.476, 15019.00
1376.532, 15084.00
1377.589, 14997.00
1378.645, 14934.00
1379.702, 14841.00
1380.758, 14961.00
1381.814, 14764.00
1382.870, 14859.00
1383.925, 14955.00
1384.981, 14836.00
1386.036, 15001.00
1387.092, 14789.00
1388.147, 14791.00
1389.202, 14899.00
1390.256, 14920.00
1391.311, 14870.00
1392.365, 14873.00
1393.420, 14961.00
1394.474, 14754.00
1395.528, 14694.00
1396.582, 14673.00
1397.636, 14697.00
1398.689, 14797.00
1399.742, 14867.00
1400.796, 14822.00
1401.849, 14839.00
1402.902, 14828.68
1403.955, 14776.00
1405.007, 14789.00
1406.060, 14738.00
1407.112, 14722.00
1408.164, 14853.00
1409.216, 14699.00
1410.268, 14714.00
1411.320, 14763.00
1412.371, 14472.00
1413.423, 14755.00
1414.474, 14744.00
1415.525, 14427.00
1416.576, 14657.00
1417.627, 14469.00
1418.678, 14659.00
1419.728, 14491.00
1420.778, 14578.00
1421.829, 14635.00
1422.879, 14560.00
1423.928, 14625.00
1424.978, 14581.92
1426.028, 14514.00
1427.077, 14551.00
1428.126, 14531.00
1429.176, 14584.00
1430.225, 14607.00
1431.273, 14547.05
1432.322, 14614.00
1433.371, 14587.57
1434.419, 14544.00
1435.467, 14585.00
1436.515, 14552.00
1437.563, 14555.00
1438.611, 14560.00
1439.658, 14380.52
1440.706, 14573.66
1441.753, 14673.22
1442.800, 14684.21
1443.847, 14341.35
1444.894, 14455.41
1445.941, 14386.36
1446.987, 14309.82
1448.034, 14488.20
1449.080, 14399.00
1450.126, 14541.00
1451.172, 14457.00
1452.218, 14306.00
1453.263, 14318.00
1454.309, 14481.00
1455.354, 14671.00
1456.399, 14728.00
1457.444, 14289.00
1458.489, 14331.00
1459.534, 14342.00
1460.579, 14395.00
1461.623, 14406.00
1462.667, 14326.00
1463.711, 14408.00
1464.755, 14354.00
1465.799, 14238.00
1466.843, 14156.00
1467.886, 14311.00
1468.930, 14320.00
1469.973, 14358.00
1471.016, 14370.05
1472.059, 14260.00
1473.101, 14302.00
1474.144, 14224.00
1475.186, 14149.00
1476.229, 14197.00
1477.271, 14249.00
1478.313, 14192.00
1479.355, 14249.00
1480.396, 14251.00
1481.438, 14205.24
1482.479, 14227.00
1483.520, 14171.00
1484.561, 14099.00
1485.602, 14182.00
1486.643, 14183.00
1487.684, 14197.00
1488.724, 14165.00
1489.765, 14153.00
1490.805, 14061.00
1491.845, 14165.00
1492.885, 14180.00
1493.924, 14298.00
1494.964, 14270.00
1496.003, 14136.00
1497.042, 14101.00
1498.082, 14000.00
1499.120, 14009.34
1500.159, 14177.00
1501.198, 14109.00
1502.236, 14044.00
1503.275, 14199.00
1504.313, 13975.00
1505.351, 14147.00
1506.389, 14208.00
1507.427, 14074.00
1508.464, 14199.00
1509.502, 14220.00
1510.539, 14276.00
1511.576, 14260.93
1512.613, 14293.00
1513.650, 14180.00
1514.687, 14194.00
1515.723, 14162.00
1516.759, 14234.00
1517.796, 14161.00
1518.832, 14176.40
1519.868, 14239.00
1520.903, 14156.00
1521.939, 14120.00
1522.975, 14110.00
1524.010, 13936.00
1525.045, 14172.00
1526.080, 13935.00
1527.115, 14047.00
1528.150, 14283.00
1529.184, 14108.00
1530.219, 14129.00
1531.253, 14113.00
1532.287, 14075.00
1533.321, 14122.00
1534.355, 14201.00
1535.388, 14235.00
1536.422, 14108.00
1537.455, 14020.00
1538.488, 14135.00
1539.522, 14129.00
1540.554, 14103.00
1541.587, 14179.39
1542.620, 14102.00
1543.652, 14191.00
1544.685, 14263.00
1545.717, 14129.00
1546.749, 14135.81
1547.781, 14340.27
1548.812, 14451.13
1549.844, 14473.42
1550.875, 14141.86
1551.906, 14267.23
1552.938, 14209.47
1553.968, 14144.23
1554.999, 14333.91
1556.030, 14053.82
1557.060, 14239.46
1558.091, 14239.19
1559.121, 14324.01
1560.151, 14224.59
1561.181, 14182.07
1562.211, 14323.86
1563.240, 14363.60
1564.270, 14307.00
1565.299, 14164.00
1566.328, 14097.00
1567.357, 14202.00
1568.386, 14168.00
1569.415, 14110.00
1570.443, 14167.00
1571.472, 14106.00
1572.500, 14067.00
1573.528, 14219.00
1574.556, 14195.00
1575.584, 14205.00
1576.611, 14089.00
1577.639, 14181.00
##END=



