##NAMES=Magnesio-hastingsite
##RRUFFID=R040010
##IDEAL CHEMISTRY=NaCa_2_(Mg_4_Fe^3+^)Si_6_Al_2_O_22_(OH)_2_
##LOCALITY=Amity, New York, USA
##OWNER=RRUFF
##SOURCE=University of Arizona Mineral Museum
##DESCRIPTION=Group of black prismatic crystals
##STATUS=The identification of this mineral has been confirmed by X-ray diffraction and chemical analysis
##URL=rruff.info/R040010
##MEASURED CHEMISTRY=(Na_0.50_K_0.43_[box]_0.07_)_Σ=1_(Ca_1.77_Na_0.23_)_Σ=2_(Mg_1.74_Fe_1.22_Fe^3+^_0.79_Mn_0.57_Al_0.30_Zn_0.25_Ti_0.13_)_Σ=5_(Si_5.95_Al_2.05_)_Σ=8_O_22_((OH)_1.75_F_0.22_Cl_0.03_)_Σ=2_; OH estimated by charge balance
##PIN_ID=L00374
##ORIENTATION=Laser parallel to a [1 0 0]. Fiducial mark perpendicular to laser is parallel to -b* (0 -1 0)
162.1560, 36539.00
163.3880, 36691.69
164.6200, 36887.15
165.8510, 37086.92
167.0820, 37345.00
168.3130, 37490.00
169.5440, 37525.00
170.7750, 37685.10
172.0050, 38008.00
173.2350, 38069.00
174.4650, 38307.00
175.6950, 38689.00
176.9250, 39013.00
178.1550, 39789.00
179.3840, 39580.00
180.6130, 40241.00
181.8420, 40407.00
183.0710, 40529.00
184.3000, 40869.00
185.5280, 41368.00
186.7570, 41561.00
187.9850, 41642.00
189.2130, 41458.00
190.4400, 41345.00
191.6680, 41077.00
192.8960, 41130.00
194.1230, 40800.00
195.3500, 40959.00
196.5770, 40334.48
197.8030, 40101.96
199.0300, 39784.03
200.2560, 39385.96
201.4830, 38666.00
202.7090, 38361.60
203.9340, 37891.14
205.1600, 37413.52
206.3860, 36944.00
207.6110, 36662.00
208.8360, 36548.00
210.0610, 37017.00
211.2860, 37236.00
212.5100, 37881.00
213.7350, 38148.00
214.9590, 37956.00
216.1830, 38261.00
217.4070, 38504.00
218.6310, 38561.00
219.8540, 39490.00
221.0780, 39869.00
222.3010, 40132.00
223.5240, 40270.00
224.7470, 40376.00
225.9690, 40738.00
227.1920, 40928.00
228.4140, 40868.00
229.6360, 41006.36
230.8580, 41220.00
232.0800, 41032.00
233.3020, 40732.00
234.5230, 40853.00
235.7440, 40615.00
236.9650, 40683.00
238.1860, 40284.00
239.4070, 40155.00
240.6280, 39658.00
241.8480, 39640.00
243.0680, 39501.00
244.2880, 39506.00
245.5080, 39325.00
246.7280, 39275.84
247.9470, 39159.32
249.1660, 39073.00
250.3860, 38922.00
251.6040, 38709.00
252.8230, 38595.00
254.0420, 38455.22
255.2600, 38657.04
256.4790, 38773.80
257.6970, 38810.07
258.9150, 38524.79
260.1320, 38654.72
261.3500, 38618.26
262.5670, 38574.96
263.7840, 38763.34
265.0010, 38842.00
266.2180, 38500.00
267.4350, 38782.00
268.6510, 38655.00
269.8680, 38753.00
271.0840, 38490.00
272.3000, 38746.00
273.5160, 38710.00
274.7310, 39138.00
275.9470, 39442.00
277.1620, 39431.09
278.3770, 39328.00
279.5920, 39403.00
280.8070, 39688.00
282.0210, 39453.00
283.2360, 39813.00
284.4500, 39969.00
285.6640, 39932.00
286.8780, 39796.00
288.0920, 39809.00
289.3050, 40140.00
290.5180, 39912.00
291.7320, 40085.53
292.9450, 40068.86
294.1570, 40160.00
295.3700, 40014.00
296.5830, 39968.00
297.7950, 39940.00
299.0070, 39737.00
300.2190, 39739.00
301.4310, 39670.00
302.6420, 39471.00
303.8540, 39345.00
305.0650, 39510.00
306.2760, 39180.00
307.4870, 39274.00
308.6980, 39263.00
309.9080, 38979.00
311.1190, 39093.00
312.3290, 38928.00
313.5390, 38837.00
314.7490, 38753.00
315.9580, 38669.00
317.1680, 38625.00
318.3770, 38717.00
319.5860, 38470.00
320.7950, 38239.00
322.0040, 38341.01
323.2130, 38311.37
324.4210, 38431.00
325.6290, 38480.00
326.8380, 38551.00
328.0460, 38459.00
329.2530, 38878.00
330.4610, 38173.00
331.6680, 38738.00
332.8760, 38448.00
334.0830, 38622.00
335.2890, 38431.00
336.4960, 38422.00
337.7030, 38351.00
338.9090, 38386.00
340.1150, 38483.00
341.3210, 38861.00
342.5270, 38767.00
343.7330, 38887.70
344.9380, 38896.00
346.1440, 38869.00
347.3490, 39066.00
348.5540, 39002.00
349.7590, 39337.00
350.9630, 39361.00
352.1680, 39714.00
353.3720, 39854.00
354.5760, 40373.00
355.7800, 40333.00
356.9840, 40513.00
358.1870, 40553.00
359.3910, 41007.00
360.5940, 41304.00
361.7970, 41348.00
363.0000, 41889.00
364.2030, 41398.00
365.4050, 42222.00
366.6080, 41818.00
367.8100, 42079.00
369.0120, 42077.00
370.2140, 42025.00
371.4150, 41920.00
372.6170, 42155.00
373.8180, 42114.00
375.0190, 42015.00
376.2200, 42147.00
377.4210, 42068.00
378.6220, 41632.00
379.8220, 41828.00
381.0230, 41597.00
382.2230, 41304.00
383.4230, 41514.00
384.6220, 41241.00
385.8220, 40856.00
387.0220, 40823.00
388.2210, 40703.00
389.4200, 40848.00
390.6190, 40597.00
391.8180, 40329.00
393.0160, 40105.63
394.2150, 40295.55
395.4130, 40400.42
396.6110, 40424.80
397.8090, 40127.63
399.0060, 40245.68
400.2040, 40197.33
401.4010, 40142.15
402.5980, 40318.65
403.7950, 40068.25
404.9920, 40241.07
406.1890, 40244.95
407.3860, 40326.14
408.5820, 40239.91
409.7780, 40205.40
410.9740, 40233.38
412.1700, 40290.00
413.3650, 40431.00
414.5610, 40551.00
415.7560, 40679.00
416.9510, 40866.00
418.1460, 40986.73
419.3410, 41215.00
420.5360, 41317.00
421.7300, 41435.00
422.9240, 41687.00
424.1180, 41540.00
425.3120, 41723.00
426.5060, 41746.00
427.7000, 42053.00
428.8930, 41800.00
430.0860, 42039.00
431.2790, 41693.00
432.4720, 41303.00
433.6650, 41446.00
434.8580, 41026.00
436.0500, 40822.00
437.2420, 40622.00
438.4340, 40421.00
439.6260, 40210.00
440.8180, 39940.00
442.0090, 39890.00
443.2010, 39656.00
444.3920, 39312.00
445.5830, 39167.00
446.7740, 39281.00
447.9640, 39119.00
449.1550, 38889.00
450.3450, 38716.00
451.5350, 38642.00
452.7250, 38492.85
453.9150, 38328.00
455.1050, 38364.00
456.2940, 38331.00
457.4830, 38383.00
458.6720, 38229.00
459.8610, 38161.00
461.0500, 38200.00
462.2390, 38310.00
463.4270, 38186.00
464.6150, 38010.00
465.8040, 37885.00
466.9910, 37882.25
468.1790, 37849.00
469.3670, 37900.00
470.5540, 37938.29
471.7410, 37897.80
472.9280, 37949.00
474.1150, 37988.00
475.3020, 37931.00
476.4890, 37878.00
477.6750, 37993.00
478.8610, 38198.00
480.0470, 38392.00
481.2330, 38253.00
482.4190, 38408.00
483.6040, 38877.00
484.7900, 38897.00
485.9750, 38807.00
487.1600, 39288.00
488.3450, 39371.91
489.5290, 39412.00
490.7140, 39939.00
491.8980, 39920.00
493.0820, 40191.00
494.2660, 40394.00
495.4500, 40496.00
496.6340, 40782.00
497.8170, 40894.00
499.0010, 41470.00
500.1840, 41670.00
501.3670, 42131.00
502.5500, 42395.06
503.7320, 42362.00
504.9150, 42875.00
506.0970, 42963.00
507.2790, 43175.00
508.4610, 43804.00
509.6430, 43961.00
510.8250, 44330.00
512.0060, 44709.00
513.1870, 45165.00
514.3680, 45189.00
515.5490, 45515.00
516.7300, 46156.00
517.9110, 46251.00
519.0910, 46752.00
520.2710, 47321.00
521.4510, 47710.00
522.6310, 48574.00
523.8110, 49086.00
524.9910, 49393.00
526.1700, 49893.00
527.3490, 50123.00
528.5280, 50378.00
529.7070, 50960.00
530.8860, 51232.00
532.0650, 51610.00
533.2430, 51724.00
534.4210, 51772.00
535.5990, 51591.00
536.7770, 51527.97
537.9550, 51231.00
539.1320, 51118.00
540.3100, 50706.00
541.4870, 50391.00
542.6640, 50042.00
543.8410, 49793.00
545.0170, 49365.00
546.1940, 48841.00
547.3700, 48664.00
548.5470, 48447.00
549.7230, 48518.00
550.8980, 47538.00
552.0740, 48543.00
553.2500, 47327.00
554.4250, 47086.00
555.6000, 46798.00
556.7750, 46341.00
557.9500, 46134.00
559.1250, 45829.00
560.2990, 45515.00
561.4730, 45553.00
562.6480, 45158.00
563.8220, 45043.00
564.9950, 44645.00
566.1690, 44153.00
567.3430, 44303.00
568.5160, 43708.00
569.6890, 43478.00
570.8620, 43207.00
572.0350, 43025.00
573.2070, 42349.00
574.3800, 42373.00
575.5520, 41845.00
576.7240, 41394.00
577.8960, 41223.00
579.0680, 40855.00
580.2400, 40839.00
581.4110, 40258.00
582.5830, 40143.00
583.7540, 39737.00
584.9250, 39742.00
586.0950, 39486.00
587.2660, 39372.00
588.4370, 38717.00
589.6070, 38830.00
590.7770, 38465.00
591.9470, 38547.00
593.1170, 38309.00
594.2860, 38262.00
595.4560, 38392.00
596.6250, 37784.00
597.7940, 37809.00
598.9630, 37738.00
600.1320, 37579.00
601.3000, 37361.00
602.4690, 37499.00
603.6370, 37255.00
604.8050, 37548.00
605.9730, 37514.00
607.1410, 37670.00
608.3090, 37627.00
609.4760, 37558.00
610.6430, 37765.00
611.8100, 37528.00
612.9770, 37696.00
614.1440, 37922.00
615.3110, 37869.00
616.4770, 38264.00
617.6430, 38096.00
618.8090, 38263.00
619.9750, 38444.00
621.1410, 38529.00
622.3070, 38713.24
623.4720, 38905.00
624.6370, 39033.00
625.8020, 39214.51
626.9670, 39220.00
628.1320, 39572.00
629.2970, 39805.00
630.4610, 40074.00
631.6250, 40354.32
632.7890, 40634.60
633.9530, 40886.00
635.1170, 41210.00
636.2810, 41506.26
637.4440, 41750.00
638.6070, 42030.00
639.7700, 42078.00
640.9330, 42301.00
642.0960, 42696.00
643.2590, 42998.00
644.4210, 43374.00
645.5830, 43592.00
646.7450, 43923.00
647.9070, 44176.00
649.0690, 44384.00
650.2310, 44575.00
651.3920, 44948.00
652.5530, 45171.00
653.7140, 45296.00
654.8750, 45599.00
656.0360, 45954.00
657.1970, 46074.00
658.3570, 46551.00
659.5170, 46805.00
660.6770, 46982.13
661.8370, 47027.90
662.9970, 47060.68
664.1570, 47023.61
665.3160, 46866.00
666.4750, 46718.00
667.6340, 46452.00
668.7930, 46042.00
669.9520, 46530.00
671.1110, 46037.00
672.2690, 46199.00
673.4270, 46284.00
674.5850, 46433.00
675.7430, 46590.00
676.9010, 46981.00
678.0590, 47123.00
679.2160, 47266.00
680.3730, 47710.00
681.5300, 47590.00
682.6870, 48005.00
683.8440, 47872.00
685.0010, 47772.00
686.1570, 47690.00
687.3130, 47298.00
688.4690, 47073.00
689.6250, 46406.00
690.7810, 45955.00
691.9370, 45490.00
693.0920, 45172.00
694.2470, 44778.00
695.4020, 44550.00
696.5570, 44459.00
697.7120, 44424.00
698.8670, 44661.00
700.0210, 44331.00
701.1750, 44372.00
702.3290, 44760.00
703.4830, 45006.00
704.6370, 45307.00
705.7910, 45565.00
706.9440, 46032.00
708.0970, 46227.00
709.2510, 46812.00
710.4030, 47091.00
711.5560, 47917.00
712.7090, 48432.00
713.8610, 48714.16
715.0140, 49211.00
716.1660, 49472.00
717.3180, 49883.00
718.4690, 50694.00
719.6210, 51149.00
720.7730, 51779.00
721.9240, 51794.00
723.0750, 52280.00
724.2260, 52126.00
725.3770, 52697.00
726.5270, 52839.00
727.6780, 53334.00
728.8280, 53383.00
729.9780, 53261.00
731.1280, 53627.00
732.2780, 53625.00
733.4280, 54246.00
734.5770, 54054.00
735.7260, 54071.00
736.8760, 53939.00
738.0250, 53778.00
739.1730, 53523.00
740.3220, 53337.00
741.4700, 53071.33
742.6190, 52858.00
743.7670, 52433.00
744.9150, 52039.00
746.0630, 51511.00
747.2100, 50823.00
748.3580, 50217.00
749.5050, 49557.95
750.6520, 49317.00
751.7990, 48424.00
752.9460, 47734.00
754.0930, 47643.00
755.2390, 47052.00
756.3860, 46367.00
757.5320, 46167.00
758.6780, 45803.00
759.8240, 45421.00
760.9690, 45115.00
762.1150, 44695.00
763.2600, 44578.00
764.4060, 44319.00
765.5510, 44499.00
766.6950, 44444.20
767.8400, 44564.00
768.9850, 44291.00
770.1290, 44271.79
771.2730, 43934.00
772.4170, 44059.00
773.5610, 43903.00
774.7050, 43869.00
775.8480, 43770.00
776.9920, 43648.00
778.1350, 43881.00
779.2780, 43874.00
780.4210, 43711.00
781.5640, 43831.00
782.7060, 43772.00
783.8490, 43350.00
784.9910, 43445.00
786.1330, 43566.00
787.2750, 42978.00
788.4170, 43269.00
789.5580, 42763.00
790.7000, 43208.00
791.8410, 42915.02
792.9820, 43164.00
794.1230, 42575.00
795.2640, 42399.00
796.4040, 42271.00
797.5450, 42412.00
798.6850, 42198.00
799.8250, 42371.00
800.9650, 42096.00
802.1050, 41921.00
803.2450, 41993.00
804.3840, 42050.00
805.5230, 41664.00
806.6630, 41930.00
807.8020, 41508.00
808.9400, 41315.00
810.0790, 41200.00
811.2170, 41338.00
812.3560, 41158.00
813.4940, 41254.00
814.6320, 41162.00
815.7700, 40857.00
816.9070, 40892.00
818.0450, 40692.00
819.1820, 40507.00
820.3190, 40469.00
821.4560, 40296.00
822.5930, 40157.00
823.7300, 40199.00
824.8670, 40256.00
826.0030, 39960.00
827.1390, 39782.00
828.2750, 39840.00
829.4110, 39666.00
830.5470, 39655.00
831.6820, 39725.00
832.8180, 39347.00
833.9530, 39582.00
835.0880, 39243.00
836.2230, 39374.00
837.3580, 39226.88
838.4920, 39135.00
839.6270, 38973.00
840.7610, 39129.00
841.8950, 39084.00
843.0290, 39181.00
844.1630, 39064.00
845.2960, 39044.00
846.4300, 39162.00
847.5630, 38875.00
848.6960, 39459.00
849.8290, 39161.16
850.9620, 39183.00
852.0940, 39133.00
853.2270, 39059.00
854.3590, 39066.73
855.4910, 39080.63
856.6230, 39181.00
857.7550, 39140.00
858.8870, 39516.00
860.0180, 39498.00
861.1500, 39502.00
862.2810, 39469.00
863.4120, 39304.00
864.5430, 39598.00
865.6730, 39637.00
866.8040, 39417.00
867.9340, 39842.00
869.0640, 39703.00
870.1940, 39559.00
871.3240, 39601.00
872.4540, 39605.00
873.5830, 39797.00
874.7130, 40137.00
875.8420, 40076.00
876.9710, 39767.00
878.1000, 40314.00
879.2290, 40283.27
880.3570, 40333.95
881.4860, 40646.00
882.6140, 40514.00
883.7420, 40419.00
884.8700, 40627.00
885.9980, 40528.00
887.1250, 40756.00
888.2530, 40702.00
889.3800, 40608.00
890.5070, 41117.00
891.6340, 40971.00
892.7610, 40645.00
893.8880, 41152.00
895.0140, 41156.00
896.1400, 41166.00
897.2670, 41274.00
898.3930, 41165.00
899.5180, 41208.72
900.6440, 41273.00
901.7700, 41225.00
902.8950, 41361.00
904.0200, 41468.00
905.1450, 41405.00
906.2700, 41632.00
907.3950, 41725.00
908.5190, 41911.00
909.6440, 42010.00
910.7680, 41985.00
911.8920, 42022.00
913.0160, 42071.00
914.1400, 42324.00
915.2630, 42481.00
916.3870, 42311.00
917.5100, 42522.00
918.6330, 42175.00
919.7560, 42289.00
920.8790, 42428.00
922.0010, 42511.00
923.1240, 42308.00
924.2460, 42168.00
925.3680, 42326.00
926.4900, 42308.00
927.6120, 42227.00
928.7340, 42397.00
929.8550, 42195.00
930.9760, 42298.00
932.0980, 42128.00
933.2190, 42291.00
934.3390, 42293.00
935.4600, 42417.00
936.5810, 42192.00
937.7010, 42372.00
938.8210, 42379.00
939.9410, 42324.00
941.0610, 42489.00
942.1810, 42532.00
943.3010, 42528.00
944.4200, 42642.00
945.5390, 42462.00
946.6580, 42609.00
947.7770, 42763.00
948.8960, 42438.00
950.0150, 42705.00
951.1330, 42795.00
952.2510, 43054.00
953.3690, 42662.00
954.4870, 43218.00
955.6050, 42937.00
956.7230, 43042.00
957.8400, 43086.00
958.9580, 42993.00
960.0750, 43356.00
961.1920, 42868.00
962.3090, 43198.00
963.4250, 42892.00
964.5420, 43197.00
965.6580, 43248.00
966.7740, 42879.00
967.8900, 43064.00
969.0060, 43373.00
970.1220, 43256.00
971.2380, 43186.00
972.3530, 43278.00
973.4680, 43430.00
974.5830, 43449.32
975.6980, 43683.00
976.8130, 43525.00
977.9280, 43622.00
979.0420, 43453.00
980.1560, 43471.00
981.2710, 43561.82
982.3850, 43854.00
983.4980, 43740.00
984.6120, 44009.00
985.7260, 44047.00
986.8390, 44141.00
987.9520, 44165.00
989.0650, 44221.12
990.1780, 44612.00
991.2910, 44447.00
992.4030, 44388.00
993.5160, 44787.00
994.6280, 44460.00
995.7400, 44687.00
996.8520, 44856.00
997.9640, 44774.00
999.0750, 44723.00
1000.187, 44885.00
1001.298, 45163.00
1002.409, 45155.00
1003.520, 45005.00
1004.631, 45313.00
1005.741, 44957.00
1006.852, 45294.00
1007.962, 45073.00
1009.072, 44984.00
1010.182, 45235.00
1011.292, 45397.00
1012.402, 45179.00
1013.511, 45118.00
1014.621, 45150.00
1015.730, 45172.00
1016.839, 45041.00
1017.948, 45210.00
1019.056, 44992.00
1020.165, 45231.00
1021.273, 45136.00
1022.382, 44781.00
1023.490, 45113.00
1024.598, 44671.00
1025.706, 44667.00
1026.813, 44812.00
1027.921, 44491.00
1029.028, 44620.00
1030.135, 44541.00
1031.242, 44509.00
1032.349, 44472.00
1033.456, 44475.00
1034.562, 44404.00
1035.668, 44331.00
1036.775, 44347.00
1037.881, 44114.00
1038.987, 44015.00
1040.092, 44095.00
1041.198, 44112.00
1042.303, 43842.00
1043.408, 43742.84
1044.514, 43901.69
1045.618, 43975.55
1046.723, 43968.88
1047.828, 43640.67
1048.932, 43727.70
1050.037, 43648.30
1051.141, 43562.12
1052.245, 43707.59
1053.349, 43426.18
1054.452, 43568.01
1055.556, 43540.88
1056.659, 43591.09
1057.762, 43473.88
1058.865, 43408.38
1059.968, 43510.36
1061.071, 43519.60
1062.174, 43383.11
1063.276, 43438.27
1064.378, 43151.07
1065.480, 43164.30
1066.582, 43307.14
1067.684, 43179.11
1068.786, 43237.33
1069.887, 43224.64
1070.988, 43013.00
1072.090, 43196.00
1073.191, 43272.00
1074.291, 43044.00
1075.392, 42773.00
1076.493, 42697.00
1077.593, 42858.00
1078.693, 42948.00
1079.793, 42746.00
1080.893, 42807.00
1081.993, 42615.00
1083.092, 42626.00
1084.192, 42601.00
1085.291, 42504.00
1086.390, 42432.00
1087.489, 42520.00
1088.588, 42231.98
1089.686, 42371.12
1090.785, 42425.16
1091.883, 42398.77
1092.981, 42050.82
1094.079, 42118.09
1095.177, 42018.96
1096.275, 41913.00
1097.373, 42038.71
1098.470, 41737.58
1099.567, 41859.67
1100.664, 41812.82
1101.761, 41843.28
1102.858, 41706.32
1103.954, 41621.12
1105.051, 41703.35
1106.147, 41692.90
1107.243, 41536.71
1108.339, 41572.14
1109.435, 41265.21
1110.531, 41258.71
1111.626, 41381.88
1112.722, 41234.11
1113.817, 41272.65
1114.912, 41240.26
1116.007, 40885.48
1117.101, 41091.41
1118.196, 41054.82
1119.290, 40769.32
1120.385, 40955.99
1121.479, 40704.82
1122.573, 40609.94
1123.666, 40632.75
1124.760, 40532.88
1125.853, 40626.39
1126.947, 40533.60
1128.040, 40424.22
1129.133, 40387.46
1130.226, 40144.93
1131.318, 40284.20
1132.411, 40162.65
1133.503, 40170.77
1134.596, 40208.23
1135.688, 40020.76
1136.780, 40089.00
1137.871, 40004.00
1138.963, 39732.00
1140.054, 39896.00
1141.146, 39780.00
1142.237, 39755.00
1143.328, 39910.00
1144.419, 39888.00
1145.509, 39600.00
1146.600, 39891.00
1147.690, 39725.00
1148.780, 39603.00
1149.870, 39658.00
1150.960, 39663.00
1152.050, 39806.00
1153.139, 39716.00
1154.229, 39703.00
1155.318, 39537.00
1156.407, 39636.00
1157.496, 39481.00
1158.585, 39516.78
1159.674, 39546.00
1160.762, 39528.00
1161.850, 39576.00
1162.939, 39513.00
1164.027, 39388.00
1165.114, 39569.00
1166.202, 39775.00
1167.290, 39655.59
1168.377, 39444.00
1169.464, 39454.00
1170.551, 39341.36
1171.638, 39404.00
1172.725, 39268.00
1173.812, 39464.00
1174.898, 39500.00
1175.984, 39635.00
1177.071, 39343.00
1178.157, 39554.00
1179.242, 39531.00
1180.328, 39504.00
1181.414, 39681.00
1182.499, 39536.00
1183.584, 39638.00
1184.669, 39793.00
1185.754, 39673.00
1186.839, 39541.00
1187.924, 39748.00
1189.008, 39641.72
1190.092, 39616.63
1191.177, 39710.00
1192.260, 39487.00
1193.344, 39568.00
1194.428, 39483.00
1195.512, 39676.00
1196.595, 39491.00
1197.678, 39742.00
1198.761, 39420.35
1199.844, 39621.14
1200.927, 39736.87
1202.009, 39772.10
1203.092, 39485.79
1204.174, 39614.69
1205.256, 39577.19
1206.338, 39532.87
1207.420, 39720.21
1208.502, 39480.66
1209.583, 39664.32
1210.665, 39679.05
1211.746, 39771.09
1212.827, 39695.70
1213.908, 39672.03
1214.988, 39815.83
1216.069, 39866.90
1217.149, 39772.23
1218.230, 39869.19
1219.310, 39623.78
1220.390, 39678.80
1221.470, 39863.43
1222.549, 39777.18
1223.629, 39877.19
1224.708, 39906.25
1225.787, 39612.93
1226.866, 39880.28
1227.945, 39905.15
1229.024, 39681.07
1230.103, 39929.20
1231.181, 39739.43
1232.259, 39705.96
1233.337, 39790.12
1234.415, 39751.66
1235.493, 39906.52
1236.571, 39875.14
1237.648, 39827.11
1238.726, 39851.71
1239.803, 39911.00
1240.880, 39876.00
1241.957, 40067.00
1243.034, 39835.00
1244.110, 39797.00
1245.187, 39926.00
1246.263, 40025.00
1247.339, 39978.10
1248.415, 39890.00
1249.491, 39986.00
1250.566, 39889.00
1251.642, 40009.00
1252.717, 39647.00
1253.793, 39675.00
1254.868, 39966.00
1255.943, 39549.00
1257.017, 39868.00
1258.092, 39944.00
1259.166, 40091.00
1260.241, 39635.00
1261.315, 39642.00
1262.389, 39983.00
1263.462, 39711.00
1264.536, 40047.00
1265.610, 39920.00
1266.683, 39919.00
1267.756, 39983.00
1268.829, 40012.00
1269.902, 39872.00
1270.975, 39767.00
1272.048, 39572.00
1273.120, 39583.00
1274.192, 39749.00
1275.264, 39712.25
1276.336, 39754.00
1277.408, 39855.00
1278.480, 39754.00
1279.551, 39759.00
1280.623, 39845.55
1281.694, 40024.00
1282.765, 39935.00
1283.836, 39991.00
1284.907, 39873.00
1285.977, 40137.00
1287.048, 39899.00
1288.118, 39973.00
1289.188, 40169.00
1290.258, 39999.00
1291.328, 40088.00
1292.398, 40041.00
1293.467, 39842.00
1294.537, 40156.00
1295.606, 39913.00
1296.675, 39892.00
1297.744, 40024.00
1298.813, 39990.00
1299.882, 39960.00
1300.950, 39949.00
1302.018, 40095.00
1303.086, 40247.00
1304.155, 40029.00
1305.222, 40225.00
1306.290, 40233.00
1307.358, 40047.48
1308.425, 40244.58
1309.492, 40356.62
1310.559, 40388.18
1311.626, 40098.18
1312.693, 40223.40
1313.760, 40182.22
1314.826, 40134.22
1315.893, 40317.88
1316.959, 40074.65
1318.025, 40254.64
1319.091, 40265.68
1320.157, 40354.05
1321.222, 40274.98
1322.288, 40247.64
1323.353, 40387.77
1324.418, 40435.16
1325.483, 40336.82
1326.548, 40430.10
1327.612, 40181.02
1328.677, 40232.36
1329.741, 40413.32
1330.806, 40323.40
1331.870, 40419.74
1332.934, 40445.14
1333.997, 40148.15
1335.061, 40411.83
1336.124, 40433.03
1337.188, 40205.28
1338.251, 40449.74
1339.314, 40256.30
1340.377, 40219.17
1341.439, 40299.67
1342.502, 40189.00
1343.564, 40410.00
1344.627, 40238.00
1345.689, 40248.00
1346.751, 40515.00
1347.813, 40346.00
1348.874, 40328.00
1349.936, 40311.00
1350.997, 40211.73
1352.058, 39955.67
1353.119, 40271.00
1354.180, 40159.00
1355.241, 40563.00
1356.301, 40542.47
1357.362, 40316.00
1358.422, 40455.00
1359.482, 40512.00
1360.542, 40113.00
1361.602, 40655.00
1362.662, 40413.00
1363.721, 40487.00
1364.781, 40318.00
1365.840, 40449.00
1366.899, 40323.00
1367.958, 40418.00
1369.017, 40425.00
1370.075, 40430.00
1371.134, 40475.00
1372.192, 40388.00
1373.250, 40340.00
1374.308, 40303.00
1375.366, 40303.77
1376.424, 40283.00
1377.481, 40389.00
1378.539, 40203.00
1379.596, 40307.46
1380.653, 40428.74
1381.710, 40538.00
1382.767, 40654.00
1383.824, 40605.00
1384.880, 40452.00
1385.937, 40445.00
1386.993, 40253.00
1388.049, 40305.92
1389.105, 40333.07
1390.161, 40429.00
1391.216, 40462.00
1392.272, 40612.00
1393.327, 40599.00
1394.382, 40530.00
1395.437, 40669.00
1396.492, 40389.00
1397.547, 40823.00
1398.601, 40515.00
1399.656, 40691.00
1400.710, 40590.00
1401.764, 40615.00
1402.818, 40593.00
1403.872, 40591.00
1404.925, 40666.00
1405.979, 40745.00
1407.032, 40697.00
1408.085, 40683.00
1409.139, 40699.21
1410.191, 40655.00
1411.244, 40694.00
1412.297, 40578.00
1413.349, 40578.00
1414.402, 40768.00
1415.454, 40596.00
1416.506, 40827.00
1417.558, 40618.00
1418.609, 40714.00
1419.661, 40912.00
1420.712, 40974.00
1421.764, 40843.00
1422.815, 40853.00
1423.866, 40899.00
1424.916, 40736.12
1425.967, 41103.00
1427.018, 40630.00
1428.068, 40665.00
1429.118, 40931.00
1430.168, 41058.00
1431.218, 41076.00
1432.268, 41092.00
1433.318, 41023.00
1434.367, 41061.00
1435.416, 40870.00
1436.465, 41058.00
1437.514, 40960.00
1438.563, 41207.00
1439.612, 41090.00
1440.661, 41001.00
1441.709, 41151.00
1442.757, 41028.00
1443.805, 41296.00
1444.853, 41161.00
1445.901, 41352.00
1446.949, 41198.00
1447.996, 41328.00
1449.044, 41239.00
1450.091, 41064.00
1451.138, 40989.00
1452.185, 41445.00
1453.232, 41178.00
1454.278, 41386.00
1455.325, 41117.00
1456.371, 41474.00
1457.417, 41091.00
1458.463, 40922.00
1459.509, 41245.00
1460.555, 41493.00
1461.601, 41368.00
1462.646, 41443.21
1463.691, 41495.00
1464.737, 41288.00
1465.782, 41277.00
1466.826, 41345.00
1467.871, 41366.00
1468.916, 41278.00
1469.960, 41440.00
1471.004, 41479.00
1472.048, 41602.00
1473.092, 41189.00
1474.136, 41480.00
1475.180, 41565.00
1476.223, 41198.00
1477.267, 41364.00
1478.310, 41487.00
1479.353, 41583.00
1480.396, 41302.23
1481.439, 41503.24
1482.481, 41619.18
1483.524, 41654.65
1484.566, 41368.55
1485.608, 41497.67
1486.650, 41460.39
1487.692, 41416.29
1488.734, 41603.86
1489.775, 41364.52
1490.817, 41548.41
1491.858, 41563.35
1492.899, 41655.61
1493.940, 41580.45
1494.981, 41556.99
1496.022, 41701.02
1497.062, 41752.31
1498.103, 41657.87
1499.143, 41755.04
1500.183, 41509.85
1501.223, 41565.09
1502.263, 41749.95
1503.302, 41720.00
1504.342, 41597.00
1505.381, 41593.00
1506.420, 41835.00
1507.459, 41447.00
1508.498, 41374.00
1509.537, 41696.00
1510.576, 41825.00
1511.614, 41731.12
1512.652, 41715.88
1513.691, 41646.00
1514.729, 41423.00
1515.767, 41556.00
1516.804, 41581.00
1517.842, 41924.00
1518.879, 41650.00
1519.917, 41517.00
1520.954, 41768.00
1521.991, 41577.00
1523.028, 41534.00
1524.064, 41790.00
1525.101, 41994.00
1526.137, 41651.00
1527.173, 41616.00
1528.210, 41512.00
1529.245, 41857.00
1530.281, 41949.00
1531.317, 41871.00
1532.352, 41608.00
1533.388, 41625.00
1534.423, 41708.00
1535.458, 41418.00
1536.493, 41548.00
1537.528, 41807.00
1538.562, 41749.00
1539.597, 41669.00
1540.631, 41610.53
1541.665, 41797.66
1542.700, 41899.73
1543.733, 41921.32
1544.767, 41621.35
1545.801, 41736.61
1546.834, 41685.46
1547.868, 41627.49
1548.901, 41801.19
1549.934, 41548.00
1550.967, 41718.02
1551.999, 41719.11
1553.032, 41797.52
1554.064, 41708.50
1555.097, 41671.19
1556.129, 41801.37
1557.161, 41838.81
1558.193, 41730.52
1559.224, 41813.85
1560.256, 41554.82
1561.287, 41596.21
1562.318, 41767.23
1563.350, 41667.36
1564.380, 41753.77
1565.411, 41769.22
1566.442, 41462.29
1567.472, 41825.00
1568.503, 41415.00
1569.533, 41822.00
1570.563, 41519.00
##END=



