##NAMES=Magnesite
##RRUFFID=R050676
##IDEAL CHEMISTRY=MgCO_3_
##LOCALITY=Tyrol, Austria
##OWNER=RRUFF
##SOURCE=University of Arizona Mineral Museum
##DESCRIPTION=Brown rhombohedral crystals
##STATUS=The identification of this mineral has been confirmed by X-ray diffraction and chemical analysis
##URL=rruff.info/R050676
##MEASURED CHEMISTRY=(Mg_0.87_Fe^2+^_0.12_Ca_0.01_)_Î£=1_CO_3_; trace amounts of Mn and Cd; CO_2_ estimated by difference
##PIN_ID=M01410
##ORIENTATION=Laser parallel to c* (0 0 1). Fiducial mark perpendicular to laser is parallel to a [1 0 0]
61.07900, 6805.000
62.32000, 6837.000
63.56100, 6853.000
64.80100, 7050.000
66.04100, 6804.000
67.28100, 6812.000
68.52100, 7196.000
69.76100, 7226.000
71.00100, 7309.000
72.24000, 7321.000
73.47900, 7289.000
74.71800, 7492.000
75.95700, 7613.000
77.19600, 7667.000
78.43500, 7469.000
79.67300, 7531.000
80.91200, 7791.000
82.15000, 8170.000
83.38800, 7966.000
84.62600, 7711.000
85.86300, 7227.000
87.10100, 7039.000
88.33800, 6794.000
89.57500, 6828.000
90.81200, 6716.000
92.04900, 6652.000
93.28600, 6777.000
94.52300, 6690.000
95.75900, 6531.000
96.99500, 6566.000
98.23100, 6475.000
99.46700, 6549.000
100.7030, 6613.000
101.9390, 6567.000
103.1740, 6688.000
104.4090, 6801.000
105.6440, 6907.000
106.8790, 6694.000
108.1140, 6558.000
109.3490, 6519.000
110.5830, 6537.000
111.8180, 6552.000
113.0520, 6583.000
114.2860, 6618.000
115.5200, 6854.000
116.7530, 6703.000
117.9870, 6735.000
119.2200, 6995.000
120.4530, 7518.000
121.6860, 7425.000
122.9190, 7396.000
124.1520, 6801.000
125.3850, 6537.000
126.6170, 6463.000
127.8490, 6320.000
129.0810, 6376.000
130.3130, 6338.000
131.5450, 6298.000
132.7770, 6281.000
134.0080, 6231.000
135.2390, 6288.000
136.4710, 6214.000
137.7020, 6328.000
138.9320, 6430.000
140.1630, 6340.000
141.3930, 6353.000
142.6240, 6282.000
143.8540, 6403.000
145.0840, 6304.000
146.3140, 6389.000
147.5440, 6344.000
148.7730, 6432.000
150.0020, 6282.000
151.2320, 6352.000
152.4610, 6336.000
153.6900, 6363.000
154.9180, 6319.000
156.1470, 6442.000
157.3750, 6447.000
158.6040, 6522.000
159.8320, 6465.000
161.0600, 6443.000
162.2870, 6526.000
163.5150, 6528.000
164.7420, 6547.000
165.9700, 6505.000
167.1970, 6456.000
168.4240, 6470.000
169.6510, 6548.000
170.8770, 6616.000
172.1040, 6581.000
173.3300, 6673.000
174.5560, 6632.000
175.7820, 6722.000
177.0080, 6763.000
178.2340, 6714.000
179.4590, 6739.000
180.6850, 6865.000
181.9100, 6861.000
183.1350, 6874.000
184.3600, 7029.000
185.5850, 7030.000
186.8090, 7067.000
188.0340, 7231.000
189.2580, 7348.000
190.4820, 7406.000
191.7060, 7690.000
192.9300, 7874.000
194.1530, 8249.000
195.3770, 8550.000
196.6000, 8883.000
197.8230, 9473.000
199.0460, 10107.00
200.2690, 10874.00
201.4910, 11685.00
202.7140, 12954.00
203.9360, 14292.00
205.1580, 15773.00
206.3800, 17682.00
207.6020, 19807.00
208.8240, 22102.00
210.0450, 23061.00
211.2670, 22637.00
212.4880, 20396.00
213.7090, 17467.00
214.9300, 14545.00
216.1510, 12025.00
217.3710, 9983.000
218.5920, 8817.000
219.8120, 8103.000
221.0320, 7463.000
222.2520, 7187.000
223.4720, 6872.000
224.6910, 6909.000
225.9110, 6690.000
227.1300, 6615.000
228.3490, 6476.000
229.5680, 6464.000
230.7870, 6389.000
232.0050, 6421.000
233.2240, 6420.000
234.4420, 6387.000
235.6600, 6468.000
236.8780, 6457.000
238.0960, 6336.000
239.3140, 6386.000
240.5310, 6466.000
241.7490, 6322.000
242.9660, 6335.000
244.1830, 6345.000
245.4000, 6421.000
246.6160, 6237.000
247.8330, 6295.000
249.0490, 6295.000
250.2660, 6325.000
251.4820, 6297.000
252.6980, 6344.000
253.9130, 6400.000
255.1290, 6402.000
256.3440, 6461.000
257.5600, 6289.000
258.7750, 6342.000
259.9900, 6308.000
261.2040, 6429.000
262.4190, 6389.000
263.6330, 6458.000
264.8480, 6332.000
266.0620, 6488.000
267.2760, 6352.000
268.4900, 6484.000
269.7030, 6385.000
270.9170, 6432.000
272.1300, 6444.000
273.3430, 6455.000
274.5560, 6415.000
275.7690, 6489.000
276.9820, 6370.000
278.1940, 6422.000
279.4070, 6248.000
280.6190, 6403.000
281.8310, 6305.000
283.0430, 6439.000
284.2550, 6515.000
285.4660, 6438.000
286.6770, 6405.000
287.8890, 6396.000
289.1000, 6346.000
290.3110, 6347.000
291.5210, 6542.000
292.7320, 6600.000
293.9420, 6401.000
295.1530, 6639.000
296.3630, 6560.000
297.5730, 6555.000
298.7830, 6562.000
299.9920, 6559.713
301.2020, 6661.000
302.4110, 6624.000
303.6200, 6705.000
304.8290, 6763.000
306.0380, 6692.000
307.2470, 6785.000
308.4550, 6908.000
309.6630, 7036.000
310.8720, 7246.000
312.0800, 7449.000
313.2880, 7707.000
314.4950, 7980.000
315.7030, 8431.000
316.9100, 8951.000
318.1170, 9411.000
319.3240, 10345.00
320.5310, 11287.00
321.7380, 12496.00
322.9450, 13965.00
324.1510, 15300.00
325.3570, 16067.00
326.5630, 16430.00
327.7690, 15756.00
328.9750, 14381.00
330.1810, 12806.00
331.3860, 11286.00
332.5910, 9983.000
333.7960, 9133.000
335.0010, 8502.000
336.2060, 8048.000
337.4110, 7731.000
338.6150, 7674.000
339.8200, 7472.000
341.0240, 7364.000
342.2280, 7283.000
343.4320, 7312.000
344.6350, 7193.043
345.8390, 7109.000
347.0420, 7044.000
348.2450, 6984.959
349.4480, 6953.104
350.6510, 6948.000
351.8540, 6915.000
353.0560, 6977.000
354.2590, 6965.000
355.4610, 6849.000
356.6630, 6943.000
357.8650, 6897.000
359.0670, 6906.000
360.2680, 6917.000
361.4700, 6919.000
362.6710, 6924.035
363.8720, 6953.000
365.0730, 6924.000
366.2740, 6959.000
367.4740, 6954.790
368.6750, 6979.000
369.8750, 6991.000
371.0750, 7030.000
372.2750, 7036.000
373.4750, 6901.000
374.6740, 7027.000
375.8740, 7100.000
377.0730, 6917.000
378.2720, 7033.000
379.4710, 7058.000
380.6700, 7004.000
381.8690, 6942.000
383.0670, 7075.000
384.2660, 7017.000
385.4640, 7062.000
386.6620, 7061.000
387.8600, 7048.000
389.0570, 6954.000
390.2550, 6934.000
391.4520, 6931.122
392.6490, 6934.307
393.8460, 6956.000
395.0430, 6977.000
396.2400, 7005.000
397.4370, 6958.000
398.6330, 6888.000
399.8290, 6905.000
401.0250, 6835.000
402.2210, 6976.000
403.4170, 6985.000
404.6130, 6998.000
405.8080, 7030.748
407.0030, 7018.066
408.1980, 6993.000
409.3930, 6995.000
410.5880, 6925.000
411.7830, 6890.000
412.9770, 6943.000
414.1720, 6985.000
415.3660, 6905.000
416.5600, 6904.000
417.7530, 6838.000
418.9470, 6914.000
420.1410, 7032.000
421.3340, 6919.000
422.5270, 6889.000
423.7200, 7004.000
424.9130, 6914.000
426.1060, 6953.000
427.2980, 7014.000
428.4900, 7093.000
429.6830, 7030.000
430.8750, 6993.000
432.0670, 7153.000
433.2580, 7086.000
434.4500, 7171.000
435.6410, 7182.000
436.8320, 7152.000
438.0240, 7068.000
439.2140, 7155.000
440.4050, 7049.000
441.5960, 7054.000
442.7860, 7145.000
443.9760, 7132.000
445.1670, 7124.000
446.3560, 7072.000
447.5460, 7229.000
448.7360, 7209.000
449.9250, 7267.000
451.1150, 7193.000
452.3040, 7197.000
453.4930, 7209.000
454.6810, 7262.000
455.8700, 7203.000
457.0590, 7396.000
458.2470, 7371.000
459.4350, 7380.000
460.6230, 7351.000
461.8110, 7663.000
462.9980, 7812.968
464.1860, 7757.517
465.3730, 7769.939
466.5600, 7679.000
467.7470, 7533.000
468.9340, 7524.000
470.1210, 7487.000
471.3080, 7402.000
472.4940, 7607.000
473.6800, 7547.000
474.8660, 7625.000
476.0520, 7609.000
477.2380, 7639.000
478.4230, 7672.000
479.6090, 7690.000
480.7940, 7830.000
481.9790, 7837.000
483.1640, 7848.000
484.3490, 7871.000
485.5330, 7853.000
486.7180, 7902.000
487.9020, 7944.000
489.0860, 8010.000
490.2700, 8101.000
491.4540, 8144.000
492.6370, 8112.000
493.8210, 8287.000
495.0040, 8172.000
496.1870, 8363.000
497.3700, 8302.000
498.5530, 8262.000
499.7360, 8288.000
500.9180, 8281.000
502.1000, 8326.479
503.2830, 8415.000
504.4650, 8458.000
505.6460, 8455.000
506.8280, 8550.000
508.0100, 8516.000
509.1910, 8518.000
510.3720, 8435.000
511.5530, 8381.000
512.7340, 8378.979
513.9150, 8341.822
515.0950, 8372.000
516.2760, 8390.000
517.4560, 8414.000
518.6360, 8437.028
519.8160, 8483.000
520.9950, 8461.000
522.1750, 8485.000
523.3540, 8455.000
524.5340, 8401.000
525.7130, 8505.000
526.8920, 8328.000
528.0700, 8307.000
529.2490, 8370.000
530.4270, 8376.000
531.6060, 8423.000
532.7840, 8334.000
533.9620, 8256.000
535.1390, 8390.000
536.3170, 8286.000
537.4940, 8195.000
538.6720, 8221.000
539.8490, 8154.000
541.0260, 8219.000
542.2030, 8287.000
543.3790, 8154.000
544.5560, 8345.000
545.7320, 8236.000
546.9080, 8260.000
548.0840, 8258.000
549.2600, 8151.000
550.4360, 8240.000
551.6110, 8177.000
552.7860, 8137.000
553.9620, 8118.000
555.1370, 8188.000
556.3110, 8090.000
557.4860, 8012.000
558.6610, 8201.000
559.8350, 8107.000
561.0090, 8135.000
562.1830, 8191.000
563.3570, 8083.000
564.5310, 8168.000
565.7040, 8256.000
566.8780, 8123.000
568.0510, 8131.000
569.2240, 8109.000
570.3970, 8221.000
571.5700, 8033.000
572.7420, 8112.000
573.9150, 8212.000
575.0870, 8039.000
576.2590, 8103.000
577.4310, 8152.000
578.6030, 8191.000
579.7740, 8258.000
580.9460, 8244.000
582.1170, 8157.000
583.2880, 8065.000
584.4590, 8224.000
585.6300, 8015.000
586.8010, 8178.000
587.9710, 8088.000
589.1410, 7932.000
590.3110, 8042.000
591.4810, 8024.000
592.6510, 7969.000
593.8210, 8229.000
594.9900, 7919.000
596.1600, 8151.000
597.3290, 8124.000
598.4980, 7930.000
599.6670, 8094.000
600.8350, 8074.000
602.0040, 8129.000
603.1720, 8167.000
604.3400, 8176.000
605.5080, 8116.000
606.6760, 8212.000
607.8440, 8092.000
609.0120, 8094.000
610.1790, 8071.000
611.3460, 8152.000
612.5130, 8155.000
613.6800, 8166.000
614.8470, 8082.000
616.0130, 8103.000
617.1800, 8266.000
618.3460, 8187.000
619.5120, 8059.000
620.6780, 8298.000
621.8440, 8251.000
623.0090, 8178.000
624.1750, 8164.000
625.3400, 8174.000
626.5050, 8270.000
627.6700, 8272.000
628.8350, 8219.000
629.9990, 8277.000
631.1640, 8240.245
632.3280, 8194.000
633.4920, 8253.000
634.6560, 8278.000
635.8200, 8366.000
636.9840, 8365.000
638.1470, 8291.000
639.3100, 8318.000
640.4730, 8221.000
641.6360, 8470.000
642.7990, 8324.000
643.9620, 8507.000
645.1240, 8619.000
646.2870, 8426.000
647.4490, 8451.000
648.6110, 8367.000
649.7730, 8472.000
650.9340, 8537.000
652.0960, 8440.000
653.2570, 8465.000
654.4180, 8622.000
655.5790, 8531.000
656.7400, 8515.000
657.9010, 8353.000
659.0620, 8696.000
660.2220, 8568.000
661.3820, 8615.000
662.5420, 8642.000
663.7020, 8656.000
664.8620, 8680.000
666.0210, 8737.000
667.1810, 8783.000
668.3400, 8657.000
669.4990, 8670.000
670.6580, 8770.000
671.8170, 8899.000
672.9750, 8731.000
674.1340, 8765.000
675.2920, 8874.000
676.4500, 8868.000
677.6080, 8927.000
678.7660, 8934.000
679.9230, 8938.731
681.0810, 8917.000
682.2380, 8919.000
683.3950, 8971.000
684.5520, 8922.000
685.7090, 8916.000
686.8660, 9159.000
688.0220, 9172.000
689.1780, 9079.000
690.3340, 9004.000
691.4900, 9062.000
692.6460, 9147.000
693.8020, 9213.000
694.9570, 9177.000
696.1130, 9376.000
697.2680, 9366.000
698.4230, 9278.000
699.5780, 9396.000
700.7320, 9557.000
701.8870, 9574.000
703.0410, 9708.000
704.1950, 9700.000
705.3490, 9866.000
706.5030, 9826.000
707.6570, 9980.000
708.8110, 10052.00
709.9640, 10298.00
711.1170, 10229.00
712.2700, 10499.00
713.4230, 10670.00
714.5760, 11018.00
715.7280, 11288.00
716.8810, 11526.00
718.0330, 11752.00
719.1850, 12150.00
720.3370, 12519.00
721.4890, 12931.00
722.6400, 13381.00
723.7920, 13997.00
724.9430, 14606.00
726.0940, 15434.00
727.2450, 16263.00
728.3960, 17169.00
729.5460, 18365.00
730.6970, 19433.00
731.8470, 20779.00
732.9970, 22181.00
734.1470, 23208.00
735.2970, 24255.00
736.4460, 25143.00
737.5960, 25456.00
738.7450, 25359.00
739.8940, 24603.00
741.0430, 23764.00
742.1920, 22818.00
743.3410, 21266.00
744.4890, 19666.00
745.6370, 18260.00
746.7850, 17140.00
747.9330, 15996.00
749.0810, 14922.00
750.2290, 14076.00
751.3760, 13299.00
752.5240, 12591.00
753.6710, 12128.00
754.8180, 11653.00
755.9650, 11100.00
757.1110, 10915.00
758.2580, 10463.00
759.4040, 10415.00
760.5510, 9960.000
761.6970, 10006.00
762.8420, 9836.000
763.9880, 9672.000
765.1340, 9602.000
766.2790, 9625.000
767.4240, 9433.000
768.5690, 9464.000
769.7140, 9286.000
770.8590, 9333.000
772.0030, 9239.000
773.1480, 9325.000
774.2920, 9126.000
775.4360, 9313.000
776.5800, 9138.000
777.7240, 9317.000
778.8670, 9090.000
780.0110, 9058.000
781.1540, 9210.000
782.2970, 9265.000
783.4400, 9216.000
784.5830, 9323.000
785.7250, 9332.000
786.8680, 9388.000
788.0100, 9382.000
789.1520, 9284.000
790.2940, 9374.000
791.4360, 9299.000
792.5780, 9293.500
793.7190, 9403.000
794.8600, 9275.000
796.0010, 9371.000
797.1420, 9400.000
798.2830, 9333.000
799.4240, 9510.000
800.5640, 9316.000
801.7050, 9296.000
802.8450, 9567.000
803.9850, 9420.000
805.1250, 9504.000
806.2640, 9504.000
807.4040, 9304.000
808.5430, 9531.000
809.6820, 9514.000
810.8210, 9519.000
811.9600, 9558.000
813.0990, 9592.000
814.2370, 9495.000
815.3760, 9571.000
816.5140, 9553.000
817.6520, 9588.000
818.7900, 9468.000
819.9270, 9489.000
821.0650, 9667.000
822.2020, 9558.000
823.3390, 9584.000
824.4760, 9632.000
825.6130, 9582.000
826.7500, 9578.000
827.8870, 9660.000
829.0230, 9654.000
830.1590, 9755.000
831.2950, 9610.000
832.4310, 9605.000
833.5670, 9680.000
834.7030, 9699.000
835.8380, 9576.000
836.9730, 9733.000
838.1080, 9634.000
839.2430, 9754.000
840.3780, 9759.000
841.5130, 9810.000
842.6470, 9738.000
843.7810, 9827.000
844.9150, 9834.000
846.0490, 9715.000
847.1830, 9881.000
848.3170, 9821.000
849.4500, 9777.000
850.5830, 9802.000
851.7160, 9832.000
852.8490, 9779.000
853.9820, 9824.000
855.1150, 9936.000
856.2470, 10048.00
857.3800, 10066.00
858.5120, 10050.00
859.6440, 9878.000
860.7760, 9971.000
861.9070, 9935.000
863.0390, 10142.00
864.1700, 9955.000
865.3010, 10011.00
866.4320, 10137.00
867.5630, 10054.00
868.6940, 10221.00
869.8240, 10160.00
870.9540, 10298.00
872.0850, 10288.00
873.2150, 10396.00
874.3450, 10543.00
875.4740, 10594.00
876.6040, 10796.00
877.7330, 10643.00
878.8620, 10648.00
879.9910, 10727.00
881.1200, 10785.00
882.2490, 10466.00
883.3770, 10453.00
884.5060, 10306.00
885.6340, 10496.00
886.7620, 10229.00
887.8900, 10318.00
889.0180, 10360.00
890.1450, 10227.00
891.2730, 10312.00
892.4000, 10356.00
893.5270, 10318.00
894.6540, 10207.00
895.7810, 10368.00
896.9070, 10178.00
898.0340, 10303.00
899.1600, 10415.00
900.2860, 10273.00
901.4120, 10477.00
902.5380, 10510.00
903.6630, 10444.00
904.7890, 10492.00
905.9140, 10479.00
907.0390, 10538.00
908.1640, 10552.00
909.2890, 10463.00
910.4130, 10538.00
911.5380, 10587.00
912.6620, 10528.00
913.7860, 10425.00
914.9100, 10645.00
916.0340, 10547.00
917.1580, 10499.00
918.2810, 10622.00
919.4040, 10603.00
920.5280, 10700.00
921.6510, 10686.00
922.7730, 10720.00
923.8960, 10578.00
925.0180, 10678.00
926.1410, 10580.00
927.2630, 10703.00
928.3850, 10760.00
929.5070, 10722.81
930.6280, 10709.00
931.7500, 10643.00
932.8710, 10879.00
933.9920, 10724.00
935.1130, 10828.00
936.2340, 10666.00
937.3550, 10862.00
938.4760, 10759.00
939.5960, 10933.00
940.7160, 10808.00
941.8360, 10961.00
942.9560, 10918.00
944.0760, 10933.00
945.1950, 10985.00
946.3150, 10880.00
947.4340, 11055.00
948.5530, 11072.00
949.6720, 10968.00
950.7900, 11029.00
951.9090, 11095.00
953.0270, 11008.00
954.1460, 11249.00
955.2640, 11254.00
956.3820, 11375.00
957.4990, 11480.00
958.6170, 11697.13
959.7340, 12012.00
960.8520, 12210.00
961.9690, 12633.00
963.0860, 12879.00
964.2020, 12803.60
965.3190, 12957.00
966.4350, 12489.00
967.5520, 12083.00
968.6680, 11781.00
969.7840, 11613.00
970.8990, 11517.00
972.0150, 11306.00
973.1310, 11421.00
974.2460, 11522.00
975.3610, 11297.00
976.4760, 11458.00
977.5910, 11414.00
978.7050, 11455.00
979.8200, 11349.00
980.9340, 11360.00
982.0480, 11496.00
983.1620, 11418.00
984.2760, 11468.00
985.3900, 11490.00
986.5030, 11323.00
987.6160, 11366.00
988.7300, 11564.00
989.8430, 11473.00
990.9550, 11487.00
992.0680, 11481.00
993.1810, 11391.00
994.2930, 11536.00
995.4050, 11444.00
996.5170, 11493.00
997.6290, 11661.00
998.7410, 11570.00
999.8520, 11651.00
1000.964, 11515.00
1002.075, 11665.00
1003.186, 11684.00
1004.297, 11771.00
1005.407, 11802.59
1006.518, 11883.00
1007.628, 11792.00
1008.738, 11687.00
1009.848, 11586.00
1010.958, 11651.00
1012.068, 11677.00
1013.178, 11796.00
1014.287, 11778.00
1015.396, 11566.00
1016.505, 11683.00
1017.614, 11697.00
1018.723, 11882.00
1019.831, 11925.00
1020.940, 11828.00
1022.048, 11895.00
1023.156, 12091.00
1024.264, 11992.00
1025.372, 12033.00
1026.479, 12098.00
1027.587, 12379.00
1028.694, 12273.00
1029.801, 12252.00
1030.908, 12479.00
1032.015, 12455.00
1033.121, 12593.00
1034.228, 12451.00
1035.334, 12669.00
1036.440, 12842.00
1037.546, 12783.00
1038.652, 13011.00
1039.758, 13127.00
1040.863, 13292.00
1041.968, 13449.00
1043.074, 13516.00
1044.178, 13674.00
1045.283, 13822.00
1046.388, 13995.00
1047.492, 14112.00
1048.597, 14421.00
1049.701, 14628.00
1050.805, 14807.00
1051.909, 15007.00
1053.012, 15156.00
1054.116, 15609.00
1055.219, 15986.00
1056.322, 16189.00
1057.425, 16454.00
1058.528, 17044.00
1059.631, 17480.00
1060.733, 18025.00
1061.836, 18770.00
1062.938, 19262.00
1064.040, 20080.00
1065.142, 20923.00
1066.243, 22067.00
1067.345, 23115.00
1068.446, 24454.00
1069.547, 25738.00
1070.648, 27892.00
1071.749, 29691.00
1072.850, 32040.00
1073.951, 34697.00
1075.051, 37533.00
1076.151, 41176.00
1077.251, 45191.00
1078.351, 50004.00
1079.451, 56068.00
1080.550, 63034.00
1081.650, 72442.00
1082.749, 83324.00
1083.848, 96622.00
1084.947, 112719.0
1086.046, 131443.0
1087.144, 154429.0
1088.243, 179418.0
1089.341, 207103.0
1090.439, 234661.0
1091.537, 260935.0
1092.635, 279550.0
1093.732, 291713.0
1094.830, 292619.0
1095.927, 281537.0
1097.024, 263417.0
1098.121, 238432.0
1099.218, 212995.0
1100.314, 186845.0
1101.411, 162215.0
1102.507, 140167.0
1103.603, 119847.0
1104.699, 102945.0
1105.795, 87730.00
1106.890, 74928.00
1107.986, 64609.00
1109.081, 55595.00
1110.176, 48790.00
1111.271, 42913.00
1112.366, 38082.00
1113.461, 34279.00
1114.555, 30923.00
1115.649, 28437.00
1116.744, 26146.00
1117.838, 24401.00
1118.931, 22796.00
1120.025, 21605.00
1121.119, 20465.00
1122.212, 19870.00
1123.305, 18989.00
1124.398, 18409.00
1125.491, 17860.00
1126.584, 17334.00
1127.676, 16826.00
1128.768, 16462.00
1129.861, 16227.00
1130.953, 15912.00
1132.044, 15624.00
1133.136, 15571.00
1134.228, 15269.00
1135.319, 15183.00
1136.410, 14959.00
1137.501, 14796.00
1138.592, 14718.00
1139.683, 14446.00
1140.773, 14510.00
1141.864, 14515.00
1142.954, 14336.00
1144.044, 14385.00
1145.134, 14299.00
1146.224, 14485.03
1147.313, 14273.00
1148.402, 14210.46
1149.492, 14257.00
1150.581, 13898.00
1151.670, 13987.00
1152.758, 13827.00
1153.847, 13821.00
1154.935, 13833.00
1156.024, 13728.00
1157.112, 13853.00
1158.200, 13871.00
1159.287, 13717.00
1160.375, 13705.00
1161.462, 13691.00
1162.550, 13784.00
1163.637, 13706.00
1164.724, 13568.00
1165.810, 13693.00
1166.897, 13575.00
1167.983, 13632.00
1169.070, 13648.00
1170.156, 13754.00
1171.242, 13647.00
1172.327, 13473.00
1173.413, 13730.00
1174.499, 13702.00
1175.584, 13675.00
1176.669, 13845.00
1177.754, 13565.00
1178.839, 13712.00
1179.923, 13689.00
1181.008, 13622.00
1182.092, 13618.00
1183.176, 13774.00
1184.260, 13634.00
1185.344, 13728.00
1186.428, 13644.00
1187.511, 13656.00
1188.595, 13633.00
1189.678, 13650.31
1190.761, 13724.00
1191.843, 13686.00
1192.926, 13763.00
1194.009, 13702.00
1195.091, 13769.00
1196.173, 13723.00
1197.255, 13764.00
1198.337, 13737.00
1199.419, 13741.00
1200.500, 13735.00
1201.582, 13729.63
1202.663, 13750.45
1203.744, 13754.00
1204.825, 13801.00
1205.905, 13869.00
1206.986, 13916.00
1208.066, 13911.00
1209.146, 13945.00
1210.226, 13844.00
1211.306, 13826.00
1212.386, 13935.00
1213.466, 13811.00
1214.545, 14082.00
1215.624, 13980.00
1216.703, 13862.00
1217.782, 14010.00
1218.861, 13980.00
1219.939, 13915.00
1221.018, 13956.00
1222.096, 13969.00
1223.174, 13920.00
1224.252, 14094.00
1225.330, 13996.00
1226.407, 13894.00
1227.485, 14109.00
1228.562, 14115.00
1229.639, 14153.00
1230.716, 14132.00
1231.793, 14159.00
1232.869, 14056.00
1233.946, 14114.00
1235.022, 14270.00
1236.098, 14289.00
1237.174, 14200.00
1238.250, 14192.00
1239.325, 14202.00
1240.401, 14221.00
1241.476, 14216.31
1242.551, 14412.00
1243.626, 14213.00
1244.701, 14236.00
1245.776, 14217.00
1246.850, 14025.00
1247.924, 14259.00
1248.999, 14252.00
1250.073, 14400.00
1251.146, 14439.00
1252.220, 14389.00
1253.293, 14706.00
1254.367, 14171.00
1255.440, 14442.00
1256.513, 14512.00
1257.586, 14364.00
1258.658, 14279.00
1259.731, 14443.00
1260.803, 14409.00
1261.875, 14528.00
1262.947, 14445.00
1264.019, 14430.00
1265.091, 14395.00
1266.162, 14587.00
1267.234, 14445.00
1268.305, 14536.00
1269.376, 14559.00
1270.447, 14506.00
1271.517, 14368.00
1272.588, 14473.00
1273.658, 14439.48
1274.729, 14654.00
1275.799, 14497.00
1276.868, 14632.00
1277.938, 14615.00
1279.008, 14615.00
1280.077, 14592.00
1281.146, 14618.00
1282.215, 14627.00
1283.284, 14646.00
1284.353, 14719.00
1285.421, 14631.00
1286.490, 14685.00
1287.558, 14726.00
1288.626, 14679.00
1289.694, 14772.00
1290.762, 14838.00
1291.829, 14730.00
1292.897, 14694.00
1293.964, 14720.00
1295.031, 14760.00
1296.098, 14814.00
1297.165, 14838.00
1298.231, 14776.00
1299.298, 14762.00
1300.364, 14814.73
1301.430, 14835.00
1302.496, 14937.00
1303.562, 14939.00
1304.627, 15016.00
1305.693, 15108.00
1306.758, 14806.00
1307.823, 14997.00
1308.888, 14999.00
1309.953, 14815.00
1311.018, 15131.00
1312.082, 14917.00
1313.146, 14956.00
1314.210, 15008.00
1315.274, 15176.00
1316.338, 15036.00
1317.402, 15190.00
1318.465, 15070.00
1319.529, 15176.00
1320.592, 14902.00
1321.655, 15027.00
1322.718, 15003.00
1323.780, 15029.00
1324.843, 15070.00
1325.905, 15078.25
1326.967, 15075.91
1328.029, 15119.00
1329.091, 15067.00
1330.153, 15047.00
1331.214, 15087.00
1332.275, 15120.00
1333.337, 15151.00
1334.398, 15182.00
1335.458, 15197.98
1336.519, 15212.00
1337.580, 15229.00
1338.640, 15201.00
1339.700, 15222.00
1340.760, 15305.00
1341.820, 15299.00
1342.880, 15150.00
1343.939, 15396.00
1344.999, 15344.00
1346.058, 15033.00
1347.117, 15160.00
1348.176, 15153.00
1349.235, 15205.00
1350.293, 15245.00
1351.351, 15232.00
1352.410, 15326.00
1353.468, 15283.00
1354.526, 15326.14
1355.583, 15224.00
1356.641, 15332.00
1357.698, 15251.00
1358.756, 15165.00
1359.813, 15284.00
1360.869, 15348.00
1361.926, 15364.00
1362.983, 15331.00
1364.039, 15244.00
1365.095, 15306.00
1366.152, 15360.00
1367.207, 15303.00
1368.263, 15123.00
1369.319, 15193.00
1370.374, 15208.00
1371.430, 15330.00
1372.485, 15342.00
1373.540, 15335.00
1374.594, 15361.00
1375.649, 15271.00
1376.703, 15214.00
1377.758, 15273.00
1378.812, 15247.00
1379.866, 15374.00
1380.920, 15353.81
1381.973, 15383.00
1383.027, 15380.00
1384.080, 15397.00
1385.133, 15429.00
1386.186, 15392.02
1387.239, 15481.00
1388.291, 15377.00
1389.344, 15362.00
1390.396, 15459.00
1391.448, 15398.00
1392.500, 15522.00
1393.552, 15485.00
1394.604, 15319.00
1395.655, 15262.00
1396.707, 15324.00
1397.758, 15475.00
1398.809, 15438.00
1399.860, 15603.00
1400.910, 15557.00
1401.961, 15374.00
1403.011, 15593.00
1404.061, 15615.00
1405.111, 15410.00
1406.161, 15490.00
1407.211, 15421.00
1408.260, 15500.00
1409.310, 15553.00
1410.359, 15683.00
1411.408, 15633.00
1412.457, 15670.00
1413.506, 15757.00
1414.554, 15620.00
1415.603, 15735.00
1416.651, 15744.00
1417.699, 15691.00
1418.747, 15756.00
1419.794, 15776.00
1420.842, 15805.00
1421.889, 15832.98
1422.937, 15873.42
1423.984, 15855.00
1425.031, 15956.00
1426.077, 15947.00
1427.124, 15970.00
1428.170, 16055.00
1429.217, 16039.00
1430.263, 16166.00
1431.309, 16230.00
1432.354, 16340.96
1433.400, 16327.00
1434.445, 16638.00
1435.491, 16774.00
1436.536, 16988.00
1437.581, 17322.00
1438.625, 17738.00
1439.670, 17943.00
1440.714, 18208.00
1441.759, 18865.00
1442.803, 18939.00
1443.847, 18977.00
1444.890, 19296.00
1445.934, 19132.00
1446.978, 18818.00
1448.021, 18816.00
1449.064, 18517.00
1450.107, 18070.00
1451.150, 17958.00
1452.192, 17986.00
1453.235, 17977.00
1454.277, 17498.00
1455.319, 17603.00
1456.361, 17399.00
1457.403, 17556.00
1458.445, 17349.00
1459.486, 17366.00
1460.528, 17314.00
1461.569, 17289.00
1462.610, 17262.00
1463.651, 17261.00
1464.691, 17455.00
1465.732, 17237.00
1466.772, 17228.00
1467.812, 17358.00
1468.852, 17240.00
1469.892, 17275.00
1470.932, 17254.00
1471.971, 17246.00
1473.011, 17334.00
1474.050, 17266.00
1475.089, 17433.00
1476.128, 17269.00
1477.166, 17285.00
1478.205, 17298.00
1479.243, 17244.00
1480.282, 17234.00
1481.320, 17448.00
1482.357, 17244.00
1483.395, 17450.00
1484.433, 17193.00
1485.470, 17302.00
1486.507, 17094.00
1487.544, 17266.00
1488.581, 17255.00
1489.618, 17063.00
1490.655, 17238.00
1491.691, 17279.00
1492.727, 17085.00
1493.763, 16867.00
1494.799, 17158.00
1495.835, 17149.00
1496.871, 17161.00
1497.906, 16950.00
1498.941, 16883.00
1499.976, 17123.00
1501.011, 17116.00
1502.046, 17171.00
1503.081, 16930.00
1504.115, 17275.00
1505.149, 17113.00
1506.183, 17023.00
1507.217, 17078.00
1508.251, 17012.00
1509.285, 17031.12
1510.318, 17201.00
1511.352, 17065.00
1512.385, 17240.00
1513.418, 17265.00
1514.450, 17223.00
1515.483, 17026.00
1516.516, 17166.00
1517.548, 17197.00
1518.580, 17099.00
1519.612, 17151.00
1520.644, 17133.43
1521.675, 17297.00
1522.707, 17157.00
1523.738, 17289.00
1524.769, 17340.00
1525.800, 17242.00
1526.831, 17254.00
1527.862, 17443.00
1528.892, 17297.00
1529.923, 17353.00
1530.953, 17347.00
1531.983, 17270.00
1533.013, 17314.00
1534.042, 17280.00
1535.072, 17470.00
1536.101, 17298.00
1537.131, 17377.00
1538.160, 17314.00
1539.188, 17447.00
1540.217, 17473.00
1541.246, 17539.00
1542.274, 17637.00
1543.302, 17678.06
1544.330, 17517.00
1545.358, 17776.00
1546.386, 17632.00
1547.413, 17603.00
1548.441, 17668.00
1549.468, 17720.00
1550.495, 17663.00
1551.522, 17673.00
1552.549, 17763.00
1553.575, 17897.00
1554.602, 17724.00
1555.628, 17838.00
1556.654, 17629.00
1557.680, 17864.00
1558.706, 17522.00
1559.731, 17763.00
1560.757, 17677.00
1561.782, 17806.00
1562.807, 17593.00
1563.832, 17821.00
1564.857, 17678.00
1565.881, 17811.00
1566.906, 17824.00
1567.930, 17808.00
1568.954, 17753.00
1569.978, 17880.00
1571.002, 17719.00
1572.025, 17747.00
1573.049, 17743.00
1574.072, 17613.00
1575.095, 17809.00
1576.118, 17750.00
1577.141, 17784.00
##END=



