##NAMES=Magnetite
##RRUFFID=R060191
##IDEAL CHEMISTRY=Fe^2+^Fe^3+^_2_O_4_
##LOCALITY=Merrry Widow mine, Vancouver Island, British Columbia, Canada
##OWNER=RRUFF
##SOURCE=Lloyd Twaites
##DESCRIPTION=Grayish-black octahedral crystals
##STATUS=The identification of this mineral has been confirmed by X-ray diffraction and chemical analysis
##URL=rruff.info/R060191
##MEASURED CHEMISTRY=(Fe^2+^_0.97_Mg_0.03_)(Fe^3+^_0.97_Al_0.03_)_2_O_4_
##PIN_ID=M01451
##ORIENTATION=Laser parallel to -a* (-1 0 0). Fiducial mark perpendicular to laser is parallel to -c [0 0 -1]
126.5290, 42743.00
127.7630, 42612.00
128.9970, 43033.00
130.2300, 43509.00
131.4640, 43124.00
132.6970, 42284.00
133.9300, 41869.00
135.1630, 42556.00
136.3950, 43375.00
137.6280, 43058.00
138.8600, 43320.00
140.0920, 43462.00
141.3240, 42640.00
142.5560, 42250.00
143.7880, 41598.00
145.0190, 41844.00
146.2510, 41624.00
147.4820, 41865.00
148.7130, 41808.00
149.9440, 42123.00
151.1750, 42128.00
152.4050, 41933.00
153.6360, 41800.00
154.8660, 41784.00
156.0960, 41391.00
157.3260, 41229.00
158.5560, 41251.00
159.7850, 40956.00
161.0150, 41476.00
162.2440, 41861.00
163.4730, 41434.00
164.7020, 41321.00
165.9310, 40990.00
167.1590, 41092.00
168.3880, 41128.00
169.6160, 41382.00
170.8440, 41397.00
172.0720, 41185.00
173.3000, 40802.00
174.5280, 40913.00
175.7550, 40853.00
176.9820, 40955.00
178.2100, 40923.00
179.4370, 40635.00
180.6630, 40965.00
181.8900, 40558.00
183.1170, 40598.00
184.3430, 41002.00
185.5690, 40855.00
186.7950, 41289.00
188.0210, 41233.89
189.2470, 41356.00
190.4720, 41240.00
191.6970, 41535.00
192.9230, 41629.00
194.1480, 41527.00
195.3730, 41737.00
196.5970, 41631.00
197.8220, 41829.00
199.0460, 41791.00
200.2700, 41513.00
201.4940, 41646.00
202.7180, 41466.00
203.9420, 41029.00
205.1660, 40778.00
206.3890, 40163.00
207.6120, 40125.00
208.8350, 40077.00
210.0580, 40099.00
211.2810, 40077.12
212.5040, 40102.94
213.7260, 40088.00
214.9480, 40121.00
216.1700, 40135.00
217.3920, 40038.00
218.6140, 40045.00
219.8360, 40155.00
221.0570, 40158.68
222.2790, 40413.00
223.5000, 40175.00
224.7210, 40235.00
225.9410, 39951.00
227.1620, 40060.00
228.3820, 39969.00
229.6030, 39863.67
230.8230, 39923.89
232.0430, 39735.00
233.2630, 39988.00
234.4820, 39999.00
235.7020, 40137.00
236.9210, 40050.00
238.1400, 40213.00
239.3590, 39998.00
240.5780, 39872.00
241.7970, 39929.00
243.0150, 39953.00
244.2340, 40416.00
245.4520, 39928.00
246.6700, 40461.00
247.8880, 40315.00
249.1060, 40184.00
250.3230, 40506.00
251.5400, 40309.00
252.7580, 40234.00
253.9750, 40210.00
255.1920, 40441.00
256.4080, 40883.00
257.6250, 42540.00
258.8410, 43620.00
260.0580, 42482.00
261.2740, 41190.00
262.4900, 41350.00
263.7050, 40999.00
264.9210, 40902.00
266.1360, 40838.00
267.3520, 41241.00
268.5670, 41083.00
269.7820, 41022.00
270.9960, 41206.00
272.2110, 40811.00
273.4250, 41369.00
274.6400, 41411.00
275.8540, 41377.00
277.0680, 41664.00
278.2810, 41349.00
279.4950, 41415.00
280.7090, 41657.00
281.9220, 41934.00
283.1350, 41826.39
284.3480, 41949.00
285.5610, 41864.00
286.7730, 41820.00
287.9860, 42266.00
289.1980, 42261.00
290.4100, 42388.00
291.6220, 42206.00
292.8340, 42284.00
294.0460, 42361.00
295.2570, 42519.00
296.4690, 42779.00
297.6800, 42839.00
298.8910, 42937.00
300.1020, 42991.34
301.3120, 43030.00
302.5230, 43028.00
303.7330, 42965.00
304.9440, 43052.00
306.1540, 42935.00
307.3630, 42991.00
308.5730, 43125.00
309.7830, 43009.00
310.9920, 43062.00
312.2010, 43042.00
313.4100, 42978.62
314.6190, 43000.00
315.8280, 42891.00
317.0370, 42873.00
318.2450, 42853.00
319.4530, 43081.00
320.6610, 42754.00
321.8690, 42896.00
323.0770, 42524.00
324.2850, 42537.00
325.4920, 42458.00
326.6990, 42463.00
327.9060, 42350.00
329.1130, 42492.00
330.3200, 42477.00
331.5270, 42327.00
332.7330, 42453.00
333.9390, 42132.00
335.1450, 42054.00
336.3510, 41733.00
337.5570, 42020.00
338.7630, 42117.00
339.9680, 41910.00
341.1740, 42128.00
342.3790, 41850.00
343.5840, 41972.00
344.7890, 42212.00
345.9930, 41695.00
347.1980, 42133.00
348.4020, 41660.00
349.6060, 41785.00
350.8100, 41955.00
352.0140, 41750.00
353.2180, 41600.00
354.4210, 41742.00
355.6250, 41927.00
356.8280, 41748.00
358.0310, 41745.00
359.2340, 41659.00
360.4360, 41690.00
361.6390, 41675.00
362.8410, 41866.00
364.0430, 41972.00
365.2450, 41853.00
366.4470, 41567.00
367.6490, 41705.00
368.8510, 41526.00
370.0520, 41786.00
371.2530, 42041.00
372.4540, 41943.00
373.6550, 41795.00
374.8560, 41806.00
376.0560, 41767.00
377.2570, 42013.00
378.4570, 41953.00
379.6570, 41489.00
380.8570, 42044.00
382.0570, 42009.00
383.2560, 41758.00
384.4560, 42003.00
385.6550, 42013.00
386.8540, 42001.79
388.0530, 42126.77
389.2520, 42114.00
390.4510, 42118.00
391.6490, 42263.00
392.8470, 42311.08
394.0450, 42281.00
395.2430, 42483.00
396.4410, 42514.00
397.6390, 42484.00
398.8360, 42384.00
400.0340, 42419.00
401.2310, 42342.00
402.4280, 42525.00
403.6250, 42451.00
404.8210, 42608.46
406.0180, 42809.00
407.2140, 42942.00
408.4100, 42821.00
409.6060, 43055.00
410.8020, 42829.00
411.9980, 43038.00
413.1930, 42685.00
414.3890, 43146.00
415.5840, 43315.00
416.7790, 43424.00
417.9740, 43204.00
419.1680, 42948.00
420.3630, 43104.00
421.5570, 43185.00
422.7510, 43226.00
423.9450, 43068.00
425.1390, 43278.00
426.3330, 43195.00
427.5270, 43329.00
428.7200, 43371.00
429.9130, 43448.00
431.1060, 43418.00
432.2990, 43384.00
433.4920, 43282.00
434.6840, 43556.00
435.8770, 43720.00
437.0690, 43532.00
438.2610, 43655.00
439.4530, 43404.00
440.6450, 43238.00
441.8360, 43330.00
443.0280, 43731.00
444.2190, 43742.00
445.4100, 43385.00
446.6010, 43887.00
447.7920, 43521.00
448.9820, 43896.00
450.1730, 43771.00
451.3630, 43943.00
452.5530, 43737.00
453.7430, 43862.00
454.9330, 43703.00
456.1230, 43736.07
457.3120, 43745.32
458.5010, 43835.00
459.6910, 43814.00
460.8800, 43957.00
462.0680, 44120.00
463.2570, 43995.00
464.4460, 43909.00
465.6340, 44127.00
466.8220, 44059.00
468.0100, 44275.00
469.1980, 43925.00
470.3860, 44065.00
471.5730, 44504.00
472.7600, 44055.00
473.9480, 44465.00
475.1350, 44266.00
476.3210, 44470.00
477.5080, 44363.00
478.6950, 44297.00
479.8810, 44408.00
481.0670, 44495.00
482.2530, 44576.00
483.4390, 44811.00
484.6250, 44930.00
485.8100, 45018.00
486.9960, 45034.00
488.1810, 45087.00
489.3660, 44842.71
490.5510, 45132.31
491.7360, 45318.65
492.9200, 45407.23
494.1050, 45105.49
495.2890, 45307.79
496.4730, 45308.07
497.6570, 45300.06
498.8400, 45573.25
500.0240, 45328.24
501.2070, 45575.00
502.3910, 46013.00
503.5740, 45868.00
504.7570, 46129.00
505.9400, 46400.00
507.1220, 46054.00
508.3050, 45981.00
509.4870, 46087.00
510.6690, 46656.00
511.8510, 46523.00
513.0330, 46781.00
514.2140, 46980.00
515.3960, 46918.00
516.5770, 47031.00
517.7580, 47017.00
518.9390, 47075.00
520.1200, 47239.12
521.3010, 47359.00
522.4810, 47549.00
523.6610, 47742.00
524.8420, 47830.00
526.0220, 48049.00
527.2010, 48175.20
528.3810, 48219.00
529.5610, 48376.00
530.7400, 48468.00
531.9190, 48375.00
533.0980, 48369.00
534.2770, 48390.68
535.4560, 48502.44
536.6340, 48450.00
537.8120, 48791.00
538.9910, 48947.00
540.1690, 48997.78
541.3460, 49382.00
542.5240, 49361.00
543.7020, 49198.00
544.8790, 49138.00
546.0560, 49215.00
547.2330, 49304.00
548.4100, 49338.00
549.5870, 49612.00
550.7630, 49639.00
551.9400, 49515.00
553.1160, 49763.00
554.2920, 50035.00
555.4680, 49980.00
556.6440, 49868.00
557.8190, 49807.00
558.9950, 49918.00
560.1700, 49903.00
561.3450, 49686.00
562.5200, 49772.00
563.6950, 49509.00
564.8690, 49713.00
566.0440, 49433.00
567.2180, 49523.00
568.3920, 49772.00
569.5660, 49559.00
570.7400, 49881.00
571.9130, 49812.00
573.0870, 49461.00
574.2600, 49304.00
575.4330, 48896.00
576.6060, 48313.00
577.7790, 48197.00
578.9520, 47919.00
580.1240, 47662.00
581.2960, 47622.00
582.4690, 47229.00
583.6410, 47087.04
584.8120, 46507.00
585.9840, 46684.00
587.1560, 46338.00
588.3270, 46175.00
589.4980, 46189.00
590.6690, 46087.00
591.8400, 46170.00
593.0110, 45915.00
594.1810, 46300.00
595.3510, 46154.95
596.5220, 46135.00
597.6920, 46285.00
598.8610, 46204.00
600.0310, 46571.00
601.2010, 46408.62
602.3700, 46095.78
603.5390, 46433.18
604.7080, 46667.32
605.8770, 46803.75
607.0460, 46549.82
608.2140, 46799.87
609.3830, 46848.00
610.5510, 46887.76
611.7190, 46996.00
612.8870, 47555.00
614.0550, 47466.00
615.2220, 47654.00
616.3900, 47908.00
617.5570, 47841.00
618.7240, 48087.00
619.8910, 48209.88
621.0580, 48275.80
622.2240, 48493.00
623.3910, 48545.00
624.5570, 48617.00
625.7230, 48889.00
626.8890, 49818.00
628.0550, 49753.00
629.2200, 50368.00
630.3860, 50318.00
631.5510, 50606.00
632.7160, 50668.00
633.8810, 51203.00
635.0460, 51281.00
636.2100, 52100.00
637.3750, 52217.00
638.5390, 53116.00
639.7030, 53342.00
640.8670, 53630.00
642.0310, 54063.00
643.1950, 54833.00
644.3580, 55381.00
645.5210, 56515.00
646.6850, 56674.00
647.8480, 57803.00
649.0100, 58308.00
650.1730, 58808.00
651.3350, 59910.00
652.4980, 60678.00
653.6600, 61386.00
654.8220, 62255.00
655.9840, 63480.00
657.1450, 64767.65
658.3070, 65769.12
659.4680, 66666.67
660.6300, 67467.16
661.7910, 67876.62
662.9510, 68789.49
664.1120, 69501.02
665.2730, 70204.26
666.4330, 71222.00
667.5930, 71650.00
668.7530, 71904.00
669.9130, 72152.38
671.0730, 72225.37
672.2320, 72196.00
673.3920, 71987.00
674.5510, 71694.20
675.7100, 71338.00
676.8690, 70669.00
678.0280, 69940.00
679.1860, 69034.00
680.3450, 68523.00
681.5030, 67503.00
682.6610, 66618.00
683.8190, 65574.00
684.9770, 64816.00
686.1340, 63811.43
687.2920, 62930.00
688.4490, 61834.00
689.6060, 61001.00
690.7630, 59842.00
691.9200, 59195.00
693.0760, 58431.00
694.2330, 57402.00
695.3890, 56513.00
696.5450, 55794.07
697.7010, 55026.00
698.8570, 54519.00
700.0130, 53752.00
701.1680, 53447.00
702.3230, 52354.00
703.4780, 52194.00
704.6330, 51545.00
705.7880, 51066.00
706.9430, 50489.00
708.0970, 50104.00
709.2520, 49622.07
710.4060, 49246.00
711.5600, 48786.00
712.7140, 48305.02
713.8670, 47940.40
715.0210, 47546.00
716.1740, 47133.00
717.3270, 47098.00
718.4800, 46923.00
719.6330, 46197.05
720.7860, 46265.53
721.9380, 46230.89
723.0910, 46098.39
724.2430, 45575.68
725.3950, 45557.03
726.5470, 45336.38
727.6980, 45107.59
728.8500, 45159.90
730.0010, 44694.11
731.1530, 44741.95
732.3040, 44584.84
733.4550, 44410.00
734.6050, 44486.00
735.7560, 44345.00
736.9060, 44184.00
738.0560, 44126.00
739.2060, 43646.00
740.3560, 44039.00
741.5060, 43893.00
742.6560, 43430.00
743.8050, 43804.00
744.9540, 43706.00
746.1030, 43430.00
747.2520, 43185.00
748.4010, 43078.00
749.5500, 42993.00
750.6980, 43046.00
751.8460, 42988.00
752.9950, 42708.00
754.1420, 42949.00
755.2900, 42617.00
756.4380, 42562.00
757.5850, 42630.00
758.7330, 42781.00
759.8800, 42783.00
761.0270, 42967.00
762.1730, 42988.35
763.3200, 42476.00
764.4670, 42911.00
765.6130, 42728.00
766.7590, 42327.00
767.9050, 42520.00
769.0510, 42330.00
770.1960, 42540.00
771.3420, 42425.69
772.4870, 42532.00
773.6320, 42373.00
774.7770, 42311.00
775.9220, 42535.00
777.0670, 42473.00
778.2110, 42232.00
779.3560, 42124.00
780.5000, 42303.00
781.6440, 42164.00
782.7880, 42286.00
783.9320, 41941.00
785.0750, 42102.00
786.2180, 41937.00
787.3620, 42210.00
788.5050, 42072.25
789.6480, 41589.85
790.7900, 41827.62
791.9330, 41962.14
793.0750, 41998.93
794.2170, 41645.37
795.3590, 41795.88
796.5010, 41744.38
797.6430, 41684.59
798.7850, 41906.05
799.9260, 41609.26
801.0670, 41826.26
802.2080, 41838.16
803.3490, 41943.93
804.4900, 41846.44
805.6310, 41811.73
806.7710, 41980.34
807.9110, 42036.37
809.0510, 41915.48
810.1910, 42027.21
811.3310, 41723.32
812.4710, 41784.15
813.6100, 42002.33
814.7490, 41891.66
815.8880, 42007.11
817.0270, 41913.00
818.1660, 41815.00
819.3050, 41910.00
820.4430, 41798.00
821.5820, 41499.00
822.7200, 42137.00
823.8580, 41724.00
824.9950, 41997.00
826.1330, 41643.00
827.2710, 41474.00
828.4080, 41974.00
829.5450, 41765.00
830.6820, 41904.00
831.8190, 41815.00
832.9560, 41822.00
834.0920, 41699.00
835.2280, 41751.00
836.3650, 41412.00
837.5010, 41717.00
838.6360, 41856.00
839.7720, 41456.00
840.9080, 41815.00
842.0430, 42134.00
843.1780, 41674.00
844.3130, 41663.00
845.4480, 41651.00
846.5830, 41826.00
847.7170, 41912.00
848.8520, 41794.00
849.9860, 41756.92
851.1200, 41842.00
852.2540, 41594.00
853.3870, 41561.00
854.5210, 41817.00
855.6540, 41825.00
856.7880, 41813.00
857.9210, 41795.00
859.0540, 41817.00
860.1860, 41663.00
861.3190, 42054.00
862.4510, 42002.00
863.5840, 41904.00
864.7160, 41869.00
865.8480, 41808.00
866.9790, 42016.00
868.1110, 41871.00
869.2420, 42073.00
870.3740, 41925.27
871.5050, 42022.00
872.6360, 41726.00
873.7660, 41876.00
874.8970, 41962.00
876.0280, 41891.00
877.1580, 41562.00
878.2880, 42067.00
879.4180, 41679.00
880.5480, 41672.00
881.6770, 41835.82
882.8070, 42060.36
883.9360, 42181.64
885.0650, 42205.22
886.1940, 41838.43
887.3230, 41975.71
888.4520, 41910.99
889.5800, 41837.99
890.7090, 42209.00
891.8370, 42130.00
892.9650, 41994.00
894.0930, 42107.00
895.2200, 42004.00
896.3480, 42075.00
897.4750, 41902.00
898.6020, 42173.00
899.7290, 42082.00
900.8560, 42175.34
901.9830, 42180.14
903.1090, 42278.00
904.2360, 42227.00
905.3620, 42123.00
906.4880, 42393.00
907.6140, 42677.00
908.7400, 42634.00
909.8650, 42206.00
910.9900, 42137.00
912.1160, 42288.00
913.2410, 42310.00
914.3660, 42463.00
915.4900, 42475.87
916.6150, 42527.00
917.7390, 42452.00
918.8640, 42431.00
919.9880, 42291.00
921.1120, 42232.00
922.2350, 42299.00
923.3590, 42372.00
924.4820, 42294.00
925.6060, 42461.00
926.7290, 42275.00
927.8520, 42027.00
928.9740, 42111.00
930.0970, 42344.00
931.2190, 42405.00
932.3420, 42295.00
933.4640, 42425.00
934.5860, 42259.00
935.7080, 42328.98
936.8290, 42697.00
937.9510, 42388.00
939.0720, 42550.00
940.1930, 42576.00
941.3140, 42558.00
942.4350, 42620.00
943.5560, 42618.90
944.6760, 42596.00
945.7960, 42597.00
946.9170, 42546.00
948.0370, 42414.00
949.1560, 42479.00
950.2760, 42407.96
951.3960, 42754.00
952.5150, 42462.00
953.6340, 42667.00
954.7530, 42903.00
955.8720, 42540.00
956.9910, 42557.00
958.1090, 42633.96
959.2280, 42865.16
960.3460, 42993.10
961.4640, 43023.33
962.5820, 42663.19
963.6990, 42807.13
964.8170, 42749.06
965.9340, 42682.71
967.0510, 42897.60
968.1690, 42594.24
969.2850, 42804.68
970.4020, 42810.02
971.5190, 42658.00
972.6350, 42717.00
973.7510, 42597.00
974.8670, 42667.00
975.9830, 42818.00
977.0990, 43011.00
978.2150, 42532.61
979.3300, 42814.45
980.4450, 42993.04
981.5600, 43073.91
982.6750, 42764.42
983.7900, 42959.01
984.9050, 42951.58
986.0190, 42935.83
987.1340, 43201.36
988.2480, 42984.00
989.3620, 42941.00
990.4750, 43129.00
991.5890, 43064.00
992.7020, 43253.00
993.8160, 42811.00
994.9290, 43096.00
996.0420, 43102.00
997.1550, 43317.00
998.2670, 43191.00
999.3800, 43018.00
1000.492, 43182.00
1001.604, 42863.48
1002.716, 43109.71
1003.828, 43252.67
1004.940, 43297.93
1006.051, 42952.81
1007.163, 43111.77
1008.274, 43068.72
1009.385, 43017.38
1010.496, 43247.29
1011.606, 43420.00
1012.717, 43306.00
1013.827, 43237.00
1014.937, 43365.00
1016.047, 43324.00
1017.157, 43453.00
1018.267, 43034.00
1019.377, 43253.00
1020.486, 42970.00
1021.595, 43418.00
1022.704, 43418.00
1023.813, 43220.00
1024.922, 43248.00
1026.030, 43176.00
1027.139, 43416.00
1028.247, 43520.00
1029.355, 43338.00
1030.463, 43343.00
1031.571, 43262.00
1032.678, 43647.00
1033.786, 43637.00
1034.893, 43575.00
1036.000, 43543.00
1037.107, 43483.00
1038.214, 43465.00
1039.321, 43435.00
1040.427, 43530.00
1041.533, 43542.59
1042.639, 43503.00
1043.745, 43649.00
1044.851, 43757.00
1045.957, 43784.00
1047.062, 43438.00
1048.168, 43738.00
1049.273, 43588.00
1050.378, 43794.00
1051.482, 43899.00
1052.587, 43759.00
1053.692, 43975.00
1054.796, 43744.00
1055.900, 43662.00
1057.004, 44077.00
1058.108, 43931.62
1059.212, 43631.00
1060.315, 44006.00
1061.418, 44086.00
1062.522, 43939.00
1063.625, 43853.00
1064.728, 44097.00
1065.830, 43892.00
1066.933, 44086.00
1068.035, 43927.00
1069.137, 43869.00
1070.239, 44030.00
1071.341, 44043.00
1072.443, 43838.00
1073.545, 43906.00
1074.646, 43682.00
1075.747, 44117.00
1076.848, 44014.00
1077.949, 44068.00
1079.050, 44219.00
1080.150, 43950.00
1081.251, 43816.00
1082.351, 44426.00
1083.451, 44007.00
1084.551, 44186.00
1085.651, 44292.00
1086.750, 43906.00
1087.850, 44125.00
1088.949, 44109.00
1090.048, 44216.00
1091.147, 44367.00
1092.246, 43938.00
1093.345, 44171.00
1094.443, 44057.00
1095.541, 43927.00
1096.639, 43868.00
1097.737, 44019.00
1098.835, 44225.00
1099.933, 43770.00
1101.030, 44097.00
1102.128, 44337.00
1103.225, 43982.00
1104.322, 44149.00
1105.419, 44028.25
1106.515, 43931.00
1107.612, 43906.00
1108.708, 43854.00
1109.804, 43947.00
1110.900, 43986.00
1111.996, 43947.00
1113.092, 43848.00
1114.187, 43981.00
1115.283, 43848.00
1116.378, 44016.00
1117.473, 43910.00
1118.568, 43900.35
1119.662, 43818.00
1120.757, 43960.00
1121.851, 43599.00
1122.946, 43871.00
1124.040, 43496.00
1125.134, 43871.00
1126.227, 43631.00
1127.321, 44036.00
1128.414, 43748.00
1129.508, 43558.00
1130.601, 43493.00
1131.693, 43570.00
1132.786, 43670.00
1133.879, 43567.00
1134.971, 43559.00
1136.064, 43698.00
1137.156, 43457.00
1138.248, 43545.00
1139.339, 43545.00
1140.431, 43715.00
1141.522, 43621.00
1142.614, 43645.66
1143.705, 43365.00
1144.796, 43577.00
1145.887, 43537.00
1146.977, 43504.00
1148.068, 43546.00
1149.158, 43204.00
1150.248, 43465.00
1151.338, 43435.00
1152.428, 43007.00
1153.518, 43463.00
1154.607, 43202.00
1155.696, 43223.00
1156.785, 43478.00
1157.874, 43327.00
1158.963, 43305.00
1160.052, 43220.00
1161.141, 43220.00
1162.229, 43168.00
1163.317, 43237.00
1164.405, 43142.39
1165.493, 43144.64
1166.581, 42945.00
1167.668, 43177.00
1168.756, 42992.00
1169.843, 43177.00
1170.930, 43093.00
1172.017, 43424.00
1173.103, 43143.00
1174.190, 43525.00
1175.276, 43183.00
1176.363, 43191.00
1177.449, 43163.00
1178.535, 43288.00
1179.620, 43439.00
1180.706, 42939.08
1181.791, 43186.89
1182.877, 43331.46
1183.962, 43378.30
1185.047, 43034.77
1186.131, 43195.32
1187.216, 43153.86
1188.300, 43104.11
1189.385, 43335.62
1190.469, 43317.00
1191.553, 43334.00
1192.637, 43049.00
1193.720, 43334.00
1194.804, 43317.00
1195.887, 43334.00
1196.970, 43434.00
1198.053, 43086.00
1199.136, 43248.00
1200.219, 43185.00
1201.301, 43365.00
1202.383, 43441.00
1203.465, 43430.00
1204.547, 43242.00
1205.629, 43192.00
1206.711, 43167.00
1207.792, 43236.00
1208.874, 43286.00
1209.955, 43177.00
1211.036, 43251.58
1212.117, 43288.00
1213.198, 43273.00
1214.278, 43287.00
1215.359, 43290.00
1216.439, 43362.00
1217.519, 43265.00
1218.599, 43325.77
1219.678, 43367.00
1220.758, 43345.00
1221.837, 43368.52
1222.917, 43178.00
1223.996, 43319.00
1225.075, 43251.00
1226.153, 43152.00
1227.232, 43229.00
1228.310, 43260.54
1229.389, 43455.00
1230.467, 43477.00
1231.545, 43424.00
1232.622, 43542.00
1233.700, 43329.00
1234.777, 43349.00
1235.855, 43469.00
1236.932, 43602.00
1238.009, 43609.00
1239.086, 43586.46
1240.162, 43518.00
1241.239, 43420.00
1242.315, 43286.00
1243.391, 43204.00
1244.467, 43480.00
1245.543, 43388.00
1246.619, 43647.00
1247.694, 43860.00
1248.769, 43351.00
1249.844, 43252.00
1250.919, 43076.00
1251.994, 43545.00
1253.069, 43486.00
1254.144, 43527.35
1255.218, 43688.00
1256.292, 43547.00
1257.366, 43607.00
1258.440, 43634.00
1259.514, 43293.00
1260.587, 43456.00
1261.661, 43456.00
1262.734, 42934.00
1263.807, 43314.00
1264.880, 43808.00
1265.952, 43407.00
1267.025, 43407.00
1268.097, 43663.00
1269.170, 43677.00
1270.242, 43633.00
1271.314, 43533.00
1272.385, 43596.00
1273.457, 43646.00
1274.528, 43752.00
1275.600, 43742.00
1276.671, 43555.00
1277.742, 43801.00
1278.812, 43595.00
1279.883, 43711.00
1280.954, 43951.00
1282.024, 43833.00
1283.094, 43399.00
1284.164, 43638.00
1285.234, 43744.00
1286.303, 43344.00
1287.373, 43735.00
1288.442, 43834.00
1289.511, 43878.00
1290.580, 43975.00
1291.649, 43992.00
1292.718, 43563.00
1293.786, 43808.00
1294.855, 43810.00
1295.923, 44236.00
1296.991, 43496.00
1298.059, 44061.00
1299.126, 44012.00
1300.194, 43926.00
1301.261, 44091.00
1302.328, 44050.73
1303.395, 44036.00
1304.462, 44055.00
1305.529, 44000.42
1306.596, 43981.00
1307.662, 43935.00
1308.728, 43785.00
1309.794, 43768.16
1310.860, 44035.00
1311.926, 43865.00
1312.991, 43881.00
1314.057, 44167.00
1315.122, 43823.00
1316.187, 44309.00
1317.252, 44054.00
1318.317, 44158.00
1319.381, 43955.00
1320.446, 44144.00
1321.510, 43987.00
1322.574, 43913.00
1323.638, 44300.00
1324.702, 44336.00
1325.766, 44044.00
1326.829, 43823.00
1327.892, 44135.00
1328.956, 44322.00
1330.019, 43699.58
1331.081, 43953.50
1332.144, 44104.16
1333.206, 44157.11
1334.269, 43819.70
1335.331, 43986.35
1336.393, 43950.99
1337.455, 43907.34
1338.516, 44144.93
1339.578, 43864.28
1340.639, 44097.40
1341.701, 44125.45
1342.762, 44270.00
1343.822, 44134.52
1344.883, 44137.00
1345.944, 44042.00
1347.004, 43974.00
1348.064, 44392.00
1349.124, 44037.00
1350.184, 44193.75
1351.244, 44162.00
1352.304, 43973.00
1353.363, 44489.00
1354.422, 43951.00
1355.481, 43744.80
1356.540, 43995.59
1357.599, 44143.11
1358.657, 44192.91
1359.716, 43852.35
1360.774, 44015.86
1361.832, 43977.35
1362.890, 43930.55
1363.948, 44165.00
1365.006, 43949.00
1366.063, 44162.00
1367.120, 44026.00
1368.178, 43952.00
1369.234, 43912.00
1370.291, 44019.00
1371.348, 44113.00
1372.404, 43756.00
1373.461, 44004.00
1374.517, 43977.00
1375.573, 44301.00
1376.629, 43913.00
1377.684, 44013.00
1378.740, 44105.00
1379.795, 44247.00
1380.850, 44105.00
1381.905, 43980.00
1382.960, 44156.00
1384.015, 43955.00
1385.070, 44043.00
1386.124, 44297.00
1387.178, 43793.78
1388.232, 44024.53
1389.286, 44152.01
1390.340, 44181.79
1391.393, 43821.20
1392.447, 43964.68
1393.500, 43906.16
1394.553, 43839.35
1395.606, 44053.79
1396.659, 43749.97
1397.711, 43959.96
1398.764, 43964.84
1399.816, 44063.59
1400.868, 43959.08
1401.920, 43917.36
1402.972, 44078.96
1404.023, 44127.98
1405.075, 44000.07
1406.126, 44104.80
1407.177, 43793.89
1408.228, 43847.71
1409.279, 44058.89
1410.330, 44209.00
1411.380, 43818.00
1412.431, 44217.00
1413.481, 44240.00
1414.531, 44148.00
1415.580, 44155.00
1416.630, 44153.00
1417.680, 44015.00
1418.729, 43987.00
1419.778, 43958.00
1420.827, 44104.00
1421.876, 44174.00
1422.925, 44168.00
1423.973, 44403.00
1425.022, 44062.00
1426.070, 44202.00
1427.118, 43912.00
1428.166, 44141.00
1429.214, 44137.00
1430.261, 44207.00
1431.309, 44095.00
1432.356, 44322.00
1433.403, 44062.00
1434.450, 43973.00
1435.497, 44237.00
1436.543, 44122.00
1437.590, 44304.00
1438.636, 43965.00
1439.682, 43773.00
1440.728, 44130.00
1441.774, 44024.00
1442.819, 44116.00
1443.865, 44289.00
1444.910, 44123.00
1445.955, 44279.00
1447.000, 44212.00
1448.045, 44261.00
1449.090, 43864.00
1450.134, 44347.00
1451.178, 44059.00
1452.223, 44072.70
1453.267, 44291.62
1454.310, 44407.29
1455.354, 44425.23
1456.398, 44052.80
1457.441, 44184.46
1458.484, 44114.12
1459.527, 44035.50
1460.570, 44238.11
1461.613, 43922.48
1462.655, 44120.65
1463.698, 44113.71
1464.740, 44200.66
1465.782, 44226.00
1466.824, 44031.00
1467.866, 44286.00
1468.907, 43951.00
1469.948, 44125.00
1470.990, 44244.00
1472.031, 44148.00
1473.072, 44174.00
1474.112, 44115.00
1475.153, 43958.00
1476.194, 43988.00
1477.234, 44073.00
1478.274, 44391.00
1479.314, 44250.00
1480.354, 44334.00
1481.393, 44238.00
1482.433, 44293.00
1483.472, 44204.00
1484.511, 44293.00
1485.550, 44082.00
1486.589, 44224.00
1487.628, 44130.00
1488.666, 44093.00
1489.704, 44376.00
1490.743, 43886.00
1491.781, 44426.00
1492.819, 43885.00
1493.856, 44455.00
1494.894, 44462.00
1495.931, 44041.00
1496.968, 44097.00
1498.005, 44083.00
1499.042, 44050.00
1500.079, 44370.00
1501.115, 44174.00
1502.152, 44370.00
1503.188, 43897.00
1504.224, 44071.00
1505.260, 44210.00
1506.296, 44266.00
1507.331, 44388.00
1508.367, 44093.00
1509.402, 44003.00
1510.437, 44299.00
1511.472, 44083.00
1512.507, 44214.00
1513.541, 44243.00
1514.576, 44066.00
1515.610, 44184.00
1516.644, 44043.00
1517.678, 43871.00
1518.712, 44102.00
1519.746, 44022.00
1520.779, 44347.00
1521.813, 44198.00
1522.846, 44246.00
1523.879, 44072.00
1524.912, 44153.00
1525.944, 43920.00
1526.977, 44270.00
1528.009, 43911.00
1529.041, 44097.00
1530.073, 44076.00
1531.105, 44232.00
1532.137, 44018.00
1533.168, 44194.00
1534.200, 43936.00
1535.231, 44074.00
1536.262, 44256.00
1537.293, 44194.46
1538.324, 44168.00
1539.354, 44362.00
1540.385, 43925.00
1541.415, 44062.00
1542.445, 43882.00
1543.475, 44249.00
1544.505, 44268.00
1545.534, 44181.00
1546.564, 44248.00
##END=



