##NAMES=Magnesiochromite
##RRUFFID=R060796
##IDEAL CHEMISTRY=MgCr^3+^_2_O_4_
##LOCALITY=State Line Chrome mine (Low's mine), Cecil County, Maryland, USA
##OWNER=RRUFF
##SOURCE=California Institute of Technology
##DESCRIPTION=Black massive
##STATUS=The identification of this mineral has been confirmed by X-ray diffraction and chemical analysis
##URL=rruff.info/R060796
##MEASURED CHEMISTRY=(Mg_0.57_Fe^2+^_0.43_)_Σ=1_(Cr_1.52_Al_0.41_Fe^3+^_0.07_)_Σ=2_O_4_
##PIN_ID=L00965
##ORIENTATION=Laser parallel to b* (0 1 0). Fiducial mark perpendicular to laser is parallel to c [0 0 1]
133.9580, 8283.528
135.1910, 8456.624
136.4230, 8559.695
137.6560, 8596.524
138.8880, 8368.658
140.1200, 8482.578
141.3520, 8459.525
142.5830, 8544.000
143.8150, 8681.000
145.0460, 8662.000
146.2770, 8607.000
147.5080, 8623.000
148.7390, 8594.042
149.9700, 8602.000
151.2000, 8578.000
152.4310, 8645.000
153.6610, 8658.000
154.8910, 8467.000
156.1210, 8290.000
157.3500, 8454.000
158.5800, 8243.115
159.8090, 8417.599
161.0380, 8522.066
162.2670, 8560.283
163.4960, 8554.565
164.7240, 8449.119
165.9530, 8427.464
167.1810, 8400.181
168.4090, 8357.000
169.6370, 8248.000
170.8650, 8111.000
172.0920, 8065.000
173.3200, 8223.000
174.5470, 8151.000
175.7740, 8380.000
177.0010, 8304.774
178.2280, 8236.000
179.4540, 8233.000
180.6810, 8149.000
181.9070, 8131.000
183.1330, 8186.000
184.3590, 8075.000
185.5850, 8128.000
186.8100, 7999.000
188.0350, 8060.298
189.2610, 8316.000
190.4860, 8151.000
191.7110, 8155.000
192.9350, 8178.000
194.1600, 8117.000
195.3840, 7994.000
196.6080, 8178.000
197.8320, 8027.000
199.0560, 8048.000
200.2800, 8207.000
201.5030, 7972.000
202.7270, 7934.000
203.9500, 7861.000
205.1730, 7760.000
206.3950, 7758.235
207.6180, 7704.992
208.8410, 7732.000
210.0630, 7682.000
211.2850, 7673.000
212.5070, 7698.000
213.7290, 7733.000
214.9500, 7692.000
216.1720, 7719.172
217.3930, 7763.000
218.6140, 7744.000
219.8350, 7775.003
221.0560, 7733.000
222.2770, 7779.000
223.4970, 7761.000
224.7170, 7719.000
225.9370, 7717.000
227.1570, 7658.000
228.3770, 7696.000
229.5970, 7624.000
230.8160, 7655.000
232.0350, 7631.475
233.2540, 7569.000
234.4730, 7588.000
235.6920, 7567.000
236.9110, 7520.000
238.1290, 7598.000
239.3470, 7514.000
240.5650, 7539.000
241.7830, 7483.000
243.0010, 7534.000
244.2180, 7419.000
245.4360, 7511.000
246.6530, 7422.000
247.8700, 7358.000
249.0870, 7356.000
250.3040, 7342.000
251.5200, 7358.000
252.7370, 7433.000
253.9530, 7369.000
255.1690, 7313.000
256.3850, 7306.000
257.6000, 7437.000
258.8160, 7330.000
260.0310, 7388.000
261.2460, 7319.000
262.4610, 7322.000
263.6760, 7372.000
264.8910, 7304.000
266.1050, 7446.000
267.3200, 7258.000
268.5340, 7367.000
269.7480, 7366.788
270.9620, 7285.525
272.1750, 7395.000
273.3890, 7193.000
274.6020, 7148.000
275.8150, 7104.000
277.0280, 7202.000
278.2410, 7169.000
279.4540, 7214.000
280.6660, 7208.322
281.8790, 6991.000
283.0910, 7160.000
284.3030, 7057.000
285.5140, 6995.000
286.7260, 7113.000
287.9380, 7071.000
289.1490, 7145.000
290.3600, 7047.000
291.5710, 7153.000
292.7820, 6989.000
293.9920, 6914.000
295.2030, 7026.000
296.4130, 7057.000
297.6230, 6872.000
298.8330, 6947.000
300.0430, 7021.000
301.2520, 7017.000
302.4620, 6995.000
303.6710, 7038.000
304.8800, 6995.000
306.0890, 7008.000
307.2980, 7015.000
308.5070, 6946.000
309.7150, 6946.000
310.9230, 7000.000
312.1310, 7017.000
313.3390, 6888.000
314.5470, 6803.000
315.7550, 6901.000
316.9620, 6987.000
318.1690, 6900.000
319.3760, 6875.000
320.5830, 6949.000
321.7900, 6924.000
322.9960, 6936.000
324.2030, 6927.000
325.4090, 6977.000
326.6150, 7065.000
327.8210, 6918.000
329.0270, 6904.000
330.2320, 7016.000
331.4380, 6907.000
332.6430, 6954.000
333.8480, 7036.000
335.0530, 6932.000
336.2580, 6923.000
337.4620, 6998.000
338.6670, 6992.000
339.8710, 6968.000
341.0750, 6871.000
342.2790, 7016.000
343.4820, 6947.000
344.6860, 6907.000
345.8890, 6961.000
347.0920, 7041.000
348.2960, 7023.000
349.4980, 7063.778
350.7010, 7073.000
351.9040, 7067.000
353.1060, 7036.000
354.3080, 7006.000
355.5100, 7072.000
356.7120, 7007.000
357.9140, 7085.000
359.1150, 7179.000
360.3170, 7093.059
361.5180, 7259.000
362.7190, 7025.000
363.9200, 7142.000
365.1200, 7204.000
366.3210, 7101.000
367.5210, 7184.000
368.7210, 7190.000
369.9210, 7176.942
371.1210, 7225.285
372.3210, 7172.000
373.5200, 7270.000
374.7200, 7229.000
375.9190, 7252.000
377.1180, 7267.000
378.3170, 7315.000
379.5150, 7276.000
380.7140, 7289.000
381.9120, 7368.000
383.1110, 7350.187
384.3090, 7445.000
385.5060, 7393.000
386.7040, 7434.000
387.9020, 7463.000
389.0990, 7449.415
390.2960, 7488.000
391.4930, 7455.000
392.6900, 7535.000
393.8860, 7530.000
395.0830, 7513.000
396.2790, 7563.000
397.4750, 7524.000
398.6710, 7614.000
399.8670, 7502.000
401.0630, 7630.000
402.2580, 7711.000
403.4540, 7605.000
404.6490, 7635.000
405.8440, 7576.000
407.0390, 7508.000
408.2330, 7612.000
409.4280, 7480.000
410.6220, 7644.000
411.8160, 7625.000
413.0100, 7640.000
414.2040, 7626.000
415.3980, 7564.000
416.5910, 7677.000
417.7850, 7725.000
418.9780, 7665.000
420.1710, 7680.000
421.3640, 7740.000
422.5560, 7751.000
423.7490, 7732.000
424.9410, 7691.000
426.1330, 7805.000
427.3250, 7832.000
428.5170, 7881.000
429.7090, 7920.105
430.9000, 7912.000
432.0910, 7970.000
433.2820, 7989.000
434.4730, 8036.000
435.6640, 7958.000
436.8550, 8057.000
438.0450, 8126.000
439.2360, 8179.000
440.4260, 8088.000
441.6160, 8215.000
442.8060, 8213.000
443.9950, 8305.000
445.1850, 8252.000
446.3740, 8328.000
447.5630, 8387.000
448.7520, 8392.000
449.9410, 8376.000
451.1300, 8423.000
452.3180, 8412.000
453.5060, 8412.000
454.6950, 8514.000
455.8830, 8452.000
457.0700, 8469.000
458.2580, 8485.000
459.4450, 8572.000
460.6330, 8576.000
461.8200, 8487.000
463.0070, 8632.000
464.1940, 8667.000
465.3800, 8630.000
466.5670, 8832.000
467.7530, 8776.000
468.9390, 8721.000
470.1250, 8895.000
471.3110, 8899.000
472.4970, 8966.000
473.6820, 8982.000
474.8680, 8945.000
476.0530, 9076.000
477.2380, 9149.000
478.4230, 9019.000
479.6070, 9064.000
480.7920, 8955.000
481.9760, 9118.000
483.1600, 9107.000
484.3440, 9222.000
485.5280, 9164.000
486.7120, 9075.000
487.8950, 9133.000
489.0780, 9189.000
490.2620, 9124.000
491.4450, 9185.626
492.6270, 9312.000
493.8100, 9224.000
494.9920, 9253.000
496.1750, 9283.000
497.3570, 9379.000
498.5390, 9374.000
499.7210, 9417.000
500.9020, 9537.000
502.0840, 9493.000
503.2650, 9667.000
504.4460, 9760.000
505.6270, 9719.000
506.8080, 9952.000
507.9890, 10000.00
509.1690, 10229.00
510.3500, 10254.00
511.5300, 10272.00
512.7100, 10472.00
513.8900, 10487.00
515.0690, 10708.00
516.2490, 10891.00
517.4280, 11202.00
518.6070, 11251.00
519.7860, 11385.00
520.9650, 11568.00
522.1440, 11791.51
523.3220, 12032.77
524.5010, 12371.00
525.6790, 12571.00
526.8570, 12890.00
528.0350, 13116.00
529.2130, 13571.00
530.3900, 13920.00
531.5670, 14312.00
532.7450, 14693.93
533.9220, 15048.98
535.0980, 15416.00
536.2750, 15808.00
537.4520, 16147.00
538.6280, 16604.00
539.8040, 16914.00
540.9800, 17386.00
542.1560, 17768.00
543.3320, 17931.00
544.5070, 18409.00
545.6830, 18432.00
546.8580, 18910.00
548.0330, 18999.00
549.2080, 19550.00
550.3830, 19427.00
551.5570, 19625.00
552.7310, 19780.00
553.9060, 19980.00
555.0800, 19809.00
556.2540, 19868.00
557.4270, 19983.00
558.6010, 20004.00
559.7740, 20109.00
560.9470, 20349.00
562.1210, 20268.00
563.2930, 20185.00
564.4660, 20386.00
565.6390, 20182.00
566.8110, 20526.00
567.9830, 20347.00
569.1550, 20253.00
570.3270, 20462.00
571.4990, 20260.00
572.6710, 20172.00
573.8420, 20004.00
575.0130, 19641.00
576.1840, 19539.00
577.3550, 19271.00
578.5260, 18905.00
579.6970, 18637.00
580.8670, 18318.58
582.0370, 17994.52
583.2070, 17699.00
584.3770, 17415.00
585.5470, 17103.00
586.7170, 16931.00
587.8860, 16520.00
589.0550, 16386.00
590.2240, 16183.00
591.3930, 15936.00
592.5620, 15691.00
593.7310, 15638.00
594.8990, 15552.00
596.0670, 15410.00
597.2350, 15204.00
598.4030, 15059.00
599.5710, 14867.90
600.7390, 14959.00
601.9060, 14535.00
603.0740, 14481.00
604.2410, 14418.00
605.4080, 14012.00
606.5740, 13881.00
607.7410, 13545.00
608.9080, 13476.00
610.0740, 13102.00
611.2400, 12773.00
612.4060, 12578.00
613.5720, 12402.00
614.7370, 12090.00
615.9030, 11872.00
617.0680, 11809.00
618.2330, 11618.00
619.3980, 11418.00
620.5630, 11425.00
621.7280, 11390.00
622.8920, 11269.00
624.0570, 11393.00
625.2210, 11425.00
626.3850, 11675.00
627.5490, 11840.00
628.7120, 12128.00
629.8760, 12530.00
631.0390, 12792.00
632.2020, 13320.00
633.3650, 13921.00
634.5280, 14203.00
635.6910, 14706.00
636.8530, 15370.00
638.0160, 15871.00
639.1780, 16112.00
640.3400, 16443.00
641.5020, 16758.00
642.6640, 17082.00
643.8250, 17307.00
644.9870, 17302.00
646.1480, 17403.00
647.3090, 17495.00
648.4700, 17746.00
649.6300, 17633.00
650.7910, 17685.00
651.9510, 17588.00
653.1120, 17685.00
654.2720, 17673.00
655.4320, 17565.00
656.5910, 17712.00
657.7510, 17807.00
658.9100, 17968.00
660.0690, 18106.00
661.2290, 18238.00
662.3880, 18604.39
663.5460, 19107.00
664.7050, 19427.00
665.8630, 19704.00
667.0220, 20217.00
668.1800, 20596.00
669.3380, 21056.28
670.4950, 21698.00
671.6530, 22079.00
672.8100, 22845.00
673.9680, 23503.00
675.1250, 24014.00
676.2820, 25037.00
677.4390, 25811.00
678.5950, 26698.00
679.7520, 27476.11
680.9080, 28163.00
682.0640, 28918.00
683.2200, 29724.00
684.3760, 30380.00
685.5320, 30958.00
686.6870, 31722.00
687.8420, 31951.00
688.9980, 32621.00
690.1530, 32922.00
691.3070, 32987.00
692.4620, 33042.00
693.6170, 32906.70
694.7710, 32969.00
695.9250, 32315.00
697.0790, 31806.57
698.2330, 31262.00
699.3870, 30078.00
700.5400, 29339.00
701.6940, 28272.00
702.8470, 27075.00
704.0000, 26304.00
705.1530, 25004.00
706.3050, 24073.00
707.4580, 23147.00
708.6100, 21984.00
709.7630, 21223.00
710.9150, 20241.00
712.0660, 19417.00
713.2180, 18586.00
714.3700, 17933.00
715.5210, 17222.00
716.6720, 16614.00
717.8240, 16093.00
718.9740, 15247.00
720.1250, 14700.00
721.2760, 14145.00
722.4260, 13664.00
723.5770, 13246.00
724.7270, 12927.00
725.8770, 12575.00
727.0260, 12131.00
728.1760, 11655.00
729.3250, 11465.00
730.4750, 11312.00
731.6240, 10902.00
732.7730, 10801.00
733.9220, 10514.00
735.0700, 10184.00
736.2190, 10163.00
737.3670, 9891.000
738.5150, 9860.000
739.6630, 9608.000
740.8110, 9421.206
741.9590, 9308.000
743.1060, 9005.195
744.2540, 9075.867
745.4010, 9076.605
746.5480, 9011.091
747.6950, 8905.137
748.8410, 8692.548
749.9880, 8567.160
751.1340, 8436.232
752.2800, 8263.000
753.4260, 8335.000
754.5720, 8182.000
755.7180, 8211.000
756.8640, 7993.000
758.0090, 8047.000
759.1540, 7977.000
760.2990, 7910.000
761.4440, 7907.000
762.5890, 7710.000
763.7340, 7660.000
764.8780, 7636.000
766.0220, 7597.000
767.1660, 7541.000
768.3100, 7493.000
769.4540, 7468.000
770.5980, 7343.000
771.7410, 7408.000
772.8840, 7361.000
774.0280, 7299.000
775.1700, 7332.000
776.3130, 7299.000
777.4560, 7297.000
778.5980, 7216.000
779.7410, 7210.000
780.8830, 7076.000
782.0250, 7106.000
783.1670, 7094.000
784.3080, 6952.000
785.4500, 7016.000
786.5910, 6897.000
787.7320, 7045.000
788.8730, 6909.000
790.0140, 6899.000
791.1550, 6888.000
792.2950, 6768.000
793.4360, 6895.000
794.5760, 6792.000
795.7160, 6900.000
796.8560, 6737.000
797.9960, 6725.000
799.1350, 6760.000
800.2750, 6670.000
801.4140, 6676.000
802.5530, 6719.000
803.6920, 6637.000
804.8310, 6662.000
805.9690, 6694.000
807.1080, 6628.000
808.2460, 6528.000
809.3840, 6619.000
810.5220, 6586.000
811.6600, 6576.000
812.7970, 6620.000
813.9350, 6615.000
815.0720, 6599.349
816.2090, 6530.000
817.3460, 6522.000
818.4830, 6527.000
819.6200, 6425.000
820.7560, 6423.000
821.8930, 6425.000
823.0290, 6417.000
824.1650, 6367.000
825.3010, 6414.000
826.4360, 6427.000
827.5720, 6369.000
828.7070, 6447.000
829.8420, 6307.000
830.9770, 6411.000
832.1120, 6301.000
833.2470, 6358.000
834.3820, 6294.000
835.5160, 6159.000
836.6500, 6144.000
837.7840, 6290.000
838.9180, 6149.000
840.0520, 6262.000
841.1860, 6177.000
842.3190, 6178.000
843.4520, 6188.000
844.5850, 6238.000
845.7180, 6228.000
846.8510, 6105.000
847.9840, 6186.000
849.1160, 6124.000
850.2490, 6169.000
851.3810, 6149.000
852.5130, 6225.000
853.6450, 6064.000
854.7760, 6060.000
855.9080, 6127.000
857.0390, 6036.000
858.1700, 6154.000
859.3010, 5998.000
860.4320, 6055.000
861.5630, 6166.000
862.6930, 6054.000
863.8240, 6079.000
864.9540, 6051.000
866.0840, 6028.000
867.2140, 5988.000
868.3440, 5992.825
869.4730, 6008.000
870.6030, 5996.000
871.7320, 6042.000
872.8610, 6038.000
873.9900, 5990.000
875.1190, 5971.000
876.2470, 5913.000
877.3760, 6000.000
878.5040, 5951.000
879.6320, 5960.000
880.7600, 6026.000
881.8880, 5911.000
883.0150, 5920.000
884.1430, 5927.000
885.2700, 5996.000
886.3970, 5935.000
887.5240, 5959.000
888.6510, 5893.000
889.7780, 5834.000
890.9040, 5859.000
892.0310, 5880.000
893.1570, 5909.000
894.2830, 5948.000
895.4090, 5950.000
896.5350, 5848.000
897.6600, 5969.000
898.7860, 5933.000
899.9110, 5820.000
901.0360, 5890.000
902.1610, 5951.000
903.2860, 5921.000
904.4100, 5836.000
905.5350, 5957.000
906.6590, 5782.000
907.7830, 5859.000
908.9070, 5784.000
910.0310, 5809.000
911.1540, 5928.000
912.2780, 5801.000
913.4010, 5829.755
914.5240, 5859.401
915.6470, 5746.000
916.7700, 5879.000
917.8930, 5854.000
919.0150, 5794.000
920.1380, 5901.000
921.2600, 5797.000
922.3820, 5732.000
923.5040, 5771.000
924.6260, 5846.000
925.7470, 5767.000
926.8690, 5734.000
927.9900, 5843.000
929.1110, 5739.000
930.2320, 5776.000
931.3530, 5823.000
932.4730, 5752.000
933.5940, 5778.000
934.7140, 5785.000
935.8340, 5736.000
936.9540, 5776.000
938.0740, 5789.000
939.1930, 5669.000
940.3130, 5709.000
941.4320, 5733.624
942.5510, 5779.000
943.6700, 5822.000
944.7890, 5751.000
945.9080, 5726.000
947.0260, 5717.914
948.1450, 5727.000
949.2630, 5685.000
950.3810, 5730.000
951.4990, 5739.000
952.6170, 5713.000
953.7340, 5727.000
954.8520, 5617.000
955.9690, 5721.000
957.0860, 5581.000
958.2030, 5724.000
959.3200, 5772.000
960.4360, 5758.000
961.5530, 5655.000
962.6690, 5663.000
963.7850, 5701.000
964.9010, 5653.000
966.0170, 5659.000
967.1330, 5612.000
968.2480, 5746.000
969.3630, 5619.000
970.4790, 5674.000
971.5940, 5615.000
972.7080, 5706.000
973.8230, 5583.000
974.9380, 5677.000
976.0520, 5658.000
977.1660, 5759.000
978.2800, 5735.710
979.3940, 5714.000
980.5080, 5701.000
981.6220, 5666.000
982.7350, 5646.000
983.8480, 5653.152
984.9610, 5705.000
986.0740, 5690.000
987.1870, 5707.000
988.3000, 5759.000
989.4120, 5701.000
990.5250, 5752.000
991.6370, 5683.000
992.7490, 5733.000
993.8610, 5659.000
994.9720, 5754.000
996.0840, 5831.000
997.1950, 5748.127
998.3060, 5815.000
999.4170, 5678.000
1000.528, 5772.000
1001.639, 5838.000
1002.750, 5754.000
1003.860, 5692.000
1004.970, 5676.000
1006.080, 5742.000
1007.190, 5777.000
1008.300, 5725.000
1009.410, 5685.000
1010.519, 5725.000
1011.628, 5668.000
1012.738, 5714.000
1013.846, 5770.000
1014.955, 5774.000
1016.064, 5835.000
1017.172, 5736.000
1018.281, 5715.000
1019.389, 5778.000
1020.497, 5748.000
1021.605, 5768.000
1022.713, 5771.010
1023.820, 5774.000
1024.928, 5743.000
1026.035, 5800.000
1027.142, 5754.000
1028.249, 5822.000
1029.356, 5864.000
1030.462, 5775.000
1031.569, 5841.000
1032.675, 5711.000
1033.781, 5860.000
1034.887, 5954.000
1035.993, 5893.000
1037.098, 5815.000
1038.204, 5867.000
1039.309, 5939.000
1040.415, 5754.000
1041.520, 5820.000
1042.624, 5907.000
1043.729, 6007.000
1044.834, 5936.000
1045.938, 5982.000
1047.042, 5889.000
1048.146, 5953.000
1049.250, 5989.000
1050.354, 6012.000
1051.458, 6030.000
1052.561, 6030.000
1053.664, 6045.000
1054.767, 5987.000
1055.870, 5995.000
1056.973, 6029.000
1058.076, 5973.000
1059.178, 6089.000
1060.281, 6060.000
1061.383, 6074.000
1062.485, 6132.000
1063.587, 5928.390
1064.688, 6108.490
1065.790, 6218.596
1066.891, 6262.430
1067.993, 6041.599
1069.094, 6162.534
1070.195, 6146.496
1071.295, 6124.826
1072.396, 6293.865
1073.496, 6111.494
1074.597, 6277.512
1075.697, 6304.447
1076.797, 6395.027
1077.897, 6347.789
1078.996, 6343.101
1080.096, 6476.293
1081.195, 6533.132
1082.294, 6470.011
1083.393, 6564.619
1084.492, 6377.416
1085.591, 6437.506
1086.689, 6604.274
1087.788, 6548.083
1088.886, 6645.192
1089.984, 6390.000
1091.082, 6477.000
1092.180, 6529.000
1093.277, 6580.000
1094.375, 6578.000
1095.472, 6617.000
1096.569, 6579.000
1097.666, 6595.000
1098.763, 6570.000
1099.860, 6665.000
1100.956, 6653.000
1102.053, 6691.000
1103.149, 6625.000
1104.245, 6704.000
1105.341, 6693.000
1106.436, 6707.000
1107.532, 6673.000
1108.627, 6727.000
1109.723, 6707.000
1110.818, 6749.000
1111.913, 6832.000
1113.007, 6854.000
1114.102, 6829.000
1115.197, 6808.000
1116.291, 6762.000
1117.385, 6752.000
1118.479, 6862.000
1119.573, 6926.000
1120.666, 6813.000
1121.760, 6944.000
1122.853, 6916.000
1123.947, 6840.000
1125.040, 6836.000
1126.132, 6859.000
1127.225, 6904.000
1128.318, 6884.000
1129.410, 6848.000
1130.502, 6913.000
1131.595, 6845.000
1132.687, 6902.873
1133.778, 6944.000
1134.870, 7002.000
1135.961, 6754.000
1137.053, 6814.000
1138.144, 6793.000
1139.235, 6788.000
1140.326, 6904.000
1141.416, 6800.000
1142.507, 6727.000
1143.597, 6838.000
1144.688, 6865.000
1145.778, 6800.000
1146.868, 6735.000
1147.957, 6738.000
1149.047, 6684.552
1150.136, 6734.000
1151.226, 6660.000
1152.315, 6716.000
1153.404, 6773.000
1154.493, 6697.000
1155.581, 6696.000
1156.670, 6734.000
1157.758, 6566.000
1158.846, 6598.000
1159.934, 6737.000
1161.022, 6699.000
1162.110, 6557.000
1163.198, 6722.000
1164.285, 6529.000
1165.372, 6595.000
1166.459, 6579.000
1167.546, 6590.000
1168.633, 6605.000
1169.720, 6656.000
1170.806, 6591.000
1171.892, 6603.000
1172.979, 6604.000
1174.065, 6673.000
1175.150, 6622.000
1176.236, 6580.000
1177.322, 6596.000
1178.407, 6555.000
1179.492, 6550.748
1180.577, 6564.000
1181.662, 6547.000
1182.747, 6517.000
1183.832, 6542.000
1184.916, 6429.000
1186.000, 6487.000
1187.084, 6564.000
1188.168, 6533.000
1189.252, 6440.000
1190.336, 6523.000
1191.419, 6492.000
1192.503, 6458.000
1193.586, 6547.000
1194.669, 6463.000
1195.752, 6459.000
1196.835, 6497.000
1197.917, 6450.000
1199.000, 6494.000
1200.082, 6430.000
1201.164, 6620.000
1202.246, 6520.000
1203.328, 6538.000
1204.409, 6492.000
1205.491, 6421.000
1206.572, 6486.000
1207.653, 6492.000
1208.734, 6351.000
1209.815, 6508.000
1210.896, 6465.000
1211.976, 6454.851
1213.057, 6684.000
1214.137, 6464.000
1215.217, 6437.000
1216.297, 6485.000
1217.377, 6392.000
1218.456, 6353.000
1219.536, 6387.000
1220.615, 6459.000
1221.694, 6328.916
1222.773, 6485.303
1223.852, 6571.676
1224.931, 6591.796
1226.009, 6347.236
1227.088, 6444.457
1228.166, 6404.709
1229.244, 6359.346
1230.322, 6504.675
1231.400, 6298.612
1232.477, 6440.921
1233.555, 6444.164
1234.632, 6511.057
1235.709, 6440.130
1236.786, 6411.771
1237.863, 6521.275
1238.939, 6554.447
1240.016, 6467.656
1241.092, 6453.000
1242.168, 6462.977
1243.245, 6549.000
1244.320, 6497.023
1245.396, 6469.460
1246.472, 6534.000
1247.547, 6383.000
1248.622, 6358.000
1249.697, 6322.000
1250.772, 6393.000
1251.847, 6386.000
1252.922, 6449.000
1253.996, 6379.000
1255.071, 6341.000
1256.145, 6324.000
1257.219, 6326.457
1258.293, 6419.000
1259.366, 6378.000
1260.440, 6360.000
1261.513, 6381.000
1262.587, 6302.000
1263.660, 6334.000
1264.733, 6292.000
1265.805, 6298.000
1266.878, 6300.133
1267.951, 6278.627
1269.023, 6325.000
1270.095, 6300.000
1271.167, 6360.000
1272.239, 6467.000
1273.311, 6469.000
1274.382, 6506.397
1275.454, 6497.137
1276.525, 6502.000
1277.596, 6457.000
1278.667, 6418.000
1279.738, 6451.000
1280.808, 6463.000
1281.879, 6432.958
1282.949, 6524.000
1284.019, 6418.000
1285.089, 6434.000
1286.159, 6491.000
1287.229, 6413.000
1288.298, 6420.000
1289.368, 6468.000
1290.437, 6400.000
1291.506, 6407.000
1292.575, 6399.333
1293.644, 6484.000
1294.712, 6377.000
1295.781, 6415.000
1296.849, 6407.000
1297.917, 6322.000
1298.985, 6505.000
1300.053, 6431.000
1301.121, 6360.000
1302.188, 6374.000
1303.255, 6298.000
1304.323, 6329.000
1305.390, 6318.000
1306.457, 6352.000
1307.523, 6326.046
1308.590, 6321.327
1309.656, 6261.000
1310.723, 6306.000
1311.789, 6248.000
1312.855, 6276.000
1313.921, 6284.000
1314.986, 6237.000
1316.052, 6223.000
1317.117, 6271.000
1318.182, 6272.000
1319.248, 6224.000
1320.312, 6319.000
1321.377, 6111.000
1322.442, 6115.000
1323.506, 6185.000
1324.571, 6208.000
1325.635, 6115.000
1326.699, 6213.000
1327.762, 6157.000
1328.826, 6078.625
1329.890, 6233.921
1330.953, 6319.207
1332.016, 6338.241
1333.079, 6092.589
1334.142, 6188.724
1335.205, 6147.886
1336.268, 6101.431
1337.330, 6245.675
1338.392, 6038.525
1339.454, 6179.745
1340.516, 6181.902
1341.578, 6247.705
1342.640, 6175.689
1343.701, 6146.245
1344.763, 6254.660
1345.824, 6286.743
1346.885, 6324.000
1347.946, 6344.835
1349.007, 6183.000
1350.067, 6310.000
1351.128, 6275.000
1352.188, 6198.000
1353.248, 6261.000
1354.308, 6315.000
1355.368, 6196.000
1356.428, 6132.000
1357.487, 6223.000
1358.547, 6221.000
1359.606, 6197.000
1360.665, 6212.000
1361.724, 6199.000
1362.783, 6267.000
1363.841, 6149.000
1364.900, 6289.000
1365.958, 6196.000
1367.016, 6161.000
1368.074, 6227.000
1369.132, 6144.000
1370.190, 6123.000
1371.247, 6123.000
1372.304, 6198.000
1373.362, 6221.000
1374.419, 6207.095
1375.476, 6166.000
1376.532, 6190.000
1377.589, 6136.000
1378.645, 6171.000
1379.702, 6077.000
1380.758, 6068.000
1381.814, 6176.000
1382.870, 6116.000
1383.925, 6086.000
1384.981, 6075.745
1386.036, 6038.779
1387.092, 6032.761
1388.147, 6002.000
1389.202, 6019.946
1390.256, 6014.000
1391.311, 6018.000
1392.365, 6071.510
1393.420, 6105.000
1394.474, 6033.000
1395.528, 6117.000
1396.582, 5906.000
1397.636, 6084.000
1398.689, 5996.000
1399.742, 5991.000
1400.796, 6051.000
1401.849, 5939.000
1402.902, 6037.000
1403.955, 5834.000
1405.007, 6015.000
1406.060, 5964.000
1407.112, 5939.000
1408.164, 5921.000
1409.216, 5851.000
1410.268, 5853.000
1411.320, 5886.000
1412.371, 5922.000
1413.423, 5857.000
1414.474, 5795.000
1415.525, 5850.000
1416.576, 5741.000
1417.627, 5788.000
1418.678, 5738.000
1419.728, 5803.000
1420.778, 5807.000
1421.829, 5774.000
1422.879, 5721.000
1423.928, 5769.000
1424.978, 5738.942
1426.028, 5760.000
1427.077, 5710.000
1428.126, 5769.000
1429.176, 5682.000
1430.225, 5687.000
1431.273, 5663.000
1432.322, 5728.000
1433.371, 5639.000
1434.419, 5598.000
1435.467, 5664.000
1436.515, 5633.000
1437.563, 5565.000
1438.611, 5689.000
1439.658, 5600.000
1440.706, 5537.000
1441.753, 5557.000
1442.800, 5555.000
1443.847, 5499.000
1444.894, 5561.000
1445.941, 5466.000
1446.987, 5496.000
1448.034, 5540.000
1449.080, 5461.000
1450.126, 5513.000
1451.172, 5376.000
1452.218, 5405.000
1453.263, 5379.000
1454.309, 5342.831
1455.354, 5392.000
1456.399, 5347.000
1457.444, 5380.000
1458.489, 5435.000
1459.534, 5324.000
1460.579, 5430.000
1461.623, 5280.000
1462.667, 5419.000
1463.711, 5354.651
1464.755, 5319.071
1465.799, 5308.000
1466.843, 5248.000
1467.886, 5259.000
1468.930, 5232.000
1469.973, 5251.000
1471.016, 5221.000
1472.059, 5200.000
1473.101, 5192.000
1474.144, 5223.477
1475.186, 5200.879
1476.229, 5318.000
1477.271, 5163.000
1478.313, 5199.000
1479.355, 5126.000
1480.396, 5197.000
1481.438, 5208.000
1482.479, 5070.000
1483.520, 5139.000
1484.561, 5099.000
1485.602, 5127.000
1486.643, 5125.409
1487.684, 5125.912
1488.724, 5072.000
1489.765, 5150.000
1490.805, 5050.000
1491.845, 5067.000
1492.885, 4984.000
1493.924, 5062.000
1494.964, 5052.000
1496.003, 4929.000
1497.042, 4975.000
1498.082, 4984.000
1499.120, 5015.000
1500.159, 5029.000
1501.198, 4958.000
1502.236, 5004.000
1503.275, 4925.135
1504.313, 5002.868
1505.351, 5045.594
1506.389, 5055.193
1507.427, 4932.450
1508.464, 4980.602
1509.502, 4960.265
1510.539, 4937.123
1511.576, 5009.327
1512.613, 4905.835
1513.650, 4976.527
1514.687, 4977.689
1515.723, 5010.675
1516.759, 4974.752
1517.796, 4953.000
1518.832, 4966.000
1519.868, 4895.000
1520.903, 4984.000
1521.939, 4958.000
1522.975, 4948.063
1524.010, 5110.000
1525.045, 4874.000
1526.080, 4988.000
1527.115, 4853.000
1528.150, 4949.000
1529.184, 5067.000
1530.219, 4942.000
1531.253, 4878.000
1532.287, 4884.000
1533.321, 4958.000
1534.355, 4947.000
1535.388, 4925.000
1536.422, 4925.000
1537.455, 4898.000
1538.488, 4944.000
1539.522, 4908.000
1540.554, 4921.000
1541.587, 4899.000
1542.620, 4864.000
1543.652, 4881.343
1544.685, 4960.381
1545.717, 5004.412
1546.749, 5015.317
1547.781, 4893.879
1548.812, 4943.336
1549.844, 4924.305
1550.875, 4902.467
1551.906, 4975.976
1552.938, 4873.788
1553.968, 4945.786
1554.999, 4948.251
1556.030, 4982.540
1557.060, 4947.920
1558.091, 4934.583
1559.121, 4990.179
1560.151, 5007.606
1561.181, 4965.054
1562.211, 4898.000
1563.240, 4966.000
1564.270, 4921.855
1565.299, 4982.000
1566.328, 4835.000
1567.357, 4865.000
1568.386, 4844.000
1569.415, 4949.000
1570.443, 4922.000
1571.472, 4896.000
1572.500, 4839.000
1573.528, 4878.000
1574.556, 4842.000
1575.584, 4812.000
1576.611, 4877.000
1577.639, 4876.000
##END=



