##NAMES=Magnesio-hastingsite
##RRUFFID=R040010
##IDEAL CHEMISTRY=NaCa_2_(Mg_4_Fe^3+^)Si_6_Al_2_O_22_(OH)_2_
##LOCALITY=Amity, New York, USA
##OWNER=RRUFF
##SOURCE=University of Arizona Mineral Museum
##DESCRIPTION=Group of black prismatic crystals
##STATUS=The identification of this mineral has been confirmed by X-ray diffraction and chemical analysis
##URL=rruff.info/R040010
##MEASURED CHEMISTRY=(Na_0.50_K_0.43_[box]_0.07_)_Σ=1_(Ca_1.77_Na_0.23_)_Σ=2_(Mg_1.74_Fe_1.22_Fe^3+^_0.79_Mn_0.57_Al_0.30_Zn_0.25_Ti_0.13_)_Σ=5_(Si_5.95_Al_2.05_)_Σ=8_O_22_((OH)_1.75_F_0.22_Cl_0.03_)_Σ=2_; OH estimated by charge balance
##PIN_ID=L00198
##ORIENTATION=Laser parallel to c [0 0 1]. Fiducial mark perpendicular to laser is parallel to -b* (0 -1 0)
190.4400, 24770.53
191.6680, 24392.00
192.8960, 24931.00
194.1230, 24972.00
195.3500, 25446.00
196.5770, 25568.00
197.8030, 25817.00
199.0300, 26497.00
200.2560, 27310.00
201.4830, 28056.00
202.7090, 28559.00
203.9340, 29133.00
205.1600, 29620.00
206.3860, 30848.00
207.6110, 32020.00
208.8360, 33750.00
210.0610, 35753.00
211.2860, 38017.00
212.5100, 40429.00
213.7350, 42822.00
214.9590, 45084.00
216.1830, 47789.00
217.4070, 49778.00
218.6310, 52408.00
219.8540, 53676.00
221.0780, 55222.00
222.3010, 55810.00
223.5240, 56002.00
224.7470, 55870.00
225.9690, 54719.00
227.1920, 52326.00
228.4140, 49901.00
229.6360, 47222.00
230.8580, 44791.00
232.0800, 42331.00
233.3020, 39912.00
234.5230, 38024.00
235.7440, 36218.00
236.9650, 34673.52
238.1860, 33434.00
239.4070, 32292.00
240.6280, 31616.00
241.8480, 30918.00
243.0680, 30432.00
244.2880, 29953.00
245.5080, 29660.00
246.7280, 29412.00
247.9470, 29006.00
249.1660, 28834.00
250.3860, 28869.00
251.6040, 28334.00
252.8230, 28540.00
254.0420, 27942.00
255.2600, 28170.00
256.4790, 28080.00
257.6970, 28497.00
258.9150, 28292.50
260.1320, 28987.00
261.3500, 28143.00
262.5670, 28048.00
263.7840, 28245.00
265.0010, 28476.00
266.2180, 28408.00
267.4350, 28600.00
268.6510, 29003.00
269.8680, 29154.00
271.0840, 29365.00
272.3000, 29724.00
273.5160, 30120.00
274.7310, 30435.00
275.9470, 30754.00
277.1620, 31211.00
278.3770, 31506.00
279.5920, 31985.00
280.8070, 32310.00
282.0210, 32743.00
283.2360, 32880.00
284.4500, 33321.00
285.6640, 33306.00
286.8780, 33408.00
288.0920, 33734.00
289.3050, 33555.00
290.5180, 33447.00
291.7320, 33744.00
292.9450, 33662.00
294.1570, 33270.00
295.3700, 32932.00
296.5830, 33001.00
297.7950, 32707.00
299.0070, 32315.00
300.2190, 32288.00
301.4310, 31643.00
302.6420, 31398.00
303.8540, 31128.00
305.0650, 30823.00
306.2760, 30383.00
307.4870, 30172.00
308.6980, 29578.00
309.9080, 29470.00
311.1190, 29163.00
312.3290, 28707.00
313.5390, 28297.00
314.7490, 28077.00
315.9580, 27667.00
317.1680, 27361.00
318.3770, 26763.00
319.5860, 26679.00
320.7950, 26129.00
322.0040, 26013.00
323.2130, 25465.00
324.4210, 25595.00
325.6290, 25389.00
326.8380, 25141.00
328.0460, 25001.00
329.2530, 24940.00
330.4610, 24673.00
331.6680, 24632.00
332.8760, 24458.00
334.0830, 24499.00
335.2890, 24268.00
336.4960, 24541.00
337.7030, 24229.00
338.9090, 24291.00
340.1150, 24491.00
341.3210, 24137.00
342.5270, 24419.00
343.7330, 24348.00
344.9380, 24505.00
346.1440, 24745.00
347.3490, 24753.00
348.5540, 24906.00
349.7590, 25182.00
350.9630, 25000.00
352.1680, 25287.00
353.3720, 25321.00
354.5760, 25517.00
355.7800, 25626.00
356.9840, 25743.00
358.1870, 25857.40
359.3910, 25978.00
360.5940, 26079.00
361.7970, 26216.00
363.0000, 26424.00
364.2030, 26469.00
365.4050, 26299.00
366.6080, 26136.00
367.8100, 26076.00
369.0120, 25960.57
370.2140, 25870.34
371.4150, 25868.00
372.6170, 25683.00
373.8180, 25724.00
375.0190, 25583.00
376.2200, 25506.00
377.4210, 25180.00
378.6220, 25073.00
379.8220, 24738.00
381.0230, 24495.00
382.2230, 24176.00
383.4230, 23966.00
384.6220, 23629.00
385.8220, 23377.00
387.0220, 23169.00
388.2210, 23086.00
389.4200, 22775.00
390.6190, 22651.00
391.8180, 22304.00
393.0160, 22337.00
394.2150, 21937.00
395.4130, 21906.00
396.6110, 21798.00
397.8090, 21507.00
399.0060, 21310.00
400.2040, 21282.00
401.4010, 21138.00
402.5980, 21172.00
403.7950, 21053.00
404.9920, 21046.00
406.1890, 21109.00
407.3860, 20970.95
408.5820, 21053.00
409.7780, 20814.00
410.9740, 20736.00
412.1700, 20714.00
413.3650, 20911.00
414.5610, 21028.00
415.7560, 21089.00
416.9510, 21318.00
418.1460, 21350.00
419.3410, 21434.00
420.5360, 21669.00
421.7300, 21936.00
422.9240, 22011.00
424.1180, 22520.00
425.3120, 22558.00
426.5060, 22709.00
427.7000, 22732.00
428.8930, 22807.00
430.0860, 22904.00
431.2790, 22871.00
432.4720, 22759.00
433.6650, 22648.00
434.8580, 22530.00
436.0500, 22448.00
437.2420, 22204.00
438.4340, 22127.00
439.6260, 21907.00
440.8180, 21903.00
442.0090, 21664.00
443.2010, 21640.00
444.3920, 21628.00
445.5830, 21633.00
446.7740, 21571.73
447.9640, 21525.68
449.1550, 21387.00
450.3450, 21365.00
451.5350, 21125.00
452.7250, 20992.00
453.9150, 20978.00
455.1050, 20907.00
456.2940, 20760.00
457.4830, 21026.00
458.6720, 20614.00
459.8610, 20758.00
461.0500, 20526.00
462.2390, 20635.00
463.4270, 20286.00
464.6150, 20283.00
465.8040, 20373.00
466.9910, 20325.00
468.1790, 20243.00
469.3670, 20224.00
470.5540, 19969.00
471.7410, 20064.00
472.9280, 19758.00
474.1150, 19938.00
475.3020, 19803.00
476.4890, 19573.00
477.6750, 19587.00
478.8610, 19496.00
480.0470, 19412.00
481.2330, 19548.00
482.4190, 19505.00
483.6040, 19454.00
484.7900, 19604.00
485.9750, 19648.00
487.1600, 19709.00
488.3450, 19835.00
489.5290, 19820.00
490.7140, 19953.00
491.8980, 19962.00
493.0820, 19939.00
494.2660, 20153.00
495.4500, 20389.00
496.6340, 20351.00
497.8170, 20448.00
499.0010, 20546.00
500.1840, 20673.00
501.3670, 20762.37
502.5500, 20861.67
503.7320, 20959.00
504.9150, 21060.00
506.0970, 21154.00
507.2790, 21286.00
508.4610, 21471.00
509.6430, 21589.00
510.8250, 21839.00
512.0060, 22041.85
513.1870, 22335.00
514.3680, 22536.00
515.5490, 22789.00
516.7300, 23067.00
517.9110, 23878.00
519.0910, 24212.00
520.2710, 24901.00
521.4510, 25539.00
522.6310, 26244.00
523.8110, 26896.57
524.9910, 27614.43
526.1700, 28240.00
527.3490, 29016.00
528.5280, 29738.00
529.7070, 30346.00
530.8860, 30693.00
532.0650, 30972.00
533.2430, 31064.00
534.4210, 31135.48
535.5990, 31291.00
536.7770, 30997.00
537.9550, 30595.00
539.1320, 30399.00
540.3100, 29811.00
541.4870, 29385.00
542.6640, 28605.00
543.8410, 28245.00
545.0170, 27696.00
546.1940, 27046.00
547.3700, 26550.00
548.5470, 25808.00
549.7230, 25454.00
550.8980, 25042.00
552.0740, 24770.00
553.2500, 24465.00
554.4250, 23754.00
555.6000, 23501.00
556.7750, 23292.00
557.9500, 22705.00
559.1250, 22621.00
560.2990, 22398.00
561.4730, 21932.00
562.6480, 21909.00
563.8220, 21623.00
564.9950, 21138.00
566.1690, 21166.00
567.3430, 21170.00
568.5160, 20947.00
569.6890, 20815.00
570.8620, 20704.00
572.0350, 20686.00
573.2070, 20613.00
574.3800, 20483.70
575.5520, 20332.00
576.7240, 20205.00
577.8960, 20152.00
579.0680, 19991.00
580.2400, 19802.00
581.4110, 19818.00
582.5830, 19650.00
583.7540, 19611.00
584.9250, 19435.00
586.0950, 19429.00
587.2660, 19504.00
588.4370, 19608.00
589.6070, 19042.00
590.7770, 18776.00
591.9470, 18708.00
593.1170, 18764.00
594.2860, 18676.00
595.4560, 18522.00
596.6250, 18418.00
597.7940, 18451.00
598.9630, 18661.00
600.1320, 18613.00
601.3000, 18693.00
602.4690, 18768.00
603.6370, 18770.00
604.8050, 19046.00
605.9730, 19183.00
607.1410, 19218.00
608.3090, 19565.00
609.4760, 19813.00
610.6430, 20077.00
611.8100, 20293.00
612.9770, 20627.00
614.1440, 21064.00
615.3110, 21555.00
616.4770, 21767.00
617.6430, 22227.00
618.8090, 22974.00
619.9750, 23495.00
621.1410, 24212.00
622.3070, 24898.00
623.4720, 25606.00
624.6370, 26356.00
625.8020, 27365.00
626.9670, 28115.00
628.1320, 28963.00
629.2970, 29845.41
630.4610, 30638.00
631.6250, 31527.00
632.7890, 32387.00
633.9530, 33193.06
635.1170, 33909.09
636.2810, 34621.00
637.4440, 35270.00
638.6070, 35915.00
639.7700, 36499.00
640.9330, 37196.00
642.0960, 37599.00
643.2590, 38037.00
644.4210, 38562.95
645.5830, 39218.00
646.7450, 39543.00
647.9070, 40086.00
649.0690, 40513.00
650.2310, 41015.00
651.3920, 41554.83
652.5530, 42363.00
653.7140, 42741.00
654.8750, 43229.00
656.0360, 44031.00
657.1970, 43926.00
658.3570, 44464.00
659.5170, 43939.00
660.6770, 44279.00
661.8370, 43215.00
662.9970, 42867.00
664.1570, 42010.00
665.3160, 40813.00
666.4750, 39740.00
667.6340, 38850.00
668.7930, 38007.00
669.9520, 37331.00
671.1110, 36569.68
672.2690, 35824.00
673.4270, 35389.00
674.5850, 35192.00
675.7430, 34998.00
676.9010, 35035.00
678.0590, 34917.00
679.2160, 34904.00
680.3730, 34618.00
681.5300, 34228.00
682.6870, 34081.00
683.8440, 33223.00
685.0010, 32235.00
686.1570, 31473.00
687.3130, 30153.00
688.4690, 29057.00
689.6250, 27674.00
690.7810, 26418.00
691.9370, 25191.00
693.0920, 24355.00
694.2470, 23579.00
695.4020, 22736.00
696.5570, 21960.00
697.7120, 21577.00
698.8670, 21073.00
700.0210, 20834.00
701.1750, 20419.00
702.3290, 20081.00
703.4830, 19852.00
704.6370, 19625.00
705.7910, 19601.00
706.9440, 19364.00
708.0970, 19227.00
709.2510, 19322.00
710.4030, 19216.00
711.5560, 19203.00
712.7090, 19284.00
713.8610, 19187.00
715.0140, 19353.00
716.1660, 19096.00
717.3180, 19235.00
718.4690, 19372.00
719.6210, 19582.00
720.7730, 19387.00
721.9240, 19660.00
723.0750, 19354.00
724.2260, 19855.00
725.3770, 19574.00
726.5270, 19434.00
727.6780, 19517.00
728.8280, 19474.00
729.9780, 19526.00
731.1280, 19448.00
732.2780, 19428.00
733.4280, 19510.00
734.5770, 19544.00
735.7260, 19521.00
736.8760, 19560.00
738.0250, 19374.00
739.1730, 19305.00
740.3220, 19284.00
741.4700, 19365.00
742.6190, 19330.00
743.7670, 19283.00
744.9150, 19235.00
746.0630, 19052.00
747.2100, 18865.00
748.3580, 18602.00
749.5050, 18571.00
750.6520, 18402.00
751.7990, 18335.55
752.9460, 18339.00
754.0930, 18209.00
755.2390, 18200.00
756.3860, 18060.00
757.5320, 18110.00
758.6780, 18116.00
759.8240, 18141.00
760.9690, 18094.00
762.1150, 18224.00
763.2600, 18022.00
764.4060, 18099.00
765.5510, 18132.00
766.6950, 18256.00
767.8400, 18288.00
768.9850, 18373.00
770.1290, 18446.18
771.2730, 18525.00
772.4170, 18569.00
773.5610, 18672.00
774.7050, 18711.00
775.8480, 18691.00
776.9920, 18911.00
778.1350, 18795.00
779.2780, 18967.00
780.4210, 18964.00
781.5640, 18950.00
782.7060, 19151.00
783.8490, 18973.00
784.9910, 18968.00
786.1330, 19059.00
787.2750, 19075.00
788.4170, 19137.00
789.5580, 19146.00
790.7000, 19039.00
791.8410, 19121.00
792.9820, 19253.00
794.1230, 19111.00
795.2640, 19114.00
796.4040, 19070.00
797.5450, 19193.00
798.6850, 19229.00
799.8250, 19264.00
800.9650, 19300.00
802.1050, 19284.00
803.2450, 19271.00
804.3840, 19305.27
805.5230, 19277.00
806.6630, 19355.00
807.8020, 19352.00
808.9400, 19376.45
810.0790, 19416.00
811.2170, 19396.00
812.3560, 19399.00
813.4940, 19388.35
814.6320, 19358.18
815.7700, 19338.00
816.9070, 19269.00
818.0450, 19221.00
819.1820, 19185.57
820.3190, 19123.38
821.4560, 19102.00
822.5930, 19048.00
823.7300, 18996.00
824.8670, 19021.00
826.0030, 18901.00
827.1390, 18830.00
828.2750, 18529.00
829.4110, 18602.00
830.5470, 18694.00
831.6820, 18422.00
832.8180, 18497.00
833.9530, 18319.00
835.0880, 18262.00
836.2230, 18257.00
837.3580, 18184.00
838.4920, 18188.00
839.6270, 18063.00
840.7610, 17993.00
841.8950, 17877.00
843.0290, 17946.00
844.1630, 17954.00
845.2960, 18080.00
846.4300, 17956.00
847.5630, 17834.00
848.6960, 17820.00
849.8290, 17848.00
850.9620, 17872.00
852.0940, 17797.00
853.2270, 17919.00
854.3590, 17841.00
855.4910, 17946.00
856.6230, 17855.00
857.7550, 17844.00
858.8870, 18040.00
860.0180, 17971.00
861.1500, 18005.00
862.2810, 18070.00
863.4120, 17982.00
864.5430, 18170.00
865.6730, 18035.00
866.8040, 18085.00
867.9340, 18223.00
869.0640, 18060.00
870.1940, 18381.00
871.3240, 18333.00
872.4540, 18411.00
873.5830, 18479.00
874.7130, 18500.00
875.8420, 18659.00
876.9710, 18770.00
878.1000, 18816.00
879.2290, 18843.00
880.3570, 19052.00
881.4860, 19030.00
882.6140, 19119.00
883.7420, 19253.00
884.8700, 19286.00
885.9980, 19295.00
887.1250, 19449.00
888.2530, 19569.00
889.3800, 19605.00
890.5070, 19819.00
891.6340, 19978.00
892.7610, 20052.00
893.8880, 20221.29
895.0140, 20296.00
896.1400, 20507.00
897.2670, 20696.00
898.3930, 20939.00
899.5180, 20989.00
900.6440, 21178.00
901.7700, 21391.00
902.8950, 21444.00
904.0200, 21503.00
905.1450, 21771.00
906.2700, 21868.00
907.3950, 21836.00
908.5190, 21764.00
909.6440, 21956.00
910.7680, 21974.00
911.8920, 21929.00
913.0160, 21978.44
914.1400, 22095.00
915.2630, 21896.00
916.3870, 21884.00
917.5100, 21787.00
918.6330, 21615.00
919.7560, 21555.00
920.8790, 21470.00
922.0010, 21416.00
923.1240, 21455.00
924.2460, 21168.00
925.3680, 21271.00
926.4900, 20934.00
927.6120, 21084.00
928.7340, 20967.00
929.8550, 20947.00
930.9760, 20949.00
932.0980, 20778.00
933.2190, 20867.00
934.3390, 21016.00
935.4600, 20955.00
936.5810, 21009.00
937.7010, 20946.00
938.8210, 21065.00
939.9410, 20916.00
941.0610, 21099.00
942.1810, 21009.00
943.3010, 20993.00
944.4200, 21066.00
945.5390, 21039.00
946.6580, 21256.00
947.7770, 20961.00
948.8960, 21185.00
950.0150, 21180.00
951.1330, 21134.00
952.2510, 21289.00
953.3690, 21195.00
954.4870, 21236.00
955.6050, 21428.00
956.7230, 21301.00
957.8400, 21382.00
958.9580, 21330.00
960.0750, 21350.00
961.1920, 21523.00
962.3090, 21570.00
963.4250, 21684.00
964.5420, 21390.00
965.6580, 21398.00
966.7740, 21473.00
967.8900, 21556.00
969.0060, 21457.00
970.1220, 21641.00
971.2380, 21551.00
972.3530, 21733.00
973.4680, 21542.00
974.5830, 21721.00
975.6980, 21689.00
976.8130, 21841.00
977.9280, 21927.00
979.0420, 22148.00
980.1560, 22108.00
981.2710, 22277.00
982.3850, 22422.12
983.4980, 22494.00
984.6120, 22746.00
985.7260, 23071.00
986.8390, 23260.00
987.9520, 23437.00
989.0650, 23801.00
990.1780, 23903.00
991.2910, 24210.00
992.4030, 24440.00
993.5160, 24846.00
994.6280, 25205.00
995.7400, 25767.00
996.8520, 26260.00
997.9640, 26660.00
999.0750, 27269.00
1000.187, 27524.00
1001.298, 28118.00
1002.409, 28771.00
1003.520, 29325.00
1004.631, 30015.00
1005.741, 30522.49
1006.852, 31037.42
1007.962, 31510.00
1009.072, 31900.00
1010.182, 32275.00
1011.292, 32530.00
1012.402, 32901.00
1013.511, 33109.00
1014.621, 32944.00
1015.730, 33125.00
1016.839, 32961.00
1017.948, 32945.00
1019.056, 33118.00
1020.165, 32881.00
1021.273, 32554.00
1022.382, 32285.00
1023.490, 31925.00
1024.598, 31545.29
1025.706, 31214.38
1026.813, 30725.00
1027.921, 30461.00
1029.028, 30054.00
1030.135, 29623.00
1031.242, 29311.00
1032.349, 28763.00
1033.456, 28168.00
1034.562, 27843.00
1035.668, 27201.00
1036.775, 27240.00
1037.881, 26526.00
1038.987, 26275.00
1040.092, 25829.00
1041.198, 25557.00
1042.303, 25370.00
1043.408, 24979.00
1044.514, 25064.00
1045.618, 24493.00
1046.723, 24279.00
1047.828, 24403.00
1048.932, 24062.00
1050.037, 23871.00
1051.141, 23783.00
1052.245, 23525.00
1053.349, 23413.00
1054.452, 23133.00
1055.556, 23121.00
1056.659, 22782.00
1057.762, 22852.00
1058.865, 22678.00
1059.968, 22530.00
1061.071, 22265.00
1062.174, 22162.72
1063.276, 22132.00
1064.378, 21925.00
1065.480, 21917.00
1066.582, 21861.00
1067.684, 21778.00
1068.786, 21672.00
1069.887, 21451.00
1070.988, 21336.00
1072.090, 21272.00
1073.191, 21209.00
1074.291, 21048.00
1075.392, 21071.00
1076.493, 20794.00
1077.593, 20861.00
1078.693, 20607.00
1079.793, 20688.00
1080.893, 20572.00
1081.993, 20782.00
1083.092, 20634.00
1084.192, 20407.00
1085.291, 20287.00
1086.390, 20102.00
1087.489, 20240.00
1088.588, 19942.00
1089.686, 19957.00
1090.785, 19761.00
1091.883, 19772.00
1092.981, 19583.00
1094.079, 19485.00
1095.177, 19452.00
1096.275, 19358.00
1097.373, 19294.00
1098.470, 19144.00
1099.567, 19061.38
1100.664, 18932.44
1101.761, 18828.00
1102.858, 18675.00
1103.954, 18512.00
1105.051, 18386.02
1106.147, 18281.18
1107.243, 18194.00
1108.339, 18077.00
1109.435, 18005.00
1110.531, 17840.00
1111.626, 17794.00
1112.722, 17674.00
1113.817, 17588.08
1114.912, 17506.00
1116.007, 17452.00
1117.101, 17426.00
1118.196, 17408.00
1119.290, 17297.00
1120.385, 17304.00
1121.479, 16987.00
1122.573, 17132.00
1123.666, 17108.00
1124.760, 16840.00
1125.853, 16909.00
1126.947, 16817.00
1128.040, 16723.00
1129.133, 16801.00
1130.226, 16733.00
1131.318, 16651.00
1132.411, 16633.00
1133.503, 16649.00
1134.596, 16731.00
1135.688, 16537.00
1136.780, 16647.00
1137.871, 16528.00
1138.963, 16593.00
1140.054, 16318.00
1141.146, 16600.00
1142.237, 16501.00
1143.328, 16423.00
1144.419, 16608.00
1145.509, 16318.00
1146.600, 16676.00
1147.690, 16731.00
1148.780, 16540.00
1149.870, 16428.00
1150.960, 16435.00
1152.050, 16470.00
1153.139, 16342.00
1154.229, 16516.00
1155.318, 16201.00
1156.407, 16380.00
1157.496, 16275.00
1158.585, 16416.00
1159.674, 16282.00
1160.762, 16492.00
1161.850, 16431.00
1162.939, 16322.00
1164.027, 16349.00
1165.114, 16217.81
1166.202, 16383.02
1167.290, 16477.35
1168.377, 16504.61
1169.464, 16263.90
1170.551, 16369.21
1171.638, 16335.85
1172.725, 16296.81
1173.812, 16450.82
1174.898, 16249.09
1175.984, 16400.04
1177.071, 16410.20
1178.157, 16484.80
1179.242, 16419.87
1180.328, 16398.03
1181.414, 16515.77
1182.499, 16556.22
1183.584, 16475.23
1184.669, 16553.92
1185.754, 16347.31
1186.839, 16391.05
1187.924, 16542.81
1189.008, 16468.83
1190.092, 16550.07
1191.177, 16572.20
1192.260, 16325.66
1193.344, 16546.34
1194.428, 16453.00
1195.512, 16452.00
1196.595, 16506.00
1197.678, 16457.00
1198.761, 16588.00
1199.844, 16541.00
1200.927, 16483.00
1202.009, 16390.00
1203.092, 16422.16
1204.174, 16573.00
1205.256, 16429.00
1206.338, 16532.00
1207.420, 16441.00
1208.502, 16549.00
1209.583, 16577.00
1210.665, 16560.00
1211.746, 16580.18
1212.827, 16644.00
1213.908, 16542.00
1214.988, 16560.00
1216.069, 16566.00
1217.149, 16681.00
1218.230, 16674.00
1219.310, 16437.00
1220.390, 16608.00
1221.470, 16794.00
1222.549, 16540.00
1223.629, 16586.00
1224.708, 16679.00
1225.787, 16696.00
1226.866, 16688.00
1227.945, 16846.00
1229.024, 16724.00
1230.103, 16641.00
1231.181, 16734.00
1232.259, 16660.00
1233.337, 16640.00
1234.415, 16767.00
1235.493, 16742.00
1236.571, 16787.47
1237.648, 16600.00
1238.726, 16818.00
1239.803, 16664.74
1240.880, 16798.76
1241.957, 16879.61
1243.034, 16910.16
1244.110, 16739.72
1245.187, 16828.81
1246.263, 16813.89
1247.339, 16794.71
1248.415, 16920.31
1249.491, 16779.11
1250.566, 16775.00
1251.642, 16812.00
1252.717, 16841.00
1253.793, 16658.00
1254.868, 16768.00
1255.943, 16837.00
1257.017, 16655.00
1258.092, 16792.00
1259.166, 16881.00
1260.241, 16703.00
1261.315, 16787.00
1262.389, 16790.00
1263.462, 16640.00
1264.536, 16707.00
1265.610, 16715.00
1266.683, 16804.00
1267.756, 16951.00
1268.829, 16871.57
1269.902, 16692.00
1270.975, 16808.00
1272.048, 16768.00
1273.120, 16825.00
1274.192, 16830.00
1275.264, 16762.00
1276.336, 16916.00
1277.408, 16640.00
1278.480, 16830.00
1279.551, 16699.00
1280.623, 16843.00
1281.694, 16919.00
1282.765, 16828.00
1283.836, 16962.00
1284.907, 16673.52
1285.977, 16801.37
1287.048, 16876.06
1288.118, 16900.44
1289.188, 16723.85
1290.258, 16806.78
1291.328, 16785.70
1292.398, 16760.35
1293.467, 16879.79
1294.537, 16732.43
1295.606, 16849.58
1296.675, 17092.00
1297.744, 16807.00
1298.813, 16773.00
1299.882, 17069.00
1300.950, 16861.00
1302.018, 17158.00
1303.086, 16745.00
1304.155, 16889.00
1305.222, 16916.00
1306.290, 17062.00
1307.358, 17044.00
1308.425, 17115.00
1309.492, 16804.00
1310.559, 16946.00
1311.626, 17046.00
1312.693, 16849.00
1313.760, 16973.00
1314.826, 17062.00
1315.893, 16935.00
1316.959, 17118.00
1318.025, 16976.00
1319.091, 17051.00
1320.157, 17103.00
1321.222, 16928.00
1322.288, 16901.00
1323.353, 16983.00
1324.418, 17045.00
1325.483, 16948.00
1326.548, 16959.00
1327.612, 16989.00
1328.677, 16863.00
1329.741, 16973.00
1330.806, 17084.00
1331.870, 17017.00
1332.934, 17036.00
1333.997, 17122.00
1335.061, 16978.00
1336.124, 17101.00
1337.188, 17303.00
1338.251, 17151.00
1339.314, 17001.00
1340.377, 17109.00
1341.439, 16808.00
1342.502, 17011.00
1343.564, 16959.00
1344.627, 17034.00
1345.689, 17016.00
1346.751, 17167.00
1347.813, 17170.00
1348.874, 17035.00
1349.936, 17199.00
1350.997, 17186.00
1352.058, 17099.00
1353.119, 16983.00
1354.180, 17121.00
1355.241, 17088.00
1356.301, 16993.00
1357.362, 17108.00
1358.422, 17086.00
1359.482, 17009.00
1360.542, 17280.00
1361.602, 17049.00
1362.662, 17267.00
1363.721, 17178.00
1364.781, 17127.00
1365.840, 17005.00
1366.899, 17122.00
1367.958, 17228.00
1369.017, 17047.00
1370.075, 17129.00
1371.134, 16979.00
1372.192, 17134.00
1373.250, 17291.00
1374.308, 17226.00
1375.366, 17103.00
1376.424, 17300.00
1377.481, 17030.00
1378.539, 17200.00
1379.596, 17167.00
1380.653, 17208.00
1381.710, 17175.00
1382.767, 16971.00
1383.824, 17220.00
1384.880, 17375.00
1385.937, 16985.00
1386.993, 17236.00
1388.049, 17073.00
1389.105, 17248.00
1390.161, 17141.00
1391.216, 17163.00
1392.272, 17167.00
1393.327, 17243.00
1394.382, 17244.00
1395.437, 17188.00
1396.492, 17204.00
1397.547, 17202.00
1398.601, 17147.00
1399.656, 17181.00
1400.710, 17257.00
1401.764, 17347.00
1402.818, 17331.52
1403.872, 17373.62
1404.925, 17315.00
1405.979, 17318.00
1407.032, 17309.00
1408.085, 17154.00
1409.139, 17278.00
1410.191, 17241.00
1411.244, 17503.00
1412.297, 17394.00
1413.349, 17345.00
1414.402, 17293.00
1415.454, 17362.00
1416.506, 17385.00
1417.558, 17300.00
1418.609, 17482.00
1419.661, 17439.00
1420.712, 17691.00
1421.764, 17297.00
1422.815, 17505.00
1423.866, 17338.00
1424.916, 17280.00
1425.967, 17317.00
1427.018, 17482.00
1428.068, 17299.00
1429.118, 17403.00
1430.168, 17547.00
1431.218, 17394.00
1432.268, 17560.00
1433.318, 17539.00
1434.367, 17479.00
1435.416, 17534.00
1436.465, 17556.00
1437.514, 17370.00
1438.563, 17595.00
1439.612, 17497.00
1440.661, 17644.00
1441.709, 17502.00
1442.757, 17452.00
1443.805, 17665.00
1444.853, 17579.00
1445.901, 17627.00
1446.949, 17492.00
1447.996, 17536.00
1449.044, 17555.00
1450.091, 17541.38
1451.138, 17540.00
1452.185, 17558.00
1453.232, 17629.00
1454.278, 17550.00
1455.325, 17517.00
1456.371, 17668.00
1457.417, 17547.00
1458.463, 17448.00
1459.509, 17526.00
1460.555, 17504.00
1461.601, 17478.00
1462.646, 17575.00
1463.691, 17465.00
1464.737, 17747.00
1465.782, 17633.00
1466.826, 17651.00
1467.871, 17555.00
1468.916, 17644.00
1469.960, 17589.00
1471.004, 17676.00
1472.048, 17741.00
1473.092, 17658.00
1474.136, 17587.00
1475.180, 17649.00
1476.223, 17711.00
1477.267, 17537.00
1478.310, 17744.00
1479.353, 17629.00
1480.396, 17744.00
1481.439, 17719.00
1482.481, 17528.00
1483.524, 17585.00
1484.566, 17523.63
1485.608, 17812.00
1486.650, 17666.00
1487.692, 17675.00
1488.734, 18089.00
1489.775, 17785.00
1490.817, 17750.00
1491.858, 18178.00
1492.899, 17850.00
1493.940, 17788.00
1494.981, 17923.00
1496.022, 17702.00
1497.062, 17778.00
1498.103, 17709.00
1499.143, 17677.00
1500.183, 17746.00
1501.223, 17701.00
1502.263, 17804.00
1503.302, 17828.00
1504.342, 17786.00
1505.381, 17849.00
1506.420, 17861.00
1507.459, 17791.00
1508.498, 17797.00
1509.537, 17802.00
1510.576, 17802.91
1511.614, 17885.00
1512.652, 17829.00
1513.691, 17939.00
1514.729, 17907.00
1515.767, 17807.21
1516.804, 17936.49
1517.842, 18012.62
1518.879, 18038.43
1519.917, 17863.28
1520.954, 17947.63
1521.991, 17927.99
1523.028, 17904.08
1524.064, 18024.95
1525.101, 17879.03
1526.137, 17997.60
1527.173, 18010.59
1528.210, 18071.91
1529.245, 18028.58
1530.281, 18017.57
1531.317, 18111.24
1532.352, 18146.94
1533.388, 17952.00
1534.423, 18051.00
1535.458, 18029.08
1536.493, 18039.00
1537.528, 18019.00
1538.562, 18047.00
1539.597, 18076.98
1540.631, 17977.00
1541.665, 18046.00
1542.700, 18019.00
1543.733, 18035.00
1544.767, 17993.71
1545.801, 18117.18
1546.834, 18187.50
1547.868, 18207.51
1548.901, 18026.54
1549.934, 18105.09
1550.967, 18079.64
1551.999, 18049.92
1553.032, 18164.99
1554.064, 18013.26
1555.097, 18126.04
1556.129, 18133.22
1557.161, 18188.73
1558.193, 18139.60
1559.224, 18122.79
1560.256, 18210.66
1561.287, 18240.56
1562.318, 18179.38
1563.350, 18237.97
1564.380, 18082.57
1565.411, 18024.00
1566.442, 18071.00
1567.472, 18063.00
1568.503, 17957.00
1569.533, 18109.00
1570.563, 18070.00
##END=



