##NAMES=Magnesite
##RRUFFID=R050443
##IDEAL CHEMISTRY=MgCO_3_
##LOCALITY=Brumado, Bahia, Brazil
##OWNER=RRUFF
##SOURCE=Eugene Schlepp
##DESCRIPTION=Group of colorless crystals
##STATUS=The identification of this mineral has been confirmed by X-ray diffraction and chemical analysis
##URL=rruff.info/R050443
##MEASURED CHEMISTRY=Mg_1.00_CO_3_
##PIN_ID=L01455
##ORIENTATION=Laser parallel to -a* (-1 0 0). Fiducial mark perpendicular to laser is parallel to -c [0 0 -1]
92.04900, 7330.000
93.28600, 7289.000
94.52300, 7293.000
95.75900, 7323.000
96.99500, 7176.000
98.23100, 7130.000
99.46700, 7170.000
100.7030, 7261.000
101.9390, 7144.000
103.1740, 7232.000
104.4090, 7357.000
105.6440, 7408.000
106.8790, 7325.000
108.1140, 7350.000
109.3490, 7336.481
110.5830, 7201.000
111.8180, 7320.000
113.0520, 7289.000
114.2860, 7284.000
115.5200, 7478.000
116.7530, 7286.000
117.9870, 7378.000
119.2200, 7455.000
120.4530, 8158.000
121.6860, 8465.000
122.9190, 8255.000
124.1520, 7665.000
125.3850, 7392.000
126.6170, 7162.000
127.8490, 7023.000
129.0810, 7155.000
130.3130, 7119.000
131.5450, 7059.000
132.7770, 7087.000
134.0080, 6949.000
135.2390, 6938.000
136.4710, 7119.000
137.7020, 7001.000
138.9320, 7157.000
140.1630, 7073.000
141.3930, 7109.000
142.6240, 6972.000
143.8540, 7062.000
145.0840, 7159.000
146.3140, 7154.000
147.5440, 7063.000
148.7730, 7128.000
150.0020, 7069.000
151.2320, 7137.000
152.4610, 7104.000
153.6900, 7156.000
154.9180, 7145.000
156.1470, 7166.000
157.3750, 7166.000
158.6040, 7311.000
159.8320, 7159.000
161.0600, 7179.000
162.2870, 7318.000
163.5150, 7195.000
164.7420, 7238.000
165.9700, 7303.000
167.1970, 7160.000
168.4240, 7281.000
169.6510, 7292.000
170.8770, 7291.000
172.1040, 7241.000
173.3300, 7231.000
174.5560, 7198.000
175.7820, 7261.000
177.0080, 7305.000
178.2340, 7405.000
179.4590, 7404.814
180.6850, 7360.000
181.9100, 7412.000
183.1350, 7384.000
184.3600, 7363.000
185.5850, 7442.000
186.8090, 7435.000
188.0340, 7519.000
189.2580, 7576.000
190.4820, 7481.000
191.7060, 7772.000
192.9300, 7681.000
194.1530, 7795.000
195.3770, 7982.000
196.6000, 8021.000
197.8230, 8337.930
199.0460, 8664.000
200.2690, 9083.000
201.4910, 9557.000
202.7140, 10242.00
203.9360, 11126.00
205.1580, 12126.00
206.3800, 13508.00
207.6020, 15203.00
208.8240, 17461.00
210.0450, 20450.00
211.2670, 25114.00
212.4880, 29865.00
213.7090, 32041.00
214.9300, 30294.00
216.1510, 25161.00
217.3710, 19765.00
218.5920, 15441.00
219.8120, 12810.00
221.0320, 10888.00
222.2520, 9727.000
223.4720, 9043.000
224.6910, 8666.000
225.9110, 8330.000
227.1300, 8126.000
228.3490, 7790.000
229.5680, 7752.000
230.7870, 7981.000
232.0050, 7889.000
233.2240, 7849.000
234.4420, 7931.000
235.6600, 7815.000
236.8780, 7975.000
238.0960, 7840.000
239.3140, 7617.000
240.5310, 7852.000
241.7490, 7649.000
242.9660, 7759.000
244.1830, 7797.000
245.4000, 7993.000
246.6160, 7645.000
247.8330, 7823.000
249.0490, 7814.000
250.2660, 7980.000
251.4820, 7976.955
252.6980, 7780.000
253.9130, 7970.000
255.1290, 7863.000
256.3440, 7835.000
257.5600, 8039.000
258.7750, 7778.000
259.9900, 7951.000
261.2040, 7904.000
262.4190, 7971.000
263.6330, 7964.000
264.8480, 7963.000
266.0620, 8043.000
267.2760, 7981.000
268.4900, 8089.000
269.7030, 7941.000
270.9170, 7946.000
272.1300, 7973.000
273.3430, 8094.000
274.5560, 8037.000
275.7690, 8069.000
276.9820, 7921.000
278.1940, 7915.000
279.4070, 8050.000
280.6190, 8156.000
281.8310, 7930.000
283.0430, 8015.000
284.2550, 8093.000
285.4660, 8043.000
286.6770, 8089.000
287.8890, 8234.000
289.1000, 7976.000
290.3110, 8175.000
291.5210, 8152.000
292.7320, 8166.000
293.9420, 8115.000
295.1530, 8128.000
296.3630, 8198.000
297.5730, 8180.000
298.7830, 8303.000
299.9920, 8224.000
301.2020, 8497.000
302.4110, 8359.000
303.6200, 8482.000
304.8290, 8320.000
306.0380, 8292.000
307.2470, 8366.000
308.4550, 8437.000
309.6630, 8432.000
310.8720, 8685.000
312.0800, 8914.000
313.2880, 8984.000
314.4950, 9203.000
315.7030, 9653.000
316.9100, 10223.00
318.1170, 10801.00
319.3240, 11481.00
320.5310, 12539.00
321.7380, 13672.00
322.9450, 15089.00
324.1510, 16935.00
325.3570, 18606.00
326.5630, 21243.00
327.7690, 24316.00
328.9750, 27822.00
330.1810, 29877.00
331.3860, 28664.00
332.5910, 25489.00
333.7960, 21660.00
335.0010, 18197.00
336.2060, 15244.00
337.4110, 13187.00
338.6150, 11999.00
339.8200, 10970.00
341.0240, 10349.00
342.2280, 9917.000
343.4320, 9717.000
344.6350, 9403.000
345.8390, 9245.000
347.0420, 9370.000
348.2450, 9176.000
349.4480, 9051.000
350.6510, 9119.000
351.8540, 9021.000
353.0560, 9037.000
354.2590, 9118.000
355.4610, 9112.000
356.6630, 9111.376
357.8650, 9047.000
359.0670, 9061.000
360.2680, 8993.000
361.4700, 8948.000
362.6710, 8950.058
363.8720, 8958.000
365.0730, 8981.000
366.2740, 9026.000
367.4740, 9146.000
368.6750, 9092.000
369.8750, 9109.000
371.0750, 9024.000
372.2750, 9182.000
373.4750, 8969.000
374.6740, 9111.000
375.8740, 9103.000
377.0730, 9012.000
378.2720, 8992.000
379.4710, 9094.000
380.6700, 9196.000
381.8690, 9169.773
383.0670, 9188.000
384.2660, 9183.000
385.4640, 9198.000
386.6620, 9242.000
387.8600, 9145.000
389.0570, 9203.000
390.2550, 9031.000
391.4520, 9279.000
392.6490, 9194.000
393.8460, 9276.000
395.0430, 9316.000
396.2400, 9172.000
397.4370, 9350.000
398.6330, 9133.000
399.8290, 9243.000
401.0250, 9323.000
402.2210, 9330.000
403.4170, 9423.000
404.6130, 9469.000
405.8080, 9340.000
407.0030, 9305.000
408.1980, 9310.667
409.3930, 9180.000
410.5880, 9359.000
411.7830, 9308.000
412.9770, 9435.000
414.1720, 9408.000
415.3660, 9273.000
416.5600, 9451.000
417.7530, 9334.000
418.9470, 9378.000
420.1410, 9410.000
421.3340, 9275.000
422.5270, 9414.000
423.7200, 9562.000
424.9130, 9464.000
426.1060, 9452.000
427.2980, 9529.000
428.4900, 9578.000
429.6830, 9426.000
430.8750, 9480.000
432.0670, 9708.000
433.2580, 9518.000
434.4500, 9473.000
435.6410, 9658.000
436.8320, 9655.000
438.0240, 9739.000
439.2140, 9754.731
440.4050, 9607.000
441.5960, 9762.000
442.7860, 9653.000
443.9760, 9717.000
445.1670, 9622.000
446.3560, 9694.000
447.5460, 9673.000
448.7360, 9832.000
449.9250, 9835.000
451.1150, 9741.000
452.3040, 9733.000
453.4930, 9968.000
454.6810, 9790.000
455.8700, 9842.000
457.0590, 9883.000
458.2470, 9818.000
459.4350, 9952.000
460.6230, 9928.000
461.8110, 9972.000
462.9980, 10172.00
464.1860, 9974.000
465.3730, 9921.000
466.5600, 10152.00
467.7470, 10047.00
468.9340, 9846.000
470.1210, 9918.000
471.3080, 10102.00
472.4940, 9911.000
473.6800, 10036.00
474.8660, 10069.00
476.0520, 10009.00
477.2380, 10003.00
478.4230, 10110.00
479.6090, 10070.00
480.7940, 10123.32
481.9790, 10033.00
483.1640, 10146.00
484.3490, 10101.00
485.5330, 10027.00
486.7180, 10117.00
487.9020, 10151.00
489.0860, 9993.000
490.2700, 10107.00
491.4540, 10271.00
492.6370, 10126.00
493.8210, 10148.00
495.0040, 10208.00
496.1870, 10282.00
497.3700, 10285.00
498.5530, 10330.94
499.7360, 10248.00
500.9180, 10379.00
502.1000, 10247.00
503.2830, 10272.00
504.4650, 10349.00
505.6460, 10336.00
506.8280, 10369.55
508.0100, 10484.00
509.1910, 10445.00
510.3720, 10500.59
511.5530, 10456.00
512.7340, 10534.00
513.9150, 10496.00
515.0950, 10501.00
516.2760, 10349.00
517.4560, 10485.00
518.6360, 10529.00
519.8160, 10594.00
520.9950, 10427.00
522.1750, 10586.00
523.3540, 10598.00
524.5340, 10470.00
525.7130, 10706.00
526.8920, 10742.00
528.0700, 10675.00
529.2490, 10750.00
530.4270, 10583.00
531.6060, 10636.00
532.7840, 10512.00
533.9620, 10634.00
535.1390, 10837.00
536.3170, 10770.00
537.4940, 10647.00
538.6720, 10564.00
539.8490, 10706.00
541.0260, 10736.00
542.2030, 10741.00
543.3790, 10832.00
544.5560, 10903.00
545.7320, 10733.00
546.9080, 10760.00
548.0840, 10679.00
549.2600, 10671.00
550.4360, 10785.00
551.6110, 10788.00
552.7860, 10840.00
553.9620, 10859.00
555.1370, 10832.00
556.3110, 10745.00
557.4860, 10839.00
558.6610, 10799.64
559.8350, 10993.00
561.0090, 10860.00
562.1830, 10922.00
563.3570, 11027.00
564.5310, 10854.00
565.7040, 10959.00
566.8780, 11071.00
568.0510, 10821.00
569.2240, 10901.00
570.3970, 10976.00
571.5700, 11032.00
572.7420, 11056.00
573.9150, 11109.00
575.0870, 11129.00
576.2590, 11009.00
577.4310, 11069.00
578.6030, 10914.00
579.7740, 11074.00
580.9460, 11193.00
582.1170, 11145.00
583.2880, 11241.00
584.4590, 11274.00
585.6300, 11255.00
586.8010, 11362.00
587.9710, 11214.00
589.1410, 11287.00
590.3110, 11290.00
591.4810, 11340.00
592.6510, 11293.00
593.8210, 11301.00
594.9900, 11225.00
596.1600, 11348.00
597.3290, 11340.00
598.4980, 11304.00
599.6670, 11435.00
600.8350, 11383.00
602.0040, 11405.00
603.1720, 11538.00
604.3400, 11410.00
605.5080, 11500.00
606.6760, 11564.00
607.8440, 11534.00
609.0120, 11433.00
610.1790, 11530.00
611.3460, 11574.00
612.5130, 11426.00
613.6800, 11610.00
614.8470, 11526.00
616.0130, 11478.00
617.1800, 11669.00
618.3460, 11702.00
619.5120, 11651.00
620.6780, 11683.00
621.8440, 11754.00
623.0090, 11764.00
624.1750, 11832.00
625.3400, 11855.30
626.5050, 11853.00
627.6700, 11917.00
628.8350, 11835.00
629.9990, 11877.00
631.1640, 11858.00
632.3280, 11932.00
633.4920, 11712.00
634.6560, 11892.00
635.8200, 11732.00
636.9840, 11838.00
638.1470, 11948.00
639.3100, 11825.00
640.4730, 11823.00
641.6360, 12065.00
642.7990, 12013.00
643.9620, 11882.00
645.1240, 12097.00
646.2870, 12100.00
647.4490, 12275.00
648.6110, 12253.00
649.7730, 12144.00
650.9340, 12164.00
652.0960, 12252.00
653.2570, 12222.94
654.4180, 12253.25
655.5790, 12348.00
656.7400, 12151.00
657.9010, 12321.00
659.0620, 12055.00
660.2220, 12359.00
661.3820, 12296.00
662.5420, 12166.00
663.7020, 12296.00
664.8620, 12339.00
666.0210, 12375.00
667.1810, 12471.00
668.3400, 12338.00
669.4990, 12361.00
670.6580, 12503.00
671.8170, 12491.00
672.9750, 12621.00
674.1340, 12484.00
675.2920, 12608.00
676.4500, 12625.00
677.6080, 12631.00
678.7660, 12650.00
679.9230, 12717.84
681.0810, 12643.00
682.2380, 12838.00
683.3950, 12815.00
684.5520, 12795.00
685.7090, 12870.00
686.8660, 13020.00
688.0220, 12917.00
689.1780, 12963.00
690.3340, 13117.00
691.4900, 13047.00
692.6460, 12996.00
693.8020, 13044.00
694.9570, 13091.00
696.1130, 13254.00
697.2680, 13482.00
698.4230, 13367.00
699.5780, 13365.00
700.7320, 13576.00
701.8870, 13595.00
703.0410, 13740.00
704.1950, 13582.00
705.3490, 13867.00
706.5030, 13963.00
707.6570, 13936.00
708.8110, 14214.00
709.9640, 14292.00
711.1170, 14273.00
712.2700, 14583.00
713.4230, 14781.00
714.5760, 15060.00
715.7280, 15280.00
716.8810, 15424.00
718.0330, 15817.00
719.1850, 16449.00
720.3370, 16781.00
721.4890, 17582.00
722.6400, 18055.00
723.7920, 18792.00
724.9430, 19601.00
726.0940, 20748.00
727.2450, 21780.00
728.3960, 23154.00
729.5460, 24540.00
730.6970, 25865.00
731.8470, 27671.00
732.9970, 29166.00
734.1470, 30866.00
735.2970, 32778.00
736.4460, 34422.00
737.5960, 35235.00
738.7450, 36422.00
739.8940, 36321.00
741.0430, 35364.00
742.1920, 34057.00
743.3410, 32110.00
744.4890, 29712.00
745.6370, 27595.00
746.7850, 25504.00
747.9330, 23802.00
749.0810, 21873.00
750.2290, 20488.00
751.3760, 19398.00
752.5240, 18226.00
753.6710, 17699.00
754.8180, 16838.00
755.9650, 16185.00
757.1110, 15855.00
758.2580, 15231.00
759.4040, 15089.00
760.5510, 14493.00
761.6970, 14336.00
762.8420, 14019.00
763.9880, 13839.00
765.1340, 13662.00
766.2790, 13577.00
767.4240, 13345.00
768.5690, 13199.00
769.7140, 13364.00
770.8590, 13221.00
772.0030, 12942.00
773.1480, 13092.00
774.2920, 12948.00
775.4360, 12944.00
776.5800, 13064.00
777.7240, 13123.00
778.8670, 12980.00
780.0110, 13044.00
781.1540, 13021.00
782.2970, 13026.00
783.4400, 13001.00
784.5830, 13018.18
785.7250, 13126.00
786.8680, 13081.00
788.0100, 13127.20
789.1520, 13223.00
790.2940, 13071.00
791.4360, 13086.00
792.5780, 12935.00
793.7190, 13194.00
794.8600, 13273.00
796.0010, 13260.00
797.1420, 13129.00
798.2830, 13189.00
799.4240, 13154.00
800.5640, 13108.00
801.7050, 13104.00
802.8450, 13084.00
803.9850, 13383.00
805.1250, 13046.00
806.2640, 13364.00
807.4040, 13021.00
808.5430, 13156.00
809.6820, 13172.00
810.8210, 13050.00
811.9600, 13299.00
813.0990, 13282.00
814.2370, 13266.00
815.3760, 13130.00
816.5140, 13331.00
817.6520, 13279.00
818.7900, 13300.00
819.9270, 13374.00
821.0650, 13369.00
822.2020, 13345.00
823.3390, 13185.00
824.4760, 13375.00
825.6130, 13470.00
826.7500, 13564.00
827.8870, 13397.00
829.0230, 13425.00
830.1590, 13387.00
831.2950, 13421.00
832.4310, 13356.00
833.5670, 13408.00
834.7030, 13618.00
835.8380, 13539.00
836.9730, 13578.00
838.1080, 13522.00
839.2430, 13526.00
840.3780, 13532.01
841.5130, 13591.00
842.6470, 13539.00
843.7810, 13572.00
844.9150, 13574.04
846.0490, 13561.00
847.1830, 13689.00
848.3170, 13690.00
849.4500, 13835.00
850.5830, 13614.00
851.7160, 13669.00
852.8490, 13745.00
853.9820, 13686.00
855.1150, 13717.00
856.2470, 13790.00
857.3800, 13939.00
858.5120, 13923.00
859.6440, 13819.00
860.7760, 14030.00
861.9070, 13950.00
863.0390, 14103.00
864.1700, 13819.00
865.3010, 14099.00
866.4320, 13980.00
867.5630, 13895.00
868.6940, 13984.00
869.8240, 13835.00
870.9540, 13992.00
872.0850, 13937.00
873.2150, 14021.00
874.3450, 13963.00
875.4740, 14062.00
876.6040, 14018.00
877.7330, 13989.00
878.8620, 13974.00
879.9910, 14243.00
881.1200, 14221.00
882.2490, 14055.00
883.3770, 14156.00
884.5060, 13860.00
885.6340, 14287.00
886.7620, 14017.00
887.8900, 14250.00
889.0180, 14057.00
890.1450, 14102.00
891.2730, 14126.00
892.4000, 14299.00
893.5270, 14214.00
894.6540, 14206.00
895.7810, 14369.00
896.9070, 14093.00
898.0340, 14350.00
899.1600, 14267.00
900.2860, 14115.00
901.4120, 14257.00
902.5380, 14298.00
903.6630, 14254.00
904.7890, 14339.00
905.9140, 14327.00
907.0390, 14247.00
908.1640, 14349.00
909.2890, 14368.00
910.4130, 14329.00
911.5380, 14353.00
912.6620, 14414.00
913.7860, 14305.00
914.9100, 14452.00
916.0340, 14261.00
917.1580, 14463.00
918.2810, 14425.00
919.4040, 14289.00
920.5280, 14630.00
921.6510, 14770.00
922.7730, 14824.00
923.8960, 14634.00
925.0180, 14479.00
926.1410, 14420.00
927.2630, 14358.00
928.3850, 14508.00
929.5070, 14665.00
930.6280, 14629.00
931.7500, 14691.00
932.8710, 14621.00
933.9920, 14484.00
935.1130, 14582.00
936.2340, 14618.00
937.3550, 14739.00
938.4760, 14863.00
939.5960, 14735.00
940.7160, 14832.00
941.8360, 14875.00
942.9560, 14803.00
944.0760, 14710.00
945.1950, 14829.00
946.3150, 14579.00
947.4340, 14797.00
948.5530, 14827.00
949.6720, 14957.00
950.7900, 14783.00
951.9090, 14921.00
953.0270, 14976.00
954.1460, 14963.00
955.2640, 14991.00
956.3820, 14970.00
957.4990, 14965.52
958.6170, 14964.00
959.7340, 14973.00
960.8520, 15023.00
961.9690, 15104.00
963.0860, 15012.00
964.2020, 14983.00
965.3190, 15141.00
966.4350, 15180.00
967.5520, 15048.00
968.6680, 15063.00
969.7840, 15067.00
970.8990, 15095.09
972.0150, 15131.38
973.1310, 15154.51
974.2460, 15233.00
975.3610, 15243.00
976.4760, 15313.00
977.5910, 15406.00
978.7050, 15221.00
979.8200, 15226.00
980.9340, 15503.00
982.0480, 15246.00
983.1620, 15170.00
984.2760, 15226.00
985.3900, 15445.00
986.5030, 15527.00
987.6160, 15467.00
988.7300, 15443.00
989.8430, 15391.00
990.9550, 15393.00
992.0680, 15408.00
993.1810, 15286.00
994.2930, 15477.00
995.4050, 15373.00
996.5170, 15516.00
997.6290, 15675.00
998.7410, 15358.00
999.8520, 15544.00
1000.964, 15694.00
1002.075, 15657.00
1003.186, 15784.00
1004.297, 15752.00
1005.407, 15618.00
1006.518, 15632.00
1007.628, 15457.00
1008.738, 15517.00
1009.848, 15591.00
1010.958, 15359.00
1012.068, 15517.00
1013.178, 15527.00
1014.287, 15634.00
1015.396, 15370.00
1016.505, 15564.00
1017.614, 15582.00
1018.723, 15395.00
1019.831, 15605.00
1020.940, 15655.00
1022.048, 15456.00
1023.156, 15697.00
1024.264, 15764.00
1025.372, 15561.00
1026.479, 15722.00
1027.587, 15796.00
1028.694, 15985.00
1029.801, 16135.00
1030.908, 16273.00
1032.015, 16403.00
1033.121, 16415.00
1034.228, 16500.00
1035.334, 16720.00
1036.440, 17055.00
1037.546, 16908.00
1038.652, 17160.00
1039.758, 16955.00
1040.863, 17652.00
1041.968, 17768.00
1043.074, 17831.00
1044.178, 18174.00
1045.283, 18402.00
1046.388, 18418.00
1047.492, 18794.00
1048.597, 19091.00
1049.701, 19467.00
1050.805, 19846.00
1051.909, 20244.00
1053.012, 20429.00
1054.116, 20889.00
1055.219, 21317.00
1056.322, 21742.48
1057.425, 22426.00
1058.528, 22824.00
1059.631, 23428.00
1060.733, 24148.00
1061.836, 24788.00
1062.938, 25818.00
1064.040, 26439.00
1065.142, 28105.00
1066.243, 29069.00
1067.345, 30757.00
1068.446, 32235.00
1069.547, 34269.00
1070.648, 36748.00
1071.749, 39067.00
1072.850, 42396.00
1073.951, 45892.00
1075.051, 49700.00
1076.151, 54160.00
1077.251, 59597.00
1078.351, 66007.00
1079.451, 73100.00
1080.550, 82925.00
1081.650, 94706.00
1082.749, 109534.0
1083.848, 128612.0
1084.947, 150798.0
1086.046, 178634.0
1087.144, 212572.0
1088.243, 251221.0
1089.341, 297115.0
1090.439, 347931.0
1091.537, 398783.0
1092.635, 443699.0
1093.732, 480840.0
1094.830, 497825.0
1095.927, 490199.0
1097.024, 465583.0
1098.121, 423445.0
1099.218, 377025.0
1100.314, 330677.0
1101.411, 288543.0
1102.507, 252690.0
1103.603, 220672.0
1104.699, 194389.0
1105.795, 170730.0
1106.890, 149230.0
1107.986, 131823.0
1109.081, 114969.0
1110.176, 100800.0
1111.271, 87864.00
1112.366, 77385.00
1113.461, 67946.00
1114.555, 59810.00
1115.649, 53141.00
1116.744, 47293.00
1117.838, 42485.00
1118.931, 38470.00
1120.025, 35377.00
1121.119, 32686.00
1122.212, 30708.00
1123.305, 28677.00
1124.398, 27247.00
1125.491, 25945.00
1126.584, 24833.00
1127.676, 23876.15
1128.768, 23196.00
1129.861, 22444.00
1130.953, 21820.00
1132.044, 21479.00
1133.136, 21029.00
1134.228, 20638.00
1135.319, 20342.00
1136.410, 19773.00
1137.501, 19584.00
1138.592, 19587.00
1139.683, 19046.00
1140.773, 18970.00
1141.864, 19050.00
1142.954, 18703.00
1144.044, 18595.00
1145.134, 18331.00
1146.224, 18286.00
1147.313, 17979.00
1148.402, 18056.00
1149.492, 18023.00
1150.581, 17729.00
1151.670, 17729.00
1152.758, 17677.00
1153.847, 17568.00
1154.935, 17473.00
1156.024, 17456.73
1157.112, 17352.00
1158.200, 17449.00
1159.287, 17382.00
1160.375, 17436.00
1161.462, 17353.00
1162.550, 17268.00
1163.637, 17123.00
1164.724, 17138.00
1165.810, 17285.00
1166.897, 17253.00
1167.983, 17183.00
1169.070, 17037.00
1170.156, 17015.00
1171.242, 17137.00
1172.327, 17262.00
1173.413, 16886.00
1174.499, 17062.00
1175.584, 17022.00
1176.669, 17144.00
1177.754, 17105.00
1178.839, 17185.00
1179.923, 16929.00
1181.008, 16999.00
1182.092, 16965.00
1183.176, 17032.00
1184.260, 16985.00
1185.344, 17004.00
1186.428, 16990.00
1187.511, 16984.00
1188.595, 16903.00
1189.678, 16956.00
1190.761, 16926.00
1191.843, 16924.00
1192.926, 16786.00
1194.009, 16991.00
1195.091, 16803.00
1196.173, 16913.00
1197.255, 17041.00
1198.337, 16895.00
1199.419, 17062.00
1200.500, 17074.00
1201.582, 16975.00
1202.663, 16925.00
1203.744, 16992.00
1204.825, 17095.00
1205.905, 16769.00
1206.986, 17128.00
1208.066, 16967.00
1209.146, 16913.00
1210.226, 17013.00
1211.306, 16930.00
1212.386, 16867.00
1213.466, 16876.00
1214.545, 17033.00
1215.624, 16883.00
1216.703, 17090.00
1217.782, 16892.00
1218.861, 17057.00
1219.939, 17145.00
1221.018, 16975.00
1222.096, 16978.00
1223.174, 16961.00
1224.252, 16935.00
1225.330, 16999.00
1226.407, 16995.00
1227.485, 17236.00
1228.562, 17010.00
1229.639, 17214.00
1230.716, 17049.00
1231.793, 17005.00
1232.869, 17095.00
1233.946, 17070.00
1235.022, 17101.94
1236.098, 17131.00
1237.174, 17178.00
1238.250, 17163.00
1239.325, 17246.00
1240.401, 17204.00
1241.476, 17125.00
1242.551, 17172.90
1243.626, 17108.00
1244.701, 17162.00
1245.776, 17141.26
1246.850, 17139.46
1247.924, 17115.00
1248.999, 17141.00
1250.073, 17112.03
1251.146, 17100.00
1252.220, 17170.00
1253.293, 17189.00
1254.367, 17292.00
1255.440, 17348.00
1256.513, 17343.00
1257.586, 17208.00
1258.658, 17379.00
1259.731, 17307.00
1260.803, 17349.00
1261.875, 17349.00
1262.947, 17420.00
1264.019, 17374.00
1265.091, 17464.00
1266.162, 17507.00
1267.234, 17361.00
1268.305, 17602.00
1269.376, 17466.00
1270.447, 17391.00
1271.517, 17496.00
1272.588, 17578.00
1273.658, 17400.00
1274.729, 17693.00
1275.799, 17621.00
1276.868, 17307.00
1277.938, 17464.00
1279.008, 17381.00
1280.077, 17637.00
1281.146, 17368.00
1282.215, 17468.00
1283.284, 17520.00
1284.353, 17553.00
1285.421, 17574.00
1286.490, 17543.00
1287.558, 17508.00
1288.626, 17511.52
1289.694, 17538.00
1290.762, 17508.00
1291.829, 17480.00
1292.897, 17516.00
1293.964, 17494.00
1295.031, 17601.00
1296.098, 17562.00
1297.165, 17622.00
1298.231, 17599.00
1299.298, 17586.73
1300.364, 17602.00
1301.430, 17580.00
1302.496, 17595.00
1303.562, 17662.00
1304.627, 17617.00
1305.693, 17632.00
1306.758, 17636.00
1307.823, 17620.00
1308.888, 17520.00
1309.953, 17573.00
1311.018, 17527.08
1312.082, 17759.00
1313.146, 17580.00
1314.210, 17729.00
1315.274, 17927.00
1316.338, 17645.00
1317.402, 17587.00
1318.465, 17644.00
1319.529, 17654.00
1320.592, 17615.00
1321.655, 17718.00
1322.718, 17793.00
1323.780, 17581.00
1324.843, 17861.00
1325.905, 17585.00
1326.967, 17731.00
1328.029, 17772.00
1329.091, 17679.00
1330.153, 17805.00
1331.214, 17508.00
1332.275, 17607.00
1333.337, 17688.00
1334.398, 17623.00
1335.458, 17947.00
1336.519, 17876.00
1337.580, 17803.00
1338.640, 17820.00
1339.700, 17636.00
1340.760, 17730.00
1341.820, 17825.00
1342.880, 17952.00
1343.939, 17860.00
1344.999, 17650.00
1346.058, 17677.00
1347.117, 17596.00
1348.176, 17744.00
1349.235, 17784.00
1350.293, 17775.00
1351.351, 17788.00
1352.410, 17844.00
1353.468, 17716.00
1354.526, 17731.00
1355.583, 17756.74
1356.641, 17942.00
1357.698, 17823.00
1358.756, 17961.00
1359.813, 17987.00
1360.869, 17929.00
1361.926, 18066.00
1362.983, 17718.00
1364.039, 17963.00
1365.095, 17979.00
1366.152, 17748.00
1367.207, 17971.00
1368.263, 17845.00
1369.319, 18007.00
1370.374, 17786.00
1371.430, 17904.00
1372.485, 17862.00
1373.540, 18113.00
1374.594, 17958.00
1375.649, 17963.00
1376.703, 17955.00
1377.758, 17929.00
1378.812, 17980.00
1379.866, 18133.00
1380.920, 17925.00
1381.973, 18132.00
1383.027, 18070.00
1384.080, 17998.00
1385.133, 18008.00
1386.186, 17818.00
1387.239, 18049.00
1388.291, 18165.00
1389.344, 18233.00
1390.396, 18038.00
1391.448, 18020.00
1392.500, 18109.00
1393.552, 18061.00
1394.604, 17990.00
1395.655, 18089.00
1396.707, 18072.00
1397.758, 18098.00
1398.809, 18026.00
1399.860, 18109.00
1400.910, 18158.00
1401.961, 17956.00
1403.011, 18081.00
1404.061, 18296.00
1405.111, 18188.00
1406.161, 18110.00
1407.211, 18117.00
1408.260, 18144.00
1409.310, 17980.00
1410.359, 18203.00
1411.408, 18153.00
1412.457, 18369.00
1413.506, 18215.00
1414.554, 18325.00
1415.603, 18174.00
1416.651, 18379.00
1417.699, 18409.00
1418.747, 18332.00
1419.794, 18425.37
1420.842, 18166.00
1421.889, 18502.00
1422.937, 18215.00
1423.984, 18378.00
1425.031, 18363.00
1426.077, 18473.00
1427.124, 18428.00
1428.170, 18428.00
1429.217, 18425.00
1430.263, 18473.27
1431.309, 18508.28
1432.354, 18576.00
1433.400, 18716.00
1434.445, 18701.00
1435.491, 18996.00
1436.536, 19159.00
1437.581, 19410.00
1438.625, 19828.00
1439.670, 20348.00
1440.714, 20987.00
1441.759, 21892.00
1442.803, 22864.00
1443.847, 24326.00
1444.890, 25184.00
1445.934, 24876.00
1446.978, 24042.00
1448.021, 22908.00
1449.064, 21802.00
1450.107, 21034.00
1451.150, 20701.00
1452.192, 20487.00
1453.235, 20108.00
1454.277, 19781.00
1455.319, 19825.00
1456.361, 19797.00
1457.403, 19592.00
1458.445, 19687.00
1459.486, 19281.00
1460.528, 19407.00
1461.569, 19735.00
1462.610, 19844.00
1463.651, 19431.00
1464.691, 19480.00
1465.732, 19210.00
1466.772, 19412.00
1467.812, 19167.00
1468.852, 19283.00
1469.892, 19508.00
1470.932, 19249.00
1471.971, 19236.00
1473.011, 19189.00
1474.050, 19317.00
1475.089, 19278.90
1476.128, 19181.00
1477.166, 19310.00
1478.205, 19236.00
1479.243, 19240.00
1480.282, 19273.00
1481.320, 19229.00
1482.357, 19178.00
1483.395, 19315.00
1484.433, 19121.00
1485.470, 19053.00
1486.507, 19167.00
1487.544, 19002.00
1488.581, 19219.00
1489.618, 19120.00
1490.655, 18852.00
1491.691, 19132.00
1492.727, 18953.00
1493.763, 18940.00
1494.799, 18812.00
1495.835, 18800.79
1496.871, 18834.79
1497.906, 18858.00
1498.941, 18855.00
1499.976, 18998.00
1501.011, 18804.00
1502.046, 18876.00
1503.081, 18779.00
1504.115, 18694.00
1505.149, 18954.00
1506.183, 18723.00
1507.217, 18594.00
1508.251, 18932.00
1509.285, 18750.61
1510.318, 18802.00
1511.352, 18848.00
1512.385, 18728.00
1513.418, 18893.00
1514.450, 19080.00
1515.483, 18979.00
1516.516, 18998.00
1517.548, 18733.00
1518.580, 18964.00
1519.612, 18868.00
1520.644, 18947.00
1521.675, 18895.00
1522.707, 18902.00
1523.738, 18991.00
1524.769, 18982.00
1525.800, 18828.00
1526.831, 18699.00
1527.862, 18742.08
1528.892, 18776.56
1529.923, 18801.00
1530.953, 18965.00
1531.983, 19008.00
1533.013, 18954.00
1534.042, 19090.00
1535.072, 19067.00
1536.101, 19033.00
1537.131, 19108.00
1538.160, 19137.00
1539.188, 19134.58
1540.217, 19127.00
1541.246, 19105.00
1542.274, 19069.24
1543.302, 19070.63
1544.330, 19025.00
1545.358, 19053.00
1546.386, 19141.00
1547.413, 19126.00
1548.441, 19129.71
1549.468, 19013.00
1550.495, 19110.00
1551.522, 19117.00
1552.549, 19175.00
1553.575, 19066.00
1554.602, 19138.50
1555.628, 19156.95
1556.654, 19156.00
1557.680, 19225.00
1558.706, 19148.00
1559.731, 19120.00
1560.757, 19212.00
1561.782, 19046.00
1562.807, 19028.00
1563.832, 19233.00
1564.857, 19455.00
1565.881, 19183.00
1566.906, 19292.00
1567.930, 19121.00
1568.954, 19419.00
1569.978, 19603.00
1571.002, 19266.00
1572.025, 19441.00
1573.049, 19426.00
1574.072, 19500.00
1575.095, 19453.00
1576.118, 19264.00
1577.141, 19319.00
##END=



