##NAMES=Magnesio-hastingsite
##RRUFFID=R040010
##IDEAL CHEMISTRY=NaCa_2_(Mg_4_Fe^3+^)Si_6_Al_2_O_22_(OH)_2_
##LOCALITY=Amity, New York, USA
##OWNER=RRUFF
##SOURCE=University of Arizona Mineral Museum
##DESCRIPTION=Group of black prismatic crystals
##STATUS=The identification of this mineral has been confirmed by X-ray diffraction and chemical analysis
##URL=rruff.info/R040010
##MEASURED CHEMISTRY=(Na_0.50_K_0.43_[box]_0.07_)_Σ=1_(Ca_1.77_Na_0.23_)_Σ=2_(Mg_1.74_Fe_1.22_Fe^3+^_0.79_Mn_0.57_Al_0.30_Zn_0.25_Ti_0.13_)_Σ=5_(Si_5.95_Al_2.05_)_Σ=8_O_22_((OH)_1.75_F_0.22_Cl_0.03_)_Σ=2_; OH estimated by charge balance
##PIN_ID=L00374
##ORIENTATION=Laser parallel to a [1 0 0]. Fiducial mark perpendicular to laser is parallel to -b* (0 -1 0)
168.3130, 33861.00
169.5440, 33957.00
170.7750, 34125.00
172.0050, 34185.00
173.2350, 34250.00
174.4650, 34402.00
175.6950, 34269.00
176.9250, 34461.00
178.1550, 34693.00
179.3840, 35017.00
180.6130, 35103.00
181.8420, 35362.00
183.0710, 35477.00
184.3000, 35704.00
185.5280, 35795.00
186.7570, 35814.00
187.9850, 36060.00
189.2130, 36011.00
190.4400, 35906.00
191.6680, 35981.00
192.8960, 36041.00
194.1230, 35939.00
195.3500, 36206.00
196.5770, 36172.00
197.8030, 36896.00
199.0300, 36594.00
200.2560, 36640.00
201.4830, 36904.00
202.7090, 36574.00
203.9340, 35611.00
205.1600, 34634.00
206.3860, 34209.00
207.6110, 33885.00
208.8360, 33945.00
210.0610, 34333.00
211.2860, 34604.00
212.5100, 34855.00
213.7350, 35222.00
214.9590, 35252.00
216.1830, 35266.00
217.4070, 35555.00
218.6310, 35857.00
219.8540, 36118.00
221.0780, 36440.00
222.3010, 36516.00
223.5240, 36824.00
224.7470, 37123.00
225.9690, 37067.00
227.1920, 37218.62
228.4140, 36777.00
229.6360, 37169.00
230.8580, 36826.00
232.0800, 36672.00
233.3020, 36783.00
234.5230, 36507.00
235.7440, 36770.00
236.9650, 36293.00
238.1860, 36430.00
239.4070, 36247.00
240.6280, 36199.00
241.8480, 36087.00
243.0680, 36104.00
244.2880, 35912.24
245.5080, 35660.00
246.7280, 35560.00
247.9470, 35563.00
249.1660, 35399.00
250.3860, 35737.00
251.6040, 35539.00
252.8230, 35532.00
254.0420, 35283.08
255.2600, 35511.16
256.4790, 35654.21
257.6970, 35716.74
258.9150, 35457.72
260.1320, 35613.90
261.3500, 35603.70
262.5670, 35586.64
263.7840, 35801.26
265.0010, 35588.98
266.2180, 35799.91
267.4350, 35841.91
268.6510, 35781.00
269.8680, 35888.80
271.0840, 36041.00
272.3000, 36063.00
273.5160, 36069.00
274.7310, 36038.00
275.9470, 36128.00
277.1620, 36361.00
278.3770, 36518.00
279.5920, 36567.00
280.8070, 36684.00
282.0210, 36536.00
283.2360, 36895.00
284.4500, 37169.00
285.6640, 37276.00
286.8780, 37159.00
288.0920, 37534.00
289.3050, 37409.00
290.5180, 37782.00
291.7320, 37923.00
292.9450, 37836.00
294.1570, 37753.00
295.3700, 37875.00
296.5830, 37885.00
297.7950, 37757.00
299.0070, 37633.00
300.2190, 37663.00
301.4310, 37802.00
302.6420, 37780.00
303.8540, 37553.00
305.0650, 37319.00
306.2760, 37261.00
307.4870, 37335.00
308.6980, 37203.00
309.9080, 37243.00
311.1190, 37163.00
312.3290, 37167.00
313.5390, 37173.00
314.7490, 37155.00
315.9580, 37141.89
317.1680, 37209.00
318.3770, 37099.00
319.5860, 37044.00
320.7950, 37029.64
322.0040, 37192.00
323.2130, 37107.00
324.4210, 37050.00
325.6290, 37185.00
326.8380, 37123.00
328.0460, 37111.00
329.2530, 36917.00
330.4610, 36989.00
331.6680, 37080.00
332.8760, 37116.00
334.0830, 37173.00
335.2890, 37109.00
336.4960, 37235.00
337.7030, 37221.00
338.9090, 37393.00
340.1150, 37397.10
341.3210, 37517.00
342.5270, 37462.00
343.7330, 37371.00
344.9380, 37410.00
346.1440, 37512.00
347.3490, 37533.00
348.5540, 37672.00
349.7590, 37779.00
350.9630, 37833.00
352.1680, 37930.00
353.3720, 37982.61
354.5760, 37904.00
355.7800, 38122.00
356.9840, 38160.00
358.1870, 38310.00
359.3910, 38524.00
360.5940, 38418.00
361.7970, 38569.00
363.0000, 38685.00
364.2030, 38735.00
365.4050, 38812.34
366.6080, 38695.00
367.8100, 38902.00
369.0120, 38891.00
370.2140, 38968.00
371.4150, 39050.00
372.6170, 39064.11
373.8180, 39363.00
375.0190, 39171.00
376.2200, 39299.00
377.4210, 39429.00
378.6220, 39702.00
379.8220, 39667.08
381.0230, 39458.00
382.2230, 39652.00
383.4230, 39551.00
384.6220, 39512.18
385.8220, 39459.66
387.0220, 39160.00
388.2210, 39218.00
389.4200, 39085.00
390.6190, 38967.00
391.8180, 39152.00
393.0160, 39200.00
394.2150, 39147.00
395.4130, 39065.00
396.6110, 39020.00
397.8090, 38699.00
399.0060, 38873.00
400.2040, 38858.00
401.4010, 39058.00
402.5980, 38898.00
403.7950, 38991.00
404.9920, 38900.00
406.1890, 38881.00
407.3860, 39018.00
408.5820, 38813.00
409.7780, 38939.00
410.9740, 39187.00
412.1700, 39056.00
413.3650, 39163.00
414.5610, 39202.00
415.7560, 39465.00
416.9510, 39520.30
418.1460, 39738.00
419.3410, 39713.00
420.5360, 39768.00
421.7300, 39768.00
422.9240, 39827.00
424.1180, 40048.00
425.3120, 40080.21
426.5060, 40239.00
427.7000, 40339.00
428.8930, 40506.00
430.0860, 40541.79
431.2790, 40676.00
432.4720, 40564.00
433.6650, 40599.00
434.8580, 40517.00
436.0500, 40474.00
437.2420, 40479.00
438.4340, 40312.96
439.6260, 40043.00
440.8180, 39970.00
442.0090, 39711.00
443.2010, 39442.00
444.3920, 39622.00
445.5830, 39609.00
446.7740, 39464.00
447.9640, 39674.00
449.1550, 39567.00
450.3450, 39327.00
451.5350, 39219.00
452.7250, 39124.13
453.9150, 39024.00
455.1050, 38988.00
456.2940, 39139.00
457.4830, 39106.46
458.6720, 39048.06
459.8610, 38974.00
461.0500, 39000.00
462.2390, 38761.00
463.4270, 39009.00
464.6150, 38755.00
465.8040, 39172.00
466.9910, 39187.00
468.1790, 38867.00
469.3670, 38918.00
470.5540, 38578.00
471.7410, 38911.00
472.9280, 38764.00
474.1150, 38894.00
475.3020, 39003.00
476.4890, 38996.00
477.6750, 39007.00
478.8610, 39275.00
480.0470, 39230.00
481.2330, 39164.00
482.4190, 39710.00
483.6040, 39620.99
484.7900, 39744.91
485.9750, 39978.00
487.1600, 39920.00
488.3450, 40301.00
489.5290, 40623.00
490.7140, 40617.00
491.8980, 40723.00
493.0820, 41147.00
494.2660, 41255.00
495.4500, 41367.00
496.6340, 41806.00
497.8170, 41880.00
499.0010, 42011.00
500.1840, 42210.00
501.3670, 42325.00
502.5500, 42740.00
503.7320, 42897.00
504.9150, 43135.00
506.0970, 43380.00
507.2790, 43472.00
508.4610, 43638.00
509.6430, 43619.00
510.8250, 43962.00
512.0060, 43906.00
513.1870, 44272.00
514.3680, 44495.32
515.5490, 44819.00
516.7300, 44970.00
517.9110, 45255.00
519.0910, 45302.00
520.2710, 45433.00
521.4510, 45904.00
522.6310, 46197.00
523.8110, 46467.00
524.9910, 46728.00
526.1700, 46727.00
527.3490, 47080.00
528.5280, 47589.00
529.7070, 47725.00
530.8860, 47716.00
532.0650, 47736.00
533.2430, 47938.00
534.4210, 47832.12
535.5990, 47915.00
536.7770, 47817.00
537.9550, 47644.00
539.1320, 47785.00
540.3100, 47518.00
541.4870, 47483.00
542.6640, 47522.00
543.8410, 46944.00
545.0170, 46888.00
546.1940, 46472.00
547.3700, 46587.00
548.5470, 46355.00
549.7230, 46227.00
550.8980, 45903.00
552.0740, 45706.00
553.2500, 45805.00
554.4250, 45576.00
555.6000, 45499.00
556.7750, 45280.00
557.9500, 45174.00
559.1250, 45065.00
560.2990, 44933.29
561.4730, 44732.00
562.6480, 44780.00
563.8220, 44534.00
564.9950, 44538.00
566.1690, 44394.00
567.3430, 44220.00
568.5160, 44160.00
569.6890, 43987.00
570.8620, 43726.00
572.0350, 43736.00
573.2070, 43231.00
574.3800, 43479.00
575.5520, 43097.00
576.7240, 42713.00
577.8960, 42595.00
579.0680, 42399.00
580.2400, 42353.00
581.4110, 42348.00
582.5830, 41901.00
583.7540, 41901.00
584.9250, 41767.36
586.0950, 41532.00
587.2660, 41591.00
588.4370, 41490.00
589.6070, 41347.00
590.7770, 41281.00
591.9470, 41214.00
593.1170, 41107.00
594.2860, 41153.00
595.4560, 41192.00
596.6250, 41035.00
597.7940, 41065.12
598.9630, 41210.00
600.1320, 41003.00
601.3000, 41167.00
602.4690, 41217.00
603.6370, 41220.00
604.8050, 41387.00
605.9730, 41204.00
607.1410, 41382.00
608.3090, 41276.00
609.4760, 41466.00
610.6430, 41840.00
611.8100, 41621.53
612.9770, 41690.07
614.1440, 41455.00
615.3110, 41589.00
616.4770, 41612.00
617.6430, 41906.00
618.8090, 42139.00
619.9750, 41954.00
621.1410, 42071.00
622.3070, 42262.00
623.4720, 42370.00
624.6370, 42618.00
625.8020, 42401.00
626.9670, 42777.00
628.1320, 42867.00
629.2970, 42754.00
630.4610, 43102.00
631.6250, 43162.00
632.7890, 43223.00
633.9530, 43873.00
635.1170, 43653.00
636.2810, 43961.00
637.4440, 43819.00
638.6070, 44036.00
639.7700, 44341.00
640.9330, 44100.00
642.0960, 44369.36
643.2590, 44380.88
644.4210, 44688.00
645.5830, 44544.00
646.7450, 44971.00
647.9070, 45218.00
649.0690, 44964.00
650.2310, 45342.00
651.3920, 45315.00
652.5530, 45722.00
653.7140, 45811.00
654.8750, 46059.59
656.0360, 47099.00
657.1970, 46483.00
658.3570, 46420.00
659.5170, 46417.00
660.6770, 47393.00
661.8370, 48154.00
662.9970, 47103.00
664.1570, 46773.00
665.3160, 46688.00
666.4750, 46463.00
667.6340, 46077.00
668.7930, 46247.00
669.9520, 46189.00
671.1110, 45848.00
672.2690, 45563.00
673.4270, 45624.00
674.5850, 45576.00
675.7430, 45450.00
676.9010, 45364.00
678.0590, 45360.00
679.2160, 45322.00
680.3730, 45827.00
681.5300, 45632.00
682.6870, 45530.00
683.8440, 45506.00
685.0010, 45294.00
686.1570, 45345.00
687.3130, 45010.00
688.4690, 44923.00
689.6250, 44590.00
690.7810, 44204.00
691.9370, 44303.00
693.0920, 44104.00
694.2470, 43895.00
695.4020, 43753.00
696.5570, 43552.00
697.7120, 43563.00
698.8670, 43792.00
700.0210, 43926.00
701.1750, 43961.00
702.3290, 44050.76
703.4830, 43580.00
704.6370, 44108.00
705.7910, 44027.00
706.9440, 44102.00
708.0970, 44444.00
709.2510, 44639.00
710.4030, 44594.00
711.5560, 44685.00
712.7090, 45179.00
713.8610, 45219.42
715.0140, 45579.00
716.1660, 45677.00
717.3180, 45976.00
718.4690, 46212.00
719.6210, 46406.00
720.7730, 46562.00
721.9240, 46721.71
723.0750, 47011.00
724.2260, 46970.00
725.3770, 46997.00
726.5270, 47099.00
727.6780, 47331.00
728.8280, 47348.00
729.9780, 47467.00
731.1280, 47663.00
732.2780, 47590.00
733.4280, 47544.00
734.5770, 48040.00
735.7260, 47865.00
736.8760, 47993.00
738.0250, 47733.00
739.1730, 47539.00
740.3220, 47806.00
741.4700, 47629.00
742.6190, 47601.00
743.7670, 47345.00
744.9150, 47211.00
746.0630, 47032.00
747.2100, 46696.00
748.3580, 46530.00
749.5050, 46311.18
750.6520, 46201.00
751.7990, 45970.00
752.9460, 45752.00
754.0930, 45677.00
755.2390, 45629.00
756.3860, 45147.00
757.5320, 44815.89
758.6780, 44972.21
759.8240, 45043.48
760.9690, 45034.29
762.1150, 44703.52
763.2600, 44788.00
764.4060, 44706.04
765.5510, 44617.29
766.6950, 44760.25
767.8400, 45233.00
768.9850, 45014.00
770.1290, 45158.00
771.2730, 45338.00
772.4170, 45281.00
773.5610, 45227.00
774.7050, 45289.00
775.8480, 45188.00
776.9920, 45068.00
778.1350, 45486.00
779.2780, 45459.00
780.4210, 45364.00
781.5640, 45578.00
782.7060, 45034.00
783.8490, 45277.00
784.9910, 45172.00
786.1330, 45065.00
787.2750, 45023.00
788.4170, 44820.00
789.5580, 44762.39
790.7000, 44721.00
791.8410, 44556.00
792.9820, 44656.00
794.1230, 44545.00
795.2640, 44562.00
796.4040, 44226.00
797.5450, 44440.00
798.6850, 44327.00
799.8250, 44481.00
800.9650, 44804.00
802.1050, 44262.00
803.2450, 44179.00
804.3840, 43873.00
805.5230, 44149.00
806.6630, 43945.00
807.8020, 44149.00
808.9400, 43917.00
810.0790, 43900.00
811.2170, 43961.00
812.3560, 43718.00
813.4940, 44013.00
814.6320, 43737.00
815.7700, 43610.00
816.9070, 43679.00
818.0450, 43677.00
819.1820, 43603.64
820.3190, 43720.00
821.4560, 43511.00
822.5930, 43432.00
823.7300, 43409.00
824.8670, 43371.00
826.0030, 43180.00
827.1390, 43198.33
828.2750, 43333.00
829.4110, 43133.00
830.5470, 43260.00
831.6820, 43256.00
832.8180, 43413.00
833.9530, 43094.00
835.0880, 43158.00
836.2230, 42920.86
837.3580, 43124.43
838.4920, 43242.95
839.6270, 43280.98
840.7610, 42997.45
841.8950, 43129.14
843.0290, 43094.43
844.1630, 43052.89
845.2960, 43243.02
846.4300, 43006.26
847.5630, 43192.71
848.6960, 43454.00
849.8290, 43510.00
850.9620, 43463.00
852.0940, 43866.00
853.2270, 43819.00
854.3590, 43622.00
855.4910, 43600.00
856.6230, 43623.00
857.7550, 43845.00
858.8870, 43830.00
860.0180, 43859.00
861.1500, 43847.00
862.2810, 43753.00
863.4120, 43840.00
864.5430, 43775.00
865.6730, 43800.00
866.8040, 44133.00
867.9340, 43866.00
869.0640, 44166.00
870.1940, 44255.00
871.3240, 44283.00
872.4540, 44156.00
873.5830, 44619.00
874.7130, 44514.00
875.8420, 44665.00
876.9710, 44530.00
878.1000, 44757.00
879.2290, 44779.71
880.3570, 44781.54
881.4860, 44969.00
882.6140, 44781.00
883.7420, 44910.00
884.8700, 44839.00
885.9980, 44922.00
887.1250, 45014.00
888.2530, 45163.00
889.3800, 45219.00
890.5070, 45417.00
891.6340, 45421.59
892.7610, 45409.00
893.8880, 45425.00
895.0140, 45363.00
896.1400, 45281.00
897.2670, 45302.00
898.3930, 45443.00
899.5180, 45550.00
900.6440, 45767.82
901.7700, 45848.45
902.8950, 45942.40
904.0200, 46036.00
905.1450, 45999.00
906.2700, 46024.00
907.3950, 45894.00
908.5190, 45847.00
909.6440, 46301.00
910.7680, 46108.00
911.8920, 46347.00
913.0160, 46457.00
914.1400, 46671.00
915.2630, 46685.00
916.3870, 46722.00
917.5100, 46806.00
918.6330, 46578.00
919.7560, 46833.00
920.8790, 46846.00
922.0010, 46741.00
923.1240, 46990.00
924.2460, 46820.00
925.3680, 46693.00
926.4900, 47045.00
927.6120, 46852.00
928.7340, 47259.00
929.8550, 47392.00
930.9760, 47185.00
932.0980, 47014.00
933.2190, 47212.00
934.3390, 47244.00
935.4600, 47342.00
936.5810, 47485.00
937.7010, 47418.00
938.8210, 47603.00
939.9410, 47553.00
941.0610, 47813.00
942.1810, 47641.00
943.3010, 47924.00
944.4200, 47749.00
945.5390, 47904.00
946.6580, 47934.00
947.7770, 47691.00
948.8960, 47856.40
950.0150, 47804.33
951.1330, 47969.00
952.2510, 47942.00
953.3690, 48063.00
954.4870, 48296.00
955.6050, 48284.00
956.7230, 48488.00
957.8400, 48347.00
958.9580, 48260.00
960.0750, 48611.00
961.1920, 48609.00
962.3090, 48428.00
963.4250, 48650.00
964.5420, 48771.00
965.6580, 48299.00
966.7740, 48579.00
967.8900, 48521.00
969.0060, 48562.00
970.1220, 48667.00
971.2380, 48828.00
972.3530, 48707.00
973.4680, 48757.00
974.5830, 49077.00
975.6980, 49009.00
976.8130, 48963.00
977.9280, 48983.00
979.0420, 49053.00
980.1560, 49278.00
981.2710, 49281.00
982.3850, 49411.13
983.4980, 49474.00
984.6120, 49523.00
985.7260, 49634.00
986.8390, 49556.00
987.9520, 49647.00
989.0650, 49806.00
990.1780, 49738.00
991.2910, 49967.00
992.4030, 50007.00
993.5160, 50157.00
994.6280, 50335.00
995.7400, 50196.00
996.8520, 50602.00
997.9640, 50815.00
999.0750, 50666.00
1000.187, 50706.00
1001.298, 50590.00
1002.409, 50839.00
1003.520, 50777.00
1004.631, 50955.00
1005.741, 50865.00
1006.852, 51055.00
1007.962, 51128.00
1009.072, 51307.00
1010.182, 51188.00
1011.292, 51259.00
1012.402, 51142.00
1013.511, 51221.00
1014.621, 51273.00
1015.730, 51200.00
1016.839, 51013.00
1017.948, 51165.00
1019.056, 51466.00
1020.165, 51214.00
1021.273, 51108.00
1022.382, 51330.00
1023.490, 50986.00
1024.598, 50846.00
1025.706, 50996.00
1026.813, 50912.00
1027.921, 50964.00
1029.028, 51041.00
1030.135, 50982.00
1031.242, 50952.00
1032.349, 50770.00
1033.456, 50809.00
1034.562, 50360.00
1035.668, 50734.00
1036.775, 50577.00
1037.881, 50817.00
1038.987, 50463.00
1040.092, 50547.77
1041.198, 50740.00
1042.303, 50538.00
1043.408, 50387.00
1044.514, 50446.00
1045.618, 50432.00
1046.723, 50449.00
1047.828, 50025.00
1048.932, 49883.00
1050.037, 50135.00
1051.141, 50052.00
1052.245, 50276.00
1053.349, 50027.00
1054.452, 50251.00
1055.556, 50079.00
1056.659, 50030.00
1057.762, 49793.00
1058.865, 49804.00
1059.968, 50068.00
1061.071, 50102.00
1062.174, 50349.00
1063.276, 49955.00
1064.378, 49827.00
1065.480, 49933.00
1066.582, 49781.00
1067.684, 49910.00
1068.786, 49678.00
1069.887, 49874.00
1070.988, 50206.00
1072.090, 50147.00
1073.191, 49794.00
1074.291, 50049.00
1075.392, 50123.00
1076.493, 49730.00
1077.593, 49923.00
1078.693, 49722.00
1079.793, 49970.00
1080.893, 49939.00
1081.993, 49681.00
1083.092, 49524.00
1084.192, 49718.00
1085.291, 49726.00
1086.390, 49734.00
1087.489, 49844.00
1088.588, 49728.00
1089.686, 49574.00
1090.785, 49898.00
1091.883, 49652.00
1092.981, 49296.00
1094.079, 49299.00
1095.177, 49600.00
1096.275, 49359.00
1097.373, 49226.00
1098.470, 49014.00
1099.567, 49030.00
1100.664, 49299.00
1101.761, 49139.00
1102.858, 49059.00
1103.954, 49066.00
1105.051, 48979.00
1106.147, 48411.64
1107.243, 48597.36
1108.339, 48698.02
1109.435, 48718.20
1110.531, 48416.82
1111.626, 48530.66
1112.722, 48478.10
1113.817, 48418.72
1114.912, 48591.01
1116.007, 48336.41
1117.101, 48505.03
1118.196, 48504.70
1119.290, 48581.70
1120.385, 48491.27
1121.479, 48452.55
1122.573, 48581.32
1123.666, 48617.36
1124.760, 48507.66
1125.853, 48589.58
1126.947, 48329.13
1128.040, 48369.12
1129.133, 48538.73
1130.226, 48437.46
1131.318, 48522.45
1132.411, 48536.49
1133.503, 48228.16
1134.596, 48480.48
1135.688, 48490.34
1136.780, 48251.24
1137.871, 48484.37
1138.963, 48279.59
1140.054, 48360.00
1141.146, 48223.59
1142.237, 48427.56
1143.328, 48546.46
1144.419, 48584.88
1145.509, 48301.73
1146.600, 48433.81
1147.690, 48399.48
1148.780, 48358.34
1149.870, 48548.85
1150.960, 48312.47
1152.050, 48499.31
1153.139, 48517.20
1154.229, 48612.43
1155.318, 48540.21
1156.407, 48519.70
1157.496, 48666.68
1158.585, 48720.93
1159.674, 48629.43
1160.762, 48729.55
1161.850, 48487.31
1162.939, 48545.50
1164.027, 48733.30
1165.114, 48650.21
1166.202, 48753.39
1167.290, 48785.64
1168.377, 48495.48
1169.464, 48765.99
1170.551, 48595.00
1171.638, 48624.00
1172.725, 48671.57
1173.812, 48771.00
1174.898, 48812.00
1175.984, 48815.00
1177.071, 48942.00
1178.157, 48687.00
1179.242, 49127.00
1180.328, 49003.00
1181.414, 49477.00
1182.499, 48934.00
1183.584, 48980.00
1184.669, 48987.00
1185.754, 49089.00
1186.839, 48930.00
1187.924, 49195.00
1189.008, 49256.00
1190.092, 49342.00
1191.177, 49073.00
1192.260, 49113.00
1193.344, 48847.00
1194.428, 49348.00
1195.512, 49166.00
1196.595, 49163.00
1197.678, 49068.00
1198.761, 49184.00
1199.844, 49538.00
1200.927, 49245.00
1202.009, 49304.00
1203.092, 49438.00
1204.174, 49255.00
1205.256, 49459.00
1206.338, 49188.00
1207.420, 49461.00
1208.502, 49693.00
1209.583, 49368.00
1210.665, 49474.00
1211.746, 49561.00
1212.827, 49535.00
1213.908, 49640.00
1214.988, 49746.00
1216.069, 49696.00
1217.149, 49971.00
1218.230, 49961.00
1219.310, 49476.00
1220.390, 49773.00
1221.470, 49650.00
1222.549, 49852.00
1223.629, 49913.00
1224.708, 49748.00
1225.787, 50118.00
1226.866, 49932.73
1227.945, 49844.00
1229.024, 49831.00
1230.103, 49892.00
1231.181, 49913.00
1232.259, 49702.00
1233.337, 49969.00
1234.415, 50020.00
1235.493, 49837.00
1236.571, 50070.00
1237.648, 49901.00
1238.726, 50253.00
1239.803, 50129.00
1240.880, 50497.00
1241.957, 50001.00
1243.034, 50393.00
1244.110, 50187.00
1245.187, 50306.00
1246.263, 50425.00
1247.339, 50217.00
1248.415, 50549.00
1249.491, 50275.00
1250.566, 50457.00
1251.642, 50431.00
1252.717, 50422.00
1253.793, 50269.00
1254.868, 50384.00
1255.943, 50205.00
1257.017, 50324.00
1258.092, 50391.00
1259.166, 50225.00
1260.241, 50500.00
1261.315, 50253.00
1262.389, 50511.00
1263.462, 50520.00
1264.536, 50571.00
1265.610, 50488.00
1266.683, 50516.00
1267.756, 50788.00
1268.829, 50589.00
1269.902, 50830.00
1270.975, 50527.00
1272.048, 50567.00
1273.120, 50595.00
1274.192, 50614.00
1275.264, 50794.00
1276.336, 50828.00
1277.408, 50895.00
1278.480, 50791.00
1279.551, 50785.00
1280.623, 50965.00
1281.694, 51062.00
1282.765, 50784.00
1283.836, 51089.00
1284.907, 51016.00
1285.977, 50873.00
1287.048, 50884.00
1288.118, 50856.00
1289.188, 51012.00
1290.258, 50870.00
1291.328, 50787.00
1292.398, 50837.51
1293.467, 51085.00
1294.537, 50885.00
1295.606, 50864.00
1296.675, 50999.00
1297.744, 50900.00
1298.813, 51279.00
1299.882, 51124.00
1300.950, 51030.00
1302.018, 51370.00
1303.086, 51797.00
1304.155, 51066.00
1305.222, 51300.00
1306.290, 51421.00
1307.358, 51239.00
1308.425, 51306.00
1309.492, 51485.00
1310.559, 51260.00
1311.626, 51635.00
1312.693, 51685.00
1313.760, 51595.00
1314.826, 51553.00
1315.893, 51474.00
1316.959, 51547.00
1318.025, 51635.00
1319.091, 51264.00
1320.157, 51671.00
1321.222, 51603.00
1322.288, 51753.00
1323.353, 51484.00
1324.418, 51606.64
1325.483, 51559.00
1326.548, 51811.00
1327.612, 51787.00
1328.677, 52164.00
1329.741, 52142.16
1330.806, 52037.00
1331.870, 52075.00
1332.934, 51904.00
1333.997, 52010.52
1335.061, 51959.00
1336.124, 52133.00
1337.188, 52053.00
1338.251, 51996.00
1339.314, 52036.00
1340.377, 52114.00
1341.439, 52046.00
1342.502, 51961.00
1343.564, 52097.00
1344.627, 52105.00
1345.689, 52086.00
1346.751, 51779.00
1347.813, 52238.00
1348.874, 52094.00
1349.936, 52448.00
1350.997, 52303.00
1352.058, 52337.00
1353.119, 52238.00
1354.180, 52238.00
1355.241, 52423.00
1356.301, 52538.00
1357.362, 52292.00
1358.422, 52612.00
1359.482, 52549.00
1360.542, 52493.00
1361.602, 52552.33
1362.662, 52764.00
1363.721, 52372.00
1364.781, 52608.00
1365.840, 52371.00
1366.899, 52592.00
1367.958, 52749.00
1369.017, 52363.00
1370.075, 52599.00
1371.134, 52752.00
1372.192, 52519.00
1373.250, 52605.00
1374.308, 52922.00
1375.366, 52620.00
1376.424, 52736.00
1377.481, 52929.00
1378.539, 52813.00
1379.596, 52868.00
1380.653, 52527.00
1381.710, 52991.00
1382.767, 52836.00
1383.824, 52634.00
1384.880, 52855.00
1385.937, 53201.00
1386.993, 53022.00
1388.049, 52927.00
1389.105, 52755.00
1390.161, 53113.00
1391.216, 52968.13
1392.272, 53225.00
1393.327, 53027.00
1394.382, 53138.00
1395.437, 53176.00
1396.492, 52926.00
1397.547, 53215.00
1398.601, 53182.00
1399.656, 53260.00
1400.710, 53366.00
1401.764, 53056.00
1402.818, 53148.00
1403.872, 53199.00
1404.925, 53102.00
1405.979, 53603.00
1407.032, 53617.00
1408.085, 53211.00
1409.139, 53496.00
1410.191, 53363.00
1411.244, 53451.00
1412.297, 53407.00
1413.349, 53404.00
1414.402, 53262.00
1415.454, 53214.00
1416.506, 53241.08
1417.558, 53668.00
1418.609, 53350.00
1419.661, 53548.00
1420.712, 53691.00
1421.764, 53414.00
1422.815, 53971.00
1423.866, 53788.00
1424.916, 53944.00
1425.967, 53660.00
1427.018, 53831.00
1428.068, 53719.00
1429.118, 53975.00
1430.168, 54033.00
1431.218, 53817.00
1432.268, 54052.00
1433.318, 53962.00
1434.367, 54213.00
1435.416, 54399.00
1436.465, 54265.00
1437.514, 54272.00
1438.563, 54067.00
1439.612, 54098.00
1440.661, 54434.00
1441.709, 54332.00
1442.757, 54320.00
1443.805, 54329.00
1444.853, 54350.00
1445.901, 54358.20
1446.949, 54315.00
1447.996, 54385.00
1449.044, 54476.00
1450.091, 54469.00
1451.138, 54461.00
1452.185, 54559.00
1453.232, 54550.00
1454.278, 54457.00
1455.325, 54607.00
1456.371, 54435.00
1457.417, 54521.21
1458.463, 54510.00
1459.509, 54742.00
1460.555, 54547.00
1461.601, 54939.00
1462.646, 54960.00
1463.691, 54823.00
1464.737, 54773.00
1465.782, 54667.00
1466.826, 54642.10
1467.871, 54909.00
1468.916, 54641.00
1469.960, 55024.00
1471.004, 55112.00
1472.048, 55023.41
1473.092, 55133.00
1474.136, 55062.00
1475.180, 54891.00
1476.223, 55155.00
1477.267, 55242.00
1478.310, 55178.00
1479.353, 55532.00
1480.396, 55144.00
1481.439, 55292.00
1482.481, 55025.00
1483.524, 54966.00
1484.566, 55271.00
1485.608, 55256.00
1486.650, 55431.00
1487.692, 55334.00
1488.734, 55404.00
1489.775, 55157.00
1490.817, 55249.00
1491.858, 55418.00
1492.899, 55336.00
1493.940, 55482.00
1494.981, 55494.00
1496.022, 55685.00
1497.062, 55772.46
1498.103, 55685.00
1499.143, 55911.00
1500.183, 55935.00
1501.223, 55785.00
1502.263, 56008.00
1503.302, 55674.00
1504.342, 55849.00
1505.381, 55805.00
1506.420, 55990.00
1507.459, 56244.00
1508.498, 55741.00
1509.537, 55780.00
1510.576, 55913.00
1511.614, 56082.00
1512.652, 56000.00
1513.691, 56003.00
1514.729, 56034.11
1515.767, 56118.00
1516.804, 56040.00
1517.842, 56157.00
1518.879, 56212.00
1519.917, 56016.00
1520.954, 56265.00
1521.991, 56092.00
1523.028, 55891.00
1524.064, 56153.00
1525.101, 56048.00
1526.137, 56539.00
1527.173, 56485.00
1528.210, 56460.00
1529.245, 56490.00
1530.281, 56438.00
1531.317, 56595.00
1532.352, 56413.00
1533.388, 56422.68
1534.423, 56631.45
1535.458, 56755.16
1536.493, 56798.39
1537.528, 56520.06
1538.562, 56656.94
1539.597, 56627.43
1540.631, 56591.08
1541.665, 56786.40
1542.700, 56554.84
1543.733, 56746.48
1544.767, 56769.18
1545.801, 56869.21
1546.834, 56801.79
1547.868, 56786.10
1548.901, 56937.88
1549.934, 56996.92
1550.967, 56910.23
1551.999, 57015.14
1553.032, 56777.70
1554.064, 56840.68
1555.097, 57033.30
1556.129, 56955.01
1557.161, 57062.98
1558.193, 57100.02
1559.224, 56814.65
1560.256, 57089.96
1561.287, 57122.80
1562.318, 57070.00
1563.350, 56738.00
1564.380, 56835.00
1565.411, 56680.00
1566.442, 56982.00
1567.472, 57060.00
1568.503, 56961.00
1569.533, 57128.00
1570.563, 57691.00
##END=



