##NAMES=Magnesio-hastingsite
##RRUFFID=R070288
##IDEAL CHEMISTRY=NaCa_2_(Mg_4_Fe^3+^)Si_6_Al_2_O_22_(OH)_2_
##LOCALITY=Dallas Gem Mine (Gem Mine; Benitoite Mine), New Idria District, San Benito County, California, USA
##OWNER=RRUFF
##SOURCE=Michael Scott
##DESCRIPTION=Dark brown to black prismatic crystals frozen in albite
##STATUS=The identification of this mineral is confirmed by single-crystal X-ray diffraction and chemical analysis.
##URL=rruff.info/R070288
##MEASURED CHEMISTRY=(Na_0.51_[box]_0.33_K_0.16_)_Σ=1_(Ca_1.75_Na_0.25_)_Σ=2_(Mg_3.02_Fe^2+^_0.61_Ti_0.37_)_Σ=4_(Fe^3+^_0.73_Al_0.27_)_Σ=1_Si_5.84_Al_2.16_O_22_(OH)_2_; (OH) estimated by difference
##PIN_ID=M01097
##ORIENTATION=Laser parallel to a* (1 0 0). Fiducial mark perpendicular to laser is parallel to b [0 1 0]
88.87300, 11634.00
90.11400, 12323.00
91.35400, 13084.00
92.59500, 12612.00
93.83500, 12647.00
95.07500, 12694.00
96.31500, 12318.00
97.55400, 12100.00
98.79400, 12188.81
100.0330, 12044.15
101.2720, 12167.73
102.5110, 12193.87
103.7500, 12498.40
104.9890, 12784.93
106.2270, 13054.24
107.4650, 13255.55
108.7040, 13544.88
109.9420, 13798.81
111.1790, 13948.00
112.4170, 14848.00
113.6540, 16011.00
114.8920, 16715.00
116.1290, 16502.00
117.3650, 16657.00
118.6020, 16358.00
119.8390, 16017.00
121.0750, 16098.00
122.3110, 16002.00
123.5470, 15673.00
124.7830, 14744.00
126.0190, 14514.00
127.2540, 14324.85
128.4900, 14374.62
129.7250, 14406.40
130.9600, 14421.16
132.1950, 14367.92
133.4290, 14402.48
134.6640, 14401.86
135.8980, 14487.00
137.1320, 14721.00
138.3660, 15098.00
139.6000, 15381.00
140.8340, 15120.00
142.0670, 15232.51
143.3000, 15070.00
144.5330, 14992.00
145.7660, 15128.00
146.9990, 15123.00
148.2320, 15094.00
149.4640, 15249.00
150.6960, 15287.00
151.9280, 15570.00
153.1600, 15534.00
154.3920, 15721.00
155.6230, 16002.00
156.8550, 15942.00
158.0860, 16162.00
159.3170, 16284.00
160.5480, 16300.00
161.7780, 16282.00
163.0090, 16130.00
164.2390, 16219.00
165.4690, 16195.00
166.6990, 15726.98
167.9290, 15755.70
169.1590, 15766.42
170.3880, 15760.14
171.6180, 15763.79
172.8470, 15699.37
174.0760, 15717.00
175.3040, 15622.00
176.5330, 15532.00
177.7610, 15627.00
178.9900, 15576.00
180.2180, 15541.00
181.4460, 15466.00
182.6730, 15647.00
183.9010, 15637.00
185.1280, 15665.47
186.3560, 15690.00
187.5830, 15705.00
188.8100, 15523.00
190.0360, 15508.00
191.2630, 15293.00
192.4890, 15291.00
193.7150, 15149.00
194.9410, 14930.00
196.1670, 14906.00
197.3930, 14862.00
198.6180, 14831.00
199.8440, 14722.95
201.0690, 14588.22
202.2940, 14424.00
203.5190, 14226.00
204.7430, 13935.00
205.9680, 13705.00
207.1920, 13515.00
208.4160, 13548.00
209.6400, 13574.00
210.8640, 13482.00
212.0880, 13470.00
213.3110, 13417.00
214.5340, 13412.00
215.7570, 13367.00
216.9800, 13464.00
218.2030, 13407.00
219.4260, 13451.00
220.6480, 13385.00
221.8700, 13569.00
223.0920, 13477.00
224.3140, 13562.00
225.5360, 13570.00
226.7580, 13523.00
227.9790, 13609.00
229.2000, 13585.00
230.4210, 13445.00
231.6420, 13577.00
232.8630, 13434.00
234.0830, 13470.00
235.3040, 13541.00
236.5240, 13568.00
237.7440, 13324.00
238.9640, 13475.00
240.1830, 13293.00
241.4030, 13342.61
242.6220, 13319.00
243.8410, 13403.00
245.0600, 13166.00
246.2790, 13108.00
247.4980, 12997.00
248.7160, 12998.00
249.9340, 12870.00
251.1530, 12786.59
252.3710, 12683.00
253.5880, 12589.00
254.8060, 12572.00
256.0230, 12505.00
257.2410, 12417.88
258.4580, 12323.00
259.6750, 12248.00
260.8910, 12222.00
262.1080, 12159.00
263.3240, 12070.00
264.5410, 12061.00
265.7570, 11996.26
266.9730, 11953.62
268.1880, 11901.00
269.4040, 11839.00
270.6190, 11760.00
271.8350, 11760.10
273.0500, 11848.00
274.2650, 11750.00
275.4790, 11754.00
276.6940, 11734.00
277.9080, 11720.00
279.1220, 11808.00
280.3360, 11622.00
281.5500, 11797.00
282.7640, 11697.00
283.9770, 11720.00
285.1910, 11650.86
286.4040, 11740.10
287.6170, 11787.38
288.8300, 11794.94
290.0420, 11643.86
291.2550, 11697.64
292.4670, 11669.32
293.6790, 11637.64
294.8910, 11720.26
296.1030, 11592.25
297.3150, 11673.06
298.5260, 11670.51
299.7380, 11706.11
300.9490, 11659.11
302.1600, 11637.63
303.3710, 11698.77
304.5810, 11714.17
305.7920, 11657.66
307.0020, 11695.70
308.2120, 11564.82
309.4220, 11582.16
310.6320, 11663.46
311.8410, 11611.12
313.0510, 11650.66
314.2600, 11655.22
315.4690, 11500.71
316.6780, 11622.82
317.8870, 11625.31
319.0950, 11504.96
320.3040, 11617.60
321.5120, 11514.19
322.7200, 11487.89
323.9280, 11519.63
325.1360, 11622.00
326.3430, 11603.00
327.5510, 11563.00
328.7580, 11484.00
329.9650, 11475.30
331.1720, 11459.77
332.3790, 11434.00
333.5850, 11503.00
334.7910, 11514.00
335.9980, 11605.00
337.2040, 11535.31
338.4100, 11381.00
339.6150, 11393.00
340.8210, 11379.00
342.0260, 11306.00
343.2310, 11345.00
344.4360, 11572.00
345.6410, 11399.71
346.8460, 11411.96
348.0500, 11287.00
349.2550, 11209.00
350.4590, 11307.00
351.6630, 11216.00
352.8670, 11306.00
354.0700, 11247.00
355.2740, 11315.00
356.4770, 11477.00
357.6800, 11288.00
358.8830, 11463.00
360.0860, 11428.00
361.2890, 11442.00
362.4910, 11492.00
363.6930, 11521.00
364.8960, 11584.56
366.0980, 11647.00
367.2990, 11716.00
368.5010, 11661.00
369.7020, 11700.00
370.9040, 11694.00
372.1050, 11796.00
373.3060, 11935.00
374.5070, 11954.00
375.7070, 11841.00
376.9080, 11805.00
378.1080, 11920.00
379.3080, 12033.00
380.5080, 11922.00
381.7080, 11966.00
382.9070, 12105.00
384.1070, 12169.00
385.3060, 12221.00
386.5050, 12089.00
387.7040, 12093.00
388.9030, 11903.00
390.1010, 12015.00
391.3000, 11999.00
392.4980, 12062.00
393.6960, 11853.00
394.8940, 11834.00
396.0920, 11838.00
397.2890, 11912.00
398.4870, 11765.00
399.6840, 11807.00
400.8810, 11779.00
402.0780, 11708.00
403.2750, 11841.00
404.4710, 11962.00
405.6680, 11808.00
406.8640, 11850.00
408.0600, 11889.00
409.2560, 12051.00
410.4520, 12019.00
411.6470, 12030.00
412.8430, 12036.00
414.0380, 12099.00
415.2330, 12076.00
416.4280, 12041.00
417.6220, 12112.00
418.8170, 12109.00
420.0110, 11965.00
421.2050, 12052.00
422.4000, 11963.00
423.5930, 11877.00
424.7870, 11932.00
425.9810, 12012.00
427.1740, 11980.00
428.3670, 11884.00
429.5600, 11764.00
430.7530, 11742.00
431.9460, 11605.00
433.1380, 11585.00
434.3310, 11573.00
435.5230, 11631.00
436.7150, 11494.00
437.9070, 11528.00
439.0980, 11484.47
440.2900, 11438.73
441.4810, 11408.00
442.6720, 11349.00
443.8630, 11288.00
445.0540, 11166.00
446.2450, 11234.00
447.4350, 11067.00
448.6260, 11108.00
449.8160, 11047.08
451.0060, 11130.00
452.1960, 10998.00
453.3850, 10966.00
454.5750, 11009.00
455.7640, 11014.74
456.9530, 11007.51
458.1420, 10988.30
459.3310, 10906.12
460.5200, 10916.77
461.7080, 10897.27
462.8970, 10881.35
464.0850, 10919.44
465.2730, 10872.28
466.4610, 10919.63
467.6480, 10936.27
468.8360, 10974.29
470.0230, 10981.90
471.2100, 10981.14
472.3970, 10968.00
473.5840, 10955.00
474.7710, 10996.00
475.9570, 10943.00
477.1440, 10973.35
478.3300, 10962.74
479.5160, 11029.00
480.7020, 11056.02
481.8870, 11076.00
483.0730, 11170.00
484.2580, 11257.00
485.4430, 11362.00
486.6280, 11405.89
487.8130, 11460.84
488.9980, 11467.00
490.1820, 11542.00
491.3660, 11523.00
492.5510, 11596.00
493.7350, 11903.00
494.9180, 11893.00
496.1020, 12006.00
497.2860, 11927.00
498.4690, 12238.00
499.6520, 12369.00
500.8350, 12482.00
502.0180, 12518.00
503.2000, 12626.00
504.3830, 12729.00
505.5650, 13072.00
506.7470, 12959.00
507.9290, 13213.00
509.1110, 13211.00
510.2930, 13403.00
511.4740, 13460.00
512.6560, 13581.00
513.8370, 13843.00
515.0180, 13957.00
516.1980, 14058.00
517.3790, 14054.00
518.5600, 14450.00
519.7400, 14432.00
520.9200, 14500.00
522.1000, 14715.00
523.2800, 14740.00
524.4590, 14907.00
525.6390, 14896.00
526.8180, 15111.00
527.9970, 15092.00
529.1760, 15378.00
530.3550, 15293.00
531.5340, 15593.00
532.7120, 15471.00
533.8910, 15456.00
535.0690, 15359.00
536.2470, 15712.00
537.4250, 15602.00
538.6020, 15809.00
539.7800, 15752.00
540.9570, 15608.00
542.1340, 15882.00
543.3110, 15777.00
544.4880, 15876.00
545.6650, 15770.00
546.8410, 16022.00
548.0170, 15929.00
549.1940, 15911.00
550.3690, 15988.00
551.5450, 15855.86
552.7210, 16006.63
553.8960, 16097.66
555.0720, 16131.27
556.2470, 15988.49
557.4220, 16032.85
558.5970, 15977.40
559.7710, 15900.91
560.9460, 15920.96
562.1200, 15876.00
563.2940, 15879.00
564.4680, 15837.00
565.6420, 15707.00
566.8160, 15634.00
567.9890, 15509.00
569.1630, 15404.00
570.3360, 15283.00
571.5090, 15129.00
572.6820, 14888.00
573.8540, 14665.14
575.0270, 14427.86
576.1990, 14112.00
577.3710, 13865.00
578.5430, 13583.00
579.7150, 13310.48
580.8870, 12828.00
582.0580, 12812.00
583.2300, 12528.07
584.4010, 12348.00
585.5720, 12293.00
586.7430, 11653.00
587.9130, 11581.00
589.0840, 11190.00
590.2540, 11038.00
591.4240, 11012.00
592.5940, 10883.00
593.7640, 10736.00
594.9340, 10641.00
596.1030, 10613.00
597.2730, 10421.00
598.4420, 10434.45
599.6110, 10502.00
600.7800, 10403.00
601.9490, 10394.00
603.1170, 10396.00
604.2850, 10358.00
605.4540, 10319.00
606.6220, 10260.00
607.7900, 10498.00
608.9570, 10331.00
610.1250, 10456.00
611.2920, 10477.00
612.4590, 10425.00
613.6260, 10538.00
614.7930, 10464.00
615.9600, 10560.00
617.1270, 10484.00
618.2930, 10500.00
619.4590, 10539.00
620.6250, 10685.00
621.7910, 10660.00
622.9570, 10746.00
624.1220, 10663.00
625.2880, 10842.00
626.4530, 10860.00
627.6180, 10983.00
628.7830, 11045.00
629.9480, 11090.00
631.1120, 11181.00
632.2770, 11166.00
633.4410, 11306.00
634.6050, 11391.00
635.7690, 11432.00
636.9330, 11619.00
638.0960, 11604.00
639.2600, 11665.00
640.4230, 11724.00
641.5860, 11979.00
642.7490, 11978.00
643.9120, 12260.00
645.0740, 12298.00
646.2370, 12490.00
647.3990, 12587.00
648.5610, 12668.00
649.7230, 12808.00
650.8850, 12897.00
652.0460, 13026.00
653.2080, 13084.97
654.3690, 13152.00
655.5300, 13191.00
656.6910, 13372.00
657.8520, 13436.00
659.0130, 13526.00
660.1730, 13565.00
661.3330, 13577.00
662.4930, 13779.00
663.6530, 13839.00
664.8130, 13580.00
665.9730, 13721.00
667.1320, 13549.00
668.2920, 13593.00
669.4510, 13591.00
670.6100, 13261.00
671.7680, 13252.00
672.9270, 13093.00
674.0860, 13134.00
675.2440, 12931.00
676.4020, 12925.00
677.5600, 12776.00
678.7180, 12855.00
679.8760, 12655.00
681.0330, 12586.00
682.1900, 12547.65
683.3480, 12487.70
684.5050, 12439.95
685.6610, 12519.73
686.8180, 12565.10
687.9750, 12577.73
689.1310, 12468.43
690.2870, 12509.83
691.4430, 12486.71
692.5990, 12458.12
693.7550, 12512.32
694.9100, 12405.62
696.0660, 12452.57
697.2210, 12434.07
698.3760, 12441.26
699.5310, 12344.00
700.6860, 12319.00
701.8400, 12360.00
702.9940, 12297.00
704.1490, 12449.00
705.3030, 12526.00
706.4570, 12319.00
707.6100, 12505.00
708.7640, 12457.00
709.9170, 12691.00
711.0710, 12724.92
712.2240, 12759.00
713.3770, 12935.00
714.5290, 12800.00
715.6820, 13035.00
716.8340, 12969.00
717.9870, 13019.00
719.1390, 13170.00
720.2910, 13142.00
721.4430, 13479.00
722.5940, 13519.00
723.7460, 13508.00
724.8970, 13563.00
726.0480, 13556.00
727.1990, 13587.00
728.3500, 13780.00
729.5000, 13603.00
730.6510, 13923.00
731.8010, 13839.00
732.9510, 13968.00
734.1010, 13802.00
735.2510, 14007.00
736.4010, 14072.00
737.5500, 13892.00
738.7000, 14014.00
739.8490, 14036.00
740.9980, 14101.00
742.1470, 14034.00
743.2950, 14099.00
744.4440, 14042.00
745.5920, 13904.00
746.7400, 14220.00
747.8880, 14076.00
749.0360, 14091.00
750.1840, 14196.00
751.3310, 14255.00
752.4790, 14013.00
753.6260, 14067.00
754.7730, 14074.00
755.9200, 14090.00
757.0670, 14262.00
758.2130, 14088.00
759.3600, 14190.00
760.5060, 14096.00
761.6520, 14115.00
762.7980, 14230.00
763.9440, 14281.00
765.0890, 14349.00
766.2350, 14252.00
767.3800, 14474.00
768.5250, 14459.00
769.6700, 14607.00
770.8150, 14669.71
771.9590, 14692.73
773.1040, 14801.00
774.2480, 14771.00
775.3920, 14880.00
776.5360, 14965.00
777.6800, 15020.00
778.8240, 15117.97
779.9670, 15140.04
781.1100, 15242.22
782.2540, 15320.63
783.3970, 15303.79
784.5390, 15409.82
785.6820, 15466.64
786.8240, 15476.27
787.9670, 15609.59
789.1090, 15703.68
790.2510, 15760.27
791.3930, 15690.17
792.5350, 15766.01
793.6760, 15772.55
794.8170, 15768.87
795.9590, 15843.22
797.1000, 15751.90
798.2410, 15809.50
799.3810, 15796.90
800.5220, 15805.21
801.6620, 15743.91
802.8030, 15721.87
803.9430, 15701.19
805.0820, 15656.73
806.2220, 15517.03
807.3620, 15500.25
808.5010, 15434.25
809.6410, 15366.19
810.7800, 15366.76
811.9190, 15240.95
813.0570, 15240.48
814.1960, 15142.15
815.3340, 15015.00
816.4730, 14884.00
817.6110, 14749.00
818.7490, 14619.99
819.8870, 14413.00
821.0240, 14342.00
822.1620, 14258.00
823.2990, 14091.00
824.4360, 14029.00
825.5730, 13915.00
826.7100, 13754.66
827.8470, 13734.45
828.9830, 13672.38
830.1200, 13570.50
831.2560, 13310.07
832.3920, 13254.49
833.5280, 13116.83
834.6630, 12975.89
835.7990, 12949.16
836.9340, 12711.91
838.0700, 12674.00
839.2050, 12532.00
840.3400, 12376.00
841.4740, 12277.82
842.6090, 12267.76
843.7430, 12239.77
844.8780, 12194.70
846.0120, 12081.69
847.1460, 12056.48
848.2790, 11996.13
849.4130, 12056.00
850.5460, 12030.00
851.6800, 12063.00
852.8130, 12052.00
853.9460, 12053.65
855.0790, 12072.73
856.2110, 12066.00
857.3440, 12059.00
858.4760, 12086.33
859.6080, 11996.00
860.7400, 12031.00
861.8720, 12105.00
863.0040, 11953.00
864.1350, 12080.00
865.2670, 11967.00
866.3980, 11947.00
867.5290, 12170.00
868.6600, 12039.00
869.7900, 12021.00
870.9210, 12215.00
872.0510, 12167.00
873.1820, 12216.00
874.3120, 12214.00
875.4420, 12274.03
876.5710, 12356.13
877.7010, 12419.26
878.8300, 12464.29
879.9600, 12440.33
881.0890, 12503.09
882.2180, 12529.63
883.3460, 12553.66
884.4750, 12625.68
885.6040, 12606.39
886.7320, 12675.52
887.8600, 12707.90
888.9880, 12755.59
890.1160, 12766.85
891.2430, 12867.00
892.3710, 12903.00
893.4980, 12946.00
894.6260, 12936.00
895.7530, 12997.00
896.8790, 13022.82
898.0060, 13041.27
899.1330, 13041.73
900.2590, 13025.20
901.3850, 12998.50
902.5110, 12943.93
903.6370, 12912.02
904.7630, 12878.66
905.8890, 12832.59
907.0140, 12694.00
908.1390, 12737.00
909.2640, 12630.00
910.3890, 12631.00
911.5140, 12705.00
912.6390, 12622.20
913.7630, 12695.00
914.8870, 12513.00
916.0120, 12664.00
917.1360, 12521.00
918.2590, 12550.00
919.3830, 12418.00
920.5070, 12419.00
921.6300, 12451.00
922.7530, 12511.00
923.8760, 12515.40
924.9990, 12394.59
926.1220, 12559.46
927.2440, 12655.07
928.3670, 12685.17
929.4890, 12453.48
930.6110, 12559.83
931.7330, 12530.70
932.8540, 12496.02
933.9760, 12649.94
935.0980, 12498.00
936.2190, 12785.00
937.3400, 12607.00
938.4610, 12628.00
939.5820, 12780.00
940.7020, 12712.00
941.8230, 12687.00
942.9430, 12754.00
944.0630, 12665.00
945.1830, 12781.00
946.3030, 12792.00
947.4230, 12826.00
948.5420, 12799.00
949.6610, 12843.00
950.7810, 12819.65
951.9000, 12847.78
953.0190, 12809.00
954.1370, 12834.00
955.2560, 12882.00
956.3740, 12741.00
957.4920, 12846.00
958.6110, 12804.00
959.7280, 12818.00
960.8460, 12821.00
961.9640, 12776.00
963.0810, 12903.00
964.1990, 12842.00
965.3160, 12713.00
966.4330, 12543.00
967.5490, 12759.00
968.6660, 12739.00
969.7830, 12768.00
970.8990, 12611.00
972.0150, 12848.00
973.1310, 12590.00
974.2470, 12651.00
975.3630, 12656.00
976.4780, 12647.00
977.5930, 12561.00
978.7090, 12734.00
979.8240, 12623.00
980.9390, 12571.00
982.0530, 12792.00
983.1680, 12646.00
984.2820, 12778.00
985.3970, 12742.00
986.5110, 12732.00
987.6250, 12771.00
988.7380, 12888.00
989.8520, 12923.00
990.9660, 12933.00
992.0790, 12988.51
993.1920, 12936.00
994.3050, 13017.00
995.4180, 12979.00
996.5300, 12957.00
997.6430, 13168.00
998.7550, 13187.00
999.8680, 13227.00
1000.980, 13320.00
1002.091, 13321.00
1003.203, 13335.00
1004.315, 13389.12
1005.426, 13477.29
1006.537, 13541.68
1007.648, 13583.25
1008.759, 13551.02
1009.870, 13600.79
1010.981, 13609.58
1012.091, 13611.11
1013.201, 13655.85
1014.312, 13604.52
1015.422, 13636.89
1016.531, 13627.76
1017.641, 13629.18
1018.751, 13634.37
1019.860, 13619.31
1020.969, 13592.91
1022.078, 13574.87
1023.187, 13518.12
1024.296, 13510.23
1025.404, 13456.78
1026.513, 13409.74
1027.621, 13317.46
1028.729, 13310.25
1029.837, 13257.00
1030.945, 13271.00
1032.052, 13253.00
1033.160, 13221.00
1034.267, 12970.00
1035.374, 13105.00
1036.481, 12958.00
1037.588, 13029.00
1038.695, 12954.00
1039.801, 12787.00
1040.907, 12870.00
1042.014, 12920.00
1043.120, 12878.00
1044.225, 12769.00
1045.331, 12714.00
1046.437, 12710.34
1047.542, 12857.00
1048.647, 12726.00
1049.752, 12780.97
1050.857, 12795.00
1051.962, 12563.69
1053.067, 12700.30
1054.171, 12773.96
1055.275, 12788.06
1056.380, 12564.17
1057.484, 12647.59
1058.587, 12607.87
1059.691, 12563.08
1060.795, 12689.75
1061.898, 12500.49
1063.001, 12624.45
1064.104, 12623.38
1065.207, 12679.52
1066.310, 12611.76
1067.412, 12676.00
1068.515, 12617.51
1069.617, 12529.00
1070.719, 12438.54
1071.821, 12549.87
1072.923, 12598.24
1074.024, 12587.08
1075.126, 12337.91
1076.227, 12396.07
1077.328, 12331.08
1078.429, 12261.04
1079.530, 12362.45
1080.631, 12147.93
1081.731, 12246.65
1082.831, 12220.34
1083.932, 12251.22
1085.032, 12158.23
1086.132, 12103.50
1087.231, 12172.76
1088.331, 12173.35
1089.430, 12066.12
1090.530, 12100.67
1091.629, 11881.88
1092.728, 11885.42
1093.826, 11984.93
1094.925, 11864.00
1096.023, 11892.00
1097.122, 11804.00
1098.220, 11847.20
1099.318, 11878.03
1100.416, 11843.44
1101.513, 11672.00
1102.611, 11603.00
1103.708, 11638.00
1104.806, 11613.00
1105.903, 11604.34
1107.000, 11563.32
1108.096, 11582.00
1109.193, 11505.00
1110.289, 11447.00
1111.386, 11537.00
1112.482, 11434.00
1113.578, 11268.00
1114.673, 11349.00
1115.769, 11327.00
1116.865, 11322.00
1117.960, 11233.00
1119.055, 11365.00
1120.150, 11224.00
1121.245, 11177.00
1122.340, 11248.00
1123.434, 11257.00
1124.529, 11285.00
1125.623, 11352.00
1126.717, 11168.00
1127.811, 11245.00
1128.905, 11100.00
1129.998, 11089.00
1131.092, 11153.00
1132.185, 11019.14
1133.278, 11224.00
1134.371, 10924.00
1135.464, 11067.00
1136.557, 11164.00
1137.649, 11205.00
1138.742, 11136.00
1139.834, 11029.00
1140.926, 11002.00
1142.018, 10993.00
1143.109, 11036.00
1144.201, 11030.00
1145.292, 11001.00
1146.384, 10938.00
1147.475, 10859.00
1148.566, 10932.00
1149.657, 10909.00
1150.747, 10738.00
1151.838, 10807.00
1152.928, 10757.00
1154.018, 10755.59
1155.108, 10810.00
1156.198, 10851.00
1157.288, 10792.00
1158.377, 10927.00
1159.467, 10765.00
1160.556, 10984.00
1161.645, 10909.61
1162.734, 10849.02
1163.823, 10893.00
1164.911, 10725.00
1166.000, 10760.00
1167.088, 10774.00
1168.176, 10802.00
1169.264, 10813.92
1170.352, 10796.39
1171.440, 10843.00
1172.527, 10750.00
1173.615, 10776.00
1174.702, 10763.00
1175.789, 10787.00
1176.876, 10693.00
1177.963, 10859.00
1179.049, 10788.00
1180.136, 10737.00
1181.222, 10801.00
1182.308, 10714.00
1183.394, 10758.00
1184.480, 10658.00
1185.566, 10794.00
1186.651, 10735.00
1187.736, 10743.00
1188.822, 10749.00
1189.907, 10750.00
1190.992, 10823.00
1192.076, 10681.00
1193.161, 10857.00
1194.245, 10791.00
1195.330, 10767.00
1196.414, 10900.00
1197.498, 10688.00
1198.581, 10721.00
1199.665, 10755.00
1200.749, 10790.00
1201.832, 10731.00
1202.915, 10775.00
1203.998, 10842.00
1205.081, 10864.00
1206.164, 10775.00
1207.246, 10774.00
1208.329, 10834.00
1209.411, 10659.00
1210.493, 10748.00
1211.575, 10749.00
1212.657, 10797.00
1213.738, 10791.00
1214.820, 10777.00
1215.901, 10827.00
1216.982, 10857.00
1218.063, 10813.00
1219.144, 10735.00
1220.225, 10892.00
1221.305, 10860.00
1222.386, 10627.00
1223.466, 10726.00
1224.546, 10840.00
1225.626, 10650.00
1226.706, 10909.00
1227.785, 10824.00
1228.865, 10812.00
1229.944, 10892.00
1231.023, 10828.23
1232.102, 10818.00
1233.181, 10796.00
1234.260, 10784.00
1235.338, 10750.00
1236.417, 10751.00
1237.495, 10752.00
1238.573, 10809.00
1239.651, 10770.61
1240.729, 10816.78
1241.806, 10739.00
1242.884, 10841.00
1243.961, 10865.00
1245.038, 10808.00
1246.115, 10867.00
1247.192, 10820.00
1248.269, 10826.00
1249.345, 10688.00
1250.421, 10772.00
1251.498, 10716.00
1252.574, 10760.00
1253.650, 10744.00
1254.725, 10765.00
1255.801, 10840.00
1256.876, 10822.00
1257.952, 10844.00
1259.027, 10859.00
1260.102, 10845.00
1261.177, 10844.14
1262.251, 10845.28
1263.326, 10834.00
1264.400, 10801.00
1265.474, 10841.00
1266.548, 10735.00
1267.622, 10788.00
1268.696, 10889.00
1269.770, 10984.00
1270.843, 10889.00
1271.916, 11009.00
1272.990, 10797.00
1274.063, 10901.00
1275.135, 10810.00
1276.208, 10867.00
1277.281, 10772.00
1278.353, 10865.00
1279.425, 10839.00
1280.497, 10880.00
1281.569, 10903.00
1282.641, 10801.00
1283.712, 10853.00
1284.784, 10840.00
1285.855, 10949.00
1286.926, 10714.00
1287.997, 10815.00
1289.068, 10961.00
1290.139, 10812.00
1291.209, 10899.00
1292.280, 10816.00
1293.350, 10884.00
1294.420, 10882.00
1295.490, 10852.00
1296.560, 10806.00
1297.629, 10915.00
1298.699, 10921.00
1299.768, 10845.00
1300.837, 10791.00
1301.906, 10946.00
1302.975, 10931.00
1304.043, 11073.00
1305.112, 10851.00
1306.180, 10953.00
1307.249, 10882.00
1308.317, 10979.00
1309.385, 10902.00
1310.452, 10882.00
1311.520, 10960.00
1312.587, 11017.00
1313.655, 10948.76
1314.722, 10961.69
1315.789, 10890.00
1316.856, 10939.00
1317.922, 10916.37
1318.989, 10938.50
1320.055, 10918.00
1321.121, 10999.00
1322.187, 11010.00
1323.253, 11029.00
1324.319, 11022.00
1325.385, 10903.58
1326.450, 11050.65
1327.515, 11134.77
1328.581, 11159.32
1329.646, 10945.90
1330.710, 11039.77
1331.775, 11010.49
1332.840, 10976.16
1333.904, 11113.28
1334.968, 10934.46
1336.032, 11068.86
1337.096, 11078.23
1338.160, 11144.83
1339.224, 11087.51
1340.287, 11068.46
1341.350, 11173.36
1342.414, 11209.64
1343.477, 11138.05
1344.539, 11208.28
1345.602, 11025.13
1346.665, 11064.32
1347.727, 11199.44
1348.789, 11134.08
1349.851, 11206.57
1350.913, 11226.56
1351.975, 11007.96
1353.037, 11204.30
1354.098, 11093.00
1355.160, 11016.00
1356.221, 11050.00
1357.282, 11199.00
1358.343, 11176.00
1359.403, 11155.00
1360.464, 11082.00
1361.524, 11163.00
1362.585, 11154.00
1363.645, 11150.00
1364.705, 11199.00
1365.765, 11270.00
1366.824, 11163.00
1367.884, 11246.00
1368.943, 11284.00
1370.002, 11131.00
1371.061, 11152.00
1372.120, 11155.00
1373.179, 11101.13
1374.237, 11090.52
1375.296, 11141.00
1376.354, 11026.00
1377.412, 11174.00
1378.470, 11188.00
1379.528, 11087.00
1380.586, 11180.00
1381.643, 11145.06
1382.701, 11085.41
1383.758, 11160.14
1384.815, 11203.41
1385.872, 11216.89
1386.929, 11111.38
1387.985, 11159.51
1389.042, 11146.08
1390.098, 11130.11
1391.154, 11199.88
1392.210, 11111.67
1393.266, 11180.07
1394.322, 11185.96
1395.377, 11220.46
1396.433, 11215.64
1397.488, 11196.00
1398.543, 11180.00
1399.598, 11043.00
1400.653, 11009.00
1401.707, 11068.00
1402.762, 11180.00
1403.816, 11227.00
1404.870, 11232.29
1405.924, 11081.00
1406.978, 11197.00
1408.032, 11155.00
1409.085, 11122.00
1410.139, 11206.00
1411.192, 11138.00
1412.245, 11284.00
1413.298, 11170.00
1414.351, 11222.00
1415.404, 11245.00
1416.456, 11179.00
1417.509, 11158.00
1418.561, 11153.00
1419.613, 11186.24
1420.665, 11264.93
1421.717, 11312.14
1422.768, 11329.56
1423.820, 11228.00
1424.871, 11280.08
1425.922, 11270.59
1426.973, 11258.58
1428.024, 11332.28
1429.075, 11248.02
1430.125, 11320.37
1431.175, 11330.20
1432.226, 11368.64
1433.276, 11345.12
1434.326, 11340.74
1435.376, 11398.34
1436.425, 11421.61
1437.475, 11390.96
1438.524, 11431.21
1439.573, 11344.78
1440.622, 11369.51
1441.671, 11442.21
1442.720, 11329.00
1443.768, 11389.00
1444.817, 11439.00
1445.865, 11401.00
1446.913, 11397.00
1447.961, 11399.00
1449.009, 11288.00
1450.057, 11408.00
1451.104, 11519.00
1452.152, 11407.00
1453.199, 11477.00
1454.246, 11358.00
1455.293, 11260.00
1456.339, 11494.00
1457.386, 11454.00
1458.433, 11586.00
1459.479, 11425.00
1460.525, 11383.00
1461.571, 11397.00
1462.617, 11474.00
1463.663, 11569.00
1464.708, 11451.00
1465.754, 11383.00
1466.799, 11466.00
1467.844, 11567.00
1468.889, 11347.00
1469.934, 11407.00
1470.978, 11537.00
1472.023, 11463.00
1473.067, 11493.00
1474.111, 11542.00
1475.155, 11469.00
1476.199, 11421.00
1477.243, 11438.65
1478.287, 11511.69
1479.330, 11553.25
1480.373, 11565.03
1481.417, 11457.81
1482.460, 11504.25
1483.502, 11489.11
1484.545, 11471.45
1485.588, 11539.51
1486.630, 11449.60
1487.672, 11516.30
1488.714, 11520.49
1489.756, 11553.29
1490.798, 11524.13
1491.840, 11514.11
1492.881, 11566.06
1493.923, 11583.70
1494.964, 11547.41
1496.005, 11582.03
1497.046, 11489.95
1498.087, 11509.05
1499.127, 11576.11
1500.168, 11542.94
1501.208, 11578.69
1502.248, 11588.18
1503.288, 11478.38
1504.328, 11576.05
1505.368, 11584.00
1506.407, 11499.82
1507.446, 11590.38
1508.486, 11518.90
1509.525, 11505.25
1510.564, 11535.14
1511.603, 11519.65
1512.641, 11575.70
1513.680, 11562.83
1514.718, 11543.80
1515.756, 11551.64
1516.794, 11534.70
1517.832, 11556.30
1518.870, 11532.77
1519.907, 11557.20
1520.945, 11592.50
1521.982, 11544.56
1523.019, 11427.00
1524.056, 11630.00
1525.093, 11421.00
1526.130, 11589.00
1527.166, 11505.00
1528.203, 11428.00
1529.239, 11669.00
1530.275, 11434.00
1531.311, 11479.00
1532.347, 11630.00
1533.383, 11465.00
1534.418, 11635.00
1535.453, 11575.00
1536.489, 11445.00
1537.524, 11525.00
1538.559, 11468.00
1539.593, 11543.00
1540.628, 11585.00
1541.662, 11599.00
1542.697, 11565.00
1543.731, 11455.00
1544.765, 11506.70
1545.799, 11495.10
1546.832, 11553.43
1547.866, 11626.79
1548.899, 11668.68
1549.933, 11680.79
1550.966, 11573.90
1551.999, 11620.67
1553.031, 11605.86
1554.064, 11588.52
1555.097, 11656.91
1556.129, 11567.33
1557.161, 11634.36
1558.193, 11638.88
1559.225, 11672.00
1560.257, 11643.17
1561.289, 11633.48
1562.320, 11685.76
1563.351, 11703.72
1564.383, 11667.76
1565.414, 11702.70
1566.444, 11610.96
1567.475, 11630.38
1568.506, 11697.77
1569.536, 11664.92
1570.566, 11701.00
1571.597, 11710.82
1572.627, 11601.35
1573.656, 11699.34
1574.686, 11707.62
1575.716, 11415.00
1576.745, 11558.00
1577.774, 11695.00
##END=



