##NAMES=Magnesite
##RRUFFID=R050676
##IDEAL CHEMISTRY=MgCO_3_
##LOCALITY=Tyrol, Austria
##OWNER=RRUFF
##SOURCE=University of Arizona Mineral Museum
##DESCRIPTION=Brown rhombohedral crystals
##STATUS=The identification of this mineral has been confirmed by X-ray diffraction and chemical analysis
##URL=rruff.info/R050676
##MEASURED CHEMISTRY=(Mg_0.87_Fe^2+^_0.12_Ca_0.01_)_Î£=1_CO_3_; trace amounts of Mn and Cd; CO_2_ estimated by difference
##PIN_ID=M00629
##ORIENTATION=Laser parallel to -a* (-1 0 0). Fiducial mark perpendicular to laser is parallel to c [0 0 1]
88.33800, 13077.00
89.57500, 13088.00
90.81200, 13080.00
92.04900, 13178.00
93.28600, 13021.00
94.52300, 13213.00
95.75900, 13049.00
96.99500, 12860.00
98.23100, 12977.00
99.46700, 12974.00
100.7030, 13000.00
101.9390, 12942.00
103.1740, 12921.00
104.4090, 12968.04
105.6440, 12930.21
106.8790, 13050.00
108.1140, 12997.00
109.3490, 13008.00
110.5830, 13196.00
111.8180, 13241.00
113.0520, 13032.00
114.2860, 13100.00
115.5200, 13301.00
116.7530, 13084.00
117.9870, 13147.00
119.2200, 13459.00
120.4530, 14343.00
121.6860, 14567.00
122.9190, 14180.00
124.1520, 13421.00
125.3850, 12751.00
126.6170, 12707.00
127.8490, 12441.00
129.0810, 12860.00
130.3130, 12653.00
131.5450, 12593.00
132.7770, 12292.00
134.0080, 13513.00
135.2390, 13357.00
136.4710, 13575.00
137.7020, 12830.00
138.9320, 12747.00
140.1630, 12461.00
141.3930, 12610.00
142.6240, 12679.00
143.8540, 12565.00
145.0840, 12733.00
146.3140, 12694.00
147.5440, 12884.00
148.7730, 12985.00
150.0020, 12809.00
151.2320, 12838.00
152.4610, 12832.00
153.6900, 13042.00
154.9180, 12803.00
156.1470, 12981.00
157.3750, 12943.00
158.6040, 13129.00
159.8320, 12894.00
161.0600, 13132.00
162.2870, 13292.00
163.5150, 13141.00
164.7420, 13241.00
165.9700, 13460.00
167.1970, 13304.00
168.4240, 13493.00
169.6510, 13560.00
170.8770, 13555.00
172.1040, 13612.00
173.3300, 13737.00
174.5560, 13861.00
175.7820, 13825.00
177.0080, 13965.00
178.2340, 14227.00
179.4590, 14186.00
180.6850, 14383.00
181.9100, 14530.00
183.1350, 14386.00
184.3600, 14644.00
185.5850, 14785.00
186.8090, 14957.00
188.0340, 15202.00
189.2580, 15532.00
190.4820, 15658.00
191.7060, 16374.00
192.9300, 16924.00
194.1530, 17809.00
195.3770, 18100.00
196.6000, 18947.00
197.8230, 20367.00
199.0460, 21763.00
200.2690, 23412.00
201.4910, 25612.00
202.7140, 28366.00
203.9360, 31804.00
205.1580, 36112.00
206.3800, 41778.00
207.6020, 47994.00
208.8240, 54279.00
210.0450, 56594.00
211.2670, 52986.00
212.4880, 46282.00
213.7090, 37794.00
214.9300, 30526.00
216.1510, 25097.00
217.3710, 21375.00
218.5920, 18807.00
219.8120, 17074.00
221.0320, 16066.00
222.2520, 15243.00
223.4720, 14742.00
224.6910, 14326.00
225.9110, 14136.00
227.1300, 13983.00
228.3490, 13669.00
229.5680, 13639.00
230.7870, 13733.00
232.0050, 13589.00
233.2240, 13793.00
234.4420, 13753.00
235.6600, 13755.00
236.8780, 13796.00
238.0960, 13669.00
239.3140, 13444.00
240.5310, 13882.00
241.7490, 13518.00
242.9660, 13586.00
244.1830, 13563.00
245.4000, 13794.00
246.6160, 13466.00
247.8330, 13442.00
249.0490, 13514.00
250.2660, 13668.00
251.4820, 13773.00
252.6980, 13635.00
253.9130, 13747.00
255.1290, 13668.00
256.3440, 13778.00
257.5600, 13767.00
258.7750, 13752.44
259.9900, 13814.42
261.2040, 13750.00
262.4190, 13840.00
263.6330, 13894.00
264.8480, 13837.00
266.0620, 13982.00
267.2760, 13941.00
268.4900, 13989.00
269.7030, 13804.00
270.9170, 13804.00
272.1300, 14100.00
273.3430, 13953.00
274.5560, 13804.00
275.7690, 13892.02
276.9820, 13691.00
278.1940, 13890.00
279.4070, 13802.00
280.6190, 13923.00
281.8310, 13768.00
283.0430, 13800.00
284.2550, 14058.00
285.4660, 13883.00
286.6770, 13892.00
287.8890, 13855.00
289.1000, 13821.00
290.3110, 14049.00
291.5210, 14018.00
292.7320, 14048.00
293.9420, 14015.00
295.1530, 14221.00
296.3630, 14030.00
297.5730, 14176.00
298.7830, 14364.00
299.9920, 14134.00
301.2020, 14472.00
302.4110, 14511.00
303.6200, 14652.00
304.8290, 14590.00
306.0380, 14827.00
307.2470, 15189.00
308.4550, 15586.00
309.6630, 15936.00
310.8720, 16504.00
312.0800, 17287.00
313.2880, 17784.00
314.4950, 18919.00
315.7030, 20151.00
316.9100, 21357.00
318.1170, 22480.00
319.3240, 23647.00
320.5310, 24896.00
321.7380, 25815.00
322.9450, 26365.00
324.1510, 26442.00
325.3570, 25657.00
326.5630, 25195.00
327.7690, 23889.00
328.9750, 22689.00
330.1810, 21251.00
331.3860, 19828.00
332.5910, 18724.00
333.7960, 17612.00
335.0010, 17390.00
336.2060, 16323.00
337.4110, 16028.00
338.6150, 16015.00
339.8200, 15658.00
341.0240, 15789.00
342.2280, 15548.00
343.4320, 15682.00
344.6350, 15022.00
345.8390, 15215.00
347.0420, 15198.00
348.2450, 15021.00
349.4480, 15188.00
350.6510, 15073.00
351.8540, 14783.00
353.0560, 15159.00
354.2590, 15005.00
355.4610, 14943.00
356.6630, 14777.00
357.8650, 15230.00
359.0670, 14834.00
360.2680, 15179.00
361.4700, 15087.00
362.6710, 15061.00
363.8720, 14976.00
365.0730, 15021.00
366.2740, 15035.00
367.4740, 15119.00
368.6750, 15313.00
369.8750, 15142.00
371.0750, 15338.00
372.2750, 15560.00
373.4750, 15422.00
374.6740, 15437.00
375.8740, 15473.00
377.0730, 15430.00
378.2720, 15503.00
379.4710, 15559.00
380.6700, 15653.00
381.8690, 15588.00
383.0670, 15776.00
384.2660, 15748.00
385.4640, 15393.00
386.6620, 15662.00
387.8600, 15509.00
389.0570, 15619.00
390.2550, 15280.00
391.4520, 15359.00
392.6490, 15422.00
393.8460, 15483.00
395.0430, 15211.00
396.2400, 15137.00
397.4370, 15065.00
398.6330, 15117.00
399.8290, 15249.00
401.0250, 15105.75
402.2210, 15064.00
403.4170, 14947.00
404.6130, 14919.00
405.8080, 14921.00
407.0030, 14958.00
408.1980, 15049.00
409.3930, 14998.08
410.5880, 14971.00
411.7830, 14938.00
412.9770, 14855.00
414.1720, 14822.00
415.3660, 14977.00
416.5600, 14927.00
417.7530, 14870.00
418.9470, 14724.00
420.1410, 14861.00
421.3340, 14860.00
422.5270, 14857.00
423.7200, 14927.00
424.9130, 14809.00
426.1060, 14781.00
427.2980, 14653.00
428.4900, 14919.00
429.6830, 14852.00
430.8750, 14759.00
432.0670, 15103.00
433.2580, 14948.00
434.4500, 14837.00
435.6410, 14939.00
436.8320, 14902.54
438.0240, 15091.00
439.2140, 15005.00
440.4050, 15167.00
441.5960, 15161.00
442.7860, 15040.00
443.9760, 14999.00
445.1670, 15088.00
446.3560, 15168.00
447.5460, 15018.00
448.7360, 15127.00
449.9250, 15189.00
451.1150, 15221.00
452.3040, 15162.00
453.4930, 15356.00
454.6810, 15367.00
455.8700, 15383.00
457.0590, 15694.00
458.2470, 15253.00
459.4350, 15456.00
460.6230, 15578.00
461.8110, 15736.00
462.9980, 15804.00
464.1860, 15812.00
465.3730, 15819.00
466.5600, 15810.00
467.7470, 15808.00
468.9340, 15766.00
470.1210, 15849.00
471.3080, 15927.00
472.4940, 15969.00
473.6800, 16329.00
474.8660, 16206.00
476.0520, 16384.00
477.2380, 16517.00
478.4230, 16303.00
479.6090, 16487.00
480.7940, 16636.00
481.9790, 16866.00
483.1640, 16937.98
484.3490, 16882.00
485.5330, 17098.00
486.7180, 17040.00
487.9020, 17106.00
489.0860, 17116.00
490.2700, 17165.00
491.4540, 17570.00
492.6370, 17487.00
493.8210, 17807.00
495.0040, 17763.00
496.1870, 17861.00
497.3700, 17879.00
498.5530, 17893.73
499.7360, 17892.00
500.9180, 17914.00
502.1000, 17978.27
503.2830, 18132.00
504.4650, 18092.00
505.6460, 18196.00
506.8280, 18173.59
508.0100, 18391.00
509.1910, 18291.00
510.3720, 18093.00
511.5530, 18268.00
512.7340, 18219.00
513.9150, 18438.00
515.0950, 18373.00
516.2760, 18265.00
517.4560, 18120.00
518.6360, 18210.00
519.8160, 18212.00
520.9950, 18130.00
522.1750, 18018.00
523.3540, 18039.00
524.5340, 18167.00
525.7130, 17896.00
526.8920, 17942.00
528.0700, 18092.00
529.2490, 17926.00
530.4270, 17570.00
531.6060, 17825.00
532.7840, 17697.00
533.9620, 17560.00
535.1390, 17757.00
536.3170, 17461.00
537.4940, 17339.00
538.6720, 17314.00
539.8490, 17382.00
541.0260, 17335.00
542.2030, 17327.00
543.3790, 17311.25
544.5560, 17262.62
545.7320, 17252.00
546.9080, 17165.00
548.0840, 17157.00
549.2600, 17089.00
550.4360, 16984.00
551.6110, 17026.00
552.7860, 16950.19
553.9620, 17160.00
555.1370, 16891.00
556.3110, 16869.00
557.4860, 16842.00
558.6610, 17108.00
559.8350, 16988.00
561.0090, 16968.00
562.1830, 16828.00
563.3570, 16907.18
564.5310, 17056.00
565.7040, 16907.00
566.8780, 17011.00
568.0510, 16991.81
569.2240, 16910.90
570.3970, 16929.00
571.5700, 16813.00
572.7420, 16674.00
573.9150, 16690.00
575.0870, 16797.00
576.2590, 16633.00
577.4310, 16721.00
578.6030, 16605.00
579.7740, 16767.00
580.9460, 16968.00
582.1170, 16784.00
583.2880, 16715.00
584.4590, 16737.00
585.6300, 16875.00
586.8010, 16994.00
587.9710, 17011.89
589.1410, 16997.30
590.3110, 17066.00
591.4810, 16817.00
592.6510, 16789.00
593.8210, 16639.00
594.9900, 16727.00
596.1600, 16897.00
597.3290, 16919.00
598.4980, 16747.00
599.6670, 16987.00
600.8350, 16841.00
602.0040, 17022.00
603.1720, 16781.00
604.3400, 16950.00
605.5080, 16963.00
606.6760, 16745.00
607.8440, 16943.00
609.0120, 16823.00
610.1790, 17027.00
611.3460, 16974.00
612.5130, 17072.00
613.6800, 16894.00
614.8470, 16813.00
616.0130, 16949.00
617.1800, 16884.00
618.3460, 17230.00
619.5120, 17000.00
620.6780, 17302.00
621.8440, 17168.00
623.0090, 17322.00
624.1750, 17398.00
625.3400, 17579.00
626.5050, 17371.00
627.6700, 17577.00
628.8350, 17350.00
629.9990, 17141.00
631.1640, 17428.00
632.3280, 17344.00
633.4920, 17367.00
634.6560, 17247.00
635.8200, 17211.00
636.9840, 17285.00
638.1470, 17202.00
639.3100, 17360.00
640.4730, 17238.00
641.6360, 17437.00
642.7990, 17383.00
643.9620, 17344.00
645.1240, 17847.00
646.2870, 17824.00
647.4490, 17798.00
648.6110, 17678.00
649.7730, 17683.00
650.9340, 17854.00
652.0960, 17620.00
653.2570, 17518.00
654.4180, 17645.00
655.5790, 17810.00
656.7400, 17638.00
657.9010, 17696.00
659.0620, 17508.00
660.2220, 17687.00
661.3820, 17522.00
662.5420, 17838.00
663.7020, 17628.00
664.8620, 17746.00
666.0210, 17672.00
667.1810, 17901.00
668.3400, 17863.00
669.4990, 17743.00
670.6580, 17853.54
671.8170, 17942.00
672.9750, 17816.00
674.1340, 17980.00
675.2920, 17851.00
676.4500, 18033.00
677.6080, 18206.00
678.7660, 17951.00
679.9230, 18116.00
681.0810, 18103.00
682.2380, 18007.00
683.3950, 18319.00
684.5520, 18129.00
685.7090, 18325.00
686.8660, 18399.00
688.0220, 18558.00
689.1780, 18486.00
690.3340, 18600.38
691.4900, 18554.00
692.6460, 18702.00
693.8020, 18630.00
694.9570, 18667.00
696.1130, 18812.00
697.2680, 19090.00
698.4230, 18884.00
699.5780, 19151.00
700.7320, 19375.00
701.8870, 19464.00
703.0410, 19702.00
704.1950, 19551.00
705.3490, 19851.00
706.5030, 20167.00
707.6570, 20620.00
708.8110, 20575.00
709.9640, 20682.00
711.1170, 20977.00
712.2700, 21414.00
713.4230, 21893.00
714.5760, 22377.00
715.7280, 22696.00
716.8810, 23456.00
718.0330, 24116.00
719.1850, 25032.00
720.3370, 25397.00
721.4890, 26656.00
722.6400, 27733.00
723.7920, 28758.00
724.9430, 30238.00
726.0940, 32099.00
727.2450, 33832.00
728.3960, 35900.00
729.5460, 38836.00
730.6970, 41560.00
731.8470, 44541.00
732.9970, 47039.00
734.1470, 49834.00
735.2970, 53807.00
736.4460, 54747.00
737.5960, 55196.00
738.7450, 55413.00
739.8940, 53986.00
741.0430, 51881.00
742.1920, 49060.00
743.3410, 45396.00
744.4890, 42163.00
745.6370, 39169.00
746.7850, 36060.00
747.9330, 33628.00
749.0810, 31313.00
750.2290, 29426.00
751.3760, 27572.00
752.5240, 26026.00
753.6710, 24964.00
754.8180, 23474.00
755.9650, 22630.00
757.1110, 22205.00
758.2580, 21301.00
759.4040, 20906.00
760.5510, 20275.00
761.6970, 19972.00
762.8420, 19668.00
763.9880, 19086.00
765.1340, 19330.00
766.2790, 18796.00
767.4240, 18601.00
768.5690, 18391.00
769.7140, 18272.00
770.8590, 18308.00
772.0030, 18166.00
773.1480, 18295.00
774.2920, 18057.00
775.4360, 18064.00
776.5800, 18183.00
777.7240, 18204.00
778.8670, 18224.09
780.0110, 17913.00
781.1540, 18117.00
782.2970, 18089.00
783.4400, 17766.00
784.5830, 18153.00
785.7250, 18155.00
786.8680, 18293.00
788.0100, 18206.00
789.1520, 18074.00
790.2940, 18281.00
791.4360, 18157.00
792.5780, 18434.00
793.7190, 18202.00
794.8600, 18214.00
796.0010, 18335.00
797.1420, 18344.00
798.2830, 18203.00
799.4240, 18360.00
800.5640, 18209.00
801.7050, 18185.00
802.8450, 18364.00
803.9850, 18429.00
805.1250, 18365.00
806.2640, 18495.00
807.4040, 18485.09
808.5430, 18532.00
809.6820, 18512.00
810.8210, 18534.28
811.9600, 18547.35
813.0990, 18558.00
814.2370, 18530.00
815.3760, 18532.00
816.5140, 18440.00
817.6520, 18308.00
818.7900, 18415.00
819.9270, 18385.69
821.0650, 18535.00
822.2020, 18509.00
823.3390, 18451.00
824.4760, 18515.00
825.6130, 18741.00
826.7500, 18629.00
827.8870, 18855.00
829.0230, 18607.00
830.1590, 18859.00
831.2950, 18520.00
832.4310, 18667.00
833.5670, 18820.00
834.7030, 18850.00
835.8380, 18881.00
836.9730, 19013.00
838.1080, 19012.86
839.2430, 18933.00
840.3780, 19054.00
841.5130, 18938.00
842.6470, 18890.00
843.7810, 18993.00
844.9150, 19190.00
846.0490, 18912.00
847.1830, 19120.00
848.3170, 19019.00
849.4500, 19010.00
850.5830, 19082.00
851.7160, 19078.00
852.8490, 19337.00
853.9820, 19404.00
855.1150, 19438.00
856.2470, 19424.00
857.3800, 19550.00
858.5120, 19619.00
859.6440, 19709.00
860.7760, 19738.00
861.9070, 19612.00
863.0390, 19578.00
864.1700, 19827.00
865.3010, 19614.00
866.4320, 19635.00
867.5630, 19548.00
868.6940, 19935.00
869.8240, 19859.00
870.9540, 20122.00
872.0850, 19948.00
873.2150, 20449.00
874.3450, 20802.00
875.4740, 20927.00
876.6040, 21068.00
877.7330, 21009.00
878.8620, 21006.74
879.9910, 21457.00
881.1200, 20867.00
882.2490, 20549.00
883.3770, 20542.00
884.5060, 19859.00
885.6340, 19996.00
886.7620, 19839.00
887.8900, 19775.00
889.0180, 19785.00
890.1450, 19658.00
891.2730, 19777.29
892.4000, 19727.00
893.5270, 20004.00
894.6540, 19801.00
895.7810, 19915.00
896.9070, 19692.00
898.0340, 19922.00
899.1600, 19909.00
900.2860, 19734.00
901.4120, 20008.00
902.5380, 19718.00
903.6630, 19798.00
904.7890, 19951.00
905.9140, 19682.00
907.0390, 19720.00
908.1640, 20052.00
909.2890, 20261.00
910.4130, 20042.00
911.5380, 20058.00
912.6620, 19960.00
913.7860, 20046.00
914.9100, 19998.00
916.0340, 19866.00
917.1580, 19968.00
918.2810, 20112.00
919.4040, 19983.00
920.5280, 20273.00
921.6510, 19953.00
922.7730, 20134.00
923.8960, 19993.00
925.0180, 20052.00
926.1410, 20176.00
927.2630, 20036.00
928.3850, 20039.00
929.5070, 20341.00
930.6280, 20055.00
931.7500, 20212.00
932.8710, 20120.00
933.9920, 20068.00
935.1130, 20159.00
936.2340, 20138.10
937.3550, 20205.94
938.4760, 20293.00
939.5960, 20283.00
940.7160, 20476.00
941.8360, 20385.00
942.9560, 20540.00
944.0760, 20328.00
945.1950, 20597.00
946.3150, 20316.00
947.4340, 20494.00
948.5530, 20657.00
949.6720, 20513.00
950.7900, 20398.00
951.9090, 20571.00
953.0270, 20665.00
954.1460, 20595.00
955.2640, 20609.00
956.3820, 20758.00
957.4990, 20736.00
958.6170, 20775.00
959.7340, 20934.00
960.8520, 20730.00
961.9690, 20837.00
963.0860, 20813.00
964.2020, 20910.00
965.3190, 20871.00
966.4350, 20869.00
967.5520, 21116.00
968.6680, 20956.00
969.7840, 21087.00
970.8990, 21103.00
972.0150, 21106.53
973.1310, 21230.00
974.2460, 21178.00
975.3610, 21142.00
976.4760, 21145.00
977.5910, 21118.00
978.7050, 21189.00
979.8200, 21185.00
980.9340, 21223.46
982.0480, 21251.00
983.1620, 21319.00
984.2760, 21344.00
985.3900, 21427.00
986.5030, 21382.00
987.6160, 21406.00
988.7300, 21393.00
989.8430, 21432.00
990.9550, 21705.00
992.0680, 21477.00
993.1810, 21223.00
994.2930, 21430.00
995.4050, 21527.00
996.5170, 21609.00
997.6290, 21929.00
998.7410, 21696.00
999.8520, 22020.00
1000.964, 22104.00
1002.075, 22341.00
1003.186, 22226.00
1004.297, 22541.00
1005.407, 22150.00
1006.518, 22237.00
1007.628, 21758.00
1008.738, 21893.00
1009.848, 21788.00
1010.958, 21828.00
1012.068, 21642.00
1013.178, 21728.00
1014.287, 21963.00
1015.396, 21647.00
1016.505, 21849.00
1017.614, 22098.00
1018.723, 21948.00
1019.831, 22083.00
1020.940, 22087.00
1022.048, 22141.00
1023.156, 22252.89
1024.264, 22543.00
1025.372, 22429.00
1026.479, 22681.00
1027.587, 22729.00
1028.694, 23079.00
1029.801, 23375.00
1030.908, 23409.00
1032.015, 23306.00
1033.121, 23664.00
1034.228, 23982.00
1035.334, 24082.00
1036.440, 24594.00
1037.546, 25048.00
1038.652, 25109.00
1039.758, 25207.00
1040.863, 25644.00
1041.968, 25850.00
1043.074, 26368.00
1044.178, 26796.00
1045.283, 27419.00
1046.388, 27847.00
1047.492, 28192.00
1048.597, 28913.00
1049.701, 29473.00
1050.805, 30519.00
1051.909, 30992.00
1053.012, 31329.00
1054.116, 32358.00
1055.219, 33290.00
1056.322, 34718.00
1057.425, 35622.00
1058.528, 36986.00
1059.631, 38432.00
1060.733, 40168.00
1061.836, 42100.00
1062.938, 44222.00
1064.040, 46564.00
1065.142, 49474.00
1066.243, 52573.00
1067.345, 55781.00
1068.446, 60343.00
1069.547, 65063.00
1070.648, 70784.00
1071.749, 76814.00
1072.850, 84135.00
1073.951, 92939.00
1075.051, 101525.0
1076.151, 111804.0
1077.251, 124234.0
1078.351, 139515.0
1079.451, 157384.0
1080.550, 179765.0
1081.650, 207398.0
1082.749, 240507.0
1083.848, 281319.0
1084.947, 329336.0
1086.046, 390258.0
1087.144, 460116.0
1088.243, 540381.0
1089.341, 631370.0
1090.439, 722967.0
1091.537, 809671.0
1092.635, 875095.0
1093.732, 913665.0
1094.830, 915815.0
1095.927, 879352.0
1097.024, 817893.0
1098.121, 736265.0
1099.218, 652152.0
1100.314, 567413.0
1101.411, 488716.0
1102.507, 418354.0
1103.603, 354375.0
1104.699, 300179.0
1105.795, 253311.0
1106.890, 212853.0
1107.986, 180938.0
1109.081, 153954.0
1110.176, 132380.0
1111.271, 114475.0
1112.366, 99840.00
1113.461, 88228.00
1114.555, 78591.00
1115.649, 70646.00
1116.744, 63818.00
1117.838, 57722.00
1118.931, 53236.00
1120.025, 49894.00
1121.119, 46263.00
1122.212, 44367.00
1123.305, 41768.00
1124.398, 39969.00
1125.491, 38684.00
1126.584, 37290.00
1127.676, 35777.00
1128.768, 34018.00
1129.861, 32884.00
1130.953, 32144.00
1132.044, 31104.00
1133.136, 30498.00
1134.228, 29903.00
1135.319, 29452.00
1136.410, 28848.00
1137.501, 28602.00
1138.592, 28086.00
1139.683, 27646.00
1140.773, 27440.00
1141.864, 27347.00
1142.954, 26798.00
1144.044, 26686.00
1145.134, 26362.00
1146.224, 26078.00
1147.313, 26121.00
1148.402, 25858.00
1149.492, 25632.00
1150.581, 25446.00
1151.670, 25549.00
1152.758, 25568.00
1153.847, 24993.00
1154.935, 25130.00
1156.024, 24904.00
1157.112, 24787.21
1158.200, 24852.00
1159.287, 24696.00
1160.375, 24678.00
1161.462, 24636.00
1162.550, 24505.22
1163.637, 24402.00
1164.724, 24318.00
1165.810, 24249.00
1166.897, 24220.00
1167.983, 24144.88
1169.070, 24168.00
1170.156, 24089.00
1171.242, 24085.00
1172.327, 24182.00
1173.413, 24114.00
1174.499, 23974.00
1175.584, 24163.00
1176.669, 24389.00
1177.754, 23972.00
1178.839, 24224.00
1179.923, 24241.00
1181.008, 24061.00
1182.092, 23979.00
1183.176, 23893.00
1184.260, 23958.00
1185.344, 23904.15
1186.428, 23922.99
1187.511, 23934.00
1188.595, 23958.00
1189.678, 23934.42
1190.761, 24031.00
1191.843, 23887.00
1192.926, 23897.00
1194.009, 23885.00
1195.091, 23708.00
1196.173, 23760.00
1197.255, 23661.00
1198.337, 23653.00
1199.419, 24055.00
1200.500, 24131.00
1201.582, 23998.00
1202.663, 23845.00
1203.744, 24087.00
1204.825, 24042.00
1205.905, 23948.00
1206.986, 24098.00
1208.066, 23952.00
1209.146, 24061.00
1210.226, 23956.00
1211.306, 24080.00
1212.386, 23779.00
1213.466, 23949.00
1214.545, 24173.00
1215.624, 24248.00
1216.703, 23996.00
1217.782, 24002.00
1218.861, 23961.00
1219.939, 23966.89
1221.018, 24045.00
1222.096, 23991.00
1223.174, 24153.00
1224.252, 23905.00
1225.330, 24237.00
1226.407, 24032.00
1227.485, 24226.00
1228.562, 23977.00
1229.639, 24277.00
1230.716, 24287.00
1231.793, 24176.00
1232.869, 23966.00
1233.946, 24270.00
1235.022, 24299.00
1236.098, 24417.00
1237.174, 24307.00
1238.250, 24431.00
1239.325, 24464.00
1240.401, 24437.00
1241.476, 24684.00
1242.551, 24345.00
1243.626, 24128.00
1244.701, 24215.00
1245.776, 24319.00
1246.850, 24526.00
1247.924, 24102.00
1248.999, 24186.00
1250.073, 24363.00
1251.146, 24591.00
1252.220, 24403.00
1253.293, 24383.00
1254.367, 24453.00
1255.440, 24504.00
1256.513, 24478.00
1257.586, 24569.06
1258.658, 24587.00
1259.731, 24668.00
1260.803, 24697.00
1261.875, 24693.00
1262.947, 24617.00
1264.019, 24560.00
1265.091, 24675.00
1266.162, 24674.00
1267.234, 24752.00
1268.305, 24945.00
1269.376, 24493.00
1270.447, 24791.00
1271.517, 24622.00
1272.588, 24836.00
1273.658, 24569.00
1274.729, 25006.00
1275.799, 24957.00
1276.868, 24884.00
1277.938, 24684.00
1279.008, 24911.00
1280.077, 25099.00
1281.146, 25037.87
1282.215, 24932.00
1283.284, 24927.00
1284.353, 24859.00
1285.421, 24850.71
1286.490, 24634.00
1287.558, 24944.00
1288.626, 24691.00
1289.694, 24909.00
1290.762, 25013.00
1291.829, 24779.00
1292.897, 24834.00
1293.964, 24926.00
1295.031, 24948.00
1296.098, 24871.00
1297.165, 24852.00
1298.231, 25270.00
1299.298, 25101.00
1300.364, 25135.00
1301.430, 24960.00
1302.496, 24985.19
1303.562, 24889.00
1304.627, 25060.00
1305.693, 25242.00
1306.758, 25392.00
1307.823, 25547.00
1308.888, 25628.12
1309.953, 25608.68
1311.018, 25644.00
1312.082, 25487.00
1313.146, 25495.44
1314.210, 25189.00
1315.274, 25404.00
1316.338, 25268.00
1317.402, 25224.00
1318.465, 25457.00
1319.529, 25506.00
1320.592, 25379.00
1321.655, 25317.00
1322.718, 25297.00
1323.780, 25176.00
1324.843, 25426.00
1325.905, 25204.00
1326.967, 25216.00
1328.029, 25275.00
1329.091, 25127.00
1330.153, 25170.00
1331.214, 25442.00
1332.275, 25011.00
1333.337, 25024.00
1334.398, 25352.00
1335.458, 24900.00
1336.519, 25180.00
1337.580, 25262.00
1338.640, 24807.00
1339.700, 25192.00
1340.760, 25037.00
1341.820, 24871.00
1342.880, 25239.00
1343.939, 25058.00
1344.999, 25347.00
1346.058, 24723.00
1347.117, 24953.00
1348.176, 24928.00
1349.235, 24977.00
1350.293, 25015.00
1351.351, 25128.00
1352.410, 25232.00
1353.468, 24878.00
1354.526, 24775.00
1355.583, 24933.00
1356.641, 24952.00
1357.698, 24859.00
1358.756, 25071.00
1359.813, 24955.00
1360.869, 24993.00
1361.926, 24823.00
1362.983, 24946.00
1364.039, 24880.48
1365.095, 25032.00
1366.152, 24843.00
1367.207, 24836.00
1368.263, 24794.00
1369.319, 24910.00
1370.374, 24671.00
1371.430, 24967.00
1372.485, 24911.00
1373.540, 24924.00
1374.594, 25270.00
1375.649, 24730.00
1376.703, 25025.00
1377.758, 24853.00
1378.812, 25174.00
1379.866, 25149.00
1380.920, 24903.00
1381.973, 24968.00
1383.027, 25163.00
1384.080, 24853.00
1385.133, 24961.00
1386.186, 25163.00
1387.239, 24877.00
1388.291, 24965.00
1389.344, 25076.00
1390.396, 24868.00
1391.448, 24878.00
1392.500, 24866.00
1393.552, 24857.00
1394.604, 24765.00
1395.655, 24670.00
1396.707, 24848.00
1397.758, 25055.00
1398.809, 24906.00
1399.860, 24870.00
1400.910, 24815.00
1401.961, 24813.00
1403.011, 24989.00
1404.061, 25069.00
1405.111, 24984.00
1406.161, 25027.00
1407.211, 24941.00
1408.260, 24857.00
1409.310, 24961.00
1410.359, 24889.00
1411.408, 25084.00
1412.457, 25419.00
1413.506, 25213.00
1414.554, 25448.00
1415.603, 25655.00
1416.651, 25282.00
1417.699, 25407.00
1418.747, 25521.00
1419.794, 25096.00
1420.842, 25323.00
1421.889, 25472.00
1422.937, 25210.00
1423.984, 25428.00
1425.031, 25399.00
1426.077, 25768.00
1427.124, 25958.00
1428.170, 25797.00
1429.217, 26192.00
1430.263, 26164.00
1431.309, 26483.00
1432.354, 26402.00
1433.400, 26571.00
1434.445, 26987.00
1435.491, 27484.00
1436.536, 27571.00
1437.581, 28050.00
1438.625, 28956.00
1439.670, 29475.00
1440.714, 30251.00
1441.759, 30982.00
1442.803, 31332.00
1443.847, 31672.00
1444.890, 31952.00
1445.934, 31909.00
1446.978, 31657.00
1448.021, 31402.00
1449.064, 30737.00
1450.107, 30423.00
1451.150, 30138.00
1452.192, 29844.54
1453.235, 29676.27
1454.277, 29527.00
1455.319, 29390.00
1456.361, 29252.00
1457.403, 29126.00
1458.445, 28958.06
1459.486, 28857.32
1460.528, 28684.00
1461.569, 28636.00
1462.610, 28640.00
1463.651, 28532.00
1464.691, 28746.00
1465.732, 28201.00
1466.772, 28344.00
1467.812, 28338.00
1468.852, 28539.00
1469.892, 28565.00
1470.932, 28546.65
1471.971, 28455.50
1473.011, 28387.00
1474.050, 28137.00
1475.089, 27877.00
1476.128, 27803.00
1477.166, 28124.00
1478.205, 27877.00
1479.243, 28040.00
1480.282, 28637.00
1481.320, 28659.00
1482.357, 28005.00
1483.395, 28032.00
1484.433, 27650.00
1485.470, 27918.00
1486.507, 27573.00
1487.544, 27535.00
1488.581, 27542.00
1489.618, 27320.00
1490.655, 27314.00
1491.691, 27452.00
1492.727, 27192.00
1493.763, 26938.00
1494.799, 26980.00
1495.835, 27052.00
1496.871, 26935.00
1497.906, 26963.00
1498.941, 26825.00
1499.976, 26809.81
1501.011, 26834.00
1502.046, 26756.00
1503.081, 26848.00
1504.115, 26861.00
1505.149, 26959.00
1506.183, 26747.00
1507.217, 26865.00
1508.251, 26851.00
1509.285, 26895.00
1510.318, 26637.00
1511.352, 26894.00
1512.385, 26735.00
1513.418, 26717.00
1514.450, 26932.00
1515.483, 26722.00
1516.516, 26666.00
1517.548, 26961.00
1518.580, 27028.00
1519.612, 26924.00
1520.644, 26908.00
1521.675, 27178.00
1522.707, 26875.00
1523.738, 27022.00
1524.769, 26832.00
1525.800, 27015.00
1526.831, 26835.00
1527.862, 27044.00
1528.892, 27213.00
1529.923, 27072.00
1530.953, 27005.00
1531.983, 27025.00
1533.013, 27130.00
1534.042, 27566.00
1535.072, 27355.34
1536.101, 27407.00
1537.131, 27053.00
1538.160, 27241.00
1539.188, 26894.00
1540.217, 27524.00
1541.246, 27275.28
1542.274, 27228.22
1543.302, 27265.00
1544.330, 27080.00
1545.358, 27269.00
1546.386, 27471.00
1547.413, 27434.85
1548.441, 27768.00
1549.468, 27467.00
1550.495, 27423.00
1551.522, 27221.00
1552.549, 27387.00
1553.575, 27401.00
1554.602, 27451.00
1555.628, 27556.00
1556.654, 27502.23
1557.680, 27441.00
1558.706, 27420.00
1559.731, 27424.00
1560.757, 27358.00
1561.782, 27486.00
1562.807, 27101.00
1563.832, 27304.00
1564.857, 27224.00
1565.881, 27445.00
1566.906, 27314.00
1567.930, 27342.00
1568.954, 27255.00
1569.978, 27443.00
1571.002, 27242.00
1572.025, 27356.00
1573.049, 27519.00
1574.072, 27387.00
1575.095, 27208.00
1576.118, 27376.00
1577.141, 27151.00
##END=



