##NAMES=Magnesite
##RRUFFID=R050443
##IDEAL CHEMISTRY=MgCO_3_
##LOCALITY=Brumado, Bahia, Brazil
##OWNER=RRUFF
##SOURCE=Eugene Schlepp
##DESCRIPTION=Group of colorless crystals
##STATUS=The identification of this mineral has been confirmed by X-ray diffraction and chemical analysis
##URL=rruff.info/R050443
##MEASURED CHEMISTRY=Mg_1.00_CO_3_
##PIN_ID=L01455
##ORIENTATION=Laser parallel to -a* (-1 0 0). Fiducial mark perpendicular to laser is parallel to -c [0 0 -1]
92.04900, 5749.000
93.28600, 5782.000
94.52300, 5872.000
95.75900, 5822.000
96.99500, 5725.000
98.23100, 5745.000
99.46700, 5790.000
100.7030, 5781.000
101.9390, 5730.000
103.1740, 5702.000
104.4090, 5910.000
105.6440, 5950.000
106.8790, 5792.000
108.1140, 5789.000
109.3490, 5661.000
110.5830, 5676.000
111.8180, 5798.000
113.0520, 5697.000
114.2860, 5819.000
115.5200, 5959.000
116.7530, 6018.000
117.9870, 5818.000
119.2200, 6025.000
120.4530, 6697.000
121.6860, 6922.000
122.9190, 6663.000
124.1520, 6160.000
125.3850, 5820.000
126.6170, 5538.000
127.8490, 5592.000
129.0810, 5714.000
130.3130, 5608.000
131.5450, 5575.000
132.7770, 5366.000
134.0080, 5524.000
135.2390, 5410.000
136.4710, 5612.000
137.7020, 5466.000
138.9320, 5471.000
140.1630, 5440.000
141.3930, 5441.000
142.6240, 5600.000
143.8540, 5605.000
145.0840, 5618.000
146.3140, 5596.000
147.5440, 5604.000
148.7730, 5590.000
150.0020, 5486.000
151.2320, 5583.000
152.4610, 5641.000
153.6900, 5614.000
154.9180, 5731.000
156.1470, 5589.000
157.3750, 5664.000
158.6040, 5617.000
159.8320, 5571.000
161.0600, 5556.000
162.2870, 5743.000
163.5150, 5712.896
164.7420, 5747.000
165.9700, 5746.000
167.1970, 5774.000
168.4240, 5632.033
169.6510, 5658.938
170.8770, 5640.000
172.1040, 5617.000
173.3300, 5667.000
174.5560, 5676.000
175.7820, 5666.000
177.0080, 5704.000
178.2340, 5739.000
179.4590, 5720.000
180.6850, 5649.000
181.9100, 5836.000
183.1350, 5696.000
184.3600, 5799.000
185.5850, 5880.000
186.8090, 5804.000
188.0340, 5873.000
189.2580, 5857.000
190.4820, 5885.262
191.7060, 5977.000
192.9300, 5984.000
194.1530, 5982.000
195.3770, 6068.000
196.6000, 6204.000
197.8230, 6451.000
199.0460, 6774.000
200.2690, 7031.000
201.4910, 7490.000
202.7140, 8196.000
203.9360, 8967.000
205.1580, 9893.000
206.3800, 11056.00
207.6020, 12469.00
208.8240, 14367.00
210.0450, 16633.00
211.2670, 19974.00
212.4880, 24232.00
213.7090, 26902.00
214.9300, 24748.00
216.1510, 21203.00
217.3710, 16694.00
218.5920, 12753.00
219.8120, 10430.00
221.0320, 9006.000
222.2520, 8011.000
223.4720, 7186.000
224.6910, 6853.000
225.9110, 6600.000
227.1300, 6447.000
228.3490, 6169.000
229.5680, 6193.000
230.7870, 6091.000
232.0050, 6132.000
233.2240, 6232.000
234.4420, 6156.000
235.6600, 6133.000
236.8780, 6273.000
238.0960, 5971.000
239.3140, 6052.000
240.5310, 6151.000
241.7490, 6013.000
242.9660, 6138.000
244.1830, 6139.000
245.4000, 6204.000
246.6160, 6078.000
247.8330, 6061.000
249.0490, 6072.000
250.2660, 6118.000
251.4820, 6163.000
252.6980, 6063.000
253.9130, 6217.000
255.1290, 6187.000
256.3440, 6286.000
257.5600, 6299.000
258.7750, 6215.000
259.9900, 6194.000
261.2040, 6084.000
262.4190, 6313.000
263.6330, 6206.000
264.8480, 6202.000
266.0620, 6349.000
267.2760, 6284.000
268.4900, 6418.000
269.7030, 6153.000
270.9170, 6211.000
272.1300, 6271.000
273.3430, 6444.000
274.5560, 6262.000
275.7690, 6377.000
276.9820, 6217.000
278.1940, 6335.000
279.4070, 6320.000
280.6190, 6405.000
281.8310, 6328.000
283.0430, 6438.000
284.2550, 6505.000
285.4660, 6371.000
286.6770, 6464.000
287.8890, 6515.000
289.1000, 6383.000
290.3110, 6533.000
291.5210, 6528.000
292.7320, 6678.000
293.9420, 6704.000
295.1530, 6707.000
296.3630, 6682.000
297.5730, 6749.000
298.7830, 6910.000
299.9920, 6914.000
301.2020, 7052.000
302.4110, 7112.000
303.6200, 7218.000
304.8290, 7236.000
306.0380, 7395.000
307.2470, 7533.000
308.4550, 7777.000
309.6630, 7906.000
310.8720, 8504.000
312.0800, 8839.000
313.2880, 9408.000
314.4950, 10336.00
315.7030, 11813.00
316.9100, 13492.00
318.1170, 16127.00
319.3240, 19318.00
320.5310, 23707.00
321.7380, 28605.00
322.9450, 35558.00
324.1510, 44248.00
325.3570, 55266.00
326.5630, 69156.00
327.7690, 88658.00
328.9750, 113009.0
330.1810, 132067.0
331.3860, 134668.0
332.5910, 120509.0
333.7960, 95740.00
335.0010, 70275.00
336.2060, 50526.00
337.4110, 36503.00
338.6150, 27010.00
339.8200, 20670.00
341.0240, 16867.00
342.2280, 14326.00
343.4320, 12658.00
344.6350, 11440.00
345.8390, 10704.00
347.0420, 10208.00
348.2450, 9719.000
349.4480, 9227.000
350.6510, 9174.000
351.8540, 8782.000
353.0560, 8688.000
354.2590, 8500.000
355.4610, 8289.000
356.6630, 8162.000
357.8650, 8122.000
359.0670, 8006.000
360.2680, 8104.000
361.4700, 7985.000
362.6710, 7910.000
363.8720, 7780.000
365.0730, 7762.000
366.2740, 7812.000
367.4740, 7749.000
368.6750, 7718.000
369.8750, 7719.000
371.0750, 7633.000
372.2750, 7640.000
373.4750, 7570.000
374.6740, 7592.000
375.8740, 7581.000
377.0730, 7545.196
378.2720, 7530.723
379.4710, 7489.000
380.6700, 7474.000
381.8690, 7432.000
383.0670, 7431.853
384.2660, 7400.165
385.4640, 7405.000
386.6620, 7350.000
387.8600, 7392.000
389.0570, 7367.378
390.2550, 7427.000
391.4520, 7451.000
392.6490, 7446.000
393.8460, 7532.000
395.0430, 7502.000
396.2400, 7411.000
397.4370, 7353.000
398.6330, 7484.000
399.8290, 7581.000
401.0250, 7585.000
402.2210, 7515.000
403.4170, 7424.000
404.6130, 7499.000
405.8080, 7435.000
407.0030, 7415.000
408.1980, 7499.000
409.3930, 7447.000
410.5880, 7346.000
411.7830, 7449.000
412.9770, 7512.000
414.1720, 7439.000
415.3660, 7377.000
416.5600, 7667.000
417.7530, 7504.980
418.9470, 7465.000
420.1410, 7540.000
421.3340, 7333.000
422.5270, 7586.000
423.7200, 7375.000
424.9130, 7503.000
426.1060, 7445.000
427.2980, 7394.000
428.4900, 7634.000
429.6830, 7488.000
430.8750, 7417.000
432.0670, 7561.000
433.2580, 7477.000
434.4500, 7501.000
435.6410, 7606.000
436.8320, 7706.000
438.0240, 7665.000
439.2140, 7549.000
440.4050, 7560.000
441.5960, 7559.000
442.7860, 7595.000
443.9760, 7478.000
445.1670, 7634.000
446.3560, 7649.000
447.5460, 7608.000
448.7360, 7786.000
449.9250, 7589.000
451.1150, 7746.000
452.3040, 7568.000
453.4930, 7689.000
454.6810, 7740.000
455.8700, 7692.000
457.0590, 7753.000
458.2470, 7598.000
459.4350, 7648.000
460.6230, 7834.000
461.8110, 7738.000
462.9980, 7796.000
464.1860, 7714.000
465.3730, 7709.000
466.5600, 7739.000
467.7470, 7799.000
468.9340, 7671.000
470.1210, 7785.000
471.3080, 7641.000
472.4940, 7529.000
473.6800, 7849.000
474.8660, 7740.000
476.0520, 7681.000
477.2380, 7751.000
478.4230, 7793.000
479.6090, 7686.000
480.7940, 7866.000
481.9790, 7854.000
483.1640, 7939.000
484.3490, 7816.000
485.5330, 7844.000
486.7180, 7852.000
487.9020, 7887.000
489.0860, 7891.000
490.2700, 7858.000
491.4540, 7942.000
492.6370, 7908.000
493.8210, 7819.000
495.0040, 7995.000
496.1870, 7939.000
497.3700, 7997.000
498.5530, 7885.000
499.7360, 7931.000
500.9180, 7884.000
502.1000, 8000.000
503.2830, 7915.000
504.4650, 7990.000
505.6460, 8005.000
506.8280, 7837.000
508.0100, 7901.444
509.1910, 8090.000
510.3720, 7937.000
511.5530, 7970.000
512.7340, 8141.000
513.9150, 8233.000
515.0950, 8078.000
516.2760, 8086.000
517.4560, 8127.000
518.6360, 8227.000
519.8160, 8239.000
520.9950, 8105.000
522.1750, 8104.000
523.3540, 8105.000
524.5340, 8144.000
525.7130, 8250.000
526.8920, 8322.000
528.0700, 8225.000
529.2490, 8260.000
530.4270, 8025.000
531.6060, 8249.000
532.7840, 8151.000
533.9620, 8193.000
535.1390, 8402.000
536.3170, 8198.000
537.4940, 8241.000
538.6720, 8209.000
539.8490, 8295.000
541.0260, 8277.000
542.2030, 8323.000
543.3790, 8284.000
544.5560, 8346.000
545.7320, 8322.000
546.9080, 8400.000
548.0840, 8346.000
549.2600, 8370.000
550.4360, 8282.000
551.6110, 8322.000
552.7860, 8314.000
553.9620, 8492.000
555.1370, 8312.000
556.3110, 8459.000
557.4860, 8382.000
558.6610, 8521.000
559.8350, 8431.000
561.0090, 8484.000
562.1830, 8408.000
563.3570, 8450.000
564.5310, 8307.000
565.7040, 8578.000
566.8780, 8591.000
568.0510, 8290.000
569.2240, 8466.000
570.3970, 8720.000
571.5700, 8510.000
572.7420, 8574.000
573.9150, 8647.000
575.0870, 8662.000
576.2590, 8420.000
577.4310, 8692.000
578.6030, 8411.000
579.7740, 8550.000
580.9460, 8632.000
582.1170, 8547.000
583.2880, 8546.000
584.4590, 8670.000
585.6300, 8675.000
586.8010, 8681.000
587.9710, 8752.000
589.1410, 8580.000
590.3110, 8600.000
591.4810, 8640.000
592.6510, 8859.000
593.8210, 8677.000
594.9900, 8729.000
596.1600, 8627.000
597.3290, 8876.000
598.4980, 8593.000
599.6670, 8870.000
600.8350, 8624.000
602.0040, 8774.000
603.1720, 8767.000
604.3400, 8798.000
605.5080, 8903.000
606.6760, 8753.000
607.8440, 8753.000
609.0120, 8736.000
610.1790, 8837.000
611.3460, 8764.000
612.5130, 8964.000
613.6800, 8967.000
614.8470, 8854.000
616.0130, 8841.000
617.1800, 8914.000
618.3460, 8972.000
619.5120, 8904.000
620.6780, 9064.000
621.8440, 8919.000
623.0090, 9026.000
624.1750, 8961.000
625.3400, 8976.039
626.5050, 8999.000
627.6700, 9034.000
628.8350, 9049.516
629.9990, 8976.000
631.1640, 9067.000
632.3280, 9035.145
633.4920, 8984.000
634.6560, 9059.000
635.8200, 9192.000
636.9840, 9161.000
638.1470, 9089.000
639.3100, 9167.000
640.4730, 9046.000
641.6360, 9217.000
642.7990, 9176.000
643.9620, 9130.000
645.1240, 9248.000
646.2870, 9225.000
647.4490, 9257.000
648.6110, 9290.000
649.7730, 9153.000
650.9340, 9295.000
652.0960, 9177.000
653.2570, 9212.000
654.4180, 9434.000
655.5790, 9342.000
656.7400, 9339.000
657.9010, 9241.000
659.0620, 9280.000
660.2220, 9317.000
661.3820, 9256.000
662.5420, 9378.000
663.7020, 9403.000
664.8620, 9464.000
666.0210, 9298.000
667.1810, 9480.000
668.3400, 9391.000
669.4990, 9436.000
670.6580, 9542.000
671.8170, 9384.000
672.9750, 9467.000
674.1340, 9349.000
675.2920, 9464.000
676.4500, 9579.000
677.6080, 9570.000
678.7660, 9567.000
679.9230, 9610.000
681.0810, 9626.000
682.2380, 9579.000
683.3950, 9496.000
684.5520, 9655.000
685.7090, 9500.000
686.8660, 9728.000
688.0220, 9715.000
689.1780, 9509.000
690.3340, 9649.000
691.4900, 9613.000
692.6460, 9656.000
693.8020, 9692.000
694.9570, 9667.000
696.1130, 9587.000
697.2680, 9694.465
698.4230, 9704.000
699.5780, 9863.000
700.7320, 9824.000
701.8870, 9901.000
703.0410, 10049.00
704.1950, 9817.000
705.3490, 10002.00
706.5030, 9914.000
707.6570, 10156.00
708.8110, 10193.00
709.9640, 10030.00
711.1170, 10355.00
712.2700, 10230.00
713.4230, 10344.00
714.5760, 10409.00
715.7280, 10526.00
716.8810, 10555.00
718.0330, 10645.00
719.1850, 10799.27
720.3370, 10934.00
721.4890, 11132.00
722.6400, 11376.00
723.7920, 11562.00
724.9430, 11930.00
726.0940, 12207.00
727.2450, 12866.00
728.3960, 12800.00
729.5460, 13587.00
730.6970, 13825.00
731.8470, 14363.00
732.9970, 14920.00
734.1470, 15441.00
735.2970, 15748.00
736.4460, 16458.00
737.5960, 16648.00
738.7450, 16844.00
739.8940, 17011.00
741.0430, 16633.00
742.1920, 16512.00
743.3410, 15923.00
744.4890, 15105.00
745.6370, 14459.00
746.7850, 13713.00
747.9330, 13298.00
749.0810, 12823.00
750.2290, 12085.00
751.3760, 11857.00
752.5240, 11462.00
753.6710, 11502.00
754.8180, 11129.00
755.9650, 11076.00
757.1110, 10928.00
758.2580, 10634.00
759.4040, 10616.00
760.5510, 10451.00
761.6970, 10377.00
762.8420, 10342.00
763.9880, 10284.00
765.1340, 10254.00
766.2790, 10147.00
767.4240, 10068.00
768.5690, 9959.000
769.7140, 10160.00
770.8590, 10176.00
772.0030, 10084.00
773.1480, 10008.00
774.2920, 10015.00
775.4360, 10098.00
776.5800, 10016.00
777.7240, 10142.00
778.8670, 10010.00
780.0110, 9949.000
781.1540, 10184.00
782.2970, 10172.00
783.4400, 10157.00
784.5830, 10309.00
785.7250, 10133.00
786.8680, 10243.00
788.0100, 10294.00
789.1520, 10253.00
790.2940, 10263.00
791.4360, 10192.00
792.5780, 10307.00
793.7190, 10409.00
794.8600, 10226.00
796.0010, 10348.00
797.1420, 10255.00
798.2830, 10245.00
799.4240, 10265.00
800.5640, 10124.00
801.7050, 10307.00
802.8450, 10502.00
803.9850, 10341.00
805.1250, 10325.00
806.2640, 10475.00
807.4040, 10218.00
808.5430, 10296.00
809.6820, 10302.00
810.8210, 10351.00
811.9600, 10478.00
813.0990, 10477.00
814.2370, 10376.00
815.3760, 10485.00
816.5140, 10361.00
817.6520, 10423.00
818.7900, 10327.00
819.9270, 10352.37
821.0650, 10482.00
822.2020, 10450.00
823.3390, 10531.78
824.4760, 10513.00
825.6130, 10621.00
826.7500, 10616.00
827.8870, 10630.00
829.0230, 10409.00
830.1590, 10681.00
831.2950, 10593.00
832.4310, 10492.00
833.5670, 10583.00
834.7030, 10749.00
835.8380, 10752.00
836.9730, 10711.00
838.1080, 10591.00
839.2430, 10738.00
840.3780, 10765.00
841.5130, 10820.00
842.6470, 10835.00
843.7810, 10852.42
844.9150, 10842.00
846.0490, 10844.00
847.1830, 10852.00
848.3170, 10799.00
849.4500, 10840.19
850.5830, 10843.93
851.7160, 10886.00
852.8490, 10926.00
853.9820, 10942.00
855.1150, 11049.00
856.2470, 10987.00
857.3800, 11039.00
858.5120, 11127.00
859.6440, 11008.00
860.7760, 10989.00
861.9070, 11138.00
863.0390, 10951.00
864.1700, 11071.00
865.3010, 11030.00
866.4320, 10947.00
867.5630, 11007.00
868.6940, 11084.00
869.8240, 11010.00
870.9540, 11186.00
872.0850, 11026.00
873.2150, 11171.00
874.3450, 11141.00
875.4740, 11099.00
876.6040, 11002.00
877.7330, 11112.00
878.8620, 11045.22
879.9910, 11174.00
881.1200, 11055.00
882.2490, 11253.00
883.3770, 11316.00
884.5060, 10966.00
885.6340, 11179.00
886.7620, 11332.00
887.8900, 11193.00
889.0180, 11335.00
890.1450, 11064.00
891.2730, 11227.00
892.4000, 11212.00
893.5270, 11382.00
894.6540, 11475.00
895.7810, 11397.00
896.9070, 11354.00
898.0340, 11478.00
899.1600, 11339.00
900.2860, 11398.00
901.4120, 11335.00
902.5380, 11452.00
903.6630, 11316.00
904.7890, 11464.00
905.9140, 11383.00
907.0390, 11337.00
908.1640, 11418.00
909.2890, 11525.00
910.4130, 11562.00
911.5380, 11569.00
912.6620, 11493.00
913.7860, 11500.00
914.9100, 11482.00
916.0340, 11505.00
917.1580, 11637.00
918.2810, 11652.00
919.4040, 11478.00
920.5280, 11599.00
921.6510, 11525.00
922.7730, 11582.00
923.8960, 11576.00
925.0180, 11612.00
926.1410, 11622.00
927.2630, 11543.00
928.3850, 11693.00
929.5070, 11732.00
930.6280, 11614.00
931.7500, 11544.00
932.8710, 11792.00
933.9920, 11669.00
935.1130, 11787.00
936.2340, 11589.00
937.3550, 11879.00
938.4760, 11737.00
939.5960, 11682.00
940.7160, 11816.00
941.8360, 11658.00
942.9560, 11843.00
944.0760, 11770.00
945.1950, 12022.00
946.3150, 11999.91
947.4340, 11978.00
948.5530, 11957.00
949.6720, 11953.00
950.7900, 11758.00
951.9090, 11929.00
953.0270, 11832.00
954.1460, 12026.00
955.2640, 12063.00
956.3820, 11762.00
957.4990, 11890.00
958.6170, 11943.00
959.7340, 12192.00
960.8520, 11999.00
961.9690, 12061.00
963.0860, 11872.00
964.2020, 12047.00
965.3190, 12105.00
966.4350, 12046.00
967.5520, 11991.00
968.6680, 12051.95
969.7840, 12114.00
970.8990, 12152.00
972.0150, 12164.37
973.1310, 12197.41
974.2460, 12223.00
975.3610, 12209.00
976.4760, 12239.00
977.5910, 12207.00
978.7050, 12090.00
979.8200, 12144.00
980.9340, 12189.00
982.0480, 12014.00
983.1620, 12193.00
984.2760, 12276.00
985.3900, 12117.00
986.5030, 12066.00
987.6160, 12124.00
988.7300, 12266.00
989.8430, 12163.00
990.9550, 12310.00
992.0680, 12303.00
993.1810, 11996.00
994.2930, 12008.00
995.4050, 12144.00
996.5170, 12036.00
997.6290, 12741.00
998.7410, 12558.07
999.8520, 12639.05
1000.964, 12513.00
1002.075, 12589.00
1003.186, 12358.00
1004.297, 12449.00
1005.407, 12316.00
1006.518, 12266.00
1007.628, 12381.00
1008.738, 12332.00
1009.848, 12521.00
1010.958, 12403.00
1012.068, 12446.00
1013.178, 12152.00
1014.287, 12402.00
1015.396, 12228.00
1016.505, 12312.00
1017.614, 12344.00
1018.723, 12238.00
1019.831, 12387.00
1020.940, 12417.00
1022.048, 12328.00
1023.156, 12450.00
1024.264, 12463.00
1025.372, 12432.00
1026.479, 12390.00
1027.587, 12662.00
1028.694, 12753.00
1029.801, 12745.00
1030.908, 12870.00
1032.015, 12797.00
1033.121, 12889.00
1034.228, 12871.00
1035.334, 13080.00
1036.440, 13124.75
1037.546, 13251.00
1038.652, 13234.00
1039.758, 13344.00
1040.863, 13205.00
1041.968, 13493.00
1043.074, 13378.00
1044.178, 13495.00
1045.283, 13706.00
1046.388, 13817.00
1047.492, 14011.00
1048.597, 14033.00
1049.701, 14276.00
1050.805, 14338.00
1051.909, 14655.00
1053.012, 14512.00
1054.116, 14786.00
1055.219, 15043.00
1056.322, 15359.00
1057.425, 15303.00
1058.528, 15717.00
1059.631, 16054.00
1060.733, 16176.00
1061.836, 16601.00
1062.938, 16720.00
1064.040, 17221.00
1065.142, 17463.00
1066.243, 18183.00
1067.345, 18821.00
1068.446, 19259.00
1069.547, 20204.00
1070.648, 21123.00
1071.749, 22087.00
1072.850, 23346.00
1073.951, 24614.00
1075.051, 26124.00
1076.151, 28078.00
1077.251, 30218.00
1078.351, 32592.00
1079.451, 35582.00
1080.550, 39053.00
1081.650, 44000.00
1082.749, 49824.00
1083.848, 57254.00
1084.947, 65671.00
1086.046, 76210.00
1087.144, 89154.00
1088.243, 104110.0
1089.341, 121376.0
1090.439, 140192.0
1091.537, 159339.0
1092.635, 177144.0
1093.732, 189843.0
1094.830, 196482.0
1095.927, 193839.0
1097.024, 184238.0
1098.121, 168394.0
1099.218, 151186.0
1100.314, 133642.0
1101.411, 117597.0
1102.507, 103416.0
1103.603, 91792.00
1104.699, 81148.00
1105.795, 72483.00
1106.890, 64763.00
1107.986, 57591.00
1109.081, 51349.00
1110.176, 45782.00
1111.271, 41162.00
1112.366, 36828.00
1113.461, 33158.00
1114.555, 30052.00
1115.649, 27695.00
1116.744, 25193.00
1117.838, 23504.00
1118.931, 22199.00
1120.025, 20784.00
1121.119, 19788.00
1122.212, 19120.00
1123.305, 18454.00
1124.398, 17687.00
1125.491, 17277.00
1126.584, 16891.00
1127.676, 16545.00
1128.768, 16242.00
1129.861, 15958.84
1130.953, 15610.00
1132.044, 15551.00
1133.136, 15375.00
1134.228, 15357.00
1135.319, 15199.89
1136.410, 15171.00
1137.501, 14949.00
1138.592, 14772.00
1139.683, 14685.00
1140.773, 14754.00
1141.864, 14610.00
1142.954, 14508.00
1144.044, 14641.00
1145.134, 14425.00
1146.224, 14397.00
1147.313, 14269.00
1148.402, 14443.00
1149.492, 14340.00
1150.581, 14224.00
1151.670, 14046.00
1152.758, 14363.00
1153.847, 13969.00
1154.935, 14085.00
1156.024, 14240.00
1157.112, 14092.00
1158.200, 14176.00
1159.287, 14008.00
1160.375, 14205.00
1161.462, 14029.00
1162.550, 13969.00
1163.637, 14011.00
1164.724, 14037.00
1165.810, 14091.00
1166.897, 14048.00
1167.983, 13951.00
1169.070, 14047.00
1170.156, 14174.00
1171.242, 14329.00
1172.327, 14122.00
1173.413, 14065.00
1174.499, 14236.00
1175.584, 14076.00
1176.669, 14194.00
1177.754, 14019.00
1178.839, 14237.00
1179.923, 13994.00
1181.008, 14027.00
1182.092, 14069.00
1183.176, 14101.00
1184.260, 14238.00
1185.344, 14177.00
1186.428, 14224.00
1187.511, 14019.00
1188.595, 14035.00
1189.678, 14083.00
1190.761, 14287.00
1191.843, 14168.00
1192.926, 14085.00
1194.009, 14195.00
1195.091, 14142.00
1196.173, 14078.00
1197.255, 14303.00
1198.337, 14276.00
1199.419, 14473.00
1200.500, 14045.00
1201.582, 14214.00
1202.663, 14237.00
1203.744, 14570.00
1204.825, 14480.00
1205.905, 14233.00
1206.986, 14322.00
1208.066, 14306.00
1209.146, 14294.00
1210.226, 14105.00
1211.306, 14246.00
1212.386, 14238.00
1213.466, 14232.00
1214.545, 14385.00
1215.624, 14503.00
1216.703, 14157.00
1217.782, 14428.00
1218.861, 14280.00
1219.939, 14521.00
1221.018, 14545.00
1222.096, 14358.00
1223.174, 14462.00
1224.252, 14531.00
1225.330, 14410.00
1226.407, 14342.00
1227.485, 14648.00
1228.562, 14475.00
1229.639, 14654.00
1230.716, 14531.00
1231.793, 14448.00
1232.869, 14490.00
1233.946, 14652.00
1235.022, 14573.00
1236.098, 14529.00
1237.174, 14647.00
1238.250, 14571.00
1239.325, 14544.00
1240.401, 14519.00
1241.476, 14707.00
1242.551, 14771.00
1243.626, 14711.00
1244.701, 14756.38
1245.776, 14621.00
1246.850, 14673.00
1247.924, 14558.00
1248.999, 14521.00
1250.073, 14649.00
1251.146, 14549.00
1252.220, 14723.00
1253.293, 14698.00
1254.367, 14607.00
1255.440, 14770.00
1256.513, 14704.00
1257.586, 14659.00
1258.658, 14815.00
1259.731, 14700.00
1260.803, 14805.00
1261.875, 14719.00
1262.947, 14920.00
1264.019, 15126.00
1265.091, 15284.00
1266.162, 15085.00
1267.234, 14999.00
1268.305, 14982.00
1269.376, 14676.00
1270.447, 14897.00
1271.517, 14838.00
1272.588, 15062.00
1273.658, 15077.39
1274.729, 14971.00
1275.799, 15094.00
1276.868, 14978.00
1277.938, 14854.00
1279.008, 14933.00
1280.077, 14865.14
1281.146, 15000.00
1282.215, 14936.00
1283.284, 14983.00
1284.353, 15123.00
1285.421, 14927.00
1286.490, 14880.00
1287.558, 15140.00
1288.626, 14998.00
1289.694, 15017.00
1290.762, 14963.00
1291.829, 14915.00
1292.897, 14918.00
1293.964, 15003.00
1295.031, 15008.95
1296.098, 15139.00
1297.165, 15116.00
1298.231, 15124.00
1299.298, 15173.00
1300.364, 15024.00
1301.430, 15157.00
1302.496, 15129.34
1303.562, 15015.00
1304.627, 15177.00
1305.693, 15330.00
1306.758, 15355.00
1307.823, 15322.00
1308.888, 15356.17
1309.953, 15357.95
1311.018, 15298.00
1312.082, 15344.00
1313.146, 15320.00
1314.210, 15230.00
1315.274, 15163.00
1316.338, 15235.00
1317.402, 15631.00
1318.465, 15356.65
1319.529, 15395.00
1320.592, 15448.00
1321.655, 15307.00
1322.718, 15360.60
1323.780, 15368.51
1324.843, 15380.00
1325.905, 15356.00
1326.967, 15463.00
1328.029, 15290.00
1329.091, 15413.00
1330.153, 15283.00
1331.214, 15417.00
1332.275, 15454.00
1333.337, 15396.00
1334.398, 15329.00
1335.458, 15281.00
1336.519, 15420.00
1337.580, 15449.00
1338.640, 15526.00
1339.700, 15420.00
1340.760, 15426.00
1341.820, 15472.00
1342.880, 15390.00
1343.939, 15521.00
1344.999, 15316.00
1346.058, 15407.00
1347.117, 15472.00
1348.176, 15397.00
1349.235, 15456.00
1350.293, 15576.00
1351.351, 15318.00
1352.410, 15596.00
1353.468, 15379.00
1354.526, 15605.00
1355.583, 15522.00
1356.641, 15596.00
1357.698, 15410.00
1358.756, 15483.00
1359.813, 15597.00
1360.869, 15674.00
1361.926, 15743.00
1362.983, 15690.00
1364.039, 15674.00
1365.095, 15686.00
1366.152, 15460.00
1367.207, 15736.00
1368.263, 15465.00
1369.319, 15493.00
1370.374, 15517.00
1371.430, 15708.00
1372.485, 15662.00
1373.540, 15703.00
1374.594, 15796.00
1375.649, 15586.00
1376.703, 15698.00
1377.758, 15625.00
1378.812, 15828.00
1379.866, 15809.00
1380.920, 15732.00
1381.973, 15821.00
1383.027, 15897.00
1384.080, 15869.00
1385.133, 15716.00
1386.186, 15822.00
1387.239, 15758.00
1388.291, 15699.00
1389.344, 15752.65
1390.396, 15817.00
1391.448, 15755.00
1392.500, 15847.00
1393.552, 15801.00
1394.604, 15881.00
1395.655, 15877.23
1396.707, 15913.33
1397.758, 15892.00
1398.809, 15992.00
1399.860, 16029.77
1400.910, 16059.29
1401.961, 16081.00
1403.011, 16016.00
1404.061, 15932.00
1405.111, 15990.00
1406.161, 15898.00
1407.211, 16140.00
1408.260, 15817.00
1409.310, 16027.00
1410.359, 15988.00
1411.408, 15929.00
1412.457, 16114.00
1413.506, 16095.00
1414.554, 16171.00
1415.603, 16003.00
1416.651, 16114.00
1417.699, 16194.00
1418.747, 16369.00
1419.794, 15883.00
1420.842, 16122.00
1421.889, 16211.00
1422.937, 16028.00
1423.984, 16223.00
1425.031, 16078.00
1426.077, 16243.00
1427.124, 16227.00
1428.170, 16206.00
1429.217, 16376.00
1430.263, 16384.00
1431.309, 16414.00
1432.354, 16402.00
1433.400, 16284.00
1434.445, 16448.00
1435.491, 16711.00
1436.536, 16558.00
1437.581, 16799.00
1438.625, 16856.00
1439.670, 17384.00
1440.714, 17479.00
1441.759, 17974.00
1442.803, 18234.00
1443.847, 18812.00
1444.890, 19101.00
1445.934, 19010.00
1446.978, 18548.00
1448.021, 18284.00
1449.064, 17763.00
1450.107, 17615.00
1451.150, 17320.00
1452.192, 17396.00
1453.235, 17282.00
1454.277, 17115.00
1455.319, 17063.00
1456.361, 16957.00
1457.403, 17088.00
1458.445, 16975.00
1459.486, 16859.00
1460.528, 17122.00
1461.569, 16982.00
1462.610, 17034.00
1463.651, 17013.00
1464.691, 16983.00
1465.732, 16698.00
1466.772, 16808.00
1467.812, 16801.00
1468.852, 16829.00
1469.892, 16988.00
1470.932, 16975.00
1471.971, 16850.00
1473.011, 16847.00
1474.050, 17153.00
1475.089, 16805.00
1476.128, 17023.00
1477.166, 16616.00
1478.205, 17034.00
1479.243, 17000.00
1480.282, 16979.00
1481.320, 17048.00
1482.357, 16917.00
1483.395, 16909.26
1484.433, 16943.00
1485.470, 16848.00
1486.507, 16770.00
1487.544, 16870.00
1488.581, 16848.00
1489.618, 16853.00
1490.655, 16821.00
1491.691, 16959.00
1492.727, 16804.00
1493.763, 17002.00
1494.799, 16857.00
1495.835, 16776.00
1496.871, 16895.00
1497.906, 16993.00
1498.941, 16996.95
1499.976, 16911.00
1501.011, 17011.00
1502.046, 16925.00
1503.081, 16744.00
1504.115, 16830.00
1505.149, 16767.00
1506.183, 16845.00
1507.217, 16838.00
1508.251, 16862.00
1509.285, 16987.00
1510.318, 16958.00
1511.352, 16968.62
1512.385, 17007.00
1513.418, 16925.00
1514.450, 16861.00
1515.483, 16859.00
1516.516, 16802.00
1517.548, 16896.00
1518.580, 16971.00
1519.612, 16967.00
1520.644, 16904.00
1521.675, 16765.30
1522.707, 16903.58
1523.738, 16989.70
1524.769, 17026.49
1525.800, 16866.18
1526.831, 16960.38
1527.862, 16952.59
1528.892, 16940.59
1529.923, 17070.61
1530.953, 16938.95
1531.983, 17139.00
1533.013, 17089.00
1534.042, 17246.00
1535.072, 17087.00
1536.101, 17167.00
1537.131, 16969.00
1538.160, 17265.00
1539.188, 17152.00
1540.217, 17214.00
1541.246, 17344.00
1542.274, 17271.00
1543.302, 17199.00
1544.330, 17229.00
1545.358, 17281.00
1546.386, 17189.00
1547.413, 17203.00
1548.441, 17404.00
1549.468, 17180.00
1550.495, 17300.00
1551.522, 17466.00
1552.549, 17246.00
1553.575, 17410.00
1554.602, 17363.00
1555.628, 17410.00
1556.654, 17365.00
1557.680, 17431.00
1558.706, 17487.00
1559.731, 17574.00
1560.757, 17313.00
1561.782, 17335.00
1562.807, 17244.00
1563.832, 17494.00
1564.857, 17384.00
1565.881, 17568.00
1566.906, 17649.00
1567.930, 17610.00
1568.954, 17470.00
1569.978, 17579.00
1571.002, 17436.00
1572.025, 17697.00
1573.049, 17639.00
1574.072, 17565.00
1575.095, 17664.00
1576.118, 17639.00
1577.141, 17587.00
##END=



