##NAMES=Magnesite
##RRUFFID=R050443
##IDEAL CHEMISTRY=MgCO_3_
##LOCALITY=Brumado, Bahia, Brazil
##OWNER=RRUFF
##SOURCE=Eugene Schlepp
##DESCRIPTION=Group of colorless crystals
##STATUS=The identification of this mineral has been confirmed by X-ray diffraction and chemical analysis
##URL=rruff.info/R050443
##MEASURED CHEMISTRY=Mg_1.00_CO_3_
##PIN_ID=L01619
##ORIENTATION=Laser parallel to -c* (0 0 -1). Fiducial mark perpendicular to laser is parallel to a [1 0 0]
61.07900, 12936.00
62.32000, 12739.00
63.56100, 12363.00
64.80100, 12574.00
66.04100, 12082.00
67.28100, 12451.00
68.52100, 12494.00
69.76100, 12695.00
71.00100, 12051.00
72.24000, 12123.00
73.47900, 12247.00
74.71800, 12464.00
75.95700, 12095.00
77.19600, 12334.00
78.43500, 12019.00
79.67300, 12074.00
80.91200, 12860.00
82.15000, 12925.00
83.38800, 12334.00
84.62600, 12072.00
85.86300, 11675.00
87.10100, 11242.00
88.33800, 10730.00
89.57500, 10465.00
90.81200, 10614.00
92.04900, 10841.00
93.28600, 10145.00
94.52300, 9916.000
95.75900, 10153.00
96.99500, 10028.00
98.23100, 9622.000
99.46700, 9638.000
100.7030, 9596.000
101.9390, 9678.000
103.1740, 9572.000
104.4090, 9942.000
105.6440, 9825.000
106.8790, 9562.000
108.1140, 9073.000
109.3490, 9391.000
110.5830, 9367.000
111.8180, 9160.000
113.0520, 9142.000
114.2860, 9054.821
115.5200, 9353.000
116.7530, 9072.000
117.9870, 8944.000
119.2200, 9254.000
120.4530, 9779.000
121.6860, 10058.00
122.9190, 9437.000
124.1520, 9069.000
125.3850, 8803.087
126.6170, 8585.163
127.8490, 8502.735
129.0810, 8449.000
130.3130, 8416.000
131.5450, 8389.000
132.7770, 8190.000
134.0080, 8116.000
135.2390, 8058.000
136.4710, 8043.000
137.7020, 8022.923
138.9320, 8021.000
140.1630, 8046.714
141.3930, 8061.954
142.6240, 8100.000
143.8540, 8122.000
145.0840, 8224.000
146.3140, 8282.000
147.5440, 8096.000
148.7730, 8136.000
150.0020, 8011.000
151.2320, 7914.000
152.4610, 7975.000
153.6900, 7859.000
154.9180, 7642.000
156.1470, 7606.000
157.3750, 7746.000
158.6040, 7952.000
159.8320, 7816.000
161.0600, 7975.000
162.2870, 7688.000
163.5150, 8066.000
164.7420, 7844.000
165.9700, 7764.000
167.1970, 7766.000
168.4240, 7891.000
169.6510, 7738.000
170.8770, 7778.000
172.1040, 7785.000
173.3300, 7769.000
174.5560, 7669.000
175.7820, 7679.000
177.0080, 7533.000
178.2340, 7620.000
179.4590, 7386.000
180.6850, 7861.000
181.9100, 7803.000
183.1350, 7755.000
184.3600, 7538.000
185.5850, 7444.000
186.8090, 7385.000
188.0340, 7496.000
189.2580, 7651.000
190.4820, 7594.000
191.7060, 7646.000
192.9300, 7651.000
194.1530, 7828.000
195.3770, 7798.000
196.6000, 8039.000
197.8230, 8195.000
199.0460, 8492.000
200.2690, 8763.000
201.4910, 9463.000
202.7140, 9862.000
203.9360, 10227.00
205.1580, 11214.00
206.3800, 12465.00
207.6020, 13769.00
208.8240, 15560.00
210.0450, 17963.00
211.2670, 21199.00
212.4880, 24160.00
213.7090, 25181.00
214.9300, 24053.00
216.1510, 20947.00
217.3710, 16924.00
218.5920, 13526.00
219.8120, 11231.00
221.0320, 9699.000
222.2520, 8658.000
223.4720, 8214.000
224.6910, 7725.000
225.9110, 7521.000
227.1300, 7380.000
228.3490, 7219.000
229.5680, 7206.000
230.7870, 6913.000
232.0050, 7048.000
233.2240, 7114.000
234.4420, 7084.000
235.6600, 6810.000
236.8780, 7071.000
238.0960, 6866.000
239.3140, 6934.000
240.5310, 6963.000
241.7490, 6753.000
242.9660, 6731.000
244.1830, 6904.000
245.4000, 6964.000
246.6160, 6902.000
247.8330, 6820.000
249.0490, 6682.000
250.2660, 6817.000
251.4820, 6728.000
252.6980, 6819.000
253.9130, 6855.000
255.1290, 6721.000
256.3440, 6730.000
257.5600, 6775.000
258.7750, 6670.000
259.9900, 6594.000
261.2040, 6771.000
262.4190, 6560.000
263.6330, 6614.000
264.8480, 6655.000
266.0620, 6687.000
267.2760, 6736.000
268.4900, 6707.000
269.7030, 6591.000
270.9170, 6626.000
272.1300, 6505.000
273.3430, 6654.000
274.5560, 6654.000
275.7690, 6633.000
276.9820, 6631.000
278.1940, 6626.000
279.4070, 6496.000
280.6190, 6556.000
281.8310, 6533.000
283.0430, 6611.000
284.2550, 6657.000
285.4660, 6547.000
286.6770, 6574.000
287.8890, 6511.000
289.1000, 6606.000
290.3110, 6573.000
291.5210, 6439.000
292.7320, 6637.000
293.9420, 6452.000
295.1530, 6469.000
296.3630, 6531.000
297.5730, 6424.000
298.7830, 6538.000
299.9920, 6453.000
301.2020, 6618.000
302.4110, 6658.000
303.6200, 6578.000
304.8290, 6544.000
306.0380, 6733.000
307.2470, 6607.000
308.4550, 6559.000
309.6630, 6452.000
310.8720, 6558.000
312.0800, 6651.000
313.2880, 6628.000
314.4950, 6809.000
315.7030, 6793.000
316.9100, 6950.000
318.1170, 7057.000
319.3240, 7370.000
320.5310, 7509.000
321.7380, 7799.000
322.9450, 8469.000
324.1510, 9100.000
325.3570, 10774.00
326.5630, 12125.00
327.7690, 13980.00
328.9750, 15775.00
330.1810, 17363.00
331.3860, 17369.00
332.5910, 16328.00
333.7960, 13305.00
335.0010, 11291.00
336.2060, 9645.000
337.4110, 8466.000
338.6150, 7860.000
339.8200, 7466.000
341.0240, 7154.000
342.2280, 6916.063
343.4320, 6939.451
344.6350, 6931.611
345.8390, 6894.146
347.0420, 6738.517
348.2450, 6735.521
349.4480, 6671.358
350.6510, 6604.686
351.8540, 6623.174
353.0560, 6484.778
354.2590, 6501.916
355.4610, 6526.000
356.6630, 6596.000
357.8650, 6509.000
359.0670, 6504.000
360.2680, 6477.000
361.4700, 6412.000
362.6710, 6519.000
363.8720, 6479.000
365.0730, 6477.000
366.2740, 6411.000
367.4740, 6626.000
368.6750, 6444.000
369.8750, 6550.000
371.0750, 6448.000
372.2750, 6490.000
373.4750, 6499.000
374.6740, 6458.000
375.8740, 6457.000
377.0730, 6433.000
378.2720, 6534.000
379.4710, 6501.000
380.6700, 6536.000
381.8690, 6429.000
383.0670, 6504.000
384.2660, 6432.000
385.4640, 6481.000
386.6620, 6421.000
387.8600, 6426.910
389.0570, 6433.897
390.2550, 6466.000
391.4520, 6463.000
392.6490, 6564.000
393.8460, 6634.000
395.0430, 6589.000
396.2400, 6533.000
397.4370, 6538.000
398.6330, 6529.000
399.8290, 6487.000
401.0250, 6500.000
402.2210, 6549.000
403.4170, 6513.000
404.6130, 6629.000
405.8080, 6616.939
407.0030, 6526.000
408.1980, 6639.000
409.3930, 6523.000
410.5880, 6489.000
411.7830, 6502.000
412.9770, 6499.000
414.1720, 6549.000
415.3660, 6457.000
416.5600, 6583.000
417.7530, 6541.000
418.9470, 6442.000
420.1410, 6589.000
421.3340, 6412.000
422.5270, 6576.000
423.7200, 6613.000
424.9130, 6575.000
426.1060, 6585.000
427.2980, 6615.000
428.4900, 6645.000
429.6830, 6593.000
430.8750, 6523.000
432.0670, 6645.000
433.2580, 6466.000
434.4500, 6473.000
435.6410, 6667.000
436.8320, 6677.000
438.0240, 6627.000
439.2140, 6536.000
440.4050, 6677.000
441.5960, 6595.000
442.7860, 6577.000
443.9760, 6627.000
445.1670, 6693.000
446.3560, 6583.000
447.5460, 6653.000
448.7360, 6602.000
449.9250, 6584.000
451.1150, 6661.000
452.3040, 6632.000
453.4930, 6635.000
454.6810, 6657.000
455.8700, 6626.000
457.0590, 6736.000
458.2470, 6634.000
459.4350, 6599.000
460.6230, 6721.000
461.8110, 6711.000
462.9980, 6658.000
464.1860, 6710.000
465.3730, 6714.000
466.5600, 6746.000
467.7470, 6732.000
468.9340, 6769.000
470.1210, 6658.000
471.3080, 6693.000
472.4940, 6718.000
473.6800, 6783.000
474.8660, 6684.000
476.0520, 6674.000
477.2380, 6672.000
478.4230, 6661.000
479.6090, 6687.000
480.7940, 6709.000
481.9790, 6852.000
483.1640, 6856.000
484.3490, 6869.084
485.5330, 6834.000
486.7180, 6846.000
487.9020, 6844.000
489.0860, 6846.000
490.2700, 6830.943
491.4540, 6836.280
492.6370, 6775.000
493.8210, 6833.000
495.0040, 6777.000
496.1870, 6760.189
497.3700, 6882.000
498.5530, 6769.000
499.7360, 6813.000
500.9180, 6842.000
502.1000, 6946.000
503.2830, 6925.000
504.4650, 6936.000
505.6460, 6902.000
506.8280, 6840.000
508.0100, 6999.000
509.1910, 6919.000
510.3720, 6844.000
511.5530, 6980.000
512.7340, 6995.000
513.9150, 7111.000
515.0950, 7060.000
516.2760, 7070.000
517.4560, 6947.000
518.6360, 6921.000
519.8160, 7076.000
520.9950, 7146.000
522.1750, 7062.000
523.3540, 6978.000
524.5340, 6958.000
525.7130, 7140.000
526.8920, 7115.000
528.0700, 7146.000
529.2490, 7047.000
530.4270, 7148.000
531.6060, 7021.000
532.7840, 7125.000
533.9620, 7086.000
535.1390, 7186.000
536.3170, 7086.000
537.4940, 7040.000
538.6720, 7004.000
539.8490, 7027.000
541.0260, 7125.000
542.2030, 7064.000
543.3790, 7049.000
544.5560, 7238.000
545.7320, 7120.000
546.9080, 7237.000
548.0840, 7021.000
549.2600, 7008.000
550.4360, 7154.000
551.6110, 7258.000
552.7860, 7169.000
553.9620, 7208.000
555.1370, 7266.000
556.3110, 7297.000
557.4860, 7301.820
558.6610, 7151.000
559.8350, 7274.000
561.0090, 7205.000
562.1830, 7150.000
563.3570, 7220.000
564.5310, 7189.000
565.7040, 7183.391
566.8780, 7315.000
568.0510, 7198.000
569.2240, 7244.000
570.3970, 7334.000
571.5700, 7311.000
572.7420, 7384.000
573.9150, 7379.000
575.0870, 7292.000
576.2590, 7297.783
577.4310, 7224.000
578.6030, 7198.000
579.7740, 7183.000
580.9460, 7133.000
582.1170, 7179.000
583.2880, 7132.000
584.4590, 7212.000
585.6300, 7103.000
586.8010, 7238.000
587.9710, 7164.000
589.1410, 7200.000
590.3110, 7222.000
591.4810, 7122.000
592.6510, 7213.000
593.8210, 7065.000
594.9900, 7109.000
596.1600, 7144.000
597.3290, 7107.000
598.4980, 7237.000
599.6670, 7246.000
600.8350, 7188.000
602.0040, 7257.000
603.1720, 7179.000
604.3400, 7252.000
605.5080, 7246.000
606.6760, 7185.000
607.8440, 7280.000
609.0120, 7257.000
610.1790, 7229.000
611.3460, 7197.000
612.5130, 7218.000
613.6800, 7218.147
614.8470, 7194.527
616.0130, 7291.000
617.1800, 7206.000
618.3460, 7293.000
619.5120, 7415.000
620.6780, 7431.000
621.8440, 7348.000
623.0090, 7467.000
624.1750, 7441.000
625.3400, 7476.000
626.5050, 7347.000
627.6700, 7394.000
628.8350, 7384.000
629.9990, 7382.000
631.1640, 7509.000
632.3280, 7593.000
633.4920, 7450.000
634.6560, 7393.000
635.8200, 7429.000
636.9840, 7497.000
638.1470, 7467.000
639.3100, 7470.000
640.4730, 7414.000
641.6360, 7548.000
642.7990, 7498.000
643.9620, 7393.000
645.1240, 7640.000
646.2870, 7590.000
647.4490, 7626.000
648.6110, 7646.000
649.7730, 7597.000
650.9340, 7583.000
652.0960, 7686.000
653.2570, 7564.000
654.4180, 7707.000
655.5790, 7613.000
656.7400, 7584.000
657.9010, 7631.000
659.0620, 7567.000
660.2220, 7755.000
661.3820, 7666.000
662.5420, 7837.000
663.7020, 7769.000
664.8620, 7814.000
666.0210, 7874.000
667.1810, 7781.000
668.3400, 7823.000
669.4990, 7846.000
670.6580, 7858.000
671.8170, 7878.000
672.9750, 7924.000
674.1340, 7917.000
675.2920, 7973.000
676.4500, 8008.000
677.6080, 7983.000
678.7660, 8014.000
679.9230, 8010.851
681.0810, 7996.000
682.2380, 8012.000
683.3950, 8053.000
684.5520, 8058.000
685.7090, 8093.370
686.8660, 8120.000
688.0220, 8129.000
689.1780, 8182.000
690.3340, 8151.000
691.4900, 8254.000
692.6460, 8245.000
693.8020, 8419.000
694.9570, 8396.000
696.1130, 8419.000
697.2680, 8580.000
698.4230, 8428.000
699.5780, 8522.000
700.7320, 8587.000
701.8870, 8569.000
703.0410, 8698.000
704.1950, 8746.000
705.3490, 8937.000
706.5030, 8895.000
707.6570, 9174.000
708.8110, 9184.000
709.9640, 9268.000
711.1170, 9316.000
712.2700, 9471.000
713.4230, 9625.594
714.5760, 9873.000
715.7280, 10073.00
716.8810, 10296.00
718.0330, 10642.00
719.1850, 11088.00
720.3370, 11280.00
721.4890, 11982.00
722.6400, 12410.00
723.7920, 13202.00
724.9430, 13681.00
726.0940, 14535.00
727.2450, 15494.00
728.3960, 16581.00
729.5460, 17675.00
730.6970, 18898.00
731.8470, 20225.00
732.9970, 21834.00
734.1470, 23328.00
735.2970, 24589.00
736.4460, 26022.00
737.5960, 26747.00
738.7450, 27146.00
739.8940, 27228.00
741.0430, 26537.00
742.1920, 25414.00
743.3410, 23680.00
744.4890, 22157.00
745.6370, 20236.00
746.7850, 18543.00
747.9330, 16815.00
749.0810, 15447.00
750.2290, 14324.00
751.3760, 13449.00
752.5240, 12446.00
753.6710, 11809.00
754.8180, 11234.00
755.9650, 10725.00
757.1110, 10380.00
758.2580, 9999.000
759.4040, 9568.000
760.5510, 9440.000
761.6970, 9293.000
762.8420, 8944.000
763.9880, 8782.000
765.1340, 8629.000
766.2790, 8623.000
767.4240, 8538.000
768.5690, 8423.000
769.7140, 8375.000
770.8590, 8294.083
772.0030, 8192.000
773.1480, 8201.000
774.2920, 8153.000
775.4360, 8173.000
776.5800, 8145.000
777.7240, 8034.000
778.8670, 8205.000
780.0110, 8075.000
781.1540, 8107.000
782.2970, 8026.000
783.4400, 8047.000
784.5830, 8020.000
785.7250, 8000.000
786.8680, 8066.000
788.0100, 8148.000
789.1520, 8082.000
790.2940, 8095.000
791.4360, 8067.000
792.5780, 8102.000
793.7190, 8049.000
794.8600, 8013.000
796.0010, 8056.000
797.1420, 8030.000
798.2830, 8176.000
799.4240, 8000.000
800.5640, 8041.000
801.7050, 7995.000
802.8450, 8208.000
803.9850, 8110.000
805.1250, 8073.000
806.2640, 8265.000
807.4040, 8111.000
808.5430, 8044.000
809.6820, 8107.000
810.8210, 8086.000
811.9600, 8304.000
813.0990, 8144.000
814.2370, 8182.000
815.3760, 8202.000
816.5140, 8126.000
817.6520, 8100.000
818.7900, 8022.000
819.9270, 8217.000
821.0650, 8179.000
822.2020, 8178.000
823.3390, 8126.000
824.4760, 8212.000
825.6130, 8154.000
826.7500, 8102.000
827.8870, 8123.000
829.0230, 8054.000
830.1590, 8071.438
831.2950, 8192.000
832.4310, 8079.000
833.5670, 8281.000
834.7030, 8283.000
835.8380, 8153.000
836.9730, 8214.000
838.1080, 8128.000
839.2430, 8290.000
840.3780, 8437.000
841.5130, 8297.000
842.6470, 8329.000
843.7810, 8297.000
844.9150, 8345.000
846.0490, 8286.000
847.1830, 8269.000
848.3170, 8421.000
849.4500, 8417.000
850.5830, 8273.000
851.7160, 8205.000
852.8490, 8515.000
853.9820, 8513.000
855.1150, 8394.000
856.2470, 8463.000
857.3800, 8478.000
858.5120, 8459.000
859.6440, 8493.000
860.7760, 8433.000
861.9070, 8497.000
863.0390, 8434.000
864.1700, 8522.000
865.3010, 8448.000
866.4320, 8441.000
867.5630, 8456.000
868.6940, 8419.000
869.8240, 8456.000
870.9540, 8451.000
872.0850, 8496.000
873.2150, 8377.000
874.3450, 8482.000
875.4740, 8543.000
876.6040, 8636.000
877.7330, 8387.000
878.8620, 8570.000
879.9910, 8554.000
881.1200, 8564.000
882.2490, 8700.000
883.3770, 8656.000
884.5060, 8540.000
885.6340, 8594.000
886.7620, 8579.000
887.8900, 8665.000
889.0180, 8631.000
890.1450, 8582.000
891.2730, 8581.000
892.4000, 8626.000
893.5270, 8713.000
894.6540, 8626.000
895.7810, 8577.000
896.9070, 8688.000
898.0340, 8631.000
899.1600, 8796.000
900.2860, 8567.000
901.4120, 8617.000
902.5380, 8689.000
903.6630, 8674.000
904.7890, 8600.000
905.9140, 8752.000
907.0390, 8667.000
908.1640, 8910.000
909.2890, 8765.000
910.4130, 8738.000
911.5380, 8796.000
912.6620, 8854.000
913.7860, 8682.000
914.9100, 8837.000
916.0340, 8731.000
917.1580, 8830.000
918.2810, 8679.000
919.4040, 8745.000
920.5280, 8804.000
921.6510, 8896.000
922.7730, 9021.000
923.8960, 8900.000
925.0180, 8832.000
926.1410, 8918.000
927.2630, 8875.767
928.3850, 8878.000
929.5070, 8964.000
930.6280, 8843.000
931.7500, 8910.000
932.8710, 9024.000
933.9920, 8976.000
935.1130, 9012.974
936.2340, 9023.000
937.3550, 8971.000
938.4760, 8952.000
939.5960, 8914.000
940.7160, 8918.000
941.8360, 9056.000
942.9560, 8939.000
944.0760, 9023.000
945.1950, 8994.000
946.3150, 9023.000
947.4340, 8962.000
948.5530, 9193.000
949.6720, 9067.000
950.7900, 9023.000
951.9090, 9137.000
953.0270, 8976.000
954.1460, 8989.000
955.2640, 9195.000
956.3820, 9252.000
957.4990, 9091.000
958.6170, 9199.000
959.7340, 9113.000
960.8520, 9133.000
961.9690, 9114.000
963.0860, 9090.000
964.2020, 9198.000
965.3190, 9283.000
966.4350, 9158.000
967.5520, 9208.000
968.6680, 9131.000
969.7840, 9194.000
970.8990, 9261.000
972.0150, 9049.000
973.1310, 9273.000
974.2460, 9145.000
975.3610, 9399.000
976.4760, 9387.000
977.5910, 9269.000
978.7050, 9318.000
979.8200, 9399.000
980.9340, 9299.000
982.0480, 9404.000
983.1620, 9320.000
984.2760, 9400.000
985.3900, 9467.000
986.5030, 9426.000
987.6160, 9520.000
988.7300, 9404.000
989.8430, 9483.000
990.9550, 9544.000
992.0680, 9491.000
993.1810, 9491.000
994.2930, 9424.000
995.4050, 9459.000
996.5170, 9446.000
997.6290, 9613.000
998.7410, 9667.000
999.8520, 9658.000
1000.964, 9719.861
1002.075, 9719.000
1003.186, 9715.000
1004.297, 9609.000
1005.407, 9579.000
1006.518, 9703.000
1007.628, 9570.000
1008.738, 9347.000
1009.848, 9433.000
1010.958, 9529.000
1012.068, 9414.000
1013.178, 9473.000
1014.287, 9525.000
1015.396, 9576.000
1016.505, 9421.000
1017.614, 9584.000
1018.723, 9524.000
1019.831, 9676.000
1020.940, 9636.000
1022.048, 9660.000
1023.156, 9898.000
1024.264, 9836.000
1025.372, 9721.000
1026.479, 9681.000
1027.587, 9902.000
1028.694, 9908.000
1029.801, 9928.000
1030.908, 10029.00
1032.015, 10076.00
1033.121, 10102.00
1034.228, 10202.55
1035.334, 10325.00
1036.440, 10343.00
1037.546, 10381.00
1038.652, 10399.00
1039.758, 10411.00
1040.863, 10758.00
1041.968, 10885.00
1043.074, 10887.00
1044.178, 11091.00
1045.283, 11106.00
1046.388, 11319.00
1047.492, 11474.00
1048.597, 11801.00
1049.701, 11896.00
1050.805, 12151.00
1051.909, 12386.00
1053.012, 12508.00
1054.116, 12636.00
1055.219, 12983.00
1056.322, 13489.00
1057.425, 13466.00
1058.528, 14028.00
1059.631, 14419.00
1060.733, 14721.00
1061.836, 15166.00
1062.938, 15649.00
1064.040, 16068.00
1065.142, 16902.00
1066.243, 17630.00
1067.345, 18577.00
1068.446, 19612.00
1069.547, 20874.39
1070.648, 22088.00
1071.749, 23908.00
1072.850, 25680.00
1073.951, 27694.00
1075.051, 30265.00
1076.151, 32898.00
1077.251, 35973.00
1078.351, 39781.00
1079.451, 44410.00
1080.550, 50377.00
1081.650, 57937.00
1082.749, 66764.00
1083.848, 78005.00
1084.947, 91662.00
1086.046, 108540.0
1087.144, 128861.0
1088.243, 152318.0
1089.341, 178658.0
1090.439, 207917.0
1091.537, 237368.0
1092.635, 263598.0
1093.732, 283655.0
1094.830, 292419.0
1095.927, 287143.0
1097.024, 273291.0
1098.121, 249204.0
1099.218, 223448.0
1100.314, 195746.0
1101.411, 171570.0
1102.507, 149465.0
1103.603, 131229.0
1104.699, 115412.0
1105.795, 101922.0
1106.890, 89174.00
1107.986, 78852.00
1109.081, 68444.00
1110.176, 60200.00
1111.271, 52555.00
1112.366, 46442.00
1113.461, 40476.00
1114.555, 35873.00
1115.649, 31682.00
1116.744, 28281.00
1117.838, 25783.00
1118.931, 23369.00
1120.025, 21479.00
1121.119, 19849.00
1122.212, 18449.00
1123.305, 17425.00
1124.398, 16745.00
1125.491, 15732.00
1126.584, 15185.00
1127.676, 14614.00
1128.768, 14146.00
1129.861, 13765.00
1130.953, 13444.00
1132.044, 13150.00
1133.136, 12841.00
1134.228, 12610.34
1135.319, 12424.00
1136.410, 12186.00
1137.501, 12026.00
1138.592, 11848.85
1139.683, 11837.00
1140.773, 11640.00
1141.864, 11586.00
1142.954, 11584.00
1144.044, 11435.00
1145.134, 11274.00
1146.224, 11252.00
1147.313, 11191.00
1148.402, 11175.00
1149.492, 11071.00
1150.581, 11050.00
1151.670, 10973.00
1152.758, 11013.00
1153.847, 10982.00
1154.935, 10846.00
1156.024, 10957.00
1157.112, 10811.00
1158.200, 10735.00
1159.287, 10871.00
1160.375, 10651.00
1161.462, 10774.00
1162.550, 10645.00
1163.637, 10721.00
1164.724, 10622.00
1165.810, 10737.00
1166.897, 10572.00
1167.983, 10659.00
1169.070, 10588.00
1170.156, 10574.00
1171.242, 10539.00
1172.327, 10713.00
1173.413, 10609.00
1174.499, 10648.00
1175.584, 10529.00
1176.669, 10467.00
1177.754, 10690.00
1178.839, 10682.00
1179.923, 10505.00
1181.008, 10598.00
1182.092, 10566.00
1183.176, 10409.00
1184.260, 10582.00
1185.344, 10503.00
1186.428, 10693.00
1187.511, 10640.00
1188.595, 10486.00
1189.678, 10606.00
1190.761, 10574.00
1191.843, 10698.00
1192.926, 10464.00
1194.009, 10659.00
1195.091, 10474.00
1196.173, 10541.00
1197.255, 10507.00
1198.337, 10536.00
1199.419, 10625.00
1200.500, 10630.00
1201.582, 10605.00
1202.663, 10539.00
1203.744, 10476.00
1204.825, 10523.00
1205.905, 10613.00
1206.986, 10654.00
1208.066, 10462.00
1209.146, 10596.00
1210.226, 10483.00
1211.306, 10557.00
1212.386, 10488.00
1213.466, 10413.00
1214.545, 10637.00
1215.624, 10709.00
1216.703, 10656.00
1217.782, 10548.00
1218.861, 10727.00
1219.939, 10653.00
1221.018, 10676.00
1222.096, 10612.00
1223.174, 10572.00
1224.252, 10677.00
1225.330, 10692.00
1226.407, 10672.00
1227.485, 10634.00
1228.562, 10608.00
1229.639, 10625.76
1230.716, 10705.00
1231.793, 10631.00
1232.869, 10794.00
1233.946, 10720.00
1235.022, 10768.00
1236.098, 10748.00
1237.174, 10710.00
1238.250, 10646.00
1239.325, 10709.00
1240.401, 10655.00
1241.476, 10721.00
1242.551, 10811.00
1243.626, 10715.00
1244.701, 10783.30
1245.776, 10738.00
1246.850, 10804.00
1247.924, 10733.00
1248.999, 10761.00
1250.073, 10842.00
1251.146, 10690.00
1252.220, 10949.00
1253.293, 10863.00
1254.367, 10847.00
1255.440, 10871.00
1256.513, 10842.00
1257.586, 10830.00
1258.658, 10825.00
1259.731, 10798.00
1260.803, 10791.00
1261.875, 10895.00
1262.947, 10826.00
1264.019, 10909.00
1265.091, 10826.00
1266.162, 10859.00
1267.234, 10959.00
1268.305, 10847.00
1269.376, 10957.00
1270.447, 10925.00
1271.517, 10872.00
1272.588, 11161.00
1273.658, 10955.00
1274.729, 11043.00
1275.799, 11075.00
1276.868, 10919.00
1277.938, 10900.00
1279.008, 10769.00
1280.077, 10970.00
1281.146, 10924.00
1282.215, 11071.00
1283.284, 11157.00
1284.353, 11009.00
1285.421, 11074.00
1286.490, 10986.00
1287.558, 11083.00
1288.626, 11014.00
1289.694, 11021.00
1290.762, 11123.00
1291.829, 11101.00
1292.897, 11134.00
1293.964, 11146.00
1295.031, 11072.00
1296.098, 11132.00
1297.165, 11112.00
1298.231, 11047.00
1299.298, 11139.00
1300.364, 11153.00
1301.430, 11210.00
1302.496, 11121.00
1303.562, 11157.00
1304.627, 11021.00
1305.693, 11241.00
1306.758, 11058.00
1307.823, 11144.00
1308.888, 11186.00
1309.953, 11132.00
1311.018, 11106.00
1312.082, 11090.00
1313.146, 11101.00
1314.210, 11150.00
1315.274, 11250.00
1316.338, 11259.79
1317.402, 11278.73
1318.465, 11288.00
1319.529, 11268.00
1320.592, 11182.00
1321.655, 11180.00
1322.718, 11217.00
1323.780, 11182.00
1324.843, 11286.00
1325.905, 11236.00
1326.967, 11132.00
1328.029, 11222.00
1329.091, 11181.00
1330.153, 11194.27
1331.214, 11152.00
1332.275, 11201.00
1333.337, 11207.00
1334.398, 11139.00
1335.458, 11212.00
1336.519, 11305.00
1337.580, 11256.00
1338.640, 11151.00
1339.700, 11196.00
1340.760, 11255.00
1341.820, 11346.00
1342.880, 11331.00
1343.939, 11263.00
1344.999, 11431.00
1346.058, 11273.00
1347.117, 11309.72
1348.176, 11207.00
1349.235, 11246.00
1350.293, 11422.00
1351.351, 11364.00
1352.410, 11195.00
1353.468, 11288.00
1354.526, 11112.00
1355.583, 11323.00
1356.641, 11320.00
1357.698, 11163.00
1358.756, 11318.00
1359.813, 11269.00
1360.869, 11329.00
1361.926, 11361.00
1362.983, 11417.00
1364.039, 11162.00
1365.095, 11518.00
1366.152, 11348.00
1367.207, 11402.00
1368.263, 11524.00
1369.319, 11323.00
1370.374, 11354.00
1371.430, 11433.00
1372.485, 11367.00
1373.540, 11304.00
1374.594, 11448.00
1375.649, 11285.00
1376.703, 11459.00
1377.758, 11371.00
1378.812, 11432.00
1379.866, 11338.00
1380.920, 11386.00
1381.973, 11438.00
1383.027, 11432.00
1384.080, 11491.00
1385.133, 11386.00
1386.186, 11504.00
1387.239, 11618.00
1388.291, 11363.00
1389.344, 11541.00
1390.396, 11514.00
1391.448, 11646.00
1392.500, 11503.00
1393.552, 11546.00
1394.604, 11512.00
1395.655, 11445.00
1396.707, 11454.00
1397.758, 11575.00
1398.809, 11579.00
1399.860, 11547.00
1400.910, 11479.00
1401.961, 11583.00
1403.011, 11659.00
1404.061, 11778.00
1405.111, 11489.00
1406.161, 11643.00
1407.211, 11555.24
1408.260, 11617.00
1409.310, 11487.00
1410.359, 11490.00
1411.408, 11460.00
1412.457, 11636.00
1413.506, 11713.00
1414.554, 11873.00
1415.603, 11775.00
1416.651, 11716.00
1417.699, 11934.00
1418.747, 11911.00
1419.794, 11745.00
1420.842, 11755.00
1421.889, 11784.00
1422.937, 11649.00
1423.984, 11883.00
1425.031, 11728.00
1426.077, 11858.00
1427.124, 11834.00
1428.170, 11837.00
1429.217, 12078.00
1430.263, 12093.00
1431.309, 12025.00
1432.354, 11915.00
1433.400, 12178.00
1434.445, 12260.00
1435.491, 12343.00
1436.536, 12481.00
1437.581, 12880.00
1438.625, 13288.00
1439.670, 13761.00
1440.714, 14456.00
1441.759, 15287.00
1442.803, 16584.00
1443.847, 17462.00
1444.890, 18574.00
1445.934, 18310.00
1446.978, 17411.00
1448.021, 16297.00
1449.064, 15066.00
1450.107, 14377.00
1451.150, 13807.00
1452.192, 13547.00
1453.235, 13318.00
1454.277, 13259.00
1455.319, 13174.00
1456.361, 12957.00
1457.403, 12965.00
1458.445, 12770.00
1459.486, 12756.00
1460.528, 12665.00
1461.569, 12570.00
1462.610, 12767.00
1463.651, 12751.00
1464.691, 12698.00
1465.732, 12379.00
1466.772, 12549.00
1467.812, 12480.00
1468.852, 12413.00
1469.892, 12541.00
1470.932, 12415.00
1471.971, 12360.00
1473.011, 12597.00
1474.050, 12514.00
1475.089, 12379.00
1476.128, 12502.00
1477.166, 12399.00
1478.205, 12407.00
1479.243, 12402.00
1480.282, 12432.00
1481.320, 12438.00
1482.357, 12526.00
1483.395, 12468.00
1484.433, 12332.00
1485.470, 12501.00
1486.507, 12314.00
1487.544, 12367.00
1488.581, 12394.00
1489.618, 12483.00
1490.655, 12443.11
1491.691, 12357.00
1492.727, 12375.00
1493.763, 12305.00
1494.799, 12268.00
1495.835, 12338.00
1496.871, 12326.00
1497.906, 12210.00
1498.941, 12124.00
1499.976, 12206.00
1501.011, 11999.00
1502.046, 12204.00
1503.081, 12299.00
1504.115, 12126.00
1505.149, 12235.00
1506.183, 12065.00
1507.217, 12153.00
1508.251, 12069.00
1509.285, 12267.00
1510.318, 12263.00
1511.352, 12160.00
1512.385, 12284.00
1513.418, 12183.00
1514.450, 12293.00
1515.483, 12265.00
1516.516, 12221.00
1517.548, 12187.00
1518.580, 12187.00
1519.612, 12312.00
1520.644, 12241.00
1521.675, 12282.00
1522.707, 12277.00
1523.738, 12286.00
1524.769, 12320.00
1525.800, 12352.00
1526.831, 12346.00
1527.862, 12376.00
1528.892, 12417.00
1529.923, 12418.51
1530.953, 12385.83
1531.983, 12419.00
1533.013, 12333.00
1534.042, 12266.00
1535.072, 12352.00
1536.101, 12455.00
1537.131, 12200.00
1538.160, 12350.00
1539.188, 12232.00
1540.217, 12236.00
1541.246, 12369.00
1542.274, 12387.00
1543.302, 12370.00
1544.330, 12441.00
1545.358, 12331.00
1546.386, 12386.00
1547.413, 12439.00
1548.441, 12403.00
1549.468, 12543.00
1550.495, 12518.00
1551.522, 12390.00
1552.549, 12443.00
1553.575, 12440.00
1554.602, 12493.00
1555.628, 12450.00
1556.654, 12503.00
1557.680, 12400.00
1558.706, 12447.00
1559.731, 12335.00
1560.757, 12375.00
1561.782, 12467.00
1562.807, 12532.00
1563.832, 12480.00
1564.857, 12488.00
1565.881, 12475.00
1566.906, 12519.00
1567.930, 12545.00
1568.954, 12537.34
1569.978, 12511.00
1571.002, 12533.00
1572.025, 12549.00
1573.049, 12547.00
1574.072, 12542.00
1575.095, 12505.00
1576.118, 12467.00
1577.141, 12646.00
##END=



