##NAMES=Magnesiochromite
##RRUFFID=R060797
##IDEAL CHEMISTRY=MgCr^3+^_2_O_4_
##LOCALITY=Benbow mine, Stillwater Complex, Mount Wood area, Stillwater County, Montana, USA
##OWNER=RRUFF
##SOURCE=California Institute of Technology
##DESCRIPTION=Black granular massive
##STATUS=The identification of this mineral has been confirmed by X-ray diffraction and chemical analysis
##URL=rruff.info/R060797
##MEASURED CHEMISTRY=(Mg_0.55_Fe^2+^_0.45_)_Σ=1_(Cr_1.28_Al_0.58_Fe^3+^_0.14_)_Σ=2_O_4_
##PIN_ID=M01281
##ORIENTATION=Laser parallel to -a* (-1 0 0). Fiducial mark perpendicular to laser is parallel to c [0 0 1]
125.2950, 17934.00
126.5290, 17970.00
127.7630, 17960.00
128.9970, 18257.00
130.2300, 18458.00
131.4640, 18644.00
132.6970, 18353.00
133.9300, 18399.00
135.1630, 18440.00
136.3950, 18516.00
137.6280, 18664.00
138.8600, 19177.00
140.0920, 19054.00
141.3240, 18761.00
142.5560, 18809.00
143.7880, 18389.00
145.0190, 18668.00
146.2510, 18518.00
147.4820, 18603.00
148.7130, 18575.00
149.9440, 18545.00
151.1750, 18500.00
152.4050, 18639.00
153.6360, 18582.30
154.8660, 18578.81
156.0960, 18604.00
157.3260, 18547.00
158.5560, 18578.00
159.7850, 18639.00
161.0150, 18531.00
162.2440, 18474.00
163.4730, 18605.00
164.7020, 18320.00
165.9310, 18394.00
167.1590, 18390.00
168.3880, 18539.00
169.6160, 18550.00
170.8440, 18584.00
172.0720, 18396.00
173.3000, 18408.00
174.5280, 18292.00
175.7550, 18340.00
176.9820, 18296.00
178.2100, 18362.00
179.4370, 18376.41
180.6630, 18445.00
181.8900, 18434.00
183.1170, 18604.00
184.3430, 18631.37
185.5690, 18612.91
186.7950, 18668.00
188.0210, 18621.00
189.2470, 18643.00
190.4720, 18818.00
191.6970, 18548.00
192.9230, 18809.00
194.1480, 18751.00
195.3730, 18825.00
196.5970, 18682.00
197.8220, 18808.00
199.0460, 18854.00
200.2700, 18612.00
201.4940, 18807.00
202.7180, 18853.00
203.9420, 18303.00
205.1660, 18141.00
206.3890, 18106.00
207.6120, 17888.00
208.8350, 17993.00
210.0580, 17912.00
211.2810, 18068.00
212.5040, 17971.00
213.7260, 17842.00
214.9480, 17965.00
216.1700, 17869.00
217.3920, 17850.00
218.6140, 17845.00
219.8360, 17535.62
221.0570, 17702.19
222.2790, 17795.18
223.5000, 17818.56
224.7210, 17563.80
225.9410, 17668.20
227.1620, 17628.66
228.3820, 17583.22
229.6030, 17738.16
230.8230, 17523.86
232.0430, 17591.00
233.2630, 17626.00
234.4820, 17618.00
235.7020, 17593.00
236.9210, 17581.00
238.1400, 17652.00
239.3590, 17657.00
240.5780, 17579.00
241.7970, 17542.00
243.0150, 17677.00
244.2340, 17469.00
245.4520, 17560.00
246.6700, 17366.00
247.8880, 17506.00
249.1060, 17521.00
250.3230, 17438.00
251.5400, 17450.00
252.7580, 17483.00
253.9750, 17268.00
255.1920, 17486.00
256.4080, 17328.00
257.6250, 17502.00
258.8410, 17471.00
260.0580, 17294.00
261.2740, 17495.00
262.4900, 17383.00
263.7050, 17549.00
264.9210, 17275.00
266.1360, 17457.00
267.3520, 17435.00
268.5670, 17267.00
269.7820, 17422.00
270.9960, 17386.00
272.2110, 17280.00
273.4250, 17266.00
274.6400, 17235.00
275.8540, 17325.00
277.0680, 17298.00
278.2810, 17289.00
279.4950, 17347.96
280.7090, 17288.00
281.9220, 17367.00
283.1350, 17243.00
284.3480, 17119.00
285.5610, 17024.00
286.7730, 17253.00
287.9860, 17246.00
289.1980, 17270.00
290.4100, 17163.00
291.6220, 17249.00
292.8340, 17225.00
294.0460, 17188.00
295.2570, 17059.00
296.4690, 17231.00
297.6800, 17162.00
298.8910, 17253.00
300.1020, 17289.00
301.3120, 17131.00
302.5230, 16981.00
303.7330, 17200.00
304.9440, 17144.00
306.1540, 17175.00
307.3630, 17242.00
308.5730, 17235.00
309.7830, 17235.56
310.9920, 17135.00
312.2010, 17210.00
313.4100, 17235.00
314.6190, 17271.00
315.8280, 17164.00
317.0370, 17177.00
318.2450, 17170.00
319.4530, 17191.00
320.6610, 17254.00
321.8690, 17220.00
323.0770, 17301.00
324.2850, 17130.00
325.4920, 17295.00
326.6990, 17196.00
327.9060, 17320.00
329.1130, 17482.00
330.3200, 17338.00
331.5270, 17280.00
332.7330, 17350.00
333.9390, 17276.00
335.1450, 17307.00
336.3510, 17245.00
337.5570, 17283.00
338.7630, 17415.00
339.9680, 17371.00
341.1740, 17485.00
342.3790, 17386.00
343.5840, 17475.00
344.7890, 17398.00
345.9930, 17355.00
347.1980, 17441.00
348.4020, 17343.00
349.6060, 17558.00
350.8100, 17500.00
352.0140, 17422.00
353.2180, 17741.00
354.4210, 17509.00
355.6250, 17650.00
356.8280, 17715.00
358.0310, 17542.00
359.2340, 17639.00
360.4360, 17648.00
361.6390, 17808.00
362.8410, 17673.00
364.0430, 17832.00
365.2450, 17831.00
366.4470, 17741.00
367.6490, 17940.00
368.8510, 17757.00
370.0520, 17825.00
371.2530, 17820.00
372.4540, 17954.00
373.6550, 17866.00
374.8560, 17858.00
376.0560, 17934.00
377.2570, 17933.59
378.4570, 18049.20
379.6570, 18067.00
380.8570, 18177.00
382.0570, 18284.00
383.2560, 18105.00
384.4560, 18297.00
385.6550, 18347.00
386.8540, 18532.00
388.0530, 18326.00
389.2520, 18327.00
390.4510, 18261.00
391.6490, 18419.00
392.8470, 18518.00
394.0450, 18385.00
395.2430, 18549.00
396.4410, 18496.00
397.6390, 18542.00
398.8360, 18474.00
400.0340, 18737.00
401.2310, 18668.00
402.4280, 18706.00
403.6250, 18589.00
404.8210, 18781.00
406.0180, 18848.00
407.2140, 18704.00
408.4100, 18637.00
409.6060, 19035.00
410.8020, 18857.00
411.9980, 19018.00
413.1930, 19127.00
414.3890, 18918.00
415.5840, 18904.00
416.7790, 19153.00
417.9740, 19110.00
419.1680, 19142.00
420.3630, 19300.00
421.5570, 19151.00
422.7510, 19211.00
423.9450, 19169.00
425.1390, 19062.00
426.3330, 19234.00
427.5270, 19133.00
428.7200, 19189.00
429.9130, 19374.00
431.1060, 19348.00
432.2990, 19270.00
433.4920, 19358.00
434.6840, 19398.00
435.8770, 19495.00
437.0690, 19550.00
438.2610, 19607.45
439.4530, 19558.00
440.6450, 19760.00
441.8360, 19609.00
443.0280, 19755.00
444.2190, 19764.00
445.4100, 19631.00
446.6010, 19940.00
447.7920, 20072.00
448.9820, 19890.00
450.1730, 20106.00
451.3630, 20185.00
452.5530, 20140.00
453.7430, 20141.00
454.9330, 20194.14
456.1230, 20292.00
457.3120, 20312.00
458.5010, 20334.00
459.6910, 20467.00
460.8800, 20398.00
462.0680, 20590.00
463.2570, 20690.00
464.4460, 20597.00
465.6340, 20810.00
466.8220, 20783.46
468.0100, 20612.00
469.1980, 20778.00
470.3860, 20966.00
471.5730, 20833.00
472.7600, 20819.00
473.9480, 20912.00
475.1350, 21303.00
476.3210, 21216.00
477.5080, 21456.00
478.6950, 21344.00
479.8810, 21375.00
481.0670, 21336.00
482.2530, 21633.00
483.4390, 21697.00
484.6250, 21716.00
485.8100, 21643.00
486.9960, 21708.70
488.1810, 21666.00
489.3660, 21809.00
490.5510, 21781.00
491.7360, 21945.00
492.9200, 21849.00
494.1050, 22097.00
495.2890, 22091.00
496.4730, 22296.00
497.6570, 22326.33
498.8400, 22092.00
500.0240, 22423.00
501.2070, 22433.92
502.3910, 22690.38
503.5740, 22873.20
504.7570, 22986.39
505.9400, 22821.45
507.1220, 23015.59
508.3050, 23065.87
509.4870, 23110.18
510.6690, 23444.00
511.8510, 23446.81
513.0330, 23662.12
514.2140, 23820.00
515.3960, 23870.00
516.5770, 24219.00
517.7580, 24298.00
518.9390, 24471.00
520.1200, 24825.00
521.3010, 24901.00
522.4810, 25187.00
523.6610, 25404.00
524.8420, 25748.00
526.0220, 25752.00
527.2010, 26328.00
528.3810, 26694.00
529.5610, 26986.00
530.7400, 26950.00
531.9190, 27435.00
533.0980, 27656.00
534.2770, 28021.00
535.4560, 28369.00
536.6340, 28682.00
537.8120, 29242.00
538.9910, 29748.00
540.1690, 29981.00
541.3460, 30517.34
542.5240, 31324.00
543.7020, 31300.00
544.8790, 32035.00
546.0560, 32325.00
547.2330, 32869.00
548.4100, 33405.00
549.5870, 33732.00
550.7630, 33856.00
551.9400, 34433.00
553.1160, 34623.00
554.2920, 34688.00
555.4680, 34936.00
556.6440, 35232.00
557.8190, 35241.00
558.9950, 35596.00
560.1700, 35795.00
561.3450, 35995.00
562.5200, 36227.00
563.6950, 36396.00
564.8690, 36508.00
566.0440, 36815.00
567.2180, 36793.00
568.3920, 37087.00
569.5660, 36853.00
570.7400, 37121.00
571.9130, 36903.49
573.0870, 37117.77
574.2600, 37199.66
575.4330, 37153.18
576.6060, 36769.83
577.7790, 36686.89
578.9520, 36401.27
580.1240, 35926.00
581.2960, 35725.00
582.4690, 35317.00
583.6410, 34923.00
584.8120, 34325.00
585.9840, 34085.00
587.1560, 33593.00
588.3270, 33364.00
589.4980, 33217.00
590.6690, 32919.00
591.8400, 32606.65
593.0110, 32286.99
594.1810, 31880.00
595.3510, 31528.00
596.5220, 31159.00
597.6920, 30774.00
598.8610, 30840.00
600.0310, 30505.00
601.2010, 30404.00
602.3700, 30079.00
603.5390, 29825.00
604.7080, 29684.00
605.8770, 29574.00
607.0460, 29295.00
608.2140, 29011.00
609.3830, 28656.00
610.5510, 28302.00
611.7190, 28072.00
612.8870, 27864.00
614.0550, 27489.00
615.2220, 27330.00
616.3900, 26890.00
617.5570, 26713.00
618.7240, 26449.00
619.8910, 26089.00
621.0580, 25845.00
622.2240, 25693.00
623.3910, 25237.00
624.5570, 24905.00
625.7230, 24880.52
626.8890, 24852.98
628.0550, 24820.98
629.2200, 24788.51
630.3860, 24546.93
631.5510, 24733.53
632.7160, 24845.19
633.8810, 24699.40
635.0460, 24893.82
636.2100, 25925.00
637.3750, 25926.00
638.5390, 26233.00
639.7030, 26569.00
640.8670, 26783.00
642.0310, 27441.00
643.1950, 27666.00
644.3580, 28122.00
645.5210, 28527.00
646.6850, 28831.00
647.8480, 29143.00
649.0100, 29385.00
650.1730, 29643.72
651.3350, 29852.98
652.4980, 30056.00
653.6600, 30198.00
654.8220, 30300.00
655.9840, 30399.00
657.1450, 30413.00
658.3070, 30388.00
659.4680, 30617.00
660.6300, 30214.00
661.7910, 30470.00
662.9510, 30605.00
664.1120, 30592.00
665.2730, 30787.00
666.4330, 30909.00
667.5930, 31024.90
668.7530, 31160.46
669.9130, 31365.00
671.0730, 31365.00
672.2320, 31616.00
673.3920, 31694.00
674.5510, 32317.00
675.7100, 32396.00
676.8690, 32662.00
678.0280, 33089.00
679.1860, 33263.00
680.3450, 33760.00
681.5030, 34322.00
682.6610, 34587.00
683.8190, 35367.00
684.9770, 35690.00
686.1340, 35792.00
687.2920, 36621.00
688.4490, 36750.00
689.6060, 37660.00
690.7630, 37744.00
691.9200, 38377.00
693.0760, 38818.00
694.2330, 39129.00
695.3890, 39467.08
696.5450, 39553.00
697.7010, 39817.00
698.8570, 39850.00
700.0130, 39847.00
701.1680, 39652.00
702.3230, 39638.00
703.4780, 39327.00
704.6330, 38891.00
705.7880, 38519.00
706.9430, 37931.00
708.0970, 37414.00
709.2520, 37079.00
710.4060, 36463.00
711.5600, 35612.00
712.7140, 35098.00
713.8670, 34303.00
715.0210, 33835.00
716.1740, 33098.00
717.3270, 32466.00
718.4800, 31880.00
719.6330, 31192.89
720.7860, 30881.00
721.9380, 29954.00
723.0910, 29059.00
724.2430, 28515.00
725.3950, 28216.00
726.5470, 28181.00
727.6980, 27782.00
728.8500, 26769.00
730.0010, 26204.00
731.1530, 25814.00
732.3040, 25293.00
733.4550, 25081.00
734.6050, 24786.00
735.7560, 24436.00
736.9060, 24342.00
738.0560, 23977.00
739.2060, 23633.00
740.3560, 23425.00
741.5060, 23060.00
742.6560, 22987.00
743.8050, 22885.00
744.9540, 22784.00
746.1030, 22335.00
747.2520, 22161.00
748.4010, 21973.00
749.5500, 21793.00
750.6980, 21626.00
751.8460, 21466.14
752.9950, 21334.75
754.1420, 21186.00
755.2900, 21087.00
756.4380, 20993.00
757.5850, 20854.25
758.7330, 20700.00
759.8800, 20539.00
761.0270, 20595.00
762.1730, 20413.00
763.3200, 20291.00
764.4670, 20394.00
765.6130, 20166.00
766.7590, 20069.00
767.9050, 20070.00
769.0510, 19895.00
770.1960, 19949.00
771.3420, 19976.00
772.4870, 19913.00
773.6320, 19727.00
774.7770, 19719.00
775.9220, 19515.00
777.0670, 19690.00
778.2110, 19420.00
779.3560, 19519.00
780.5000, 19406.00
781.6440, 19261.00
782.7880, 19391.00
783.9320, 19423.00
785.0750, 19298.73
786.2180, 19257.00
787.3620, 19116.00
788.5050, 19180.00
789.6480, 19144.00
790.7900, 19252.00
791.9330, 19061.00
793.0750, 18861.00
794.2170, 18967.00
795.3590, 18952.00
796.5010, 18856.00
797.6430, 18962.00
798.7850, 18873.78
799.9260, 18784.00
801.0670, 18735.00
802.2080, 18695.65
803.3490, 18761.00
804.4900, 18696.00
805.6310, 18788.00
806.7710, 18877.00
807.9110, 18835.00
809.0510, 18723.00
810.1910, 18720.00
811.3310, 18672.00
812.4710, 18639.94
813.6100, 18621.00
814.7490, 18650.00
815.8880, 18660.44
817.0270, 18758.00
818.1660, 18652.00
819.3050, 18645.00
820.4430, 18333.00
821.5820, 18555.00
822.7200, 18758.00
823.8580, 18824.00
824.9950, 18395.03
826.1330, 18541.09
827.2710, 18614.80
828.4080, 18620.13
829.5450, 18348.56
830.6820, 18437.38
831.8190, 18383.48
832.9560, 18324.91
834.0920, 18467.97
835.2280, 18243.00
836.3650, 18385.31
837.5010, 18382.74
838.6360, 18448.28
839.7720, 18370.21
840.9080, 18338.10
842.0430, 18452.08
843.1780, 18487.08
844.3130, 18397.24
845.4480, 18474.37
846.5830, 18256.59
847.7170, 18299.89
848.8520, 18298.00
849.9860, 18261.00
851.1200, 18269.00
852.2540, 18303.00
853.3870, 18162.00
854.5210, 18361.00
855.6540, 18388.00
856.7880, 18304.00
857.9210, 18187.00
859.0540, 18114.00
860.1860, 18267.00
861.3190, 18264.00
862.4510, 18260.00
863.5840, 18060.00
864.7160, 18111.00
865.8480, 18071.00
866.9790, 18016.37
868.1110, 17995.74
869.2420, 18049.00
870.3740, 17921.00
871.5050, 18075.00
872.6360, 18126.00
873.7660, 18047.00
874.8970, 18031.00
876.0280, 18046.00
877.1580, 18176.00
878.2880, 18153.00
879.4180, 18163.00
880.5480, 17973.00
881.6770, 18149.00
882.8070, 18103.32
883.9360, 18055.92
885.0650, 18122.00
886.1940, 18055.00
887.3230, 17918.00
888.4520, 18060.00
889.5800, 18100.00
890.7090, 18063.00
891.8370, 18152.00
892.9650, 17983.00
894.0930, 18097.00
895.2200, 17876.00
896.3480, 17888.00
897.4750, 18178.00
898.6020, 17998.00
899.7290, 17906.00
900.8560, 17989.00
901.9830, 18046.00
903.1090, 17853.00
904.2360, 17961.00
905.3620, 18069.00
906.4880, 18167.00
907.6140, 17961.00
908.7400, 18055.00
909.8650, 17923.00
910.9900, 18045.00
912.1160, 17933.00
913.2410, 18022.00
914.3660, 18115.00
915.4900, 18051.64
916.6150, 18071.76
917.7390, 18059.00
918.8640, 18009.00
919.9880, 18086.00
921.1120, 18126.00
922.2350, 17971.00
923.3590, 17963.00
924.4820, 17918.00
925.6060, 18093.00
926.7290, 18129.00
927.8520, 17965.00
928.9740, 18064.00
930.0970, 18005.00
931.2190, 18060.00
932.3420, 17852.00
933.4640, 18101.00
934.5860, 17989.00
935.7080, 18011.54
936.8290, 18145.00
937.9510, 18052.00
939.0720, 18103.98
940.1930, 18112.06
941.3140, 18062.00
942.4350, 18096.00
943.5560, 18010.47
944.6760, 17965.00
945.7960, 17986.00
946.9170, 18000.00
948.0370, 18022.00
949.1560, 18013.14
950.2760, 17997.68
951.3960, 18001.00
952.5150, 17960.00
953.6340, 17973.00
954.7530, 18001.00
955.8720, 18171.00
956.9910, 18135.00
958.1090, 18253.00
959.2280, 18189.00
960.3460, 18060.00
961.4640, 18211.00
962.5820, 17948.00
963.6990, 18150.00
964.8170, 18010.00
965.9340, 18074.00
967.0510, 18068.00
968.1690, 17998.00
969.2850, 17935.00
970.4020, 18107.00
971.5190, 18191.00
972.6350, 18216.66
973.7510, 18070.00
974.8670, 18194.00
975.9830, 18122.00
977.0990, 17825.00
978.2150, 18025.00
979.3300, 18032.00
980.4450, 18164.00
981.5600, 17927.00
982.6750, 18062.00
983.7900, 18234.00
984.9050, 18019.00
986.0190, 18176.00
987.1340, 18197.00
988.2480, 18241.00
989.3620, 18046.00
990.4750, 18144.00
991.5890, 18292.00
992.7020, 18025.00
993.8160, 17961.83
994.9290, 18194.75
996.0420, 18332.02
997.1550, 18378.79
998.2670, 18063.97
999.3800, 18216.07
1000.492, 18181.04
1001.604, 18138.33
1002.716, 18356.13
1003.828, 18093.90
1004.940, 18307.56
1006.051, 18331.25
1007.163, 18441.89
1008.274, 18364.25
1009.385, 18344.76
1010.496, 18513.60
1011.606, 18463.00
1012.717, 18331.00
1013.827, 18219.00
1014.937, 18390.00
1016.047, 18320.00
1017.157, 18394.91
1018.267, 18817.00
1019.377, 18411.00
1020.486, 18447.00
1021.595, 18196.00
1022.704, 18545.00
1023.813, 18304.00
1024.922, 18379.00
1026.030, 18293.00
1027.139, 18275.00
1028.247, 18272.55
1029.355, 18293.00
1030.463, 18355.00
1031.571, 18406.00
1032.678, 18717.00
1033.786, 18593.91
1034.893, 18661.07
1036.000, 18564.00
1037.107, 18569.00
1038.214, 18720.00
1039.321, 18654.00
1040.427, 18631.00
1041.533, 18542.00
1042.639, 18542.51
1043.745, 18519.00
1044.851, 18356.79
1045.957, 18591.30
1047.062, 18730.15
1048.168, 18778.51
1049.273, 18465.28
1050.378, 18618.96
1051.482, 18585.50
1052.587, 18544.39
1053.692, 18763.77
1054.796, 18503.12
1055.900, 18718.36
1057.004, 18743.63
1058.108, 18855.85
1059.212, 18871.00
1060.315, 18848.00
1061.418, 19109.00
1062.522, 18963.00
1063.625, 19057.00
1064.728, 18745.00
1065.830, 18880.00
1066.933, 18914.00
1068.035, 19071.00
1069.137, 18937.00
1070.239, 19005.00
1071.341, 18967.79
1072.443, 18949.25
1073.545, 18907.00
1074.646, 18995.00
1075.747, 19048.00
1076.848, 19178.00
1077.949, 19160.00
1079.050, 19248.00
1080.150, 19168.00
1081.251, 19192.00
1082.351, 19302.00
1083.451, 19261.00
1084.551, 19307.00
1085.651, 19105.00
1086.750, 19264.00
1087.850, 19158.00
1088.949, 19240.00
1090.048, 19441.00
1091.147, 19398.00
1092.246, 19293.00
1093.345, 19419.00
1094.443, 19187.00
1095.541, 19189.00
1096.639, 19200.00
1097.737, 19517.00
1098.835, 19666.00
1099.933, 19656.00
1101.030, 19591.00
1102.128, 19366.00
1103.225, 19635.00
1104.322, 19747.00
1105.419, 19581.00
1106.515, 19723.00
1107.612, 19639.00
1108.708, 19635.43
1109.804, 19944.00
1110.900, 19709.00
1111.996, 19600.00
1113.092, 19798.00
1114.187, 20072.00
1115.283, 19901.39
1116.378, 19850.00
1117.473, 19717.00
1118.568, 19895.00
1119.662, 19802.00
1120.757, 19879.00
1121.851, 19849.00
1122.946, 19902.00
1124.040, 19894.00
1125.134, 20037.00
1126.227, 19836.00
1127.321, 19983.00
1128.414, 19851.00
1129.508, 19918.67
1130.601, 20010.00
1131.693, 20008.00
1132.786, 19849.25
1133.879, 20068.23
1134.971, 20191.57
1136.064, 20224.40
1137.156, 19895.66
1138.248, 20033.82
1139.339, 19984.86
1140.431, 19928.23
1141.522, 20132.11
1142.614, 19855.95
1143.705, 20055.69
1144.796, 20065.46
1145.887, 20162.18
1146.977, 19872.00
1148.068, 20035.00
1149.158, 19997.00
1150.248, 19905.00
1151.338, 19753.00
1152.428, 19824.00
1153.518, 19981.00
1154.607, 19969.00
1155.696, 19897.00
1156.785, 19903.00
1157.874, 19946.00
1158.963, 19959.00
1160.052, 19826.00
1161.141, 19810.00
1162.229, 19985.00
1163.317, 19800.00
1164.405, 19905.00
1165.493, 19770.00
1166.581, 19812.25
1167.668, 19554.00
1168.756, 19825.00
1169.843, 19866.00
1170.930, 19719.00
1172.017, 19779.00
1173.103, 19774.00
1174.190, 19802.00
1175.276, 19686.00
1176.363, 19670.00
1177.449, 19649.00
1178.535, 19655.00
1179.620, 19636.89
1180.706, 19648.43
1181.791, 19614.00
1182.877, 19701.00
1183.962, 19689.00
1185.047, 19773.00
1186.131, 19715.00
1187.216, 19758.00
1188.300, 19875.00
1189.385, 19699.00
1190.469, 19720.00
1191.553, 19461.00
1192.637, 19711.00
1193.720, 19612.00
1194.804, 19558.00
1195.887, 19544.00
1196.970, 19387.00
1198.053, 19558.00
1199.136, 19604.00
1200.219, 19481.00
1201.301, 19715.00
1202.383, 19553.00
1203.465, 19597.30
1204.547, 19616.43
1205.629, 19579.00
1206.711, 19528.00
1207.792, 19507.00
1208.874, 19331.00
1209.955, 19447.00
1211.036, 19499.00
1212.117, 19384.00
1213.198, 19576.00
1214.278, 19504.00
1215.359, 19484.00
1216.439, 19551.00
1217.519, 19541.00
1218.599, 19505.00
1219.678, 19565.76
1220.758, 19575.00
1221.837, 19525.00
1222.917, 19613.00
1223.996, 19362.38
1225.075, 19672.00
1226.153, 19197.94
1227.232, 19429.81
1228.310, 19566.02
1229.389, 19611.74
1230.467, 19295.88
1231.545, 19446.91
1232.622, 19662.00
1233.700, 19504.00
1234.777, 19510.00
1235.855, 19456.00
1236.932, 19416.00
1238.009, 19477.00
1239.086, 19563.00
1240.162, 19486.00
1241.239, 19577.00
1242.315, 19509.00
1243.391, 19574.00
1244.467, 19482.00
1245.543, 19669.00
1246.619, 19426.00
1247.694, 19338.00
1248.769, 19520.00
1249.844, 19623.00
1250.919, 19573.00
1251.994, 19556.00
1253.069, 19405.00
1254.144, 19345.00
1255.218, 19545.00
1256.292, 19633.00
1257.366, 19499.00
1258.440, 19381.00
1259.514, 19379.00
1260.587, 19498.00
1261.661, 19392.00
1262.734, 19440.00
1263.807, 19597.00
1264.880, 19577.00
1265.952, 19501.00
1267.025, 19586.00
1268.097, 19355.00
1269.170, 19537.00
1270.242, 19603.00
1271.314, 19447.00
1272.385, 19401.00
1273.457, 19536.00
1274.528, 19434.00
1275.600, 19489.00
1276.671, 19399.88
1277.742, 19615.44
1278.812, 19735.36
1279.883, 19764.77
1280.954, 19432.60
1282.024, 19567.34
1283.094, 19514.97
1284.164, 19454.92
1285.234, 19655.37
1286.303, 19375.80
1287.373, 19572.13
1288.442, 19578.48
1289.511, 19671.78
1290.580, 19576.81
1291.649, 19539.99
1292.718, 19592.00
1293.786, 19585.66
1294.855, 19676.00
1295.923, 19556.00
1296.991, 19605.00
1298.059, 19520.00
1299.126, 19516.00
1300.194, 19557.00
1301.261, 19635.00
1302.328, 19527.39
1303.395, 19680.21
1304.462, 19759.45
1305.529, 19769.07
1306.596, 19500.56
1307.662, 19591.22
1308.728, 19537.94
1309.794, 19478.77
1310.860, 19619.97
1311.926, 19391.93
1312.991, 19529.98
1314.057, 19521.88
1315.122, 19580.67
1316.187, 19342.00
1317.252, 19296.00
1318.317, 19380.00
1319.381, 19479.00
1320.446, 19404.00
1321.510, 19434.00
1322.574, 19375.00
1323.638, 19244.00
1324.702, 19466.00
1325.766, 19315.00
1326.829, 19298.00
1327.892, 19540.00
1328.956, 19299.00
1330.019, 19218.00
1331.081, 19253.00
1332.144, 19302.00
1333.206, 19233.00
1334.269, 19310.00
1335.331, 19216.00
1336.393, 19227.00
1337.455, 19321.00
1338.516, 19366.00
1339.578, 19332.95
1340.639, 19272.00
1341.701, 19235.00
1342.762, 19304.00
1343.822, 19224.00
1344.883, 19220.00
1345.944, 19240.00
1347.004, 19380.00
1348.064, 19005.22
1349.124, 19251.20
1350.184, 19401.53
1351.244, 19461.35
1352.304, 19159.60
1353.363, 19324.72
1354.422, 19302.73
1355.481, 19273.07
1356.540, 19503.91
1357.599, 19254.72
1358.657, 19481.40
1359.716, 19518.14
1360.774, 19362.00
1361.832, 19256.00
1362.890, 19214.00
1363.948, 19493.00
1365.006, 19253.00
1366.063, 19374.00
1367.120, 19149.00
1368.178, 19436.00
1369.234, 19181.00
1370.291, 19418.00
1371.348, 19290.00
1372.404, 19384.00
1373.461, 19389.00
1374.517, 19276.00
1375.573, 19178.00
1376.629, 19177.43
1377.684, 19268.00
1378.740, 19178.00
1379.795, 19162.00
1380.850, 19250.00
1381.905, 19107.00
1382.960, 19276.00
1384.015, 19184.00
1385.070, 19356.00
1386.124, 19323.00
1387.178, 19374.00
1388.232, 19140.00
1389.286, 19356.00
1390.340, 19168.00
1391.393, 19101.00
1392.447, 19296.00
1393.500, 19392.00
1394.553, 19215.00
1395.606, 19143.00
1396.659, 19065.00
1397.711, 19137.84
1398.764, 19092.88
1399.816, 19082.56
1400.868, 19166.00
1401.920, 19057.00
1402.972, 19184.00
1404.023, 19189.00
1405.075, 19205.00
1406.126, 19078.00
1407.177, 19071.00
1408.228, 19095.00
1409.279, 19063.00
1410.330, 18992.00
1411.380, 19014.00
1412.431, 19098.00
1413.481, 19046.77
1414.531, 18887.00
1415.580, 19020.00
1416.630, 18998.00
1417.680, 18954.00
1418.729, 19032.00
1419.778, 18925.00
1420.827, 18950.00
1421.876, 19074.00
1422.925, 18983.00
1423.973, 18978.00
1425.022, 19014.00
1426.070, 18900.00
1427.118, 19006.00
1428.166, 18914.00
1429.214, 18847.00
1430.261, 18798.00
1431.309, 18687.00
1432.356, 18734.00
1433.403, 18988.00
1434.450, 18929.00
1435.497, 18610.00
1436.543, 18889.00
1437.590, 18806.00
1438.636, 18739.00
1439.682, 18830.00
1440.728, 18770.00
1441.774, 18894.00
1442.819, 18810.00
1443.865, 18783.00
1444.910, 18977.00
1445.955, 18747.00
1447.000, 18553.00
1448.045, 18654.00
1449.090, 18851.00
1450.134, 18750.00
1451.178, 18763.00
1452.223, 18878.00
1453.267, 18808.00
1454.310, 18552.00
1455.354, 18621.00
1456.398, 18770.00
1457.441, 18579.00
1458.484, 18732.00
1459.527, 18417.00
1460.570, 18617.00
1461.613, 18552.00
1462.655, 18498.00
1463.698, 18388.00
1464.740, 18616.00
1465.782, 18436.00
1466.824, 18552.00
1467.866, 18528.00
1468.907, 18753.00
1469.948, 18444.00
1470.990, 18536.00
1472.031, 18270.00
1473.072, 18512.00
1474.112, 18477.00
1475.153, 18354.00
1476.194, 18121.00
1477.234, 18478.00
1478.274, 18510.00
1479.314, 18476.00
1480.354, 18358.00
1481.393, 18370.00
1482.433, 18300.00
1483.472, 18302.69
1484.511, 18311.00
1485.550, 18371.00
1486.589, 18287.00
1487.628, 18397.00
1488.666, 18384.00
1489.704, 18309.00
1490.743, 18399.00
1491.781, 18364.41
1492.819, 18367.00
1493.856, 18368.00
1494.894, 18323.00
1495.931, 18281.00
1496.968, 18369.00
1498.005, 18477.00
1499.042, 18254.00
1500.079, 18292.64
1501.115, 18158.00
1502.152, 18077.00
1503.188, 18305.00
1504.224, 18130.00
1505.260, 18110.00
1506.296, 17991.00
1507.331, 18054.00
1508.367, 18054.00
1509.402, 18001.00
1510.437, 18094.95
1511.472, 18135.00
1512.507, 18166.00
1513.541, 18216.00
1514.576, 18123.00
1515.610, 18191.00
1516.644, 18099.00
1517.678, 18115.00
1518.712, 18016.00
1519.746, 18141.00
1520.779, 18024.00
1521.813, 18217.00
1522.846, 18213.00
1523.879, 18252.00
1524.912, 18566.00
1525.944, 18131.00
1526.977, 18020.00
1528.009, 18044.00
1529.041, 18238.00
1530.073, 18195.00
1531.105, 18152.00
1532.137, 17898.00
1533.168, 18152.00
1534.200, 18042.00
1535.231, 18092.00
1536.262, 18424.00
1537.293, 18165.00
1538.324, 17970.00
1539.354, 17937.00
1540.385, 18061.00
1541.415, 18298.00
1542.445, 17954.00
1543.475, 18191.00
1544.505, 18053.00
1545.534, 18124.00
1546.564, 18190.00
1547.593, 18048.00
1548.622, 18130.00
1549.651, 17892.31
1550.680, 18060.21
1551.708, 18154.54
1552.737, 18179.25
1553.765, 17925.82
1554.793, 18031.55
1555.821, 17993.35
1556.849, 17949.24
1557.877, 18105.52
1558.904, 17892.55
1559.932, 18045.65
1560.959, 18052.62
1561.986, 18126.47
1563.013, 18055.51
1564.039, 18029.27
1565.066, 18147.89
1566.092, 18186.31
1567.119, 18098.67
1568.145, 17944.00
1569.170, 18056.00
1570.196, 18059.00
1571.222, 18017.00
1572.247, 18119.00
1573.272, 18095.00
1574.297, 18037.00
1575.322, 17970.00
1576.347, 17928.00
1577.372, 18026.00
##END=



