##NAMES=Magnesio-hastingsite
##RRUFFID=R070288
##IDEAL CHEMISTRY=NaCa_2_(Mg_4_Fe^3+^)Si_6_Al_2_O_22_(OH)_2_
##LOCALITY=Dallas Gem Mine (Gem Mine; Benitoite Mine), New Idria District, San Benito County, California, USA
##OWNER=RRUFF
##SOURCE=Michael Scott
##DESCRIPTION=Dark brown to black prismatic crystals frozen in albite
##STATUS=The identification of this mineral is confirmed by single-crystal X-ray diffraction and chemical analysis.
##URL=rruff.info/R070288
##MEASURED CHEMISTRY=(Na_0.51_[box]_0.33_K_0.16_)_Σ=1_(Ca_1.75_Na_0.25_)_Σ=2_(Mg_3.02_Fe^2+^_0.61_Ti_0.37_)_Σ=4_(Fe^3+^_0.73_Al_0.27_)_Σ=1_Si_5.84_Al_2.16_O_22_(OH)_2_; (OH) estimated by difference
##PIN_ID=M01310
##ORIENTATION=Laser parallel to c* (0 0 1). Fiducial mark perpendicular to laser is parallel to a [1 0 0]
87.63200, 10283.00
88.87300, 10216.00
90.11400, 10406.00
91.35400, 10385.35
92.59500, 10671.00
93.83500, 10593.00
95.07500, 10585.00
96.31500, 10667.00
97.55400, 10212.00
98.79400, 10346.00
100.0330, 10262.00
101.2720, 10138.00
102.5110, 10093.00
103.7500, 10323.00
104.9890, 10602.00
106.2270, 11105.00
107.4650, 11300.00
108.7040, 11012.00
109.9420, 10866.00
111.1790, 10770.00
112.4170, 11204.00
113.6540, 12063.00
114.8920, 12629.00
116.1290, 12646.00
117.3650, 13028.00
118.6020, 12354.00
119.8390, 12430.00
121.0750, 12104.00
122.3110, 11929.00
123.5470, 11695.00
124.7830, 11132.00
126.0190, 10855.84
127.2540, 10913.42
128.4900, 10943.67
129.7250, 10948.07
130.9600, 10849.16
132.1950, 10883.65
133.4290, 10864.68
134.6640, 10843.51
135.8980, 10896.78
137.1320, 10812.90
138.3660, 10864.99
139.6000, 10934.28
140.8340, 10930.65
142.0670, 10923.72
143.3000, 11028.44
144.5330, 10927.43
145.7660, 11030.37
146.9990, 11051.90
148.2320, 11110.69
149.4640, 11195.00
150.6960, 11261.00
151.9280, 11259.00
153.1600, 11500.00
154.3920, 11699.00
155.6230, 11788.00
156.8550, 11808.00
158.0860, 12007.00
159.3170, 12130.00
160.5480, 12180.00
161.7780, 12338.00
163.0090, 12318.00
164.2390, 12238.00
165.4690, 12191.00
166.6990, 11935.00
167.9290, 11741.00
169.1590, 11712.00
170.3880, 11703.00
171.6180, 11572.00
172.8470, 11305.00
174.0760, 11328.00
175.3040, 11325.00
176.5330, 11261.00
177.7610, 11336.00
178.9900, 11236.82
180.2180, 11202.38
181.4460, 11100.00
182.6730, 11108.00
183.9010, 11064.00
185.1280, 11101.00
186.3560, 11207.00
187.5830, 11143.00
188.8100, 11168.00
190.0360, 11049.00
191.2630, 10939.00
192.4890, 11093.00
193.7150, 11028.00
194.9410, 10974.00
196.1670, 10942.00
197.3930, 10935.00
198.6180, 10897.00
199.8440, 10993.00
201.0690, 10837.00
202.2940, 10859.00
203.5190, 10661.00
204.7430, 10585.00
205.9680, 10510.00
207.1920, 10366.00
208.4160, 10321.00
209.6400, 10441.00
210.8640, 10474.00
212.0880, 10564.00
213.3110, 10510.00
214.5340, 10501.00
215.7570, 10629.00
216.9800, 10512.00
218.2030, 10692.00
219.4260, 10758.00
220.6480, 10884.00
221.8700, 10935.00
223.0920, 10857.00
224.3140, 10934.00
225.5360, 10963.00
226.7580, 11033.00
227.9790, 10960.00
229.2000, 11087.00
230.4210, 11003.00
231.6420, 11220.00
232.8630, 11240.00
234.0830, 11269.00
235.3040, 11426.00
236.5240, 11436.00
237.7440, 11537.00
238.9640, 11520.00
240.1830, 11457.00
241.4030, 11448.00
242.6220, 11378.00
243.8410, 11434.00
245.0600, 11296.00
246.2790, 11222.00
247.4980, 11171.00
248.7160, 10978.00
249.9340, 10952.00
251.1530, 10850.00
252.3710, 10636.00
253.5880, 10716.00
254.8060, 10596.00
256.0230, 10409.00
257.2410, 10377.00
258.4580, 10308.00
259.6750, 10168.00
260.8910, 10060.00
262.1080, 10023.00
263.3240, 9895.000
264.5410, 9779.000
265.7570, 9799.000
266.9730, 9784.000
268.1880, 9802.000
269.4040, 9763.021
270.6190, 9728.720
271.8350, 9668.000
273.0500, 9655.000
274.2650, 9584.000
275.4790, 9606.000
276.6940, 9547.000
277.9080, 9510.000
279.1220, 9507.000
280.3360, 9421.386
281.5500, 9504.545
282.7640, 9546.713
283.9770, 9550.102
285.1910, 9398.519
286.4040, 9447.047
287.6170, 9415.383
288.8300, 9380.431
290.0420, 9457.131
291.2550, 9328.096
292.4670, 9579.000
293.6790, 9345.000
294.8910, 9338.000
296.1030, 9580.000
297.3150, 9536.000
298.5260, 9378.000
299.7380, 9557.000
300.9490, 9409.000
302.1600, 9414.000
303.3710, 9538.000
304.5810, 9456.000
305.7920, 9498.000
307.0020, 9453.000
308.2120, 9348.000
309.4220, 9426.000
310.6320, 9363.000
311.8410, 9534.000
313.0510, 9450.000
314.2600, 9386.000
315.4690, 9550.000
316.6780, 9440.000
317.8870, 9471.000
319.0950, 9362.000
320.3040, 9509.000
321.5120, 9486.000
322.7200, 9543.000
323.9280, 9495.000
325.1360, 9594.000
326.3430, 9565.015
327.5510, 9557.000
328.7580, 9561.000
329.9650, 9493.000
331.1720, 9508.000
332.3790, 9605.000
333.5850, 9525.000
334.7910, 9459.000
335.9980, 9549.000
337.2040, 9523.000
338.4100, 9485.000
339.6150, 9434.000
340.8210, 9486.000
342.0260, 9451.000
343.2310, 9502.000
344.4360, 9495.000
345.6410, 9503.000
346.8460, 9581.000
348.0500, 9515.000
349.2550, 9521.000
350.4590, 9434.000
351.6630, 9538.000
352.8670, 9565.000
354.0700, 9591.000
355.2740, 9632.000
356.4770, 9542.000
357.6800, 9571.000
358.8830, 9588.000
360.0860, 9756.000
361.2890, 9725.000
362.4910, 9786.000
363.6930, 9716.000
364.8960, 9735.000
366.0980, 9932.000
367.2990, 9908.576
368.5010, 10045.00
369.7020, 10037.00
370.9040, 10064.00
372.1050, 10114.00
373.3060, 10110.00
374.5070, 10268.00
375.7070, 10357.00
376.9080, 10356.00
378.1080, 10377.00
379.3080, 10391.00
380.5080, 10512.00
381.7080, 10598.00
382.9070, 10655.00
384.1070, 10622.00
385.3060, 10706.00
386.5050, 10845.00
387.7040, 10732.00
388.9030, 10731.00
390.1010, 10568.00
391.3000, 10766.00
392.4980, 10530.00
393.6960, 10551.00
394.8940, 10588.00
396.0920, 10443.00
397.2890, 10351.00
398.4870, 10465.00
399.6840, 10420.00
400.8810, 10373.00
402.0780, 10305.00
403.2750, 10401.00
404.4710, 10364.00
405.6680, 10311.00
406.8640, 10623.00
408.0600, 10455.00
409.2560, 10569.00
410.4520, 10551.00
411.6470, 10587.00
412.8430, 10709.00
414.0380, 10715.00
415.2330, 10790.00
416.4280, 10697.00
417.6220, 10819.00
418.8170, 10825.00
420.0110, 10803.00
421.2050, 10863.00
422.4000, 10669.00
423.5930, 10558.00
424.7870, 10741.00
425.9810, 10559.00
427.1740, 10443.00
428.3670, 10477.00
429.5600, 10405.00
430.7530, 10325.00
431.9460, 10237.00
433.1380, 10133.00
434.3310, 10115.00
435.5230, 10091.00
436.7150, 10007.00
437.9070, 9851.000
439.0980, 9873.617
440.2900, 9963.000
441.4810, 9743.000
442.6720, 9850.000
443.8630, 9560.000
445.0540, 9627.000
446.2450, 9499.271
447.4350, 9519.090
448.6260, 9519.912
449.8160, 9502.884
451.0060, 9409.895
452.1960, 9418.478
453.3850, 9388.500
454.5750, 9358.383
455.7640, 9385.621
456.9530, 9311.515
458.1420, 9340.904
459.3310, 9331.104
460.5200, 9341.453
461.7080, 9312.983
462.8970, 9298.484
464.0850, 9325.864
465.2730, 9332.414
466.4610, 9305.364
467.6480, 9326.002
468.8360, 9265.658
470.0230, 9279.220
471.2100, 9325.526
472.3970, 9308.074
473.5840, 9337.016
474.7710, 9400.291
475.9570, 9468.849
477.1440, 9508.060
478.3300, 9429.902
479.5160, 9503.270
480.7020, 9515.913
481.8870, 9526.042
483.0730, 9620.734
484.2580, 9559.621
485.4430, 9652.949
486.6280, 9684.626
487.8130, 9649.000
488.9980, 9636.000
490.1820, 9713.000
491.3660, 9653.000
492.5510, 9745.000
493.7350, 9875.000
494.9180, 9859.000
496.1020, 9901.000
497.2860, 9961.000
498.4690, 10016.51
499.6520, 10196.00
500.8350, 10195.00
502.0180, 10312.99
503.2000, 10431.00
504.3830, 10435.00
505.5650, 10511.00
506.7470, 10516.00
507.9290, 10640.00
509.1110, 10590.00
510.2930, 10760.00
511.4740, 10916.00
512.6560, 10715.00
513.8370, 10967.00
515.0180, 11116.00
516.1980, 10971.71
517.3790, 11092.19
518.5600, 11179.27
519.7400, 11234.61
520.9200, 11170.27
522.1000, 11255.11
523.2800, 11276.90
524.4590, 11293.82
525.6390, 11392.98
526.8180, 11333.99
527.9970, 11427.11
529.1760, 11456.24
530.3550, 11511.26
531.5340, 11502.84
532.7120, 11510.95
533.8910, 11577.85
535.0690, 11608.57
536.2470, 11583.78
537.4250, 11626.58
538.6020, 11542.11
539.7800, 11564.96
540.9570, 11632.77
542.1340, 11599.40
543.3110, 11631.68
544.4880, 11635.74
545.6650, 11519.83
546.8410, 11502.00
548.0170, 11601.00
549.1940, 11444.00
550.3690, 11541.00
551.5450, 11598.00
552.7210, 11673.00
553.8960, 11586.00
555.0720, 11564.00
556.2470, 11605.00
557.4220, 11613.00
558.5970, 11642.00
559.7710, 11517.00
560.9460, 11462.00
562.1200, 11544.00
563.2940, 11527.00
564.4680, 11536.00
565.6420, 11514.00
566.8160, 11562.00
567.9890, 11447.00
569.1630, 11346.00
570.3360, 11375.00
571.5090, 11442.00
572.6820, 11230.00
573.8540, 11160.00
575.0270, 11001.00
576.1990, 10842.00
577.3710, 10683.00
578.5430, 10561.17
579.7150, 10474.00
580.8870, 10331.00
582.0580, 10183.00
583.2300, 10074.00
584.4010, 9811.000
585.5720, 9622.000
586.7430, 9509.000
587.9130, 9453.000
589.0840, 9244.000
590.2540, 9323.000
591.4240, 9159.000
592.5940, 9090.000
593.7640, 9125.000
594.9340, 8987.000
596.1030, 8902.000
597.2730, 8857.000
598.4420, 8788.520
599.6110, 8772.791
600.7800, 8791.380
601.9490, 8799.522
603.1170, 8797.956
604.2850, 8747.947
605.4540, 8767.852
606.6220, 8764.239
607.7900, 8762.742
608.9570, 8801.661
610.1250, 8775.224
611.2920, 8819.968
612.4590, 8840.779
613.6260, 8877.218
614.7930, 8889.968
615.9600, 8917.591
617.1270, 8841.607
618.2930, 8917.122
619.4590, 8931.911
620.6250, 8944.211
621.7910, 9020.000
622.9570, 9142.000
624.1220, 9152.000
625.2880, 9218.000
626.4530, 9095.000
627.6180, 9225.000
628.7830, 9244.000
629.9480, 9420.000
631.1120, 9467.000
632.2770, 9445.405
633.4410, 9643.186
634.6050, 9794.406
635.7690, 9901.570
636.9330, 9832.721
638.0960, 9991.078
639.2600, 10058.43
640.4230, 10121.96
641.5860, 10312.31
642.7490, 10268.98
643.9120, 10457.31
645.0740, 10534.30
646.2370, 10729.00
647.3990, 10866.00
648.5610, 10921.00
649.7230, 11092.00
650.8850, 11189.00
652.0460, 11170.00
653.2080, 11243.00
654.3690, 11303.00
655.5300, 11306.00
656.6910, 11650.00
657.8520, 11677.00
659.0130, 11731.00
660.1730, 11948.00
661.3330, 11908.00
662.4930, 12045.00
663.6530, 12137.00
664.8130, 12055.00
665.9730, 12081.00
667.1320, 12026.00
668.2920, 11976.00
669.4510, 11886.04
670.6100, 11678.00
671.7680, 11624.00
672.9270, 11472.00
674.0860, 11289.00
675.2440, 11165.00
676.4020, 10951.00
677.5600, 10976.00
678.7180, 10850.00
679.8760, 10571.00
681.0330, 10675.00
682.1900, 10528.00
683.3480, 10438.00
684.5050, 10577.00
685.6610, 10403.00
686.8180, 10266.00
687.9750, 10332.00
689.1310, 10211.00
690.2870, 10079.00
691.4430, 10099.00
692.5990, 10147.00
693.7550, 10031.00
694.9100, 10060.00
696.0660, 10046.00
697.2210, 10066.00
698.3760, 10077.00
699.5310, 9939.000
700.6860, 9876.000
701.8400, 9987.000
702.9940, 9850.000
704.1490, 9813.000
705.3030, 9980.000
706.4570, 9928.000
707.6100, 10037.00
708.7640, 9985.000
709.9170, 10081.00
711.0710, 9983.000
712.2240, 9980.000
713.3770, 10113.00
714.5290, 10293.00
715.6820, 10249.00
716.8340, 10250.00
717.9870, 10361.00
719.1390, 10378.00
720.2910, 10443.00
721.4430, 10456.00
722.5940, 10479.20
723.7460, 10553.00
724.8970, 10527.00
726.0480, 10587.37
727.1990, 10651.68
728.3500, 10697.36
729.5000, 10725.39
730.6510, 10683.05
731.8010, 10731.59
732.9510, 10743.71
734.1010, 10754.32
735.2510, 10815.67
736.4010, 10783.54
737.5500, 10844.06
738.7000, 10867.61
739.8490, 10908.07
740.9980, 10911.86
742.1470, 10926.99
743.2950, 10978.76
744.4440, 11010.25
745.5920, 11009.81
746.7400, 11051.33
747.8880, 11017.88
749.0360, 11050.21
750.1840, 11110.93
751.3310, 11112.31
752.4790, 11067.00
753.6260, 11203.00
754.7730, 11086.00
755.9200, 11225.00
757.0670, 11127.00
758.2130, 11223.00
759.3600, 11262.00
760.5060, 11353.00
761.6520, 11353.00
762.7980, 11313.00
763.9440, 11380.00
765.0890, 11410.00
766.2350, 11467.00
767.3800, 11488.00
768.5250, 11503.00
769.6700, 11581.00
770.8150, 11645.00
771.9590, 11768.00
773.1040, 11865.00
774.2480, 11904.00
775.3920, 11977.00
776.5360, 11974.00
777.6800, 12026.00
778.8240, 12073.00
779.9670, 12166.41
781.1100, 12242.10
782.2540, 12377.00
783.3970, 12467.00
784.5390, 12528.00
785.6820, 12596.76
786.8240, 12662.78
787.9670, 12674.00
789.1090, 12761.00
790.2510, 12796.00
791.3930, 12797.00
792.5350, 12895.00
793.6760, 12937.00
794.8170, 12820.00
795.9590, 12975.00
797.1000, 13034.00
798.2410, 12862.71
799.3810, 12973.00
800.5220, 12601.00
801.6620, 12645.00
802.8030, 12645.00
803.9430, 12531.00
805.0820, 12548.00
806.2220, 12457.00
807.3620, 12311.00
808.5010, 12308.00
809.6410, 12177.00
810.7800, 12030.00
811.9190, 12022.00
813.0570, 11862.00
814.1960, 11789.00
815.3340, 11713.00
816.4730, 11812.00
817.6110, 11687.00
818.7490, 11666.00
819.8870, 11482.00
821.0240, 11487.00
822.1620, 11425.00
823.2990, 11529.00
824.4360, 11201.00
825.5730, 11258.00
826.7100, 11147.00
827.8470, 11107.00
828.9830, 11193.00
830.1200, 11067.00
831.2560, 11043.00
832.3920, 11091.00
833.5280, 10738.83
834.6630, 10741.67
835.7990, 10725.84
836.9340, 10692.42
838.0700, 10588.56
839.2050, 10575.65
840.3400, 10526.31
841.4740, 10475.51
842.6090, 10475.40
843.7430, 10381.85
844.8780, 10380.93
846.0120, 10343.06
847.1460, 10284.19
848.2790, 10307.79
849.4130, 10312.75
850.5460, 10300.10
851.6800, 10217.03
852.8130, 10224.90
853.9460, 10196.32
855.0790, 10166.26
856.2110, 10186.93
857.3440, 10114.12
858.4760, 10237.00
859.6080, 10312.00
860.7400, 10207.00
861.8720, 10285.00
863.0040, 10254.00
864.1350, 10415.00
865.2670, 10260.00
866.3980, 10313.00
867.5290, 10394.00
868.6600, 10359.00
869.7900, 10377.00
870.9210, 10431.00
872.0510, 10369.00
873.1820, 10431.00
874.3120, 10373.00
875.4420, 10390.00
876.5710, 10412.41
877.7010, 10496.83
878.8300, 10550.20
879.9600, 10574.21
881.0890, 10480.87
882.2180, 10539.05
883.3460, 10536.49
884.4750, 10531.45
885.6040, 10610.96
886.7320, 10534.67
887.8600, 10612.82
888.9880, 10629.32
890.1160, 10775.00
891.2430, 10750.00
892.3710, 10759.00
893.4980, 10870.00
894.6260, 10703.00
895.7530, 10780.00
896.8790, 10741.00
898.0060, 10842.00
899.1330, 10833.00
900.2590, 10754.00
901.3850, 10831.00
902.5110, 10739.00
903.6370, 10804.00
904.7630, 10852.00
905.8890, 10769.00
907.0140, 10780.00
908.1390, 10746.00
909.2640, 10846.00
910.3890, 10776.00
911.5140, 10855.00
912.6390, 10764.00
913.7630, 10727.00
914.8870, 10648.00
916.0120, 10745.00
917.1360, 10669.86
918.2590, 10699.00
919.3830, 10637.00
920.5070, 10650.00
921.6300, 10667.00
922.7530, 10696.00
923.8760, 10649.00
924.9990, 10655.00
926.1220, 10701.00
927.2440, 10685.00
928.3670, 10635.00
929.4890, 10575.00
930.6110, 10616.74
931.7330, 10592.00
932.8540, 10708.00
933.9760, 10676.00
935.0980, 10747.00
936.2190, 10762.00
937.3400, 10904.00
938.4610, 10710.00
939.5820, 10898.00
940.7020, 10858.00
941.8230, 10776.00
942.9430, 10826.00
944.0630, 10847.00
945.1830, 10761.00
946.3030, 10865.00
947.4230, 10963.00
948.5420, 10883.00
949.6610, 10931.00
950.7810, 10950.00
951.9000, 11015.00
953.0190, 11099.00
954.1370, 11176.00
955.2560, 11186.74
956.3740, 11098.00
957.4920, 11171.00
958.6110, 11104.00
959.7280, 11034.00
960.8460, 11081.00
961.9640, 11134.00
963.0810, 11180.00
964.1990, 11197.76
965.3160, 11217.34
966.4330, 11197.00
967.5490, 11215.00
968.6660, 11159.00
969.7830, 11133.00
970.8990, 11223.00
972.0150, 11221.00
973.1310, 11059.00
974.2470, 11132.00
975.3630, 11193.00
976.4780, 11124.00
977.5930, 11264.00
978.7090, 11245.00
979.8240, 11210.00
980.9390, 11370.00
982.0530, 11388.00
983.1680, 11279.00
984.2820, 11458.00
985.3970, 11531.00
986.5110, 11519.00
987.6250, 11670.00
988.7380, 11709.00
989.8520, 11732.77
990.9660, 11654.00
992.0790, 11768.19
993.1920, 11844.67
994.3050, 11902.52
995.4180, 11942.74
996.5300, 11912.54
997.6430, 11973.27
998.7550, 11997.54
999.8680, 12020.35
1000.980, 12093.85
1002.091, 12073.85
1003.203, 12146.55
1004.315, 12182.26
1005.426, 12234.86
1006.537, 12250.81
1007.648, 12278.08
1008.759, 12342.02
1009.870, 12385.65
1010.981, 12397.38
1012.091, 12509.00
1013.201, 12512.00
1014.312, 12437.00
1015.422, 12411.00
1016.531, 12472.00
1017.641, 12525.00
1018.751, 12432.00
1019.860, 12347.00
1020.969, 12329.00
1022.078, 12415.00
1023.187, 12382.00
1024.296, 12198.00
1025.404, 12205.00
1026.513, 12069.00
1027.621, 12314.00
1028.729, 11980.00
1029.837, 12147.00
1030.945, 12043.00
1032.052, 12133.00
1033.160, 12138.00
1034.267, 11921.00
1035.374, 11903.00
1036.481, 11803.00
1037.588, 11743.83
1038.695, 11750.00
1039.801, 11728.00
1040.907, 11691.00
1042.014, 11770.00
1043.120, 11648.00
1044.225, 11495.00
1045.331, 11655.00
1046.437, 11579.00
1047.542, 11412.00
1048.647, 11407.00
1049.752, 11327.00
1050.857, 11347.00
1051.962, 11328.00
1053.067, 11313.00
1054.171, 11152.00
1055.275, 11193.00
1056.380, 11350.00
1057.484, 11225.00
1058.587, 11322.00
1059.691, 11177.00
1060.795, 11259.00
1061.898, 11235.00
1063.001, 11221.00
1064.104, 11194.00
1065.207, 11063.00
1066.310, 11094.00
1067.412, 11065.67
1068.515, 10871.00
1069.617, 11044.00
1070.719, 11135.00
1071.821, 11042.00
1072.923, 10928.00
1074.024, 11038.00
1075.126, 11103.00
1076.227, 11021.00
1077.328, 10889.00
1078.429, 10784.00
1079.530, 10647.00
1080.631, 10843.00
1081.731, 10687.00
1082.831, 10952.00
1083.932, 10848.00
1085.032, 10832.00
1086.132, 10822.00
1087.231, 10797.00
1088.331, 10651.00
1089.430, 10718.00
1090.530, 10803.00
1091.629, 10573.00
1092.728, 10607.00
1093.826, 10441.00
1094.925, 10554.00
1096.023, 10549.00
1097.122, 10610.00
1098.220, 10542.00
1099.318, 10651.00
1100.416, 10555.00
1101.513, 10579.00
1102.611, 10611.00
1103.708, 10460.00
1104.806, 10558.00
1105.903, 10585.00
1107.000, 10560.00
1108.096, 10355.00
1109.193, 10324.00
1110.289, 10438.00
1111.386, 10313.00
1112.482, 10376.00
1113.578, 10476.00
1114.673, 10396.70
1115.769, 10431.13
1116.865, 10378.00
1117.960, 10341.00
1119.055, 10380.00
1120.150, 10267.00
1121.245, 10480.00
1122.340, 10292.00
1123.434, 10367.00
1124.529, 10240.00
1125.623, 10277.00
1126.717, 10453.00
1127.811, 10425.00
1128.905, 10387.01
1129.998, 10426.00
1131.092, 10224.00
1132.185, 10189.00
1133.278, 10167.00
1134.371, 10196.00
1135.464, 10180.00
1136.557, 10175.25
1137.649, 10250.00
1138.742, 10164.00
1139.834, 10111.00
1140.926, 10114.71
1142.018, 10181.00
1143.109, 10148.00
1144.201, 10208.00
1145.292, 10259.00
1146.384, 10142.00
1147.475, 10134.00
1148.566, 10110.00
1149.657, 10112.00
1150.747, 10076.00
1151.838, 10238.00
1152.928, 10312.00
1154.018, 10278.00
1155.108, 10132.00
1156.198, 10248.00
1157.288, 10193.00
1158.377, 10194.00
1159.467, 10133.00
1160.556, 10127.00
1161.645, 10070.00
1162.734, 10079.00
1163.823, 10061.00
1164.911, 10041.00
1166.000, 10077.63
1167.088, 10159.00
1168.176, 10134.00
1169.264, 10250.00
1170.352, 10261.00
1171.440, 10168.00
1172.527, 10308.00
1173.615, 10205.00
1174.702, 10092.00
1175.789, 10212.00
1176.876, 10240.00
1177.963, 10219.00
1179.049, 10329.00
1180.136, 10292.00
1181.222, 10264.00
1182.308, 10330.00
1183.394, 10200.00
1184.480, 10187.00
1185.566, 10166.00
1186.651, 10254.00
1187.736, 10313.00
1188.822, 10225.00
1189.907, 10308.00
1190.992, 10305.00
1192.076, 10232.00
1193.161, 10320.00
1194.245, 10220.00
1195.330, 10150.00
1196.414, 10404.00
1197.498, 10222.00
1198.581, 10245.00
1199.665, 10111.00
1200.749, 10174.00
1201.832, 10309.00
1202.915, 10246.00
1203.998, 10285.00
1205.081, 10324.00
1206.164, 10343.00
1207.246, 10295.00
1208.329, 10352.00
1209.411, 10248.00
1210.493, 10268.00
1211.575, 10334.00
1212.657, 10263.00
1213.738, 10348.00
1214.820, 10370.00
1215.901, 10345.00
1216.982, 10352.00
1218.063, 10332.34
1219.144, 10328.46
1220.225, 10291.00
1221.305, 10310.00
1222.386, 10302.00
1223.466, 10272.00
1224.546, 10303.08
1225.626, 10349.44
1226.706, 10377.17
1227.785, 10387.28
1228.865, 10326.99
1229.944, 10357.61
1231.023, 10351.79
1232.102, 10344.48
1233.181, 10387.90
1234.260, 10337.84
1235.338, 10380.45
1236.417, 10386.07
1237.495, 10408.61
1238.573, 10394.50
1239.651, 10391.71
1240.729, 10425.59
1241.806, 10439.16
1242.884, 10420.83
1243.961, 10444.44
1245.038, 10393.10
1246.115, 10407.54
1247.192, 10450.35
1248.269, 10433.86
1249.345, 10458.14
1250.421, 10275.00
1251.498, 10304.00
1252.574, 10394.00
1253.650, 10424.00
1254.725, 10499.00
1255.801, 10475.00
1256.876, 10426.00
1257.952, 10456.00
1259.027, 10479.00
1260.102, 10430.00
1261.177, 10527.00
1262.251, 10413.00
1263.326, 10344.00
1264.400, 10444.41
1265.474, 10471.74
1266.548, 10589.00
1267.622, 10597.00
1268.696, 10657.00
1269.770, 10481.00
1270.843, 10491.00
1271.916, 10587.00
1272.990, 10703.00
1274.063, 10593.00
1275.135, 10455.00
1276.208, 10570.00
1277.281, 10608.00
1278.353, 10544.00
1279.425, 10659.00
1280.497, 10666.00
1281.569, 10568.00
1282.641, 10582.00
1283.712, 10471.00
1284.784, 10691.00
1285.855, 10640.00
1286.926, 10730.00
1287.997, 10689.00
1289.068, 10658.00
1290.139, 10592.00
1291.209, 10696.00
1292.280, 10617.53
1293.350, 10639.00
1294.420, 10626.00
1295.490, 10577.00
1296.560, 10721.00
1297.629, 10624.19
1298.699, 10671.81
1299.768, 10700.80
1300.837, 10712.17
1301.906, 10653.13
1302.975, 10685.01
1304.043, 10680.44
1305.112, 10674.39
1306.180, 10719.06
1307.249, 10670.26
1308.317, 10714.12
1309.385, 10720.99
1310.452, 10744.79
1311.520, 10731.93
1312.587, 10730.39
1313.655, 10765.53
1314.722, 10780.35
1315.789, 10763.27
1316.856, 10788.14
1317.922, 10738.05
1318.989, 10753.74
1320.055, 10797.81
1321.121, 10782.56
1322.187, 10808.10
1323.253, 10818.11
1324.319, 10757.52
1325.385, 10819.70
1326.450, 10828.78
1327.515, 10783.36
1328.581, 10841.33
1329.646, 10803.41
1330.710, 10799.72
1331.775, 10821.78
1332.840, 10817.00
1333.904, 10760.66
1334.968, 10881.41
1336.032, 10950.95
1337.096, 10972.02
1338.160, 10799.48
1339.224, 10876.95
1340.287, 10854.23
1341.350, 10827.39
1342.414, 10940.05
1343.477, 10795.67
1344.539, 10906.11
1345.602, 10914.83
1346.665, 10970.11
1347.727, 10924.57
1348.789, 10910.17
1349.851, 10996.62
1350.913, 11027.22
1351.975, 10970.08
1353.037, 11028.32
1354.098, 10880.40
1355.160, 10913.39
1356.221, 11024.42
1357.282, 10972.34
1358.343, 11032.41
1359.403, 11049.77
1360.464, 10873.01
1361.524, 11033.84
1362.585, 11048.68
1363.645, 10913.60
1364.705, 11062.86
1365.765, 10948.46
1366.824, 10928.16
1367.884, 10978.69
1368.943, 10955.39
1370.002, 11048.49
1371.061, 11029.45
1372.120, 11000.39
1373.179, 11015.05
1374.237, 10989.39
1375.296, 11026.44
1376.354, 10990.04
1377.412, 11031.70
1378.470, 11091.05
1379.528, 11014.93
1380.586, 11082.23
1381.643, 10927.13
1382.701, 10958.12
1383.758, 10969.06
1384.815, 11098.95
1385.872, 10944.93
1386.929, 10970.75
1387.985, 11073.12
1389.042, 11068.37
1390.098, 11108.41
1391.154, 11015.83
1392.210, 11047.83
1393.266, 11045.50
1394.322, 11161.82
1395.377, 11184.47
1396.433, 11094.14
1397.488, 11004.29
1398.543, 11129.15
1399.598, 11050.50
1400.653, 11081.65
1401.707, 10999.40
1402.762, 11015.06
1403.816, 11029.16
1404.870, 11093.45
1405.924, 11086.98
1406.978, 11115.07
1408.032, 11110.48
1409.085, 11139.50
1410.139, 11164.79
1411.192, 11182.10
1412.245, 11162.85
1413.298, 11211.94
1414.351, 11115.33
1415.404, 11074.00
1416.456, 11071.97
1417.509, 11255.40
1418.561, 11266.44
1419.613, 11071.44
1420.665, 11246.69
1421.717, 11194.15
1422.768, 11209.30
1423.820, 11199.76
1424.871, 11197.52
1425.922, 11210.58
1426.973, 11129.61
1428.024, 11256.57
1429.075, 11213.66
1430.125, 11286.17
1431.175, 11148.32
1432.226, 11135.34
1433.276, 11155.50
1434.326, 11187.75
1435.376, 11123.41
1436.425, 11151.78
1437.475, 11148.42
1438.524, 11141.19
1439.573, 11150.85
1440.622, 11140.43
1441.671, 11117.67
1442.720, 11250.23
1443.768, 11141.12
1444.817, 11259.79
1445.865, 11305.45
1446.913, 11247.00
1447.961, 11327.00
1449.009, 11277.00
1450.057, 11269.00
1451.104, 11354.00
1452.152, 11313.00
1453.199, 11181.00
1454.246, 11384.00
1455.293, 11328.00
1456.339, 11218.00
1457.386, 11281.27
1458.433, 11300.00
1459.479, 11236.00
1460.525, 11408.00
1461.571, 11425.00
1462.617, 11354.00
1463.663, 11297.00
1464.708, 11385.00
1465.754, 11246.00
1466.799, 11278.00
1467.844, 11331.00
1468.889, 11250.00
1469.934, 11290.00
1470.978, 11373.00
1472.023, 11203.00
1473.067, 11309.00
1474.111, 11252.00
1475.155, 11441.00
1476.199, 11356.00
1477.243, 11322.00
1478.287, 11451.00
1479.330, 11477.00
1480.373, 11433.00
1481.417, 11457.52
1482.460, 11305.00
1483.502, 11413.00
1484.545, 11356.00
1485.588, 11390.34
1486.630, 11464.56
1487.672, 11507.74
1488.714, 11521.55
1489.756, 11418.02
1490.798, 11466.01
1491.840, 11453.27
1492.881, 11438.04
1493.923, 11507.36
1494.964, 11420.89
1496.005, 11488.86
1497.046, 11495.18
1498.087, 11529.72
1499.127, 11503.15
1500.168, 11495.46
1501.208, 11548.89
1502.248, 11568.47
1503.288, 11534.87
1504.328, 11571.20
1505.368, 11482.59
1506.407, 11503.61
1507.446, 11571.93
1508.486, 11541.41
1509.525, 11578.85
1510.564, 11590.40
1511.603, 11484.31
1512.641, 11582.81
1513.680, 11592.84
1514.718, 11512.01
1515.756, 11603.50
1516.794, 11535.19
1517.832, 11523.93
1518.870, 11555.58
1519.907, 11542.49
1520.945, 11599.95
1521.982, 11589.44
1523.019, 11572.86
1524.056, 11582.78
1525.093, 11568.25
1526.130, 11591.74
1527.166, 11570.71
1528.203, 11596.99
1529.239, 11633.99
1530.275, 11588.89
1531.311, 11630.71
1532.347, 11537.74
1533.383, 11557.55
1534.418, 11565.21
1535.453, 11644.96
1536.489, 11552.64
1537.524, 11569.32
1538.559, 11632.40
1539.593, 11630.54
1540.628, 11655.84
1541.662, 11600.76
1542.697, 11621.18
1543.731, 11620.79
1544.765, 11692.32
1545.799, 11707.08
1546.832, 11653.36
1547.866, 11599.93
1548.899, 11676.63
1549.933, 11630.00
1550.966, 11649.90
1551.999, 11601.08
1553.031, 11611.59
1554.064, 11621.17
1555.097, 11661.16
1556.129, 11658.26
1557.161, 11676.31
1558.193, 11674.56
1559.225, 11693.18
1560.257, 11709.53
1561.289, 11721.04
1562.320, 11710.40
1563.351, 11741.18
1564.383, 11683.66
1565.414, 11659.63
1566.444, 11659.42
1567.475, 11771.62
1568.506, 11779.34
1569.536, 11662.18
1570.566, 11769.41
1571.597, 11738.60
1572.627, 11748.81
1573.656, 11744.04
1574.686, 11732.00
1575.716, 11629.00
1576.745, 11601.00
1577.774, 11567.00
##END=



