##NAMES=Magnesiochromite
##RRUFFID=R060797
##IDEAL CHEMISTRY=MgCr^3+^_2_O_4_
##LOCALITY=Benbow mine, Stillwater Complex, Mount Wood area, Stillwater County, Montana, USA
##OWNER=RRUFF
##SOURCE=California Institute of Technology
##DESCRIPTION=Black granular massive
##STATUS=The identification of this mineral has been confirmed by X-ray diffraction and chemical analysis
##URL=rruff.info/R060797
##MEASURED CHEMISTRY=(Mg_0.55_Fe^2+^_0.45_)_Σ=1_(Cr_1.28_Al_0.58_Fe^3+^_0.14_)_Σ=2_O_4_
##PIN_ID=M01281
##ORIENTATION=Laser parallel to -a* (-1 0 0). Fiducial mark perpendicular to laser is parallel to c [0 0 1]
125.2950, 20943.00
126.5290, 21259.00
127.7630, 21228.00
128.9970, 21689.00
130.2300, 22266.00
131.4640, 22771.00
132.6970, 22635.00
133.9300, 23014.00
135.1630, 23344.00
136.3950, 24124.00
137.6280, 24232.00
138.8600, 23969.00
140.0920, 24284.00
141.3240, 24080.00
142.5560, 23723.00
143.7880, 23491.00
145.0190, 23762.00
146.2510, 23680.00
147.4820, 23585.00
148.7130, 23595.00
149.9440, 23571.00
151.1750, 23376.00
152.4050, 23444.00
153.6360, 23427.00
154.8660, 23470.00
156.0960, 23694.00
157.3260, 23680.00
158.5560, 23546.00
159.7850, 23449.00
161.0150, 23327.00
162.2440, 23436.00
163.4730, 23545.00
164.7020, 23515.00
165.9310, 23569.71
167.1590, 23557.16
168.3880, 23551.00
169.6160, 23501.00
170.8440, 23463.00
172.0720, 23422.00
173.3000, 23369.22
174.5280, 23310.00
175.7550, 23254.57
176.9820, 23178.93
178.2100, 23145.00
179.4370, 23078.00
180.6630, 23054.00
181.8900, 23128.00
183.1170, 22819.00
184.3430, 23134.00
185.5690, 23073.00
186.7950, 23766.00
188.0210, 23646.32
189.2470, 23887.63
190.4720, 24061.41
191.6970, 24169.23
192.9230, 24137.27
194.1480, 24191.13
195.3730, 24152.70
196.5970, 24070.95
197.8220, 24018.80
199.0460, 23794.72
200.2700, 23839.00
201.4940, 23623.00
202.7180, 23342.00
203.9420, 22864.00
205.1660, 22582.36
206.3890, 22436.00
207.6120, 21893.00
208.8350, 21888.00
210.0580, 21710.00
211.2810, 21644.00
212.5040, 21621.93
213.7260, 21548.00
214.9480, 21520.00
216.1700, 21489.67
217.3920, 21463.00
218.6140, 21445.00
219.8360, 21438.00
221.0570, 21429.00
222.2790, 21403.23
223.5000, 21432.00
224.7210, 21365.00
225.9410, 21352.00
227.1620, 21360.00
228.3820, 21128.00
229.6030, 21250.00
230.8230, 21325.00
232.0430, 21268.00
233.2630, 21045.00
234.4820, 20983.00
235.7020, 21071.00
236.9210, 20906.00
238.1400, 20859.00
239.3590, 20681.00
240.5780, 20796.00
241.7970, 20822.00
243.0150, 20764.00
244.2340, 20661.00
245.4520, 20755.00
246.6700, 20618.00
247.8880, 20663.00
249.1060, 20785.00
250.3230, 20622.00
251.5400, 20458.00
252.7580, 20640.00
253.9750, 20483.00
255.1920, 20551.00
256.4080, 20356.00
257.6250, 20435.00
258.8410, 20282.00
260.0580, 20385.00
261.2740, 20171.00
262.4900, 20385.00
263.7050, 20327.00
264.9210, 20272.00
266.1360, 20387.00
267.3520, 20231.00
268.5670, 20251.00
269.7820, 20065.00
270.9960, 20322.00
272.2110, 20173.18
273.4250, 20302.00
274.6400, 20083.00
275.8540, 19940.00
277.0680, 19903.00
278.2810, 20106.00
279.4950, 20102.00
280.7090, 20087.00
281.9220, 20125.00
283.1350, 20002.00
284.3480, 20021.00
285.5610, 20173.00
286.7730, 19954.00
287.9860, 19924.00
289.1980, 19727.00
290.4100, 19944.00
291.6220, 19877.00
292.8340, 19852.00
294.0460, 20001.00
295.2570, 19944.00
296.4690, 19675.00
297.6800, 19725.00
298.8910, 19681.00
300.1020, 19748.00
301.3120, 19689.00
302.5230, 19582.00
303.7330, 19690.00
304.9440, 19594.85
306.1540, 19707.00
307.3630, 19532.00
308.5730, 19513.00
309.7830, 19476.76
310.9920, 19467.00
312.2010, 19514.00
313.4100, 19621.00
314.6190, 19667.00
315.8280, 19556.00
317.0370, 19332.00
318.2450, 19695.00
319.4530, 19501.65
320.6610, 19958.00
321.8690, 19636.00
323.0770, 19445.00
324.2850, 19827.00
325.4920, 19535.00
326.6990, 19748.00
327.9060, 19577.00
329.1130, 19513.00
330.3200, 19655.00
331.5270, 19573.00
332.7330, 19679.00
333.9390, 19600.00
335.1450, 19622.00
336.3510, 19674.00
337.5570, 19570.00
338.7630, 19526.00
339.9680, 19640.00
341.1740, 19457.00
342.3790, 19719.00
343.5840, 19555.00
344.7890, 19764.00
345.9930, 19594.00
347.1980, 19451.00
348.4020, 19536.00
349.6060, 19487.00
350.8100, 19834.00
352.0140, 19574.00
353.2180, 19747.00
354.4210, 19839.00
355.6250, 19725.00
356.8280, 19646.00
358.0310, 19998.00
359.2340, 19730.00
360.4360, 19855.00
361.6390, 19697.00
362.8410, 19892.00
364.0430, 19726.00
365.2450, 19668.00
366.4470, 19967.00
367.6490, 19858.00
368.8510, 19944.00
370.0520, 19813.00
371.2530, 19892.00
372.4540, 20049.00
373.6550, 19979.00
374.8560, 19973.00
376.0560, 19998.00
377.2570, 20175.00
378.4570, 20098.00
379.6570, 19978.00
380.8570, 20273.00
382.0570, 20319.00
383.2560, 20247.00
384.4560, 20544.00
385.6550, 20407.00
386.8540, 20449.00
388.0530, 20255.00
389.2520, 20472.00
390.4510, 20591.00
391.6490, 20454.00
392.8470, 20522.00
394.0450, 20439.00
395.2430, 20512.00
396.4410, 20626.00
397.6390, 20649.00
398.8360, 20686.00
400.0340, 20754.00
401.2310, 20807.00
402.4280, 20814.00
403.6250, 20866.00
404.8210, 20927.00
406.0180, 20934.87
407.2140, 21077.00
408.4100, 21034.00
409.6060, 21037.00
410.8020, 21209.00
411.9980, 21312.00
413.1930, 21350.00
414.3890, 21461.00
415.5840, 21557.43
416.7790, 21738.00
417.9740, 21763.00
419.1680, 21820.00
420.3630, 21891.00
421.5570, 21917.24
422.7510, 21996.00
423.9450, 22110.00
425.1390, 21976.00
426.3330, 22307.00
427.5270, 22250.00
428.7200, 22531.00
429.9130, 22638.42
431.1060, 22456.00
432.2990, 22851.12
433.4920, 22775.05
434.6840, 22789.00
435.8770, 22746.00
437.0690, 22774.00
438.2610, 22895.00
439.4530, 22717.00
440.6450, 22750.00
441.8360, 22763.00
443.0280, 22654.00
444.2190, 22622.00
445.4100, 22650.89
446.6010, 22784.00
447.7920, 22728.00
448.9820, 22889.00
450.1730, 22957.00
451.3630, 23113.00
452.5530, 23282.00
453.7430, 23364.00
454.9330, 23578.00
456.1230, 23600.00
457.3120, 23863.00
458.5010, 23988.00
459.6910, 23901.00
460.8800, 24079.58
462.0680, 24057.78
463.2570, 24102.00
464.4460, 24136.00
465.6340, 23932.00
466.8220, 24060.00
468.0100, 24122.17
469.1980, 24053.00
470.3860, 24295.00
471.5730, 24333.00
472.7600, 24184.00
473.9480, 24497.00
475.1350, 24677.00
476.3210, 24647.00
477.5080, 24633.00
478.6950, 24858.00
479.8810, 25129.00
481.0670, 25215.00
482.2530, 25286.00
483.4390, 25661.00
484.6250, 25994.00
485.8100, 26249.00
486.9960, 26119.00
488.1810, 26464.00
489.3660, 26558.00
490.5510, 26884.00
491.7360, 26762.00
492.9200, 26804.00
494.1050, 26750.00
495.2890, 27027.00
496.4730, 27022.00
497.6570, 27115.00
498.8400, 27276.00
500.0240, 27305.00
501.2070, 27511.00
502.3910, 27641.00
503.5740, 27734.00
504.7570, 27925.00
505.9400, 27834.00
507.1220, 28028.00
508.3050, 28135.00
509.4870, 28244.00
510.6690, 28521.00
511.8510, 28507.00
513.0330, 28790.00
514.2140, 29379.00
515.3960, 29641.00
516.5770, 29599.00
517.7580, 29997.00
518.9390, 30168.24
520.1200, 30335.00
521.3010, 30667.00
522.4810, 31116.00
523.6610, 31337.00
524.8420, 31545.00
526.0220, 31830.00
527.2010, 32065.80
528.3810, 32266.00
529.5610, 32590.00
530.7400, 32846.00
531.9190, 33101.50
533.0980, 33382.58
534.2770, 33627.00
535.4560, 33918.00
536.6340, 34361.00
537.8120, 34671.00
538.9910, 35143.00
540.1690, 35747.00
541.3460, 36233.00
542.5240, 36716.00
543.7020, 37281.58
544.8790, 37830.00
546.0560, 38395.00
547.2330, 38886.00
548.4100, 39531.00
549.5870, 39876.00
550.7630, 39955.00
551.9400, 40610.00
553.1160, 40723.00
554.2920, 41272.00
555.4680, 41387.00
556.6440, 41731.00
557.8190, 41928.75
558.9950, 42369.24
560.1700, 42733.89
561.3450, 43024.47
562.5200, 43167.12
563.6950, 43387.52
564.8690, 43507.43
566.0440, 43575.96
567.2180, 43666.01
568.3920, 43575.95
569.5660, 43844.00
570.7400, 43928.00
571.9130, 43954.00
573.0870, 43603.00
574.2600, 43212.08
575.4330, 42305.00
576.6060, 41991.00
577.7790, 41115.00
578.9520, 40447.00
580.1240, 39638.85
581.2960, 38947.00
582.4690, 37872.00
583.6410, 37045.00
584.8120, 36282.00
585.9840, 35549.00
587.1560, 34761.00
588.3270, 34310.00
589.4980, 33655.00
590.6690, 33108.00
591.8400, 33115.00
593.0110, 32703.00
594.1810, 32373.00
595.3510, 31921.00
596.5220, 31597.00
597.6920, 31706.00
598.8610, 31408.00
600.0310, 31380.00
601.2010, 30823.00
602.3700, 30734.00
603.5390, 30195.00
604.7080, 30092.00
605.8770, 30054.00
607.0460, 29705.00
608.2140, 29511.00
609.3830, 29248.59
610.5510, 28980.95
611.7190, 28657.00
612.8870, 28471.00
614.0550, 28193.00
615.2220, 27917.00
616.3900, 27682.00
617.5570, 27383.00
618.7240, 27176.00
619.8910, 26830.00
621.0580, 26489.00
622.2240, 26420.00
623.3910, 25941.00
624.5570, 25850.00
625.7230, 25814.00
626.8890, 25395.00
628.0550, 25213.00
629.2200, 25198.00
630.3860, 25138.61
631.5510, 25295.00
632.7160, 25448.00
633.8810, 25615.00
635.0460, 26023.00
636.2100, 26085.00
637.3750, 26261.00
638.5390, 26676.00
639.7030, 27136.00
640.8670, 27453.00
642.0310, 27784.00
643.1950, 28397.00
644.3580, 28487.00
645.5210, 28928.00
646.6850, 29107.00
647.8480, 29592.00
649.0100, 29841.00
650.1730, 29885.00
651.3350, 30167.69
652.4980, 30240.68
653.6600, 30409.00
654.8220, 30504.00
655.9840, 30571.00
657.1450, 30645.15
658.3070, 30649.00
659.4680, 30667.00
660.6300, 30765.00
661.7910, 30670.58
662.9510, 30783.00
664.1120, 30632.00
665.2730, 30947.00
666.4330, 30898.00
667.5930, 31316.00
668.7530, 31170.00
669.9130, 31307.00
671.0730, 31526.00
672.2320, 31600.35
673.3920, 31819.99
674.5510, 32153.12
675.7100, 32601.51
676.8690, 32811.00
678.0280, 33290.00
679.1860, 33459.00
680.3450, 33959.00
681.5030, 34271.00
682.6610, 34781.00
683.8190, 35130.00
684.9770, 35533.00
686.1340, 35981.79
687.2920, 36321.92
688.4490, 36811.00
689.6060, 37069.00
690.7630, 37413.00
691.9200, 37812.00
693.0760, 38128.00
694.2330, 38497.80
695.3890, 38770.28
696.5450, 39226.00
697.7010, 39171.00
698.8570, 39545.00
700.0130, 39503.00
701.1680, 39133.00
702.3230, 39147.00
703.4780, 38938.00
704.6330, 38528.00
705.7880, 38069.00
706.9430, 37578.00
708.0970, 37190.00
709.2520, 36867.00
710.4060, 36138.00
711.5600, 35739.00
712.7140, 35053.00
713.8670, 34450.00
715.0210, 33884.00
716.1740, 33189.00
717.3270, 32617.00
718.4800, 32054.00
719.6330, 31419.00
720.7860, 30597.00
721.9380, 30037.00
723.0910, 29577.00
724.2430, 28995.00
725.3950, 28674.00
726.5470, 28067.00
727.6980, 27879.00
728.8500, 27530.00
730.0010, 26588.00
731.1530, 26320.00
732.3040, 25995.00
733.4550, 25880.00
734.6050, 25568.00
735.7560, 25230.00
736.9060, 24584.00
738.0560, 24499.00
739.2060, 24457.00
740.3560, 24004.25
741.5060, 24014.88
742.6560, 23545.00
743.8050, 23566.00
744.9540, 23649.00
746.1030, 22996.00
747.2520, 22956.00
748.4010, 22657.00
749.5500, 22597.00
750.6980, 22235.00
751.8460, 22136.00
752.9950, 22237.00
754.1420, 21918.00
755.2900, 22036.00
756.4380, 21739.00
757.5850, 21714.00
758.7330, 21584.00
759.8800, 21497.00
761.0270, 21683.00
762.1730, 21424.49
763.3200, 21701.00
764.4670, 21183.00
765.6130, 21099.00
766.7590, 21174.00
767.9050, 20852.00
769.0510, 20988.00
770.1960, 20767.00
771.3420, 20656.00
772.4870, 20670.00
773.6320, 20546.32
774.7770, 20632.00
775.9220, 20440.00
777.0670, 20498.00
778.2110, 20407.00
779.3560, 20311.00
780.5000, 20233.00
781.6440, 20313.00
782.7880, 20122.00
783.9320, 20212.00
785.0750, 20128.00
786.2180, 20003.00
787.3620, 20045.00
788.5050, 20047.00
789.6480, 20024.69
790.7900, 19964.00
791.9330, 20131.00
793.0750, 19962.00
794.2170, 20183.00
795.3590, 20156.00
796.5010, 19945.00
797.6430, 19857.00
798.7850, 19956.00
799.9260, 19770.00
801.0670, 19756.00
802.2080, 19875.00
803.3490, 19694.00
804.4900, 19724.00
805.6310, 19858.00
806.7710, 19771.00
807.9110, 19730.00
809.0510, 19714.00
810.1910, 19730.00
811.3310, 19606.00
812.4710, 19582.00
813.6100, 19621.00
814.7490, 19534.34
815.8880, 19474.00
817.0270, 19473.00
818.1660, 19525.00
819.3050, 19533.00
820.4430, 19507.00
821.5820, 19316.00
822.7200, 19390.01
823.8580, 19483.00
824.9950, 19339.00
826.1330, 19506.00
827.2710, 19323.00
828.4080, 19424.00
829.5450, 19326.96
830.6820, 19425.00
831.8190, 19266.00
832.9560, 19222.00
834.0920, 19484.00
835.2280, 19310.00
836.3650, 19250.00
837.5010, 19277.00
838.6360, 19275.00
839.7720, 19349.00
840.9080, 19366.00
842.0430, 19277.00
843.1780, 19270.30
844.3130, 19251.00
845.4480, 19186.00
846.5830, 19234.00
847.7170, 19312.00
848.8520, 19150.00
849.9860, 19180.00
851.1200, 19042.00
852.2540, 19303.00
853.3870, 19171.19
854.5210, 19122.00
855.6540, 19204.00
856.7880, 18984.00
857.9210, 19224.00
859.0540, 19287.00
860.1860, 19037.00
861.3190, 19149.00
862.4510, 19260.00
863.5840, 18970.00
864.7160, 19182.00
865.8480, 18890.83
866.9790, 19078.87
868.1110, 19180.92
869.2420, 19201.62
870.3740, 18897.26
871.5050, 19012.65
872.6360, 18959.82
873.7660, 18900.10
874.8970, 19074.56
876.0280, 18817.49
877.1580, 18988.24
878.2880, 18988.21
879.4180, 19066.35
880.5480, 18975.23
881.6770, 18936.40
882.8070, 18956.00
883.9360, 18977.00
885.0650, 19053.00
886.1940, 18878.00
887.3230, 18832.00
888.4520, 18911.00
889.5800, 18809.00
890.7090, 18883.00
891.8370, 19013.00
892.9650, 18976.00
894.0930, 18902.00
895.2200, 18749.00
896.3480, 19024.00
897.4750, 19104.00
898.6020, 19045.00
899.7290, 18989.00
900.8560, 18972.00
901.9830, 18826.00
903.1090, 19033.00
904.2360, 18953.00
905.3620, 18826.00
906.4880, 19013.00
907.6140, 19000.00
908.7400, 18973.00
909.8650, 19036.56
910.9900, 18979.00
912.1160, 19001.00
913.2410, 19085.00
914.3660, 18992.00
915.4900, 19050.00
916.6150, 18832.00
917.7390, 18788.00
918.8640, 18870.00
919.9880, 18990.00
921.1120, 18821.00
922.2350, 18838.00
923.3590, 18906.00
924.4820, 18881.00
925.6060, 18972.00
926.7290, 18675.00
927.8520, 19092.00
928.9740, 18926.00
930.0970, 18791.00
931.2190, 18964.00
932.3420, 18742.00
933.4640, 18930.00
934.5860, 18901.00
935.7080, 18917.00
936.8290, 19034.00
937.9510, 18901.00
939.0720, 18900.00
940.1930, 18985.00
941.3140, 18921.00
942.4350, 18847.00
943.5560, 18853.00
944.6760, 18864.00
945.7960, 18819.00
946.9170, 18933.00
948.0370, 18853.00
949.1560, 18921.87
950.2760, 18904.73
951.3960, 18974.00
952.5150, 18892.00
953.6340, 18829.00
954.7530, 18872.00
955.8720, 18909.00
956.9910, 18990.00
958.1090, 19041.00
959.2280, 19000.00
960.3460, 18872.00
961.4640, 18884.00
962.5820, 18822.71
963.6990, 18805.25
964.8170, 18767.00
965.9340, 18826.00
967.0510, 18815.00
968.1690, 18876.00
969.2850, 18939.00
970.4020, 18936.00
971.5190, 18972.00
972.6350, 19015.00
973.7510, 18912.00
974.8670, 18922.00
975.9830, 18845.00
977.0990, 18865.51
978.2150, 19172.00
979.3300, 18937.00
980.4450, 19085.00
981.5600, 19167.00
982.6750, 19032.00
983.7900, 19005.00
984.9050, 18846.00
986.0190, 19083.00
987.1340, 18959.00
988.2480, 19051.00
989.3620, 18984.00
990.4750, 19204.00
991.5890, 18973.00
992.7020, 19127.00
993.8160, 19118.16
994.9290, 19103.00
996.0420, 19133.00
997.1550, 19106.00
998.2670, 19093.00
999.3800, 19126.00
1000.492, 19169.00
1001.604, 19112.00
1002.716, 19084.00
1003.828, 19105.72
1004.940, 19056.00
1006.051, 19164.00
1007.163, 19055.00
1008.274, 19160.00
1009.385, 19048.00
1010.496, 19049.00
1011.606, 19137.00
1012.717, 19087.00
1013.827, 19138.46
1014.937, 19146.00
1016.047, 19169.00
1017.157, 19163.00
1018.267, 19135.00
1019.377, 19132.18
1020.486, 19111.28
1021.595, 19096.00
1022.704, 19135.00
1023.813, 19131.00
1024.922, 19272.00
1026.030, 19301.00
1027.139, 19275.59
1028.247, 19298.43
1029.355, 19211.00
1030.463, 19256.00
1031.571, 19262.00
1032.678, 19305.00
1033.786, 19268.00
1034.893, 19108.00
1036.000, 19401.00
1037.107, 19364.00
1038.214, 19563.00
1039.321, 19260.00
1040.427, 19483.00
1041.533, 19438.00
1042.639, 19391.00
1043.745, 19375.00
1044.851, 19544.00
1045.957, 19427.07
1047.062, 19564.00
1048.168, 19417.00
1049.273, 19314.00
1050.378, 19501.00
1051.482, 19367.00
1052.587, 19478.00
1053.692, 19517.00
1054.796, 19473.00
1055.900, 19338.00
1057.004, 19414.00
1058.108, 19613.00
1059.212, 19468.00
1060.315, 19602.09
1061.418, 19598.11
1062.522, 19609.00
1063.625, 19640.00
1064.728, 19683.96
1065.830, 19575.00
1066.933, 19770.00
1068.035, 19481.42
1069.137, 19703.31
1070.239, 19839.22
1071.341, 19893.77
1072.443, 19623.28
1073.545, 19772.51
1074.646, 19753.51
1075.747, 19727.62
1076.848, 19935.91
1077.949, 19712.66
1079.050, 19917.24
1080.150, 19951.01
1081.251, 20062.96
1082.351, 20031.56
1083.451, 20121.70
1084.551, 20135.00
1085.651, 20210.00
1086.750, 20177.25
1087.850, 20040.00
1088.949, 20035.00
1090.048, 20019.00
1091.147, 19993.00
1092.246, 20007.00
1093.345, 20085.00
1094.443, 20134.88
1095.541, 20184.00
1096.639, 20271.00
1097.737, 20198.00
1098.835, 20152.00
1099.933, 20167.61
1101.030, 20247.00
1102.128, 20155.00
1103.225, 20252.00
1104.322, 20299.00
1105.419, 20256.24
1106.515, 20412.00
1107.612, 20237.00
1108.708, 20263.00
1109.804, 20284.00
1110.900, 20347.44
1111.996, 20352.00
1113.092, 20485.00
1114.187, 20544.00
1115.283, 20330.00
1116.378, 20611.00
1117.473, 20506.00
1118.568, 20390.00
1119.662, 20434.05
1120.757, 20624.13
1121.851, 20728.24
1122.946, 20750.98
1124.040, 20448.68
1125.134, 20566.11
1126.227, 20515.34
1127.321, 20457.66
1128.414, 20634.17
1129.508, 20379.15
1130.601, 20551.95
1131.693, 20553.98
1132.786, 20634.16
1133.879, 20619.65
1134.971, 20603.65
1136.064, 20536.00
1137.156, 20490.00
1138.248, 20562.00
1139.339, 20826.00
1140.431, 20570.00
1141.522, 20666.50
1142.614, 20392.00
1143.705, 20615.00
1144.796, 20592.00
1145.887, 20686.00
1146.977, 20571.00
1148.068, 20514.00
1149.158, 20568.11
1150.248, 20732.00
1151.338, 20627.00
1152.428, 20470.00
1153.518, 20493.00
1154.607, 20714.00
1155.696, 20490.00
1156.785, 20468.00
1157.874, 20571.00
1158.963, 20315.00
1160.052, 20434.00
1161.141, 20343.51
1162.229, 20397.00
1163.317, 20328.00
1164.405, 20325.00
1165.493, 20504.00
1166.581, 20252.00
1167.668, 20123.00
1168.756, 20432.00
1169.843, 20609.00
1170.930, 20603.00
1172.017, 20489.00
1173.103, 20391.00
1174.190, 20313.00
1175.276, 20251.00
1176.363, 20346.00
1177.449, 20253.60
1178.535, 20436.00
1179.620, 20191.00
1180.706, 20322.00
1181.791, 20311.00
1182.877, 20078.00
1183.962, 20392.00
1185.047, 20318.00
1186.131, 20316.00
1187.216, 20376.00
1188.300, 20342.00
1189.385, 20356.37
1190.469, 20244.00
1191.553, 20324.00
1192.637, 20246.00
1193.720, 20178.00
1194.804, 20214.00
1195.887, 20125.00
1196.970, 20228.00
1198.053, 20203.00
1199.136, 20257.00
1200.219, 20054.00
1201.301, 20090.00
1202.383, 20083.00
1203.465, 20300.00
1204.547, 20207.00
1205.629, 20096.00
1206.711, 20243.00
1207.792, 20126.00
1208.874, 20210.00
1209.955, 20166.00
1211.036, 20217.75
1212.117, 20236.00
1213.198, 20291.00
1214.278, 20285.00
1215.359, 20184.00
1216.439, 20225.00
1217.519, 20075.00
1218.599, 20132.00
1219.678, 20150.00
1220.758, 20148.00
1221.837, 20183.65
1222.917, 20229.00
1223.996, 20116.00
1225.075, 20176.00
1226.153, 19926.00
1227.232, 20197.00
1228.310, 20079.00
1229.389, 20064.00
1230.467, 20246.00
1231.545, 20111.00
1232.622, 19995.00
1233.700, 20191.00
1234.777, 20117.00
1235.855, 20142.00
1236.932, 20070.00
1238.009, 20259.00
1239.086, 20134.00
1240.162, 20145.00
1241.239, 20279.00
1242.315, 19988.00
1243.391, 20288.00
1244.467, 20073.00
1245.543, 20312.00
1246.619, 20275.05
1247.694, 20285.85
1248.769, 20150.00
1249.844, 20328.00
1250.919, 20091.64
1251.994, 20047.00
1253.069, 20037.00
1254.144, 20218.00
1255.218, 20220.00
1256.292, 20179.00
1257.366, 20097.00
1258.440, 20072.00
1259.514, 19937.00
1260.587, 20064.00
1261.661, 19951.00
1262.734, 20124.00
1263.807, 20017.00
1264.880, 19995.00
1265.952, 20094.00
1267.025, 19924.00
1268.097, 19942.00
1269.170, 20057.00
1270.242, 20035.00
1271.314, 20034.00
1272.385, 20123.00
1273.457, 19985.00
1274.528, 20041.00
1275.600, 20059.28
1276.671, 19987.72
1277.742, 20102.00
1278.812, 19989.00
1279.883, 19943.00
1280.954, 20104.00
1282.024, 20158.00
1283.094, 20119.00
1284.164, 20075.00
1285.234, 20015.00
1286.303, 20087.00
1287.373, 20079.00
1288.442, 19965.00
1289.511, 19915.00
1290.580, 19989.00
1291.649, 19998.00
1292.718, 20168.00
1293.786, 20100.00
1294.855, 20101.30
1295.923, 20079.00
1296.991, 20052.00
1298.059, 19998.00
1299.126, 20101.00
1300.194, 20082.79
1301.261, 20198.00
1302.328, 20062.00
1303.395, 20235.00
1304.462, 20040.00
1305.529, 20068.00
1306.596, 20134.00
1307.662, 20024.00
1308.728, 20160.00
1309.794, 20016.00
1310.860, 20106.00
1311.926, 20090.00
1312.991, 19874.00
1314.057, 19867.00
1315.122, 19812.00
1316.187, 19948.00
1317.252, 19916.00
1318.317, 19813.00
1319.381, 19948.00
1320.446, 19727.00
1321.510, 19729.00
1322.574, 19896.00
1323.638, 19810.00
1324.702, 19820.00
1325.766, 19786.00
1326.829, 19934.00
1327.892, 19760.00
1328.956, 19907.00
1330.019, 19583.00
1331.081, 19942.00
1332.144, 19860.00
1333.206, 19644.00
1334.269, 19871.00
1335.331, 19830.00
1336.393, 19937.00
1337.455, 19806.00
1338.516, 19824.00
1339.578, 19789.00
1340.639, 19598.00
1341.701, 19943.00
1342.762, 19672.00
1343.822, 19665.00
1344.883, 19798.00
1345.944, 19959.00
1347.004, 19818.00
1348.064, 19907.00
1349.124, 19829.00
1350.184, 19796.00
1351.244, 19762.67
1352.304, 19710.06
1353.363, 19679.00
1354.422, 19700.00
1355.481, 19772.00
1356.540, 19927.00
1357.599, 19748.00
1358.657, 19738.00
1359.716, 19800.00
1360.774, 19680.00
1361.832, 19862.00
1362.890, 19817.00
1363.948, 19798.00
1365.006, 19846.06
1366.063, 19910.00
1367.120, 19795.00
1368.178, 19793.00
1369.234, 19685.00
1370.291, 19645.59
1371.348, 19556.00
1372.404, 19570.00
1373.461, 19666.00
1374.517, 19674.00
1375.573, 19768.00
1376.629, 19829.00
1377.684, 19837.00
1378.740, 19867.00
1379.795, 19784.00
1380.850, 19584.00
1381.905, 19628.00
1382.960, 19702.00
1384.015, 19564.00
1385.070, 19736.00
1386.124, 19521.00
1387.178, 19708.00
1388.232, 19911.00
1389.286, 19596.00
1390.340, 19740.00
1391.393, 19707.00
1392.447, 19684.00
1393.500, 19671.00
1394.553, 19565.00
1395.606, 19766.00
1396.659, 19833.00
1397.711, 19713.00
1398.764, 19699.00
1399.816, 19770.00
1400.868, 19686.00
1401.920, 19655.00
1402.972, 19665.00
1404.023, 19562.00
1405.075, 19660.27
1406.126, 19668.00
1407.177, 19745.00
1408.228, 19558.00
1409.279, 19411.00
1410.330, 19613.00
1411.380, 19536.00
1412.431, 19587.00
1413.481, 19559.00
1414.531, 19554.00
1415.580, 19510.00
1416.630, 19511.00
1417.680, 19342.00
1418.729, 19442.00
1419.778, 19475.00
1420.827, 19719.00
1421.876, 19418.00
1422.925, 19496.00
1423.973, 19344.00
1425.022, 19288.00
1426.070, 19186.00
1427.118, 19287.00
1428.166, 19414.00
1429.214, 19486.00
1430.261, 19399.00
1431.309, 19383.00
1432.356, 19400.00
1433.403, 19321.59
1434.450, 19341.95
1435.497, 19253.00
1436.543, 19312.00
1437.590, 19356.00
1438.636, 19296.00
1439.682, 19326.00
1440.728, 19174.00
1441.774, 19391.00
1442.819, 19278.00
1443.865, 19186.00
1444.910, 19266.00
1445.955, 18988.00
1447.000, 19145.00
1448.045, 19191.00
1449.090, 19052.00
1450.134, 19051.00
1451.178, 19388.00
1452.223, 19030.00
1453.267, 19178.00
1454.310, 19016.00
1455.354, 19241.00
1456.398, 19160.00
1457.441, 19175.00
1458.484, 18948.00
1459.527, 19093.00
1460.570, 19116.00
1461.613, 18998.00
1462.655, 19045.00
1463.698, 18840.00
1464.740, 19066.00
1465.782, 19038.00
1466.824, 19136.00
1467.866, 18937.00
1468.907, 18978.00
1469.948, 18975.00
1470.990, 18756.00
1472.031, 18855.00
1473.072, 18908.00
1474.112, 18748.00
1475.153, 19034.00
1476.194, 18844.00
1477.234, 18822.00
1478.274, 18914.00
1479.314, 18769.00
1480.354, 18854.00
1481.393, 18861.00
1482.433, 18827.00
1483.472, 18810.00
1484.511, 18815.00
1485.550, 18847.00
1486.589, 18820.15
1487.628, 18761.00
1488.666, 18777.00
1489.704, 18716.33
1490.743, 18680.64
1491.781, 18638.00
1492.819, 18606.00
1493.856, 18587.76
1494.894, 18588.00
1495.931, 18617.00
1496.968, 18681.00
1498.005, 18736.00
1499.042, 18560.00
1500.079, 18717.00
1501.115, 18791.00
1502.152, 18680.00
1503.188, 18475.00
1504.224, 18454.00
1505.260, 18755.00
1506.296, 18874.00
1507.331, 18869.29
1508.367, 18839.76
1509.402, 18833.00
1510.437, 18795.06
1511.472, 18763.73
1512.507, 18694.00
1513.541, 18686.00
1514.576, 18644.47
1515.610, 18542.00
1516.644, 18594.00
1517.678, 18570.39
1518.712, 18557.00
1519.746, 18697.00
1520.779, 18668.10
1521.813, 18502.00
1522.846, 18692.00
1523.879, 18548.00
1524.912, 18471.00
1525.944, 18452.00
1526.977, 18452.00
1528.009, 18438.83
1529.041, 18453.62
1530.073, 18477.00
1531.105, 18498.45
1532.137, 18540.22
1533.168, 18583.00
1534.200, 18609.00
1535.231, 18501.00
1536.262, 18564.00
1537.293, 18409.00
1538.324, 18388.00
1539.354, 18535.00
1540.385, 18348.00
1541.415, 18531.00
1542.445, 18578.00
1543.475, 18360.00
1544.505, 18367.00
1545.534, 18485.66
1546.564, 18680.02
1547.593, 18788.40
1548.622, 18815.42
1549.651, 18517.39
1550.680, 18639.10
1551.708, 18592.59
1552.737, 18539.19
1553.765, 18719.97
1554.793, 18469.22
1555.821, 18646.29
1556.849, 18652.58
1557.877, 18737.03
1558.904, 18652.24
1559.932, 18619.72
1560.959, 18594.00
1561.986, 18626.00
1563.013, 18353.00
1564.039, 18431.00
1565.066, 18688.00
1566.092, 18375.00
1567.119, 18449.91
1568.145, 18646.13
1569.170, 18756.38
1570.196, 18785.26
1571.222, 18489.09
1572.247, 18612.66
1573.272, 18568.02
1574.297, 18516.47
1575.322, 18699.11
1576.347, 18450.22
1577.372, 18629.15
##END=



