##NAMES=Magnesio-hastingsite
##RRUFFID=R070288
##IDEAL CHEMISTRY=NaCa_2_(Mg_4_Fe^3+^)Si_6_Al_2_O_22_(OH)_2_
##LOCALITY=Dallas Gem Mine (Gem Mine; Benitoite Mine), New Idria District, San Benito County, California, USA
##OWNER=RRUFF
##SOURCE=Michael Scott
##DESCRIPTION=Dark brown to black prismatic crystals frozen in albite
##STATUS=The identification of this mineral is confirmed by single-crystal X-ray diffraction and chemical analysis.
##URL=rruff.info/R070288
##MEASURED CHEMISTRY=(Na_0.51_[box]_0.33_K_0.16_)_Σ=1_(Ca_1.75_Na_0.25_)_Σ=2_(Mg_3.02_Fe^2+^_0.61_Ti_0.37_)_Σ=4_(Fe^3+^_0.73_Al_0.27_)_Σ=1_Si_5.84_Al_2.16_O_22_(OH)_2_; (OH) estimated by difference
##PIN_ID=M01712
##ORIENTATION=Laser parallel to (1 0 1). Fiducial mark perpendicular to laser is parallel to b [0 1 0]
127.7630, 6650.000
128.9970, 6892.000
130.2300, 6981.000
131.4640, 7094.000
132.6970, 6827.000
133.9300, 6642.000
135.1630, 6584.000
136.3950, 6783.000
137.6280, 7077.000
138.8600, 7618.000
140.0920, 7609.000
141.3240, 7442.000
142.5560, 7057.000
143.7880, 7029.000
145.0190, 6943.000
146.2510, 7094.000
147.4820, 7112.000
148.7130, 6967.000
149.9440, 7128.000
151.1750, 7101.000
152.4050, 7079.000
153.6360, 7336.000
154.8660, 7649.000
156.0960, 7679.000
157.3260, 7734.000
158.5560, 7744.000
159.7850, 7864.000
161.0150, 8085.000
162.2440, 8297.000
163.4730, 8207.000
164.7020, 8053.000
165.9310, 7803.000
167.1590, 7806.000
168.3880, 7704.000
169.6160, 7688.000
170.8440, 7590.000
172.0720, 7553.000
173.3000, 7462.000
174.5280, 7454.000
175.7550, 7362.000
176.9820, 7430.634
178.2100, 7432.252
179.4370, 7569.000
180.6630, 7530.000
181.8900, 7565.000
183.1170, 7630.000
184.3430, 7703.000
185.5690, 7750.454
186.7950, 7800.148
188.0210, 7841.000
189.2470, 7829.000
190.4720, 7813.000
191.6970, 7713.330
192.9230, 7614.000
194.1480, 7607.000
195.3730, 7596.000
196.5970, 7538.000
197.8220, 7464.000
199.0460, 7548.000
200.2700, 7444.113
201.4940, 7458.535
202.7180, 7451.427
203.9420, 7423.947
205.1660, 7464.924
206.3890, 7510.725
207.6120, 7534.000
208.8350, 7686.000
210.0580, 7740.000
211.2810, 7886.000
212.5040, 8152.000
213.7260, 8478.000
214.9480, 8865.000
216.1700, 9201.000
217.3920, 9654.715
218.6140, 10005.00
219.8360, 10560.00
221.0570, 10969.00
222.2790, 11370.00
223.5000, 11779.00
224.7210, 11804.63
225.9410, 12062.00
227.1620, 11652.00
228.3820, 11260.00
229.6030, 10918.00
230.8230, 10283.00
232.0430, 9846.000
233.2630, 9249.000
234.4820, 8793.000
235.7020, 8299.000
236.9210, 8082.000
238.1400, 7699.000
239.3590, 7526.000
240.5780, 7410.000
241.7970, 7250.000
243.0150, 7152.000
244.2340, 6876.000
245.4520, 6726.000
246.6700, 6648.000
247.8880, 6712.000
249.1060, 6575.000
250.3230, 6500.000
251.5400, 6362.000
252.7580, 6415.000
253.9750, 6284.000
255.1920, 6353.000
256.4080, 6267.000
257.6250, 6209.000
258.8410, 6204.000
260.0580, 6088.000
261.2740, 6063.000
262.4900, 6092.000
263.7050, 6111.000
264.9210, 6049.000
266.1360, 6112.000
267.3520, 5991.000
268.5670, 5990.000
269.7820, 5988.000
270.9960, 6069.000
272.2110, 5910.000
273.4250, 5924.000
274.6400, 5997.000
275.8540, 5949.000
277.0680, 5976.000
278.2810, 5977.000
279.4950, 5972.460
280.7090, 6017.814
281.9220, 6016.000
283.1350, 6086.000
284.3480, 6177.000
285.5610, 6189.000
286.7730, 6179.000
287.9860, 6177.000
289.1980, 6186.000
290.4100, 6198.728
291.6220, 6241.000
292.8340, 6260.000
294.0460, 6323.000
295.2570, 6397.000
296.4690, 6341.000
297.6800, 6313.000
298.8910, 6396.000
300.1020, 6367.000
301.3120, 6417.000
302.5230, 6481.000
303.7330, 6380.144
304.9440, 6396.000
306.1540, 6268.000
307.3630, 6280.000
308.5730, 6371.000
309.7830, 6295.000
310.9920, 6403.000
312.2010, 6291.000
313.4100, 6305.000
314.6190, 6277.000
315.8280, 6468.000
317.0370, 6332.000
318.2450, 6342.000
319.4530, 6476.000
320.6610, 6448.000
321.8690, 6470.000
323.0770, 6535.000
324.2850, 6495.000
325.4920, 6504.258
326.6990, 6594.000
327.9060, 6471.000
329.1130, 6523.000
330.3200, 6537.000
331.5270, 6492.000
332.7330, 6423.000
333.9390, 6517.000
335.1450, 6393.000
336.3510, 6462.000
337.5570, 6620.000
338.7630, 6508.000
339.9680, 6543.000
341.1740, 6353.000
342.3790, 6438.000
343.5840, 6471.000
344.7890, 6475.000
345.9930, 6557.000
347.1980, 6410.000
348.4020, 6505.000
349.6060, 6481.000
350.8100, 6398.000
352.0140, 6433.000
353.2180, 6461.000
354.4210, 6541.000
355.6250, 6596.000
356.8280, 6451.000
358.0310, 6504.000
359.2340, 6624.000
360.4360, 6538.000
361.6390, 6615.000
362.8410, 6660.000
364.0430, 6707.000
365.2450, 6726.536
366.4470, 6727.253
367.6490, 6773.000
368.8510, 6704.000
370.0520, 6793.000
371.2530, 6803.000
372.4540, 6752.000
373.6550, 6734.000
374.8560, 6712.000
376.0560, 6751.000
377.2570, 6660.000
378.4570, 6657.000
379.6570, 6503.000
380.8570, 6518.000
382.0570, 6612.000
383.2560, 6495.000
384.4560, 6450.000
385.6550, 6431.000
386.8540, 6267.000
388.0530, 6230.000
389.2520, 6171.000
390.4510, 6141.000
391.6490, 6164.000
392.8470, 6132.000
394.0450, 6072.000
395.2430, 5930.000
396.4410, 5930.000
397.6390, 5891.000
398.8360, 5836.000
400.0340, 5833.000
401.2310, 5824.000
402.4280, 5828.000
403.6250, 5805.000
404.8210, 5834.000
406.0180, 5795.000
407.2140, 5771.042
408.4100, 5650.000
409.6060, 5716.000
410.8020, 5684.000
411.9980, 5704.000
413.1930, 5704.000
414.3890, 5683.000
415.5840, 5668.113
416.7790, 5656.440
417.9740, 5611.000
419.1680, 5606.000
420.3630, 5591.000
421.5570, 5523.000
422.7510, 5479.000
423.9450, 5513.000
425.1390, 5507.000
426.3330, 5506.938
427.5270, 5472.178
428.7200, 5519.429
429.9130, 5545.150
431.1060, 5550.500
432.2990, 5474.458
433.4920, 5503.515
434.6840, 5490.455
435.8770, 5475.666
437.0690, 5519.518
438.2610, 5414.506
439.4530, 5461.653
440.6450, 5487.271
441.8360, 5492.518
443.0280, 5416.373
444.2190, 5445.328
445.4100, 5432.164
446.6010, 5417.273
447.7920, 5461.021
448.9820, 5396.717
450.1730, 5439.535
451.3630, 5439.593
452.5530, 5459.222
453.7430, 5436.471
454.9330, 5388.326
456.1230, 5435.159
457.3120, 5460.463
458.5010, 5465.396
459.6910, 5388.935
460.8800, 5417.576
462.0680, 5404.100
463.2570, 5388.894
464.4460, 5432.327
465.6340, 5367.708
466.8220, 5410.214
468.0100, 5409.957
469.1980, 5429.271
470.3860, 5406.207
471.5730, 5396.233
472.7600, 5461.000
473.9480, 5372.000
475.1350, 5403.000
476.3210, 5444.000
477.5080, 5354.000
478.6950, 5453.000
479.8810, 5497.000
481.0670, 5481.000
482.2530, 5469.000
483.4390, 5524.000
484.6250, 5564.000
485.8100, 5669.000
486.9960, 5579.000
488.1810, 5545.000
489.3660, 5636.000
490.5510, 5692.000
491.7360, 5611.000
492.9200, 5661.000
494.1050, 5723.000
495.2890, 5813.000
496.4730, 5758.000
497.6570, 5792.000
498.8400, 5740.000
500.0240, 5803.868
501.2070, 5853.147
502.3910, 5931.000
503.5740, 5981.000
504.7570, 6035.000
505.9400, 6044.000
507.1220, 6138.000
508.3050, 6150.000
509.4870, 6132.000
510.6690, 6217.000
511.8510, 6292.000
513.0330, 6382.000
514.2140, 6431.000
515.3960, 6428.000
516.5770, 6499.279
517.7580, 6526.490
518.9390, 6577.000
520.1200, 6596.000
521.3010, 6623.000
522.4810, 6629.000
523.6610, 6673.000
524.8420, 6693.000
526.0220, 6758.000
527.2010, 6747.000
528.3810, 6759.000
529.5610, 6850.734
530.7400, 6906.426
531.9190, 6940.587
533.0980, 6954.376
534.2770, 6886.774
535.4560, 6924.271
536.6340, 6919.644
537.8120, 6913.289
538.9910, 6965.579
540.1690, 6909.809
541.3460, 6961.157
542.5240, 6969.749
543.7020, 6997.912
544.8790, 6983.690
546.0560, 6991.056
547.2330, 6933.489
548.4100, 6985.665
549.5870, 7014.946
550.7630, 7022.491
551.9400, 6947.281
553.1160, 6975.809
554.2920, 6960.856
555.4680, 6942.814
556.6440, 6982.049
557.8190, 6911.875
558.9950, 6947.457
560.1700, 6938.925
561.3450, 6948.604
562.5200, 6914.543
563.6950, 6892.213
564.8690, 6910.931
566.0440, 6904.802
567.2180, 6860.442
568.3920, 6863.228
569.5660, 6777.999
570.7400, 6767.454
571.9130, 6648.000
573.0870, 6624.000
574.2600, 6487.000
575.4330, 6526.000
576.6060, 6317.000
577.7790, 6329.000
578.9520, 6236.000
580.1240, 6088.000
581.2960, 5976.000
582.4690, 5943.000
583.6410, 5776.000
584.8120, 5717.000
585.9840, 5743.000
587.1560, 5602.753
588.3270, 5599.000
589.4980, 5440.000
590.6690, 5453.000
591.8400, 5387.000
593.0110, 5422.000
594.1810, 5385.000
595.3510, 5437.000
596.5220, 5317.000
597.6920, 5385.000
598.8610, 5320.000
600.0310, 5416.000
601.2010, 5390.000
602.3700, 5483.000
603.5390, 5416.000
604.7080, 5465.000
605.8770, 5572.000
607.0460, 5427.000
608.2140, 5436.000
609.3830, 5541.000
610.5510, 5644.000
611.7190, 5588.000
612.8870, 5681.000
614.0550, 5702.842
615.2220, 5719.000
616.3900, 5794.000
617.5570, 5770.000
618.7240, 5861.000
619.8910, 5917.000
621.0580, 5930.000
622.2240, 6034.000
623.3910, 6209.000
624.5570, 6306.000
625.7230, 6430.633
626.8890, 6517.998
628.0550, 6648.333
629.2200, 6669.000
630.3860, 6752.000
631.5510, 6850.522
632.7160, 6995.000
633.8810, 7158.000
635.0460, 7343.000
636.2100, 7522.000
637.3750, 7790.000
638.5390, 7977.000
639.7030, 8151.000
640.8670, 8312.000
642.0310, 8660.000
643.1950, 8787.000
644.3580, 9017.000
645.5210, 9161.000
646.6850, 9370.000
647.8480, 9596.000
649.0100, 9667.000
650.1730, 9893.000
651.3350, 9979.794
652.4980, 9920.949
653.6600, 10072.36
654.8220, 10202.25
655.9840, 10311.75
657.1450, 10418.91
658.3070, 10473.00
659.4680, 10564.01
660.6300, 10653.38
661.7910, 10653.00
662.9510, 10731.90
664.1120, 10650.88
665.2730, 10548.32
666.4330, 10425.51
667.5930, 10221.30
668.7530, 10122.20
669.9130, 9836.000
671.0730, 9559.000
672.2320, 9111.000
673.3920, 9085.000
674.5510, 8719.000
675.7100, 8769.000
676.8690, 8377.000
678.0280, 8281.000
679.1860, 8100.000
680.3450, 8076.000
681.5030, 7982.000
682.6610, 7969.000
683.8190, 7905.805
684.9770, 7910.000
686.1340, 7856.000
687.2920, 7733.000
688.4490, 7821.000
689.6060, 7760.000
690.7630, 7553.000
691.9200, 7476.000
693.0760, 7306.000
694.2330, 7178.000
695.3890, 7034.000
696.5450, 6984.000
697.7010, 6844.000
698.8570, 6802.000
700.0130, 6651.000
701.1680, 6622.000
702.3230, 6544.000
703.4780, 6482.000
704.6330, 6496.000
705.7880, 6458.000
706.9430, 6498.000
708.0970, 6410.000
709.2520, 6409.000
710.4060, 6442.000
711.5600, 6368.000
712.7140, 6448.000
713.8670, 6390.000
715.0210, 6433.000
716.1740, 6497.000
717.3270, 6524.000
718.4800, 6552.391
719.6330, 6568.598
720.7860, 6579.000
721.9380, 6553.000
723.0910, 6546.000
724.2430, 6491.000
725.3950, 6490.000
726.5470, 6542.498
727.6980, 6601.806
728.8500, 6639.593
730.0010, 6656.999
731.1530, 6593.023
732.3040, 6634.138
733.4550, 6633.134
734.6050, 6630.393
735.7560, 6686.300
736.9060, 6634.145
738.0560, 6689.114
739.2060, 6701.320
740.3560, 6733.098
741.5060, 6722.496
742.6560, 6724.984
743.8050, 6769.856
744.9540, 6608.000
746.1030, 6703.000
747.2520, 6719.000
748.4010, 6554.000
749.5500, 6604.000
750.6980, 6689.000
751.8460, 6597.000
752.9950, 6622.000
754.1420, 6625.000
755.2900, 6633.536
756.4380, 6710.030
757.5850, 6764.972
758.7330, 6799.563
759.8800, 6752.742
761.0270, 6811.019
762.1730, 6827.153
763.3200, 6841.585
764.4670, 6914.654
765.6130, 6879.646
766.7590, 6951.762
767.9050, 6981.118
769.0510, 7030.043
770.1960, 7036.564
771.3420, 7056.200
772.4870, 7123.000
773.6320, 7183.000
774.7770, 7269.000
775.9220, 7321.000
777.0670, 7374.295
778.2110, 7426.300
779.3560, 7473.000
780.5000, 7507.000
781.6440, 7573.000
782.7880, 7612.000
783.9320, 7719.000
785.0750, 7777.000
786.2180, 7876.000
787.3620, 7921.029
788.5050, 8002.000
789.6480, 8007.505
790.7900, 8079.049
791.9330, 8129.083
793.0750, 8158.725
794.2170, 8106.975
795.3590, 8160.326
796.5010, 8171.556
797.6430, 8181.060
798.7850, 8249.000
799.9260, 8212.063
801.0670, 8237.000
802.2080, 8262.000
803.3490, 8182.000
804.4900, 8183.000
805.6310, 8166.285
806.7710, 8192.000
807.9110, 8129.000
809.0510, 8159.000
810.1910, 8123.000
811.3310, 8116.000
812.4710, 8151.000
813.6100, 8194.000
814.7490, 8165.875
815.8880, 8187.375
817.0270, 8132.000
818.1660, 8142.000
819.3050, 8137.000
820.4430, 8105.437
821.5820, 8024.209
822.7200, 8031.676
823.8580, 8012.617
824.9950, 7906.045
826.1330, 7898.396
827.2710, 7842.475
828.4080, 7778.721
829.5450, 7767.467
830.6820, 7642.015
831.8190, 7617.549
832.9560, 7544.176
834.0920, 7484.309
835.2280, 7375.928
836.3650, 7243.000
837.5010, 7174.000
838.6360, 7067.000
839.7720, 7039.000
840.9080, 6943.000
842.0430, 6784.000
843.1780, 6836.000
844.3130, 6709.000
845.4480, 6595.000
846.5830, 6539.000
847.7170, 6434.000
848.8520, 6402.000
849.9860, 6491.000
851.1200, 6278.000
852.2540, 6339.000
853.3870, 6214.000
854.5210, 6270.000
855.6540, 6229.000
856.7880, 6301.000
857.9210, 6285.000
859.0540, 6159.000
860.1860, 6205.000
861.3190, 6210.000
862.4510, 6100.000
863.5840, 6136.000
864.7160, 6274.000
865.8480, 6200.000
866.9790, 6290.000
868.1110, 6260.646
869.2420, 6338.000
870.3740, 6229.000
871.5050, 6235.000
872.6360, 6299.000
873.7660, 6300.000
874.8970, 6306.000
876.0280, 6428.000
877.1580, 6404.000
878.2880, 6413.000
879.4180, 6360.000
880.5480, 6395.000
881.6770, 6422.000
882.8070, 6509.000
883.9360, 6382.000
885.0650, 6488.000
886.1940, 6617.000
887.3230, 6486.000
888.4520, 6669.000
889.5800, 6733.000
890.7090, 6697.000
891.8370, 6810.000
892.9650, 6755.000
894.0930, 6869.000
895.2200, 6796.000
896.3480, 6833.000
897.4750, 6930.000
898.6020, 6913.000
899.7290, 6970.000
900.8560, 7057.000
901.9830, 7006.782
903.1090, 6958.000
904.2360, 7047.000
905.3620, 6886.000
906.4880, 7101.000
907.6140, 7044.000
908.7400, 7055.000
909.8650, 7124.000
910.9900, 6948.000
912.1160, 7033.000
913.2410, 6987.000
914.3660, 6988.000
915.4900, 6947.000
916.6150, 6998.000
917.7390, 7059.000
918.8640, 6863.000
919.9880, 6830.000
921.1120, 6901.000
922.2350, 6783.000
923.3590, 6839.000
924.4820, 6917.000
925.6060, 6759.000
926.7290, 6806.000
927.8520, 6774.000
928.9740, 6914.000
930.0970, 6858.000
931.2190, 6735.000
932.3420, 6833.000
933.4640, 6842.000
934.5860, 6839.000
935.7080, 6747.000
936.8290, 6808.000
937.9510, 6810.000
939.0720, 6865.000
940.1930, 6776.000
941.3140, 6735.000
942.4350, 6796.000
943.5560, 6754.000
944.6760, 6855.000
945.7960, 6854.000
946.9170, 6781.000
948.0370, 6915.000
949.1560, 6945.000
950.2760, 6825.000
951.3960, 6922.000
952.5150, 6943.000
953.6340, 6964.000
954.7530, 6972.000
955.8720, 6997.909
956.9910, 7107.000
958.1090, 7000.000
959.2280, 7087.000
960.3460, 7005.000
961.4640, 7162.000
962.5820, 7029.000
963.6990, 7009.000
964.8170, 7091.000
965.9340, 7095.000
967.0510, 7155.000
968.1690, 7162.000
969.2850, 7160.000
970.4020, 7101.000
971.5190, 7117.000
972.6350, 7049.000
973.7510, 7158.000
974.8670, 7268.000
975.9830, 7150.000
977.0990, 7176.000
978.2150, 7266.000
979.3300, 7218.218
980.4450, 7326.752
981.5600, 7265.000
982.6750, 7384.000
983.7900, 7454.000
984.9050, 7256.378
986.0190, 7366.588
987.1340, 7436.000
988.2480, 7366.000
989.3620, 7547.000
990.4750, 7561.000
991.5890, 7658.000
992.7020, 7715.000
993.8160, 7753.000
994.9290, 7830.000
996.0420, 7890.000
997.1550, 7960.000
998.2670, 8055.000
999.3800, 8113.000
1000.492, 8213.000
1001.604, 8261.361
1002.716, 8325.066
1003.828, 8337.000
1004.940, 8445.000
1006.051, 8434.000
1007.163, 8514.000
1008.274, 8454.000
1009.385, 8494.000
1010.496, 8504.000
1011.606, 8556.000
1012.717, 8513.000
1013.827, 8539.000
1014.937, 8579.000
1016.047, 8538.000
1017.157, 8525.991
1018.267, 8447.000
1019.377, 8409.000
1020.486, 8318.000
1021.595, 8193.000
1022.704, 8201.000
1023.813, 8086.000
1024.922, 8155.000
1026.030, 8127.000
1027.139, 7886.000
1028.247, 8031.000
1029.355, 7958.000
1030.463, 7856.000
1031.571, 7915.000
1032.678, 7786.000
1033.786, 7719.000
1034.893, 7564.000
1036.000, 7588.000
1037.107, 7506.378
1038.214, 7598.000
1039.321, 7452.000
1040.427, 7463.000
1041.533, 7475.000
1042.639, 7300.000
1043.745, 7362.000
1044.851, 7231.000
1045.957, 7266.000
1047.062, 7244.000
1048.168, 7238.000
1049.273, 7220.000
1050.378, 7188.871
1051.482, 7211.000
1052.587, 7122.000
1053.692, 7083.000
1054.796, 7049.000
1055.900, 6933.000
1057.004, 7046.000
1058.108, 7042.000
1059.212, 6979.000
1060.315, 6955.000
1061.418, 6922.000
1062.522, 6878.987
1063.625, 6836.756
1064.728, 6816.000
1065.830, 6748.000
1066.933, 6732.000
1068.035, 6715.000
1069.137, 6719.000
1070.239, 6612.000
1071.341, 6586.000
1072.443, 6613.000
1073.545, 6530.000
1074.646, 6518.000
1075.747, 6595.000
1076.848, 6441.000
1077.949, 6373.000
1079.050, 6422.000
1080.150, 6465.000
1081.251, 6399.000
1082.351, 6469.000
1083.451, 6299.000
1084.551, 6235.000
1085.651, 6269.000
1086.750, 6233.000
1087.850, 6184.820
1088.949, 6216.726
1090.048, 6227.102
1091.147, 6217.105
1092.246, 6125.717
1093.345, 6139.429
1094.443, 6111.037
1095.541, 6080.918
1096.639, 6109.438
1097.737, 6029.903
1098.835, 6057.495
1099.933, 6042.323
1101.030, 6046.737
1102.128, 6008.757
1103.225, 5983.883
1104.322, 6001.401
1105.419, 5995.447
1106.515, 5952.619
1107.612, 5958.278
1108.708, 5877.296
1109.804, 5872.357
1110.900, 5847.990
1111.996, 5878.707
1113.092, 5801.368
1114.187, 5831.167
1115.283, 5818.192
1116.378, 5824.800
1117.473, 5789.030
1118.568, 5690.047
1119.662, 5761.459
1120.757, 5802.247
1121.851, 5813.847
1122.946, 5719.989
1124.040, 5753.790
1125.134, 5731.227
1126.227, 5702.801
1127.321, 5743.949
1128.414, 5646.336
1129.508, 5678.892
1130.601, 5762.000
1131.693, 5732.334
1132.786, 5701.000
1133.879, 5732.000
1134.971, 5715.000
1136.064, 5735.000
1137.156, 5658.000
1138.248, 5663.000
1139.339, 5601.000
1140.431, 5580.000
1141.522, 5605.000
1142.614, 5600.000
1143.705, 5557.000
1144.796, 5643.000
1145.887, 5647.000
1146.977, 5677.773
1148.068, 5639.346
1149.158, 5729.000
1150.248, 5573.000
1151.338, 5536.000
1152.428, 5625.000
1153.518, 5553.000
1154.607, 5638.000
1155.696, 5511.000
1156.785, 5524.000
1157.874, 5551.000
1158.963, 5633.000
1160.052, 5457.000
1161.141, 5620.000
1162.229, 5560.000
1163.317, 5530.000
1164.405, 5611.000
1165.493, 5548.245
1166.581, 5558.867
1167.668, 5520.000
1168.756, 5526.000
1169.843, 5521.000
1170.930, 5497.000
1172.017, 5518.727
1173.103, 5558.000
1174.190, 5531.000
1175.276, 5561.000
1176.363, 5533.000
1177.449, 5583.000
1178.535, 5537.000
1179.620, 5544.000
1180.706, 5586.000
1181.791, 5494.000
1182.877, 5659.000
1183.962, 5586.000
1185.047, 5589.000
1186.131, 5556.000
1187.216, 5507.000
1188.300, 5514.000
1189.385, 5602.000
1190.469, 5582.000
1191.553, 5470.000
1192.637, 5619.000
1193.720, 5550.039
1194.804, 5550.000
1195.887, 5605.000
1196.970, 5526.000
1198.053, 5654.000
1199.136, 5684.000
1200.219, 5622.000
1201.301, 5616.000
1202.383, 5559.000
1203.465, 5540.000
1204.547, 5581.000
1205.629, 5571.389
1206.711, 5595.000
1207.792, 5549.000
1208.874, 5571.574
1209.955, 5524.000
1211.036, 5590.000
1212.117, 5557.000
1213.198, 5569.000
1214.278, 5622.000
1215.359, 5613.000
1216.439, 5581.000
1217.519, 5687.000
1218.599, 5591.000
1219.678, 5562.000
1220.758, 5600.000
1221.837, 5597.000
1222.917, 5719.000
1223.996, 5637.000
1225.075, 5700.000
1226.153, 5536.000
1227.232, 5747.000
1228.310, 5672.818
1229.389, 5689.167
1230.467, 5651.000
1231.545, 5709.000
1232.622, 5655.000
1233.700, 5654.000
1234.777, 5661.000
1235.855, 5689.000
1236.932, 5738.000
1238.009, 5799.000
1239.086, 5526.000
1240.162, 5697.000
1241.239, 5637.000
1242.315, 5710.000
1243.391, 5710.000
1244.467, 5686.000
1245.543, 5684.844
1246.619, 5663.404
1247.694, 5628.000
1248.769, 5633.000
1249.844, 5634.000
1250.919, 5644.000
1251.994, 5588.000
1253.069, 5689.000
1254.144, 5680.000
1255.218, 5727.000
1256.292, 5683.000
1257.366, 5591.000
1258.440, 5820.000
1259.514, 5642.000
1260.587, 5649.000
1261.661, 5759.163
1262.734, 5694.994
1263.807, 5827.000
1264.880, 5776.000
1265.952, 5604.000
1267.025, 5687.000
1268.097, 5689.000
1269.170, 5854.000
1270.242, 5746.000
1271.314, 5692.000
1272.385, 5808.000
1273.457, 5816.000
1274.528, 5720.000
1275.600, 5729.000
1276.671, 5711.715
1277.742, 5694.961
1278.812, 5712.000
1279.883, 5707.000
1280.954, 5721.000
1282.024, 5731.000
1283.094, 5805.000
1284.164, 5759.000
1285.234, 5827.000
1286.303, 5692.000
1287.373, 5726.000
1288.442, 5754.000
1289.511, 5710.000
1290.580, 5860.000
1291.649, 5784.000
1292.718, 5736.000
1293.786, 5916.000
1294.855, 5738.000
1295.923, 5878.000
1296.991, 5833.000
1298.059, 5740.000
1299.126, 5877.000
1300.194, 5857.000
1301.261, 5778.000
1302.328, 5778.000
1303.395, 5924.000
1304.462, 5868.000
1305.529, 5898.000
1306.596, 5912.000
1307.662, 5811.000
1308.728, 5847.000
1309.794, 5850.000
1310.860, 5800.000
1311.926, 5937.000
1312.991, 5847.000
1314.057, 5987.000
1315.122, 5976.000
1316.187, 5970.000
1317.252, 5923.000
1318.317, 5901.000
1319.381, 5891.000
1320.446, 5917.000
1321.510, 5904.000
1322.574, 5928.592
1323.638, 6002.000
1324.702, 5968.000
1325.766, 5813.000
1326.829, 5808.000
1327.892, 5864.000
1328.956, 5930.000
1330.019, 5928.000
1331.081, 5877.000
1332.144, 5876.000
1333.206, 5872.684
1334.269, 5874.000
1335.331, 5885.000
1336.393, 5929.000
1337.455, 5943.889
1338.516, 5948.000
1339.578, 5933.000
1340.639, 5905.000
1341.701, 5864.000
1342.762, 5947.000
1343.822, 5833.000
1344.883, 5857.000
1345.944, 5966.000
1347.004, 6101.000
1348.064, 6022.414
1349.124, 5935.000
1350.184, 5873.000
1351.244, 5986.000
1352.304, 5882.000
1353.363, 5946.000
1354.422, 5932.000
1355.481, 5993.000
1356.540, 5973.000
1357.599, 5944.000
1358.657, 5989.000
1359.716, 5958.508
1360.774, 5917.000
1361.832, 5964.000
1362.890, 5893.000
1363.948, 5929.000
1365.006, 5905.000
1366.063, 5930.000
1367.120, 5964.000
1368.178, 5861.000
1369.234, 6064.000
1370.291, 5993.000
1371.348, 6031.000
1372.404, 5952.000
1373.461, 5967.000
1374.517, 6010.836
1375.573, 6172.000
1376.629, 6081.000
1377.684, 6029.000
1378.740, 5969.000
1379.795, 5904.000
1380.850, 6021.000
1381.905, 5889.000
1382.960, 5860.000
1384.015, 5978.000
1385.070, 5897.000
1386.124, 5938.000
1387.178, 5973.731
1388.232, 5921.313
1389.286, 5994.000
1390.340, 5929.000
1391.393, 5849.000
1392.447, 5974.000
1393.500, 6026.000
1394.553, 5920.000
1395.606, 5910.000
1396.659, 6075.000
1397.711, 6029.000
1398.764, 5866.000
1399.816, 5963.244
1400.868, 6013.000
1401.920, 5959.000
1402.972, 5969.000
1404.023, 5951.000
1405.075, 5914.000
1406.126, 5987.000
1407.177, 5946.000
1408.228, 5978.000
1409.279, 5992.000
1410.330, 5964.000
1411.380, 5931.000
1412.431, 5916.000
1413.481, 5911.795
1414.531, 5897.000
1415.580, 5931.000
1416.630, 5915.000
1417.680, 5945.000
1418.729, 5963.000
1419.778, 5967.293
1420.827, 5990.555
1421.876, 5998.000
1422.925, 6010.000
1423.973, 6040.000
1425.022, 6029.000
1426.070, 5992.000
1427.118, 5995.000
1428.166, 6003.000
1429.214, 6063.000
1430.261, 6073.000
1431.309, 6096.492
1432.356, 6106.000
1433.403, 6123.000
1434.450, 6132.645
1435.497, 6126.163
1436.543, 6177.000
1437.590, 6087.000
1438.636, 6111.000
1439.682, 6153.000
1440.728, 6141.586
1441.774, 6156.507
1442.819, 6201.000
1443.865, 6150.000
1444.910, 6177.000
1445.955, 6172.000
1447.000, 6186.000
1448.045, 6143.000
1449.090, 6173.000
1450.134, 6222.000
1451.178, 6160.000
1452.223, 6259.000
1453.267, 6212.000
1454.310, 6199.000
1455.354, 6104.000
1456.398, 6265.000
1457.441, 6256.000
1458.484, 6235.000
1459.527, 6191.000
1460.570, 6212.000
1461.613, 6119.000
1462.655, 6116.000
1463.698, 6172.000
1464.740, 6159.000
1465.782, 6079.000
1466.824, 6069.000
1467.866, 6258.000
1468.907, 6141.000
1469.948, 6153.000
1470.990, 6215.000
1472.031, 6079.000
1473.072, 6215.000
1474.112, 6199.288
1475.153, 6135.062
1476.194, 6253.000
1477.234, 6103.000
1478.274, 6083.000
1479.314, 6237.000
1480.354, 6027.000
1481.393, 6103.000
1482.433, 6066.839
1483.472, 6129.581
1484.511, 6165.410
1485.550, 6175.773
1486.589, 6084.398
1487.628, 6124.397
1488.666, 6111.746
1489.704, 6096.936
1490.743, 6155.426
1491.781, 6078.847
1492.819, 6136.172
1493.856, 6140.045
1494.894, 6168.382
1495.931, 6143.744
1496.968, 6135.468
1498.005, 6180.183
1499.042, 6195.557
1500.079, 6164.820
1501.115, 6194.710
1502.152, 6116.280
1503.188, 6132.902
1504.224, 6190.535
1505.260, 6162.461
1506.296, 6193.320
1507.331, 6201.732
1508.367, 6108.144
1509.402, 6140.573
1510.437, 6207.000
1511.472, 6120.000
1512.507, 6098.000
1513.541, 6063.000
1514.576, 6136.000
1515.610, 6124.000
1516.644, 6147.000
1517.678, 6190.000
1518.712, 6115.000
1519.746, 6240.000
1520.779, 6211.000
1521.813, 6103.000
1522.846, 6128.000
1523.879, 6161.000
1524.912, 6110.171
1525.944, 6171.000
1526.977, 6129.000
1528.009, 6069.795
1529.041, 6156.584
1530.073, 6207.327
1531.105, 6223.953
1532.137, 6104.763
1533.168, 6160.571
1534.200, 6146.022
1535.231, 6128.427
1536.262, 6208.400
1537.293, 6108.120
1538.324, 6186.217
1539.354, 6192.877
1540.385, 6231.996
1541.415, 6200.317
1542.445, 6190.291
1543.475, 6250.757
1544.505, 6271.938
1545.534, 6231.475
1546.564, 6271.687
1547.593, 6167.305
1548.622, 6189.500
1549.651, 6266.213
1550.680, 6228.488
1551.708, 6269.176
1552.737, 6279.776
1553.765, 6154.210
1554.793, 6265.004
1555.821, 6273.348
1556.849, 6176.502
1557.877, 6278.705
1558.904, 6196.014
1559.932, 6179.099
1560.959, 6211.644
1561.986, 6192.297
1563.013, 6254.347
1564.039, 6241.041
1565.066, 6296.946
1566.092, 6331.314
1567.119, 6345.316
1568.145, 6277.921
1569.170, 6315.620
1570.196, 6311.205
1571.222, 6305.063
1572.247, 6357.553
1573.272, 6301.989
1574.297, 6353.550
1575.322, 6362.349
1576.347, 6243.000
1577.372, 6324.000
##END=



