##NAMES=Magnesiochromite
##RRUFFID=R050399
##IDEAL CHEMISTRY=MgCr^3+^_2_O_4_
##LOCALITY=Troodos Mountains, Cyprus
##OWNER=RRUFF
##SOURCE=Andy McCarthy
##DESCRIPTION=Black grains
##STATUS=The identification of this mineral has been confirmed by X-ray diffraction and chemical analysis
##URL=rruff.info/R050399
##MEASURED CHEMISTRY=(Mg_0.68_Fe^2+^_0.32_)_Σ=1_(Cr_1.29_Al_0.64_Fe^3+^_0.07_)_Σ=2_O__4
##PIN_ID=M01485
##ORIENTATION=Laser parallel to a* (1 0 0). Fiducial mark perpendicular to laser is parallel to c [0 0 1]
127.7920, 10867.00
129.0260, 10645.00
130.2590, 10749.00
131.4920, 10434.00
132.7250, 10509.00
133.9580, 10546.00
135.1910, 10920.69
136.4230, 11675.00
137.6560, 11613.00
138.8880, 11538.00
140.1200, 11052.00
141.3520, 10964.00
142.5830, 10985.00
143.8150, 10963.00
145.0460, 11094.00
146.2770, 11065.82
147.5080, 11078.00
148.7390, 11062.00
149.9700, 11077.00
151.2000, 11010.00
152.4310, 11122.00
153.6610, 11003.77
154.8910, 11229.00
156.1210, 10842.00
157.3500, 10896.00
158.5800, 10848.00
159.8090, 10952.00
161.0380, 11214.00
162.2670, 11424.00
163.4960, 11428.21
164.7240, 11386.41
165.9530, 11429.00
167.1810, 11304.70
168.4090, 11060.00
169.6370, 11048.00
170.8650, 10776.00
172.0920, 10594.00
173.3200, 10679.00
174.5470, 10546.00
175.7740, 10676.00
177.0010, 10610.47
178.2280, 10603.15
179.4540, 10598.00
180.6810, 10571.00
181.9070, 10677.00
183.1330, 10642.00
184.3590, 10719.00
185.5850, 10816.42
186.8100, 10379.00
188.0350, 10903.00
189.2610, 10971.00
190.4860, 10731.00
191.7110, 10422.00
192.9350, 10424.00
194.1600, 10450.00
195.3840, 10228.00
196.6080, 10499.00
197.8320, 10445.15
199.0560, 10319.00
200.2800, 10516.00
201.5030, 10342.00
202.7270, 10221.00
203.9500, 10252.00
205.1730, 10153.00
206.3950, 10304.00
207.6180, 10124.00
208.8410, 10006.00
210.0630, 10285.00
211.2850, 10117.00
212.5070, 10122.00
213.7290, 10134.00
214.9500, 10111.00
216.1720, 10229.00
217.3930, 10206.00
218.6140, 10198.97
219.8350, 10066.00
221.0560, 10185.00
222.2770, 10049.00
223.4970, 10123.00
224.7170, 10027.00
225.9370, 10030.00
227.1570, 10025.00
228.3770, 9903.000
229.5970, 9930.000
230.8160, 9845.000
232.0350, 9869.000
233.2540, 9749.000
234.4730, 9795.000
235.6920, 9751.000
236.9110, 9883.000
238.1290, 9899.000
239.3470, 9644.000
240.5650, 9834.000
241.7830, 9593.000
243.0010, 9560.000
244.2180, 9541.000
245.4360, 9633.000
246.6530, 9532.000
247.8700, 9614.505
249.0870, 9553.972
250.3040, 9653.000
251.5200, 9500.000
252.7370, 9384.000
253.9530, 9458.000
255.1690, 9383.000
256.3850, 9429.000
257.6000, 9393.000
258.8160, 9409.000
260.0310, 9372.000
261.2460, 9462.000
262.4610, 9343.000
263.6760, 9342.000
264.8910, 9568.000
266.1050, 9510.000
267.3200, 9406.000
268.5340, 9310.944
269.7480, 9405.968
270.9620, 9440.823
272.1750, 9418.781
273.3890, 9169.243
274.6020, 9213.458
275.8150, 9139.963
277.0280, 9061.642
278.2410, 9147.195
279.4540, 8930.776
280.6660, 9013.766
281.8790, 8977.215
283.0910, 8933.000
284.3030, 8925.000
285.5140, 8862.000
286.7260, 8845.069
287.9380, 8807.717
289.1490, 8814.000
290.3600, 8733.000
291.5710, 8790.000
292.7820, 8752.000
293.9920, 8770.000
295.2030, 8632.000
296.4130, 8817.000
297.6230, 8614.000
298.8330, 8697.000
300.0430, 8499.000
301.2520, 8560.000
302.4620, 8457.000
303.6710, 8477.000
304.8800, 8583.000
306.0890, 8525.000
307.2980, 8599.000
308.5070, 8716.000
309.7150, 8445.000
310.9230, 8465.000
312.1310, 8581.000
313.3390, 8662.000
314.5470, 8573.000
315.7550, 8612.740
316.9620, 8590.462
318.1690, 8512.000
319.3760, 8597.000
320.5830, 8513.000
321.7900, 8623.000
322.9960, 8457.000
324.2030, 8589.000
325.4090, 8518.000
326.6150, 8572.000
327.8210, 8481.000
329.0270, 8570.000
330.2320, 8507.000
331.4380, 8536.743
332.6430, 8485.000
333.8480, 8578.000
335.0530, 8644.000
336.2580, 8645.000
337.4620, 8534.000
338.6670, 8547.000
339.8710, 8725.000
341.0750, 8580.000
342.2790, 8728.000
343.4820, 8627.000
344.6860, 8602.000
345.8890, 8645.000
347.0920, 8571.276
348.2960, 8609.000
349.4980, 8566.000
350.7010, 8573.000
351.9040, 8688.000
353.1060, 8714.276
354.3080, 8792.000
355.5100, 8892.000
356.7120, 8789.000
357.9140, 8877.000
359.1150, 8802.000
360.3170, 8877.000
361.5180, 8883.000
362.7190, 8776.000
363.9200, 8965.000
365.1200, 9005.000
366.3210, 8890.000
367.5210, 9007.000
368.7210, 9175.000
369.9210, 9017.000
371.1210, 9156.421
372.3210, 9087.000
373.5200, 9159.000
374.7200, 9333.000
375.9190, 9214.000
377.1180, 9214.000
378.3170, 9323.000
379.5150, 9376.000
380.7140, 9363.000
381.9120, 9303.000
383.1110, 9427.000
384.3090, 9493.000
385.5060, 9598.000
386.7040, 9506.000
387.9020, 9437.000
389.0990, 9716.000
390.2960, 9562.000
391.4930, 9457.000
392.6900, 9619.000
393.8860, 9559.860
395.0830, 9632.083
396.2790, 9711.000
397.4750, 9743.000
398.6710, 9875.000
399.8670, 9882.000
401.0630, 9703.000
402.2580, 9852.000
403.4540, 9837.009
404.6490, 10061.00
405.8440, 9966.000
407.0390, 9928.000
408.2330, 9881.425
409.4280, 10018.89
410.6220, 10096.18
411.8160, 10116.54
413.0100, 9909.443
414.2040, 9996.061
415.3980, 9964.971
416.5910, 9929.054
417.7850, 10057.01
418.9780, 10107.00
420.1710, 10146.00
421.3640, 9973.000
422.5560, 10204.00
423.7490, 10104.00
424.9410, 10244.00
426.1330, 10268.00
427.3250, 10140.00
428.5170, 10292.00
429.7090, 10193.00
430.9000, 10231.00
432.0910, 10327.75
433.2820, 10267.46
434.4730, 10497.00
435.6640, 10328.00
436.8550, 10374.00
438.0450, 10561.00
439.2360, 10484.00
440.4260, 10541.00
441.6160, 10594.00
442.8060, 10693.00
443.9950, 10669.00
445.1850, 10592.00
446.3740, 10672.00
447.5630, 10733.74
448.7520, 10770.14
449.9410, 10973.16
451.1300, 11116.01
452.3180, 11201.87
453.5060, 11060.27
454.6950, 11212.44
455.8830, 11246.85
457.0700, 11276.38
458.2580, 11469.83
459.4450, 11361.26
460.6330, 11552.12
461.8200, 11623.42
463.0070, 11749.41
464.1940, 11756.97
465.3800, 11896.00
466.5670, 11853.00
467.7530, 11920.00
468.9390, 12087.00
470.1250, 12079.00
471.3110, 12181.00
472.4970, 12331.00
473.6820, 12366.00
474.8680, 12561.00
476.0530, 12655.00
477.2380, 12737.17
478.4230, 12870.00
479.6070, 12858.00
480.7920, 12953.00
481.9760, 12914.00
483.1600, 13100.00
484.3440, 12960.00
485.5280, 13217.00
486.7120, 12906.00
487.8950, 13144.52
489.0780, 13303.86
490.2620, 13403.04
491.4450, 13445.28
492.6270, 13260.03
493.8100, 13368.52
494.9920, 13359.29
496.1750, 13345.24
497.3570, 13495.05
498.5390, 13342.89
499.7210, 13490.10
500.9020, 13517.79
502.0840, 13600.19
503.2650, 13536.00
504.4460, 13624.00
505.6270, 13659.00
506.8080, 13763.95
507.9890, 13886.00
509.1690, 14058.00
510.3500, 14172.00
511.5300, 14470.00
512.7100, 14534.00
513.8900, 14774.00
515.0690, 15195.00
516.2490, 15313.00
517.4280, 15560.00
518.6070, 15858.00
519.7860, 16088.00
520.9650, 16397.00
522.1440, 16662.00
523.3220, 17016.00
524.5010, 17362.00
525.6790, 17752.00
526.8570, 17886.00
528.0350, 18318.00
529.2130, 18170.00
530.3900, 18759.00
531.5670, 18928.00
532.7450, 19505.00
533.9220, 19623.00
535.0980, 20228.00
536.2750, 20369.00
537.4520, 20862.00
538.6280, 21297.00
539.8040, 21984.00
540.9800, 22574.00
542.1560, 22980.00
543.3320, 23525.00
544.5070, 24250.00
545.6830, 25027.00
546.8580, 25688.00
548.0330, 26445.00
549.2080, 26976.59
550.3830, 27473.00
551.5570, 27957.00
552.7310, 28250.00
553.9060, 28628.00
555.0800, 29371.00
556.2540, 29676.74
557.4270, 29845.00
558.6010, 30346.00
559.7740, 30454.00
560.9470, 30222.00
562.1210, 30495.00
563.2930, 30869.00
564.4660, 30587.00
565.6390, 30947.00
566.8110, 31123.00
567.9830, 30942.00
569.1550, 31114.00
570.3270, 31261.00
571.4990, 31461.00
572.6710, 31670.00
573.8420, 31680.00
575.0130, 31714.00
576.1840, 31552.00
577.3550, 31610.00
578.5260, 31326.00
579.6970, 31347.00
580.8670, 31328.00
582.0370, 31260.00
583.2070, 30911.00
584.3770, 30457.00
585.5470, 30189.00
586.7170, 29819.00
587.8860, 29588.00
589.0550, 29358.00
590.2240, 28733.00
591.3930, 28143.00
592.5620, 27800.00
593.7310, 27330.00
594.8990, 26937.00
596.0670, 26688.00
597.2350, 26604.00
598.4030, 26088.00
599.5710, 26201.00
600.7390, 25789.00
601.9060, 25622.00
603.0740, 25334.00
604.2410, 25316.00
605.4080, 24872.00
606.5740, 24690.00
607.7410, 24540.00
608.9080, 24142.38
610.0740, 23906.00
611.2400, 23494.00
612.4060, 23164.00
613.5720, 22846.00
614.7370, 22305.00
615.9030, 21799.00
617.0680, 21567.00
618.2330, 21077.00
619.3980, 20607.00
620.5630, 20265.00
621.7280, 19844.00
622.8920, 19479.00
624.0570, 18829.00
625.2210, 18211.00
626.3850, 18128.00
627.5490, 17620.00
628.7120, 17333.00
629.8760, 17017.00
631.0390, 16965.00
632.2020, 16715.00
633.3650, 16703.00
634.5280, 16831.00
635.6910, 16848.21
636.8530, 17142.00
638.0160, 17267.00
639.1780, 17728.00
640.3400, 18209.00
641.5020, 18683.00
642.6640, 19257.00
643.8250, 19813.00
644.9870, 20322.00
646.1480, 21080.00
647.3090, 21466.40
648.4700, 21829.00
649.6300, 22388.00
650.7910, 22464.00
651.9510, 22951.00
653.1120, 23283.00
654.2720, 23523.03
655.4320, 23873.47
656.5910, 24109.72
657.7510, 24235.31
658.9100, 24079.53
660.0690, 24163.67
661.2290, 24076.22
662.3880, 23930.18
663.5460, 23894.37
664.7050, 24109.00
665.8630, 23836.00
667.0220, 24156.00
668.1800, 24131.00
669.3380, 24235.00
670.4950, 24510.00
671.6530, 24531.00
672.8100, 24923.00
673.9680, 25377.00
675.1250, 25318.00
676.2820, 26195.00
677.4390, 26582.00
678.5950, 27013.00
679.7520, 27499.00
680.9080, 28063.00
682.0640, 28592.00
683.2200, 29236.00
684.3760, 29956.00
685.5320, 30512.00
686.6870, 31232.57
687.8420, 32149.00
688.9980, 32751.00
690.1530, 33439.00
691.3070, 34515.00
692.4620, 35545.00
693.6170, 36189.00
694.7710, 36908.00
695.9250, 37723.00
697.0790, 38273.72
698.2330, 38653.87
699.3870, 38904.43
700.5400, 39028.53
701.6940, 38855.87
702.8470, 38907.54
704.0000, 38772.18
705.1530, 38362.31
706.3050, 37899.09
707.4580, 37063.02
708.6100, 36376.40
709.7630, 35532.00
710.9150, 34719.00
712.0660, 33767.00
713.2180, 32527.00
714.3700, 31821.00
715.5210, 30762.00
716.6720, 29894.00
717.8240, 28720.00
718.9740, 27673.00
720.1250, 26851.00
721.2760, 25781.00
722.4260, 24834.00
723.5770, 23964.00
724.7270, 23146.00
725.8770, 22576.00
727.0260, 21758.00
728.1760, 21022.00
729.3250, 20383.00
730.4750, 19585.00
731.6240, 19023.00
732.7730, 18458.00
733.9220, 18176.00
735.0700, 17506.00
736.2190, 17125.00
737.3670, 16684.00
738.5150, 16324.00
739.6630, 16063.00
740.8110, 15611.00
741.9590, 15171.00
743.1060, 14914.00
744.2540, 14635.00
745.4010, 14155.00
746.5480, 14020.00
747.6950, 13675.00
748.8410, 13618.00
749.9880, 13130.00
751.1340, 12950.00
752.2800, 12776.00
753.4260, 12586.00
754.5720, 12429.46
755.7180, 12252.46
756.8640, 12107.00
758.0090, 11937.00
759.1540, 11762.00
760.2990, 11649.00
761.4440, 11426.00
762.5890, 11118.00
763.7340, 11050.00
764.8780, 10786.00
766.0220, 10900.00
767.1660, 10559.00
768.3100, 10542.00
769.4540, 10382.00
770.5980, 10419.00
771.7410, 10323.00
772.8840, 10248.00
774.0280, 10098.00
775.1700, 9973.000
776.3130, 9978.000
777.4560, 9860.000
778.5980, 9856.000
779.7410, 9791.541
780.8830, 9794.000
782.0250, 9665.000
783.1670, 9541.000
784.3080, 9443.000
785.4500, 9335.081
786.5910, 9258.179
787.7320, 9183.000
788.8730, 9131.000
790.0140, 9138.000
791.1550, 9105.000
792.2950, 8989.000
793.4360, 9035.000
794.5760, 8855.000
795.7160, 9022.000
796.8560, 8866.000
797.9960, 8744.000
799.1350, 8663.000
800.2750, 8764.000
801.4140, 8676.000
802.5530, 8686.000
803.6920, 8692.000
804.8310, 8565.000
805.9690, 8504.000
807.1080, 8515.000
808.2460, 8562.000
809.3840, 8541.000
810.5220, 8472.000
811.6600, 8471.828
812.7970, 8390.000
813.9350, 8418.000
815.0720, 8245.000
816.2090, 8254.000
817.3460, 8237.000
818.4830, 8259.000
819.6200, 8182.000
820.7560, 8171.000
821.8930, 8202.000
823.0290, 8069.000
824.1650, 8125.000
825.3010, 8189.000
826.4360, 7979.000
827.5720, 8172.000
828.7070, 8189.000
829.8420, 7997.000
830.9770, 8106.000
832.1120, 7927.000
833.2470, 7985.000
834.3820, 7915.000
835.5160, 7855.000
836.6500, 7661.617
837.7840, 7872.515
838.9180, 7993.163
840.0520, 8028.409
841.1860, 7722.467
842.3190, 7857.095
843.4520, 7815.161
844.5850, 7765.986
845.7180, 7962.623
846.8510, 7706.302
847.9840, 7899.040
849.1160, 7912.518
850.2490, 8008.042
851.3810, 7832.000
852.5130, 7901.000
853.6450, 7911.367
854.7760, 7701.000
855.9080, 7875.000
857.0390, 7587.561
858.1700, 7773.401
859.3010, 7868.990
860.4320, 7879.178
861.5630, 7548.179
862.6930, 7657.771
863.8240, 7590.783
864.9540, 7516.573
866.0840, 7688.174
867.2140, 7406.818
868.3440, 7574.521
869.4730, 7562.986
870.6030, 7633.474
871.7320, 7526.329
872.8610, 7514.000
873.9900, 7558.000
875.1190, 7540.000
876.2470, 7495.000
877.3760, 7630.000
878.5040, 7567.000
879.6320, 7459.000
880.7600, 7412.000
881.8880, 7491.000
883.0150, 7450.000
884.1430, 7513.000
885.2700, 7483.000
886.3970, 7436.000
887.5240, 7436.000
888.6510, 7227.000
889.7780, 7277.000
890.9040, 7383.000
892.0310, 7558.000
893.1570, 7449.000
894.2830, 7529.000
895.4090, 7295.235
896.5350, 7482.060
897.6600, 7578.650
898.7860, 7589.822
899.9110, 7259.823
901.0360, 7370.398
902.1610, 7304.411
903.2860, 7231.185
904.4100, 7403.786
905.5350, 7265.000
906.6590, 7312.000
907.7830, 7339.000
908.9070, 7340.000
910.0310, 7241.000
911.1540, 7206.000
912.2780, 7252.000
913.4010, 7155.000
914.5240, 7224.000
915.6470, 7340.000
916.7700, 7223.000
917.8930, 7316.000
919.0150, 7230.000
920.1380, 7358.000
921.2600, 7220.000
922.3820, 7221.000
923.5040, 7237.000
924.6260, 7219.709
925.7470, 7266.504
926.8690, 7255.000
927.9900, 7264.000
929.1110, 7217.000
930.2320, 7211.271
931.3530, 7196.000
932.4730, 7036.245
933.5940, 7177.837
934.7140, 7259.258
935.8340, 7283.746
936.9540, 7080.774
938.0740, 7171.518
939.1930, 7144.551
940.3130, 7112.760
941.4320, 7244.840
942.5510, 7074.948
943.6700, 7204.429
944.7890, 7214.406
945.9080, 7279.078
947.0260, 7225.310
948.1450, 7138.000
949.2630, 7161.000
950.3810, 7202.000
951.4990, 7206.000
952.6170, 7328.000
953.7340, 7254.053
954.8520, 7587.000
955.9690, 7179.000
957.0860, 7085.000
958.2030, 7108.000
959.3200, 7302.000
960.4360, 7139.000
961.5530, 7038.000
962.6690, 7224.000
963.7850, 7244.000
964.9010, 7260.058
966.0170, 7332.000
967.1330, 7290.000
968.2480, 7323.790
969.3630, 7280.000
970.4790, 7155.000
971.5940, 7122.000
972.7080, 7116.000
973.8230, 7100.000
974.9380, 7101.060
976.0520, 7118.594
977.1660, 7104.000
978.2800, 7184.000
979.3940, 7166.833
980.5080, 7230.000
981.6220, 7230.000
982.7350, 7139.000
983.8480, 7174.000
984.9610, 7223.000
986.0740, 7171.000
987.1870, 7204.000
988.3000, 7161.000
989.4120, 7169.000
990.5250, 7314.000
991.6370, 7263.000
992.7490, 7301.000
993.8610, 7181.000
994.9720, 7308.000
996.0840, 7270.589
997.1950, 7290.580
998.3060, 7239.000
999.4170, 7368.000
1000.528, 7244.000
1001.639, 7316.000
1002.750, 7295.000
1003.860, 7152.000
1004.970, 7399.000
1006.080, 7502.000
1007.190, 7166.000
1008.300, 7227.000
1009.410, 7298.000
1010.519, 7203.000
1011.628, 7310.000
1012.738, 7371.000
1013.846, 7308.000
1014.955, 7422.000
1016.064, 7310.000
1017.172, 7364.000
1018.281, 7228.000
1019.389, 7134.000
1020.497, 7313.000
1021.605, 7242.253
1022.713, 7316.582
1023.820, 7239.000
1024.928, 7462.000
1026.035, 7266.000
1027.142, 7373.000
1028.249, 7448.000
1029.356, 7356.000
1030.462, 7279.000
1031.569, 7321.000
1032.675, 7366.000
1033.781, 7458.000
1034.887, 7454.000
1035.993, 7495.000
1037.098, 7499.000
1038.204, 7502.387
1039.309, 7507.857
1040.415, 7524.000
1041.520, 7538.841
1042.624, 7558.590
1043.729, 7580.580
1044.834, 7581.000
1045.938, 7601.000
1047.042, 7608.705
1048.146, 7559.000
1049.250, 7614.000
1050.354, 7554.000
1051.458, 7525.000
1052.561, 7661.000
1053.664, 7568.000
1054.767, 7545.000
1055.870, 7537.000
1056.973, 7794.000
1058.076, 7510.000
1059.178, 7669.000
1060.281, 7684.000
1061.383, 7605.437
1062.485, 7670.190
1063.587, 7593.000
1064.688, 7636.000
1065.790, 7669.000
1066.891, 7632.000
1067.993, 7778.000
1069.094, 7857.000
1070.195, 7837.000
1071.295, 7686.150
1072.396, 7853.149
1073.496, 7959.954
1074.597, 8009.854
1075.697, 7832.266
1076.797, 7948.394
1077.897, 7946.813
1078.996, 7940.380
1080.096, 8097.846
1081.195, 7953.315
1082.294, 8108.156
1083.393, 8143.494
1084.492, 8233.524
1085.591, 8205.121
1086.689, 7980.000
1087.788, 8091.000
1088.886, 8128.000
1089.984, 8094.000
1091.082, 8266.000
1092.180, 8039.000
1093.277, 8176.000
1094.375, 8254.000
1095.472, 8279.000
1096.569, 8293.000
1097.666, 8358.000
1098.763, 8346.000
1099.860, 8344.000
1100.956, 8369.000
1102.053, 8363.000
1103.149, 8397.749
1104.245, 8433.475
1105.341, 8455.000
1106.436, 8516.000
1107.532, 8526.000
1108.627, 8545.000
1109.723, 8615.000
1110.818, 8606.000
1111.913, 8662.981
1113.007, 8702.243
1114.102, 8730.000
1115.197, 8780.000
1116.291, 8773.000
1117.385, 8788.000
1118.479, 8840.000
1119.573, 9006.000
1120.666, 8910.000
1121.760, 9068.000
1122.853, 9035.000
1123.947, 8942.000
1125.040, 9060.000
1126.132, 8997.000
1127.225, 8974.000
1128.318, 9039.000
1129.410, 9043.000
1130.502, 8952.000
1131.595, 8993.000
1132.687, 8984.888
1133.778, 8983.484
1134.870, 8998.000
1135.961, 9043.000
1137.053, 8996.000
1138.144, 9066.000
1139.235, 9254.000
1140.326, 8904.000
1141.416, 8879.000
1142.507, 9089.000
1143.597, 9067.000
1144.688, 9069.000
1145.778, 9146.000
1146.868, 9068.000
1147.957, 9084.000
1149.047, 9188.000
1150.136, 9037.000
1151.226, 9020.000
1152.315, 9166.000
1153.404, 9183.000
1154.493, 8981.000
1155.581, 9037.062
1156.670, 9357.000
1157.758, 8944.000
1158.846, 8986.000
1159.934, 9019.000
1161.022, 9402.000
1162.110, 8907.000
1163.198, 9051.000
1164.285, 8979.000
1165.372, 9122.000
1166.459, 9146.000
1167.546, 9066.000
1168.633, 8859.000
1169.720, 8988.000
1170.806, 8839.000
1171.892, 8864.000
1172.979, 9008.000
1174.065, 8989.000
1175.150, 9000.000
1176.236, 8922.000
1177.322, 8957.000
1178.407, 8853.000
1179.492, 8826.000
1180.577, 8862.000
1181.662, 8738.000
1182.747, 8857.000
1183.832, 8786.000
1184.916, 8814.000
1186.000, 8792.000
1187.084, 8845.000
1188.168, 8816.416
1189.252, 8845.000
1190.336, 8782.000
1191.419, 8662.000
1192.503, 8641.000
1193.586, 8635.967
1194.669, 8598.000
1195.752, 8732.000
1196.835, 8755.000
1197.917, 8892.000
1199.000, 8798.000
1200.082, 8813.305
1201.164, 8672.000
1202.246, 8707.000
1203.328, 8648.000
1204.409, 8570.000
1205.491, 8678.000
1206.572, 8498.000
1207.653, 8547.000
1208.734, 8473.000
1209.815, 8530.000
1210.896, 8517.000
1211.976, 8655.000
1213.057, 8548.000
1214.137, 8619.000
1215.217, 8608.552
1216.297, 8534.000
1217.377, 8559.000
1218.456, 8460.000
1219.536, 8382.000
1220.615, 8373.000
1221.694, 8421.000
1222.773, 8441.000
1223.852, 8508.000
1224.931, 8578.000
1226.009, 8356.000
1227.088, 8423.000
1228.166, 8337.000
1229.244, 8365.000
1230.322, 8292.000
1231.400, 8384.000
1232.477, 8310.000
1233.555, 8512.000
1234.632, 8314.000
1235.709, 8527.000
1236.786, 8544.000
1237.863, 8341.000
1238.939, 8347.000
1240.016, 8309.000
1241.092, 8384.000
1242.168, 8330.000
1243.245, 8247.000
1244.320, 8425.000
1245.396, 8332.000
1246.472, 8266.000
1247.547, 8454.000
1248.622, 8245.000
1249.697, 8344.000
1250.772, 8410.000
1251.847, 8353.000
1252.922, 8384.000
1253.996, 8396.475
1255.071, 8265.000
1256.145, 8448.000
1257.219, 8329.000
1258.293, 8399.000
1259.366, 8396.000
1260.440, 8355.000
1261.513, 8392.000
1262.587, 8332.000
1263.660, 8341.091
1264.733, 8292.000
1265.805, 8304.096
1266.878, 8278.000
1267.951, 8197.000
1269.023, 8214.000
1270.095, 8216.000
1271.167, 8121.000
1272.239, 8309.000
1273.311, 8345.000
1274.382, 8312.000
1275.454, 8294.000
1276.525, 8316.000
1277.596, 8274.000
1278.667, 8247.225
1279.738, 8091.000
1280.808, 8192.000
1281.879, 8237.000
1282.949, 8284.000
1284.019, 8091.000
1285.089, 8246.000
1286.159, 8431.000
1287.229, 8222.000
1288.298, 8521.000
1289.368, 8384.000
1290.437, 8211.000
1291.506, 8361.000
1292.575, 8237.329
1293.644, 8262.000
1294.712, 8168.000
1295.781, 8226.000
1296.849, 8091.000
1297.917, 8180.000
1298.985, 8392.000
1300.053, 8235.000
1301.121, 8374.000
1302.188, 8193.000
1303.255, 8213.000
1304.323, 8280.000
1305.390, 8327.000
1306.457, 8236.000
1307.523, 8313.000
1308.590, 8224.000
1309.656, 8251.000
1310.723, 8329.000
1311.789, 8150.000
1312.855, 8181.000
1313.921, 8312.000
1314.986, 8010.000
1316.052, 8125.000
1317.117, 8203.000
1318.182, 8067.000
1319.248, 8163.000
1320.312, 8177.000
1321.377, 8129.000
1322.442, 8084.000
1323.506, 7937.000
1324.571, 7960.000
1325.635, 7883.000
1326.699, 7947.000
1327.762, 7951.000
1328.826, 7955.000
1329.890, 7876.000
1330.953, 7905.000
1332.016, 7803.000
1333.079, 7804.000
1334.142, 7897.000
1335.205, 8004.000
1336.268, 7833.000
1337.330, 7874.000
1338.392, 7997.000
1339.454, 7762.000
1340.516, 7699.000
1341.578, 7845.000
1342.640, 7748.000
1343.701, 7701.000
1344.763, 7971.000
1345.824, 7798.000
1346.885, 7677.030
1347.946, 7804.913
1349.007, 7872.630
1350.067, 7883.420
1351.128, 7666.743
1352.188, 7743.792
1353.248, 7703.131
1354.308, 7657.645
1355.368, 7776.032
1356.428, 7592.448
1357.487, 7708.245
1358.547, 7704.530
1359.606, 7755.518
1360.665, 7688.069
1361.724, 7657.203
1362.783, 7744.810
1363.841, 7766.826
1364.900, 7685.744
1365.958, 7740.218
1367.016, 7552.515
1368.074, 7695.000
1369.132, 7694.000
1370.190, 7705.000
1371.247, 7706.000
1372.304, 7829.000
1373.362, 7774.000
1374.419, 8065.000
1375.476, 7848.000
1376.532, 7880.000
1377.589, 7752.000
1378.645, 7633.000
1379.702, 7701.000
1380.758, 7666.000
1381.814, 7705.000
1382.870, 7735.000
1383.925, 7733.593
1384.981, 7713.000
1386.036, 7770.000
1387.092, 7658.000
1388.147, 7680.000
1389.202, 7759.000
1390.256, 7589.000
1391.311, 7763.000
1392.365, 7649.000
1393.420, 7734.000
1394.474, 7818.713
1395.528, 7735.000
1396.582, 7951.000
1397.636, 7782.000
1398.689, 7735.000
1399.742, 7644.000
1400.796, 7524.000
1401.849, 7481.000
1402.902, 7476.398
1403.955, 7696.000
1405.007, 7530.000
1406.060, 7617.000
1407.112, 7640.000
1408.164, 7567.000
1409.216, 7498.000
1410.268, 7519.884
1411.320, 7458.000
1412.371, 7428.000
1413.423, 7611.000
1414.474, 7369.000
1415.525, 7453.000
1416.576, 7445.000
1417.627, 7334.000
1418.678, 7411.000
1419.728, 7464.000
1420.778, 7352.000
1421.829, 7474.000
1422.879, 7404.579
1423.928, 7321.093
1424.978, 7412.000
1426.028, 7243.000
1427.077, 7390.000
1428.126, 7643.000
1429.176, 7520.000
1430.225, 7300.000
1431.273, 7136.000
1432.322, 7264.000
1433.371, 7305.000
1434.419, 7292.295
1435.467, 7383.000
1436.515, 7349.000
1437.563, 7141.000
1438.611, 7122.000
1439.658, 7180.000
1440.706, 6989.000
1441.753, 7072.000
1442.800, 7228.000
1443.847, 6992.000
1444.894, 7044.000
1445.941, 7078.000
1446.987, 7036.000
1448.034, 6998.000
1449.080, 7157.000
1450.126, 7040.000
1451.172, 6996.000
1452.218, 6915.000
1453.263, 7053.000
1454.309, 7076.000
1455.354, 7009.000
1456.399, 6985.000
1457.444, 6958.204
1458.489, 6912.855
1459.534, 6898.000
1460.579, 6859.000
1461.623, 6853.000
1462.667, 6862.000
1463.711, 6778.000
1464.755, 6862.000
1465.799, 6814.000
1466.843, 6879.000
1467.886, 6947.000
1468.930, 7100.000
1469.973, 6846.000
1471.016, 6942.000
1472.059, 6860.848
1473.101, 6941.000
1474.144, 6801.000
1475.186, 6687.000
1476.229, 6805.000
1477.271, 6614.306
1478.313, 6736.732
1479.355, 6798.990
1480.396, 6804.329
1481.438, 6582.194
1482.479, 6653.789
1483.520, 6607.677
1484.561, 6556.737
1485.602, 6669.671
1486.643, 6480.636
1487.684, 6466.000
1488.724, 6534.000
1489.765, 6472.000
1490.805, 6459.000
1491.845, 6572.000
1492.885, 6451.000
1493.924, 6478.000
1494.964, 6439.000
1496.003, 6459.000
1497.042, 6528.000
1498.082, 6366.000
1499.120, 6203.000
1500.159, 6488.000
1501.198, 6319.000
1502.236, 6401.000
1503.275, 6568.000
1504.313, 6447.000
1505.351, 6486.000
1506.389, 6388.000
1507.427, 6211.000
1508.464, 6246.000
1509.502, 6276.000
1510.539, 6204.000
1511.576, 6283.000
1512.613, 6256.000
1513.650, 6291.000
1514.687, 6278.000
1515.723, 6210.000
1516.759, 6268.000
1517.796, 6334.000
1518.832, 6254.000
1519.868, 6348.000
1520.903, 6152.201
1521.939, 6278.717
1522.975, 6345.066
1524.010, 6354.491
1525.045, 6136.458
1526.080, 6212.141
1527.115, 6170.114
1528.150, 6123.261
1529.184, 6240.294
1530.219, 6055.343
1531.253, 6169.775
1532.287, 6164.705
1533.321, 6214.327
1534.355, 6145.516
1535.388, 6113.295
1536.422, 6199.536
1537.455, 6220.189
1538.488, 6137.752
1539.522, 6124.000
1540.554, 6130.129
1541.587, 6114.559
1542.620, 6186.000
1543.652, 6111.000
1544.685, 6064.000
1545.717, 6097.000
1546.749, 6174.000
1547.781, 6192.000
1548.812, 6254.000
1549.844, 6295.000
1550.875, 6341.000
1551.906, 6660.000
1552.938, 6654.000
1553.968, 7044.000
1554.999, 6856.000
1556.030, 6380.000
1557.060, 6029.000
1558.091, 6109.000
1559.121, 6074.000
1560.151, 6073.000
1561.181, 6157.000
1562.211, 6073.000
1563.240, 6015.000
1564.270, 6172.000
1565.299, 6010.000
1566.328, 6137.000
1567.357, 6021.000
1568.386, 6116.000
1569.415, 6091.000
1570.443, 6124.000
1571.472, 6059.000
1572.500, 5992.000
1573.528, 6015.000
1574.556, 5932.000
1575.584, 5982.000
1576.611, 6043.000
1577.639, 6036.000
##END=



