##NAMES=Magnesio-hastingsite
##RRUFFID=R040010
##IDEAL CHEMISTRY=NaCa_2_(Mg_4_Fe^3+^)Si_6_Al_2_O_22_(OH)_2_
##LOCALITY=Amity, New York, USA
##OWNER=RRUFF
##SOURCE=University of Arizona Mineral Museum
##DESCRIPTION=Group of black prismatic crystals
##STATUS=The identification of this mineral has been confirmed by X-ray diffraction and chemical analysis
##URL=rruff.info/R040010
##MEASURED CHEMISTRY=(Na_0.50_K_0.43_[box]_0.07_)_Σ=1_(Ca_1.77_Na_0.23_)_Σ=2_(Mg_1.74_Fe_1.22_Fe^3+^_0.79_Mn_0.57_Al_0.30_Zn_0.25_Ti_0.13_)_Σ=5_(Si_5.95_Al_2.05_)_Σ=8_O_22_((OH)_1.75_F_0.22_Cl_0.03_)_Σ=2_; OH estimated by charge balance
##PIN_ID=L00374
##ORIENTATION=Laser parallel to a [1 0 0]. Fiducial mark perpendicular to laser is parallel to -b* (0 -1 0)
168.3130, 35936.00
169.5440, 36466.00
170.7750, 36168.00
172.0050, 36220.00
173.2350, 35915.00
174.4650, 36110.00
175.6950, 36320.00
176.9250, 36421.00
178.1550, 36670.00
179.3840, 36636.00
180.6130, 36854.00
181.8420, 36930.00
183.0710, 36832.00
184.3000, 37327.00
185.5280, 37326.95
186.7570, 37909.00
187.9850, 37628.00
189.2130, 37519.00
190.4400, 37546.00
191.6680, 37683.00
192.8960, 37752.00
194.1230, 37743.00
195.3500, 37960.00
196.5770, 38046.00
197.8030, 38133.00
199.0300, 38305.00
200.2560, 39222.00
201.4830, 39142.00
202.7090, 39021.00
203.9340, 37853.00
205.1600, 36426.00
206.3860, 36058.00
207.6110, 36083.00
208.8360, 36128.00
210.0610, 36535.00
211.2860, 36630.00
212.5100, 37231.00
213.7350, 37756.00
214.9590, 37811.00
216.1830, 38159.00
217.4070, 38659.00
218.6310, 38911.00
219.8540, 39147.00
221.0780, 39713.00
222.3010, 39826.00
223.5240, 39948.00
224.7470, 40054.00
225.9690, 39984.00
227.1920, 40192.00
228.4140, 39938.00
229.6360, 40119.00
230.8580, 39727.00
232.0800, 39456.00
233.3020, 39250.00
234.5230, 39189.00
235.7440, 38868.00
236.9650, 38902.00
238.1860, 38941.00
239.4070, 38577.00
240.6280, 38368.00
241.8480, 38146.00
243.0680, 37998.00
244.2880, 37838.00
245.5080, 37679.00
246.7280, 37507.00
247.9470, 37502.00
249.1660, 37413.68
250.3860, 37270.07
251.6040, 37481.21
252.8230, 37607.30
254.0420, 37652.91
255.2600, 37376.95
256.4790, 37516.23
257.6970, 37489.09
258.9150, 37455.12
260.1320, 37652.81
261.3500, 37423.62
262.5670, 37617.64
263.7840, 37642.71
265.0010, 37745.11
266.2180, 37680.08
267.4350, 37682.00
268.6510, 37712.00
269.8680, 37695.00
271.0840, 37765.00
272.3000, 38028.00
273.5160, 37908.00
274.7310, 38426.00
275.9470, 38529.00
277.1620, 38578.00
278.3770, 39071.00
279.5920, 39132.00
280.8070, 39098.00
282.0210, 39432.00
283.2360, 39473.00
284.4500, 39930.00
285.6640, 40062.00
286.8780, 40179.00
288.0920, 40385.00
289.3050, 40631.00
290.5180, 40800.00
291.7320, 40795.00
292.9450, 41018.00
294.1570, 41096.00
295.3700, 40964.00
296.5830, 40845.00
297.7950, 40788.00
299.0070, 40949.00
300.2190, 40943.00
301.4310, 40831.00
302.6420, 40609.00
303.8540, 40363.00
305.0650, 40498.00
306.2760, 40342.00
307.4870, 40228.00
308.6980, 40199.00
309.9080, 40349.00
311.1190, 40072.00
312.3290, 40343.00
313.5390, 40584.00
314.7490, 39989.00
315.9580, 40021.00
317.1680, 39692.00
318.3770, 39701.00
319.5860, 39465.00
320.7950, 39601.00
322.0040, 39472.00
323.2130, 39483.00
324.4210, 39382.00
325.6290, 39315.00
326.8380, 39403.00
328.0460, 39347.15
329.2530, 39090.00
330.4610, 39315.00
331.6680, 39401.00
332.8760, 39261.00
334.0830, 39508.00
335.2890, 39449.00
336.4960, 39285.00
337.7030, 39013.00
338.9090, 39391.00
340.1150, 39397.00
341.3210, 39308.00
342.5270, 39193.00
343.7330, 39443.00
344.9380, 39348.00
346.1440, 39690.00
347.3490, 39435.00
348.5540, 39316.00
349.7590, 39349.00
350.9630, 39287.00
352.1680, 39474.00
353.3720, 39712.00
354.5760, 39543.00
355.7800, 39810.00
356.9840, 40174.00
358.1870, 40002.00
359.3910, 40093.42
360.5940, 39989.00
361.7970, 40016.00
363.0000, 40326.00
364.2030, 40624.00
365.4050, 40551.00
366.6080, 40976.00
367.8100, 41003.00
369.0120, 41388.00
370.2140, 41466.50
371.4150, 41685.00
372.6170, 41719.00
373.8180, 41738.00
375.0190, 42036.00
376.2200, 42233.00
377.4210, 42265.00
378.6220, 42274.00
379.8220, 42684.00
381.0230, 42839.00
382.2230, 42786.00
383.4230, 42847.00
384.6220, 42984.00
385.8220, 42993.00
387.0220, 43673.00
388.2210, 43566.00
389.4200, 43158.00
390.6190, 44133.00
391.8180, 42757.00
393.0160, 42644.00
394.2150, 42662.00
395.4130, 42689.00
396.6110, 42228.00
397.8090, 42224.00
399.0060, 42513.00
400.2040, 42311.00
401.4010, 42597.00
402.5980, 42423.00
403.7950, 42375.00
404.9920, 42683.00
406.1890, 42487.71
407.3860, 42562.00
408.5820, 42469.00
409.7780, 42457.00
410.9740, 42582.00
412.1700, 42415.00
413.3650, 42469.00
414.5610, 42573.00
415.7560, 42635.00
416.9510, 42977.00
418.1460, 43285.00
419.3410, 43850.00
420.5360, 43749.27
421.7300, 43398.00
422.9240, 43743.00
424.1180, 44106.00
425.3120, 44420.00
426.5060, 44643.00
427.7000, 44953.00
428.8930, 45188.00
430.0860, 45286.00
431.2790, 45248.00
432.4720, 45266.00
433.6650, 45334.00
434.8580, 45350.00
436.0500, 45474.00
437.2420, 45311.31
438.4340, 44769.00
439.6260, 44909.00
440.8180, 44830.00
442.0090, 44471.00
443.2010, 44847.00
444.3920, 44316.00
445.5830, 43821.00
446.7740, 43768.00
447.9640, 43494.00
449.1550, 43324.00
450.3450, 43369.00
451.5350, 42862.00
452.7250, 43197.00
453.9150, 42705.00
455.1050, 42867.00
456.2940, 42459.00
457.4830, 42482.00
458.6720, 42108.00
459.8610, 42094.00
461.0500, 42016.00
462.2390, 42053.00
463.4270, 41827.00
464.6150, 41750.00
465.8040, 41854.00
466.9910, 41684.00
468.1790, 41798.00
469.3670, 41287.00
470.5540, 41252.00
471.7410, 41524.00
472.9280, 41845.00
474.1150, 41589.00
475.3020, 41888.00
476.4890, 41802.00
477.6750, 41645.00
478.8610, 42107.00
480.0470, 42046.00
481.2330, 42329.00
482.4190, 42347.00
483.6040, 42520.00
484.7900, 42842.00
485.9750, 42808.00
487.1600, 43007.00
488.3450, 42926.00
489.5290, 43178.00
490.7140, 43548.00
491.8980, 43658.00
493.0820, 43968.00
494.2660, 44357.00
495.4500, 44509.00
496.6340, 44892.00
497.8170, 45080.00
499.0010, 45316.00
500.1840, 45761.00
501.3670, 45643.00
502.5500, 46020.00
503.7320, 46363.00
504.9150, 46608.00
506.0970, 46984.00
507.2790, 47293.00
508.4610, 47541.00
509.6430, 48095.00
510.8250, 47775.00
512.0060, 48088.00
513.1870, 47857.00
514.3680, 48167.00
515.5490, 48236.00
516.7300, 48665.00
517.9110, 48786.00
519.0910, 49367.00
520.2710, 49094.00
521.4510, 49686.00
522.6310, 49801.00
523.8110, 50103.00
524.9910, 49978.00
526.1700, 50359.00
527.3490, 50630.00
528.5280, 50886.00
529.7070, 51203.00
530.8860, 51069.00
532.0650, 51238.81
533.2430, 51640.00
534.4210, 51282.00
535.5990, 51166.00
536.7770, 51250.00
537.9550, 50870.00
539.1320, 50861.00
540.3100, 50521.00
541.4870, 50598.00
542.6640, 50309.83
543.8410, 50154.00
545.0170, 49726.00
546.1940, 49719.00
547.3700, 49214.00
548.5470, 49062.00
549.7230, 48820.00
550.8980, 48698.00
552.0740, 48766.00
553.2500, 48522.00
554.4250, 48204.00
555.6000, 48212.00
556.7750, 47854.00
557.9500, 47763.00
559.1250, 47799.00
560.2990, 47233.00
561.4730, 47388.00
562.6480, 47172.00
563.8220, 46825.00
564.9950, 47069.00
566.1690, 46603.00
567.3430, 46453.00
568.5160, 46482.00
569.6890, 46203.00
570.8620, 46056.00
572.0350, 45812.00
573.2070, 45448.65
574.3800, 45440.00
575.5520, 44809.00
576.7240, 44817.00
577.8960, 44799.00
579.0680, 44470.61
580.2400, 44675.00
581.4110, 44135.00
582.5830, 43787.00
583.7540, 43603.00
584.9250, 43388.00
586.0950, 43034.00
587.2660, 43163.00
588.4370, 43016.00
589.6070, 43205.00
590.7770, 42681.00
591.9470, 42810.00
593.1170, 42668.00
594.2860, 42322.00
595.4560, 42412.00
596.6250, 42486.00
597.7940, 42412.00
598.9630, 42644.00
600.1320, 42452.00
601.3000, 42318.00
602.4690, 42575.00
603.6370, 42587.00
604.8050, 42462.00
605.9730, 42534.00
607.1410, 42309.00
608.3090, 42608.00
609.4760, 42475.00
610.6430, 42734.00
611.8100, 42477.00
612.9770, 42847.00
614.1440, 43006.57
615.3110, 42993.82
616.4770, 43401.00
617.6430, 43158.00
618.8090, 42990.00
619.9750, 43104.00
621.1410, 43062.27
622.3070, 43328.00
623.4720, 43371.00
624.6370, 43514.00
625.8020, 43889.00
626.9670, 43760.00
628.1320, 44065.00
629.2970, 44330.00
630.4610, 44589.00
631.6250, 45026.00
632.7890, 44701.00
633.9530, 45143.00
635.1170, 45066.00
636.2810, 45270.00
637.4440, 45449.00
638.6070, 45800.00
639.7700, 46091.00
640.9330, 46138.00
642.0960, 46269.00
643.2590, 46221.00
644.4210, 46566.00
645.5830, 46431.00
646.7450, 46484.00
647.9070, 46818.00
649.0690, 46968.00
650.2310, 47011.00
651.3920, 47128.00
652.5530, 47565.00
653.7140, 47755.00
654.8750, 48011.49
656.0360, 48313.00
657.1970, 48453.00
658.3570, 48737.00
659.5170, 48840.08
660.6770, 48763.00
661.8370, 48715.00
662.9970, 48851.00
664.1570, 48577.00
665.3160, 48739.00
666.4750, 48363.16
667.6340, 48160.00
668.7930, 47682.00
669.9520, 47663.00
671.1110, 47452.00
672.2690, 47125.00
673.4270, 46992.00
674.5850, 46674.00
675.7430, 46566.00
676.9010, 46242.00
678.0590, 46081.45
679.2160, 45991.96
680.3730, 45656.00
681.5300, 45825.00
682.6870, 45489.00
683.8440, 45331.00
685.0010, 45375.00
686.1570, 45025.00
687.3130, 45328.00
688.4690, 44928.00
689.6250, 44447.00
690.7810, 44705.00
691.9370, 44518.00
693.0920, 44347.00
694.2470, 44306.00
695.4020, 43975.00
696.5570, 44098.00
697.7120, 44157.00
698.8670, 44020.00
700.0210, 44344.00
701.1750, 44185.00
702.3290, 44355.00
703.4830, 44434.00
704.6370, 44418.00
705.7910, 44526.00
706.9440, 44426.00
708.0970, 44416.00
709.2510, 44665.37
710.4030, 45141.00
711.5560, 45146.00
712.7090, 45494.00
713.8610, 45668.00
715.0140, 45448.00
716.1660, 45905.00
717.3180, 46209.00
718.4690, 46426.00
719.6210, 46182.00
720.7730, 46719.00
721.9240, 46584.00
723.0750, 46918.00
724.2260, 46738.00
725.3770, 47361.00
726.5270, 47076.00
727.6780, 47210.00
728.8280, 47540.00
729.9780, 47346.00
731.1280, 47460.00
732.2780, 47805.00
733.4280, 47270.00
734.5770, 47803.00
735.7260, 47612.00
736.8760, 47625.00
738.0250, 47638.00
739.1730, 47683.00
740.3220, 47625.01
741.4700, 47618.48
742.6190, 47515.00
743.7670, 47490.00
744.9150, 47438.00
746.0630, 47271.00
747.2100, 47327.00
748.3580, 47275.00
749.5050, 47193.00
750.6520, 46886.00
751.7990, 46681.00
752.9460, 46594.35
754.0930, 46262.00
755.2390, 46396.00
756.3860, 46333.00
757.5320, 46223.00
758.6780, 46408.00
759.8240, 46275.00
760.9690, 46127.00
762.1150, 46370.00
763.2600, 46313.00
764.4060, 46332.00
765.5510, 46432.00
766.6950, 46474.00
767.8400, 46624.00
768.9850, 46858.00
770.1290, 46616.00
771.2730, 46922.00
772.4170, 46649.00
773.5610, 46955.00
774.7050, 46810.00
775.8480, 46946.00
776.9920, 46601.00
778.1350, 47051.00
779.2780, 47006.00
780.4210, 46811.00
781.5640, 46922.00
782.7060, 46891.00
783.8490, 46783.03
784.9910, 46849.00
786.1330, 46591.00
787.2750, 46560.00
788.4170, 46426.69
789.5580, 46396.07
790.7000, 46417.00
791.8410, 46359.00
792.9820, 46485.00
794.1230, 46366.00
795.2640, 46242.00
796.4040, 46451.00
797.5450, 46260.00
798.6850, 46257.00
799.8250, 45956.00
800.9650, 46106.00
802.1050, 46112.00
803.2450, 45838.00
804.3840, 45782.00
805.5230, 46073.00
806.6630, 45786.00
807.8020, 45775.00
808.9400, 45878.00
810.0790, 45768.00
811.2170, 45807.00
812.3560, 45816.00
813.4940, 45565.00
814.6320, 45387.00
815.7700, 45256.00
816.9070, 45199.99
818.0450, 45514.00
819.1820, 45242.00
820.3190, 45268.00
821.4560, 45376.00
822.5930, 45269.00
823.7300, 45236.00
824.8670, 45229.02
826.0030, 44964.00
827.1390, 45065.00
828.2750, 44943.00
829.4110, 44668.00
830.5470, 45000.00
831.6820, 45034.00
832.8180, 44770.00
833.9530, 44960.00
835.0880, 44935.00
836.2230, 44919.00
837.3580, 44896.00
838.4920, 44822.54
839.6270, 44868.00
840.7610, 44878.89
841.8950, 44801.00
843.0290, 44990.00
844.1630, 45033.80
845.2960, 45118.00
846.4300, 45343.00
847.5630, 45323.00
848.6960, 45489.00
849.8290, 45472.00
850.9620, 45562.00
852.0940, 45746.00
853.2270, 45792.00
854.3590, 45581.00
855.4910, 45638.00
856.6230, 45627.00
857.7550, 45762.00
858.8870, 45625.00
860.0180, 45836.00
861.1500, 45897.00
862.2810, 46008.00
863.4120, 45755.00
864.5430, 46076.00
865.6730, 45976.00
866.8040, 46342.00
867.9340, 46438.00
869.0640, 46382.00
870.1940, 46293.00
871.3240, 46754.00
872.4540, 46644.00
873.5830, 46898.00
874.7130, 46803.00
875.8420, 46813.00
876.9710, 46909.00
878.1000, 47086.00
879.2290, 47017.00
880.3570, 46980.00
881.4860, 46918.00
882.6140, 47047.00
883.7420, 47377.00
884.8700, 47167.00
885.9980, 47297.00
887.1250, 47060.00
888.2530, 47474.00
889.3800, 47478.00
890.5070, 47272.00
891.6340, 47289.00
892.7610, 47040.00
893.8880, 47414.00
895.0140, 47241.00
896.1400, 47447.00
897.2670, 47452.00
898.3930, 47324.00
899.5180, 47462.00
900.6440, 47481.00
901.7700, 47446.00
902.8950, 47493.00
904.0200, 47705.00
905.1450, 47397.00
906.2700, 47852.00
907.3950, 47753.00
908.5190, 47908.00
909.6440, 48069.00
910.7680, 47890.00
911.8920, 48050.00
913.0160, 48210.00
914.1400, 48485.00
915.2630, 48273.00
916.3870, 48182.00
917.5100, 48464.00
918.6330, 48416.75
919.7560, 48674.00
920.8790, 48678.00
922.0010, 48451.00
923.1240, 48525.00
924.2460, 48800.00
925.3680, 48825.00
926.4900, 48925.00
927.6120, 49110.00
928.7340, 49261.00
929.8550, 49327.83
930.9760, 49083.00
932.0980, 49379.00
933.2190, 49529.00
934.3390, 49381.38
935.4600, 50173.00
936.5810, 49253.00
937.7010, 49438.00
938.8210, 50067.00
939.9410, 49942.00
941.0610, 49962.00
942.1810, 49921.00
943.3010, 50057.00
944.4200, 50306.00
945.5390, 50363.00
946.6580, 50674.00
947.7770, 50366.00
948.8960, 50546.00
950.0150, 50607.00
951.1330, 50379.00
952.2510, 50910.00
953.3690, 50851.00
954.4870, 50698.00
955.6050, 50859.00
956.7230, 50761.00
957.8400, 51098.00
958.9580, 50861.00
960.0750, 51048.00
961.1920, 51027.81
962.3090, 51160.38
963.4250, 51008.00
964.5420, 51289.00
965.6580, 51379.00
966.7740, 51383.57
967.8900, 51615.00
969.0060, 51471.00
970.1220, 51620.00
971.2380, 51674.00
972.3530, 51779.00
973.4680, 51860.00
974.5830, 51930.88
975.6980, 52169.00
976.8130, 52118.00
977.9280, 52343.00
979.0420, 52530.00
980.1560, 52949.00
981.2710, 52585.00
982.3850, 52339.00
983.4980, 52619.00
984.6120, 52920.00
985.7260, 52898.00
986.8390, 53064.00
987.9520, 53464.00
989.0650, 53629.00
990.1780, 53511.00
991.2910, 53548.00
992.4030, 53672.00
993.5160, 53964.00
994.6280, 53871.00
995.7400, 54252.00
996.8520, 54263.00
997.9640, 54403.00
999.0750, 54510.00
1000.187, 55009.00
1001.298, 54946.61
1002.409, 55104.00
1003.520, 55028.00
1004.631, 55377.00
1005.741, 55402.00
1006.852, 55405.00
1007.962, 55404.00
1009.072, 55515.74
1010.182, 55577.29
1011.292, 55672.00
1012.402, 55826.00
1013.511, 55742.00
1014.621, 55912.00
1015.730, 55911.00
1016.839, 56076.00
1017.948, 55983.00
1019.056, 55780.00
1020.165, 55726.00
1021.273, 56039.00
1022.382, 55825.00
1023.490, 55403.00
1024.598, 55736.00
1025.706, 55500.00
1026.813, 54811.00
1027.921, 55480.00
1029.028, 55227.00
1030.135, 55277.00
1031.242, 54781.00
1032.349, 54851.00
1033.456, 54722.00
1034.562, 54287.00
1035.668, 54405.00
1036.775, 54587.00
1037.881, 54633.00
1038.987, 54642.07
1040.092, 54470.47
1041.198, 54590.00
1042.303, 53915.00
1043.408, 53903.00
1044.514, 53562.00
1045.618, 53832.00
1046.723, 53419.00
1047.828, 53178.00
1048.932, 53428.00
1050.037, 53686.00
1051.141, 53378.00
1052.245, 53388.00
1053.349, 53223.00
1054.452, 52956.00
1055.556, 53104.00
1056.659, 53119.00
1057.762, 53236.00
1058.865, 52932.00
1059.968, 52788.00
1061.071, 52687.00
1062.174, 53023.00
1063.276, 52901.00
1064.378, 52875.00
1065.480, 52695.00
1066.582, 52751.00
1067.684, 52873.00
1068.786, 52798.00
1069.887, 52760.00
1070.988, 52551.00
1072.090, 52854.00
1073.191, 52795.00
1074.291, 52474.00
1075.392, 52659.00
1076.493, 52853.00
1077.593, 52412.00
1078.693, 52734.00
1079.793, 52766.00
1080.893, 52721.00
1081.993, 52694.00
1083.092, 52744.00
1084.192, 52461.00
1085.291, 52348.00
1086.390, 52395.00
1087.489, 52736.00
1088.588, 52399.00
1089.686, 52292.00
1090.785, 52344.00
1091.883, 52031.00
1092.981, 52147.00
1094.079, 52111.00
1095.177, 52315.00
1096.275, 51955.00
1097.373, 51800.00
1098.470, 51826.00
1099.567, 51923.00
1100.664, 52073.00
1101.761, 51580.00
1102.858, 51178.00
1103.954, 51317.00
1105.051, 51129.00
1106.147, 50962.00
1107.243, 50574.30
1108.339, 50735.07
1109.435, 50810.77
1110.531, 50806.00
1111.626, 50479.70
1112.722, 50568.58
1113.817, 50491.10
1114.912, 50406.80
1116.007, 50554.16
1117.101, 50274.66
1118.196, 50418.34
1119.290, 50393.11
1120.385, 50445.18
1121.479, 50329.85
1122.573, 50266.23
1123.666, 50370.12
1124.760, 50381.25
1125.853, 50246.67
1126.947, 50303.68
1128.040, 50018.36
1129.133, 50033.47
1130.226, 50178.20
1131.318, 50052.07
1132.411, 50112.18
1133.503, 50043.00
1134.596, 49878.00
1135.688, 50043.00
1136.780, 50171.00
1137.871, 49977.00
1138.963, 49864.00
1140.054, 50174.00
1141.146, 50273.00
1142.237, 50149.00
1143.328, 50116.00
1144.419, 50071.00
1145.509, 49984.00
1146.600, 49951.00
1147.690, 50060.00
1148.780, 50241.00
1149.870, 50208.00
1150.960, 49810.00
1152.050, 50249.00
1153.139, 49900.00
1154.229, 50333.00
1155.318, 49730.00
1156.407, 49906.00
1157.496, 50118.00
1158.585, 49853.00
1159.674, 49774.00
1160.762, 50091.00
1161.850, 49913.00
1162.939, 50021.00
1164.027, 49671.00
1165.114, 50187.00
1166.202, 50399.00
1167.290, 50093.00
1168.377, 50241.00
1169.464, 50293.00
1170.551, 50320.00
1171.638, 50230.00
1172.725, 50144.00
1173.812, 50439.00
1174.898, 50544.00
1175.984, 50466.00
1177.071, 50091.00
1178.157, 50193.00
1179.242, 50451.00
1180.328, 50275.00
1181.414, 50388.00
1182.499, 50399.00
1183.584, 50291.00
1184.669, 50500.00
1185.754, 50495.00
1186.839, 50350.00
1187.924, 50371.00
1189.008, 50487.00
1190.092, 50304.00
1191.177, 50575.00
1192.260, 50817.00
1193.344, 50720.00
1194.428, 50536.00
1195.512, 50227.00
1196.595, 50752.00
1197.678, 50805.00
1198.761, 50820.00
1199.844, 50693.00
1200.927, 50772.00
1202.009, 50943.00
1203.092, 50963.00
1204.174, 51000.00
1205.256, 50921.00
1206.338, 50910.00
1207.420, 50781.00
1208.502, 50836.00
1209.583, 51048.00
1210.665, 50978.00
1211.746, 50975.00
1212.827, 51188.00
1213.908, 50888.00
1214.988, 50837.00
1216.069, 50908.00
1217.149, 51045.00
1218.230, 51075.00
1219.310, 51328.00
1220.390, 51420.00
1221.470, 51318.00
1222.549, 51398.00
1223.629, 51325.00
1224.708, 51194.00
1225.787, 51227.00
1226.866, 51473.00
1227.945, 51223.00
1229.024, 51199.00
1230.103, 51593.00
1231.181, 51074.00
1232.259, 51371.00
1233.337, 51582.00
1234.415, 51586.00
1235.493, 51586.00
1236.571, 51666.00
1237.648, 51522.00
1238.726, 51654.00
1239.803, 51694.00
1240.880, 51596.00
1241.957, 51361.00
1243.034, 51738.00
1244.110, 51480.00
1245.187, 51536.00
1246.263, 51650.00
1247.339, 51801.00
1248.415, 51879.06
1249.491, 51851.00
1250.566, 52035.00
1251.642, 51839.00
1252.717, 51769.00
1253.793, 51720.00
1254.868, 51771.00
1255.943, 52091.00
1257.017, 51938.00
1258.092, 51892.00
1259.166, 52099.00
1260.241, 51891.00
1261.315, 51946.00
1262.389, 52017.00
1263.462, 51696.00
1264.536, 51890.00
1265.610, 51946.00
1266.683, 52205.00
1267.756, 51816.00
1268.829, 52323.00
1269.902, 52255.00
1270.975, 52069.00
1272.048, 52222.07
1273.120, 52163.86
1274.192, 52195.00
1275.264, 52202.00
1276.336, 52368.00
1277.408, 52290.00
1278.480, 52464.00
1279.551, 52200.00
1280.623, 52281.00
1281.694, 52169.00
1282.765, 52177.80
1283.836, 52225.11
1284.907, 52346.00
1285.977, 52283.00
1287.048, 52533.00
1288.118, 52498.00
1289.188, 52259.00
1290.258, 52684.00
1291.328, 52702.00
1292.398, 52550.46
1293.467, 52456.00
1294.537, 52333.00
1295.606, 52249.00
1296.675, 52339.00
1297.744, 52472.00
1298.813, 52283.00
1299.882, 52500.00
1300.950, 52455.00
1302.018, 52852.00
1303.086, 52651.00
1304.155, 52773.00
1305.222, 52906.00
1306.290, 52540.00
1307.358, 52712.30
1308.425, 53130.00
1309.492, 52823.00
1310.559, 52864.00
1311.626, 53176.00
1312.693, 52879.00
1313.760, 53120.00
1314.826, 53103.00
1315.893, 53144.00
1316.959, 53242.00
1318.025, 53445.00
1319.091, 53123.00
1320.157, 53234.00
1321.222, 53022.00
1322.288, 53052.00
1323.353, 53294.00
1324.418, 53069.00
1325.483, 53134.00
1326.548, 53313.00
1327.612, 53232.00
1328.677, 53325.00
1329.741, 53445.00
1330.806, 53369.00
1331.870, 53402.00
1332.934, 53403.00
1333.997, 53616.00
1335.061, 53557.00
1336.124, 53314.00
1337.188, 53629.00
1338.251, 53430.88
1339.314, 53759.00
1340.377, 53412.00
1341.439, 53477.00
1342.502, 53639.00
1343.564, 53701.00
1344.627, 53664.00
1345.689, 53866.00
1346.751, 53785.56
1347.813, 53607.00
1348.874, 53700.00
1349.936, 53604.00
1350.997, 53503.00
1352.058, 53728.00
1353.119, 53855.00
1354.180, 54220.00
1355.241, 54332.00
1356.301, 53673.00
1357.362, 53935.00
1358.422, 53635.00
1359.482, 53933.00
1360.542, 53782.00
1361.602, 54172.00
1362.662, 54041.00
1363.721, 54094.00
1364.781, 54593.00
1365.840, 53967.00
1366.899, 53776.00
1367.958, 54225.00
1369.017, 54112.00
1370.075, 54198.00
1371.134, 54299.00
1372.192, 54228.00
1373.250, 54084.00
1374.308, 54026.00
1375.366, 54066.00
1376.424, 54057.74
1377.481, 54122.22
1378.539, 54172.00
1379.596, 54294.00
1380.653, 54331.00
1381.710, 54428.00
1382.767, 53881.00
1383.824, 54286.00
1384.880, 54316.00
1385.937, 54062.00
1386.993, 54370.00
1388.049, 54307.96
1389.105, 54286.06
1390.161, 54438.00
1391.216, 54279.00
1392.272, 54279.00
1393.327, 54318.00
1394.382, 54548.00
1395.437, 54430.00
1396.492, 54477.65
1397.547, 54719.00
1398.601, 54457.00
1399.656, 54405.00
1400.710, 54523.00
1401.764, 54544.00
1402.818, 54651.00
1403.872, 54664.73
1404.925, 54659.00
1405.979, 54667.00
1407.032, 54689.00
1408.085, 54643.00
1409.139, 54962.00
1410.191, 54801.00
1411.244, 55125.00
1412.297, 54818.00
1413.349, 55015.00
1414.402, 54924.00
1415.454, 55285.00
1416.506, 55310.00
1417.558, 55197.00
1418.609, 55276.05
1419.661, 55264.33
1420.712, 54791.89
1421.764, 55022.51
1422.815, 55168.03
1423.866, 55233.07
1424.916, 54976.52
1425.967, 55135.22
1427.018, 55127.52
1428.068, 55112.96
1429.118, 55330.07
1430.168, 55120.29
1431.218, 55333.73
1432.268, 55378.22
1433.318, 55500.04
1434.367, 55454.39
1435.416, 55460.45
1436.465, 55634.00
1437.514, 55714.82
1438.563, 55649.89
1439.612, 55776.59
1440.661, 55560.93
1441.709, 55787.77
1442.757, 55842.00
1443.805, 56049.00
1444.853, 56058.91
1445.901, 55964.00
1446.949, 56158.00
1447.996, 56002.11
1449.044, 56105.00
1450.091, 56036.00
1451.138, 55792.00
1452.185, 56039.00
1453.232, 56059.00
1454.278, 56321.00
1455.325, 56010.00
1456.371, 56176.00
1457.417, 56353.00
1458.463, 56109.00
1459.509, 56190.00
1460.555, 56462.00
1461.601, 56307.00
1462.646, 56039.00
1463.691, 56431.00
1464.737, 56420.00
1465.782, 56633.00
1466.826, 56578.00
1467.871, 56411.00
1468.916, 56624.00
1469.960, 56410.00
1471.004, 56268.00
1472.048, 56494.00
1473.092, 56840.00
1474.136, 56885.00
1475.180, 56745.00
1476.223, 56637.00
1477.267, 57020.00
1478.310, 56826.47
1479.353, 57382.00
1480.396, 56680.00
1481.439, 57078.00
1482.481, 56777.00
1483.524, 57233.00
1484.566, 56900.00
1485.608, 57275.00
1486.650, 57020.00
1487.692, 57554.00
1488.734, 57038.00
1489.775, 57119.00
1490.817, 57168.00
1491.858, 56946.00
1492.899, 57284.00
1493.940, 57307.00
1494.981, 57089.00
1496.022, 57393.00
1497.062, 57515.00
1498.103, 57169.00
1499.143, 57190.00
1500.183, 57250.00
1501.223, 57456.00
1502.263, 57461.00
1503.302, 57523.00
1504.342, 57329.76
1505.381, 57542.96
1506.420, 57671.12
1507.459, 57718.78
1508.498, 57444.89
1509.537, 57586.21
1510.576, 57561.14
1511.614, 57529.23
1512.652, 57728.98
1513.691, 57501.86
1514.729, 57697.94
1515.767, 57725.07
1516.804, 57829.51
1517.842, 57766.54
1518.879, 57755.27
1519.917, 57911.49
1520.954, 57974.96
1521.991, 57892.70
1523.028, 58002.05
1524.064, 57769.03
1525.101, 57836.45
1526.137, 58033.47
1527.173, 57959.61
1528.210, 58072.02
1529.245, 58113.46
1530.281, 57832.54
1531.317, 58290.00
1532.352, 58248.00
1533.388, 58590.00
1534.423, 58417.00
1535.458, 58148.00
1536.493, 58259.00
1537.528, 58185.00
1538.562, 58076.00
1539.597, 58197.00
1540.631, 58481.00
1541.665, 58358.95
1542.700, 58566.78
1543.733, 58689.52
1544.767, 58731.80
1545.801, 58452.51
1546.834, 58588.44
1547.868, 58557.98
1548.901, 58520.68
1549.934, 58715.05
1550.967, 58482.52
1551.999, 58673.20
1553.032, 58694.95
1554.064, 58794.02
1555.097, 58725.66
1556.129, 58709.00
1557.161, 58859.83
1558.193, 58917.93
1559.224, 58718.00
1560.256, 58983.00
1561.287, 58591.00
1562.318, 58560.00
1563.350, 58885.00
1564.380, 58407.00
1565.411, 58670.00
1566.442, 58708.00
1567.472, 58813.00
1568.503, 58972.00
1569.533, 58804.00
1570.563, 59220.00
##END=



