##NAMES=Magnesite
##RRUFFID=R050443
##IDEAL CHEMISTRY=MgCO_3_
##LOCALITY=Brumado, Bahia, Brazil
##OWNER=RRUFF
##SOURCE=Eugene Schlepp
##DESCRIPTION=Group of colorless crystals
##STATUS=The identification of this mineral has been confirmed by X-ray diffraction and chemical analysis
##URL=rruff.info/R050443
##MEASURED CHEMISTRY=Mg_1.00_CO_3_
##PIN_ID=L01619
##ORIENTATION=Laser parallel to -c* (0 0 -1). Fiducial mark perpendicular to laser is parallel to a [1 0 0]
61.07900, 4330.000
62.32000, 4500.000
63.56100, 4582.000
64.80100, 4603.000
66.04100, 4625.000
67.28100, 4739.000
68.52100, 4870.000
69.76100, 4885.065
71.00100, 5045.000
72.24000, 5022.000
73.47900, 5008.000
74.71800, 5196.000
75.95700, 5147.000
77.19600, 5056.000
78.43500, 5005.000
79.67300, 4922.000
80.91200, 5165.000
82.15000, 5427.000
83.38800, 5212.000
84.62600, 5023.000
85.86300, 4720.000
87.10100, 4410.000
88.33800, 4325.000
89.57500, 4287.000
90.81200, 4199.000
92.04900, 4329.000
93.28600, 4304.000
94.52300, 4267.000
95.75900, 4252.000
96.99500, 4225.150
98.23100, 4256.000
99.46700, 4177.000
100.7030, 4220.000
101.9390, 4190.000
103.1740, 4231.000
104.4090, 4370.000
105.6440, 4377.000
106.8790, 4269.000
108.1140, 4237.000
109.3490, 4118.000
110.5830, 4147.000
111.8180, 4239.000
113.0520, 4206.000
114.2860, 4267.000
115.5200, 4304.000
116.7530, 4318.000
117.9870, 4389.000
119.2200, 4387.000
120.4530, 5041.000
121.6860, 5092.000
122.9190, 4831.000
124.1520, 4450.000
125.3850, 4107.000
126.6170, 3986.000
127.8490, 3869.000
129.0810, 3927.000
130.3130, 3878.000
131.5450, 3853.000
132.7770, 3892.000
134.0080, 3862.000
135.2390, 3848.000
136.4710, 3844.000
137.7020, 3882.000
138.9320, 3853.352
140.1630, 3791.000
141.3930, 3858.000
142.6240, 3792.000
143.8540, 3855.000
145.0840, 3934.000
146.3140, 3955.000
147.5440, 3892.000
148.7730, 3898.000
150.0020, 3836.000
151.2320, 3917.000
152.4610, 3792.000
153.6900, 3837.000
154.9180, 3830.000
156.1470, 3758.000
157.3750, 3804.000
158.6040, 3875.000
159.8320, 3869.000
161.0600, 3911.210
162.2870, 3813.000
163.5150, 3927.000
164.7420, 3864.000
165.9700, 3820.000
167.1970, 3838.000
168.4240, 3802.000
169.6510, 3785.000
170.8770, 3808.000
172.1040, 3781.000
173.3300, 3819.000
174.5560, 3847.000
175.7820, 3843.000
177.0080, 3918.000
178.2340, 3851.000
179.4590, 3826.000
180.6850, 3877.000
181.9100, 3886.000
183.1350, 3904.000
184.3600, 3908.000
185.5850, 3934.000
186.8090, 3953.000
188.0340, 3973.000
189.2580, 3993.000
190.4820, 4023.527
191.7060, 4137.000
192.9300, 4139.000
194.1530, 4146.000
195.3770, 4311.000
196.6000, 4420.000
197.8230, 4594.000
199.0460, 4818.000
200.2690, 5141.000
201.4910, 5529.000
202.7140, 6194.000
203.9360, 6785.800
205.1580, 7505.000
206.3800, 8537.000
207.6020, 10123.00
208.8240, 11643.00
210.0450, 15055.00
211.2670, 17141.68
212.4880, 20303.00
213.7090, 20615.00
214.9300, 18650.00
216.1510, 15271.00
217.3710, 12049.00
218.5920, 9272.000
219.8120, 7362.000
221.0320, 6117.000
222.2520, 5388.000
223.4720, 4805.000
224.6910, 4463.000
225.9110, 4400.000
227.1300, 4173.000
228.3490, 4139.000
229.5680, 4137.000
230.7870, 4009.000
232.0050, 4114.000
233.2240, 4076.000
234.4420, 4051.000
235.6600, 3986.000
236.8780, 4083.000
238.0960, 3995.000
239.3140, 3875.000
240.5310, 3962.000
241.7490, 3909.000
242.9660, 3928.000
244.1830, 4017.000
245.4000, 3945.000
246.6160, 3951.000
247.8330, 3963.000
249.0490, 3935.000
250.2660, 4018.000
251.4820, 3959.000
252.6980, 3994.018
253.9130, 3958.000
255.1290, 4015.000
256.3440, 4028.000
257.5600, 4026.000
258.7750, 4042.718
259.9900, 4043.636
261.2040, 4044.000
262.4190, 4025.000
263.6330, 4040.000
264.8480, 3978.000
266.0620, 4020.000
267.2760, 3979.000
268.4900, 4071.000
269.7030, 4035.000
270.9170, 4082.000
272.1300, 4120.000
273.3430, 4162.000
274.5560, 4004.000
275.7690, 4027.000
276.9820, 3997.000
278.1940, 3955.000
279.4070, 4089.000
280.6190, 4073.000
281.8310, 3895.000
283.0430, 4031.000
284.2550, 4141.000
285.4660, 3917.000
286.6770, 4008.000
287.8890, 4073.000
289.1000, 3991.000
290.3110, 4036.000
291.5210, 4064.000
292.7320, 4063.387
293.9420, 4083.537
295.1530, 4123.000
296.3630, 4100.000
297.5730, 4126.000
298.7830, 4159.000
299.9920, 4058.000
301.2020, 4124.000
302.4110, 4156.000
303.6200, 4063.000
304.8290, 4061.000
306.0380, 4119.000
307.2470, 4154.000
308.4550, 4294.000
309.6630, 4110.000
310.8720, 4198.000
312.0800, 4294.000
313.2880, 4253.000
314.4950, 4405.000
315.7030, 4478.000
316.9100, 4551.000
318.1170, 4659.000
319.3240, 4877.000
320.5310, 5137.000
321.7380, 5311.000
322.9450, 5906.000
324.1510, 6336.000
325.3570, 7054.000
326.5630, 7879.000
327.7690, 8956.000
328.9750, 10547.00
330.1810, 11796.00
331.3860, 11942.00
332.5910, 10852.00
333.7960, 9261.000
335.0010, 7457.000
336.2060, 6402.000
337.4110, 5627.000
338.6150, 5225.000
339.8200, 4885.000
341.0240, 4766.000
342.2280, 4619.000
343.4320, 4579.000
344.6350, 4453.000
345.8390, 4423.215
347.0420, 4453.000
348.2450, 4388.000
349.4480, 4428.000
350.6510, 4446.000
351.8540, 4385.000
353.0560, 4412.000
354.2590, 4352.000
355.4610, 4388.000
356.6630, 4357.000
357.8650, 4369.247
359.0670, 4371.000
360.2680, 4398.000
361.4700, 4373.000
362.6710, 4375.000
363.8720, 4381.000
365.0730, 4370.000
366.2740, 4354.000
367.4740, 4359.311
368.6750, 4414.000
369.8750, 4387.000
371.0750, 4390.000
372.2750, 4464.000
373.4750, 4370.000
374.6740, 4399.000
375.8740, 4414.000
377.0730, 4355.000
378.2720, 4443.000
379.4710, 4412.000
380.6700, 4525.000
381.8690, 4512.454
383.0670, 4497.000
384.2660, 4495.000
385.4640, 4495.000
386.6620, 4434.000
387.8600, 4424.000
389.0570, 4423.000
390.2550, 4408.000
391.4520, 4579.000
392.6490, 4477.000
393.8460, 4552.000
395.0430, 4456.000
396.2400, 4455.000
397.4370, 4545.000
398.6330, 4542.000
399.8290, 4492.000
401.0250, 4452.000
402.2210, 4517.000
403.4170, 4529.000
404.6130, 4598.000
405.8080, 4575.000
407.0030, 4584.635
408.1980, 4599.761
409.3930, 4552.000
410.5880, 4573.000
411.7830, 4545.000
412.9770, 4466.000
414.1720, 4521.000
415.3660, 4527.000
416.5600, 4602.000
417.7530, 4577.976
418.9470, 4592.000
420.1410, 4525.000
421.3340, 4544.000
422.5270, 4487.000
423.7200, 4504.770
424.9130, 4582.000
426.1060, 4551.000
427.2980, 4577.000
428.4900, 4622.000
429.6830, 4538.000
430.8750, 4658.000
432.0670, 4687.000
433.2580, 4619.000
434.4500, 4590.000
435.6410, 4614.000
436.8320, 4633.000
438.0240, 4698.000
439.2140, 4655.000
440.4050, 4648.000
441.5960, 4685.000
442.7860, 4627.000
443.9760, 4652.000
445.1670, 4713.000
446.3560, 4679.000
447.5460, 4671.000
448.7360, 4722.000
449.9250, 4755.000
451.1150, 4726.000
452.3040, 4808.000
453.4930, 4800.000
454.6810, 4778.000
455.8700, 4792.000
457.0590, 4792.396
458.2470, 4717.000
459.4350, 4809.000
460.6230, 4786.000
461.8110, 4776.000
462.9980, 4828.000
464.1860, 4819.000
465.3730, 4782.000
466.5600, 4762.000
467.7470, 4845.000
468.9340, 4787.000
470.1210, 4791.000
471.3080, 4898.000
472.4940, 4743.000
473.6800, 4848.000
474.8660, 4813.000
476.0520, 4855.000
477.2380, 4702.000
478.4230, 4859.000
479.6090, 4763.000
480.7940, 4874.000
481.9790, 4903.000
483.1640, 4847.000
484.3490, 4851.000
485.5330, 4854.000
486.7180, 4896.000
487.9020, 4866.000
489.0860, 4886.179
490.2700, 4851.000
491.4540, 4897.000
492.6370, 4960.000
493.8210, 4977.409
495.0040, 4908.000
496.1870, 4965.000
497.3700, 4991.000
498.5530, 4896.000
499.7360, 4976.000
500.9180, 4836.000
502.1000, 4976.000
503.2830, 4901.000
504.4650, 5003.000
505.6460, 5114.000
506.8280, 4941.000
508.0100, 5062.000
509.1910, 5049.000
510.3720, 4960.000
511.5530, 5016.000
512.7340, 5053.000
513.9150, 5083.000
515.0950, 5043.000
516.2760, 5004.000
517.4560, 5052.000
518.6360, 5007.000
519.8160, 5007.000
520.9950, 4979.000
522.1750, 5061.000
523.3540, 5117.000
524.5340, 5123.000
525.7130, 5108.000
526.8920, 5112.000
528.0700, 5155.000
529.2490, 5075.000
530.4270, 4956.000
531.6060, 5202.000
532.7840, 5036.000
533.9620, 5120.000
535.1390, 5160.000
536.3170, 5127.000
537.4940, 5109.000
538.6720, 5138.192
539.8490, 5068.000
541.0260, 5177.000
542.2030, 5181.000
543.3790, 5204.000
544.5560, 5099.000
545.7320, 5143.000
546.9080, 5180.000
548.0840, 5131.768
549.2600, 5202.000
550.4360, 5104.000
551.6110, 5096.000
552.7860, 5078.000
553.9620, 5136.000
555.1370, 5181.000
556.3110, 5265.000
557.4860, 5302.000
558.6610, 5202.000
559.8350, 5178.000
561.0090, 5265.000
562.1830, 5162.000
563.3570, 5225.000
564.5310, 5241.000
565.7040, 5226.000
566.8780, 5281.000
568.0510, 5264.479
569.2240, 5272.657
570.3970, 5266.000
571.5700, 5266.000
572.7420, 5275.000
573.9150, 5262.000
575.0870, 5275.564
576.2590, 5205.000
577.4310, 5311.000
578.6030, 5284.000
579.7740, 5336.000
580.9460, 5264.000
582.1170, 5204.000
583.2880, 5250.000
584.4590, 5227.000
585.6300, 5297.000
586.8010, 5304.000
587.9710, 5335.000
589.1410, 5325.000
590.3110, 5357.000
591.4810, 5437.000
592.6510, 5373.000
593.8210, 5383.000
594.9900, 5334.000
596.1600, 5363.000
597.3290, 5435.000
598.4980, 5307.000
599.6670, 5419.000
600.8350, 5443.000
602.0040, 5571.000
603.1720, 5449.000
604.3400, 5394.000
605.5080, 5458.000
606.6760, 5446.000
607.8440, 5388.000
609.0120, 5481.000
610.1790, 5456.000
611.3460, 5482.000
612.5130, 5479.000
613.6800, 5410.000
614.8470, 5484.000
616.0130, 5372.000
617.1800, 5538.000
618.3460, 5562.000
619.5120, 5516.000
620.6780, 5610.000
621.8440, 5526.000
623.0090, 5645.000
624.1750, 5727.000
625.3400, 5607.000
626.5050, 5620.000
627.6700, 5663.000
628.8350, 5556.000
629.9990, 5595.000
631.1640, 5587.000
632.3280, 5643.000
633.4920, 5681.000
634.6560, 5688.272
635.8200, 5725.000
636.9840, 5699.000
638.1470, 5611.000
639.3100, 5563.000
640.4730, 5659.000
641.6360, 5591.000
642.7990, 5709.000
643.9620, 5673.000
645.1240, 5713.000
646.2870, 5674.000
647.4490, 5726.000
648.6110, 5632.000
649.7730, 5686.000
650.9340, 5835.000
652.0960, 5674.000
653.2570, 5778.000
654.4180, 5937.000
655.5790, 5800.000
656.7400, 5768.000
657.9010, 5776.000
659.0620, 5842.000
660.2220, 5812.000
661.3820, 5803.000
662.5420, 5801.000
663.7020, 5830.000
664.8620, 5853.436
666.0210, 5893.000
667.1810, 5942.000
668.3400, 5963.000
669.4990, 6022.000
670.6580, 6004.000
671.8170, 6085.000
672.9750, 6004.000
674.1340, 6113.000
675.2920, 6098.000
676.4500, 6079.000
677.6080, 6125.000
678.7660, 6171.000
679.9230, 6214.000
681.0810, 6272.000
682.2380, 6386.000
683.3950, 6219.000
684.5520, 6327.000
685.7090, 6360.000
686.8660, 6467.000
688.0220, 6460.000
689.1780, 6393.000
690.3340, 6462.000
691.4900, 6467.000
692.6460, 6529.000
693.8020, 6573.000
694.9570, 6560.000
696.1130, 6574.000
697.2680, 6653.000
698.4230, 6735.000
699.5780, 6718.000
700.7320, 6805.000
701.8870, 6841.000
703.0410, 6881.000
704.1950, 7071.000
705.3490, 7043.000
706.5030, 7215.000
707.6570, 7247.000
708.8110, 7366.000
709.9640, 7555.000
711.1170, 7549.000
712.2700, 7696.000
713.4230, 7927.000
714.5760, 8027.000
715.7280, 8407.000
716.8810, 8660.000
718.0330, 9078.000
719.1850, 9477.742
720.3370, 9932.000
721.4890, 10386.00
722.6400, 11021.00
723.7920, 11565.00
724.9430, 12389.00
726.0940, 13472.00
727.2450, 14261.00
728.3960, 15587.00
729.5460, 16805.00
730.6970, 18025.00
731.8470, 19535.00
732.9970, 21262.00
734.1470, 22696.00
735.2970, 24371.00
736.4460, 25692.00
737.5960, 26788.00
738.7450, 27200.00
739.8940, 27088.00
741.0430, 26351.00
742.1920, 25124.00
743.3410, 22996.00
744.4890, 21119.00
745.6370, 19468.00
746.7850, 17468.00
747.9330, 15671.00
749.0810, 14195.00
750.2290, 12806.00
751.3760, 11857.00
752.5240, 10842.00
753.6710, 10214.00
754.8180, 9547.000
755.9650, 8945.000
757.1110, 8639.000
758.2580, 8268.000
759.4040, 7844.000
760.5510, 7565.000
761.6970, 7291.000
762.8420, 7147.000
763.9880, 6955.000
765.1340, 6891.000
766.2790, 6682.000
767.4240, 6590.000
768.5690, 6450.000
769.7140, 6484.000
770.8590, 6384.000
772.0030, 6310.000
773.1480, 6336.000
774.2920, 6104.000
775.4360, 6187.000
776.5800, 6333.000
777.7240, 6260.000
778.8670, 6106.000
780.0110, 6119.000
781.1540, 6071.000
782.2970, 6079.000
783.4400, 6064.000
784.5830, 6138.000
785.7250, 6122.000
786.8680, 6073.000
788.0100, 6166.000
789.1520, 6109.000
790.2940, 6116.000
791.4360, 6100.000
792.5780, 6171.000
793.7190, 6056.000
794.8600, 6118.000
796.0010, 6152.000
797.1420, 6100.000
798.2830, 6074.000
799.4240, 6196.000
800.5640, 6178.000
801.7050, 6110.000
802.8450, 6191.000
803.9850, 6174.000
805.1250, 6165.000
806.2640, 6128.000
807.4040, 6056.000
808.5430, 6081.000
809.6820, 6172.000
810.8210, 6093.000
811.9600, 6203.000
813.0990, 6044.000
814.2370, 6126.000
815.3760, 6163.000
816.5140, 6164.000
817.6520, 6127.000
818.7900, 6097.000
819.9270, 5994.000
821.0650, 6117.000
822.2020, 6057.000
823.3390, 6145.000
824.4760, 6144.000
825.6130, 6159.000
826.7500, 6135.000
827.8870, 6192.000
829.0230, 6185.070
830.1590, 6216.000
831.2950, 6217.000
832.4310, 6193.000
833.5670, 6222.000
834.7030, 6166.000
835.8380, 6175.000
836.9730, 6196.852
838.1080, 6238.000
839.2430, 6262.000
840.3780, 6294.000
841.5130, 6349.000
842.6470, 6350.000
843.7810, 6337.565
844.9150, 6287.000
846.0490, 6289.000
847.1830, 6300.000
848.3170, 6318.000
849.4500, 6318.000
850.5830, 6347.821
851.7160, 6364.000
852.8490, 6378.000
853.9820, 6380.000
855.1150, 6342.000
856.2470, 6422.000
857.3800, 6321.000
858.5120, 6380.000
859.6440, 6380.214
860.7760, 6551.000
861.9070, 6418.000
863.0390, 6420.000
864.1700, 6468.000
865.3010, 6383.000
866.4320, 6395.000
867.5630, 6416.000
868.6940, 6418.000
869.8240, 6367.000
870.9540, 6396.000
872.0850, 6390.000
873.2150, 6469.000
874.3450, 6442.000
875.4740, 6516.000
876.6040, 6517.000
877.7330, 6459.000
878.8620, 6591.000
879.9910, 6484.000
881.1200, 6536.000
882.2490, 6470.000
883.3770, 6531.000
884.5060, 6495.000
885.6340, 6550.000
886.7620, 6422.000
887.8900, 6547.000
889.0180, 6608.000
890.1450, 6470.000
891.2730, 6529.000
892.4000, 6552.000
893.5270, 6559.000
894.6540, 6512.000
895.7810, 6462.000
896.9070, 6569.000
898.0340, 6563.000
899.1600, 6599.000
900.2860, 6463.000
901.4120, 6557.000
902.5380, 6562.000
903.6630, 6565.000
904.7890, 6646.000
905.9140, 6621.000
907.0390, 6689.000
908.1640, 6568.000
909.2890, 6702.000
910.4130, 6721.000
911.5380, 6543.000
912.6620, 6615.000
913.7860, 6599.000
914.9100, 6617.000
916.0340, 6652.000
917.1580, 6635.000
918.2810, 6669.000
919.4040, 6728.000
920.5280, 6817.000
921.6510, 6694.000
922.7730, 6780.000
923.8960, 6661.000
925.0180, 6725.000
926.1410, 6766.000
927.2630, 6710.000
928.3850, 6689.000
929.5070, 6777.000
930.6280, 6694.000
931.7500, 6748.000
932.8710, 6772.000
933.9920, 6743.000
935.1130, 6796.605
936.2340, 6755.000
937.3550, 6861.000
938.4760, 6800.000
939.5960, 6843.789
940.7160, 6878.118
941.8360, 6810.000
942.9560, 6928.000
944.0760, 6953.000
945.1950, 6958.000
946.3150, 6786.000
947.4340, 6927.000
948.5530, 6986.000
949.6720, 6797.000
950.7900, 6831.000
951.9090, 6880.000
953.0270, 6934.000
954.1460, 6868.000
955.2640, 6919.000
956.3820, 6908.000
957.4990, 6966.000
958.6170, 6913.000
959.7340, 7020.000
960.8520, 6984.000
961.9690, 7016.000
963.0860, 6895.000
964.2020, 7098.000
965.3190, 7053.000
966.4350, 6907.000
967.5520, 6971.000
968.6680, 7139.000
969.7840, 6951.000
970.8990, 7096.000
972.0150, 6980.000
973.1310, 7104.000
974.2460, 7050.000
975.3610, 7036.000
976.4760, 7098.000
977.5910, 7149.000
978.7050, 7091.000
979.8200, 7161.000
980.9340, 7132.000
982.0480, 7161.417
983.1620, 7133.000
984.2760, 7233.000
985.3900, 7213.000
986.5030, 7268.000
987.6160, 7249.000
988.7300, 7112.000
989.8430, 7161.000
990.9550, 7154.000
992.0680, 7222.000
993.1810, 7091.000
994.2930, 7295.000
995.4050, 7237.000
996.5170, 7209.000
997.6290, 7466.000
998.7410, 7367.000
999.8520, 7252.000
1000.964, 7321.000
1002.075, 7467.000
1003.186, 7451.000
1004.297, 7449.000
1005.407, 7191.000
1006.518, 7379.000
1007.628, 7275.000
1008.738, 7316.000
1009.848, 7374.000
1010.958, 7261.000
1012.068, 7172.000
1013.178, 7220.000
1014.287, 7335.000
1015.396, 7255.000
1016.505, 7319.000
1017.614, 7388.000
1018.723, 7350.000
1019.831, 7284.000
1020.940, 7404.000
1022.048, 7413.000
1023.156, 7461.000
1024.264, 7458.000
1025.372, 7525.000
1026.479, 7505.000
1027.587, 7534.000
1028.694, 7543.000
1029.801, 7606.951
1030.908, 7774.000
1032.015, 7756.000
1033.121, 7850.000
1034.228, 7914.000
1035.334, 7872.000
1036.440, 8032.000
1037.546, 8141.000
1038.652, 8077.000
1039.758, 8112.000
1040.863, 8413.000
1041.968, 8425.000
1043.074, 8595.000
1044.178, 8779.000
1045.283, 8930.000
1046.388, 9080.984
1047.492, 9262.832
1048.597, 9377.000
1049.701, 9582.000
1050.805, 9773.000
1051.909, 9869.000
1053.012, 10161.00
1054.116, 10456.00
1055.219, 10578.00
1056.322, 10960.00
1057.425, 11199.00
1058.528, 11647.00
1059.631, 11928.00
1060.733, 12234.00
1061.836, 12737.00
1062.938, 13094.00
1064.040, 13878.00
1065.142, 14436.00
1066.243, 15192.00
1067.345, 16066.00
1068.446, 17085.00
1069.547, 18165.00
1070.648, 19556.00
1071.749, 21192.00
1072.850, 22912.00
1073.951, 25035.00
1075.051, 27506.00
1076.151, 30164.00
1077.251, 33240.00
1078.351, 37053.00
1079.451, 41561.00
1080.550, 47331.00
1081.650, 54649.00
1082.749, 63682.00
1083.848, 74812.00
1084.947, 88380.00
1086.046, 105533.0
1087.144, 125085.0
1088.243, 148403.0
1089.341, 174410.0
1090.439, 203157.0
1091.537, 233292.0
1092.635, 258308.0
1093.732, 277127.0
1094.830, 285814.0
1095.927, 280937.0
1097.024, 265253.0
1098.121, 241267.0
1099.218, 215145.0
1100.314, 188359.0
1101.411, 163975.0
1102.507, 143797.0
1103.603, 125442.0
1104.699, 110679.0
1105.795, 96648.00
1106.890, 84542.00
1107.986, 74022.00
1109.081, 64568.00
1110.176, 56329.00
1111.271, 49092.00
1112.366, 42417.00
1113.461, 37220.00
1114.555, 32823.00
1115.649, 28768.00
1116.744, 25554.00
1117.838, 22924.00
1118.931, 20629.00
1120.025, 18933.00
1121.119, 17222.00
1122.212, 16033.00
1123.305, 15050.00
1124.398, 14028.00
1125.491, 13276.00
1126.584, 12630.00
1127.676, 12133.00
1128.768, 11622.00
1129.861, 11180.00
1130.953, 10770.00
1132.044, 10655.00
1133.136, 10357.00
1134.228, 10139.00
1135.319, 9981.000
1136.410, 9647.000
1137.501, 9530.000
1138.592, 9478.000
1139.683, 9466.000
1140.773, 9203.000
1141.864, 9310.000
1142.954, 8899.000
1144.044, 8877.000
1145.134, 8851.000
1146.224, 8708.000
1147.313, 8639.000
1148.402, 8628.000
1149.492, 8583.000
1150.581, 8411.000
1151.670, 8483.000
1152.758, 8450.000
1153.847, 8310.000
1154.935, 8348.000
1156.024, 8359.000
1157.112, 8299.000
1158.200, 8314.712
1159.287, 8359.000
1160.375, 8237.000
1161.462, 8278.000
1162.550, 8159.000
1163.637, 8141.000
1164.724, 8153.000
1165.810, 8213.000
1166.897, 8165.000
1167.983, 8064.000
1169.070, 8124.000
1170.156, 8171.000
1171.242, 8040.000
1172.327, 8030.000
1173.413, 7951.000
1174.499, 8048.000
1175.584, 8079.000
1176.669, 8137.000
1177.754, 8113.434
1178.839, 8106.000
1179.923, 8030.000
1181.008, 7910.000
1182.092, 7865.000
1183.176, 7931.000
1184.260, 7911.226
1185.344, 7948.646
1186.428, 7979.000
1187.511, 8040.000
1188.595, 8008.000
1189.678, 8076.000
1190.761, 7995.000
1191.843, 8034.000
1192.926, 8035.000
1194.009, 8077.000
1195.091, 7969.000
1196.173, 7966.000
1197.255, 7970.000
1198.337, 7943.971
1199.419, 7927.504
1200.500, 7985.000
1201.582, 7895.000
1202.663, 7958.000
1203.744, 7999.000
1204.825, 8135.000
1205.905, 7972.000
1206.986, 8002.000
1208.066, 8051.000
1209.146, 7960.000
1210.226, 7970.000
1211.306, 7997.000
1212.386, 8002.000
1213.466, 7922.000
1214.545, 8088.000
1215.624, 8123.000
1216.703, 7935.000
1217.782, 8041.000
1218.861, 7963.000
1219.939, 8020.000
1221.018, 8106.000
1222.096, 8017.000
1223.174, 8044.000
1224.252, 7929.000
1225.330, 8105.000
1226.407, 8013.000
1227.485, 8028.000
1228.562, 8020.000
1229.639, 8114.000
1230.716, 8116.000
1231.793, 8092.000
1232.869, 8108.000
1233.946, 8143.000
1235.022, 8191.000
1236.098, 8119.000
1237.174, 8057.000
1238.250, 8079.000
1239.325, 8148.000
1240.401, 7972.000
1241.476, 8219.000
1242.551, 8225.000
1243.626, 8056.000
1244.701, 8087.000
1245.776, 8176.000
1246.850, 8293.000
1247.924, 8086.000
1248.999, 8058.000
1250.073, 8086.000
1251.146, 8155.000
1252.220, 8146.000
1253.293, 8101.000
1254.367, 8140.000
1255.440, 8138.892
1256.513, 8235.000
1257.586, 8200.000
1258.658, 8240.000
1259.731, 8302.000
1260.803, 8253.000
1261.875, 8193.000
1262.947, 8136.000
1264.019, 8109.000
1265.091, 8235.000
1266.162, 8346.000
1267.234, 8276.000
1268.305, 8345.000
1269.376, 8430.000
1270.447, 8191.000
1271.517, 8302.000
1272.588, 8309.000
1273.658, 8231.000
1274.729, 8398.000
1275.799, 8361.000
1276.868, 8441.000
1277.938, 8270.000
1279.008, 8292.000
1280.077, 8377.000
1281.146, 8164.000
1282.215, 8349.000
1283.284, 8405.000
1284.353, 8204.000
1285.421, 8223.000
1286.490, 8372.000
1287.558, 8349.000
1288.626, 8288.000
1289.694, 8387.000
1290.762, 8385.000
1291.829, 8227.000
1292.897, 8331.000
1293.964, 8384.000
1295.031, 8399.000
1296.098, 8447.000
1297.165, 8303.000
1298.231, 8442.000
1299.298, 8378.000
1300.364, 8305.000
1301.430, 8409.000
1302.496, 8337.000
1303.562, 8438.000
1304.627, 8406.000
1305.693, 8408.000
1306.758, 8497.000
1307.823, 8433.000
1308.888, 8448.000
1309.953, 8529.000
1311.018, 8512.000
1312.082, 8456.000
1313.146, 8422.000
1314.210, 8349.000
1315.274, 8442.000
1316.338, 8389.000
1317.402, 8378.000
1318.465, 8456.000
1319.529, 8468.000
1320.592, 8437.000
1321.655, 8448.000
1322.718, 8417.000
1323.780, 8421.000
1324.843, 8498.000
1325.905, 8610.000
1326.967, 8550.703
1328.029, 8754.000
1329.091, 8419.000
1330.153, 8507.000
1331.214, 8338.000
1332.275, 8423.000
1333.337, 8467.000
1334.398, 8457.000
1335.458, 8441.000
1336.519, 8443.000
1337.580, 8503.000
1338.640, 8447.000
1339.700, 8552.000
1340.760, 8557.000
1341.820, 8502.000
1342.880, 8561.000
1343.939, 8483.000
1344.999, 8521.000
1346.058, 8486.000
1347.117, 8473.000
1348.176, 8406.000
1349.235, 8430.017
1350.293, 8465.000
1351.351, 8430.000
1352.410, 8503.000
1353.468, 8439.000
1354.526, 8496.000
1355.583, 8590.000
1356.641, 8541.000
1357.698, 8486.000
1358.756, 8544.000
1359.813, 8558.000
1360.869, 8561.000
1361.926, 8456.000
1362.983, 8463.000
1364.039, 8437.140
1365.095, 8585.000
1366.152, 8493.000
1367.207, 8470.000
1368.263, 8661.000
1369.319, 8576.000
1370.374, 8460.000
1371.430, 8693.000
1372.485, 8590.000
1373.540, 8483.000
1374.594, 8657.000
1375.649, 8556.000
1376.703, 8730.000
1377.758, 8571.000
1378.812, 8571.000
1379.866, 8646.000
1380.920, 8512.000
1381.973, 8511.000
1383.027, 8638.000
1384.080, 8601.000
1385.133, 8565.000
1386.186, 8639.000
1387.239, 8640.000
1388.291, 8577.000
1389.344, 8664.000
1390.396, 8637.295
1391.448, 8688.000
1392.500, 8642.000
1393.552, 8657.000
1394.604, 8618.000
1395.655, 8539.000
1396.707, 8582.000
1397.758, 8702.000
1398.809, 8623.000
1399.860, 8658.000
1400.910, 8648.000
1401.961, 8600.000
1403.011, 8569.000
1404.061, 8609.943
1405.111, 8707.000
1406.161, 8709.000
1407.211, 8703.000
1408.260, 8764.000
1409.310, 8698.000
1410.359, 8758.000
1411.408, 8672.000
1412.457, 8696.639
1413.506, 8779.000
1414.554, 8757.000
1415.603, 8782.000
1416.651, 8908.000
1417.699, 8901.000
1418.747, 8980.000
1419.794, 8808.000
1420.842, 8910.000
1421.889, 8908.000
1422.937, 8807.000
1423.984, 8978.000
1425.031, 8910.000
1426.077, 8826.000
1427.124, 8942.000
1428.170, 8974.000
1429.217, 9016.000
1430.263, 9021.000
1431.309, 9048.000
1432.354, 9159.000
1433.400, 9187.000
1434.445, 9331.000
1435.491, 9402.000
1436.536, 9730.000
1437.581, 10088.00
1438.625, 10447.00
1439.670, 10935.00
1440.714, 11668.00
1441.759, 12672.00
1442.803, 13986.00
1443.847, 15222.00
1444.890, 16204.00
1445.934, 15982.00
1446.978, 14842.00
1448.021, 13584.00
1449.064, 12572.00
1450.107, 11710.00
1451.150, 11122.00
1452.192, 10774.00
1453.235, 10473.00
1454.277, 10234.00
1455.319, 10198.00
1456.361, 9865.000
1457.403, 10045.00
1458.445, 9854.000
1459.486, 9758.000
1460.528, 9760.000
1461.569, 9634.000
1462.610, 9769.000
1463.651, 9707.000
1464.691, 9594.000
1465.732, 9488.000
1466.772, 9500.801
1467.812, 9586.000
1468.852, 9511.000
1469.892, 9518.000
1470.932, 9483.000
1471.971, 9414.000
1473.011, 9484.000
1474.050, 9446.000
1475.089, 9459.000
1476.128, 9559.000
1477.166, 9505.000
1478.205, 9548.000
1479.243, 9528.000
1480.282, 9473.000
1481.320, 9522.000
1482.357, 9475.000
1483.395, 9450.000
1484.433, 9451.000
1485.470, 9351.000
1486.507, 9414.000
1487.544, 9437.000
1488.581, 9256.000
1489.618, 9340.000
1490.655, 9352.000
1491.691, 9329.000
1492.727, 9345.379
1493.763, 9317.000
1494.799, 9287.000
1495.835, 9249.000
1496.871, 9225.836
1497.906, 9123.000
1498.941, 9163.000
1499.976, 9155.000
1501.011, 9101.000
1502.046, 9230.000
1503.081, 9119.000
1504.115, 9107.000
1505.149, 9218.000
1506.183, 9107.000
1507.217, 9091.000
1508.251, 9091.000
1509.285, 9138.000
1510.318, 9093.000
1511.352, 9125.000
1512.385, 9192.000
1513.418, 9025.000
1514.450, 9274.000
1515.483, 9168.000
1516.516, 9071.000
1517.548, 9122.000
1518.580, 9092.000
1519.612, 9208.000
1520.644, 9133.000
1521.675, 9239.000
1522.707, 9226.000
1523.738, 9198.000
1524.769, 9149.000
1525.800, 9240.000
1526.831, 9113.000
1527.862, 9282.000
1528.892, 9206.000
1529.923, 9170.000
1530.953, 9236.000
1531.983, 9341.000
1533.013, 9150.000
1534.042, 9263.000
1535.072, 9235.000
1536.101, 9338.000
1537.131, 9168.000
1538.160, 9305.000
1539.188, 9063.000
1540.217, 9339.000
1541.246, 9268.000
1542.274, 9238.000
1543.302, 9151.000
1544.330, 9316.000
1545.358, 9242.000
1546.386, 9312.000
1547.413, 9231.000
1548.441, 9415.000
1549.468, 9346.000
1550.495, 9329.000
1551.522, 9328.000
1552.549, 9331.000
1553.575, 9294.000
1554.602, 9329.407
1555.628, 9271.000
1556.654, 9361.000
1557.680, 9400.000
1558.706, 9373.000
1559.731, 9419.000
1560.757, 9236.000
1561.782, 9220.000
1562.807, 9312.000
1563.832, 9411.000
1564.857, 9315.000
1565.881, 9310.000
1566.906, 9433.000
1567.930, 9313.000
1568.954, 9330.000
1569.978, 9396.000
1571.002, 9320.000
1572.025, 9383.000
1573.049, 9377.000
1574.072, 9305.000
1575.095, 9407.000
1576.118, 9347.000
1577.141, 9353.000
##END=



