##NAMES=Magnetite
##RRUFFID=R060191
##IDEAL CHEMISTRY=Fe^2+^Fe^3+^_2_O_4_
##LOCALITY=Merrry Widow mine, Vancouver Island, British Columbia, Canada
##OWNER=RRUFF
##SOURCE=Lloyd Twaites
##DESCRIPTION=Grayish-black octahedral crystals
##STATUS=The identification of this mineral has been confirmed by X-ray diffraction and chemical analysis
##URL=rruff.info/R060191
##MEASURED CHEMISTRY=(Fe^2+^_0.97_Mg_0.03_)(Fe^3+^_0.97_Al_0.03_)_2_O_4_
##PIN_ID=M01451
##ORIENTATION=Laser parallel to -a* (-1 0 0). Fiducial mark perpendicular to laser is parallel to -c [0 0 -1]
126.5290, 43839.00
127.7630, 44268.00
128.9970, 44155.00
130.2300, 44013.00
131.4640, 43889.00
132.6970, 43831.00
133.9300, 43827.12
135.1630, 43873.17
136.3950, 43986.00
137.6280, 44125.00
138.8600, 44000.08
140.0920, 43901.87
141.3240, 43733.00
142.5560, 43450.00
143.7880, 43258.00
145.0190, 42996.68
146.2510, 42926.00
147.4820, 43020.00
148.7130, 43241.00
149.9440, 43427.00
151.1750, 43763.00
152.4050, 43528.00
153.6360, 43491.25
154.8660, 43063.00
156.0960, 42990.00
157.3260, 42743.00
158.5560, 42469.00
159.7850, 42471.00
161.0150, 42705.00
162.2440, 42653.33
163.4730, 42717.83
164.7020, 42768.00
165.9310, 42739.00
167.1590, 42518.00
168.3880, 42491.00
169.6160, 42539.00
170.8440, 42565.00
172.0720, 42576.00
173.3000, 42298.00
174.5280, 41964.00
175.7550, 42095.00
176.9820, 42077.00
178.2100, 41984.00
179.4370, 42199.00
180.6630, 42418.00
181.8900, 42313.00
183.1170, 42168.00
184.3430, 42130.00
185.5690, 42239.58
186.7950, 42712.31
188.0210, 43051.00
189.2470, 43261.20
190.4720, 43050.14
191.6970, 43312.43
192.9230, 43342.04
194.1480, 43332.54
195.3730, 43573.55
196.5970, 43265.61
197.8220, 43440.72
199.0460, 43380.08
200.2700, 43382.62
201.4940, 43151.22
202.7180, 42951.92
203.9420, 42925.26
205.1660, 42174.00
206.3890, 41793.00
207.6120, 41483.00
208.8350, 41673.00
210.0580, 41519.00
211.2810, 41586.00
212.5040, 41822.00
213.7260, 41586.00
214.9480, 41415.00
216.1700, 41222.00
217.3920, 41498.00
218.6140, 41284.31
219.8360, 41310.25
221.0570, 41292.00
222.2790, 41245.00
223.5000, 41480.00
224.7210, 41461.00
225.9410, 41654.00
227.1620, 41295.00
228.3820, 41038.00
229.6030, 41524.00
230.8230, 41211.00
232.0430, 41442.00
233.2630, 41392.00
234.4820, 41341.00
235.7020, 41535.00
236.9210, 41348.00
238.1400, 41422.00
239.3590, 41143.00
240.5780, 41681.00
241.7970, 41122.00
243.0150, 41454.00
244.2340, 41390.00
245.4520, 41266.00
246.6700, 41413.00
247.8880, 41583.00
249.1060, 41429.00
250.3230, 41382.00
251.5400, 41548.00
252.7580, 41429.00
253.9750, 41731.00
255.1920, 41926.00
256.4080, 42304.00
257.6250, 43553.00
258.8410, 44554.00
260.0580, 43846.00
261.2740, 42247.00
262.4900, 41864.00
263.7050, 41805.00
264.9210, 41963.00
266.1360, 42205.00
267.3520, 42013.00
268.5670, 42076.00
269.7820, 42026.15
270.9960, 41819.00
272.2110, 41969.00
273.4250, 42114.00
274.6400, 42334.00
275.8540, 42241.00
277.0680, 42399.00
278.2810, 42539.00
279.4950, 42327.00
280.7090, 42650.00
281.9220, 42547.00
283.1350, 42483.00
284.3480, 42564.00
285.5610, 42732.00
286.7730, 42762.00
287.9860, 42864.00
289.1980, 42659.00
290.4100, 42791.00
291.6220, 42769.00
292.8340, 42660.61
294.0460, 42934.99
295.2570, 43106.09
296.4690, 43179.50
297.6800, 42862.52
298.8910, 43049.61
300.1020, 43034.70
301.3120, 43011.46
302.5230, 43269.51
303.7330, 43009.27
304.9440, 43262.86
306.1540, 43311.31
307.3630, 43453.61
308.5730, 43290.38
309.7830, 43260.34
310.9920, 43511.53
312.2010, 43244.46
313.4100, 43447.00
314.6190, 43526.00
315.8280, 43494.50
317.0370, 43387.00
318.2450, 43333.00
319.4530, 43165.00
320.6610, 43155.33
321.8690, 43276.00
323.0770, 43159.00
324.2850, 43165.00
325.4920, 43299.19
326.6990, 43120.00
327.9060, 43475.00
329.1130, 43053.00
330.3200, 43168.00
331.5270, 43205.00
332.7330, 43082.00
333.9390, 43118.00
335.1450, 42994.00
336.3510, 42989.00
337.5570, 43016.00
338.7630, 43285.00
339.9680, 42941.00
341.1740, 43219.00
342.3790, 43106.00
343.5840, 43312.00
344.7890, 43294.70
345.9930, 43162.00
347.1980, 43126.00
348.4020, 43237.00
349.6060, 42877.00
350.8100, 42911.00
352.0140, 43042.00
353.2180, 43070.00
354.4210, 43145.00
355.6250, 42921.00
356.8280, 42833.00
358.0310, 43014.00
359.2340, 42969.00
360.4360, 43232.00
361.6390, 43037.00
362.8410, 43221.00
364.0430, 43237.00
365.2450, 43221.00
366.4470, 43446.00
367.6490, 43407.00
368.8510, 43246.73
370.0520, 43339.86
371.2530, 43410.04
372.4540, 43458.50
373.6550, 43420.21
374.8560, 43493.94
376.0560, 43522.75
377.2570, 43549.74
378.4570, 43639.20
379.6570, 43539.00
380.8570, 43840.00
382.0570, 43666.00
383.2560, 43618.00
384.4560, 43730.00
385.6550, 43515.00
386.8540, 43979.00
388.0530, 43746.00
389.2520, 43846.00
390.4510, 43899.00
391.6490, 43910.00
392.8470, 43849.00
394.0450, 44061.00
395.2430, 43949.00
396.4410, 44133.00
397.6390, 44065.00
398.8360, 44169.00
400.0340, 44272.05
401.2310, 44057.00
402.4280, 44392.00
403.6250, 44415.00
404.8210, 44278.00
406.0180, 44512.00
407.2140, 44494.00
408.4100, 44369.00
409.6060, 44468.00
410.8020, 44353.00
411.9980, 44403.41
413.1930, 44453.36
414.3890, 44537.00
415.5840, 44582.00
416.7790, 44765.00
417.9740, 44855.00
419.1680, 44910.00
420.3630, 44997.14
421.5570, 44944.00
422.7510, 45060.00
423.9450, 44777.00
425.1390, 44732.00
426.3330, 44956.00
427.5270, 45263.00
428.7200, 44984.00
429.9130, 44806.00
431.1060, 45086.00
432.2990, 45230.00
433.4920, 45362.00
434.6840, 45368.12
435.8770, 45282.00
437.0690, 45202.00
438.2610, 45220.47
439.4530, 45050.00
440.6450, 45167.00
441.8360, 45148.62
443.0280, 45179.00
444.2190, 45293.00
445.4100, 45389.00
446.6010, 45585.00
447.7920, 45581.39
448.9820, 45357.00
450.1730, 45539.00
451.3630, 45511.00
452.5530, 45332.00
453.7430, 45538.00
454.9330, 45532.00
456.1230, 45649.00
457.3120, 45731.00
458.5010, 45666.00
459.6910, 45807.00
460.8800, 45777.33
462.0680, 45679.00
463.2570, 45838.00
464.4460, 45752.00
465.6340, 45896.00
466.8220, 45894.00
468.0100, 45857.00
469.1980, 45812.00
470.3860, 45899.20
471.5730, 45889.67
472.7600, 46054.00
473.9480, 46028.00
475.1350, 46049.00
476.3210, 46236.00
477.5080, 46061.00
478.6950, 46304.00
479.8810, 46396.00
481.0670, 46034.00
482.2530, 46136.00
483.4390, 46723.00
484.6250, 47184.00
485.8100, 46823.00
486.9960, 46871.00
488.1810, 46872.00
489.3660, 46791.00
490.5510, 47001.00
491.7360, 47064.00
492.9200, 47024.00
494.1050, 47193.00
495.2890, 47489.00
496.4730, 47589.00
497.6570, 47599.00
498.8400, 47761.00
500.0240, 47857.21
501.2070, 47650.00
502.3910, 48076.00
503.5740, 48240.00
504.7570, 48249.22
505.9400, 48053.00
507.1220, 48262.00
508.3050, 48109.00
509.4870, 48177.00
510.6690, 48617.00
511.8510, 48873.00
513.0330, 48841.00
514.2140, 48820.00
515.3960, 49098.00
516.5770, 49194.00
517.7580, 49463.00
518.9390, 49215.00
520.1200, 49605.00
521.3010, 49857.00
522.4810, 49529.00
523.6610, 50041.00
524.8420, 50068.00
526.0220, 50386.00
527.2010, 50513.00
528.3810, 50640.00
529.5610, 50885.00
530.7400, 51035.00
531.9190, 51191.91
533.0980, 51254.00
534.2770, 51397.00
535.4560, 51375.00
536.6340, 51539.04
537.8120, 51494.00
538.9910, 51763.00
540.1690, 51889.00
541.3460, 51912.00
542.5240, 52012.00
543.7020, 52423.00
544.8790, 52632.00
546.0560, 52427.00
547.2330, 52791.00
548.4100, 52567.00
549.5870, 52835.00
550.7630, 52912.00
551.9400, 52760.00
553.1160, 52834.00
554.2920, 53038.00
555.4680, 52906.00
556.6440, 53114.00
557.8190, 52830.00
558.9950, 52476.00
560.1700, 52145.00
561.3450, 52564.00
562.5200, 52462.00
563.6950, 52708.00
564.8690, 52794.00
566.0440, 52684.00
567.2180, 52185.00
568.3920, 52157.00
569.5660, 51933.00
570.7400, 52283.00
571.9130, 51819.00
573.0870, 51945.00
574.2600, 52083.00
575.4330, 51621.00
576.6060, 50866.81
577.7790, 50804.86
578.9520, 50639.62
580.1240, 50376.95
581.2960, 49723.90
582.4690, 49574.69
583.6410, 49223.72
584.8120, 48864.71
585.9840, 48786.71
587.1560, 48190.45
588.3270, 48445.00
589.4980, 48050.00
590.6690, 48071.00
591.8400, 48371.00
593.0110, 48299.00
594.1810, 48075.00
595.3510, 47988.00
596.5220, 48079.72
597.6920, 48060.00
598.8610, 48126.52
600.0310, 48312.00
601.2010, 48363.00
602.3700, 48448.00
603.5390, 48723.00
604.7080, 48735.39
605.8770, 48782.00
607.0460, 48977.00
608.2140, 48698.00
609.3830, 48942.00
610.5510, 48811.00
611.7190, 49281.00
612.8870, 49216.00
614.0550, 49534.00
615.2220, 49592.00
616.3900, 49604.00
617.5570, 49766.00
618.7240, 49742.00
619.8910, 50058.00
621.0580, 50462.00
622.2240, 50318.00
623.3910, 50775.00
624.5570, 50844.00
625.7230, 50895.00
626.8890, 51104.00
628.0550, 51577.00
629.2200, 51546.00
630.3860, 52089.00
631.5510, 52549.00
632.7160, 52618.00
633.8810, 52921.00
635.0460, 53105.00
636.2100, 53698.00
637.3750, 53987.00
638.5390, 54565.00
639.7030, 54993.83
640.8670, 55719.00
642.0310, 55988.00
643.1950, 56565.00
644.3580, 57265.00
645.5210, 57659.00
646.6850, 58411.00
647.8480, 58881.00
649.0100, 59815.00
650.1730, 60670.00
651.3350, 61189.00
652.4980, 62180.00
653.6600, 63073.00
654.8220, 64156.00
655.9840, 65246.00
657.1450, 66267.00
658.3070, 66912.00
659.4680, 67717.00
660.6300, 68808.00
661.7910, 69811.00
662.9510, 70416.00
664.1120, 71495.00
665.2730, 72034.00
666.4330, 72120.04
667.5930, 72889.25
668.7530, 73372.93
669.9130, 73572.36
671.0730, 73422.47
672.2320, 73122.45
673.3920, 72514.79
674.5510, 72767.87
675.7100, 72544.00
676.8690, 71971.00
678.0280, 71347.00
679.1860, 70682.00
680.3450, 69835.00
681.5030, 69044.40
682.6610, 68225.00
683.8190, 67222.00
684.9770, 66391.00
686.1340, 65383.00
687.2920, 64416.00
688.4490, 63396.00
689.6060, 62527.22
690.7630, 61660.00
691.9200, 60700.00
693.0760, 60010.00
694.2330, 58891.00
695.3890, 58084.00
696.5450, 57497.00
697.7010, 56542.00
698.8570, 56154.00
700.0130, 55439.00
701.1680, 54644.00
702.3230, 54100.00
703.4780, 53548.00
704.6330, 53261.00
705.7880, 52439.02
706.9430, 52284.03
708.0970, 52026.11
709.2520, 51670.13
710.4060, 50924.12
711.5600, 50682.19
712.7140, 50238.25
713.8670, 49786.34
715.0210, 49615.35
716.1740, 49204.00
717.3270, 49088.00
718.4800, 48566.00
719.6330, 48487.00
720.7860, 48228.35
721.9380, 48320.00
723.0910, 47864.00
724.2430, 47608.00
725.3950, 47483.00
726.5470, 47207.00
727.6980, 46933.00
728.8500, 46549.00
730.0010, 46454.38
731.1530, 46719.00
732.3040, 46169.00
733.4550, 46370.00
734.6050, 46122.00
735.7560, 46298.00
736.9060, 45940.00
738.0560, 46151.00
739.2060, 45821.00
740.3560, 45512.00
741.5060, 45868.00
742.6560, 45305.00
743.8050, 45310.00
744.9540, 45293.00
746.1030, 45023.00
747.2520, 44953.00
748.4010, 45000.00
749.5500, 44651.00
750.6980, 44878.00
751.8460, 44847.00
752.9950, 44762.00
754.1420, 44753.00
755.2900, 44621.00
756.4380, 44538.00
757.5850, 44747.00
758.7330, 44491.00
759.8800, 44623.00
761.0270, 44827.00
762.1730, 44373.00
763.3200, 44675.00
764.4670, 44732.00
765.6130, 44368.00
766.7590, 44391.00
767.9050, 44432.00
769.0510, 44260.00
770.1960, 44228.00
771.3420, 44730.00
772.4870, 44047.00
773.6320, 44416.00
774.7770, 44149.00
775.9220, 44215.00
777.0670, 44190.00
778.2110, 44075.00
779.3560, 44092.00
780.5000, 44023.00
781.6440, 43917.07
782.7880, 44019.00
783.9320, 43696.00
785.0750, 43798.00
786.2180, 43700.00
787.3620, 43817.00
788.5050, 43947.00
789.6480, 44028.00
790.7900, 44178.00
791.9330, 43747.00
793.0750, 43606.00
794.2170, 43807.00
795.3590, 43794.00
796.5010, 44137.00
797.6430, 43764.00
798.7850, 43869.00
799.9260, 43748.00
801.0670, 43848.00
802.2080, 43960.00
803.3490, 43702.00
804.4900, 44139.00
805.6310, 44008.02
806.7710, 43522.00
807.9110, 44083.00
809.0510, 43808.00
810.1910, 43900.00
811.3310, 43696.00
812.4710, 43871.00
813.6100, 43570.00
814.7490, 43674.00
815.8880, 43930.00
817.0270, 43917.00
818.1660, 43660.00
819.3050, 43599.00
820.4430, 43826.00
821.5820, 43219.00
822.7200, 43688.00
823.8580, 43757.00
824.9950, 43489.00
826.1330, 43768.00
827.2710, 43928.00
828.4080, 43486.00
829.5450, 43531.00
830.6820, 43553.00
831.8190, 43512.00
832.9560, 43604.00
834.0920, 43435.00
835.2280, 43357.00
836.3650, 43540.00
837.5010, 43142.00
838.6360, 43535.00
839.7720, 43424.00
840.9080, 43595.00
842.0430, 43663.00
843.1780, 43569.00
844.3130, 43717.00
845.4480, 43691.00
846.5830, 43719.00
847.7170, 43853.00
848.8520, 43694.00
849.9860, 43637.29
851.1200, 43855.70
852.2540, 43970.84
853.3870, 43988.29
854.5210, 43615.35
855.6540, 43746.51
856.7880, 43675.64
857.9210, 43596.51
859.0540, 43798.62
860.1860, 43482.50
861.3190, 43785.00
862.4510, 43753.00
863.5840, 43725.00
864.7160, 43796.04
865.8480, 43746.06
866.9790, 43859.00
868.1110, 43775.00
869.2420, 43741.00
870.3740, 43879.00
871.5050, 43639.00
872.6360, 43812.00
873.7660, 43717.00
874.8970, 44030.00
876.0280, 43953.61
877.1580, 43845.00
878.2880, 44087.00
879.4180, 43822.00
880.5480, 44206.00
881.6770, 44059.00
882.8070, 43858.00
883.9360, 43742.00
885.0650, 43865.00
886.1940, 43870.00
887.3230, 43951.00
888.4520, 43946.00
889.5800, 43893.05
890.7090, 43966.50
891.8370, 43951.00
892.9650, 44047.85
894.0930, 44032.00
895.2200, 44084.00
896.3480, 44056.00
897.4750, 44077.00
898.6020, 44068.64
899.7290, 44071.45
900.8560, 44020.00
901.9830, 44075.00
903.1090, 44014.00
904.2360, 43992.00
905.3620, 44187.00
906.4880, 44236.00
907.6140, 44271.72
908.7400, 44176.00
909.8650, 44138.29
910.9900, 44371.26
912.1160, 44500.97
913.2410, 44532.96
914.3660, 44174.59
915.4900, 44320.30
916.6150, 44263.99
917.7390, 44199.40
918.8640, 44416.05
919.9880, 44114.46
921.1120, 44326.65
922.2350, 44333.75
923.3590, 44307.00
924.4820, 44585.00
925.6060, 44110.00
926.7290, 44286.00
927.8520, 44622.00
928.9740, 44278.00
930.0970, 44208.00
931.2190, 44276.00
932.3420, 44104.00
933.4640, 44548.00
934.5860, 44219.00
935.7080, 44599.00
936.8290, 44325.00
937.9510, 44190.00
939.0720, 44451.00
940.1930, 44374.00
941.3140, 44359.00
942.4350, 44669.00
943.5560, 44590.00
944.6760, 44442.00
945.7960, 44548.00
946.9170, 44792.00
948.0370, 44364.00
949.1560, 44606.00
950.2760, 44529.00
951.3960, 44472.00
952.5150, 44615.00
953.6340, 44589.00
954.7530, 44506.00
955.8720, 44596.00
956.9910, 44567.00
958.1090, 44728.00
959.2280, 44676.00
960.3460, 44723.00
961.4640, 44477.00
962.5820, 44366.11
963.6990, 44619.06
964.8170, 44768.76
965.9340, 44820.73
967.0510, 44482.34
968.1690, 44648.04
969.2850, 44611.70
970.4020, 44567.09
971.5190, 44803.71
972.6350, 44334.54
973.7510, 44592.41
974.8670, 44747.03
975.9830, 44803.93
977.0990, 44470.47
978.2150, 44641.09
979.3300, 44609.68
980.4450, 44569.98
981.5600, 44811.52
982.6750, 44534.81
983.7900, 44771.90
984.9050, 44803.89
986.0190, 44929.72
987.1340, 44852.31
988.2480, 44837.67
989.3620, 45026.35
990.4750, 45102.43
991.5890, 45001.60
992.7020, 45133.38
993.8160, 45136.00
994.9290, 44962.00
996.0420, 44997.00
997.1550, 45034.00
998.2670, 45107.00
999.3800, 44994.00
1000.492, 45075.00
1001.604, 45188.00
1002.716, 45024.00
1003.828, 45310.00
1004.940, 45283.00
1006.051, 45405.00
1007.163, 45259.00
1008.274, 45266.00
1009.385, 45211.00
1010.496, 45214.48
1011.606, 45214.25
1012.717, 45246.00
1013.827, 45265.00
1014.937, 45214.00
1016.047, 45309.98
1017.157, 45188.00
1018.267, 45357.00
1019.377, 45114.72
1020.486, 45338.37
1021.595, 45458.75
1022.704, 45481.43
1023.813, 45113.73
1024.922, 45250.12
1026.030, 45184.50
1027.139, 45110.59
1028.247, 45317.94
1029.355, 45007.04
1030.463, 45209.92
1031.571, 45207.70
1032.678, 45299.37
1033.786, 45292.80
1034.893, 45361.00
1036.000, 45234.00
1037.107, 45296.00
1038.214, 45163.00
1039.321, 45586.00
1040.427, 45598.00
1041.533, 45666.48
1042.639, 45368.00
1043.745, 45674.00
1044.851, 45846.00
1045.957, 45632.00
1047.062, 45743.00
1048.168, 45585.00
1049.273, 46040.00
1050.378, 45638.00
1051.482, 45987.00
1052.587, 45719.00
1053.692, 46001.00
1054.796, 45715.00
1055.900, 45856.00
1057.004, 45817.00
1058.108, 45604.00
1059.212, 45863.00
1060.315, 46015.00
1061.418, 45512.00
1062.522, 46004.00
1063.625, 45922.00
1064.728, 46174.00
1065.830, 46163.02
1066.933, 45938.00
1068.035, 45938.00
1069.137, 46056.00
1070.239, 45776.00
1071.341, 46127.00
1072.443, 45800.00
1073.545, 46297.00
1074.646, 45916.00
1075.747, 46208.00
1076.848, 45953.00
1077.949, 45838.00
1079.050, 46151.00
1080.150, 46254.00
1081.251, 45960.00
1082.351, 46333.00
1083.451, 46398.00
1084.551, 46033.00
1085.651, 45985.00
1086.750, 46333.00
1087.850, 46136.00
1088.949, 46369.00
1090.048, 45925.00
1091.147, 46049.00
1092.246, 46074.79
1093.345, 45979.50
1094.443, 46188.00
1095.541, 46078.00
1096.639, 46063.00
1097.737, 46191.00
1098.835, 46181.00
1099.933, 46166.00
1101.030, 45882.00
1102.128, 45904.00
1103.225, 46066.00
1104.322, 45819.00
1105.419, 45899.00
1106.515, 46140.00
1107.612, 46060.00
1108.708, 45944.00
1109.804, 45926.00
1110.900, 45743.00
1111.996, 46007.00
1113.092, 46049.00
1114.187, 45869.00
1115.283, 45969.00
1116.378, 45854.00
1117.473, 45988.00
1118.568, 45872.00
1119.662, 45755.00
1120.757, 45607.00
1121.851, 45628.97
1122.946, 45725.00
1124.040, 45699.00
1125.134, 45845.00
1126.227, 45921.00
1127.321, 45767.00
1128.414, 45377.00
1129.508, 45957.00
1130.601, 45387.00
1131.693, 46016.00
1132.786, 45710.00
1133.879, 45539.00
1134.971, 45690.00
1136.064, 45651.00
1137.156, 45613.00
1138.248, 45639.00
1139.339, 45674.00
1140.431, 45789.00
1141.522, 45377.00
1142.614, 45341.00
1143.705, 45421.00
1144.796, 45148.00
1145.887, 45559.00
1146.977, 45511.00
1148.068, 45483.00
1149.158, 45429.00
1150.248, 45392.00
1151.338, 45428.00
1152.428, 45356.00
1153.518, 45375.00
1154.607, 45252.00
1155.696, 45094.00
1156.785, 45295.00
1157.874, 44990.00
1158.963, 44975.00
1160.052, 45084.00
1161.141, 45039.00
1162.229, 44961.00
1163.317, 45061.00
1164.405, 45122.00
1165.493, 44937.00
1166.581, 45254.00
1167.668, 45379.00
1168.756, 45215.00
1169.843, 45254.00
1170.930, 45240.00
1172.017, 45198.00
1173.103, 45305.00
1174.190, 45201.00
1175.276, 44959.00
1176.363, 44925.00
1177.449, 45172.00
1178.535, 45381.00
1179.620, 45308.00
1180.706, 45502.00
1181.791, 45283.00
1182.877, 45369.00
1183.962, 45203.00
1185.047, 45410.00
1186.131, 45586.00
1187.216, 45123.00
1188.300, 44951.00
1189.385, 45298.00
1190.469, 45115.00
1191.553, 45362.00
1192.637, 45365.00
1193.720, 45274.00
1194.804, 45343.70
1195.887, 45251.00
1196.970, 45235.00
1198.053, 45263.00
1199.136, 45144.00
1200.219, 45168.80
1201.301, 45115.00
1202.383, 45231.00
1203.465, 45205.00
1204.547, 45434.00
1205.629, 45303.00
1206.711, 45338.00
1207.792, 45522.00
1208.874, 45219.00
1209.955, 45047.00
1211.036, 45518.00
1212.117, 45467.00
1213.198, 45122.00
1214.278, 44916.00
1215.359, 45248.00
1216.439, 45375.00
1217.519, 45550.00
1218.599, 45229.00
1219.678, 45327.00
1220.758, 45357.00
1221.837, 45439.00
1222.917, 45255.00
1223.996, 45423.00
1225.075, 45057.07
1226.153, 45299.41
1227.232, 45438.51
1228.310, 45479.89
1229.389, 45130.90
1230.467, 45285.99
1231.545, 45239.06
1232.622, 45183.85
1233.700, 45409.88
1234.777, 45117.66
1235.855, 45339.24
1236.932, 45355.71
1238.009, 45466.05
1239.086, 45373.13
1240.162, 45342.98
1241.239, 45516.17
1242.315, 45576.77
1243.391, 45460.44
1244.467, 45576.74
1245.543, 45277.41
1246.619, 45342.80
1247.694, 45565.54
1248.769, 45459.43
1249.844, 45491.00
1250.919, 45419.00
1251.994, 45445.00
1253.069, 45476.00
1254.144, 45464.57
1255.218, 45495.29
1256.292, 45491.00
1257.366, 45508.00
1258.440, 45499.00
1259.514, 45459.00
1260.587, 45607.88
1261.661, 45624.67
1262.734, 45773.00
1263.807, 45849.00
1264.880, 45641.95
1265.952, 45852.00
1267.025, 45549.00
1268.097, 45968.00
1269.170, 45746.00
1270.242, 45790.86
1271.314, 45782.62
1272.385, 45791.00
1273.457, 45684.00
1274.528, 45671.00
1275.600, 45829.00
1276.671, 45596.00
1277.742, 45762.00
1278.812, 45542.00
1279.883, 45740.00
1280.954, 46125.00
1282.024, 46086.00
1283.094, 45953.00
1284.164, 46043.15
1285.234, 45901.00
1286.303, 45947.00
1287.373, 45888.00
1288.442, 45933.00
1289.511, 46051.00
1290.580, 45826.00
1291.649, 45707.00
1292.718, 46102.00
1293.786, 45972.00
1294.855, 45952.00
1295.923, 45882.00
1296.991, 45842.00
1298.059, 46260.00
1299.126, 46088.00
1300.194, 46225.00
1301.261, 46086.00
1302.328, 46149.00
1303.395, 46128.00
1304.462, 46244.00
1305.529, 46141.00
1306.596, 46243.00
1307.662, 46081.00
1308.728, 46108.00
1309.794, 46344.00
1310.860, 46268.00
1311.926, 46264.00
1312.991, 46130.00
1314.057, 46281.00
1315.122, 46273.00
1316.187, 46418.00
1317.252, 46209.00
1318.317, 46435.00
1319.381, 46188.00
1320.446, 46003.00
1321.510, 46032.00
1322.574, 46180.00
1323.638, 46286.00
1324.702, 46234.00
1325.766, 46123.00
1326.829, 46126.00
1327.892, 46131.00
1328.956, 46388.00
1330.019, 46426.00
1331.081, 46196.00
1332.144, 46362.00
1333.206, 46226.00
1334.269, 46210.00
1335.331, 46260.00
1336.393, 46344.00
1337.455, 46188.25
1338.516, 45893.00
1339.578, 46021.00
1340.639, 46056.00
1341.701, 46260.00
1342.762, 46356.00
1343.822, 46165.00
1344.883, 46225.00
1345.944, 46069.00
1347.004, 46132.32
1348.064, 46072.00
1349.124, 46228.00
1350.184, 46229.00
1351.244, 46187.00
1352.304, 46292.00
1353.363, 46267.00
1354.422, 46191.00
1355.481, 46322.00
1356.540, 46099.00
1357.599, 46092.25
1358.657, 46276.00
1359.716, 46004.00
1360.774, 46061.00
1361.832, 46209.00
1362.890, 46037.00
1363.948, 46200.00
1365.006, 45818.00
1366.063, 46114.00
1367.120, 46315.00
1368.178, 45941.00
1369.234, 45987.00
1370.291, 46351.00
1371.348, 46252.00
1372.404, 45883.00
1373.461, 45994.00
1374.517, 46118.00
1375.573, 46235.00
1376.629, 46052.00
1377.684, 46080.00
1378.740, 46170.00
1379.795, 45974.00
1380.850, 46081.00
1381.905, 46092.00
1382.960, 45791.00
1384.015, 46030.00
1385.070, 46185.00
1386.124, 46235.00
1387.178, 46141.00
1388.232, 46040.00
1389.286, 45989.54
1390.340, 46236.16
1391.393, 46379.51
1392.447, 46425.15
1393.500, 46080.42
1394.553, 46239.77
1395.606, 46197.11
1396.659, 46146.16
1397.711, 46376.44
1398.764, 46088.49
1399.816, 46314.31
1400.868, 46335.04
1401.920, 46308.00
1402.972, 46153.00
1404.023, 46363.00
1405.075, 46151.00
1406.126, 45820.00
1407.177, 46122.00
1408.228, 45985.00
1409.279, 46148.00
1410.330, 46094.00
1411.380, 45957.00
1412.431, 46062.00
1413.481, 46139.00
1414.531, 46020.00
1415.580, 45989.00
1416.630, 45867.00
1417.680, 45957.55
1418.729, 46201.00
1419.778, 46181.00
1420.827, 46271.00
1421.876, 46425.00
1422.925, 46393.55
1423.973, 46368.23
1425.022, 46485.00
1426.070, 46172.00
1427.118, 46328.00
1428.166, 46239.00
1429.214, 46123.00
1430.261, 46164.04
1431.309, 45741.00
1432.356, 46224.00
1433.403, 45816.00
1434.450, 46089.00
1435.497, 45938.00
1436.543, 46083.00
1437.590, 46218.00
1438.636, 46137.06
1439.682, 46242.68
1440.728, 46104.00
1441.774, 46315.00
1442.819, 46309.00
1443.865, 46418.00
1444.910, 46227.00
1445.955, 46265.00
1447.000, 46166.00
1448.045, 46065.00
1449.090, 46180.00
1450.134, 46210.00
1451.178, 46419.00
1452.223, 46333.32
1453.267, 46319.00
1454.310, 46222.57
1455.354, 46223.00
1456.398, 46203.00
1457.441, 46409.00
1458.484, 46318.00
1459.527, 46329.00
1460.570, 46510.00
1461.613, 46422.83
1462.655, 46150.00
1463.698, 46311.00
1464.740, 46225.00
1465.782, 45934.00
1466.824, 46251.00
1467.866, 46134.00
1468.907, 46139.89
1469.948, 46221.32
1470.990, 46251.00
1472.031, 46122.00
1473.072, 46367.00
1474.112, 46093.00
1475.153, 46096.00
1476.194, 46362.00
1477.234, 46517.00
1478.274, 46474.52
1479.314, 46448.00
1480.354, 46338.00
1481.393, 46446.00
1482.433, 46247.00
1483.472, 46424.00
1484.511, 46247.00
1485.550, 46532.00
1486.589, 46464.00
1487.628, 46011.00
1488.666, 46333.00
1489.704, 46243.00
1490.743, 46419.00
1491.781, 45938.00
1492.819, 46287.00
1493.856, 46170.82
1494.894, 46024.00
1495.931, 46186.00
1496.968, 46188.00
1498.005, 46149.00
1499.042, 46037.00
1500.079, 46223.00
1501.115, 46107.00
1502.152, 46232.00
1503.188, 46444.00
1504.224, 46440.00
1505.260, 46108.00
1506.296, 46438.00
1507.331, 46307.00
1508.367, 46101.00
1509.402, 46433.00
1510.437, 46330.00
1511.472, 46289.00
1512.507, 46473.00
1513.541, 46055.00
1514.576, 46329.00
1515.610, 46039.00
1516.644, 46323.00
1517.678, 46072.00
1518.712, 46343.00
1519.746, 46256.37
1520.779, 46213.74
1521.813, 46293.00
1522.846, 46099.00
1523.879, 46402.00
1524.912, 46302.00
1525.944, 46340.00
1526.977, 46184.00
1528.009, 46051.00
1529.041, 46096.99
1530.073, 46493.00
1531.105, 46242.00
1532.137, 46139.00
1533.168, 46446.00
1534.200, 46268.00
1535.231, 46377.00
1536.262, 46416.00
1537.293, 46158.00
1538.324, 46244.00
1539.354, 46185.00
1540.385, 46530.00
1541.415, 46017.00
1542.445, 46329.00
1543.475, 46116.00
1544.505, 46271.00
1545.534, 46362.00
1546.564, 46050.00
##END=



