##NAMES=Magnesiochromite
##RRUFFID=R060796
##IDEAL CHEMISTRY=MgCr^3+^_2_O_4_
##LOCALITY=State Line Chrome mine (Low's mine), Cecil County, Maryland, USA
##OWNER=RRUFF
##SOURCE=California Institute of Technology
##DESCRIPTION=Black massive
##STATUS=The identification of this mineral has been confirmed by X-ray diffraction and chemical analysis
##URL=rruff.info/R060796
##MEASURED CHEMISTRY=(Mg_0.57_Fe^2+^_0.43_)_Σ=1_(Cr_1.52_Al_0.41_Fe^3+^_0.07_)_Σ=2_O_4_
##PIN_ID=L00965
##ORIENTATION=Laser parallel to b* (0 1 0). Fiducial mark perpendicular to laser is parallel to c [0 0 1]
141.3520, 14405.00
142.5830, 14399.00
143.8150, 14370.00
145.0460, 14279.00
146.2770, 14303.34
147.5080, 14459.00
148.7390, 14308.00
149.9700, 14436.00
151.2000, 14457.00
152.4310, 14262.00
153.6610, 14472.00
154.8910, 14438.00
156.1210, 14336.00
157.3500, 14242.00
158.5800, 14292.00
159.8090, 14119.00
161.0380, 14222.00
162.2670, 14527.00
163.4960, 14474.67
164.7240, 14480.59
165.9530, 14615.00
167.1810, 14297.00
168.4090, 14227.00
169.6370, 14159.00
170.8650, 14111.00
172.0920, 13911.00
173.3200, 13837.00
174.5470, 14037.00
175.7740, 14114.00
177.0010, 14325.00
178.2280, 14345.00
179.4540, 13911.00
180.6810, 14048.00
181.9070, 13828.00
183.1330, 13846.00
184.3590, 14025.00
185.5850, 13912.00
186.8100, 13938.00
188.0350, 14009.00
189.2610, 14054.00
190.4860, 14119.00
191.7110, 14246.00
192.9350, 14280.00
194.1600, 14332.00
195.3840, 14337.00
196.6080, 14190.00
197.8320, 14104.00
199.0560, 14132.00
200.2800, 14098.00
201.5030, 13974.00
202.7270, 13979.00
203.9500, 13767.00
205.1730, 13816.00
206.3950, 13605.00
207.6180, 13595.00
208.8410, 13328.00
210.0630, 13547.00
211.2850, 13396.00
212.5070, 13404.00
213.7290, 13490.00
214.9500, 13416.00
216.1720, 13556.00
217.3930, 13443.00
218.6140, 13366.00
219.8350, 13474.00
221.0560, 13289.00
222.2770, 13401.00
223.4970, 13271.00
224.7170, 13323.00
225.9370, 13413.00
227.1570, 13154.00
228.3770, 13196.00
229.5970, 13098.00
230.8160, 13088.00
232.0350, 12994.00
233.2540, 13154.00
234.4730, 13121.00
235.6920, 13068.00
236.9110, 13199.00
238.1290, 13155.00
239.3470, 12915.00
240.5650, 13037.00
241.7830, 12916.00
243.0010, 13080.00
244.2180, 13141.00
245.4360, 12807.00
246.6530, 13059.00
247.8700, 12856.00
249.0870, 12941.00
250.3040, 12993.00
251.5200, 12947.00
252.7370, 12762.00
253.9530, 12914.00
255.1690, 12800.00
256.3850, 12869.00
257.6000, 12935.00
258.8160, 12908.00
260.0310, 12778.00
261.2460, 12793.00
262.4610, 12777.00
263.6760, 12863.00
264.8910, 12689.00
266.1050, 12678.65
267.3200, 12772.00
268.5340, 12732.00
269.7480, 12957.00
270.9620, 12838.34
272.1750, 12935.00
273.3890, 12722.00
274.6020, 12553.00
275.8150, 12559.00
277.0280, 12706.00
278.2410, 12577.00
279.4540, 12650.00
280.6660, 12756.00
281.8790, 12562.00
283.0910, 12547.00
284.3030, 12763.00
285.5140, 12639.00
286.7260, 12609.00
287.9380, 12687.00
289.1490, 12572.81
290.3600, 12624.00
291.5710, 12478.00
292.7820, 12485.00
293.9920, 12469.00
295.2030, 12448.69
296.4130, 12521.00
297.6230, 12447.00
298.8330, 12509.00
300.0430, 12428.00
301.2520, 12398.00
302.4620, 12373.00
303.6710, 12534.00
304.8800, 12393.00
306.0890, 12421.00
307.2980, 12525.00
308.5070, 12378.00
309.7150, 12437.00
310.9230, 12371.00
312.1310, 12370.00
313.3390, 12463.00
314.5470, 12497.00
315.7550, 12354.00
316.9620, 12359.00
318.1690, 12308.00
319.3760, 12439.00
320.5830, 12472.00
321.7900, 12409.00
322.9960, 12532.00
324.2030, 12418.00
325.4090, 12431.00
326.6150, 12489.00
327.8210, 12473.00
329.0270, 12450.00
330.2320, 12274.00
331.4380, 12485.00
332.6430, 12281.00
333.8480, 12353.00
335.0530, 12391.00
336.2580, 12303.00
337.4620, 12597.00
338.6670, 12329.00
339.8710, 12579.00
341.0750, 12497.91
342.2790, 12564.00
343.4820, 12402.00
344.6860, 12527.00
345.8890, 12516.00
347.0920, 12477.00
348.2960, 12442.00
349.4980, 12544.00
350.7010, 12601.00
351.9040, 12640.00
353.1060, 12528.00
354.3080, 12666.00
355.5100, 12444.00
356.7120, 12433.00
357.9140, 12591.00
359.1150, 12554.00
360.3170, 12546.00
361.5180, 12472.00
362.7190, 12551.00
363.9200, 12708.00
365.1200, 12660.00
366.3210, 12702.00
367.5210, 12723.00
368.7210, 12648.00
369.9210, 12687.00
371.1210, 12619.00
372.3210, 12695.00
373.5200, 12694.00
374.7200, 12813.00
375.9190, 12809.00
377.1180, 12935.00
378.3170, 12919.00
379.5150, 12965.00
380.7140, 12877.00
381.9120, 12903.00
383.1110, 12915.00
384.3090, 13037.00
385.5060, 13078.00
386.7040, 12952.00
387.9020, 13002.00
389.0990, 12909.00
390.2960, 12921.00
391.4930, 13042.00
392.6900, 13048.00
393.8860, 13120.00
395.0830, 13203.00
396.2790, 13078.00
397.4750, 13180.00
398.6710, 13013.00
399.8670, 13247.00
401.0630, 13281.00
402.2580, 13203.00
403.4540, 13217.00
404.6490, 13281.00
405.8440, 13299.00
407.0390, 13246.00
408.2330, 13136.00
409.4280, 13413.00
410.6220, 13253.00
411.8160, 13350.00
413.0100, 13403.00
414.2040, 13498.00
415.3980, 13411.00
416.5910, 13511.00
417.7850, 13515.00
418.9780, 13440.00
420.1710, 13483.00
421.3640, 13390.00
422.5560, 13621.00
423.7490, 13527.00
424.9410, 13468.00
426.1330, 13629.00
427.3250, 13560.00
428.5170, 13649.00
429.7090, 13638.00
430.9000, 13946.00
432.0910, 13818.00
433.2820, 13780.00
434.4730, 13866.00
435.6640, 13724.00
436.8550, 13905.00
438.0450, 13903.00
439.2360, 14080.00
440.4260, 13928.00
441.6160, 14129.00
442.8060, 14153.00
443.9950, 14156.00
445.1850, 14221.00
446.3740, 14192.00
447.5630, 14210.00
448.7520, 14296.00
449.9410, 14347.00
451.1300, 14378.09
452.3180, 14376.00
453.5060, 14433.00
454.6950, 14502.00
455.8830, 14505.00
457.0700, 14550.84
458.2580, 14478.00
459.4450, 14635.00
460.6330, 14516.00
461.8200, 14630.00
463.0070, 14790.00
464.1940, 14884.00
465.3800, 14910.00
466.5670, 14931.00
467.7530, 14941.00
468.9390, 14969.82
470.1250, 14926.00
471.3110, 15001.22
472.4970, 15057.90
473.6820, 15040.44
474.8680, 15118.70
476.0530, 15158.58
477.2380, 15196.88
478.4230, 15288.56
479.6070, 15281.84
480.7920, 15372.67
481.9760, 15424.54
483.1600, 15494.22
484.3440, 15525.32
485.5280, 15568.34
486.7120, 15649.95
487.8950, 15710.15
489.0780, 15736.77
490.2620, 15807.58
491.4450, 15799.48
492.6270, 15782.00
493.8100, 15894.00
494.9920, 15898.00
496.1750, 15968.46
497.3570, 16177.00
498.5390, 16148.00
499.7210, 16225.00
500.9020, 16380.00
502.0840, 16382.00
503.2650, 16439.00
504.4460, 16514.00
505.6270, 16664.00
506.8080, 16716.00
507.9890, 16895.00
509.1690, 16951.00
510.3500, 17158.00
511.5300, 17255.76
512.7100, 17518.67
513.8900, 17735.84
515.0690, 17909.61
516.2490, 17910.66
517.4280, 18134.78
518.6070, 18269.45
519.7860, 18400.45
520.9650, 18535.00
522.1440, 18823.87
523.3220, 18972.65
524.5010, 19403.00
525.6790, 19469.00
526.8570, 19736.00
528.0350, 20213.00
529.2130, 20369.00
530.3900, 20553.00
531.5670, 20779.00
532.7450, 21152.00
533.9220, 21276.00
535.0980, 21704.00
536.2750, 21824.00
537.4520, 22186.00
538.6280, 22785.00
539.8040, 22846.00
540.9800, 23432.00
542.1560, 23687.00
543.3320, 24088.00
544.5070, 24221.00
545.6830, 24425.00
546.8580, 24737.00
548.0330, 24901.00
549.2080, 25377.00
550.3830, 25387.00
551.5570, 25519.00
552.7310, 25819.00
553.9060, 25743.00
555.0800, 25788.00
556.2540, 26128.00
557.4270, 26073.00
558.6010, 26099.00
559.7740, 26287.00
560.9470, 26280.00
562.1210, 26380.40
563.2930, 26479.94
564.4660, 26523.00
565.6390, 26560.00
566.8110, 26629.00
567.9830, 26463.00
569.1550, 26698.00
570.3270, 26759.00
571.4990, 26538.00
572.6710, 26420.00
573.8420, 26245.00
575.0130, 26171.00
576.1840, 25615.00
577.3550, 25412.00
578.5260, 25174.00
579.6970, 24491.00
580.8670, 24322.00
582.0370, 23767.00
583.2070, 23327.00
584.3770, 22812.00
585.5470, 22577.00
586.7170, 22171.00
587.8860, 21825.00
589.0550, 21543.00
590.2240, 21294.00
591.3930, 21264.00
592.5620, 20935.00
593.7310, 21091.00
594.8990, 20838.00
596.0670, 20636.00
597.2350, 20573.00
598.4030, 20301.00
599.5710, 20279.00
600.7390, 20050.00
601.9060, 20035.00
603.0740, 19806.00
604.2410, 19583.00
605.4080, 19484.28
606.5740, 19299.46
607.7410, 19214.00
608.9080, 18953.00
610.0740, 18878.00
611.2400, 18533.00
612.4060, 18430.00
613.5720, 18155.00
614.7370, 17891.00
615.9030, 17859.00
617.0680, 17630.00
618.2330, 17398.00
619.3980, 17259.00
620.5630, 17183.00
621.7280, 17017.00
622.8920, 16992.99
624.0570, 17032.00
625.2210, 17018.00
626.3850, 17245.00
627.5490, 17460.00
628.7120, 17659.00
629.8760, 17759.00
631.0390, 18116.00
632.2020, 18390.00
633.3650, 18892.00
634.5280, 18975.00
635.6910, 19528.00
636.8530, 19786.00
638.0160, 20152.00
639.1780, 20655.00
640.3400, 20975.00
641.5020, 21135.00
642.6640, 21451.00
643.8250, 21545.00
644.9870, 21746.00
646.1480, 21998.00
647.3090, 21999.63
648.4700, 22000.00
649.6300, 22038.00
650.7910, 22107.00
651.9510, 22079.00
653.1120, 22207.00
654.2720, 22176.00
655.4320, 22178.00
656.5910, 22347.00
657.7510, 22439.00
658.9100, 22588.00
660.0690, 22802.00
661.2290, 22798.00
662.3880, 23005.00
663.5460, 23003.00
664.7050, 23482.00
665.8630, 23671.00
667.0220, 23970.00
668.1800, 24498.00
669.3380, 24838.00
670.4950, 25468.00
671.6530, 25802.00
672.8100, 26077.00
673.9680, 26714.00
675.1250, 27233.00
676.2820, 27839.35
677.4390, 28479.18
678.5950, 29275.00
679.7520, 29705.00
680.9080, 30566.00
682.0640, 31046.00
683.2200, 31682.00
684.3760, 32333.00
685.5320, 32850.00
686.6870, 33207.00
687.8420, 33678.00
688.9980, 34138.00
690.1530, 34495.00
691.3070, 34955.00
692.4620, 35158.00
693.6170, 35305.00
694.7710, 35109.00
695.9250, 34870.00
697.0790, 34352.00
698.2330, 34093.00
699.3870, 33728.00
700.5400, 32479.00
701.6940, 31873.00
702.8470, 31027.00
704.0000, 30394.00
705.1530, 29609.00
706.3050, 28684.00
707.4580, 27985.00
708.6100, 26980.00
709.7630, 26472.00
710.9150, 25671.00
712.0660, 24659.00
713.2180, 24226.00
714.3700, 23539.00
715.5210, 22965.00
716.6720, 22289.00
717.8240, 21545.00
718.9740, 21656.00
720.1250, 20680.00
721.2760, 20495.00
722.4260, 20077.00
723.5770, 19149.00
724.7270, 18868.00
725.8770, 18538.00
727.0260, 18037.00
728.1760, 17680.00
729.3250, 17569.00
730.4750, 17238.00
731.6240, 16928.00
732.7730, 16814.00
733.9220, 16698.00
735.0700, 16454.00
736.2190, 16325.00
737.3670, 16189.00
738.5150, 15967.86
739.6630, 15658.00
740.8110, 15595.00
741.9590, 15409.00
743.1060, 15269.00
744.2540, 15214.00
745.4010, 14989.00
746.5480, 14895.00
747.6950, 14868.00
748.8410, 14864.00
749.9880, 14649.00
751.1340, 14621.01
752.2800, 14469.00
753.4260, 14414.00
754.5720, 14376.00
755.7180, 14269.00
756.8640, 14096.00
758.0090, 14108.00
759.1540, 14249.00
760.2990, 14095.00
761.4440, 13988.00
762.5890, 13829.00
763.7340, 13901.00
764.8780, 13910.00
766.0220, 13777.00
767.1660, 13735.00
768.3100, 13704.00
769.4540, 13546.00
770.5980, 13611.00
771.7410, 13691.00
772.8840, 13598.00
774.0280, 13598.00
775.1700, 13403.00
776.3130, 13539.00
777.4560, 13359.00
778.5980, 13387.00
779.7410, 13309.00
780.8830, 13279.00
782.0250, 13266.77
783.1670, 13184.72
784.3080, 13232.00
785.4500, 13114.00
786.5910, 13106.00
787.7320, 13207.00
788.8730, 13053.00
790.0140, 13053.00
791.1550, 13129.00
792.2950, 13069.00
793.4360, 13116.00
794.5760, 13092.00
795.7160, 13040.00
796.8560, 12922.00
797.9960, 13072.00
799.1350, 13041.00
800.2750, 12838.00
801.4140, 12852.00
802.5530, 13005.00
803.6920, 12967.00
804.8310, 12934.00
805.9690, 12715.00
807.1080, 12821.00
808.2460, 12835.00
809.3840, 12954.00
810.5220, 12849.00
811.6600, 12780.00
812.7970, 12754.00
813.9350, 12771.00
815.0720, 12683.00
816.2090, 12678.00
817.3460, 12868.00
818.4830, 12767.00
819.6200, 12833.00
820.7560, 12581.00
821.8930, 12616.00
823.0290, 12669.00
824.1650, 12589.00
825.3010, 12699.00
826.4360, 12702.00
827.5720, 12542.00
828.7070, 12780.00
829.8420, 12556.00
830.9770, 12503.00
832.1120, 12574.00
833.2470, 12433.00
834.3820, 12623.00
835.5160, 12519.00
836.6500, 12643.00
837.7840, 12497.00
838.9180, 12486.00
840.0520, 12539.00
841.1860, 12354.00
842.3190, 12521.00
843.4520, 12461.00
844.5850, 12536.00
845.7180, 12393.00
846.8510, 12576.00
847.9840, 12453.00
849.1160, 12488.00
850.2490, 12471.00
851.3810, 12504.00
852.5130, 12488.00
853.6450, 12388.00
854.7760, 12361.00
855.9080, 12340.00
857.0390, 12478.00
858.1700, 12429.00
859.3010, 12531.00
860.4320, 12460.00
861.5630, 12430.00
862.6930, 12292.00
863.8240, 12319.00
864.9540, 12388.00
866.0840, 12485.00
867.2140, 12366.00
868.3440, 12402.00
869.4730, 12280.00
870.6030, 12314.00
871.7320, 12349.00
872.8610, 12383.00
873.9900, 12274.00
875.1190, 12210.00
876.2470, 12188.00
877.3760, 12403.00
878.5040, 12301.00
879.6320, 12292.00
880.7600, 12412.00
881.8880, 12282.00
883.0150, 12317.00
884.1430, 12347.00
885.2700, 12239.00
886.3970, 12370.00
887.5240, 12385.00
888.6510, 12254.00
889.7780, 12219.00
890.9040, 12168.00
892.0310, 12149.17
893.1570, 12162.55
894.2830, 12200.00
895.4090, 12240.00
896.5350, 12337.00
897.6600, 12427.00
898.7860, 12346.00
899.9110, 12262.00
901.0360, 12215.00
902.1610, 12230.00
903.2860, 12191.40
904.4100, 12204.55
905.5350, 12195.00
906.6590, 12250.00
907.7830, 12274.00
908.9070, 12336.00
910.0310, 12218.00
911.1540, 12375.00
912.2780, 12340.00
913.4010, 12216.00
914.5240, 12228.00
915.6470, 12270.00
916.7700, 12327.00
917.8930, 12324.00
919.0150, 12188.00
920.1380, 12230.00
921.2600, 12201.00
922.3820, 12319.00
923.5040, 12250.00
924.6260, 12334.00
925.7470, 12398.00
926.8690, 12244.00
927.9900, 12213.00
929.1110, 12386.00
930.2320, 12191.00
931.3530, 12154.00
932.4730, 12195.00
933.5940, 12275.00
934.7140, 12217.00
935.8340, 12145.00
936.9540, 12285.00
938.0740, 12201.00
939.1930, 12242.00
940.3130, 12236.00
941.4320, 12242.00
942.5510, 12121.00
943.6700, 12230.00
944.7890, 12182.00
945.9080, 12267.00
947.0260, 12248.00
948.1450, 12242.00
949.2630, 12341.00
950.3810, 12301.00
951.4990, 12341.56
952.6170, 12250.19
953.7340, 12309.24
954.8520, 12325.03
955.9690, 12167.94
957.0860, 12234.08
958.2030, 12210.76
959.3200, 12183.77
960.4360, 12281.32
961.5530, 12149.39
962.6690, 12244.96
963.7850, 12249.72
964.9010, 12296.04
966.0170, 12252.36
967.1330, 12236.47
968.2480, 12310.63
969.3630, 12334.93
970.4790, 12280.88
971.5940, 12329.84
972.7080, 12194.76
973.8230, 12197.00
974.9380, 12132.00
976.0520, 12113.94
977.1660, 12174.05
978.2800, 12138.00
979.3940, 12145.00
980.5080, 12208.00
981.6220, 12162.00
982.7350, 12222.00
983.8480, 12219.00
984.9610, 12212.61
986.0740, 12123.00
987.1870, 12213.47
988.3000, 12187.85
989.4120, 12200.00
990.5250, 12240.00
991.6370, 12165.00
992.7490, 12288.00
993.8610, 12149.00
994.9720, 12165.00
996.0840, 12201.29
997.1950, 12335.00
998.3060, 12257.00
999.4170, 12332.00
1000.528, 12361.00
1001.639, 12258.00
1002.750, 12402.00
1003.860, 12462.00
1004.970, 12234.00
1006.080, 12260.00
1007.190, 12349.00
1008.300, 12166.00
1009.410, 12421.00
1010.519, 12326.30
1011.628, 12381.00
1012.738, 12379.00
1013.846, 12141.00
1014.955, 12313.00
1016.064, 12300.00
1017.172, 12416.00
1018.281, 12325.00
1019.389, 12418.00
1020.497, 12366.00
1021.605, 12340.00
1022.713, 12315.00
1023.820, 12348.00
1024.928, 12401.00
1026.035, 12395.00
1027.142, 12479.00
1028.249, 12555.00
1029.356, 12383.00
1030.462, 12372.00
1031.569, 12682.00
1032.675, 12434.00
1033.781, 12670.00
1034.887, 12612.08
1035.993, 12606.00
1037.098, 12546.00
1038.204, 12494.00
1039.309, 12493.00
1040.415, 12539.00
1041.520, 12504.00
1042.624, 12437.00
1043.729, 12505.00
1044.834, 12447.00
1045.938, 12601.00
1047.042, 12397.00
1048.146, 12615.00
1049.250, 12472.00
1050.354, 12485.00
1051.458, 12667.00
1052.561, 12635.00
1053.664, 12676.00
1054.767, 12656.00
1055.870, 12619.00
1056.973, 12629.00
1058.076, 12663.00
1059.178, 12636.14
1060.281, 12631.00
1061.383, 12723.00
1062.485, 12618.00
1063.587, 12869.00
1064.688, 12809.42
1065.790, 13062.00
1066.891, 12820.00
1067.993, 12767.00
1069.094, 12737.00
1070.195, 12886.00
1071.295, 12792.00
1072.396, 12745.00
1073.496, 12988.00
1074.597, 12789.00
1075.697, 12896.00
1076.797, 12861.00
1077.897, 12765.00
1078.996, 12796.00
1080.096, 12853.52
1081.195, 12975.00
1082.294, 13046.00
1083.393, 13012.00
1084.492, 13065.00
1085.591, 12895.00
1086.689, 12960.00
1087.788, 13239.00
1088.886, 13040.00
1089.984, 13218.00
1091.082, 13000.00
1092.180, 13153.00
1093.277, 13132.00
1094.375, 13095.00
1095.472, 13259.00
1096.569, 13203.23
1097.666, 13244.00
1098.763, 13273.00
1099.860, 13111.00
1100.956, 13234.00
1102.053, 13207.40
1103.149, 13437.00
1104.245, 13202.00
1105.341, 13326.00
1106.436, 13181.00
1107.532, 13277.00
1108.627, 13133.00
1109.723, 13349.00
1110.818, 13353.00
1111.913, 13286.00
1113.007, 13277.00
1114.102, 13488.00
1115.197, 13324.00
1116.291, 13418.00
1117.385, 13467.00
1118.479, 13293.00
1119.573, 13361.00
1120.666, 13503.00
1121.760, 13352.00
1122.853, 13528.00
1123.947, 13453.00
1125.040, 13308.00
1126.132, 13281.00
1127.225, 13384.00
1128.318, 13481.00
1129.410, 13397.00
1130.502, 13298.00
1131.595, 13243.00
1132.687, 13291.00
1133.778, 13251.00
1134.870, 13261.99
1135.961, 13420.00
1137.053, 13268.00
1138.144, 13356.00
1139.235, 13344.00
1140.326, 13313.00
1141.416, 13261.00
1142.507, 13377.00
1143.597, 13328.00
1144.688, 13447.00
1145.778, 13275.00
1146.868, 13316.00
1147.957, 13211.00
1149.047, 13418.00
1150.136, 13396.48
1151.226, 13283.00
1152.315, 13488.00
1153.404, 13335.00
1154.493, 13320.00
1155.581, 13223.00
1156.670, 13293.00
1157.758, 13195.00
1158.846, 13250.00
1159.934, 13235.00
1161.022, 13208.00
1162.110, 13362.00
1163.198, 13273.00
1164.285, 13242.00
1165.372, 13305.00
1166.459, 13218.00
1167.546, 13034.00
1168.633, 13198.00
1169.720, 13100.00
1170.806, 13116.00
1171.892, 13354.00
1172.979, 13185.66
1174.065, 13262.00
1175.150, 13106.00
1176.236, 13083.00
1177.322, 13183.00
1178.407, 13159.00
1179.492, 13170.00
1180.577, 13229.00
1181.662, 13103.00
1182.747, 13131.68
1183.832, 13080.00
1184.916, 13089.00
1186.000, 13032.00
1187.084, 13035.00
1188.168, 13100.00
1189.252, 13106.00
1190.336, 13108.00
1191.419, 13043.00
1192.503, 13157.00
1193.586, 13020.00
1194.669, 12974.00
1195.752, 13027.00
1196.835, 13162.00
1197.917, 12924.00
1199.000, 13042.00
1200.082, 12916.00
1201.164, 12969.00
1202.246, 13052.00
1203.328, 13041.00
1204.409, 13035.00
1205.491, 13076.00
1206.572, 13053.70
1207.653, 13144.00
1208.734, 13050.00
1209.815, 12915.00
1210.896, 12917.00
1211.976, 13059.00
1213.057, 13113.00
1214.137, 13253.00
1215.217, 13145.89
1216.297, 13044.00
1217.377, 13027.00
1218.456, 12863.00
1219.536, 13081.00
1220.615, 12910.00
1221.694, 13154.00
1222.773, 12946.00
1223.852, 13100.00
1224.931, 13053.00
1226.009, 13012.00
1227.088, 13095.00
1228.166, 12973.00
1229.244, 12874.00
1230.322, 12994.00
1231.400, 12874.00
1232.477, 13003.00
1233.555, 13055.00
1234.632, 13006.00
1235.709, 13047.00
1236.786, 12968.00
1237.863, 12863.00
1238.939, 13106.00
1240.016, 12953.00
1241.092, 12985.00
1242.168, 12821.00
1243.245, 12968.00
1244.320, 12853.00
1245.396, 13047.00
1246.472, 12992.00
1247.547, 13065.00
1248.622, 12988.00
1249.697, 12946.00
1250.772, 13082.00
1251.847, 12914.00
1252.922, 12991.00
1253.996, 12899.00
1255.071, 13032.00
1256.145, 12891.00
1257.219, 12951.00
1258.293, 13014.00
1259.366, 12975.00
1260.440, 12966.00
1261.513, 13084.00
1262.587, 13083.00
1263.660, 13011.00
1264.733, 12903.00
1265.805, 12826.00
1266.878, 12986.00
1267.951, 13020.00
1269.023, 13097.00
1270.095, 12941.00
1271.167, 13069.00
1272.239, 13121.00
1273.311, 13017.00
1274.382, 13107.00
1275.454, 12985.00
1276.525, 12948.00
1277.596, 12935.00
1278.667, 12939.31
1279.738, 13080.00
1280.808, 13011.00
1281.879, 13033.00
1282.949, 13020.00
1284.019, 12968.00
1285.089, 12924.00
1286.159, 13008.00
1287.229, 12981.27
1288.298, 13087.00
1289.368, 13025.00
1290.437, 13011.00
1291.506, 13014.00
1292.575, 13030.00
1293.644, 13115.00
1294.712, 12989.00
1295.781, 13158.00
1296.849, 13073.00
1297.917, 13115.00
1298.985, 13026.00
1300.053, 12951.00
1301.121, 13053.00
1302.188, 12924.00
1303.255, 13046.00
1304.323, 13058.00
1305.390, 13059.00
1306.457, 13008.00
1307.523, 13009.00
1308.590, 12884.00
1309.656, 12857.00
1310.723, 12991.00
1311.789, 12897.00
1312.855, 12956.00
1313.921, 12912.00
1314.986, 12801.00
1316.052, 12885.82
1317.117, 12915.00
1318.182, 12925.00
1319.248, 12877.00
1320.312, 12793.00
1321.377, 12884.00
1322.442, 12841.00
1323.506, 12847.00
1324.571, 12844.00
1325.635, 12896.00
1326.699, 12975.00
1327.762, 12867.00
1328.826, 12903.00
1329.890, 12835.00
1330.953, 12779.00
1332.016, 12933.00
1333.079, 12792.00
1334.142, 12894.00
1335.205, 12780.00
1336.268, 12941.00
1337.330, 12903.00
1338.392, 12939.00
1339.454, 12929.00
1340.516, 12938.36
1341.578, 12940.17
1342.640, 12948.00
1343.701, 12914.00
1344.763, 12877.00
1345.824, 12826.00
1346.885, 12876.00
1347.946, 12778.00
1349.007, 12886.00
1350.067, 12957.00
1351.128, 12968.00
1352.188, 12993.00
1353.248, 12997.64
1354.308, 12921.00
1355.368, 12989.00
1356.428, 12928.00
1357.487, 12948.00
1358.547, 12947.00
1359.606, 12850.00
1360.665, 12804.00
1361.724, 12925.00
1362.783, 12959.00
1363.841, 13063.00
1364.900, 12859.00
1365.958, 13034.00
1367.016, 12860.00
1368.074, 12811.00
1369.132, 12878.00
1370.190, 12911.00
1371.247, 12916.00
1372.304, 12948.75
1373.362, 12905.00
1374.419, 12949.00
1375.476, 12825.00
1376.532, 12767.00
1377.589, 12841.00
1378.645, 12879.00
1379.702, 12925.00
1380.758, 13063.00
1381.814, 12913.00
1382.870, 12876.00
1383.925, 12873.00
1384.981, 12972.00
1386.036, 12940.76
1387.092, 12800.00
1388.147, 12928.00
1389.202, 12857.00
1390.256, 12755.00
1391.311, 12840.00
1392.365, 12803.20
1393.420, 12917.00
1394.474, 12846.00
1395.528, 12696.00
1396.582, 12664.00
1397.636, 12677.00
1398.689, 12704.00
1399.742, 12804.00
1400.796, 12728.00
1401.849, 12757.00
1402.902, 12776.00
1403.955, 12743.00
1405.007, 12709.00
1406.060, 12721.00
1407.112, 12717.00
1408.164, 12786.00
1409.216, 12577.00
1410.268, 12691.00
1411.320, 12603.00
1412.371, 12630.00
1413.423, 12545.00
1414.474, 12546.00
1415.525, 12578.00
1416.576, 12645.00
1417.627, 12562.00
1418.678, 12758.00
1419.728, 12629.00
1420.778, 12581.00
1421.829, 12621.00
1422.879, 12501.00
1423.928, 12493.00
1424.978, 12430.00
1426.028, 12591.00
1427.077, 12512.00
1428.126, 12596.00
1429.176, 12515.00
1430.225, 12486.00
1431.273, 12364.00
1432.322, 12386.40
1433.371, 12547.67
1434.419, 12633.50
1435.467, 12647.93
1436.515, 12377.15
1437.563, 12474.67
1438.611, 12424.59
1439.658, 12368.47
1440.706, 12517.83
1441.753, 12288.54
1442.800, 12434.65
1443.847, 12430.91
1444.894, 12495.75
1445.941, 12412.08
1446.987, 12374.29
1448.034, 12485.05
1449.080, 12513.56
1450.126, 12412.81
1451.172, 12482.02
1452.218, 12247.55
1453.263, 12279.58
1454.309, 12426.57
1455.354, 12333.29
1456.399, 12405.23
1457.444, 12414.24
1458.489, 12137.29
1459.534, 12357.66
1460.579, 12362.96
1461.623, 12147.43
1462.667, 12350.77
1463.711, 12165.69
1464.755, 12119.25
1465.799, 12177.15
1466.843, 12126.28
1467.886, 12137.00
1468.930, 12101.00
1469.973, 12009.00
1471.016, 12134.00
1472.059, 12208.00
1473.101, 12104.00
1474.144, 12239.00
1475.186, 12191.00
1476.229, 12162.00
1477.271, 11957.00
1478.313, 12141.00
1479.355, 12169.00
1480.396, 12015.00
1481.438, 12081.00
1482.479, 11999.00
1483.520, 12076.00
1484.561, 12020.00
1485.602, 12071.00
1486.643, 12093.00
1487.684, 12083.14
1488.724, 12135.98
1489.765, 12107.00
1490.805, 12121.00
1491.845, 12153.00
1492.885, 11962.00
1493.924, 11974.00
1494.964, 11971.00
1496.003, 11968.00
1497.042, 11928.00
1498.082, 11964.00
1499.120, 11888.00
1500.159, 11931.00
1501.198, 11977.00
1502.236, 11904.00
1503.275, 11983.00
1504.313, 11969.00
1505.351, 11941.00
1506.389, 11888.00
1507.427, 11867.06
1508.464, 11850.11
1509.502, 11831.00
1510.539, 11830.00
1511.576, 11883.00
1512.613, 11873.00
1513.650, 11849.73
1514.687, 11792.31
1515.723, 11894.76
1516.759, 11951.48
1517.796, 11964.93
1518.832, 11805.52
1519.868, 11869.33
1520.903, 11843.69
1521.939, 11814.37
1522.975, 11909.59
1524.010, 11775.33
1525.045, 11780.33
1526.080, 11883.32
1527.115, 11940.59
1528.150, 11954.59
1529.184, 11795.73
1530.219, 11860.08
1531.253, 11834.98
1532.287, 11806.21
1533.321, 11901.98
1534.355, 11768.26
1535.388, 11862.06
1536.422, 11865.04
1537.455, 11909.58
1538.488, 11864.12
1539.522, 11846.45
1540.554, 11918.82
1541.587, 11941.34
1542.620, 11885.52
1543.652, 11932.70
1544.685, 11795.84
1545.717, 11820.49
1546.749, 11914.81
1547.781, 11863.51
1548.812, 11912.35
1549.844, 11923.04
1550.875, 11760.43
1551.906, 11899.22
1552.938, 11907.67
1553.968, 11782.28
1554.999, 11910.74
1556.030, 11803.80
1557.060, 11780.88
1558.091, 11821.20
1559.121, 11795.60
1560.151, 11873.93
1561.181, 11852.14
1562.211, 11821.40
1563.240, 11829.70
1564.270, 11727.38
1565.299, 11852.00
1566.328, 11736.00
1567.357, 11833.00
1568.386, 11942.00
1569.415, 11780.00
1570.443, 11858.00
1571.472, 11900.00
1572.500, 11752.00
##END=



