##NAMES=Magnesio-hastingsite
##RRUFFID=R070288
##IDEAL CHEMISTRY=NaCa_2_(Mg_4_Fe^3+^)Si_6_Al_2_O_22_(OH)_2_
##LOCALITY=Dallas Gem Mine (Gem Mine; Benitoite Mine), New Idria District, San Benito County, California, USA
##OWNER=RRUFF
##SOURCE=Michael Scott
##DESCRIPTION=Dark brown to black prismatic crystals frozen in albite
##STATUS=The identification of this mineral is confirmed by single-crystal X-ray diffraction and chemical analysis.
##URL=rruff.info/R070288
##MEASURED CHEMISTRY=(Na_0.51_[box]_0.33_K_0.16_)_Σ=1_(Ca_1.75_Na_0.25_)_Σ=2_(Mg_3.02_Fe^2+^_0.61_Ti_0.37_)_Σ=4_(Fe^3+^_0.73_Al_0.27_)_Σ=1_Si_5.84_Al_2.16_O_22_(OH)_2_; (OH) estimated by difference
##PIN_ID=M00823
##ORIENTATION=Laser parallel to -b* (0 -1 0). Fiducial mark perpendicular to laser is parallel to c [0 0 1]
99.82800, 16459.39
101.0590, 16937.00
102.2900, 16809.00
103.5200, 16813.00
104.7500, 17164.00
105.9810, 17955.00
107.2110, 18912.00
108.4410, 18947.00
109.6700, 18307.00
110.9000, 18573.00
112.1300, 19327.00
113.3590, 20672.00
114.5880, 22021.00
115.8170, 22136.00
117.0460, 21197.00
118.2750, 21120.00
119.5040, 20677.00
120.7320, 20233.00
121.9610, 20036.13
123.1890, 19667.10
124.4170, 19286.11
125.6450, 18893.82
126.8730, 18933.00
128.1010, 18651.00
129.3280, 18786.00
130.5560, 18710.00
131.7830, 18908.00
133.0100, 18719.00
134.2380, 18448.00
135.4640, 18653.00
136.6910, 18644.00
137.9180, 18956.00
139.1440, 18933.21
140.3710, 18989.94
141.5970, 19034.70
142.8230, 19068.15
144.0490, 19142.47
145.2750, 19152.00
146.5000, 19238.00
147.7260, 19142.00
148.9510, 19081.00
150.1770, 18908.29
151.4020, 19285.45
152.6270, 19451.14
153.8520, 19550.00
155.0760, 19441.00
156.3010, 19384.00
157.5250, 19298.00
158.7500, 19134.00
159.9740, 19129.00
161.1980, 19061.00
162.4220, 19051.66
163.6450, 19018.58
164.8690, 19090.00
166.0920, 19010.00
167.3160, 19018.00
168.5390, 19118.00
169.7620, 19217.00
170.9850, 19349.00
172.2080, 19209.00
173.4300, 19094.00
174.6530, 19267.00
175.8750, 19176.00
177.0970, 19315.00
178.3190, 19345.00
179.5410, 19415.00
180.7630, 19451.00
181.9850, 19226.00
183.2060, 19240.00
184.4270, 19237.00
185.6490, 19396.00
186.8700, 19297.42
188.0910, 19253.98
189.3110, 19198.64
190.5320, 19131.94
191.7530, 19020.07
192.9730, 18966.59
194.1930, 18889.73
195.4130, 18811.91
196.6330, 18754.28
197.8530, 18631.37
199.0730, 18560.75
200.2920, 18460.78
201.5120, 18353.74
202.7310, 18273.28
203.9500, 18225.00
205.1690, 17824.00
206.3880, 17489.00
207.6070, 17472.00
208.8250, 17610.00
210.0440, 17430.00
211.2620, 17482.00
212.4800, 17434.00
213.6980, 17608.00
214.9160, 17530.68
216.1340, 17607.63
217.3510, 17645.76
218.5690, 17647.13
219.7860, 17501.69
221.0030, 17545.84
222.2200, 17514.00
223.4370, 17479.06
224.6540, 17495.50
225.8700, 17437.74
227.0870, 17233.11
228.3030, 17218.12
229.5190, 17127.15
230.7350, 17033.07
231.9510, 17041.99
233.1670, 16973.46
234.3820, 16758.18
235.5980, 16732.43
236.8130, 16630.76
238.0280, 16525.97
239.2430, 16526.97
240.4580, 16333.04
241.6730, 16332.36
242.8880, 16100.00
244.1020, 16217.00
245.3160, 16072.00
246.5300, 15870.00
247.7450, 15827.00
248.9580, 15999.00
250.1720, 15999.00
251.3860, 15883.00
252.5990, 15763.00
253.8130, 15686.00
255.0260, 15620.00
256.2390, 15694.00
257.4520, 15566.00
258.6640, 15715.00
259.8770, 15590.00
261.0890, 15538.00
262.3020, 15634.00
263.5140, 15553.00
264.7260, 15500.00
265.9380, 15530.00
267.1500, 15516.00
268.3610, 15417.00
269.5730, 15396.00
270.7840, 15413.00
271.9950, 15428.00
273.2060, 15556.00
274.4170, 15313.00
275.6280, 15266.00
276.8390, 15410.00
278.0490, 15319.00
279.2590, 15317.00
280.4690, 15286.00
281.6800, 15394.00
282.8890, 15339.00
284.0990, 15203.00
285.3090, 15393.00
286.5180, 15400.00
287.7280, 15329.00
288.9370, 15583.00
290.1460, 15534.00
291.3550, 15363.00
292.5630, 15363.00
293.7720, 15493.00
294.9800, 15442.00
296.1890, 15275.00
297.3970, 15429.00
298.6050, 15165.00
299.8130, 15393.00
301.0200, 15417.00
302.2280, 15481.00
303.4360, 15360.00
304.6430, 15427.00
305.8500, 15375.00
307.0570, 15299.00
308.2640, 15257.00
309.4710, 15296.00
310.6770, 15289.00
311.8840, 15277.00
313.0900, 15269.39
314.2960, 15284.00
315.5020, 15256.00
316.7080, 15218.00
317.9140, 15288.00
319.1190, 15154.00
320.3250, 15318.00
321.5300, 15323.00
322.7350, 15283.07
323.9400, 15150.00
325.1450, 15239.00
326.3500, 15158.00
327.5540, 15145.00
328.7580, 15034.00
329.9630, 15175.00
331.1670, 15117.00
332.3710, 15005.00
333.5750, 15166.00
334.7780, 15313.00
335.9820, 15148.00
337.1850, 15118.00
338.3880, 15192.00
339.5920, 15220.00
340.7950, 15161.00
341.9970, 15161.00
343.2000, 15154.31
344.4030, 15152.69
345.6050, 15160.00
346.8070, 15200.00
348.0090, 15250.00
349.2110, 15312.00
350.4130, 15380.00
351.6150, 15227.00
352.8160, 15415.00
354.0170, 15400.00
355.2190, 15402.00
356.4200, 15589.00
357.6210, 15557.00
358.8210, 15681.99
360.0220, 15745.59
361.2220, 15791.47
362.4230, 15820.32
363.6230, 15798.22
364.8230, 15828.72
366.0230, 15830.10
367.2230, 15824.78
368.4220, 15846.27
369.6220, 15802.04
370.8210, 15811.55
372.0200, 15791.58
373.2190, 15776.75
374.4180, 15732.67
375.6170, 15690.11
376.8150, 15690.58
378.0140, 15637.50
379.2120, 15635.04
380.4100, 15601.49
381.6080, 15559.28
382.8060, 15541.90
384.0040, 15456.84
385.2010, 15423.57
386.3980, 15358.88
387.5960, 15297.29
388.7930, 15243.23
389.9900, 15248.00
391.1870, 15138.00
392.3830, 15333.00
393.5800, 15099.00
394.7760, 15211.00
395.9720, 14963.00
397.1680, 15042.00
398.3640, 14982.00
399.5600, 15169.00
400.7560, 15162.00
401.9510, 15091.00
403.1460, 15065.00
404.3420, 15198.00
405.5370, 15011.00
406.7320, 15094.00
407.9260, 14886.00
409.1210, 14948.00
410.3150, 14935.00
411.5100, 15068.00
412.7040, 15117.00
413.8980, 15023.00
415.0920, 15081.00
416.2850, 15130.00
417.4790, 15029.63
418.6720, 15143.00
419.8650, 14995.00
421.0590, 14964.00
422.2510, 15189.00
423.4440, 14999.00
424.6370, 15062.00
425.8290, 15018.00
427.0220, 15123.00
428.2140, 15230.00
429.4060, 15252.00
430.5980, 15200.00
431.7900, 15081.00
432.9810, 15132.00
434.1730, 15080.00
435.3640, 15230.00
436.5550, 15285.00
437.7460, 15026.00
438.9370, 15118.00
440.1280, 15041.00
441.3190, 15088.00
442.5090, 15014.00
443.6990, 15139.00
444.8890, 15165.00
446.0790, 15137.00
447.2690, 15166.00
448.4590, 15178.00
449.6480, 15119.00
450.8380, 15121.44
452.0270, 15045.00
453.2160, 15085.00
454.4050, 15051.00
455.5940, 15086.00
456.7820, 15076.00
457.9710, 15025.00
459.1590, 15179.00
460.3470, 15118.78
461.5350, 15031.00
462.7230, 15135.00
463.9110, 15120.00
465.0990, 15158.00
466.2860, 14961.00
467.4730, 15210.00
468.6600, 15047.00
469.8470, 15263.00
471.0340, 15009.00
472.2210, 15155.00
473.4070, 15145.82
474.5940, 15134.60
475.7800, 15197.00
476.9660, 15236.00
478.1520, 15317.00
479.3380, 15396.00
480.5230, 15451.23
481.7090, 15500.67
482.8940, 15597.00
484.0790, 15557.41
485.2650, 15654.23
486.4490, 15654.00
487.6340, 15802.00
488.8190, 15732.00
490.0030, 15925.00
491.1870, 15983.00
492.3720, 16080.00
493.5550, 16193.00
494.7390, 16248.33
495.9230, 16239.51
497.1060, 16350.19
498.2900, 16437.19
499.4730, 16412.32
500.6560, 16544.79
501.8390, 16622.11
503.0220, 16702.60
504.2040, 16873.28
505.3870, 16893.75
506.5690, 17074.37
507.7510, 17198.93
508.9330, 17357.37
510.1150, 17536.00
511.2970, 17663.00
512.4780, 17783.00
513.6600, 17853.00
514.8410, 17961.00
516.0220, 18195.00
517.2030, 18253.00
518.3840, 18632.00
519.5650, 18653.00
520.7450, 18908.00
521.9250, 18937.53
523.1060, 19152.93
524.2860, 19335.68
525.4660, 19487.11
526.6450, 19544.23
527.8250, 19699.48
529.0040, 19800.92
530.1840, 19890.37
531.3630, 20029.87
532.5420, 20047.70
533.7200, 20165.60
534.8990, 20229.19
536.0780, 20302.66
537.2560, 20247.00
538.4340, 20429.00
539.6120, 20421.00
540.7900, 20483.00
541.9680, 20386.00
543.1460, 20415.03
544.3230, 20489.00
545.5000, 20425.00
546.6770, 20392.00
547.8540, 20462.00
549.0310, 20428.00
550.2080, 20525.00
551.3840, 20622.00
552.5610, 20477.00
553.7370, 20555.67
554.9130, 20614.00
556.0890, 20522.00
557.2650, 20573.00
558.4400, 20487.69
559.6160, 20506.38
560.7910, 20485.87
561.9660, 20427.34
563.1410, 20267.89
564.3160, 20199.76
565.4910, 20071.18
566.6650, 19923.94
567.8400, 19820.00
569.0140, 19587.82
570.1880, 19449.06
571.3620, 19249.24
572.5360, 19052.59
573.7090, 18795.49
574.8830, 18610.00
576.0560, 18240.00
577.2290, 18017.00
578.4020, 17654.19
579.5750, 17409.00
580.7480, 16955.00
581.9200, 16614.00
583.0930, 16336.00
584.2650, 15966.00
585.4370, 15797.00
586.6090, 15485.00
587.7810, 15422.00
588.9520, 15317.24
590.1240, 15293.00
591.2950, 15218.00
592.4660, 15022.00
593.6370, 14892.00
594.8080, 14783.00
595.9790, 14832.00
597.1500, 14813.00
598.3200, 14765.69
599.4900, 14733.00
600.6600, 14685.00
601.8300, 14723.00
603.0000, 14652.77
604.1700, 14670.11
605.3390, 14725.00
606.5080, 14661.00
607.6770, 14776.00
608.8460, 14747.00
610.0150, 14715.39
611.1840, 14759.46
612.3520, 14791.57
613.5210, 14812.39
614.6890, 14788.01
615.8570, 14821.97
617.0250, 14832.56
618.1930, 14842.18
619.3600, 14884.34
620.5280, 14866.53
621.6950, 14908.17
622.8620, 14926.08
624.0290, 14954.85
625.1960, 14960.09
626.3630, 14967.00
627.5290, 15042.60
628.6960, 15233.00
629.8620, 15155.00
631.0280, 15471.00
632.1940, 15457.00
633.3600, 15501.00
634.5250, 15567.00
635.6910, 15583.00
636.8560, 15676.00
638.0210, 15720.00
639.1860, 15809.21
640.3510, 15884.37
641.5150, 16000.05
642.6800, 16103.86
643.8440, 16196.28
645.0080, 16243.52
646.1720, 16349.10
647.3360, 16431.31
648.5000, 16512.55
649.6640, 16626.35
650.8270, 16680.09
651.9900, 16793.29
653.1530, 16945.00
654.3160, 17098.00
655.4790, 17192.00
656.6420, 17267.00
657.8040, 17394.43
658.9660, 17432.00
660.1290, 17539.00
661.2910, 17451.00
662.4520, 17367.00
663.6140, 17429.00
664.7760, 17304.00
665.9370, 17428.00
667.0980, 17349.00
668.2590, 17189.00
669.4200, 17234.00
670.5810, 16942.00
671.7420, 16815.74
672.9020, 16816.85
674.0620, 16806.00
675.2220, 16783.85
676.3820, 16716.52
677.5420, 16707.53
678.7020, 16675.16
679.8610, 16641.85
681.0210, 16641.07
682.1800, 16580.33
683.3390, 16579.06
684.4980, 16554.05
685.6560, 16539.92
686.8150, 16502.25
687.9730, 16471.87
689.1320, 16488.34
690.2900, 16486.00
691.4480, 16470.00
692.6050, 16525.00
693.7630, 16338.00
694.9200, 16289.00
696.0780, 16208.00
697.2350, 16272.00
698.3920, 16296.00
699.5490, 16184.00
700.7050, 16465.00
701.8620, 16327.85
703.0180, 16378.73
704.1740, 16262.00
705.3300, 16360.00
706.4860, 16335.12
707.6420, 16382.35
708.7970, 16417.61
709.9530, 16441.59
711.1080, 16420.37
712.2630, 16457.49
713.4180, 16471.22
714.5730, 16484.01
715.7280, 16529.33
716.8820, 16550.59
718.0360, 16559.46
719.1900, 16622.26
720.3440, 16670.68
721.4980, 16715.32
722.6520, 16722.34
723.8050, 16795.18
724.9590, 16852.22
726.1120, 16848.55
727.2650, 16876.95
728.4180, 16876.00
729.5700, 16889.56
730.7230, 16854.00
731.8750, 16872.00
733.0280, 16824.19
734.1800, 16910.76
735.3320, 16958.48
736.4830, 16969.46
737.6350, 16833.62
738.7860, 16887.37
739.9380, 16865.14
741.0890, 16839.79
742.2400, 16920.23
743.3910, 16805.74
744.5410, 16762.00
745.6920, 16936.00
746.8420, 16908.00
747.9920, 16799.00
749.1420, 16900.00
750.2920, 16741.00
751.4420, 16855.00
752.5910, 16849.38
753.7410, 16829.00
754.8900, 16925.00
756.0390, 16857.00
757.1880, 16928.00
758.3370, 16875.00
759.4850, 16908.00
760.6340, 16849.00
761.7820, 16921.36
762.9300, 16889.00
764.0780, 17040.00
765.2260, 17110.00
766.3730, 17115.00
767.5210, 17317.00
768.6680, 17338.79
769.8150, 17231.00
770.9620, 17414.00
772.1090, 17385.00
773.2560, 17253.00
774.4020, 17399.00
775.5490, 17365.84
776.6950, 17369.77
777.8410, 17483.00
778.9870, 17468.00
780.1330, 17567.00
781.2780, 17781.00
782.4230, 17665.00
783.5690, 17563.00
784.7140, 17828.00
785.8590, 17990.00
787.0030, 18002.00
788.1480, 17906.00
789.2920, 17907.00
790.4370, 17993.00
791.5810, 18020.00
792.7250, 18043.00
793.8690, 18069.00
795.0120, 17818.00
796.1560, 17974.00
797.2990, 17790.00
798.4420, 17953.00
799.5850, 17791.00
800.7280, 17815.00
801.8710, 17855.00
803.0130, 17684.00
804.1550, 17862.00
805.2980, 17686.00
806.4400, 17516.00
807.5810, 17635.00
808.7230, 17471.00
809.8650, 17636.00
811.0060, 17442.00
812.1470, 17434.00
813.2880, 17270.01
814.4290, 17396.54
815.5700, 17445.39
816.7110, 17420.74
817.8510, 17102.50
818.9910, 17163.43
820.1310, 17072.40
821.2710, 16975.14
822.4110, 17089.44
823.5510, 16813.90
824.6900, 16924.89
825.8290, 16881.61
826.9680, 16908.92
828.1070, 16783.35
829.2460, 16705.00
830.3850, 16828.00
831.5230, 16550.14
832.6620, 16711.43
833.8000, 16787.30
834.9380, 16782.32
836.0760, 16454.34
837.2130, 16543.48
838.3510, 16465.44
839.4880, 16380.58
840.6250, 16528.42
841.7620, 16247.45
842.8990, 16391.60
844.0360, 16366.05
845.1720, 16382.00
846.3090, 16363.14
847.4450, 16348.98
848.5810, 16349.00
849.7170, 16348.00
850.8530, 16257.51
851.9880, 16344.67
853.1240, 16393.98
854.2590, 16407.51
855.3940, 16275.21
856.5290, 16333.47
857.6640, 16316.74
858.7980, 16297.87
859.9330, 16385.76
861.0670, 16279.71
862.2010, 16367.87
863.3350, 16379.88
864.4690, 16428.17
865.6030, 16401.00
866.7360, 16398.40
867.8690, 16297.00
869.0020, 16299.00
870.1350, 16451.00
871.2680, 16556.00
872.4010, 16627.00
873.5330, 16585.00
874.6660, 16482.00
875.7980, 16540.00
876.9300, 16555.00
878.0620, 16547.00
879.1930, 16535.00
880.3250, 16744.00
881.4560, 16532.00
882.5870, 16798.00
883.7180, 16745.00
884.8490, 16727.00
885.9800, 16753.00
887.1100, 16819.00
888.2410, 16916.00
889.3710, 16948.00
890.5010, 16988.96
891.6310, 17042.83
892.7610, 16991.00
893.8900, 17093.00
895.0200, 17019.00
896.1490, 16978.00
897.2780, 17068.00
898.4070, 17036.00
899.5360, 17000.00
900.6640, 17065.00
901.7920, 17018.60
902.9210, 17092.00
904.0490, 17015.00
905.1770, 16998.00
906.3040, 17038.00
907.4320, 17093.00
908.5600, 17046.00
909.6870, 17082.00
910.8140, 17018.00
911.9410, 17026.00
913.0680, 17104.00
914.1940, 17014.00
915.3210, 17041.00
916.4470, 16995.00
917.5730, 17009.00
918.6990, 17019.87
919.8250, 17145.00
920.9500, 17057.00
922.0760, 17094.18
923.2010, 17125.77
924.3260, 17002.00
925.4510, 17213.00
926.5760, 17149.00
927.7010, 17087.00
928.8250, 17058.83
929.9500, 17154.00
931.0740, 16912.00
932.1980, 17037.00
933.3220, 17160.00
934.4450, 17116.00
935.5690, 17018.00
936.6920, 17172.00
937.8150, 17036.00
938.9380, 17083.00
940.0610, 17100.00
941.1840, 17168.00
942.3060, 17171.00
943.4290, 17102.00
944.5510, 16992.00
945.6730, 17242.00
946.7950, 17209.00
947.9160, 17105.00
949.0380, 17187.00
950.1590, 17129.00
951.2800, 17123.00
952.4010, 17277.00
953.5220, 17128.00
954.6430, 17165.76
955.7630, 17236.30
956.8840, 17275.78
958.0040, 17285.85
959.1240, 17178.46
960.2440, 17222.75
961.3640, 17206.26
962.4830, 17187.27
963.6030, 17252.90
964.7220, 17162.60
965.8410, 17226.89
966.9600, 17229.48
968.0780, 17065.00
969.1970, 17211.00
970.3150, 16889.00
971.4340, 16999.42
972.5520, 17121.00
973.6700, 17111.00
974.7870, 17025.00
975.9050, 17168.00
977.0220, 16896.42
978.1390, 17079.37
979.2560, 17184.65
980.3730, 17216.43
981.4900, 16954.57
982.6070, 17071.88
983.7230, 17037.24
984.8390, 16996.36
985.9550, 17167.04
987.0710, 16947.88
988.1870, 17115.21
989.3030, 17128.25
990.4180, 17296.00
991.5330, 17083.00
992.6480, 17106.00
993.7630, 17184.00
994.8780, 17261.00
995.9930, 17142.00
997.1070, 17288.00
998.2210, 17240.00
999.3350, 17338.00
1000.449, 17360.14
1001.563, 17432.84
1002.677, 17483.36
1003.790, 17512.85
1004.903, 17458.44
1006.016, 17512.37
1007.129, 17522.88
1008.242, 17531.62
1009.355, 17562.00
1010.467, 17555.37
1011.579, 17562.00
1012.691, 17544.00
1013.803, 17579.00
1014.915, 17557.00
1016.027, 17553.05
1017.138, 17571.00
1018.249, 17503.00
1019.360, 17430.02
1020.471, 17490.85
1021.582, 17520.60
1022.693, 17520.96
1023.803, 17403.87
1024.913, 17438.45
1026.023, 17412.25
1027.133, 17383.55
1028.243, 17439.48
1029.353, 17339.47
1030.462, 17394.06
1031.571, 17386.95
1032.680, 17356.00
1033.789, 17337.00
1034.898, 17351.00
1036.007, 17319.30
1037.115, 17126.00
1038.223, 17271.00
1039.331, 17222.00
1040.439, 17165.00
1041.547, 17296.00
1042.655, 17181.00
1043.762, 17134.00
1044.869, 17173.00
1045.976, 17382.00
1047.083, 17058.00
1048.190, 17250.00
1049.297, 17210.00
1050.403, 17063.00
1051.509, 17315.00
1052.615, 17149.00
1053.721, 17051.00
1054.827, 17189.00
1055.933, 17003.00
1057.038, 17187.00
1058.143, 17208.00
1059.248, 17105.00
1060.353, 17130.00
1061.458, 17264.00
1062.563, 17174.00
1063.667, 16874.00
1064.771, 17135.00
1065.875, 16944.74
1066.979, 16849.00
1068.083, 16997.00
1069.186, 16946.00
1070.290, 16951.91
1071.393, 17099.00
1072.496, 16939.00
1073.599, 16816.00
1074.702, 16791.00
1075.804, 16786.00
1076.907, 16696.00
1078.009, 16780.00
1079.111, 16771.00
1080.213, 16835.00
1081.315, 16806.67
1082.416, 16774.48
1083.517, 16820.00
1084.619, 16583.00
1085.720, 16750.00
1086.821, 16495.00
1087.921, 16577.00
1089.022, 16641.00
1090.122, 16632.00
1091.222, 16626.00
1092.322, 16439.00
1093.422, 16543.00
1094.522, 16545.00
1095.622, 16398.00
1096.721, 16561.00
1097.820, 16339.00
1098.919, 16329.23
1100.018, 16328.67
1101.117, 16259.00
1102.215, 16253.00
1103.314, 16376.00
1104.412, 16284.00
1105.510, 16188.00
1106.608, 15999.00
1107.705, 16192.00
1108.803, 15969.00
1109.900, 16104.00
1110.997, 16107.00
1112.094, 16046.00
1113.191, 16136.00
1114.288, 16059.00
1115.384, 16141.00
1116.481, 15957.00
1117.577, 16075.00
1118.673, 15960.00
1119.769, 15995.00
1120.864, 16178.00
1121.960, 16076.00
1123.055, 16255.00
1124.150, 16176.35
1125.245, 16094.08
1126.340, 16009.00
1127.434, 15911.00
1128.529, 15752.00
1129.623, 15766.00
1130.717, 15691.13
1131.811, 15686.54
1132.905, 15674.00
1133.999, 15693.00
1135.092, 15739.00
1136.185, 15682.00
1137.279, 15721.00
1138.371, 15678.00
1139.464, 15664.00
1140.557, 15843.00
1141.649, 15765.64
1142.742, 15591.00
1143.834, 15723.00
1144.926, 15639.00
1146.017, 15538.00
1147.109, 15586.00
1148.200, 15578.90
1149.292, 15632.00
1150.383, 15621.00
1151.474, 15662.06
1152.564, 15539.72
1153.655, 15600.00
1154.745, 15526.00
1155.835, 15494.00
1156.925, 15482.00
1158.015, 15435.00
1159.105, 15417.00
1160.195, 15425.67
1161.284, 15505.00
1162.373, 15476.00
1163.462, 15389.00
1164.551, 15450.00
1165.640, 15258.00
1166.728, 15461.00
1167.817, 15399.87
1168.905, 15502.21
1169.993, 15562.49
1171.081, 15582.37
1172.168, 15473.79
1173.256, 15505.90
1174.343, 15466.24
1175.430, 15413.11
1176.517, 15561.00
1177.604, 15488.00
1178.691, 15383.00
1179.777, 15468.00
1180.864, 15657.00
1181.950, 15440.00
1183.036, 15453.00
1184.121, 15588.00
1185.207, 15400.00
1186.293, 15645.00
1187.378, 15341.00
1188.463, 15328.00
1189.548, 15447.00
1190.633, 15518.00
1191.717, 15642.00
1192.802, 15441.00
1193.886, 15489.00
1194.970, 15501.00
1196.054, 15582.00
1197.138, 15437.00
1198.221, 15481.00
1199.305, 15287.00
1200.388, 15476.00
1201.471, 15732.00
1202.554, 15541.03
1203.637, 15622.00
1204.719, 15475.00
1205.801, 15300.00
1206.884, 15489.00
1207.966, 15549.00
1209.048, 15430.00
1210.129, 15414.00
1211.211, 15419.00
1212.292, 15596.00
1213.373, 15519.00
1214.454, 15572.68
1215.535, 15740.00
1216.616, 15568.00
1217.696, 15598.00
1218.777, 15582.00
1219.857, 15547.00
1220.937, 15424.00
1222.017, 15436.00
1223.096, 15527.00
1224.176, 15456.00
1225.255, 15527.00
1226.334, 15502.00
1227.413, 15476.00
1228.492, 15504.71
1229.570, 15592.77
1230.649, 15642.00
1231.727, 15654.48
1232.805, 15520.14
1233.883, 15575.39
1234.961, 15554.66
1236.038, 15530.81
1237.116, 15612.74
1238.193, 15499.75
1239.270, 15580.01
1240.347, 15583.13
1241.424, 15558.00
1242.500, 15508.00
1243.577, 15509.00
1244.653, 15526.00
1245.729, 15501.00
1246.805, 15508.00
1247.880, 15600.00
1248.956, 15470.00
1250.031, 15703.00
1251.106, 15526.00
1252.181, 15647.00
1253.256, 15631.93
1254.331, 15536.27
1255.405, 15588.00
1256.480, 15452.00
1257.554, 15416.00
1258.628, 15514.00
1259.701, 15608.00
1260.775, 15561.00
1261.849, 15533.00
1262.922, 15605.00
1263.995, 15556.00
1265.068, 15579.00
1266.141, 15533.00
1267.213, 15531.00
1268.286, 15689.00
1269.358, 15551.00
1270.430, 15450.00
1271.502, 15688.00
1272.573, 15539.00
1273.645, 15572.43
1274.716, 15660.50
1275.788, 15709.72
1276.859, 15722.21
1277.929, 15587.86
1279.000, 15643.11
1280.071, 15622.38
1281.141, 15598.54
1282.211, 15680.47
1283.281, 15567.48
1284.351, 15647.74
1285.421, 15650.86
1286.490, 15689.28
1287.559, 15651.25
1288.628, 15636.84
1289.697, 15698.90
1290.766, 15718.61
1291.835, 15671.79
1292.903, 15691.81
1293.972, 15649.09
1295.040, 15645.00
1296.108, 15599.00
1297.175, 15553.00
1298.243, 15493.00
1299.310, 15613.00
1300.377, 15612.75
1301.444, 15588.96
1302.511, 15766.00
1303.578, 15561.00
1304.645, 15646.00
1305.711, 15695.00
1306.777, 15728.00
1307.843, 15775.09
1308.909, 15751.00
1309.975, 15777.00
1311.040, 15784.68
1312.105, 15634.85
1313.171, 15749.72
1314.235, 15812.81
1315.300, 15826.90
1316.365, 15645.23
1317.429, 15716.35
1318.494, 15686.16
1319.558, 15651.81
1320.622, 15758.51
1321.685, 15605.31
1322.749, 15709.77
1323.812, 15711.38
1324.876, 15760.06
1325.939, 15706.82
1327.001, 15685.05
1328.064, 15765.25
1329.127, 15721.00
1330.189, 15647.00
1331.251, 15690.00
1332.313, 15772.00
1333.375, 15731.00
1334.437, 15712.00
1335.498, 15751.00
1336.560, 15755.00
1337.621, 15734.00
1338.682, 15798.00
1339.742, 15667.00
1340.803, 15656.00
1341.863, 15634.00
1342.924, 15720.00
1343.984, 15699.00
1345.044, 15750.00
1346.104, 15813.00
1347.163, 15788.96
1348.222, 15869.00
1349.282, 15744.00
1350.341, 15869.00
1351.400, 15783.00
1352.458, 15566.00
1353.517, 15723.00
1354.575, 15637.00
1355.633, 15779.00
1356.691, 15770.00
1357.749, 15691.00
1358.807, 15848.00
1359.864, 15778.00
1360.922, 15753.00
1361.979, 15932.00
1363.036, 15920.00
1364.092, 15881.07
1365.149, 15888.00
1366.205, 15823.00
1367.262, 15802.00
1368.318, 15949.00
1369.374, 16015.03
1370.429, 15998.00
1371.485, 15855.00
1372.540, 15867.00
1373.596, 15692.00
1374.651, 15891.00
1375.705, 15707.00
1376.760, 15881.00
1377.815, 15935.00
1378.869, 15960.00
1379.923, 15773.00
1380.977, 15873.00
1382.031, 15675.00
1383.085, 15777.00
1384.138, 15722.00
1385.191, 15822.00
1386.244, 15787.00
1387.297, 15838.00
1388.350, 15784.00
1389.403, 15822.00
1390.455, 15799.22
1391.507, 15782.00
1392.559, 15793.00
1393.611, 15806.00
1394.663, 15877.00
1395.714, 15828.00
1396.766, 15947.00
1397.817, 15873.00
1398.868, 15801.00
1399.919, 15824.00
1400.969, 15792.00
1402.020, 15789.00
1403.070, 15934.00
1404.120, 15981.00
1405.170, 15973.14
1406.220, 15872.00
1407.270, 15908.00
1408.319, 15936.00
1409.368, 15828.00
1410.417, 15871.00
1411.466, 15989.00
1412.515, 15961.00
1413.563, 15899.00
1414.612, 15979.00
1415.660, 15860.00
1416.708, 15891.00
1417.756, 15879.00
1418.803, 15889.00
1419.851, 15851.00
1420.898, 15804.00
1421.945, 15908.00
1422.992, 15996.00
1424.039, 15897.00
1425.086, 15852.00
1426.132, 15967.00
1427.178, 16023.00
1428.225, 16143.00
1429.270, 16105.00
1430.316, 16221.00
1431.362, 16077.00
1432.407, 16027.00
1433.452, 16143.00
1434.497, 15908.00
1435.542, 16120.00
1436.587, 15799.00
1437.631, 16088.00
1438.676, 16210.00
1439.720, 15921.00
1440.764, 15877.00
1441.807, 16040.00
1442.851, 16046.00
1443.895, 16125.00
1444.938, 16168.00
1445.981, 16096.00
1447.024, 16112.00
1448.066, 15986.00
1449.109, 16138.00
1450.151, 16032.33
1451.194, 16178.00
1452.236, 15974.00
1453.277, 16050.00
1454.319, 16110.00
1455.361, 16280.00
1456.402, 16097.00
1457.443, 16113.00
1458.484, 16155.00
1459.525, 16136.00
1460.565, 16168.00
1461.606, 16178.00
1462.646, 16141.00
1463.686, 16215.00
1464.726, 16164.00
1465.766, 16177.00
1466.805, 16103.00
1467.845, 16127.00
1468.884, 16061.00
1469.923, 16243.00
1470.962, 16320.00
1472.000, 16196.00
1473.039, 16205.00
1474.077, 16141.00
1475.115, 16066.00
1476.153, 16069.00
1477.191, 16198.00
1478.229, 16182.00
1479.266, 16271.00
1480.303, 16299.00
1481.340, 16428.00
1482.377, 16342.00
1483.414, 16369.65
1484.451, 16252.00
1485.487, 16264.00
1486.523, 16186.00
1487.559, 16036.00
1488.595, 16225.00
1489.631, 16092.00
1490.666, 16337.00
1491.701, 16183.00
1492.736, 16224.00
1493.771, 16241.49
1494.806, 16219.00
1495.841, 16220.00
1496.875, 16247.00
1497.909, 16287.00
1498.943, 16262.00
1499.977, 16268.00
1501.011, 16179.00
1502.045, 16248.00
1503.078, 16195.00
1504.111, 16179.00
1505.144, 16170.00
1506.177, 16218.00
1507.209, 16206.00
1508.242, 16058.00
1509.274, 16293.00
1510.306, 16161.00
1511.338, 16116.00
1512.370, 16307.00
1513.402, 16168.00
1514.433, 16299.00
1515.464, 16270.00
1516.495, 16257.00
1517.526, 16321.00
1518.557, 16272.00
1519.587, 16266.00
1520.617, 16239.00
1521.648, 16219.00
1522.678, 16335.00
1523.707, 16177.00
1524.737, 16418.00
1525.766, 16307.00
1526.796, 16242.00
1527.825, 16360.00
1528.854, 16254.00
1529.882, 16252.00
1530.911, 16267.00
1531.939, 16312.00
1532.967, 16328.00
1533.995, 16286.00
1535.023, 16266.00
1536.051, 16376.00
1537.078, 16272.11
1538.106, 16241.80
1539.133, 16194.00
1540.160, 16104.00
1541.186, 16148.00
1542.213, 16154.00
1543.239, 16161.35
1544.266, 16356.18
1545.292, 16465.56
1546.318, 16494.10
1547.343, 16199.62
1548.369, 16322.25
1549.394, 16277.72
1550.419, 16226.33
1551.444, 16407.66
1552.469, 16160.17
1553.494, 16337.81
1554.518, 16345.75
1555.542, 16431.35
1556.566, 16348.77
1557.590, 16318.13
1558.614, 16455.74
1559.638, 16500.19
1560.661, 16398.25
1561.684, 16338.00
1562.707, 16390.00
1563.730, 16187.00
1564.753, 16359.00
1565.775, 16258.00
1566.797, 16164.00
1567.819, 16395.00
1568.841, 16128.00
1569.863, 16242.00
1570.885, 16151.00
1571.906, 16270.00
1572.927, 16348.00
1573.948, 16231.00
1574.969, 16356.00
1575.990, 16292.00
1577.010, 16278.00
##END=



