##NAMES=Magnesite
##RRUFFID=R050676
##IDEAL CHEMISTRY=MgCO_3_
##LOCALITY=Tyrol, Austria
##OWNER=RRUFF
##SOURCE=University of Arizona Mineral Museum
##DESCRIPTION=Brown rhombohedral crystals
##STATUS=The identification of this mineral has been confirmed by X-ray diffraction and chemical analysis
##URL=rruff.info/R050676
##MEASURED CHEMISTRY=(Mg_0.87_Fe^2+^_0.12_Ca_0.01_)_Î£=1_CO_3_; trace amounts of Mn and Cd; CO_2_ estimated by difference
##PIN_ID=M01410
##ORIENTATION=Laser parallel to c* (0 0 1). Fiducial mark perpendicular to laser is parallel to a [1 0 0]
61.07900, 12152.00
62.32000, 12347.00
63.56100, 12274.00
64.80100, 12498.00
66.04100, 12612.00
67.28100, 13232.00
68.52100, 13459.00
69.76100, 12988.00
71.00100, 12911.00
72.24000, 12416.00
73.47900, 12382.00
74.71800, 12558.00
75.95700, 12715.00
77.19600, 12322.00
78.43500, 12618.00
79.67300, 11967.00
80.91200, 12437.00
82.15000, 13142.00
83.38800, 12956.00
84.62600, 12182.00
85.86300, 11446.00
87.10100, 11205.00
88.33800, 10798.00
89.57500, 10883.00
90.81200, 10632.00
92.04900, 10773.00
93.28600, 10459.00
94.52300, 10557.00
95.75900, 10417.23
96.99500, 10525.00
98.23100, 10197.00
99.46700, 10073.00
100.7030, 9991.458
101.9390, 10206.00
103.1740, 10011.00
104.4090, 10096.00
105.6440, 10077.00
106.8790, 10105.00
108.1140, 10079.52
109.3490, 9759.000
110.5830, 9980.000
111.8180, 9892.000
113.0520, 9812.000
114.2860, 10131.00
115.5200, 10189.00
116.7530, 9915.000
117.9870, 9773.000
119.2200, 10136.00
120.4530, 10729.00
121.6860, 10634.00
122.9190, 10228.00
124.1520, 9768.000
125.3850, 9495.000
126.6170, 9449.000
127.8490, 9349.000
129.0810, 9276.000
130.3130, 9362.000
131.5450, 9281.000
132.7770, 9110.000
134.0080, 9179.000
135.2390, 9373.000
136.4710, 9386.000
137.7020, 9179.000
138.9320, 9331.000
140.1630, 9239.000
141.3930, 9066.000
142.6240, 9055.000
143.8540, 9284.000
145.0840, 9233.000
146.3140, 9347.000
147.5440, 9184.000
148.7730, 9175.000
150.0020, 9019.000
151.2320, 9161.000
152.4610, 9226.000
153.6900, 9098.000
154.9180, 9036.000
156.1470, 8915.000
157.3750, 9154.000
158.6040, 9095.000
159.8320, 9108.000
161.0600, 9182.000
162.2870, 9051.000
163.5150, 9176.000
164.7420, 9140.000
165.9700, 9134.894
167.1970, 9218.000
168.4240, 9121.000
169.6510, 9097.000
170.8770, 9040.000
172.1040, 9050.083
173.3300, 9093.000
174.5560, 9123.000
175.7820, 9102.000
177.0080, 9177.000
178.2340, 9231.000
179.4590, 9081.000
180.6850, 9402.000
181.9100, 9221.000
183.1350, 9293.000
184.3600, 9175.000
185.5850, 9320.000
186.8090, 9403.000
188.0340, 9441.000
189.2580, 9595.000
190.4820, 9542.000
191.7060, 9762.000
192.9300, 9952.000
194.1530, 10190.00
195.3770, 10517.00
196.6000, 10811.00
197.8230, 11308.00
199.0460, 11795.00
200.2690, 12482.00
201.4910, 13319.00
202.7140, 14240.63
203.9360, 15110.00
205.1580, 16585.00
206.3800, 18076.00
207.6020, 19706.00
208.8240, 21057.00
210.0450, 21746.00
211.2670, 20930.00
212.4880, 19214.00
213.7090, 16845.00
214.9300, 14726.00
216.1510, 13377.00
217.3710, 12023.00
218.5920, 10578.00
219.8120, 9705.000
221.0320, 9532.000
222.2520, 9078.000
223.4720, 8733.000
224.6910, 8702.000
225.9110, 8725.000
227.1300, 8707.000
228.3490, 8532.000
229.5680, 8517.000
230.7870, 8437.455
232.0050, 8393.480
233.2240, 8313.000
234.4420, 8374.000
235.6600, 8315.000
236.8780, 8338.000
238.0960, 8185.000
239.3140, 8287.000
240.5310, 8285.000
241.7490, 8339.000
242.9660, 8388.000
244.1830, 8290.000
245.4000, 8377.000
246.6160, 8152.000
247.8330, 8273.000
249.0490, 8248.000
250.2660, 8322.000
251.4820, 8301.000
252.6980, 8236.000
253.9130, 8227.000
255.1290, 8244.000
256.3440, 8212.000
257.5600, 8110.000
258.7750, 8196.000
259.9900, 8150.000
261.2040, 8209.000
262.4190, 8214.000
263.6330, 8145.000
264.8480, 8132.000
266.0620, 8343.000
267.2760, 8051.000
268.4900, 8154.000
269.7030, 8265.000
270.9170, 8166.000
272.1300, 8186.000
273.3430, 8208.000
274.5560, 8215.000
275.7690, 8221.000
276.9820, 8083.000
278.1940, 8134.000
279.4070, 8315.000
280.6190, 8177.000
281.8310, 8227.000
283.0430, 8338.000
284.2550, 8365.000
285.4660, 8267.000
286.6770, 8167.000
287.8890, 8266.000
289.1000, 8268.000
290.3110, 8195.000
291.5210, 8099.000
292.7320, 8196.000
293.9420, 8144.000
295.1530, 8303.000
296.3630, 8326.000
297.5730, 8264.000
298.7830, 8283.000
299.9920, 8302.000
301.2020, 8401.000
302.4110, 8404.000
303.6200, 8372.000
304.8290, 8470.000
306.0380, 8454.000
307.2470, 8524.000
308.4550, 8672.000
309.6630, 8712.000
310.8720, 8826.000
312.0800, 9006.000
313.2880, 9314.000
314.4950, 9701.000
315.7030, 10001.00
316.9100, 10506.00
318.1170, 11158.00
319.3240, 12009.00
320.5310, 12920.00
321.7380, 14057.00
322.9450, 15178.00
324.1510, 16438.00
325.3570, 17165.00
326.5630, 17123.00
327.7690, 16343.00
328.9750, 15039.00
330.1810, 13644.00
331.3860, 12280.00
332.5910, 11191.00
333.7960, 10344.00
335.0010, 9902.000
336.2060, 9642.000
337.4110, 9179.000
338.6150, 9095.000
339.8200, 8987.000
341.0240, 8750.000
342.2280, 8802.000
343.4320, 8603.000
344.6350, 8578.000
345.8390, 8573.000
347.0420, 8512.000
348.2450, 8422.000
349.4480, 8423.000
350.6510, 8471.000
351.8540, 8342.000
353.0560, 8429.000
354.2590, 8363.000
355.4610, 8352.000
356.6630, 8381.000
357.8650, 8404.000
359.0670, 8449.000
360.2680, 8331.000
361.4700, 8384.000
362.6710, 8361.000
363.8720, 8421.000
365.0730, 8281.000
366.2740, 8443.000
367.4740, 8295.000
368.6750, 8450.000
369.8750, 8498.000
371.0750, 8238.000
372.2750, 8371.000
373.4750, 8526.000
374.6740, 8433.000
375.8740, 8484.000
377.0730, 8377.000
378.2720, 8534.000
379.4710, 8456.000
380.6700, 8436.000
381.8690, 8447.000
383.0670, 8516.000
384.2660, 8471.000
385.4640, 8500.000
386.6620, 8458.000
387.8600, 8491.000
389.0570, 8466.000
390.2550, 8366.000
391.4520, 8467.000
392.6490, 8349.000
393.8460, 8563.000
395.0430, 8403.000
396.2400, 8452.000
397.4370, 8419.000
398.6330, 8435.000
399.8290, 8475.000
401.0250, 8464.383
402.2210, 8427.000
403.4170, 8456.000
404.6130, 8482.000
405.8080, 8413.000
407.0030, 8345.000
408.1980, 8478.000
409.3930, 8350.000
410.5880, 8317.000
411.7830, 8469.000
412.9770, 8448.000
414.1720, 8323.000
415.3660, 8345.000
416.5600, 8439.000
417.7530, 8491.000
418.9470, 8354.000
420.1410, 8520.000
421.3340, 8400.000
422.5270, 8453.000
423.7200, 8454.000
424.9130, 8449.000
426.1060, 8476.000
427.2980, 8479.000
428.4900, 8491.827
429.6830, 8504.699
430.8750, 8504.000
432.0670, 8514.000
433.2580, 8491.000
434.4500, 8471.000
435.6410, 8468.000
436.8320, 8523.000
438.0240, 8474.000
439.2140, 8489.000
440.4050, 8508.000
441.5960, 8477.000
442.7860, 8514.000
443.9760, 8472.000
445.1670, 8552.000
446.3560, 8601.000
447.5460, 8579.000
448.7360, 8641.000
449.9250, 8493.000
451.1150, 8646.000
452.3040, 8552.000
453.4930, 8677.000
454.6810, 8633.000
455.8700, 8409.000
457.0590, 8558.000
458.2470, 8531.000
459.4350, 8609.000
460.6230, 8681.000
461.8110, 8679.000
462.9980, 8726.000
464.1860, 8864.000
465.3730, 8716.000
466.5600, 8813.000
467.7470, 8838.000
468.9340, 8789.000
470.1210, 8821.000
471.3080, 8763.000
472.4940, 8758.000
473.6800, 8797.097
474.8660, 8943.000
476.0520, 8885.000
477.2380, 8931.000
478.4230, 8988.000
479.6090, 8892.000
480.7940, 8933.000
481.9790, 9083.000
483.1640, 9026.000
484.3490, 9095.000
485.5330, 9112.000
486.7180, 9312.000
487.9020, 9255.000
489.0860, 9186.000
490.2700, 9495.000
491.4540, 9415.000
492.6370, 9359.000
493.8210, 9357.000
495.0040, 9357.000
496.1870, 9435.000
497.3700, 9426.000
498.5530, 9464.000
499.7360, 9684.000
500.9180, 9583.000
502.1000, 9605.000
503.2830, 9530.000
504.4650, 9771.000
505.6460, 9603.000
506.8280, 9616.000
508.0100, 9726.000
509.1910, 9670.000
510.3720, 9572.000
511.5530, 9652.000
512.7340, 9618.000
513.9150, 9674.000
515.0950, 9733.000
516.2760, 9716.000
517.4560, 9607.000
518.6360, 9803.000
519.8160, 9631.000
520.9950, 9725.000
522.1750, 9607.000
523.3540, 9802.000
524.5340, 9739.000
525.7130, 9578.000
526.8920, 9605.000
528.0700, 9527.165
529.2490, 9521.229
530.4270, 9468.000
531.6060, 9557.000
532.7840, 9541.000
533.9620, 9574.000
535.1390, 9593.000
536.3170, 9588.069
537.4940, 9603.006
538.6720, 9569.000
539.8490, 9576.000
541.0260, 9520.000
542.2030, 9440.000
543.3790, 9526.000
544.5560, 9596.000
545.7320, 9518.000
546.9080, 9660.000
548.0840, 9430.000
549.2600, 9433.000
550.4360, 9514.000
551.6110, 9445.000
552.7860, 9418.000
553.9620, 9509.000
555.1370, 9459.000
556.3110, 9465.000
557.4860, 9557.000
558.6610, 9541.000
559.8350, 9606.000
561.0090, 9524.000
562.1830, 9433.000
563.3570, 9589.000
564.5310, 9472.000
565.7040, 9411.000
566.8780, 9513.000
568.0510, 9384.000
569.2240, 9407.000
570.3970, 9448.000
571.5700, 9546.000
572.7420, 9471.000
573.9150, 9621.000
575.0870, 9554.000
576.2590, 9483.000
577.4310, 9520.000
578.6030, 9412.000
579.7740, 9440.000
580.9460, 9484.000
582.1170, 9422.000
583.2880, 9446.000
584.4590, 9377.000
585.6300, 9399.000
586.8010, 9526.000
587.9710, 9420.000
589.1410, 9541.000
590.3110, 9402.000
591.4810, 9524.000
592.6510, 9491.000
593.8210, 9476.000
594.9900, 9425.000
596.1600, 9459.000
597.3290, 9512.000
598.4980, 9474.000
599.6670, 9468.000
600.8350, 9539.000
602.0040, 9470.000
603.1720, 9523.000
604.3400, 9452.000
605.5080, 9549.000
606.6760, 9572.000
607.8440, 9578.000
609.0120, 9592.000
610.1790, 9598.000
611.3460, 9600.384
612.5130, 9596.084
613.6800, 9599.000
614.8470, 9568.000
616.0130, 9559.000
617.1800, 9526.000
618.3460, 9584.000
619.5120, 9590.813
620.6780, 9654.000
621.8440, 9669.000
623.0090, 9721.000
624.1750, 9768.000
625.3400, 9739.000
626.5050, 9743.000
627.6700, 9738.000
628.8350, 9743.110
629.9990, 9736.000
631.1640, 9778.000
632.3280, 9734.000
633.4920, 9766.000
634.6560, 9798.000
635.8200, 9739.000
636.9840, 9737.000
638.1470, 9732.000
639.3100, 9759.000
640.4730, 9786.000
641.6360, 9775.524
642.7990, 9894.000
643.9620, 9806.000
645.1240, 9861.000
646.2870, 9966.000
647.4490, 10060.00
648.6110, 10043.00
649.7730, 9962.000
650.9340, 9938.000
652.0960, 10073.00
653.2570, 9942.000
654.4180, 10091.00
655.5790, 10034.00
656.7400, 10015.00
657.9010, 10052.00
659.0620, 10116.00
660.2220, 10111.00
661.3820, 10129.95
662.5420, 10133.00
663.7020, 10105.00
664.8620, 10207.00
666.0210, 10164.00
667.1810, 10333.00
668.3400, 10233.00
669.4990, 10316.59
670.6580, 10272.00
671.8170, 10342.00
672.9750, 10338.00
674.1340, 10213.00
675.2920, 10293.00
676.4500, 10353.00
677.6080, 10255.00
678.7660, 10301.00
679.9230, 10427.00
681.0810, 10484.00
682.2380, 10507.00
683.3950, 10575.84
684.5520, 10545.00
685.7090, 10605.00
686.8660, 10591.00
688.0220, 10515.00
689.1780, 10679.00
690.3340, 10701.00
691.4900, 10615.00
692.6460, 10575.00
693.8020, 10697.00
694.9570, 10688.00
696.1130, 10854.00
697.2680, 10850.00
698.4230, 10818.00
699.5780, 10945.00
700.7320, 10954.00
701.8870, 11057.00
703.0410, 11147.00
704.1950, 11197.00
705.3490, 11374.00
706.5030, 11472.00
707.6570, 11384.00
708.8110, 11639.00
709.9640, 11701.00
711.1170, 12005.00
712.2700, 12003.00
713.4230, 12197.00
714.5760, 12231.00
715.7280, 12591.00
716.8810, 12822.00
718.0330, 13090.00
719.1850, 13418.00
720.3370, 13782.00
721.4890, 14242.00
722.6400, 14620.00
723.7920, 15287.00
724.9430, 15730.00
726.0940, 16594.00
727.2450, 17268.00
728.3960, 18185.00
729.5460, 19305.00
730.6970, 20425.00
731.8470, 21666.00
732.9970, 22751.00
734.1470, 23987.00
735.2970, 24889.00
736.4460, 25562.00
737.5960, 25886.00
738.7450, 25726.75
739.8940, 25418.00
741.0430, 24416.00
742.1920, 23330.00
743.3410, 21829.00
744.4890, 20489.00
745.6370, 19502.00
746.7850, 17979.00
747.9330, 17288.00
749.0810, 16125.00
750.2290, 15234.00
751.3760, 14526.00
752.5240, 13982.00
753.6710, 13520.00
754.8180, 13003.00
755.9650, 12567.00
757.1110, 12251.76
758.2580, 11959.00
759.4040, 11733.00
760.5510, 11602.00
761.6970, 11435.00
762.8420, 11157.00
763.9880, 11192.00
765.1340, 11264.00
766.2790, 10880.00
767.4240, 10772.00
768.5690, 10907.00
769.7140, 10705.00
770.8590, 10817.00
772.0030, 10692.00
773.1480, 10831.00
774.2920, 10814.00
775.4360, 10887.00
776.5800, 10856.00
777.7240, 10724.00
778.8670, 10811.80
780.0110, 10739.36
781.1540, 10886.00
782.2970, 10726.00
783.4400, 10774.00
784.5830, 10818.00
785.7250, 10895.00
786.8680, 10822.00
788.0100, 10854.00
789.1520, 11032.00
790.2940, 10868.00
791.4360, 10812.00
792.5780, 11079.00
793.7190, 10960.00
794.8600, 11000.00
796.0010, 10861.00
797.1420, 11059.00
798.2830, 11020.00
799.4240, 10968.00
800.5640, 10970.00
801.7050, 10939.00
802.8450, 11083.00
803.9850, 11110.00
805.1250, 11131.00
806.2640, 10945.00
807.4040, 11008.00
808.5430, 11048.00
809.6820, 10991.00
810.8210, 11111.00
811.9600, 11054.00
813.0990, 11134.00
814.2370, 11092.00
815.3760, 11108.00
816.5140, 11101.00
817.6520, 11097.00
818.7900, 11193.00
819.9270, 11265.00
821.0650, 11281.85
822.2020, 11306.43
823.3390, 11292.00
824.4760, 11302.00
825.6130, 11193.00
826.7500, 11215.00
827.8870, 11415.00
829.0230, 11251.00
830.1590, 11356.00
831.2950, 11368.00
832.4310, 11248.00
833.5670, 11332.00
834.7030, 11293.00
835.8380, 11242.00
836.9730, 11309.09
838.1080, 11347.00
839.2430, 11337.00
840.3780, 11402.00
841.5130, 11328.00
842.6470, 11309.00
843.7810, 11512.00
844.9150, 11298.00
846.0490, 11379.00
847.1830, 11542.00
848.3170, 11445.00
849.4500, 11360.00
850.5830, 11466.00
851.7160, 11412.00
852.8490, 11469.00
853.9820, 11562.00
855.1150, 11495.00
856.2470, 11691.00
857.3800, 11604.00
858.5120, 11656.00
859.6440, 11528.00
860.7760, 11500.00
861.9070, 11621.00
863.0390, 11697.00
864.1700, 11586.00
865.3010, 11627.00
866.4320, 11729.00
867.5630, 11802.00
868.6940, 11979.00
869.8240, 11825.00
870.9540, 12081.00
872.0850, 12029.00
873.2150, 12070.00
874.3450, 12173.00
875.4740, 12194.00
876.6040, 12383.00
877.7330, 12199.00
878.8620, 12520.00
879.9910, 12426.00
881.1200, 12191.00
882.2490, 12233.00
883.3770, 12221.00
884.5060, 12147.00
885.6340, 12007.00
886.7620, 11997.00
887.8900, 12019.00
889.0180, 11926.00
890.1450, 12008.00
891.2730, 11907.00
892.4000, 12124.00
893.5270, 11897.00
894.6540, 12024.00
895.7810, 12086.00
896.9070, 11992.00
898.0340, 12146.00
899.1600, 12076.00
900.2860, 12067.31
901.4120, 12063.45
902.5380, 12053.00
903.6630, 12017.00
904.7890, 12105.00
905.9140, 12197.00
907.0390, 12163.00
908.1640, 12111.00
909.2890, 12252.00
910.4130, 12310.00
911.5380, 12151.00
912.6620, 12275.00
913.7860, 12116.00
914.9100, 12313.00
916.0340, 12413.00
917.1580, 12289.00
918.2810, 12345.00
919.4040, 12348.00
920.5280, 12420.00
921.6510, 12252.00
922.7730, 12352.00
923.8960, 12284.00
925.0180, 12383.00
926.1410, 12389.00
927.2630, 12405.00
928.3850, 12429.00
929.5070, 12410.00
930.6280, 12316.00
931.7500, 12536.00
932.8710, 12622.00
933.9920, 12476.00
935.1130, 12461.00
936.2340, 12583.00
937.3550, 12544.00
938.4760, 12715.00
939.5960, 12629.00
940.7160, 12588.00
941.8360, 12639.00
942.9560, 12645.00
944.0760, 12669.18
945.1950, 12623.00
946.3150, 12774.00
947.4340, 12696.65
948.5530, 12815.00
949.6720, 12713.00
950.7900, 12575.00
951.9090, 12913.00
953.0270, 12775.00
954.1460, 12955.00
955.2640, 13071.00
956.3820, 12988.00
957.4990, 13103.00
958.6170, 13283.00
959.7340, 13534.00
960.8520, 13927.00
961.9690, 14502.00
963.0860, 14702.00
964.2020, 14735.00
965.3190, 14460.00
966.4350, 13904.00
967.5520, 13761.00
968.6680, 13351.00
969.7840, 13441.00
970.8990, 13168.00
972.0150, 12998.00
973.1310, 13113.00
974.2460, 13330.00
975.3610, 13136.00
976.4760, 13145.00
977.5910, 13140.00
978.7050, 13050.00
979.8200, 13140.00
980.9340, 13209.00
982.0480, 13211.00
983.1620, 13145.00
984.2760, 13233.00
985.3900, 13147.00
986.5030, 13300.00
987.6160, 13238.82
988.7300, 13310.00
989.8430, 13220.00
990.9550, 13270.00
992.0680, 13345.00
993.1810, 13188.00
994.2930, 13213.00
995.4050, 13433.00
996.5170, 13382.00
997.6290, 13367.00
998.7410, 13201.00
999.8520, 13303.00
1000.964, 13274.14
1002.075, 13296.00
1003.186, 13346.00
1004.297, 13420.00
1005.407, 13453.00
1006.518, 13545.00
1007.628, 13603.00
1008.738, 13540.56
1009.848, 13368.00
1010.958, 13385.00
1012.068, 13383.00
1013.178, 13299.00
1014.287, 13534.00
1015.396, 13423.00
1016.505, 13398.00
1017.614, 13531.00
1018.723, 13466.00
1019.831, 13441.00
1020.940, 13435.00
1022.048, 13462.00
1023.156, 13675.00
1024.264, 13575.00
1025.372, 13622.00
1026.479, 13632.00
1027.587, 13609.00
1028.694, 13986.00
1029.801, 14058.00
1030.908, 14121.00
1032.015, 14213.00
1033.121, 14306.00
1034.228, 14374.49
1035.334, 14447.87
1036.440, 14558.00
1037.546, 14637.72
1038.652, 14742.00
1039.758, 14846.00
1040.863, 14953.00
1041.968, 15094.00
1043.074, 15247.75
1044.178, 15361.00
1045.283, 15635.00
1046.388, 15716.00
1047.492, 15989.05
1048.597, 16101.00
1049.701, 16341.00
1050.805, 16494.00
1051.909, 16654.00
1053.012, 16816.00
1054.116, 17055.00
1055.219, 17502.00
1056.322, 17848.00
1057.425, 18094.00
1058.528, 18615.00
1059.631, 19005.00
1060.733, 19518.00
1061.836, 20254.00
1062.938, 20710.00
1064.040, 21514.00
1065.142, 22205.00
1066.243, 23225.00
1067.345, 24229.00
1068.446, 25565.00
1069.547, 26858.00
1070.648, 28666.00
1071.749, 30734.00
1072.850, 32755.00
1073.951, 35507.00
1075.051, 38158.00
1076.151, 41399.00
1077.251, 45290.00
1078.351, 49980.00
1079.451, 55724.00
1080.550, 62476.00
1081.650, 71198.00
1082.749, 81102.00
1083.848, 94351.00
1084.947, 108874.0
1086.046, 127001.0
1087.144, 148439.0
1088.243, 172460.0
1089.341, 198192.0
1090.439, 225207.0
1091.537, 249997.0
1092.635, 269392.0
1093.732, 279825.0
1094.830, 280585.0
1095.927, 271330.0
1097.024, 253905.0
1098.121, 230418.0
1099.218, 205513.0
1100.314, 180304.0
1101.411, 156729.0
1102.507, 135899.0
1103.603, 117156.0
1104.699, 100490.0
1105.795, 85844.00
1106.890, 73904.00
1107.986, 63952.00
1109.081, 55646.00
1110.176, 48927.00
1111.271, 43216.00
1112.366, 38611.00
1113.461, 35058.00
1114.555, 31985.00
1115.649, 29405.00
1116.744, 27375.00
1117.838, 25505.00
1118.931, 24156.00
1120.025, 23148.00
1121.119, 21869.00
1122.212, 21249.00
1123.305, 20580.00
1124.398, 19905.00
1125.491, 19347.00
1126.584, 18894.00
1127.676, 18670.00
1128.768, 18052.00
1129.861, 17937.00
1130.953, 17529.00
1132.044, 17399.00
1133.136, 17346.00
1134.228, 17108.00
1135.319, 17037.00
1136.410, 16616.00
1137.501, 16693.00
1138.592, 16651.00
1139.683, 16332.00
1140.773, 16576.00
1141.864, 16435.00
1142.954, 16769.00
1144.044, 16098.00
1145.134, 16267.00
1146.224, 15973.00
1147.313, 15884.00
1148.402, 15923.00
1149.492, 15943.00
1150.581, 15818.00
1151.670, 15812.00
1152.758, 15692.00
1153.847, 15647.00
1154.935, 15716.00
1156.024, 15641.07
1157.112, 15666.00
1158.200, 15594.00
1159.287, 15606.00
1160.375, 15533.00
1161.462, 15594.00
1162.550, 15613.00
1163.637, 15651.00
1164.724, 15562.00
1165.810, 15504.00
1166.897, 15766.00
1167.983, 15573.00
1169.070, 15483.00
1170.156, 15346.00
1171.242, 15604.00
1172.327, 15504.00
1173.413, 15446.00
1174.499, 15611.00
1175.584, 15543.00
1176.669, 15612.00
1177.754, 15640.00
1178.839, 15504.00
1179.923, 15574.00
1181.008, 15574.00
1182.092, 15530.04
1183.176, 15530.00
1184.260, 15506.00
1185.344, 15545.00
1186.428, 15553.00
1187.511, 15640.00
1188.595, 15591.00
1189.678, 15724.00
1190.761, 15759.00
1191.843, 15645.00
1192.926, 15662.00
1194.009, 15642.00
1195.091, 15661.00
1196.173, 15849.00
1197.255, 15618.00
1198.337, 15571.00
1199.419, 15910.00
1200.500, 15578.00
1201.582, 15490.00
1202.663, 15695.00
1203.744, 15642.00
1204.825, 15669.00
1205.905, 15878.00
1206.986, 15743.77
1208.066, 15826.41
1209.146, 15667.00
1210.226, 15786.00
1211.306, 15858.00
1212.386, 15756.00
1213.466, 15839.00
1214.545, 15989.00
1215.624, 15729.00
1216.703, 15733.00
1217.782, 15796.00
1218.861, 15959.00
1219.939, 15969.00
1221.018, 15967.00
1222.096, 15815.00
1223.174, 16042.00
1224.252, 16039.00
1225.330, 15972.00
1226.407, 15749.00
1227.485, 16008.00
1228.562, 16040.00
1229.639, 16206.00
1230.716, 16147.00
1231.793, 16030.00
1232.869, 16027.00
1233.946, 16001.21
1235.022, 15984.85
1236.098, 16046.00
1237.174, 15899.91
1238.250, 16089.00
1239.325, 16205.33
1240.401, 16252.86
1241.476, 16025.41
1242.551, 16153.01
1243.626, 16138.33
1244.701, 16117.81
1245.776, 16295.38
1246.850, 16107.90
1247.924, 16282.31
1248.999, 16312.28
1250.073, 16337.00
1251.146, 16301.00
1252.220, 16224.00
1253.293, 16241.00
1254.367, 16340.00
1255.440, 16407.00
1256.513, 16361.00
1257.586, 16463.00
1258.658, 16438.00
1259.731, 16564.00
1260.803, 16443.00
1261.875, 16530.00
1262.947, 16333.00
1264.019, 16407.00
1265.091, 16461.00
1266.162, 16509.00
1267.234, 16476.00
1268.305, 16496.00
1269.376, 16384.00
1270.447, 16497.00
1271.517, 16395.00
1272.588, 16493.00
1273.658, 16473.00
1274.729, 16448.00
1275.799, 16639.00
1276.868, 16575.00
1277.938, 16595.00
1279.008, 16851.00
1280.077, 16679.00
1281.146, 16502.00
1282.215, 16728.00
1283.284, 16653.00
1284.353, 16794.00
1285.421, 16767.44
1286.490, 16678.00
1287.558, 16725.00
1288.626, 16628.00
1289.694, 16686.00
1290.762, 16689.00
1291.829, 16728.00
1292.897, 16716.03
1293.964, 16700.00
1295.031, 16678.00
1296.098, 16680.00
1297.165, 16662.10
1298.231, 16774.00
1299.298, 16745.00
1300.364, 16893.00
1301.430, 17048.00
1302.496, 16833.00
1303.562, 16839.00
1304.627, 16803.00
1305.693, 16841.00
1306.758, 17023.00
1307.823, 17035.00
1308.888, 16924.00
1309.953, 16938.00
1311.018, 16871.24
1312.082, 17032.00
1313.146, 16905.00
1314.210, 16914.00
1315.274, 16967.74
1316.338, 17181.00
1317.402, 17025.00
1318.465, 17099.00
1319.529, 17121.00
1320.592, 17093.00
1321.655, 17252.00
1322.718, 17186.00
1323.780, 17186.48
1324.843, 17176.00
1325.905, 17119.00
1326.967, 17230.00
1328.029, 17238.00
1329.091, 17137.00
1330.153, 17113.00
1331.214, 17194.00
1332.275, 17076.00
1333.337, 17227.00
1334.398, 17123.00
1335.458, 17188.00
1336.519, 17121.00
1337.580, 17414.00
1338.640, 17176.00
1339.700, 17197.00
1340.760, 17349.00
1341.820, 17164.00
1342.880, 17348.00
1343.939, 17231.00
1344.999, 17445.00
1346.058, 17139.00
1347.117, 17242.00
1348.176, 17398.00
1349.235, 17266.00
1350.293, 17211.00
1351.351, 17430.00
1352.410, 17207.00
1353.468, 17237.00
1354.526, 17335.00
1355.583, 17198.00
1356.641, 17255.00
1357.698, 17460.00
1358.756, 17272.00
1359.813, 17468.00
1360.869, 17516.00
1361.926, 17352.00
1362.983, 17313.00
1364.039, 17351.00
1365.095, 17538.00
1366.152, 17492.00
1367.207, 17553.00
1368.263, 17350.00
1369.319, 17306.00
1370.374, 17397.00
1371.430, 17403.00
1372.485, 17393.00
1373.540, 17335.00
1374.594, 17604.00
1375.649, 17462.00
1376.703, 17499.00
1377.758, 17247.00
1378.812, 17411.00
1379.866, 17458.00
1380.920, 17524.00
1381.973, 17586.00
1383.027, 17510.00
1384.080, 17434.00
1385.133, 17517.00
1386.186, 17549.00
1387.239, 17627.00
1388.291, 17609.00
1389.344, 17567.00
1390.396, 17611.00
1391.448, 17577.71
1392.500, 17672.00
1393.552, 17529.00
1394.604, 17567.00
1395.655, 17478.00
1396.707, 17565.00
1397.758, 17567.00
1398.809, 17630.00
1399.860, 17678.00
1400.910, 17517.00
1401.961, 17680.00
1403.011, 17588.00
1404.061, 17539.00
1405.111, 17630.00
1406.161, 17733.00
1407.211, 17536.00
1408.260, 18046.00
1409.310, 17530.00
1410.359, 17590.00
1411.408, 17914.00
1412.457, 17818.00
1413.506, 17773.00
1414.554, 17814.00
1415.603, 17866.00
1416.651, 17877.00
1417.699, 17864.00
1418.747, 17884.29
1419.794, 17891.00
1420.842, 17920.64
1421.889, 17976.00
1422.937, 18003.00
1423.984, 18076.00
1425.031, 18138.52
1426.077, 18107.00
1427.124, 18247.00
1428.170, 18254.00
1429.217, 18260.00
1430.263, 18228.00
1431.309, 18383.62
1432.354, 18389.98
1433.400, 18745.00
1434.445, 18638.00
1435.491, 18884.00
1436.536, 19263.00
1437.581, 19526.00
1438.625, 19735.00
1439.670, 20105.00
1440.714, 20196.00
1441.759, 20737.00
1442.803, 21055.00
1443.847, 21226.00
1444.890, 21165.00
1445.934, 21202.00
1446.978, 21028.00
1448.021, 20745.00
1449.064, 20521.00
1450.107, 20432.00
1451.150, 20311.00
1452.192, 19943.00
1453.235, 19963.00
1454.277, 19742.00
1455.319, 19768.00
1456.361, 19798.00
1457.403, 19698.00
1458.445, 19702.00
1459.486, 19400.00
1460.528, 19484.00
1461.569, 19489.00
1462.610, 19382.00
1463.651, 19532.00
1464.691, 19576.00
1465.732, 19257.00
1466.772, 19585.00
1467.812, 19367.00
1468.852, 19267.00
1469.892, 19667.00
1470.932, 19494.00
1471.971, 19445.00
1473.011, 19434.00
1474.050, 19488.00
1475.089, 19430.12
1476.128, 19464.00
1477.166, 19383.00
1478.205, 19409.00
1479.243, 19405.00
1480.282, 19440.00
1481.320, 19533.00
1482.357, 19640.00
1483.395, 19549.00
1484.433, 19507.00
1485.470, 19427.00
1486.507, 19557.00
1487.544, 19399.00
1488.581, 19463.00
1489.618, 19324.00
1490.655, 19401.00
1491.691, 19442.00
1492.727, 19252.00
1493.763, 19438.00
1494.799, 19258.00
1495.835, 19372.00
1496.871, 19191.00
1497.906, 19248.00
1498.941, 19284.00
1499.976, 19186.00
1501.011, 19338.00
1502.046, 19412.00
1503.081, 19236.00
1504.115, 19345.00
1505.149, 19315.00
1506.183, 19218.00
1507.217, 19160.00
1508.251, 19220.00
1509.285, 19351.00
1510.318, 19448.00
1511.352, 19223.00
1512.385, 19421.00
1513.418, 19241.00
1514.450, 19466.00
1515.483, 19573.00
1516.516, 19390.00
1517.548, 19268.00
1518.580, 19610.00
1519.612, 19533.00
1520.644, 19506.00
1521.675, 19522.00
1522.707, 19646.00
1523.738, 19487.00
1524.769, 19495.00
1525.800, 19573.00
1526.831, 19488.00
1527.862, 19577.00
1528.892, 19595.00
1529.923, 19426.00
1530.953, 19620.00
1531.983, 19680.00
1533.013, 19591.00
1534.042, 19654.00
1535.072, 19668.00
1536.101, 19798.00
1537.131, 19719.00
1538.160, 19823.00
1539.188, 19787.00
1540.217, 19919.00
1541.246, 19750.00
1542.274, 19736.00
1543.302, 19667.00
1544.330, 19816.00
1545.358, 19881.00
1546.386, 19695.00
1547.413, 19882.00
1548.441, 19607.00
1549.468, 19800.00
1550.495, 20052.00
1551.522, 19944.00
1552.549, 19792.00
1553.575, 19935.00
1554.602, 20072.00
1555.628, 19716.00
1556.654, 19913.00
1557.680, 19887.00
1558.706, 19988.00
1559.731, 19980.00
1560.757, 19983.00
1561.782, 20142.00
1562.807, 19939.00
1563.832, 20099.00
1564.857, 19924.00
1565.881, 19979.00
1566.906, 20032.00
1567.930, 20019.00
1568.954, 20023.78
1569.978, 20014.00
1571.002, 19994.00
1572.025, 20022.00
1573.049, 20061.00
1574.072, 20053.00
1575.095, 20058.00
1576.118, 20016.00
1577.141, 20018.00
##END=



