##NAMES=Magnesiochromite
##RRUFFID=R060797
##IDEAL CHEMISTRY=MgCr^3+^_2_O_4_
##LOCALITY=Benbow mine, Stillwater Complex, Mount Wood area, Stillwater County, Montana, USA
##OWNER=RRUFF
##SOURCE=California Institute of Technology
##DESCRIPTION=Black granular massive
##STATUS=The identification of this mineral has been confirmed by X-ray diffraction and chemical analysis
##URL=rruff.info/R060797
##MEASURED CHEMISTRY=(Mg_0.55_Fe^2+^_0.45_)_Σ=1_(Cr_1.28_Al_0.58_Fe^3+^_0.14_)_Σ=2_O_4_
##PIN_ID=M01281
##ORIENTATION=Laser parallel to -a* (-1 0 0). Fiducial mark perpendicular to laser is parallel to c [0 0 1]
125.2950, 20218.00
126.5290, 20257.00
127.7630, 20496.00
128.9970, 20629.00
130.2300, 20911.00
131.4640, 21181.00
132.6970, 21047.00
133.9300, 20848.00
135.1630, 21137.00
136.3950, 21122.00
137.6280, 21081.00
138.8600, 21565.00
140.0920, 21475.00
141.3240, 21379.00
142.5560, 21328.00
143.7880, 21066.00
145.0190, 21143.00
146.2510, 21204.00
147.4820, 21331.00
148.7130, 21191.00
149.9440, 21145.00
151.1750, 21071.00
152.4050, 20860.00
153.6360, 21151.00
154.8660, 21224.00
156.0960, 21083.00
157.3260, 20851.00
158.5560, 20868.00
159.7850, 20886.00
161.0150, 20751.00
162.2440, 21068.00
163.4730, 20981.00
164.7020, 20921.00
165.9310, 21049.00
167.1590, 20796.00
168.3880, 21037.00
169.6160, 20930.00
170.8440, 20944.00
172.0720, 20610.21
173.3000, 20797.77
174.5280, 20905.44
175.7550, 20937.51
176.9820, 20667.58
178.2100, 20787.63
179.4370, 20751.38
180.6630, 20708.73
181.8900, 20883.66
183.1170, 20657.65
184.3430, 20785.00
185.5690, 20846.72
186.7950, 21064.97
188.0210, 21218.59
189.2470, 21309.72
190.4720, 21225.12
191.6970, 21310.87
192.9230, 21293.81
194.1480, 21248.88
195.3730, 21256.00
196.5970, 21311.00
197.8220, 21273.00
199.0460, 21471.00
200.2700, 21275.00
201.4940, 21301.00
202.7180, 20971.00
203.9420, 20905.00
205.1660, 20530.00
206.3890, 20477.00
207.6120, 20120.00
208.8350, 19979.00
210.0580, 20084.00
211.2810, 20024.00
212.5040, 20100.00
213.7260, 20019.00
214.9480, 20012.00
216.1700, 20028.00
217.3920, 19995.00
218.6140, 20020.00
219.8360, 20026.11
221.0570, 19913.00
222.2790, 20000.00
223.5000, 19949.00
224.7210, 19805.00
225.9410, 19681.00
227.1620, 19702.00
228.3820, 19796.00
229.6030, 19760.00
230.8230, 19746.00
232.0430, 19680.00
233.2630, 19731.00
234.4820, 19651.00
235.7020, 19703.00
236.9210, 19804.00
238.1400, 19575.00
239.3590, 19900.00
240.5780, 19660.00
241.7970, 19491.00
243.0150, 19505.00
244.2340, 19658.00
245.4520, 19441.00
246.6700, 19690.00
247.8880, 19278.00
249.1060, 19395.00
250.3230, 19497.00
251.5400, 19369.00
252.7580, 19402.09
253.9750, 19307.00
255.1920, 19311.00
256.4080, 19341.00
257.6250, 19390.00
258.8410, 19344.00
260.0580, 19353.21
261.2740, 19411.00
262.4900, 19290.00
263.7050, 19354.00
264.9210, 19300.00
266.1360, 19324.00
267.3520, 19417.00
268.5670, 19450.00
269.7820, 19333.00
270.9960, 19363.00
272.2110, 19411.00
273.4250, 19085.00
274.6400, 19113.24
275.8540, 19300.79
277.0680, 19392.48
278.2810, 19393.48
279.4950, 19032.05
280.7090, 19138.60
281.9220, 19057.62
283.1350, 19248.00
284.3480, 18950.00
285.5610, 18931.00
286.7730, 19051.00
287.9860, 18880.89
289.1980, 19059.59
290.4100, 19158.39
291.6220, 19181.61
292.8340, 18902.82
294.0460, 19014.00
295.2570, 18968.91
296.4690, 18917.40
297.6800, 19083.48
298.8910, 18848.62
300.1020, 19011.24
301.3120, 19015.20
302.5230, 19091.78
303.7330, 18993.00
304.9440, 18988.00
306.1540, 18984.43
307.3630, 18992.01
308.5730, 18892.00
309.7830, 18958.00
310.9920, 18897.00
312.2010, 18780.00
313.4100, 19085.00
314.6190, 18930.00
315.8280, 19053.00
317.0370, 18868.00
318.2450, 18891.00
319.4530, 18853.40
320.6610, 19177.00
321.8690, 18839.00
323.0770, 18793.00
324.2850, 18946.00
325.4920, 18751.00
326.6990, 18838.32
327.9060, 18961.00
329.1130, 18861.00
330.3200, 18902.00
331.5270, 18893.00
332.7330, 18907.00
333.9390, 19073.00
335.1450, 19026.00
336.3510, 19144.00
337.5570, 19164.00
338.7630, 19200.00
339.9680, 19394.00
341.1740, 19230.00
342.3790, 19065.00
343.5840, 19059.00
344.7890, 19130.00
345.9930, 19181.00
347.1980, 19185.00
348.4020, 19236.00
349.6060, 18945.62
350.8100, 19142.32
352.0140, 19259.14
353.2180, 19300.36
354.4210, 19039.56
355.6250, 19168.76
356.8280, 19141.65
358.0310, 19108.14
359.2340, 19292.21
360.4360, 19228.00
361.6390, 19233.00
362.8410, 19291.00
364.0430, 19512.00
365.2450, 19607.00
366.4470, 19557.00
367.6490, 19644.00
368.8510, 19579.00
370.0520, 19476.00
371.2530, 19451.00
372.4540, 19447.00
373.6550, 19833.00
374.8560, 19599.00
376.0560, 19741.00
377.2570, 19625.00
378.4570, 19642.00
379.6570, 19624.00
380.8570, 19662.09
382.0570, 19707.06
383.2560, 19794.00
384.4560, 19861.00
385.6550, 19900.00
386.8540, 20039.00
388.0530, 20122.00
389.2520, 20045.00
390.4510, 20041.00
391.6490, 20218.00
392.8470, 20038.00
394.0450, 20247.00
395.2430, 20226.00
396.4410, 20121.00
397.6390, 20163.00
398.8360, 20137.54
400.0340, 20330.00
401.2310, 20272.00
402.4280, 20248.00
403.6250, 20553.00
404.8210, 20426.00
406.0180, 20539.00
407.2140, 20368.00
408.4100, 20580.00
409.6060, 20627.00
410.8020, 20613.52
411.9980, 20874.00
413.1930, 20702.00
414.3890, 20687.00
415.5840, 20812.00
416.7790, 20781.00
417.9740, 20853.87
419.1680, 20929.00
420.3630, 20971.00
421.5570, 20992.00
422.7510, 21062.00
423.9450, 21028.00
425.1390, 21063.00
426.3330, 20984.00
427.5270, 21208.00
428.7200, 21104.00
429.9130, 21291.00
431.1060, 21311.00
432.2990, 21299.00
433.4920, 21235.00
434.6840, 21272.37
435.8770, 21423.00
437.0690, 21366.00
438.2610, 21480.00
439.4530, 21677.00
440.6450, 21536.00
441.8360, 21666.00
443.0280, 21616.00
444.2190, 21671.00
445.4100, 21665.00
446.6010, 21629.00
447.7920, 21829.00
448.9820, 22054.00
450.1730, 21776.00
451.3630, 22032.00
452.5530, 22236.00
453.7430, 22030.00
454.9330, 22333.00
456.1230, 22232.00
457.3120, 22371.00
458.5010, 22643.00
459.6910, 22405.00
460.8800, 22547.00
462.0680, 22674.00
463.2570, 22711.00
464.4460, 22867.00
465.6340, 22881.00
466.8220, 22997.00
468.0100, 23064.72
469.1980, 23136.71
470.3860, 23194.00
471.5730, 23267.00
472.7600, 23331.00
473.9480, 23320.00
475.1350, 23594.00
476.3210, 23608.00
477.5080, 23465.00
478.6950, 23822.00
479.8810, 24008.00
481.0670, 24073.00
482.2530, 23970.00
483.4390, 24088.00
484.6250, 24092.00
485.8100, 24244.00
486.9960, 24345.00
488.1810, 24489.00
489.3660, 24358.00
490.5510, 24573.00
491.7360, 24873.00
492.9200, 24694.93
494.1050, 24709.00
495.2890, 24759.00
496.4730, 25078.00
497.6570, 25628.00
498.8400, 25436.96
500.0240, 25608.76
501.2070, 25375.00
502.3910, 25510.00
503.5740, 25709.00
504.7570, 25785.00
505.9400, 26006.00
507.1220, 26061.76
508.3050, 26055.00
509.4870, 26223.00
510.6690, 26611.00
511.8510, 26782.00
513.0330, 26828.00
514.2140, 27218.00
515.3960, 27234.00
516.5770, 27574.00
517.7580, 27919.00
518.9390, 28091.00
520.1200, 28424.00
521.3010, 28576.09
522.4810, 28775.00
523.6610, 28924.00
524.8420, 29240.00
526.0220, 29524.00
527.2010, 29488.00
528.3810, 29962.00
529.5610, 30454.00
530.7400, 30636.00
531.9190, 31286.00
533.0980, 31386.00
534.2770, 31575.00
535.4560, 31601.00
536.6340, 31850.00
537.8120, 32311.00
538.9910, 32953.00
540.1690, 33657.00
541.3460, 33778.00
542.5240, 34355.00
543.7020, 34872.00
544.8790, 35213.25
546.0560, 35726.79
547.2330, 36144.00
548.4100, 36552.00
549.5870, 37118.00
550.7630, 37476.00
551.9400, 37841.00
553.1160, 37820.00
554.2920, 37985.00
555.4680, 38277.00
556.6440, 38521.00
557.8190, 39054.00
558.9950, 38985.00
560.1700, 39471.00
561.3450, 39479.00
562.5200, 39584.00
563.6950, 39694.00
564.8690, 39906.06
566.0440, 39712.00
567.2180, 40345.00
568.3920, 40478.00
569.5660, 40514.00
570.7400, 40355.00
571.9130, 40369.00
573.0870, 40512.00
574.2600, 40354.00
575.4330, 39986.00
576.6060, 39411.00
577.7790, 39482.00
578.9520, 39026.00
580.1240, 38739.00
581.2960, 38116.00
582.4690, 37591.00
583.6410, 37190.00
584.8120, 36738.00
585.9840, 36549.00
587.1560, 36028.00
588.3270, 35411.00
589.4980, 35204.00
590.6690, 34594.00
591.8400, 34259.00
593.0110, 34313.00
594.1810, 33749.00
595.3510, 33209.00
596.5220, 33090.00
597.6920, 33010.00
598.8610, 32662.00
600.0310, 32499.00
601.2010, 32309.00
602.3700, 32117.00
603.5390, 31877.00
604.7080, 31754.00
605.8770, 31299.00
607.0460, 31056.00
608.2140, 30733.00
609.3830, 30631.00
610.5510, 30435.00
611.7190, 30313.00
612.8870, 29864.00
614.0550, 29427.00
615.2220, 29046.00
616.3900, 28832.00
617.5570, 28710.00
618.7240, 28331.00
619.8910, 28071.00
621.0580, 27737.00
622.2240, 27561.00
623.3910, 27196.00
624.5570, 27080.00
625.7230, 26698.00
626.8890, 26407.00
628.0550, 26510.00
629.2200, 26419.00
630.3860, 26239.00
631.5510, 26213.00
632.7160, 26358.00
633.8810, 26401.00
635.0460, 26732.00
636.2100, 26911.00
637.3750, 27454.00
638.5390, 27432.00
639.7030, 27753.00
640.8670, 28330.00
642.0310, 28529.00
643.1950, 28793.00
644.3580, 29217.17
645.5210, 29462.00
646.6850, 29783.00
647.8480, 30085.26
649.0100, 30287.00
650.1730, 30602.00
651.3350, 30756.00
652.4980, 30920.00
653.6600, 31060.00
654.8220, 31772.00
655.9840, 33314.00
657.1450, 33964.00
658.3070, 33984.00
659.4680, 33563.00
660.6300, 34066.00
661.7910, 34122.00
662.9510, 33959.93
664.1120, 33936.00
665.2730, 33762.00
666.4330, 33705.00
667.5930, 33630.00
668.7530, 33046.00
669.9130, 32911.93
671.0730, 32022.00
672.2320, 32404.00
673.3920, 32472.00
674.5510, 32603.00
675.7100, 33033.00
676.8690, 33352.00
678.0280, 33467.00
679.1860, 34013.00
680.3450, 34469.00
681.5030, 34791.00
682.6610, 34964.00
683.8190, 35492.00
684.9770, 35803.00
686.1340, 36473.00
687.2920, 36670.00
688.4490, 37123.00
689.6060, 37532.00
690.7630, 38050.00
691.9200, 38814.55
693.0760, 40075.00
694.2330, 40225.00
695.3890, 40605.00
696.5450, 40715.00
697.7010, 40567.00
698.8570, 40646.00
700.0130, 40372.34
701.1680, 40181.09
702.3230, 39749.00
703.4780, 39610.00
704.6330, 39225.00
705.7880, 38908.00
706.9430, 38402.00
708.0970, 37921.00
709.2520, 37447.00
710.4060, 36729.00
711.5600, 36134.00
712.7140, 35611.00
713.8670, 34945.00
715.0210, 34431.00
716.1740, 33855.00
717.3270, 33235.00
718.4800, 32480.00
719.6330, 32012.00
720.7860, 31387.00
721.9380, 30701.00
723.0910, 30265.00
724.2430, 29767.00
725.3950, 29233.00
726.5470, 28791.00
727.6980, 28401.00
728.8500, 27944.00
730.0010, 27501.00
731.1530, 27161.00
732.3040, 26700.00
733.4550, 26405.00
734.6050, 26049.00
735.7560, 25951.00
736.9060, 25552.00
738.0560, 25478.00
739.2060, 25183.00
740.3560, 24966.00
741.5060, 24667.00
742.6560, 24530.00
743.8050, 24260.00
744.9540, 24166.00
746.1030, 23998.00
747.2520, 23662.00
748.4010, 23538.00
749.5500, 23393.00
750.6980, 23283.00
751.8460, 23236.00
752.9950, 22950.00
754.1420, 22895.00
755.2900, 22773.00
756.4380, 22515.00
757.5850, 22612.00
758.7330, 22511.00
759.8800, 22460.00
761.0270, 22289.00
762.1730, 22219.00
763.3200, 22093.00
764.4670, 22049.00
765.6130, 21904.00
766.7590, 21983.00
767.9050, 21869.00
769.0510, 21763.00
770.1960, 21613.00
771.3420, 21673.00
772.4870, 21590.00
773.6320, 21507.00
774.7770, 21404.00
775.9220, 21370.71
777.0670, 21301.00
778.2110, 21299.00
779.3560, 21266.00
780.5000, 21224.00
781.6440, 21021.00
782.7880, 21019.00
783.9320, 20938.00
785.0750, 21040.00
786.2180, 20853.00
787.3620, 21061.00
788.5050, 20961.00
789.6480, 20979.00
790.7900, 21072.29
791.9330, 20993.59
793.0750, 21144.00
794.2170, 20957.00
795.3590, 20874.00
796.5010, 20874.00
797.6430, 20751.00
798.7850, 20415.00
799.9260, 20869.00
801.0670, 20751.00
802.2080, 20508.00
803.3490, 20810.00
804.4900, 20542.00
805.6310, 20595.00
806.7710, 20661.00
807.9110, 20505.00
809.0510, 20658.00
810.1910, 20697.00
811.3310, 20510.00
812.4710, 20612.00
813.6100, 20629.00
814.7490, 20514.00
815.8880, 20454.00
817.0270, 20459.00
818.1660, 20527.00
819.3050, 20396.00
820.4430, 20510.00
821.5820, 20342.00
822.7200, 20538.00
823.8580, 20312.00
824.9950, 20263.00
826.1330, 20520.00
827.2710, 20304.00
828.4080, 20270.00
829.5450, 20360.00
830.6820, 20228.00
831.8190, 20335.00
832.9560, 20171.00
834.0920, 20052.00
835.2280, 20177.00
836.3650, 20252.00
837.5010, 20253.00
838.6360, 20229.00
839.7720, 20180.00
840.9080, 20258.00
842.0430, 20213.65
843.1780, 20192.00
844.3130, 20248.00
845.4480, 20201.00
846.5830, 20310.00
847.7170, 20263.30
848.8520, 20266.32
849.9860, 20213.00
851.1200, 20303.00
852.2540, 20279.29
853.3870, 20444.00
854.5210, 20225.20
855.6540, 20394.56
856.7880, 20484.04
857.9210, 20497.93
859.0540, 20209.81
860.1860, 20311.68
861.3190, 20257.26
862.4510, 20196.44
863.5840, 20353.18
864.7160, 20109.00
865.8480, 20262.31
866.9790, 20256.96
868.1110, 20324.22
869.2420, 20234.24
870.3740, 20192.82
871.5050, 20308.71
872.6360, 20120.00
873.7660, 20126.00
874.8970, 20115.00
876.0280, 19940.55
877.1580, 20122.12
878.2880, 20223.81
879.4180, 20249.90
880.5480, 19973.99
881.6770, 20088.06
882.8070, 20045.84
883.9360, 19997.21
885.0650, 20166.17
886.1940, 19934.18
887.3230, 20099.69
888.4520, 20106.52
889.5800, 20185.97
890.7090, 20108.18
891.8370, 20078.95
892.9650, 20207.02
894.0930, 20248.00
895.2200, 20152.10
896.3480, 20236.17
897.4750, 19998.69
898.6020, 20043.38
899.7290, 20209.81
900.8560, 20121.81
901.9830, 20208.76
903.1090, 20229.08
904.2360, 19946.62
905.3620, 20190.72
906.4880, 20207.11
907.6140, 19963.00
908.7400, 20067.00
909.8650, 20087.00
910.9900, 20047.00
912.1160, 20078.75
913.2410, 19999.93
914.3660, 20112.00
915.4900, 19841.00
916.6150, 19980.00
917.7390, 19909.00
918.8640, 20017.00
919.9880, 19995.00
921.1120, 19982.00
922.2350, 20077.00
923.3590, 20041.00
924.4820, 19992.00
925.6060, 20157.00
926.7290, 19997.00
927.8520, 19945.00
928.9740, 19986.00
930.0970, 19907.97
931.2190, 19925.58
932.3420, 19921.00
933.4640, 19980.00
934.5860, 20067.00
935.7080, 20211.00
936.8290, 19925.00
937.9510, 20133.00
939.0720, 20229.00
940.1930, 20001.00
941.3140, 20068.00
942.4350, 20105.00
943.5560, 20029.00
944.6760, 20165.00
945.7960, 20239.00
946.9170, 19991.00
948.0370, 20103.00
949.1560, 20106.00
950.2760, 20039.00
951.3960, 19961.00
952.5150, 19902.00
953.6340, 20135.00
954.7530, 20082.00
955.8720, 20104.86
956.9910, 20185.09
958.1090, 20089.00
959.2280, 20154.00
960.3460, 20171.00
961.4640, 19960.00
962.5820, 20143.00
963.6990, 20079.00
964.8170, 19914.00
965.9340, 20287.00
967.0510, 20162.00
968.1690, 20010.00
969.2850, 20194.00
970.4020, 20261.00
971.5190, 20022.00
972.6350, 20050.00
973.7510, 20235.00
974.8670, 20208.00
975.9830, 20347.00
977.0990, 20234.00
978.2150, 20181.00
979.3300, 20114.00
980.4450, 19999.00
981.5600, 20232.00
982.6750, 20161.00
983.7900, 20262.00
984.9050, 20207.00
986.0190, 20369.00
987.1340, 20244.00
988.2480, 20179.00
989.3620, 20313.00
990.4750, 20227.00
991.5890, 20426.00
992.7020, 20335.10
993.8160, 20320.00
994.9290, 20262.00
996.0420, 20224.00
997.1550, 20287.00
998.2670, 20261.00
999.3800, 20232.00
1000.492, 20175.00
1001.604, 20200.49
1002.716, 20344.00
1003.828, 20333.00
1004.940, 20284.00
1006.051, 20538.00
1007.163, 20500.00
1008.274, 20327.00
1009.385, 20288.00
1010.496, 20392.00
1011.606, 20427.00
1012.717, 20359.00
1013.827, 20458.00
1014.937, 20490.00
1016.047, 20427.00
1017.157, 20317.00
1018.267, 20366.00
1019.377, 20376.00
1020.486, 20465.13
1021.595, 20444.44
1022.704, 20443.70
1023.813, 20474.00
1024.922, 20388.00
1026.030, 20495.00
1027.139, 20472.00
1028.247, 20493.00
1029.355, 20571.00
1030.463, 20586.00
1031.571, 20631.00
1032.678, 20574.00
1033.786, 20709.00
1034.893, 20691.00
1036.000, 20793.00
1037.107, 20800.45
1038.214, 20803.00
1039.321, 20753.00
1040.427, 20862.00
1041.533, 20578.38
1042.639, 20792.81
1043.745, 20927.35
1044.851, 20986.29
1045.957, 20743.23
1047.062, 20890.12
1048.168, 20880.75
1049.273, 20864.95
1050.378, 20748.00
1051.482, 20876.00
1052.587, 20811.00
1053.692, 20793.00
1054.796, 21051.00
1055.900, 20950.00
1057.004, 21073.00
1058.108, 21077.00
1059.212, 21163.00
1060.315, 20890.00
1061.418, 21020.00
1062.522, 20889.00
1063.625, 21012.00
1064.728, 21097.00
1065.830, 21166.00
1066.933, 20966.00
1068.035, 20946.00
1069.137, 21046.00
1070.239, 21137.00
1071.341, 21007.00
1072.443, 21178.00
1073.545, 21237.00
1074.646, 21166.00
1075.747, 21171.00
1076.848, 21194.73
1077.949, 21367.00
1079.050, 21240.00
1080.150, 21418.00
1081.251, 21463.00
1082.351, 21286.00
1083.451, 21491.00
1084.551, 21433.66
1085.651, 21519.00
1086.750, 21356.00
1087.850, 21629.00
1088.949, 21337.00
1090.048, 21337.00
1091.147, 21535.00
1092.246, 21461.00
1093.345, 21567.00
1094.443, 21484.00
1095.541, 21695.00
1096.639, 21568.00
1097.737, 21645.00
1098.835, 21878.00
1099.933, 21741.00
1101.030, 21795.00
1102.128, 21439.00
1103.225, 21633.00
1104.322, 21652.00
1105.419, 21751.00
1106.515, 21584.00
1107.612, 21607.00
1108.708, 21809.00
1109.804, 21779.00
1110.900, 21902.00
1111.996, 21978.00
1113.092, 21681.00
1114.187, 21886.00
1115.283, 21907.00
1116.378, 21798.00
1117.473, 21936.00
1118.568, 21935.00
1119.662, 22139.00
1120.757, 21855.80
1121.851, 22043.98
1122.946, 22152.29
1124.040, 22184.99
1125.134, 21915.69
1126.227, 22036.36
1127.321, 22000.75
1128.414, 21958.72
1129.508, 22134.29
1130.601, 21908.91
1131.693, 22081.01
1132.786, 22094.45
1133.879, 22180.50
1134.971, 21923.00
1136.064, 22155.00
1137.156, 22069.00
1138.248, 22126.00
1139.339, 22216.00
1140.431, 21993.00
1141.522, 22088.77
1142.614, 22139.00
1143.705, 22090.00
1144.796, 22095.00
1145.887, 22135.00
1146.977, 22151.00
1148.068, 22206.00
1149.158, 22082.00
1150.248, 21969.00
1151.338, 21958.00
1152.428, 21965.00
1153.518, 22084.00
1154.607, 21997.00
1155.696, 21916.00
1156.785, 22215.00
1157.874, 22045.00
1158.963, 22001.00
1160.052, 21877.00
1161.141, 22030.00
1162.229, 21840.00
1163.317, 21909.00
1164.405, 21885.00
1165.493, 21855.00
1166.581, 21897.00
1167.668, 21722.00
1168.756, 21739.00
1169.843, 21997.00
1170.930, 21788.00
1172.017, 21869.00
1173.103, 21820.00
1174.190, 21874.54
1175.276, 21708.19
1176.363, 21897.09
1177.449, 22006.10
1178.535, 22039.52
1179.620, 21770.92
1180.706, 21892.31
1181.791, 21857.40
1182.877, 21816.10
1183.962, 21992.37
1185.047, 21767.70
1186.131, 21940.51
1187.216, 21954.66
1188.300, 21814.00
1189.385, 21669.00
1190.469, 21731.00
1191.553, 21701.00
1192.637, 21745.00
1193.720, 21722.07
1194.804, 21892.20
1195.887, 21982.46
1196.970, 21997.11
1198.053, 21709.77
1199.136, 21812.40
1200.219, 21758.74
1201.301, 21698.69
1202.383, 21856.22
1203.465, 21612.81
1204.547, 21766.89
1205.629, 21762.30
1206.711, 21830.33
1207.792, 21741.12
1208.874, 21700.47
1209.955, 21817.13
1211.036, 21846.70
1212.117, 21739.39
1213.198, 21812.04
1214.278, 21563.17
1215.359, 21656.00
1216.439, 21622.58
1217.519, 21620.00
1218.599, 21575.00
1219.678, 21579.00
1220.758, 21634.00
1221.837, 21572.00
1222.917, 21597.00
1223.996, 21501.00
1225.075, 21640.00
1226.153, 21645.48
1227.232, 21703.00
1228.310, 21819.00
1229.389, 21622.00
1230.467, 21780.00
1231.545, 21595.00
1232.622, 21717.00
1233.700, 21690.00
1234.777, 21484.00
1235.855, 21566.00
1236.932, 21558.00
1238.009, 21471.00
1239.086, 21603.00
1240.162, 21625.00
1241.239, 21524.00
1242.315, 21442.00
1243.391, 21599.00
1244.467, 21630.00
1245.543, 21673.00
1246.619, 21506.00
1247.694, 21437.00
1248.769, 21639.00
1249.844, 21622.00
1250.919, 21649.00
1251.994, 21456.00
1253.069, 21563.00
1254.144, 21616.00
1255.218, 21971.00
1256.292, 21574.00
1257.366, 21716.00
1258.440, 21729.00
1259.514, 21537.00
1260.587, 21595.00
1261.661, 21590.00
1262.734, 21527.00
1263.807, 21678.00
1264.880, 21453.00
1265.952, 21351.00
1267.025, 21424.00
1268.097, 21454.00
1269.170, 21601.00
1270.242, 21587.60
1271.314, 21670.00
1272.385, 21574.00
1273.457, 21441.71
1274.528, 21620.66
1275.600, 21719.72
1276.671, 21743.19
1277.742, 21464.65
1278.812, 21576.10
1279.883, 21531.25
1280.954, 21480.00
1282.024, 21646.33
1283.094, 21411.72
1284.164, 21574.60
1285.234, 21578.81
1286.303, 21506.00
1287.373, 21573.00
1288.442, 21595.00
1289.511, 21610.00
1290.580, 21543.00
1291.649, 21586.00
1292.718, 21532.00
1293.786, 21677.00
1294.855, 21496.00
1295.923, 21560.00
1296.991, 21416.00
1298.059, 21578.00
1299.126, 21605.00
1300.194, 21613.00
1301.261, 21608.00
1302.328, 21567.00
1303.395, 21636.00
1304.462, 21494.00
1305.529, 21351.01
1306.596, 21523.36
1307.662, 21615.83
1308.728, 21632.71
1309.794, 21347.58
1310.860, 21452.43
1311.926, 21400.99
1312.991, 21343.16
1314.057, 21502.90
1315.122, 21261.71
1316.187, 21418.01
1317.252, 21415.63
1318.317, 21478.00
1319.381, 21428.00
1320.446, 21291.00
1321.510, 21228.00
1322.574, 21225.00
1323.638, 21265.00
1324.702, 21224.11
1325.766, 21271.00
1326.829, 21242.00
1327.892, 21243.00
1328.956, 21333.00
1330.019, 21063.00
1331.081, 21189.00
1332.144, 21242.00
1333.206, 21349.00
1334.269, 21110.00
1335.331, 21155.00
1336.393, 20900.54
1337.455, 21090.32
1338.516, 21200.21
1339.578, 21234.52
1340.639, 20966.81
1341.701, 21089.09
1342.762, 21055.07
1343.822, 21014.64
1344.883, 21191.79
1345.944, 20968.01
1347.004, 21141.71
1348.064, 21156.74
1349.124, 21244.38
1350.184, 21174.78
1351.244, 21153.75
1352.304, 21290.02
1353.363, 21184.00
1354.422, 21177.00
1355.481, 21213.00
1356.540, 21269.65
1357.599, 21194.00
1358.657, 21232.05
1359.716, 21301.00
1360.774, 21220.55
1361.832, 21248.31
1362.890, 21248.00
1363.948, 21157.00
1365.006, 21362.00
1366.063, 21343.00
1367.120, 21299.00
1368.178, 21248.00
1369.234, 21295.00
1370.291, 21215.00
1371.348, 21379.00
1372.404, 21310.00
1373.461, 21409.00
1374.517, 21339.00
1375.573, 21267.00
1376.629, 21259.00
1377.684, 21139.00
1378.740, 21400.00
1379.795, 21229.00
1380.850, 21288.00
1381.905, 21189.00
1382.960, 21264.00
1384.015, 21383.00
1385.070, 21254.00
1386.124, 21315.00
1387.178, 21287.00
1388.232, 21202.00
1389.286, 21165.00
1390.340, 21135.00
1391.393, 21354.00
1392.447, 21398.00
1393.500, 21252.00
1394.553, 21224.00
1395.606, 21160.86
1396.659, 21312.00
1397.711, 21113.00
1398.764, 21026.00
1399.816, 21208.00
1400.868, 21106.58
1401.920, 21103.00
1402.972, 21173.00
1404.023, 21119.00
1405.075, 21143.00
1406.126, 21092.00
1407.177, 21249.00
1408.228, 21135.10
1409.279, 21343.00
1410.330, 21038.00
1411.380, 20994.00
1412.431, 21039.00
1413.481, 20940.00
1414.531, 20984.98
1415.580, 21278.00
1416.630, 20946.00
1417.680, 20985.00
1418.729, 20792.00
1419.778, 21043.00
1420.827, 20939.26
1421.876, 20898.69
1422.925, 20976.00
1423.973, 20847.00
1425.022, 20957.00
1426.070, 21095.00
1427.118, 21011.00
1428.166, 21053.00
1429.214, 21020.00
1430.261, 20968.00
1431.309, 21019.00
1432.356, 20968.00
1433.403, 20791.14
1434.450, 20958.87
1435.497, 21046.71
1436.543, 21058.96
1437.590, 20769.21
1438.636, 20869.44
1439.682, 20813.38
1440.728, 20750.92
1441.774, 20906.04
1442.819, 20660.23
1443.865, 20811.90
1444.910, 20804.91
1445.955, 20870.55
1447.000, 20778.93
1448.045, 20735.88
1449.090, 20850.13
1450.134, 20675.00
1451.178, 20628.00
1452.223, 20685.00
1453.267, 20700.36
1454.310, 20643.00
1455.354, 20754.00
1456.398, 20785.00
1457.441, 20795.00
1458.484, 20684.53
1459.527, 20679.32
1460.570, 20633.59
1461.613, 20548.00
1462.655, 20589.00
1463.698, 20502.00
1464.740, 20546.00
1465.782, 20562.00
1466.824, 20725.00
1467.866, 20877.00
1468.907, 20506.00
1469.948, 20364.00
1470.990, 20635.00
1472.031, 20505.00
1473.072, 20484.00
1474.112, 20472.00
1475.153, 20654.00
1476.194, 20548.00
1477.234, 20564.00
1478.274, 20395.00
1479.314, 20464.00
1480.354, 20525.00
1481.393, 20499.00
1482.433, 20527.00
1483.472, 20431.00
1484.511, 20346.00
1485.550, 20364.37
1486.589, 20302.30
1487.628, 20414.00
1488.666, 20232.00
1489.704, 20367.00
1490.743, 20268.00
1491.781, 20390.00
1492.819, 20206.00
1493.856, 20445.00
1494.894, 20280.00
1495.931, 20215.00
1496.968, 20435.00
1498.005, 20289.00
1499.042, 20394.00
1500.079, 20182.00
1501.115, 20182.80
1502.152, 20194.00
1503.188, 20080.00
1504.224, 20312.00
1505.260, 20261.00
1506.296, 19989.00
1507.331, 20335.00
1508.367, 20301.00
1509.402, 20095.00
1510.437, 20595.00
1511.472, 20247.00
1512.507, 20174.00
1513.541, 20183.00
1514.576, 20127.00
1515.610, 20119.00
1516.644, 20192.00
1517.678, 20232.59
1518.712, 20390.00
1519.746, 20350.00
1520.779, 20182.00
1521.813, 20073.00
1522.846, 20193.00
1523.879, 20181.00
1524.912, 20152.00
1525.944, 20075.00
1526.977, 20105.00
1528.009, 20302.00
1529.041, 20146.00
1530.073, 20337.00
1531.105, 20198.00
1532.137, 20125.00
1533.168, 20290.00
1534.200, 20069.00
1535.231, 20075.00
1536.262, 20133.00
1537.293, 20033.00
1538.324, 20183.00
1539.354, 20135.00
1540.385, 20184.00
1541.415, 20052.00
1542.445, 20020.00
1543.475, 20227.00
1544.505, 20044.00
1545.534, 20095.64
1546.564, 20276.30
1547.593, 20377.08
1548.622, 20402.26
1549.651, 20125.44
1550.680, 20238.59
1551.708, 20195.47
1552.737, 20145.93
1553.765, 20313.97
1554.793, 20081.08
1555.821, 20245.67
1556.849, 20251.60
1557.877, 20330.14
1558.904, 20251.43
1559.932, 20221.30
1560.959, 20348.46
1561.986, 20388.53
1563.013, 20128.00
1564.039, 20179.00
1565.066, 20078.00
1566.092, 20173.00
1567.119, 20100.00
1568.145, 20064.00
1569.170, 20128.00
1570.196, 20177.00
1571.222, 20090.00
1572.247, 20031.00
1573.272, 20227.00
1574.297, 20009.00
1575.322, 20056.00
1576.347, 20158.00
1577.372, 19963.00
##END=



