##NAMES=Magnetite
##RRUFFID=R060222
##IDEAL CHEMISTRY=Fe^2+^Fe^3+^_2_O_4_
##LOCALITY=Cerro Hua√±aquino, Potosi Department, Bolivia
##OWNER=RRUFF
##SOURCE=Rock Currier
##DESCRIPTION=Black octahedra, the surface is hematite and the interior is magnetite
##STATUS=The identification of this mineral has been confirmed by X-ray diffraction and chemical analysis
##URL=rruff.info/R060222
##MEASURED CHEMISTRY=(Fe^2+^_0.95_Mg_0.05_)(Fe^3+^_0.99_Al_0.01_)_2_O_4_
##PIN_ID=L01600
##ORIENTATION=Laser parallel to a* (1 0 0). Fiducial mark perpendicular to laser is parallel to b [0 1 0]
125.3240, 22159.00
126.5580, 24211.00
127.7920, 25706.00
129.0260, 22844.00
130.2590, 22522.00
131.4920, 22067.00
132.7250, 21661.00
133.9580, 21819.00
135.1910, 21708.00
136.4230, 21927.00
137.6560, 22624.00
138.8880, 22743.00
140.1200, 22196.00
141.3520, 21530.00
142.5830, 21423.00
143.8150, 21259.00
145.0460, 21447.00
146.2770, 21689.00
147.5080, 21147.00
148.7390, 21071.00
149.9700, 20904.00
151.2000, 21152.00
152.4310, 21623.00
153.6610, 21588.00
154.8910, 21225.00
156.1210, 20830.00
157.3500, 20790.00
158.5800, 20595.00
159.8090, 20593.00
161.0380, 20468.00
162.2670, 21135.00
163.4960, 22136.00
164.7240, 22375.00
165.9530, 21242.00
167.1810, 20636.00
168.4090, 20308.00
169.6370, 20515.00
170.8650, 20136.00
172.0920, 20205.00
173.3200, 20273.00
174.5470, 20331.00
175.7740, 20316.00
177.0010, 20838.00
178.2280, 21024.00
179.4540, 20500.00
180.6810, 20384.00
181.9070, 19959.00
183.1330, 20273.00
184.3590, 20177.00
185.5850, 20093.00
186.8100, 19956.00
188.0350, 19935.00
189.2610, 19910.00
190.4860, 19868.00
191.7110, 19819.00
192.9350, 19808.28
194.1600, 19836.23
195.3840, 19816.00
196.6080, 19900.00
197.8320, 19993.00
199.0560, 19953.00
200.2800, 19738.00
201.5030, 19928.00
202.7270, 19938.00
203.9500, 19595.00
205.1730, 19723.00
206.3950, 19558.00
207.6180, 19562.00
208.8410, 19588.00
210.0630, 19632.00
211.2850, 19392.00
212.5070, 19340.00
213.7290, 19435.00
214.9500, 19395.00
216.1720, 19502.00
217.3930, 19498.85
218.6140, 19673.00
219.8350, 19516.00
221.0560, 19556.00
222.2770, 19557.00
223.4970, 19350.00
224.7170, 19652.00
225.9370, 19830.00
227.1570, 19555.00
228.3770, 19447.00
229.5970, 19219.00
230.8160, 19253.00
232.0350, 19280.00
233.2540, 19501.00
234.4730, 19104.00
235.6920, 19193.00
236.9110, 19029.00
238.1290, 19021.00
239.3470, 19057.00
240.5650, 19032.00
241.7830, 18888.00
243.0010, 19111.00
244.2180, 19039.00
245.4360, 19195.00
246.6530, 19055.00
247.8700, 19200.00
249.0870, 19391.00
250.3040, 19641.00
251.5200, 19678.28
252.7370, 19853.80
253.9530, 20004.94
255.1690, 20133.09
256.3850, 20275.00
257.6000, 20039.00
258.8160, 19077.00
260.0310, 19057.00
261.2460, 19062.00
262.4610, 19232.00
263.6760, 19169.00
264.8910, 19173.00
266.1050, 19115.00
267.3200, 19364.00
268.5340, 19270.00
269.7480, 19370.00
270.9620, 19387.33
272.1750, 19866.00
273.3890, 19445.00
274.6020, 19364.00
275.8150, 19558.00
277.0280, 19216.00
278.2410, 19247.00
279.4540, 19422.00
280.6660, 19355.00
281.8790, 19490.00
283.0910, 19529.00
284.3030, 19502.55
285.5140, 19618.62
286.7260, 19710.44
287.9380, 19779.28
289.1490, 19847.66
290.3600, 19851.77
291.5710, 19899.79
292.7820, 19945.86
293.9920, 19874.21
295.2030, 20073.00
296.4130, 19920.00
297.6230, 19878.00
298.8330, 20174.00
300.0430, 20049.00
301.2520, 19941.00
302.4620, 19984.27
303.6710, 19882.54
304.8800, 19897.00
306.0890, 19911.00
307.2980, 19985.00
308.5070, 19931.08
309.7150, 19914.52
310.9230, 19834.00
312.1310, 19855.00
313.3390, 19777.00
314.5470, 19855.00
315.7550, 19672.00
316.9620, 19683.00
318.1690, 19737.00
319.3760, 19727.00
320.5830, 19730.00
321.7900, 19644.43
322.9960, 19653.62
324.2030, 19638.49
325.4090, 19600.42
326.6150, 19470.50
327.8210, 19459.17
329.0270, 19400.32
330.2320, 19339.56
331.4380, 19344.92
332.6430, 19228.40
333.8480, 19232.75
335.0530, 19188.86
336.2580, 19374.00
337.4620, 19290.00
338.6670, 19372.00
339.8710, 19298.00
341.0750, 19181.67
342.2790, 19342.00
343.4820, 19121.00
344.6860, 19040.00
345.8890, 19501.00
347.0920, 19263.00
348.2960, 19272.00
349.4980, 19165.00
350.7010, 19178.00
351.9040, 18955.00
353.1060, 19093.00
354.3080, 18946.00
355.5100, 19273.00
356.7120, 19193.00
357.9140, 19113.00
359.1150, 19144.00
360.3170, 18951.18
361.5180, 19015.40
362.7190, 19055.32
363.9200, 19072.26
365.1200, 18997.36
366.3210, 19041.05
367.5210, 19037.21
368.7210, 19031.42
369.9210, 19114.00
371.1210, 19228.00
372.3210, 19224.00
373.5200, 19167.00
374.7200, 19172.00
375.9190, 19113.00
377.1180, 19274.00
378.3170, 19206.00
379.5150, 19104.00
380.7140, 19208.00
381.9120, 19112.00
383.1110, 19234.00
384.3090, 19447.00
385.5060, 19352.70
386.7040, 19375.00
387.9020, 19275.00
389.0990, 19421.00
390.2960, 19295.00
391.4930, 19308.00
392.6900, 19249.00
393.8860, 19457.00
395.0830, 19612.00
396.2790, 19295.00
397.4750, 19343.00
398.6710, 19678.00
399.8670, 19643.00
401.0630, 19415.64
402.2580, 19508.63
403.4540, 19577.36
404.6490, 19623.07
405.8440, 19576.94
407.0390, 19649.40
408.2330, 19674.31
409.4280, 19697.29
410.6220, 19784.01
411.8160, 19822.10
413.0100, 19840.49
414.2040, 19780.16
415.3980, 19821.48
416.5910, 19822.05
417.7850, 19776.00
418.9780, 19767.00
420.1710, 19746.64
421.3640, 19705.22
422.5560, 19724.00
423.7490, 19611.00
424.9410, 19726.00
426.1330, 19669.00
427.3250, 19419.07
428.5170, 19477.42
429.7090, 19511.48
430.9000, 19522.56
432.0910, 19441.80
433.2820, 19479.62
434.4730, 19469.92
435.6640, 19458.28
436.8550, 19512.79
438.0450, 19445.38
439.2360, 19498.85
440.4260, 19504.07
441.6160, 19531.36
442.8060, 19510.84
443.9950, 19505.09
445.1850, 19547.17
446.3740, 19562.77
447.5630, 19674.37
448.7520, 19705.00
449.9410, 19804.00
451.1300, 19853.35
452.3180, 19838.17
453.5060, 19751.22
454.6950, 19755.12
455.8830, 19736.06
457.0700, 19625.18
458.2580, 19632.87
459.4450, 19593.05
460.6330, 19676.00
461.8200, 19707.42
463.0070, 19849.00
464.1940, 19850.00
465.3800, 19924.00
466.5670, 20001.00
467.7530, 19991.42
468.9390, 20025.35
470.1250, 19980.00
471.3110, 20031.00
472.4970, 19982.00
473.6820, 20003.94
474.8680, 19765.00
476.0530, 19945.00
477.2380, 19865.00
478.4230, 19946.00
479.6070, 20059.00
480.7920, 20003.85
481.9760, 20028.00
483.1600, 19990.00
484.3440, 20139.00
485.5280, 20145.00
486.7120, 20162.00
487.8950, 20236.00
489.0780, 20199.00
490.2620, 20245.00
491.4450, 20194.00
492.6270, 20261.00
493.8100, 20331.00
494.9920, 20364.00
496.1750, 20502.00
497.3570, 20538.00
498.5390, 20526.00
499.7210, 20453.00
500.9020, 20482.71
502.0840, 20455.42
503.2650, 20539.31
504.4460, 20602.39
505.6270, 20645.76
506.8080, 20610.42
507.9890, 20676.73
509.1690, 20702.26
510.3500, 20726.16
511.5300, 20806.74
512.7100, 20782.82
513.8900, 20862.49
515.0690, 20900.79
516.2490, 20958.04
517.4280, 20974.27
518.6070, 21003.16
519.7860, 21073.05
520.9650, 21282.00
522.1440, 21470.00
523.3220, 21357.00
524.5010, 21559.00
525.6790, 21628.00
526.8570, 21646.00
528.0350, 21573.00
529.2130, 21683.00
530.3900, 21691.00
531.5670, 21857.00
532.7450, 21894.00
533.9220, 21774.00
535.0980, 21933.00
536.2750, 21829.00
537.4520, 21883.00
538.6280, 21869.00
539.8040, 22037.00
540.9800, 22002.00
542.1560, 22040.00
543.3320, 21950.24
544.5070, 22130.28
545.6830, 22237.45
546.8580, 22275.65
548.0330, 22038.35
549.2080, 22156.80
550.3830, 22132.69
551.5570, 22102.71
552.7310, 22271.22
553.9060, 22074.00
555.0800, 22239.36
556.2540, 22259.98
557.4270, 22346.83
558.6010, 22276.00
559.7740, 22278.00
560.9470, 22388.00
562.1210, 22290.00
563.2930, 22390.00
564.4660, 22271.00
565.6390, 22272.00
566.8110, 22319.00
567.9830, 22288.00
569.1550, 22259.76
570.3270, 22202.98
571.4990, 22161.00
572.6710, 21998.56
573.8420, 21948.00
575.0130, 21775.00
576.1840, 21690.00
577.3550, 21607.89
578.5260, 21603.00
579.6970, 21424.00
580.8670, 21464.00
582.0370, 21326.00
583.2070, 21357.00
584.3770, 21062.00
585.5470, 21003.00
586.7170, 20866.00
587.8860, 20778.00
589.0550, 20886.00
590.2240, 20776.00
591.3930, 20794.00
592.5620, 20927.00
593.7310, 20915.00
594.8990, 20949.00
596.0670, 20948.00
597.2350, 21193.00
598.4030, 20921.00
599.5710, 21241.00
600.7390, 21108.00
601.9060, 21208.00
603.0740, 21305.00
604.2410, 21271.00
605.4080, 21331.00
606.5740, 21266.00
607.7410, 21336.00
608.9080, 21442.29
610.0740, 21618.00
611.2400, 21666.00
612.4060, 21597.00
613.5720, 21587.00
614.7370, 21733.00
615.9030, 21710.00
617.0680, 21900.00
618.2330, 22066.00
619.3980, 21912.00
620.5630, 21974.00
621.7280, 22117.00
622.8920, 22274.00
624.0570, 22464.91
625.2210, 22590.41
626.3850, 22852.00
627.5490, 22880.00
628.7120, 22904.00
629.8760, 23065.00
631.0390, 23249.00
632.2020, 23467.00
633.3650, 23602.97
634.5280, 23800.86
635.6910, 23897.00
636.8530, 24159.00
638.0160, 24302.00
639.1780, 24490.00
640.3400, 24593.00
641.5020, 25193.00
642.6640, 25245.00
643.8250, 25916.00
644.9870, 25930.00
646.1480, 26271.00
647.3090, 26675.00
648.4700, 27162.00
649.6300, 27470.00
650.7910, 27938.87
651.9510, 28416.96
653.1120, 28853.00
654.2720, 29335.00
655.4320, 29921.00
656.5910, 30214.00
657.7510, 30736.00
658.9100, 31408.00
660.0690, 31699.00
661.2290, 32153.00
662.3880, 32658.00
663.5460, 32952.00
664.7050, 33249.00
665.8630, 33664.00
667.0220, 33874.00
668.1800, 34271.00
669.3380, 34232.00
670.4950, 34187.00
671.6530, 34169.00
672.8100, 34247.00
673.9680, 33721.00
675.1250, 33880.00
676.2820, 33322.00
677.4390, 33209.00
678.5950, 32814.00
679.7520, 32380.00
680.9080, 31768.00
682.0640, 31588.00
683.2200, 30813.00
684.3760, 30469.00
685.5320, 29938.00
686.6870, 29299.00
687.8420, 28894.00
688.9980, 28203.00
690.1530, 27869.00
691.3070, 27595.00
692.4620, 26818.00
693.6170, 26190.00
694.7710, 26124.00
695.9250, 25836.00
697.0790, 25187.00
698.2330, 24963.00
699.3870, 24610.00
700.5400, 24185.00
701.6940, 23954.00
702.8470, 23683.00
704.0000, 23477.00
705.1530, 22978.00
706.3050, 22841.00
707.4580, 22780.00
708.6100, 22415.00
709.7630, 22362.00
710.9150, 22240.00
712.0660, 22070.00
713.2180, 21760.00
714.3700, 21571.00
715.5210, 21451.00
716.6720, 21265.00
717.8240, 21103.00
718.9740, 20929.00
720.1250, 20924.00
721.2760, 20834.00
722.4260, 20740.00
723.5770, 20723.00
724.7270, 20516.00
725.8770, 20259.00
727.0260, 20337.00
728.1760, 20075.00
729.3250, 20068.00
730.4750, 20022.00
731.6240, 19885.00
732.7730, 19900.00
733.9220, 19659.00
735.0700, 19716.00
736.2190, 19655.00
737.3670, 19620.00
738.5150, 19682.00
739.6630, 19554.47
740.8110, 19473.00
741.9590, 19365.00
743.1060, 19225.00
744.2540, 19126.13
745.4010, 19215.00
746.5480, 19115.00
747.6950, 19062.00
748.8410, 19262.00
749.9880, 19058.00
751.1340, 19288.00
752.2800, 19047.00
753.4260, 18835.00
754.5720, 18888.00
755.7180, 18798.00
756.8640, 19006.00
758.0090, 18891.00
759.1540, 18766.00
760.2990, 19063.00
761.4440, 18874.00
762.5890, 18681.22
763.7340, 18833.87
764.8780, 18913.66
766.0220, 18924.48
767.1660, 18659.81
768.3100, 18750.89
769.4540, 18699.40
770.5980, 18642.06
771.7410, 18783.22
772.8840, 18558.63
774.0280, 18696.63
775.1700, 18689.91
776.3130, 18749.42
777.4560, 18773.00
778.5980, 18692.00
779.7410, 18671.00
780.8830, 18510.00
782.0250, 18425.00
783.1670, 18597.00
784.3080, 18730.00
785.4500, 18552.00
786.5910, 18625.00
787.7320, 18555.00
788.8730, 18619.00
790.0140, 18493.00
791.1550, 18461.00
792.2950, 18350.00
793.4360, 18339.00
794.5760, 18414.00
795.7160, 18584.00
796.8560, 18212.00
797.9960, 18554.00
799.1350, 18320.00
800.2750, 18370.00
801.4140, 18488.00
802.5530, 18562.00
803.6920, 18660.00
804.8310, 18625.63
805.9690, 18374.00
807.1080, 18515.00
808.2460, 18479.00
809.3840, 18419.00
810.5220, 18447.00
811.6600, 18468.00
812.7970, 18316.00
813.9350, 18420.00
815.0720, 18407.46
816.2090, 18499.00
817.3460, 18455.00
818.4830, 18482.02
819.6200, 18425.62
820.7560, 18452.00
821.8930, 18389.00
823.0290, 18486.00
824.1650, 18348.00
825.3010, 18423.00
826.4360, 18293.00
827.5720, 18387.00
828.7070, 18205.00
829.8420, 18384.00
830.9770, 18349.58
832.1120, 18511.63
833.2470, 18600.80
834.3820, 18621.02
835.5160, 18365.74
836.6500, 18466.21
837.7840, 18424.12
838.9180, 18376.17
840.0520, 18526.71
841.1860, 18311.51
842.3190, 18458.91
843.4520, 18414.00
844.5850, 18383.00
845.7180, 18483.00
846.8510, 18470.00
847.9840, 18618.00
849.1160, 18429.00
850.2490, 18415.00
851.3810, 18558.00
852.5130, 18624.00
853.6450, 18508.00
854.7760, 18382.00
855.9080, 18641.00
857.0390, 18493.00
858.1700, 18557.00
859.3010, 18451.00
860.4320, 18473.00
861.5630, 18603.00
862.6930, 18507.00
863.8240, 18675.00
864.9540, 18593.00
866.0840, 18714.00
867.2140, 18500.00
868.3440, 18490.00
869.4730, 18596.00
870.6030, 18386.00
871.7320, 18577.00
872.8610, 18685.00
873.9900, 18547.00
875.1190, 18468.00
876.2470, 18712.00
877.3760, 18699.00
878.5040, 18766.00
879.6320, 18635.00
880.7600, 18635.00
881.8880, 18517.00
883.0150, 18579.00
884.1430, 18758.00
885.2700, 18725.00
886.3970, 18711.00
887.5240, 18609.00
888.6510, 18607.00
889.7780, 18583.00
890.9040, 18665.00
892.0310, 18535.00
893.1570, 18659.00
894.2830, 18638.00
895.4090, 18581.00
896.5350, 18550.00
897.6600, 18862.00
898.7860, 18637.00
899.9110, 18939.00
901.0360, 18800.56
902.1610, 18786.00
903.2860, 18687.00
904.4100, 18689.00
905.5350, 18656.61
906.6590, 18811.00
907.7830, 18678.00
908.9070, 18802.63
910.0310, 18934.00
911.1540, 18874.00
912.2780, 18825.00
913.4010, 18837.00
914.5240, 18809.04
915.6470, 18824.69
916.7700, 18835.00
917.8930, 18878.00
919.0150, 18946.00
920.1380, 18998.00
921.2600, 19027.35
922.3820, 18985.00
923.5040, 19043.00
924.6260, 18996.00
925.7470, 18916.00
926.8690, 19064.00
927.9900, 18877.00
929.1110, 18932.44
930.2320, 18980.27
931.3530, 19003.00
932.4730, 18993.00
933.5940, 19197.00
934.7140, 19005.00
935.8340, 19250.00
936.9540, 19131.00
938.0740, 18860.00
939.1930, 19079.00
940.3130, 19006.00
941.4320, 19015.00
942.5510, 18979.00
943.6700, 19060.00
944.7890, 19023.16
945.9080, 19136.00
947.0260, 19044.00
948.1450, 19082.00
949.2630, 19178.00
950.3810, 18992.00
951.4990, 19144.00
952.6170, 19017.00
953.7340, 19137.00
954.8520, 19152.00
955.9690, 19135.00
957.0860, 18865.00
958.2030, 18979.00
959.3200, 18977.00
960.4360, 19324.00
961.5530, 19137.00
962.6690, 19164.00
963.7850, 19227.00
964.9010, 19160.00
966.0170, 19236.00
967.1330, 19188.00
968.2480, 19218.00
969.3630, 19253.89
970.4790, 19141.00
971.5940, 19310.00
972.7080, 19268.00
973.8230, 19264.00
974.9380, 19179.00
976.0520, 19295.00
977.1660, 19217.00
978.2800, 19139.00
979.3940, 19244.00
980.5080, 19399.00
981.6220, 19260.00
982.7350, 19186.00
983.8480, 19586.00
984.9610, 19485.00
986.0740, 19420.00
987.1870, 19493.00
988.3000, 19481.00
989.4120, 19489.00
990.5250, 19387.00
991.6370, 19419.26
992.7490, 19633.00
993.8610, 19500.00
994.9720, 19493.00
996.0840, 19700.00
997.1950, 19469.00
998.3060, 19594.00
999.4170, 19663.00
1000.528, 19632.00
1001.639, 19691.00
1002.750, 19652.00
1003.860, 19604.00
1004.970, 19751.00
1006.080, 19609.00
1007.190, 19618.00
1008.300, 19584.00
1009.410, 19631.00
1010.519, 19757.00
1011.628, 19544.00
1012.738, 19499.00
1013.846, 19693.00
1014.955, 19622.00
1016.064, 19575.00
1017.172, 19633.00
1018.281, 19712.00
1019.389, 19764.00
1020.497, 19542.00
1021.605, 19650.00
1022.713, 19593.00
1023.820, 19758.00
1024.928, 19590.00
1026.035, 19636.00
1027.142, 19598.00
1028.249, 19761.00
1029.356, 19733.00
1030.462, 19838.00
1031.569, 19749.00
1032.675, 19669.00
1033.781, 19575.00
1034.887, 19684.00
1035.993, 19747.00
1037.098, 19652.00
1038.204, 19824.00
1039.309, 19803.00
1040.415, 19716.00
1041.520, 19875.00
1042.624, 19830.00
1043.729, 19743.00
1044.834, 19649.70
1045.938, 19833.61
1047.042, 19944.64
1048.146, 19986.72
1049.250, 19753.29
1050.354, 19875.62
1051.458, 19855.37
1052.561, 19829.27
1053.664, 20001.64
1054.767, 19808.27
1055.870, 19977.50
1056.973, 20001.99
1058.076, 20092.72
1059.178, 20011.00
1060.281, 20049.00
1061.383, 20151.00
1062.485, 20207.00
1063.587, 19933.00
1064.688, 20036.00
1065.790, 20021.00
1066.891, 19961.00
1067.993, 20060.00
1069.094, 19967.83
1070.195, 20078.00
1071.295, 19881.00
1072.396, 20006.00
1073.496, 20016.00
1074.597, 20073.00
1075.697, 20036.00
1076.797, 20025.00
1077.897, 20087.00
1078.996, 20026.94
1080.096, 20091.28
1081.195, 20076.14
1082.294, 20176.00
1083.393, 20041.00
1084.492, 20062.00
1085.591, 19988.86
1086.689, 20157.76
1087.788, 20253.79
1088.886, 20280.85
1089.984, 20032.42
1091.082, 20139.74
1092.180, 20104.49
1093.277, 20063.38
1094.375, 20220.77
1095.472, 20012.41
1096.569, 20166.65
1097.666, 20176.14
1098.763, 20149.00
1099.860, 19978.00
1100.956, 20046.00
1102.053, 20077.00
1103.149, 20148.00
1104.245, 20131.00
1105.341, 20125.64
1106.436, 20055.00
1107.532, 20075.00
1108.627, 19935.00
1109.723, 19939.00
1110.818, 20063.00
1111.913, 19906.04
1113.007, 20062.61
1114.102, 20146.29
1115.197, 20161.01
1116.291, 19900.24
1117.385, 19995.22
1118.479, 19947.64
1119.573, 19894.21
1120.666, 20039.27
1121.760, 19818.57
1122.853, 19960.48
1123.947, 19957.64
1125.040, 20021.06
1126.132, 19941.04
1127.225, 19905.31
1128.318, 20013.08
1129.410, 20041.40
1130.502, 19944.86
1131.595, 20012.49
1132.687, 19987.64
1133.778, 19818.51
1134.870, 19961.28
1135.961, 19858.00
1137.053, 19765.00
1138.144, 19775.00
1139.235, 19718.26
1140.326, 19714.05
1141.416, 19738.00
1142.507, 19757.00
1143.597, 19857.00
1144.688, 19804.52
1145.778, 19519.00
1146.868, 19739.00
1147.957, 19669.00
1149.047, 19635.00
1150.136, 19702.00
1151.226, 19703.00
1152.315, 19761.00
1153.404, 19681.00
1154.493, 19672.00
1155.581, 19722.00
1156.670, 19764.00
1157.758, 19724.00
1158.846, 19739.61
1159.934, 19714.51
1161.022, 19670.00
1162.110, 19674.00
1163.198, 19673.07
1164.285, 19597.00
1165.372, 19691.00
1166.459, 19701.00
1167.546, 19520.29
1168.633, 19683.34
1169.720, 19773.51
1170.806, 19794.72
1171.892, 19540.43
1172.979, 19641.89
1174.065, 19600.79
1175.150, 19553.84
1176.236, 19705.37
1177.322, 19491.16
1178.407, 19639.54
1179.492, 19643.19
1180.577, 19713.08
1181.662, 19639.52
1182.747, 19610.27
1183.832, 19724.51
1184.916, 19759.30
1186.000, 19669.24
1187.084, 19743.34
1188.168, 19524.12
1189.252, 19562.29
1190.336, 19567.62
1191.419, 19616.00
1192.503, 19573.00
1193.586, 19638.00
1194.669, 19581.00
1195.752, 19619.00
1196.835, 19624.00
1197.917, 19558.00
1199.000, 19746.00
1200.082, 19679.00
1201.164, 19816.12
1202.246, 19727.97
1203.328, 19759.73
1204.409, 19565.00
1205.491, 19749.00
1206.572, 19772.00
1207.653, 19732.00
1208.734, 19977.00
1209.815, 19755.22
1210.896, 19673.00
1211.976, 19500.00
1213.057, 19607.00
1214.137, 19642.00
1215.217, 19726.00
1216.297, 19769.00
1217.377, 19797.00
1218.456, 19817.04
1219.536, 19819.44
1220.615, 19809.00
1221.694, 19811.00
1222.773, 19799.00
1223.852, 19814.00
1224.931, 19838.00
1226.009, 19808.11
1227.088, 19964.00
1228.166, 19812.00
1229.244, 19732.00
1230.322, 19837.00
1231.400, 19902.00
1232.477, 19830.00
1233.555, 19827.00
1234.632, 19844.81
1235.709, 19839.44
1236.786, 19866.00
1237.863, 19861.00
1238.939, 19877.00
1240.016, 19826.00
1241.092, 19594.00
1242.168, 19765.00
1243.245, 19807.00
1244.320, 20085.00
1245.396, 19940.00
1246.472, 19831.00
1247.547, 19970.00
1248.622, 19984.00
1249.697, 19908.00
1250.772, 19887.00
1251.847, 19930.00
1252.922, 19878.00
1253.996, 19825.00
1255.071, 19911.00
1256.145, 19852.00
1257.219, 19812.00
1258.293, 20022.00
1259.366, 19949.00
1260.440, 19972.00
1261.513, 20022.00
1262.587, 20132.00
1263.660, 20061.00
1264.733, 20135.00
1265.805, 20092.00
1266.878, 20205.00
1267.951, 19894.00
1269.023, 20036.00
1270.095, 20255.00
1271.167, 20052.00
1272.239, 20162.00
1273.311, 20207.00
1274.382, 20192.00
1275.454, 20324.00
1276.525, 20204.00
1277.596, 20115.00
1278.667, 20264.00
1279.738, 20212.00
1280.808, 20198.00
1281.879, 20375.00
1282.949, 20156.24
1284.019, 20343.10
1285.089, 20457.08
1286.159, 20502.11
1287.229, 20271.63
1288.298, 20396.88
1289.368, 20379.59
1290.437, 20356.43
1291.506, 20531.75
1292.575, 20341.32
1293.644, 20513.50
1294.712, 20540.91
1295.781, 20634.59
1296.849, 20584.80
1297.917, 20579.32
1298.985, 20717.33
1300.053, 20775.89
1301.121, 20709.58
1302.188, 20807.44
1303.255, 20622.00
1304.323, 20702.00
1305.390, 20493.00
1306.457, 20617.00
1307.523, 20416.00
1308.590, 20783.00
1309.656, 20653.00
1310.723, 20615.00
1311.789, 20611.00
1312.855, 20647.00
1313.921, 20701.00
1314.986, 20643.00
1316.052, 20684.57
1317.117, 20555.00
1318.182, 20699.00
1319.248, 20780.00
1320.312, 20805.00
1321.377, 20639.00
1322.442, 20558.00
1323.506, 20651.00
1324.571, 20854.00
1325.635, 20681.00
1326.699, 20723.00
1327.762, 20652.00
1328.826, 20569.36
1329.890, 20711.00
1330.953, 20578.00
1332.016, 20386.00
1333.079, 20692.00
1334.142, 20523.00
1335.205, 20667.00
1336.268, 20441.00
1337.330, 20676.00
1338.392, 20502.00
1339.454, 20500.00
1340.516, 20546.00
1341.578, 20550.00
1342.640, 20492.00
1343.701, 20488.00
1344.763, 20556.00
1345.824, 20625.00
1346.885, 20574.00
1347.946, 20484.00
1349.007, 20328.00
1350.067, 20530.00
1351.128, 20537.00
1352.188, 20428.00
1353.248, 20366.00
1354.308, 20426.00
1355.368, 20274.00
1356.428, 20420.00
1357.487, 20399.00
1358.547, 20232.00
1359.606, 20236.00
1360.665, 20306.00
1361.724, 20232.95
1362.783, 20275.01
1363.841, 20200.00
1364.900, 20295.00
1365.958, 20222.00
1367.016, 20235.45
1368.074, 20297.00
1369.132, 20107.16
1370.190, 20276.15
1371.247, 20372.26
1372.304, 20399.41
1373.362, 20151.06
1374.419, 20258.46
1375.476, 20223.29
1376.532, 20182.28
1377.589, 20339.75
1378.645, 20131.47
1379.702, 20285.79
1380.758, 20295.37
1381.814, 20371.19
1382.870, 20303.57
1383.925, 20307.00
1384.981, 20338.00
1386.036, 20372.00
1387.092, 20202.00
1388.147, 20236.00
1389.202, 20289.00
1390.256, 20180.00
1391.311, 20288.00
1392.365, 20289.00
1393.420, 20440.00
1394.474, 20191.00
1395.528, 20201.00
1396.582, 20244.00
1397.636, 20213.00
1398.689, 20052.89
1399.742, 20223.88
1400.796, 20322.00
1401.849, 20351.15
1402.902, 20104.81
1403.955, 20214.21
1405.007, 20181.04
1406.060, 20142.04
1407.112, 20301.51
1408.164, 20095.23
1409.216, 20251.55
1410.268, 20263.13
1411.320, 20340.96
1412.371, 20275.33
1413.423, 20254.01
1414.474, 20225.00
1415.525, 20156.00
1416.576, 20308.00
1417.627, 20375.00
1418.678, 20261.00
1419.728, 20234.00
1420.778, 20438.00
1421.829, 20341.23
1422.879, 20339.00
1423.928, 20317.00
1424.978, 20469.00
1426.028, 20379.00
1427.077, 20354.00
1428.126, 20394.00
1429.176, 20257.00
1430.225, 20451.00
1431.273, 20336.00
1432.322, 20335.00
1433.371, 20241.00
1434.419, 20491.00
1435.467, 20239.00
1436.515, 20525.00
1437.563, 20215.00
1438.611, 20481.00
1439.658, 20214.34
1440.706, 20384.58
1441.753, 20481.94
1442.800, 20510.35
1443.847, 20263.25
1444.894, 20371.91
1445.941, 20337.99
1446.987, 20298.23
1448.034, 20456.95
1449.080, 20249.92
1450.126, 20405.50
1451.172, 20416.33
1452.218, 20493.40
1453.263, 20427.03
1454.309, 20404.96
1455.354, 20526.38
1456.399, 20568.36
1457.444, 20485.46
1458.489, 20566.75
1459.534, 20354.70
1460.579, 20316.00
1461.623, 20496.00
1462.667, 20366.00
1463.711, 20299.00
1464.755, 20459.00
1465.799, 20304.16
1466.843, 20311.45
1467.886, 20298.00
1468.930, 20228.00
1469.973, 20472.00
1471.016, 20503.00
1472.059, 20373.00
1473.101, 20240.00
1474.144, 20334.00
1475.186, 20209.00
1476.229, 20378.00
1477.271, 20311.00
1478.313, 20361.00
1479.355, 20343.00
1480.396, 20448.00
1481.438, 20496.00
1482.479, 20249.00
1483.520, 20504.00
1484.561, 20326.00
1485.602, 20519.00
1486.643, 20353.00
1487.684, 20125.00
1488.724, 20358.00
1489.765, 20448.00
1490.805, 20326.00
1491.845, 20478.76
1492.885, 20370.00
1493.924, 20353.00
1494.964, 20419.89
1496.003, 20387.00
1497.042, 20453.00
1498.082, 20422.00
1499.120, 20350.00
1500.159, 20206.00
1501.198, 20384.00
1502.236, 20248.59
1503.275, 20312.78
1504.313, 20250.00
1505.351, 20336.00
1506.389, 20518.00
1507.427, 20415.00
1508.464, 20443.00
1509.502, 20473.27
1510.539, 20399.00
1511.576, 20407.00
1512.613, 20416.00
1513.650, 20239.00
1514.687, 20397.00
1515.723, 20490.00
1516.759, 20364.00
1517.796, 20359.00
1518.832, 20367.00
1519.868, 20226.00
1520.903, 20255.00
1521.939, 20406.00
1522.975, 20281.00
1524.010, 20394.00
1525.045, 20240.00
1526.080, 20240.00
1527.115, 20450.00
1528.150, 20326.00
1529.184, 20383.00
1530.219, 20245.00
1531.253, 20320.00
1532.287, 20305.00
1533.321, 20436.00
1534.355, 20430.00
1535.388, 20292.00
1536.422, 20482.00
1537.455, 20278.00
1538.488, 20362.00
1539.522, 20443.00
1540.554, 20241.00
1541.587, 20409.00
1542.620, 20312.00
1543.652, 20458.00
1544.685, 20282.21
1545.717, 20452.38
1546.749, 20549.68
1547.781, 20578.01
1548.812, 20330.85
1549.844, 20439.44
1550.875, 20405.45
1551.906, 20365.62
1552.938, 20524.28
1553.968, 20317.18
1554.999, 20472.69
1556.030, 20483.45
1557.060, 20560.46
1558.091, 20494.02
1559.121, 20471.88
1560.151, 20593.24
1561.181, 20635.14
1562.211, 20552.19
1563.240, 20633.40
1564.270, 20648.11
1565.299, 20636.19
1566.328, 20711.15
1567.357, 20729.78
1568.386, 20696.00
1569.415, 20403.24
1570.443, 20482.80
1571.472, 20436.30
1572.500, 20400.47
1573.528, 20579.64
1574.556, 20409.56
1575.584, 20618.59
1576.611, 20699.31
1577.639, 20403.00
##END=



