##NAMES=Magnetite
##RRUFFID=R060656
##IDEAL CHEMISTRY=Fe^2+^Fe^3+^_2_O_4_
##LOCALITY=Jacupiranga Pegmatite, Sao Paulo State, Brazil
##OWNER=RRUFF
##SOURCE=Michael Scott
##DESCRIPTION=Black rounded octahedra associated with phlogopite and diopside
##STATUS=The identification of this mineral has been confirmed by X-ray diffraction and chemical analysis
##URL=rruff.info/R060656
##MEASURED CHEMISTRY=(Fe^2+^_0.98_Mg_0.01_Mn_0.01_)(Fe^3+^_1.96_Ti_0.02_Mg_0.02_)O_4_
##PIN_ID=M00920
##ORIENTATION=Laser parallel to a* (1 0 0). Fiducial mark perpendicular to laser is parallel to b [0 1 0]
167.1590, 10300.00
168.3880, 10462.00
169.6160, 10428.00
170.8440, 10600.00
172.0720, 10546.00
173.3000, 10337.00
174.5280, 10401.00
175.7550, 10433.00
176.9820, 10325.00
178.2100, 10512.00
179.4370, 10452.00
180.6630, 10422.00
181.8900, 10491.54
183.1170, 10554.00
184.3430, 10482.00
185.5690, 10724.00
186.7950, 10558.81
188.0210, 10724.82
189.2470, 10837.73
190.4720, 10900.37
191.6970, 10762.31
192.9230, 10883.45
194.1480, 10900.69
195.3730, 10913.68
196.5970, 11029.00
197.8220, 11013.00
199.0460, 10939.00
200.2700, 10936.00
201.4940, 10862.00
202.7180, 10835.00
203.9420, 10563.00
205.1660, 10324.00
206.3890, 10189.00
207.6120, 10174.00
208.8350, 10073.00
210.0580, 9961.000
211.2810, 10245.00
212.5040, 10135.00
213.7260, 10080.00
214.9480, 10240.00
216.1700, 10002.00
217.3920, 10070.00
218.6140, 10148.00
219.8360, 10143.00
221.0570, 9954.000
222.2790, 10101.00
223.5000, 9978.000
224.7210, 10052.00
225.9410, 9971.000
227.1620, 10137.00
228.3820, 10173.00
229.6030, 10110.00
230.8230, 10062.00
232.0430, 10155.00
233.2630, 10073.00
234.4820, 10183.00
235.7020, 10042.00
236.9210, 10114.00
238.1400, 9960.000
239.3590, 10056.00
240.5780, 10083.00
241.7970, 10138.00
243.0150, 10171.00
244.2340, 10122.00
245.4520, 10156.00
246.6700, 10119.00
247.8880, 10074.00
249.1060, 10084.76
250.3230, 10130.00
251.5400, 10043.00
252.7580, 10098.25
253.9750, 10062.90
255.1920, 10121.00
256.4080, 10064.00
257.6250, 10036.00
258.8410, 10125.00
260.0580, 10117.35
261.2740, 10074.00
262.4900, 10179.00
263.7050, 10242.00
264.9210, 10201.00
266.1360, 10262.00
267.3520, 10347.00
268.5670, 10260.00
269.7820, 10344.00
270.9960, 10406.00
272.2110, 10368.00
273.4250, 10296.00
274.6400, 10268.00
275.8540, 10334.00
277.0680, 10389.00
278.2810, 10349.00
279.4950, 10330.00
280.7090, 10409.00
281.9220, 10425.00
283.1350, 10353.00
284.3480, 10605.00
285.5610, 10475.00
286.7730, 10499.00
287.9860, 10536.00
289.1980, 10448.00
290.4100, 10570.00
291.6220, 10644.00
292.8340, 10617.00
294.0460, 10573.00
295.2570, 10653.00
296.4690, 10530.00
297.6800, 10575.00
298.8910, 10760.00
300.1020, 10722.00
301.3120, 10766.36
302.5230, 10643.00
303.7330, 10775.00
304.9440, 10723.00
306.1540, 10782.00
307.3630, 10685.00
308.5730, 10654.00
309.7830, 10730.00
310.9920, 10861.00
312.2010, 10793.00
313.4100, 10902.00
314.6190, 10942.00
315.8280, 10897.48
317.0370, 10797.00
318.2450, 10800.00
319.4530, 10864.00
320.6610, 10745.00
321.8690, 10736.00
323.0770, 10727.00
324.2850, 10680.00
325.4920, 10840.00
326.6990, 10723.00
327.9060, 10754.00
329.1130, 10481.00
330.3200, 10743.00
331.5270, 10748.00
332.7330, 10548.00
333.9390, 10797.00
335.1450, 10649.00
336.3510, 10607.00
337.5570, 10724.00
338.7630, 10661.00
339.9680, 10615.00
341.1740, 10608.00
342.3790, 10551.00
343.5840, 10590.00
344.7890, 10527.00
345.9930, 10542.36
347.1980, 10562.89
348.4020, 10587.00
349.6060, 10599.00
350.8100, 10689.00
352.0140, 10678.00
353.2180, 10503.00
354.4210, 10615.00
355.6250, 10442.00
356.8280, 10678.00
358.0310, 10534.00
359.2340, 10595.00
360.4360, 10780.00
361.6390, 10695.00
362.8410, 10616.00
364.0430, 10528.00
365.2450, 10610.00
366.4470, 10622.00
367.6490, 10663.00
368.8510, 10664.00
370.0520, 10627.00
371.2530, 10652.00
372.4540, 10624.00
373.6550, 10619.00
374.8560, 10543.00
376.0560, 10726.00
377.2570, 10750.00
378.4570, 10716.00
379.6570, 10579.00
380.8570, 10582.00
382.0570, 10540.00
383.2560, 10651.00
384.4560, 10633.00
385.6550, 10734.00
386.8540, 10701.00
388.0530, 10795.00
389.2520, 10650.00
390.4510, 10877.00
391.6490, 10743.00
392.8470, 10720.00
394.0450, 10757.00
395.2430, 10667.00
396.4410, 10720.00
397.6390, 10788.00
398.8360, 10893.00
400.0340, 10840.00
401.2310, 10935.00
402.4280, 10914.43
403.6250, 10784.00
404.8210, 10865.00
406.0180, 10911.00
407.2140, 10847.00
408.4100, 10949.00
409.6060, 11015.00
410.8020, 10955.00
411.9980, 10850.00
413.1930, 11095.00
414.3890, 11006.00
415.5840, 10943.00
416.7790, 11007.00
417.9740, 11005.00
419.1680, 10980.00
420.3630, 11024.61
421.5570, 10929.00
422.7510, 11065.00
423.9450, 11049.00
425.1390, 11067.00
426.3330, 11217.00
427.5270, 11084.00
428.7200, 11046.00
429.9130, 11163.00
431.1060, 11171.00
432.2990, 11167.00
433.4920, 11110.00
434.6840, 11145.00
435.8770, 11279.00
437.0690, 11055.00
438.2610, 11275.00
439.4530, 11238.00
440.6450, 11113.00
441.8360, 11268.00
443.0280, 11158.00
444.2190, 11268.00
445.4100, 11161.00
446.6010, 11392.00
447.7920, 11293.83
448.9820, 11322.00
450.1730, 11213.00
451.3630, 11391.00
452.5530, 11386.00
453.7430, 11315.00
454.9330, 11398.00
456.1230, 11365.00
457.3120, 11361.70
458.5010, 11451.00
459.6910, 11364.00
460.8800, 11382.00
462.0680, 11415.00
463.2570, 11504.00
464.4460, 11440.00
465.6340, 11446.00
466.8220, 11447.00
468.0100, 11588.00
469.1980, 11352.00
470.3860, 11451.00
471.5730, 11516.00
472.7600, 11394.00
473.9480, 11589.00
475.1350, 11500.00
476.3210, 11552.00
477.5080, 11549.00
478.6950, 11670.00
479.8810, 11675.00
481.0670, 11680.00
482.2530, 11770.00
483.4390, 11810.00
484.6250, 11850.86
485.8100, 11889.75
486.9960, 11911.00
488.1810, 11963.00
489.3660, 11932.00
490.5510, 12025.00
491.7360, 11960.00
492.9200, 12187.00
494.1050, 12024.00
495.2890, 12074.00
496.4730, 12102.00
497.6570, 12045.00
498.8400, 12191.00
500.0240, 12354.00
501.2070, 12450.00
502.3910, 12335.00
503.5740, 12522.00
504.7570, 12304.00
505.9400, 12445.00
507.1220, 12329.00
508.3050, 12497.00
509.4870, 12587.00
510.6690, 12436.00
511.8510, 12612.00
513.0330, 12699.00
514.2140, 12794.00
515.3960, 12754.00
516.5770, 12950.00
517.7580, 12985.00
518.9390, 13161.00
520.1200, 13129.00
521.3010, 13324.00
522.4810, 13094.00
523.6610, 13195.67
524.8420, 13406.76
526.0220, 13547.02
527.2010, 13620.26
528.3810, 13425.94
529.5610, 13577.18
530.7400, 13589.89
531.9190, 13596.92
533.0980, 13796.74
534.2770, 13641.30
535.4560, 13838.07
536.6340, 13894.20
537.8120, 14014.68
538.9910, 13995.87
540.1690, 14020.04
541.3460, 14136.00
542.5240, 14086.00
543.7020, 14188.00
544.8790, 14098.00
546.0560, 14216.00
547.2330, 14261.00
548.4100, 14284.00
549.5870, 14225.00
550.7630, 14122.00
551.9400, 14207.00
553.1160, 14067.00
554.2920, 14191.00
555.4680, 13930.00
556.6440, 14028.00
557.8190, 14022.00
558.9950, 13951.00
560.1700, 14038.00
561.3450, 13972.00
562.5200, 13875.00
563.6950, 13982.00
564.8690, 13731.00
566.0440, 13709.06
567.2180, 13784.08
568.3920, 13788.32
569.5660, 13725.58
570.7400, 13395.23
571.9130, 13410.51
573.0870, 13287.23
574.2600, 13158.35
575.4330, 13222.27
576.6060, 13109.00
577.7790, 12926.00
578.9520, 12932.00
580.1240, 12622.00
581.2960, 12727.00
582.4690, 12497.00
583.6410, 12356.00
584.8120, 12367.00
585.9840, 12169.00
587.1560, 12054.00
588.3270, 12030.59
589.4980, 12031.00
590.6690, 11998.00
591.8400, 11942.00
593.0110, 12027.00
594.1810, 11944.00
595.3510, 12013.00
596.5220, 12027.00
597.6920, 11996.00
598.8610, 12013.00
600.0310, 11980.00
601.2010, 12049.00
602.3700, 12107.00
603.5390, 12017.00
604.7080, 12147.00
605.8770, 12114.00
607.0460, 12134.00
608.2140, 12320.00
609.3830, 12409.00
610.5510, 12278.00
611.7190, 12358.00
612.8870, 12469.00
614.0550, 12421.00
615.2220, 12634.00
616.3900, 12669.00
617.5570, 12635.00
618.7240, 12726.00
619.8910, 12719.00
621.0580, 12936.00
622.2240, 12901.00
623.3910, 12954.00
624.5570, 13076.48
625.7230, 13372.00
626.8890, 13246.00
628.0550, 13549.00
629.2200, 13625.00
630.3860, 13622.00
631.5510, 13802.00
632.7160, 13929.00
633.8810, 14114.00
635.0460, 14413.00
636.2100, 14537.00
637.3750, 14789.00
638.5390, 15006.35
639.7030, 15172.00
640.8670, 15454.00
642.0310, 15662.00
643.1950, 15909.00
644.3580, 16237.75
645.5210, 16273.00
646.6850, 16942.00
647.8480, 17281.00
649.0100, 17712.00
650.1730, 17860.00
651.3350, 18306.00
652.4980, 18766.00
653.6600, 19265.00
654.8220, 19597.00
655.9840, 20119.00
657.1450, 20567.00
658.3070, 21046.00
659.4680, 21375.00
660.6300, 21849.00
661.7910, 22052.00
662.9510, 22857.78
664.1120, 23034.73
665.2730, 23202.44
666.4330, 23361.26
667.5930, 23485.19
668.7530, 23461.00
669.9130, 23478.00
671.0730, 23276.00
672.2320, 23270.29
673.3920, 22918.79
674.5510, 22558.39
675.7100, 22189.25
676.8690, 21785.20
678.0280, 21412.00
679.1860, 21204.00
680.3450, 20702.00
681.5030, 20227.00
682.6610, 19949.00
683.8190, 19542.00
684.9770, 19026.00
686.1340, 18720.45
687.2920, 18249.00
688.4490, 17996.00
689.6060, 17558.69
690.7630, 17231.06
691.9200, 16795.00
693.0760, 16556.00
694.2330, 16298.00
695.3890, 15945.00
696.5450, 15604.00
697.7010, 15449.00
698.8570, 15249.00
700.0130, 15098.00
701.1680, 14600.00
702.3230, 14665.00
703.4780, 14275.00
704.6330, 14094.00
705.7880, 13929.00
706.9430, 13675.00
708.0970, 13646.00
709.2520, 13354.00
710.4060, 13099.00
711.5600, 12877.00
712.7140, 12904.00
713.8670, 12892.00
715.0210, 12728.30
716.1740, 12444.00
717.3270, 12514.00
718.4800, 12185.00
719.6330, 12112.00
720.7860, 12066.00
721.9380, 11963.00
723.0910, 11781.00
724.2430, 11815.00
725.3950, 11690.00
726.5470, 11703.00
727.6980, 11584.00
728.8500, 11509.00
730.0010, 11447.00
731.1530, 11283.00
732.3040, 11387.00
733.4550, 11239.00
734.6050, 11197.00
735.7560, 11052.00
736.9060, 11041.00
738.0560, 11009.42
739.2060, 11040.00
740.3560, 11064.00
741.5060, 10842.00
742.6560, 10976.00
743.8050, 10861.00
744.9540, 10940.00
746.1030, 10847.00
747.2520, 10854.42
748.4010, 10837.73
749.5500, 10811.81
750.6980, 10777.18
751.8460, 10707.65
752.9950, 10683.16
754.1420, 10640.67
755.2900, 10597.41
756.4380, 10461.00
757.5850, 10467.00
758.7330, 10496.00
759.8800, 10571.00
761.0270, 10323.00
762.1730, 10450.00
763.3200, 10333.00
764.4670, 10438.00
765.6130, 10363.00
766.7590, 10408.00
767.9050, 10455.00
769.0510, 10337.00
770.1960, 10333.00
771.3420, 10364.00
772.4870, 10350.00
773.6320, 10361.00
774.7770, 10265.00
775.9220, 10241.00
777.0670, 10113.00
778.2110, 10302.00
779.3560, 10195.00
780.5000, 10155.00
781.6440, 10300.00
782.7880, 10158.00
783.9320, 10273.00
785.0750, 10263.00
786.2180, 10283.00
787.3620, 10118.00
788.5050, 10130.00
789.6480, 10031.00
790.7900, 10102.00
791.9330, 10188.00
793.0750, 10046.00
794.2170, 10115.00
795.3590, 10155.00
796.5010, 9992.000
797.6430, 9979.000
798.7850, 10008.00
799.9260, 9967.000
801.0670, 9898.000
802.2080, 10003.00
803.3490, 10111.00
804.4900, 9978.000
805.6310, 10050.00
806.7710, 10013.00
807.9110, 10171.00
809.0510, 9987.000
810.1910, 10143.00
811.3310, 10010.00
812.4710, 10024.00
813.6100, 9922.000
814.7490, 9938.417
815.8880, 9967.643
817.0270, 9973.000
818.1660, 10035.00
819.3050, 10032.00
820.4430, 9987.000
821.5820, 10062.00
822.7200, 10040.00
823.8580, 9971.000
824.9950, 9995.000
826.1330, 10020.00
827.2710, 10009.98
828.4080, 9989.000
829.5450, 9985.000
830.6820, 9955.647
831.8190, 9914.000
832.9560, 9906.000
834.0920, 9901.229
835.2280, 9891.000
836.3650, 9895.000
837.5010, 9897.000
838.6360, 9914.000
839.7720, 9903.000
840.9080, 9879.000
842.0430, 9886.000
843.1780, 9985.000
844.3130, 9902.000
845.4480, 9962.000
846.5830, 9936.000
847.7170, 9956.000
848.8520, 9947.470
849.9860, 9886.000
851.1200, 9900.000
852.2540, 9935.000
853.3870, 9891.000
854.5210, 9948.779
855.6540, 10015.00
856.7880, 9959.000
857.9210, 9969.000
859.0540, 9829.000
860.1860, 9900.844
861.3190, 9861.000
862.4510, 10012.86
863.5840, 9974.947
864.7160, 10066.00
865.8480, 9923.000
866.9790, 9964.000
868.1110, 10086.00
869.2420, 9994.000
870.3740, 10016.00
871.5050, 9992.000
872.6360, 9951.000
873.7660, 9939.000
874.8970, 9898.566
876.0280, 10022.87
877.1580, 10167.01
878.2880, 10240.37
879.4180, 10246.75
880.5480, 9985.521
881.6770, 10069.86
882.8070, 10015.71
883.9360, 9955.891
885.0650, 10088.87
886.1940, 9866.580
887.3230, 9996.499
888.4520, 9985.823
889.5800, 10038.00
890.7090, 9995.709
891.8370, 10007.49
892.9650, 9956.000
894.0930, 10032.00
895.2200, 9981.000
896.3480, 9961.000
897.4750, 9994.000
898.6020, 9965.296
899.7290, 10020.60
900.8560, 9996.000
901.9830, 10026.00
903.1090, 10109.00
904.2360, 9899.000
905.3620, 9895.000
906.4880, 10019.00
907.6140, 10099.00
908.7400, 10029.00
909.8650, 10118.00
910.9900, 10003.00
912.1160, 10036.00
913.2410, 10062.00
914.3660, 10037.00
915.4900, 9999.000
916.6150, 10144.00
917.7390, 10060.00
918.8640, 9923.000
919.9880, 10010.00
921.1120, 9930.298
922.2350, 10017.00
923.3590, 9984.000
924.4820, 10015.00
925.6060, 10191.00
926.7290, 10137.00
927.8520, 10040.00
928.9740, 10124.00
930.0970, 10010.00
931.2190, 10074.00
932.3420, 9931.000
933.4640, 9993.000
934.5860, 10041.00
935.7080, 10143.00
936.8290, 10069.00
937.9510, 10091.00
939.0720, 10045.00
940.1930, 10040.46
941.3140, 10023.00
942.4350, 10047.00
943.5560, 10025.00
944.6760, 10045.00
945.7960, 10127.00
946.9170, 10157.00
948.0370, 10150.43
949.1560, 10169.76
950.2760, 10089.00
951.3960, 10158.00
952.5150, 10073.00
953.6340, 10091.00
954.7530, 10181.00
955.8720, 10105.00
956.9910, 9987.000
958.1090, 10077.00
959.2280, 10084.00
960.3460, 10152.00
961.4640, 10150.00
962.5820, 10164.74
963.6990, 10182.96
964.8170, 10148.00
965.9340, 10186.35
967.0510, 10174.00
968.1690, 10166.00
969.2850, 10174.00
970.4020, 10163.00
971.5190, 10207.00
972.6350, 10106.00
973.7510, 10161.17
974.8670, 10197.00
975.9830, 10244.00
977.0990, 10032.00
978.2150, 10140.00
979.3300, 10089.00
980.4450, 10225.00
981.5600, 10200.00
982.6750, 10062.00
983.7900, 10260.00
984.9050, 10195.00
986.0190, 10178.00
987.1340, 10176.00
988.2480, 10252.00
989.3620, 10245.00
990.4750, 10224.00
991.5890, 10177.00
992.7020, 10272.00
993.8160, 10157.00
994.9290, 10284.00
996.0420, 10279.05
997.1550, 10256.69
998.2670, 10318.00
999.3800, 10279.00
1000.492, 10254.00
1001.604, 10352.00
1002.716, 10369.00
1003.828, 10136.00
1004.940, 10474.00
1006.051, 10188.00
1007.163, 10226.00
1008.274, 10234.00
1009.385, 10365.00
1010.496, 10110.00
1011.606, 10409.00
1012.717, 10191.00
1013.827, 10326.00
1014.937, 10288.00
1016.047, 10202.00
1017.157, 10287.00
1018.267, 10244.20
1019.377, 10304.00
1020.486, 10248.00
1021.595, 10290.00
1022.704, 10260.13
1023.813, 10269.12
1024.922, 10335.00
1026.030, 10240.00
1027.139, 10316.00
1028.247, 10198.00
1029.355, 10250.00
1030.463, 10181.00
1031.571, 10252.00
1032.678, 10337.00
1033.786, 10297.00
1034.893, 10278.00
1036.000, 10309.00
1037.107, 10185.00
1038.214, 10289.00
1039.321, 10345.00
1040.427, 10246.00
1041.533, 10369.00
1042.639, 10237.00
1043.745, 10362.00
1044.851, 10351.00
1045.957, 10337.00
1047.062, 10303.00
1048.168, 10379.00
1049.273, 10476.00
1050.378, 10394.00
1051.482, 10377.00
1052.587, 10338.00
1053.692, 10346.00
1054.796, 10320.00
1055.900, 10400.00
1057.004, 10453.00
1058.108, 10402.00
1059.212, 10285.00
1060.315, 10352.00
1061.418, 10346.00
1062.522, 10411.00
1063.625, 10378.00
1064.728, 10325.91
1065.830, 10488.91
1066.933, 10581.13
1068.035, 10606.37
1069.137, 10364.01
1070.239, 10467.20
1071.341, 10431.90
1072.443, 10390.93
1073.545, 10542.75
1074.646, 10339.31
1075.747, 10488.08
1076.848, 10496.24
1077.949, 10568.76
1079.050, 10501.94
1080.150, 10469.00
1081.251, 10387.00
1082.351, 10199.00
1083.451, 10369.04
1084.551, 10522.00
1085.651, 10604.17
1086.750, 10619.37
1087.850, 10366.96
1088.949, 10460.10
1090.048, 10414.77
1091.147, 10363.76
1092.246, 10505.54
1093.345, 10292.06
1094.443, 10430.79
1095.541, 10428.93
1096.639, 10491.41
1097.737, 10414.56
1098.835, 10380.74
1099.933, 10486.31
1101.030, 10514.71
1102.128, 10421.81
1103.225, 10375.08
1104.322, 10330.35
1105.419, 10362.73
1106.515, 10270.00
1107.612, 10429.00
1108.708, 10376.00
1109.804, 10484.00
1110.900, 10434.00
1111.996, 10352.00
1113.092, 10304.05
1114.187, 10460.21
1115.283, 10545.59
1116.378, 10563.99
1117.473, 10314.79
1118.568, 10411.14
1119.662, 10369.01
1120.757, 10321.20
1121.851, 10466.19
1122.946, 10255.91
1124.040, 10397.84
1125.134, 10399.18
1126.227, 10464.87
1127.321, 10391.21
1128.414, 10360.60
1129.508, 10469.37
1130.601, 10500.96
1131.693, 10411.28
1132.786, 10481.06
1133.879, 10265.92
1134.971, 10300.81
1136.064, 10316.00
1137.156, 10122.00
1138.248, 10361.00
1139.339, 10192.00
1140.431, 10281.00
1141.522, 10295.00
1142.614, 10302.00
1143.705, 10265.00
1144.796, 10282.00
1145.887, 10293.00
1146.977, 10288.45
1148.068, 10269.30
1149.158, 10295.00
1150.248, 10222.00
1151.338, 10196.00
1152.428, 10203.00
1153.518, 10329.00
1154.607, 10246.00
1155.696, 10306.00
1156.785, 10154.00
1157.874, 10223.00
1158.963, 10214.00
1160.052, 10107.00
1161.141, 10325.00
1162.229, 10298.00
1163.317, 10271.00
1164.405, 10266.00
1165.493, 10246.00
1166.581, 10225.00
1167.668, 10248.00
1168.756, 10195.66
1169.843, 10257.11
1170.930, 10181.00
1172.017, 10234.00
1173.103, 10376.00
1174.190, 10095.00
1175.276, 10238.00
1176.363, 10145.00
1177.449, 10312.00
1178.535, 10272.00
1179.620, 10075.00
1180.706, 10296.00
1181.791, 10130.00
1182.877, 10187.00
1183.962, 10148.00
1185.047, 10021.00
1186.131, 10191.00
1187.216, 10274.00
1188.300, 10183.00
1189.385, 10251.00
1190.469, 10138.00
1191.553, 10169.00
1192.637, 10126.00
1193.720, 10191.00
1194.804, 10291.00
1195.887, 10262.00
1196.970, 10162.00
1198.053, 10214.89
1199.136, 10091.00
1200.219, 10231.00
1201.301, 10198.00
1202.383, 10264.00
1203.465, 10208.00
1204.547, 10291.00
1205.629, 10167.00
1206.711, 10264.00
1207.792, 10151.00
1208.874, 10180.00
1209.955, 10281.00
1211.036, 10262.00
1212.117, 10202.00
1213.198, 10225.00
1214.278, 10187.00
1215.359, 10166.00
1216.439, 10174.80
1217.519, 10229.00
1218.599, 10144.00
1219.678, 10219.00
1220.758, 10141.00
1221.837, 10358.00
1222.917, 10170.00
1223.996, 10121.00
1225.075, 10385.00
1226.153, 10259.00
1227.232, 10304.00
1228.310, 10343.00
1229.389, 10264.97
1230.467, 10287.00
1231.545, 10161.00
1232.622, 10257.00
1233.700, 10160.00
1234.777, 10124.00
1235.855, 10353.00
1236.932, 10147.00
1238.009, 10243.00
1239.086, 10288.00
1240.162, 10205.00
1241.239, 10388.00
1242.315, 10260.00
1243.391, 10323.00
1244.467, 10084.00
1245.543, 10220.00
1246.619, 10239.00
1247.694, 10231.00
1248.769, 10307.00
1249.844, 10207.00
1250.919, 10186.00
1251.994, 10211.04
1253.069, 10233.08
1254.144, 10279.00
1255.218, 10284.00
1256.292, 10274.14
1257.366, 10250.00
1258.440, 10263.00
1259.514, 10230.00
1260.587, 10303.00
1261.661, 10290.00
1262.734, 10274.00
1263.807, 10318.00
1264.880, 10286.29
1265.952, 10330.03
1267.025, 10262.00
1268.097, 10352.00
1269.170, 10350.00
1270.242, 10252.00
1271.314, 10319.00
1272.385, 10221.00
1273.457, 10326.00
1274.528, 10310.00
1275.600, 10272.00
1276.671, 10316.00
1277.742, 10283.00
1278.812, 10363.00
1279.883, 10364.00
1280.954, 10356.00
1282.024, 10287.00
1283.094, 10470.00
1284.164, 10530.00
1285.234, 10423.00
1286.303, 10239.00
1287.373, 10338.06
1288.442, 10302.00
1289.511, 10430.00
1290.580, 10301.00
1291.649, 10354.00
1292.718, 10316.00
1293.786, 10364.00
1294.855, 10392.66
1295.923, 10362.00
1296.991, 10453.00
1298.059, 10431.00
1299.126, 10420.00
1300.194, 10414.00
1301.261, 10324.00
1302.328, 10395.00
1303.395, 10369.00
1304.462, 10338.00
1305.529, 10461.00
1306.596, 10428.00
1307.662, 10392.00
1308.728, 10469.00
1309.794, 10423.00
1310.860, 10544.00
1311.926, 10370.00
1312.991, 10183.00
1314.057, 10440.00
1315.122, 10345.00
1316.187, 10426.00
1317.252, 10434.00
1318.317, 10386.00
1319.381, 10593.00
1320.446, 10421.00
1321.510, 10422.00
1322.574, 10384.00
1323.638, 10482.00
1324.702, 10404.00
1325.766, 10383.00
1326.829, 10489.00
1327.892, 10447.00
1328.956, 10336.00
1330.019, 10412.00
1331.081, 10485.00
1332.144, 10431.00
1333.206, 10471.84
1334.269, 10425.28
1335.331, 10501.00
1336.393, 10323.00
1337.455, 10434.00
1338.516, 10404.00
1339.578, 10437.00
1340.639, 10421.00
1341.701, 10369.00
1342.762, 10368.01
1343.822, 10526.02
1344.883, 10613.23
1345.944, 10633.47
1347.004, 10386.11
1348.064, 10484.30
1349.124, 10444.01
1350.184, 10398.04
1351.244, 10544.86
1352.304, 10336.42
1353.363, 10480.19
1354.422, 10483.37
1355.481, 10550.89
1356.540, 10479.08
1357.599, 10450.30
1358.657, 10454.00
1359.716, 10491.00
1360.774, 10421.00
1361.832, 10460.79
1362.890, 10445.61
1363.948, 10475.00
1365.006, 10453.00
1366.063, 10479.00
1367.120, 10374.87
1368.178, 10536.75
1369.234, 10626.56
1370.291, 10648.12
1371.348, 10400.80
1372.404, 10497.76
1373.461, 10454.96
1374.517, 10405.21
1375.573, 10546.99
1376.629, 10332.23
1377.684, 10468.41
1378.740, 10462.72
1379.795, 10520.12
1380.850, 10436.90
1381.905, 10395.46
1382.960, 10492.12
1384.015, 10510.34
1385.070, 10502.00
1386.124, 10385.00
1387.178, 10406.00
1388.232, 10452.00
1389.286, 10512.00
1390.340, 10544.00
1391.393, 10485.00
1392.447, 10542.00
1393.500, 10606.00
1394.553, 10413.00
1395.606, 10528.00
1396.659, 10507.00
1397.711, 10449.00
1398.764, 10512.00
1399.816, 10387.00
1400.868, 10448.00
1401.920, 10266.00
1402.972, 10461.00
1404.023, 10396.00
1405.075, 10395.00
1406.126, 10406.00
1407.177, 10520.00
1408.228, 10439.00
1409.279, 10551.00
1410.330, 10358.00
1411.380, 10535.00
1412.431, 10404.00
1413.481, 10533.00
1414.531, 10385.00
1415.580, 10361.00
1416.630, 10523.00
1417.680, 10520.00
1418.729, 10627.00
1419.778, 10449.00
1420.827, 10422.00
1421.876, 10460.00
1422.925, 10420.00
1423.973, 10420.01
1425.022, 10450.00
1426.070, 10445.00
1427.118, 10464.00
1428.166, 10473.32
1429.214, 10427.00
1430.261, 10506.00
1431.309, 10520.00
1432.356, 10571.00
1433.403, 10619.33
1434.450, 10649.24
1435.497, 10658.43
1436.543, 10504.00
1437.590, 10399.00
1438.636, 10567.00
1439.682, 10425.00
1440.728, 10528.00
1441.774, 10499.00
1442.819, 10594.00
1443.865, 10569.48
1444.910, 10585.00
1445.955, 10561.00
1447.000, 10537.88
1448.045, 10520.00
1449.090, 10460.00
1450.134, 10441.39
1451.178, 10362.00
1452.223, 10435.00
1453.267, 10451.00
1454.310, 10479.75
1455.354, 10570.42
1456.398, 10618.62
1457.441, 10626.64
1458.484, 10474.10
1459.527, 10528.89
1460.570, 10500.59
1461.613, 10468.88
1462.655, 10552.86
1463.698, 10423.67
1464.740, 10504.00
1465.782, 10557.00
1466.824, 10442.00
1467.866, 10511.00
1468.907, 10527.00
1469.948, 10586.00
1470.990, 10489.00
1472.031, 10409.00
1473.072, 10586.00
1474.112, 10322.68
1475.153, 10488.81
1476.194, 10584.15
1477.234, 10612.50
1478.274, 10373.26
1479.314, 10479.56
1480.354, 10447.38
1481.393, 10409.52
1482.433, 10564.46
1483.472, 10364.13
1484.511, 10516.01
1485.550, 10527.29
1486.589, 10602.92
1487.628, 10539.21
1488.666, 10518.53
1489.704, 10637.24
1490.743, 10678.77
1491.781, 10501.00
1492.819, 10346.00
1493.856, 10570.00
1494.894, 10440.00
1495.931, 10393.00
1496.968, 10475.00
1498.005, 10460.00
1499.042, 10532.00
1500.079, 10508.60
1501.115, 10477.00
1502.152, 10376.00
1503.188, 10587.00
1504.224, 10362.00
1505.260, 10456.00
1506.296, 10281.13
1507.331, 10441.41
1508.367, 10530.90
1509.402, 10553.41
1510.437, 10308.32
1511.472, 10408.78
1512.507, 10370.76
1513.541, 10327.06
1514.576, 10476.15
1515.610, 10269.98
1516.644, 10416.02
1517.678, 10421.47
1518.712, 10491.26
1519.746, 10421.71
1520.779, 10406.00
1521.813, 10390.00
1522.846, 10384.48
1523.879, 10373.00
1524.912, 10426.59
1525.944, 10406.23
1526.977, 10449.00
1528.009, 10395.00
1529.041, 10437.00
1530.073, 10491.00
1531.105, 10290.00
1532.137, 10461.00
1533.168, 10617.00
1534.200, 10493.00
1535.231, 10521.33
1536.262, 10596.00
1537.293, 10389.00
1538.324, 10382.00
1539.354, 10453.00
1540.385, 10448.00
1541.415, 10403.00
1542.445, 10428.39
1543.475, 10461.00
1544.505, 10444.00
1545.534, 10446.00
1546.564, 10535.00
1547.593, 10324.13
1548.622, 10487.27
1549.651, 10579.61
1550.680, 10604.98
1551.708, 10362.74
1552.737, 10466.06
1553.765, 10430.89
1554.793, 10390.04
1555.821, 10541.99
1556.849, 10338.68
1557.877, 10487.57
1558.904, 10495.87
1559.932, 10568.51
1560.959, 10348.00
1561.986, 10337.00
1563.013, 10377.00
1564.039, 10257.00
1565.066, 10258.00
1566.092, 10283.00
1567.119, 10392.00
1568.145, 10373.27
1569.170, 10455.00
1570.196, 10412.00
1571.222, 10413.00
1572.247, 10314.00
1573.272, 10378.00
1574.297, 10365.00
1575.322, 10367.00
1576.347, 10368.00
1577.372, 10401.00
##END=



