##NAMES=Magnesio-hastingsite
##RRUFFID=R040010
##IDEAL CHEMISTRY=NaCa_2_(Mg_4_Fe^3+^)Si_6_Al_2_O_22_(OH)_2_
##LOCALITY=Amity, New York, USA
##OWNER=RRUFF
##SOURCE=University of Arizona Mineral Museum
##DESCRIPTION=Group of black prismatic crystals
##STATUS=The identification of this mineral has been confirmed by X-ray diffraction and chemical analysis
##URL=rruff.info/R040010
##MEASURED CHEMISTRY=(Na_0.50_K_0.43_[box]_0.07_)_Σ=1_(Ca_1.77_Na_0.23_)_Σ=2_(Mg_1.74_Fe_1.22_Fe^3+^_0.79_Mn_0.57_Al_0.30_Zn_0.25_Ti_0.13_)_Σ=5_(Si_5.95_Al_2.05_)_Σ=8_O_22_((OH)_1.75_F_0.22_Cl_0.03_)_Σ=2_; OH estimated by charge balance
##PIN_ID=L00198
##ORIENTATION=Laser parallel to c [0 0 1]. Fiducial mark perpendicular to laser is parallel to -b* (0 -1 0)
132.5420, 23344.00
133.7780, 22810.00
135.0140, 23322.00
136.2500, 23629.00
137.4850, 24080.00
138.7200, 25069.00
139.9550, 26263.00
141.1900, 26752.00
142.4250, 27553.00
143.6600, 28971.00
144.8940, 30029.00
146.1280, 31570.00
147.3620, 33686.00
148.5960, 35525.00
149.8300, 36473.00
151.0630, 38140.00
152.2960, 38592.00
153.5300, 38415.00
154.7620, 37900.00
155.9950, 36457.00
157.2280, 34291.00
158.4600, 32267.00
159.6920, 30280.00
160.9250, 28882.00
162.1560, 27843.00
163.3880, 27240.00
164.6200, 26532.00
165.8510, 25958.00
167.0820, 25666.00
168.3130, 25596.00
169.5440, 25361.00
170.7750, 25420.00
172.0050, 25538.00
173.2350, 25570.00
174.4650, 25497.00
175.6950, 25733.00
176.9250, 25879.00
178.1550, 25966.00
179.3840, 26293.00
180.6130, 26503.00
181.8420, 26321.00
183.0710, 26469.00
184.3000, 26634.00
185.5280, 26815.00
186.7570, 26922.00
187.9850, 26824.00
189.2130, 26897.00
190.4400, 26967.00
191.6680, 26905.00
192.8960, 27098.82
194.1230, 27083.00
195.3500, 27425.00
196.5770, 27575.00
197.8030, 27752.00
199.0300, 28290.00
200.2560, 28863.00
201.4830, 29618.00
202.7090, 30175.00
203.9340, 29669.00
205.1600, 29478.00
206.3860, 29957.00
207.6110, 30969.00
208.8360, 32013.00
210.0610, 33231.00
211.2860, 34901.00
212.5100, 36634.00
213.7350, 38444.00
214.9590, 40094.88
216.1830, 41746.00
217.4070, 43331.00
218.6310, 45104.00
219.8540, 46421.00
221.0780, 47640.00
222.3010, 47922.00
223.5240, 48380.00
224.7470, 48154.00
225.9690, 47309.00
227.1920, 46449.00
228.4140, 44815.00
229.6360, 43346.00
230.8580, 41593.00
232.0800, 40016.00
233.3020, 38097.00
234.5230, 37175.00
235.7440, 35813.00
236.9650, 34704.00
238.1860, 34102.00
239.4070, 33484.00
240.6280, 32713.00
241.8480, 32324.00
243.0680, 31784.00
244.2880, 31651.00
245.5080, 31111.00
246.7280, 30981.00
247.9470, 30850.00
249.1660, 30582.00
250.3860, 30455.00
251.6040, 30398.00
252.8230, 30286.00
254.0420, 30346.00
255.2600, 30187.00
256.4790, 30259.00
257.6970, 30951.00
258.9150, 30677.93
260.1320, 30773.59
261.3500, 30674.00
262.5670, 30548.00
263.7840, 30572.00
265.0010, 30547.00
266.2180, 30883.00
267.4350, 30937.00
268.6510, 31006.00
269.8680, 31639.00
271.0840, 31601.00
272.3000, 31900.00
273.5160, 32471.00
274.7310, 32728.00
275.9470, 33069.00
277.1620, 33474.00
278.3770, 33452.00
279.5920, 34222.00
280.8070, 34297.00
282.0210, 34879.00
283.2360, 35119.00
284.4500, 35212.00
285.6640, 35564.00
286.8780, 35625.00
288.0920, 35667.00
289.3050, 35720.00
290.5180, 35751.00
291.7320, 35485.00
292.9450, 35646.00
294.1570, 35172.00
295.3700, 35065.00
296.5830, 34715.00
297.7950, 34348.00
299.0070, 34208.00
300.2190, 33854.00
301.4310, 33568.79
302.6420, 33350.00
303.8540, 32968.00
305.0650, 32705.00
306.2760, 32437.00
307.4870, 32147.37
308.6980, 31881.00
309.9080, 31668.00
311.1190, 31405.00
312.3290, 31231.00
313.5390, 30895.00
314.7490, 30555.00
315.9580, 30683.00
317.1680, 30124.00
318.3770, 30008.00
319.5860, 29569.00
320.7950, 29423.00
322.0040, 29344.00
323.2130, 29270.00
324.4210, 28986.00
325.6290, 28902.00
326.8380, 28982.00
328.0460, 28751.75
329.2530, 28790.49
330.4610, 28581.00
331.6680, 28722.00
332.8760, 28813.00
334.0830, 28756.00
335.2890, 28587.00
336.4960, 28635.00
337.7030, 28730.00
338.9090, 29009.00
340.1150, 29000.00
341.3210, 29220.00
342.5270, 29274.00
343.7330, 29432.00
344.9380, 29801.00
346.1440, 29672.00
347.3490, 30180.00
348.5540, 29849.00
349.7590, 30057.00
350.9630, 30254.00
352.1680, 30270.00
353.3720, 30414.00
354.5760, 30573.00
355.7800, 30488.00
356.9840, 30627.00
358.1870, 30465.00
359.3910, 30598.00
360.5940, 30607.00
361.7970, 30463.00
363.0000, 30216.00
364.2030, 30096.00
365.4050, 29899.00
366.6080, 29664.00
367.8100, 29517.00
369.0120, 29211.00
370.2140, 29280.00
371.4150, 28998.00
372.6170, 28614.00
373.8180, 28669.00
375.0190, 28412.00
376.2200, 28210.00
377.4210, 27936.00
378.6220, 27694.00
379.8220, 27463.00
381.0230, 27261.00
382.2230, 27049.00
383.4230, 26748.00
384.6220, 26661.00
385.8220, 26590.00
387.0220, 26421.00
388.2210, 25911.00
389.4200, 25691.00
390.6190, 25704.00
391.8180, 25351.00
393.0160, 25263.00
394.2150, 25035.00
395.4130, 24989.00
396.6110, 24887.00
397.8090, 24722.00
399.0060, 24580.00
400.2040, 24704.00
401.4010, 24400.00
402.5980, 24595.00
403.7950, 24444.00
404.9920, 24436.00
406.1890, 24260.00
407.3860, 24274.00
408.5820, 24487.00
409.7780, 24407.00
410.9740, 24292.00
412.1700, 24260.00
413.3650, 24697.00
414.5610, 24492.00
415.7560, 24662.00
416.9510, 24889.00
418.1460, 24809.00
419.3410, 25252.00
420.5360, 25206.00
421.7300, 25315.00
422.9240, 25556.00
424.1180, 25785.00
425.3120, 25880.00
426.5060, 26069.00
427.7000, 26046.00
428.8930, 26059.00
430.0860, 26127.03
431.2790, 26203.00
432.4720, 26151.00
433.6650, 26065.00
434.8580, 26024.00
436.0500, 25881.79
437.2420, 25831.48
438.4340, 25523.00
439.6260, 25711.00
440.8180, 25408.00
442.0090, 25387.00
443.2010, 25199.00
444.3920, 24974.00
445.5830, 24861.00
446.7740, 24771.00
447.9640, 24733.00
449.1550, 24716.00
450.3450, 24635.00
451.5350, 24650.00
452.7250, 24566.00
453.9150, 24482.00
455.1050, 24302.00
456.2940, 24227.00
457.4830, 24180.00
458.6720, 24302.00
459.8610, 24051.00
461.0500, 23968.00
462.2390, 24152.00
463.4270, 23853.00
464.6150, 23829.00
465.8040, 23671.00
466.9910, 23843.00
468.1790, 23943.00
469.3670, 23640.00
470.5540, 23834.00
471.7410, 23713.00
472.9280, 23682.00
474.1150, 23762.00
475.3020, 23415.00
476.4890, 23645.00
477.6750, 23146.00
478.8610, 23364.00
480.0470, 23263.00
481.2330, 23236.00
482.4190, 23495.00
483.6040, 23265.00
484.7900, 23297.00
485.9750, 23285.00
487.1600, 23552.00
488.3450, 23585.00
489.5290, 23531.00
490.7140, 23875.00
491.8980, 23900.00
493.0820, 23843.00
494.2660, 24093.00
495.4500, 25092.00
496.6340, 24704.94
497.8170, 24892.42
499.0010, 24625.00
500.1840, 24661.00
501.3670, 24838.00
502.5500, 25021.00
503.7320, 25213.00
504.9150, 25311.67
506.0970, 25231.00
507.2790, 25508.00
508.4610, 25627.00
509.6430, 25748.00
510.8250, 26111.00
512.0060, 26326.00
513.1870, 26318.00
514.3680, 26693.00
515.5490, 26837.00
516.7300, 26972.00
517.9110, 27423.00
519.0910, 27802.00
520.2710, 27990.00
521.4510, 28672.00
522.6310, 28972.00
523.8110, 29576.00
524.9910, 29971.00
526.1700, 30675.00
527.3490, 30920.00
528.5280, 31749.00
529.7070, 32000.00
530.8860, 32187.00
532.0650, 32450.00
533.2430, 32773.00
534.4210, 32690.21
535.5990, 32987.00
536.7770, 32528.00
537.9550, 32012.00
539.1320, 31885.00
540.3100, 31095.00
541.4870, 30765.00
542.6640, 30505.00
543.8410, 29956.00
545.0170, 29595.00
546.1940, 29251.00
547.3700, 28741.00
548.5470, 28452.00
549.7230, 28058.52
550.8980, 27569.00
552.0740, 27355.00
553.2500, 26879.00
554.4250, 26519.00
555.6000, 26188.00
556.7750, 25892.00
557.9500, 25764.00
559.1250, 25395.00
560.2990, 25222.00
561.4730, 24917.00
562.6480, 24661.00
563.8220, 24507.00
564.9950, 24433.00
566.1690, 24146.00
567.3430, 24056.00
568.5160, 23822.00
569.6890, 23579.00
570.8620, 23435.00
572.0350, 23326.76
573.2070, 23231.00
574.3800, 23184.00
575.5520, 22945.00
576.7240, 22799.00
577.8960, 22665.00
579.0680, 22593.00
580.2400, 22337.00
581.4110, 22384.00
582.5830, 22233.00
583.7540, 21959.00
584.9250, 22042.00
586.0950, 21604.00
587.2660, 21613.00
588.4370, 21619.00
589.6070, 21513.00
590.7770, 21454.00
591.9470, 21145.00
593.1170, 21055.00
594.2860, 21229.00
595.4560, 21001.00
596.6250, 21045.00
597.7940, 20922.00
598.9630, 21161.00
600.1320, 21198.00
601.3000, 21152.00
602.4690, 21143.00
603.6370, 21371.00
604.8050, 21444.00
605.9730, 21622.00
607.1410, 21566.00
608.3090, 21822.00
609.4760, 21771.00
610.6430, 22314.00
611.8100, 22310.00
612.9770, 22679.00
614.1440, 22988.57
615.3110, 23480.00
616.4770, 23525.00
617.6430, 23986.00
618.8090, 24110.00
619.9750, 24684.00
621.1410, 25125.00
622.3070, 25646.00
623.4720, 26159.00
624.6370, 26842.00
625.8020, 27303.00
626.9670, 27959.00
628.1320, 28806.00
629.2970, 29059.00
630.4610, 30116.00
631.6250, 30677.00
632.7890, 31098.00
633.9530, 31740.00
635.1170, 32225.00
636.2810, 33139.00
637.4440, 33555.00
638.6070, 34373.00
639.7700, 34771.84
640.9330, 35225.00
642.0960, 35719.00
643.2590, 35722.00
644.4210, 36567.00
645.5830, 36558.00
646.7450, 37276.00
647.9070, 37378.00
649.0690, 37850.00
650.2310, 38219.00
651.3920, 38485.00
652.5530, 38941.00
653.7140, 39520.00
654.8750, 39631.00
656.0360, 40087.00
657.1970, 40300.00
658.3570, 40507.00
659.5170, 40414.00
660.6770, 40514.00
661.8370, 39755.00
662.9970, 39140.00
664.1570, 38715.00
665.3160, 37945.00
666.4750, 37149.00
667.6340, 36562.00
668.7930, 35471.00
669.9520, 35098.00
671.1110, 34386.00
672.2690, 34049.00
673.4270, 33545.00
674.5850, 33360.00
675.7430, 33286.00
676.9010, 33141.00
678.0590, 33092.00
679.2160, 33024.82
680.3730, 33236.00
681.5300, 32759.00
682.6870, 32411.00
683.8440, 31878.00
685.0010, 31078.00
686.1570, 30443.00
687.3130, 29578.00
688.4690, 28615.00
689.6250, 27856.00
690.7810, 26872.00
691.9370, 26244.00
693.0920, 25421.00
694.2470, 24956.00
695.4020, 24390.00
696.5570, 23884.00
697.7120, 23408.00
698.8670, 23112.00
700.0210, 22919.00
701.1750, 22637.00
702.3290, 22644.00
703.4830, 22511.00
704.6370, 22514.00
705.7910, 22414.82
706.9440, 22282.00
708.0970, 22281.00
709.2510, 22163.00
710.4030, 22198.00
711.5560, 22418.00
712.7090, 22167.00
713.8610, 22364.00
715.0140, 22356.00
716.1660, 22202.00
717.3180, 22511.00
718.4690, 22397.00
719.6210, 22488.00
720.7730, 22533.04
721.9240, 22584.00
723.0750, 22593.00
724.2260, 22638.00
725.3770, 22800.00
726.5270, 22567.00
727.6780, 22962.00
728.8280, 22875.00
729.9780, 22766.00
731.1280, 22868.00
732.2780, 22784.00
733.4280, 22780.00
734.5770, 22896.00
735.7260, 22899.00
736.8760, 22813.00
738.0250, 22615.00
739.1730, 22682.00
740.3220, 22601.00
741.4700, 22623.00
742.6190, 22396.00
743.7670, 22478.00
744.9150, 22329.00
746.0630, 22378.00
747.2100, 22130.00
748.3580, 22189.00
749.5050, 21972.00
750.6520, 21933.00
751.7990, 21737.00
752.9460, 21885.00
754.0930, 21534.00
755.2390, 21457.00
756.3860, 21689.00
757.5320, 21655.00
758.6780, 21657.00
759.8240, 21661.00
760.9690, 21808.00
762.1150, 21818.00
763.2600, 21798.00
764.4060, 21731.00
765.5510, 21976.00
766.6950, 21977.00
767.8400, 22014.00
768.9850, 22181.00
770.1290, 22329.00
771.2730, 22360.00
772.4170, 22324.00
773.5610, 22469.58
774.7050, 22527.00
775.8480, 22661.00
776.9920, 22708.00
778.1350, 22797.00
779.2780, 22968.00
780.4210, 22848.00
781.5640, 22842.00
782.7060, 22868.00
783.8490, 22720.00
784.9910, 22865.00
786.1330, 22770.00
787.2750, 22655.00
788.4170, 22698.00
789.5580, 22783.00
790.7000, 22523.00
791.8410, 22596.00
792.9820, 22498.00
794.1230, 22488.00
795.2640, 22317.00
796.4040, 22341.15
797.5450, 22507.00
798.6850, 22321.00
799.8250, 22280.00
800.9650, 22231.00
802.1050, 22411.00
803.2450, 22340.00
804.3840, 22092.00
805.5230, 22045.00
806.6630, 22377.00
807.8020, 22496.00
808.9400, 22224.00
810.0790, 22046.00
811.2170, 22108.00
812.3560, 22091.00
813.4940, 22205.00
814.6320, 22068.00
815.7700, 21983.00
816.9070, 21919.00
818.0450, 21939.00
819.1820, 21915.00
820.3190, 21950.00
821.4560, 21969.00
822.5930, 21934.00
823.7300, 21876.71
824.8670, 21802.51
826.0030, 21671.00
827.1390, 21617.00
828.2750, 21472.00
829.4110, 21430.00
830.5470, 21363.00
831.6820, 21261.00
832.8180, 21144.00
833.9530, 21250.00
835.0880, 21152.00
836.2230, 21133.00
837.3580, 21278.00
838.4920, 21054.00
839.6270, 21259.00
840.7610, 21006.00
841.8950, 21104.00
843.0290, 20971.00
844.1630, 21077.00
845.2960, 21075.00
846.4300, 21122.00
847.5630, 21183.00
848.6960, 21253.00
849.8290, 21201.00
850.9620, 21372.00
852.0940, 21273.00
853.2270, 21303.00
854.3590, 21316.00
855.4910, 21434.00
856.6230, 21556.00
857.7550, 21565.00
858.8870, 21627.00
860.0180, 21859.00
861.1500, 21737.00
862.2810, 21860.00
863.4120, 21746.00
864.5430, 21903.00
865.6730, 22182.00
866.8040, 22228.00
867.9340, 22456.00
869.0640, 22440.00
870.1940, 22527.00
871.3240, 22515.00
872.4540, 22904.00
873.5830, 22938.00
874.7130, 23066.00
875.8420, 23124.00
876.9710, 23367.00
878.1000, 23477.00
879.2290, 23678.00
880.3570, 23732.00
881.4860, 23956.00
882.6140, 24312.00
883.7420, 24320.00
884.8700, 24685.00
885.9980, 24564.00
887.1250, 24953.00
888.2530, 25019.00
889.3800, 25449.00
890.5070, 25574.00
891.6340, 25729.00
892.7610, 26050.00
893.8880, 26327.00
895.0140, 26674.00
896.1400, 26643.00
897.2670, 27226.00
898.3930, 27269.00
899.5180, 27765.00
900.6440, 27966.00
901.7700, 28368.00
902.8950, 28720.00
904.0200, 29064.00
905.1450, 29354.00
906.2700, 29587.00
907.3950, 30057.00
908.5190, 30467.00
909.6440, 30646.50
910.7680, 30840.00
911.8920, 30925.00
913.0160, 31100.00
914.1400, 31194.72
915.2630, 31305.00
916.3870, 31307.00
917.5100, 31461.00
918.6330, 31364.00
919.7560, 31077.00
920.8790, 31086.00
922.0010, 30890.00
923.1240, 30962.00
924.2460, 30979.00
925.3680, 30761.00
926.4900, 30995.00
927.6120, 30855.00
928.7340, 30823.00
929.8550, 30865.00
930.9760, 30923.00
932.0980, 30920.00
933.2190, 30552.00
934.3390, 31098.00
935.4600, 30991.00
936.5810, 31391.00
937.7010, 31206.00
938.8210, 31051.00
939.9410, 31098.00
941.0610, 30785.00
942.1810, 31092.00
943.3010, 31140.00
944.4200, 31082.00
945.5390, 30878.00
946.6580, 30846.00
947.7770, 30619.00
948.8960, 30597.00
950.0150, 30744.00
951.1330, 30499.00
952.2510, 30552.94
953.3690, 30309.00
954.4870, 30444.00
955.6050, 30355.00
956.7230, 30263.00
957.8400, 30124.00
958.9580, 30147.00
960.0750, 29875.00
961.1920, 29721.00
962.3090, 29749.00
963.4250, 29928.00
964.5420, 29963.00
965.6580, 30119.00
966.7740, 29362.00
967.8900, 29281.00
969.0060, 29078.00
970.1220, 28992.00
971.2380, 28749.00
972.3530, 28815.00
973.4680, 28815.00
974.5830, 28578.00
975.6980, 28686.00
976.8130, 28648.00
977.9280, 28430.00
979.0420, 28576.00
980.1560, 28520.00
981.2710, 28636.00
982.3850, 28560.00
983.4980, 28629.75
984.6120, 28651.00
985.7260, 28768.00
986.8390, 28982.00
987.9520, 29146.00
989.0650, 29418.00
990.1780, 29487.38
991.2910, 29590.00
992.4030, 29762.00
993.5160, 30060.00
994.6280, 30458.00
995.7400, 30593.00
996.8520, 30972.00
997.9640, 31305.00
999.0750, 31566.00
1000.187, 32090.00
1001.298, 32479.00
1002.409, 32952.00
1003.520, 33157.00
1004.631, 33633.00
1005.741, 34251.00
1006.852, 34429.00
1007.962, 34405.00
1009.072, 34856.00
1010.182, 35436.00
1011.292, 35300.00
1012.402, 35689.00
1013.511, 35782.00
1014.621, 35705.00
1015.730, 35808.00
1016.839, 35707.00
1017.948, 35799.00
1019.056, 35273.00
1020.165, 34809.00
1021.273, 34909.00
1022.382, 34800.00
1023.490, 34321.00
1024.598, 34031.00
1025.706, 33651.00
1026.813, 33247.36
1027.921, 32910.57
1029.028, 32508.00
1030.135, 32178.00
1031.242, 31801.99
1032.349, 31550.00
1033.456, 31044.00
1034.562, 30657.00
1035.668, 30228.00
1036.775, 29936.00
1037.881, 29578.23
1038.987, 29240.99
1040.092, 28950.00
1041.198, 28614.00
1042.303, 28289.00
1043.408, 28010.00
1044.514, 27870.00
1045.618, 27528.00
1046.723, 27252.00
1047.828, 27309.00
1048.932, 27015.00
1050.037, 27020.00
1051.141, 26682.00
1052.245, 26771.00
1053.349, 26640.00
1054.452, 26418.00
1055.556, 26122.00
1056.659, 26073.00
1057.762, 25898.00
1058.865, 25878.00
1059.968, 25807.00
1061.071, 25513.00
1062.174, 25265.00
1063.276, 25092.00
1064.378, 25024.91
1065.480, 25218.00
1066.582, 24863.00
1067.684, 25016.00
1068.786, 24606.00
1069.887, 24744.00
1070.988, 24438.00
1072.090, 24244.00
1073.191, 24400.00
1074.291, 24253.00
1075.392, 24249.00
1076.493, 24149.00
1077.593, 23734.00
1078.693, 23866.00
1079.793, 24031.00
1080.893, 23662.00
1081.993, 23620.00
1083.092, 23664.00
1084.192, 23439.00
1085.291, 23465.00
1086.390, 23371.00
1087.489, 23115.00
1088.588, 23229.00
1089.686, 22963.00
1090.785, 23031.00
1091.883, 22792.00
1092.981, 22450.00
1094.079, 22638.00
1095.177, 22377.00
1096.275, 22204.00
1097.373, 22229.00
1098.470, 22165.00
1099.567, 21754.00
1100.664, 22008.00
1101.761, 21749.00
1102.858, 21389.00
1103.954, 21448.00
1105.051, 21452.00
1106.147, 21211.00
1107.243, 21198.57
1108.339, 21121.00
1109.435, 20898.00
1110.531, 20564.33
1111.626, 20735.16
1112.722, 20799.60
1113.817, 20763.50
1114.912, 20325.45
1116.007, 20406.44
1117.101, 20279.48
1118.196, 20143.92
1119.290, 20298.02
1120.385, 19918.44
1121.479, 20067.94
1122.573, 20006.27
1123.666, 20041.31
1124.760, 19867.01
1125.853, 19757.40
1126.947, 19857.09
1128.040, 19840.92
1129.133, 19642.59
1130.226, 19683.78
1131.318, 19297.08
1132.411, 19285.85
1133.503, 19436.71
1134.596, 19082.00
1135.688, 19051.00
1136.780, 18911.00
1137.871, 18909.00
1138.963, 18993.00
1140.054, 19032.00
1141.146, 19018.96
1142.237, 19036.72
1143.328, 18965.00
1144.419, 18994.00
1145.509, 18912.00
1146.600, 18876.00
1147.690, 18916.00
1148.780, 18939.00
1149.870, 18813.00
1150.960, 18664.00
1152.050, 18797.00
1153.139, 18863.00
1154.229, 18619.00
1155.318, 18772.00
1156.407, 18894.00
1157.496, 18761.00
1158.585, 18744.00
1159.674, 18688.00
1160.762, 18809.00
1161.850, 18528.00
1162.939, 18793.00
1164.027, 18813.00
1165.114, 18770.00
1166.202, 18480.00
1167.290, 18673.00
1168.377, 18691.00
1169.464, 18730.00
1170.551, 18752.43
1171.638, 18725.06
1172.725, 18698.00
1173.812, 18655.00
1174.898, 18628.00
1175.984, 18593.00
1177.071, 18628.00
1178.157, 18618.11
1179.242, 18782.00
1180.328, 18632.00
1181.414, 18733.00
1182.499, 18706.00
1183.584, 18630.00
1184.669, 18513.00
1185.754, 18598.00
1186.839, 18610.00
1187.924, 18476.00
1189.008, 18494.00
1190.092, 18479.12
1191.177, 18441.00
1192.260, 18535.00
1193.344, 18481.00
1194.428, 18590.00
1195.512, 18706.00
1196.595, 18531.00
1197.678, 18658.91
1198.761, 18609.00
1199.844, 18609.00
1200.927, 18715.00
1202.009, 18487.00
1203.092, 18702.00
1204.174, 18590.00
1205.256, 18582.00
1206.338, 18671.00
1207.420, 18552.00
1208.502, 18616.00
1209.583, 18691.00
1210.665, 18622.00
1211.746, 18700.00
1212.827, 18718.00
1213.908, 18867.00
1214.988, 18607.00
1216.069, 18668.00
1217.149, 18804.00
1218.230, 18563.00
1219.310, 18554.00
1220.390, 18615.00
1221.470, 18717.00
1222.549, 18537.00
1223.629, 18668.00
1224.708, 18446.00
1225.787, 18943.00
1226.866, 18826.00
1227.945, 18865.00
1229.024, 18794.00
1230.103, 18681.00
1231.181, 18795.00
1232.259, 18630.00
1233.337, 18837.00
1234.415, 18720.00
1235.493, 18656.00
1236.571, 18530.00
1237.648, 18616.00
1238.726, 18659.00
1239.803, 18692.00
1240.880, 18781.00
1241.957, 18642.00
1243.034, 18714.00
1244.110, 18570.00
1245.187, 18614.00
1246.263, 18803.00
1247.339, 18778.00
1248.415, 18647.00
1249.491, 18856.00
1250.566, 18606.00
1251.642, 18742.00
1252.717, 18515.00
1253.793, 18411.00
1254.868, 18605.00
1255.943, 18749.00
1257.017, 18647.00
1258.092, 18546.00
1259.166, 18573.00
1260.241, 18676.00
1261.315, 18528.00
1262.389, 18620.00
1263.462, 18591.00
1264.536, 18586.00
1265.610, 18659.00
1266.683, 18480.00
1267.756, 18583.00
1268.829, 18611.00
1269.902, 18722.00
1270.975, 18567.00
1272.048, 18694.00
1273.120, 18771.00
1274.192, 18590.00
1275.264, 18788.00
1276.336, 18648.00
1277.408, 18461.00
1278.480, 18616.00
1279.551, 18669.00
1280.623, 18683.00
1281.694, 18729.05
1282.765, 18694.18
1283.836, 18758.00
1284.907, 18620.00
1285.977, 18699.00
1287.048, 18694.00
1288.118, 18554.00
1289.188, 18552.00
1290.258, 18691.00
1291.328, 18716.00
1292.398, 18661.00
1293.467, 18676.00
1294.537, 18651.00
1295.606, 18556.00
1296.675, 18764.00
1297.744, 18672.00
1298.813, 18577.00
1299.882, 18770.00
1300.950, 18781.00
1302.018, 18744.00
1303.086, 18638.00
1304.155, 18727.00
1305.222, 18710.85
1306.290, 18836.00
1307.358, 18783.00
1308.425, 18739.00
1309.492, 18732.00
1310.559, 18714.35
1311.626, 18692.00
1312.693, 18722.00
1313.760, 18748.00
1314.826, 18760.00
1315.893, 18877.00
1316.959, 18771.00
1318.025, 18673.00
1319.091, 18634.00
1320.157, 18721.00
1321.222, 18758.00
1322.288, 18705.00
1323.353, 18700.00
1324.418, 18662.00
1325.483, 18661.00
1326.548, 18578.00
1327.612, 18752.00
1328.677, 18630.00
1329.741, 18649.00
1330.806, 18765.00
1331.870, 18641.00
1332.934, 18756.00
1333.997, 18714.00
1335.061, 18742.00
1336.124, 18759.00
1337.188, 18667.00
1338.251, 18750.00
1339.314, 18737.00
1340.377, 18719.00
1341.439, 18625.00
1342.502, 18688.00
1343.564, 18786.00
1344.627, 18601.00
1345.689, 18718.00
1346.751, 18736.00
1347.813, 18570.00
1348.874, 18457.00
1349.936, 18791.00
1350.997, 18547.00
1352.058, 18712.00
1353.119, 18676.00
1354.180, 18765.00
1355.241, 18675.00
1356.301, 18719.00
1357.362, 18618.29
1358.422, 18691.00
1359.482, 18534.00
1360.542, 18486.00
1361.602, 18749.00
1362.662, 18610.00
1363.721, 18707.00
1364.781, 18776.00
1365.840, 18705.00
1366.899, 18575.00
1367.958, 18829.00
1369.017, 18828.00
1370.075, 18683.00
1371.134, 18624.00
1372.192, 18584.00
1373.250, 18694.00
1374.308, 18522.00
1375.366, 18692.00
1376.424, 18693.00
1377.481, 18676.00
1378.539, 18790.00
1379.596, 18611.00
1380.653, 18768.00
1381.710, 18572.00
1382.767, 18665.00
1383.824, 18743.00
1384.880, 18607.00
1385.937, 18756.00
1386.993, 18728.00
1388.049, 18866.00
1389.105, 18679.00
1390.161, 18662.00
1391.216, 18814.00
1392.272, 18703.71
1393.327, 18778.00
1394.382, 18703.00
1395.437, 18647.00
1396.492, 18653.00
1397.547, 18606.00
1398.601, 18628.00
1399.656, 18633.00
1400.710, 18718.00
1401.764, 18784.00
1402.818, 18560.00
1403.872, 18737.00
1404.925, 18690.00
1405.979, 18774.00
1407.032, 18659.59
1408.085, 18820.44
1409.139, 18910.41
1410.191, 18933.32
1411.244, 18688.25
1412.297, 18789.21
1413.349, 18751.50
1414.402, 18708.10
1415.454, 18857.76
1416.506, 18651.67
1417.558, 18798.27
1418.609, 18804.08
1419.661, 18874.33
1420.712, 18805.05
1421.764, 18778.87
1422.815, 18892.25
1423.866, 18928.36
1424.916, 18843.02
1425.967, 18917.36
1427.018, 18706.40
1428.068, 18745.80
1429.118, 18893.22
1430.168, 18814.90
1431.218, 18815.00
1432.268, 18903.00
1433.318, 18796.00
1434.367, 18895.00
1435.416, 18654.00
1436.465, 18853.00
1437.514, 18951.00
1438.563, 18917.00
1439.612, 18630.00
1440.661, 18753.00
1441.709, 19046.00
1442.757, 18690.00
1443.805, 18833.00
1444.853, 18811.00
1445.901, 18989.00
1446.949, 18935.00
1447.996, 18785.00
1449.044, 19076.00
1450.091, 18775.00
1451.138, 19031.00
1452.185, 18994.00
1453.232, 18823.00
1454.278, 18884.00
1455.325, 18891.00
1456.371, 18922.00
1457.417, 19064.00
1458.463, 19005.00
1459.509, 18875.00
1460.555, 18982.00
1461.601, 19012.00
1462.646, 18862.00
1463.691, 18835.00
1464.737, 18919.00
1465.782, 18977.00
1466.826, 18889.00
1467.871, 19035.00
1468.916, 18951.00
1469.960, 18932.00
1471.004, 19003.00
1472.048, 18911.00
1473.092, 18945.52
1474.136, 18953.00
1475.180, 18957.00
1476.223, 18968.00
1477.267, 19001.00
1478.310, 19089.00
1479.353, 19044.00
1480.396, 19110.00
1481.439, 19086.00
1482.481, 18925.00
1483.524, 19039.00
1484.566, 18852.00
1485.608, 19011.00
1486.650, 19151.00
1487.692, 19055.00
1488.734, 19043.00
1489.775, 18982.00
1490.817, 18861.00
1491.858, 19116.00
1492.899, 18836.00
1493.940, 19113.00
1494.981, 18879.00
1496.022, 19098.00
1497.062, 18918.00
1498.103, 19110.00
1499.143, 19028.00
1500.183, 19077.00
1501.223, 19067.00
1502.263, 19068.00
1503.302, 19127.59
1504.342, 19126.00
1505.381, 19178.00
1506.420, 19136.00
1507.459, 19035.00
1508.498, 18941.00
1509.537, 19165.00
1510.576, 19188.00
1511.614, 19050.00
1512.652, 18982.00
1513.691, 18993.00
1514.729, 19082.00
1515.767, 18922.00
1516.804, 19127.00
1517.842, 19148.00
1518.879, 19028.00
1519.917, 19035.00
1520.954, 19137.00
1521.991, 19036.00
1523.028, 19089.00
1524.064, 19009.00
1525.101, 19124.00
1526.137, 19176.00
1527.173, 19120.00
1528.210, 19162.00
1529.245, 19239.00
1530.281, 19151.00
1531.317, 19190.00
1532.352, 19040.00
1533.388, 18950.00
1534.423, 19009.00
1535.458, 19058.00
1536.493, 19078.00
1537.528, 18947.66
1538.562, 19108.84
1539.597, 19199.14
1540.631, 19222.38
1541.665, 18977.64
1542.700, 19078.92
1543.733, 19041.54
1544.767, 18998.47
1545.801, 19148.46
1546.834, 18942.70
1547.868, 19089.62
1548.901, 19095.76
1549.934, 19166.34
1550.967, 19097.38
1551.999, 19071.53
1553.032, 19185.24
1554.064, 19221.68
1555.097, 19136.66
1556.129, 19211.33
1557.161, 19000.70
1558.193, 19040.43
1559.224, 19188.17
1560.256, 19110.17
1561.287, 19187.40
1562.318, 19205.50
1563.350, 18954.95
1564.380, 19171.62
1565.411, 19186.24
1566.442, 18957.00
1567.472, 18968.00
1568.503, 18995.00
1569.533, 19056.00
1570.563, 19122.00
##END=



