##NAMES=Magnesiochromite
##RRUFFID=R060796
##IDEAL CHEMISTRY=MgCr^3+^_2_O_4_
##LOCALITY=State Line Chrome mine (Low's mine), Cecil County, Maryland, USA
##OWNER=RRUFF
##SOURCE=California Institute of Technology
##DESCRIPTION=Black massive
##STATUS=The identification of this mineral has been confirmed by X-ray diffraction and chemical analysis
##URL=rruff.info/R060796
##MEASURED CHEMISTRY=(Mg_0.57_Fe^2+^_0.43_)_Σ=1_(Cr_1.52_Al_0.41_Fe^3+^_0.07_)_Σ=2_O_4_
##PIN_ID=L00965
##ORIENTATION=Laser parallel to b* (0 1 0). Fiducial mark perpendicular to laser is parallel to c [0 0 1]
131.4920, 10587.00
132.7250, 10573.00
133.9580, 10798.00
135.1910, 10761.86
136.4230, 10860.20
137.6560, 10912.80
138.8880, 10922.14
140.1200, 10758.62
141.3520, 10818.32
142.5830, 10788.56
143.8150, 10755.13
145.0460, 10846.25
146.2770, 10707.88
147.5080, 10797.02
148.7390, 10795.34
149.9700, 10983.00
151.2000, 10869.00
152.4310, 10864.00
153.6610, 10934.00
154.8910, 10883.79
156.1210, 10808.77
157.3500, 10894.90
158.5800, 10935.28
159.8090, 10932.41
161.0380, 10756.67
162.2670, 10804.16
163.4960, 10762.18
164.7240, 10716.56
165.9530, 10795.46
167.1810, 10644.88
168.4090, 10721.82
169.6370, 10707.94
170.8650, 10735.62
172.0920, 10673.32
173.3200, 10638.79
174.5470, 10694.32
175.7740, 10700.00
177.0010, 10627.33
178.2280, 10640.00
179.4540, 10536.00
180.6810, 10475.00
181.9070, 10421.00
183.1330, 10382.28
184.3590, 10376.79
185.5850, 10362.00
186.8100, 10418.00
188.0350, 10452.00
189.2610, 10526.00
190.4860, 10598.00
191.7110, 10531.71
192.9350, 10640.92
194.1600, 10704.41
195.3840, 10724.63
196.6080, 10571.98
197.8320, 10643.00
199.0560, 10538.00
200.2800, 10611.00
201.5030, 10633.00
202.7270, 10382.00
203.9500, 10217.00
205.1730, 10136.00
206.3950, 10170.00
207.6180, 10144.00
208.8410, 9922.000
210.0630, 10006.00
211.2850, 9964.000
212.5070, 9820.000
213.7290, 9814.000
214.9500, 9911.000
216.1720, 9748.000
217.3930, 9862.000
218.6140, 9838.000
219.8350, 9835.000
221.0560, 9859.626
222.2770, 9830.520
223.4970, 9813.000
224.7170, 9797.000
225.9370, 9705.000
227.1570, 9675.000
228.3770, 9702.000
229.5970, 9619.000
230.8160, 9661.000
232.0350, 9667.000
233.2540, 9559.000
234.4730, 9525.000
235.6920, 9570.000
236.9110, 9584.000
238.1290, 9510.000
239.3470, 9406.000
240.5650, 9414.000
241.7830, 9379.859
243.0010, 9416.000
244.2180, 9415.000
245.4360, 9380.000
246.6530, 9443.000
247.8700, 9336.000
249.0870, 9258.000
250.3040, 9250.000
251.5200, 9272.000
252.7370, 9222.000
253.9530, 9306.000
255.1690, 9155.000
256.3850, 9305.000
257.6000, 9316.000
258.8160, 9217.000
260.0310, 9306.000
261.2460, 9180.000
262.4610, 9337.000
263.6760, 9109.680
264.8910, 9243.084
266.1050, 9307.919
267.3200, 9307.832
268.5340, 9048.471
269.7480, 9123.934
270.9620, 9065.214
272.1750, 9001.012
273.3890, 9123.600
274.6020, 8901.972
275.8150, 9021.616
277.0280, 9005.031
278.2410, 9050.796
279.4540, 8961.548
280.6660, 8946.000
281.8790, 8987.000
283.0910, 8886.000
284.3030, 8902.000
285.5140, 8879.000
286.7260, 9001.000
287.9380, 8891.000
289.1490, 8966.000
290.3600, 8811.000
291.5710, 8740.000
292.7820, 8816.000
293.9920, 8846.000
295.2030, 8792.000
296.4130, 8769.000
297.6230, 8843.000
298.8330, 8835.000
300.0430, 8712.000
301.2520, 8622.000
302.4620, 8687.000
303.6710, 8708.000
304.8800, 8666.000
306.0890, 8605.000
307.2980, 8691.000
308.5070, 8656.000
309.7150, 8696.000
310.9230, 8664.000
312.1310, 8674.000
313.3390, 8616.000
314.5470, 8687.000
315.7550, 8620.000
316.9620, 8608.000
318.1690, 8633.000
319.3760, 8631.936
320.5830, 8617.264
321.7900, 8682.000
322.9960, 8635.000
324.2030, 8622.000
325.4090, 8742.000
326.6150, 8699.000
327.8210, 8805.000
329.0270, 8767.493
330.2320, 8715.392
331.4380, 8646.000
332.6430, 8654.000
333.8480, 8491.000
335.0530, 8645.000
336.2580, 8462.000
337.4620, 8661.000
338.6670, 8678.000
339.8710, 8735.000
341.0750, 8638.000
342.2790, 8611.000
343.4820, 8670.000
344.6860, 8613.000
345.8890, 8697.000
347.0920, 8617.000
348.2960, 8690.000
349.4980, 8675.000
350.7010, 8647.000
351.9040, 8692.000
353.1060, 8694.000
354.3080, 8597.000
355.5100, 8717.000
356.7120, 8791.000
357.9140, 8629.000
359.1150, 8779.000
360.3170, 8753.000
361.5180, 8736.000
362.7190, 8747.000
363.9200, 8794.000
365.1200, 8790.283
366.3210, 8853.000
367.5210, 8827.000
368.7210, 8846.000
369.9210, 8870.000
371.1210, 8886.000
372.3210, 8813.000
373.5200, 8943.000
374.7200, 8904.000
375.9190, 9056.000
377.1180, 8822.000
378.3170, 8866.000
379.5150, 8938.000
380.7140, 8997.000
381.9120, 8939.000
383.1110, 8977.000
384.3090, 9113.000
385.5060, 8947.000
386.7040, 9034.000
387.9020, 9144.000
389.0990, 9082.715
390.2960, 9157.015
391.4930, 9104.000
392.6900, 9171.000
393.8860, 9177.000
395.0830, 9153.000
396.2790, 9266.000
397.4750, 9271.000
398.6710, 9281.000
399.8670, 9286.000
401.0630, 9340.000
402.2580, 9288.844
403.4540, 9254.000
404.6490, 9256.000
405.8440, 9318.000
407.0390, 9419.000
408.2330, 9419.625
409.4280, 9416.000
410.6220, 9466.000
411.8160, 9415.000
413.0100, 9414.000
414.2040, 9314.000
415.3980, 9517.000
416.5910, 9413.000
417.7850, 9510.000
418.9780, 9442.000
420.1710, 9463.000
421.3640, 9571.000
422.5560, 9504.000
423.7490, 9506.000
424.9410, 9452.000
426.1330, 9635.000
427.3250, 9576.000
428.5170, 9553.000
429.7090, 9644.000
430.9000, 9580.000
432.0910, 9664.690
433.2820, 9763.000
434.4730, 9774.000
435.6640, 9811.000
436.8550, 9821.000
438.0450, 9853.388
439.2360, 9908.000
440.4260, 9905.000
441.6160, 9950.000
442.8060, 9957.000
443.9950, 10091.00
445.1850, 10093.00
446.3740, 10070.00
447.5630, 10089.00
448.7520, 10244.00
449.9410, 10178.00
451.1300, 10244.00
452.3180, 10361.00
453.5060, 10340.00
454.6950, 10396.00
455.8830, 10420.00
457.0700, 10461.00
458.2580, 10346.22
459.4450, 10558.87
460.6330, 10702.99
461.8200, 10782.15
463.0070, 10602.02
464.1940, 10756.71
465.3800, 10777.18
466.5670, 10792.18
467.7530, 10993.96
468.9390, 10851.49
470.1250, 11050.30
471.3110, 11112.88
472.4970, 11237.81
473.6820, 11227.68
474.8680, 11259.30
476.0530, 11425.92
477.2380, 11517.76
478.4230, 11492.09
479.6070, 11620.89
480.7920, 11473.66
481.9760, 11743.00
483.1600, 11690.00
484.3440, 11820.00
485.5280, 11685.00
486.7120, 11887.00
487.8950, 11866.18
489.0780, 11829.00
490.2620, 11896.00
491.4450, 11840.00
492.6270, 11783.00
493.8100, 11945.00
494.9920, 11918.00
496.1750, 12089.00
497.3570, 12125.00
498.5390, 12373.00
499.7210, 12453.00
500.9020, 12554.00
502.0840, 12621.00
503.2650, 12765.00
504.4460, 12753.00
505.6270, 12773.00
506.8080, 13029.00
507.9890, 13092.00
509.1690, 13034.00
510.3500, 13319.00
511.5300, 13542.00
512.7100, 13756.00
513.8900, 13782.00
515.0690, 14232.00
516.2490, 14453.00
517.4280, 14441.00
518.6070, 14790.00
519.7860, 14898.00
520.9650, 15104.00
522.1440, 15352.00
523.3220, 15569.00
524.5010, 15842.50
525.6790, 16243.00
526.8570, 16396.00
528.0350, 16652.00
529.2130, 16916.00
530.3900, 17014.00
531.5670, 17552.00
532.7450, 17775.00
533.9220, 18168.00
535.0980, 18259.00
536.2750, 18493.00
537.4520, 18827.00
538.6280, 19332.00
539.8040, 19674.00
540.9800, 20186.00
542.1560, 20436.00
543.3320, 20833.00
544.5070, 21166.00
545.6830, 21309.00
546.8580, 21469.00
548.0330, 21761.00
549.2080, 21966.00
550.3830, 22006.00
551.5570, 22316.00
552.7310, 22460.00
553.9060, 22552.00
555.0800, 22743.00
556.2540, 22862.00
557.4270, 22752.00
558.6010, 22945.00
559.7740, 23205.00
560.9470, 23012.00
562.1210, 23255.00
563.2930, 23180.00
564.4660, 23227.00
565.6390, 23232.00
566.8110, 23217.95
567.9830, 23332.28
569.1550, 23378.01
570.3270, 23358.84
571.4990, 23231.00
572.6710, 23120.44
573.8420, 22942.00
575.0130, 22679.00
576.1840, 22425.00
577.3550, 22041.00
578.5260, 21711.00
579.6970, 21346.78
580.8670, 20944.00
582.0370, 20553.03
583.2070, 19996.00
584.3770, 19534.00
585.5470, 18964.00
586.7170, 18469.00
587.8860, 18221.00
589.0550, 17904.00
590.2240, 17730.00
591.3930, 17603.00
592.5620, 17266.00
593.7310, 17455.00
594.8990, 17182.00
596.0670, 16849.00
597.2350, 16915.00
598.4030, 16615.00
599.5710, 16630.00
600.7390, 16447.00
601.9060, 16308.00
603.0740, 16266.00
604.2410, 15886.00
605.4080, 15707.00
606.5740, 15406.00
607.7410, 15379.00
608.9080, 15095.00
610.0740, 14862.00
611.2400, 14812.00
612.4060, 14495.57
613.5720, 14302.00
614.7370, 14036.00
615.9030, 13786.00
617.0680, 13609.00
618.2330, 13443.11
619.3980, 13316.00
620.5630, 13219.00
621.7280, 13151.00
622.8920, 13090.00
624.0570, 13069.00
625.2210, 13138.00
626.3850, 13204.00
627.5490, 13370.47
628.7120, 13533.00
629.8760, 13818.00
631.0390, 14102.00
632.2020, 14401.00
633.3650, 14785.00
634.5280, 15150.00
635.6910, 15581.00
636.8530, 15937.00
638.0160, 16324.00
639.1780, 16622.00
640.3400, 17015.00
641.5020, 17215.00
642.6640, 17631.00
643.8250, 17656.00
644.9870, 17805.00
646.1480, 17828.00
647.3090, 18050.00
648.4700, 17907.00
649.6300, 18131.00
650.7910, 18142.00
651.9510, 18049.00
653.1120, 17982.00
654.2720, 18178.00
655.4320, 18147.00
656.5910, 18198.00
657.7510, 18172.00
658.9100, 18451.00
660.0690, 18596.00
661.2290, 18584.00
662.3880, 19041.00
663.5460, 19050.00
664.7050, 19224.00
665.8630, 19744.00
667.0220, 20041.00
668.1800, 20329.00
669.3380, 20799.00
670.4950, 21419.00
671.6530, 21683.00
672.8100, 22231.00
673.9680, 23012.00
675.1250, 23349.00
676.2820, 23911.00
677.4390, 24693.00
678.5950, 25601.00
679.7520, 26006.00
680.9080, 26831.00
682.0640, 27557.00
683.2200, 28116.28
684.3760, 28680.00
685.5320, 29219.00
686.6870, 29717.80
687.8420, 30109.00
688.9980, 30628.00
690.1530, 30970.00
691.3070, 31294.00
692.4620, 31355.00
693.6170, 31448.00
694.7710, 31209.00
695.9250, 31006.00
697.0790, 30704.00
698.2330, 30086.14
699.3870, 29185.00
700.5400, 28659.00
701.6940, 27720.71
702.8470, 26907.00
704.0000, 25969.00
705.1530, 25158.00
706.3050, 24115.00
707.4580, 23489.00
708.6100, 22593.00
709.7630, 21752.00
710.9150, 21137.00
712.0660, 20131.00
713.2180, 19689.00
714.3700, 19109.00
715.5210, 18345.00
716.6720, 17782.00
717.8240, 17078.00
718.9740, 16572.00
720.1250, 15950.00
721.2760, 15608.00
722.4260, 15141.00
723.5770, 14813.00
724.7270, 14517.00
725.8770, 14010.00
727.0260, 13728.00
728.1760, 13445.00
729.3250, 13136.00
730.4750, 12948.00
731.6240, 12722.00
732.7730, 12464.00
733.9220, 12179.00
735.0700, 12161.00
736.2190, 12069.00
737.3670, 11534.00
738.5150, 11659.00
739.6630, 11372.00
740.8110, 11399.00
741.9590, 11136.00
743.1060, 11054.00
744.2540, 10902.00
745.4010, 10794.00
746.5480, 10714.00
747.6950, 10551.00
748.8410, 10588.00
749.9880, 10287.00
751.1340, 10281.00
752.2800, 10285.00
753.4260, 10243.00
754.5720, 10125.00
755.7180, 10106.00
756.8640, 9845.000
758.0090, 10000.00
759.1540, 9783.000
760.2990, 9847.000
761.4440, 9713.000
762.5890, 9728.000
763.7340, 9640.000
764.8780, 9556.127
766.0220, 9394.000
767.1660, 9402.000
768.3100, 9374.000
769.4540, 9335.000
770.5980, 9347.000
771.7410, 9325.000
772.8840, 9223.000
774.0280, 9304.000
775.1700, 9260.000
776.3130, 9114.000
777.4560, 9102.000
778.5980, 9010.000
779.7410, 9010.000
780.8830, 9034.000
782.0250, 9024.000
783.1670, 9064.000
784.3080, 9006.000
785.4500, 9000.000
786.5910, 8851.000
787.7320, 8874.000
788.8730, 8831.000
790.0140, 8774.000
791.1550, 8859.000
792.2950, 8855.000
793.4360, 8878.000
794.5760, 8748.000
795.7160, 8766.000
796.8560, 8740.000
797.9960, 8560.000
799.1350, 8722.000
800.2750, 8723.000
801.4140, 8641.000
802.5530, 8553.000
803.6920, 8483.000
804.8310, 8570.000
805.9690, 8478.000
807.1080, 8580.000
808.2460, 8613.000
809.3840, 8587.000
810.5220, 8630.000
811.6600, 8513.000
812.7970, 8414.000
813.9350, 8513.000
815.0720, 8402.000
816.2090, 8500.000
817.3460, 8356.000
818.4830, 8512.000
819.6200, 8481.000
820.7560, 8466.000
821.8930, 8433.000
823.0290, 8331.000
824.1650, 8258.000
825.3010, 8299.000
826.4360, 8394.000
827.5720, 8295.000
828.7070, 8373.000
829.8420, 8259.000
830.9770, 8319.000
832.1120, 8300.000
833.2470, 8347.000
834.3820, 8286.000
835.5160, 8273.000
836.6500, 8257.081
837.7840, 8242.000
838.9180, 8223.165
840.0520, 8213.000
841.1860, 8185.000
842.3190, 8162.000
843.4520, 8146.000
844.5850, 8231.000
845.7180, 8178.000
846.8510, 8219.122
847.9840, 8124.759
849.1160, 8224.599
850.2490, 8278.708
851.3810, 8289.553
852.5130, 8127.536
853.6450, 8188.734
854.7760, 8160.482
855.9080, 8128.558
857.0390, 8221.177
858.1700, 8084.306
859.3010, 8174.950
860.4320, 8174.775
861.5630, 8216.166
862.6930, 8167.553
863.8240, 8146.736
864.9540, 8215.960
866.0840, 8235.330
867.2140, 8176.356
868.3440, 8220.394
869.4730, 8080.386
870.6030, 8101.879
871.7320, 8193.060
872.8610, 8138.615
873.9900, 8184.301
875.1190, 8191.853
876.2470, 8158.305
877.3760, 8101.000
878.5040, 8102.000
879.6320, 8014.000
880.7600, 7964.000
881.8880, 8031.000
883.0150, 8140.000
884.1430, 8175.000
885.2700, 8095.000
886.3970, 8027.000
887.5240, 8025.000
888.6510, 7992.000
889.7780, 8029.000
890.9040, 8051.000
892.0310, 7998.000
893.1570, 7936.000
894.2830, 7978.000
895.4090, 7950.000
896.5350, 7990.635
897.6600, 8121.000
898.7860, 8088.000
899.9110, 8109.867
901.0360, 7935.000
902.1610, 8065.000
903.2860, 7990.000
904.4100, 7963.000
905.5350, 7962.000
906.6590, 8025.000
907.7830, 8081.000
908.9070, 8015.000
910.0310, 8028.000
911.1540, 7920.000
912.2780, 8048.000
913.4010, 8102.000
914.5240, 7907.000
915.6470, 7971.000
916.7700, 7919.000
917.8930, 7930.000
919.0150, 7913.000
920.1380, 7924.000
921.2600, 7926.789
922.3820, 7953.000
923.5040, 7928.000
924.6260, 7933.000
925.7470, 7909.000
926.8690, 7900.736
927.9900, 7873.000
929.1110, 7890.000
930.2320, 7899.000
931.3530, 7918.000
932.4730, 7893.000
933.5940, 7979.000
934.7140, 7959.000
935.8340, 7973.000
936.9540, 7863.000
938.0740, 7960.000
939.1930, 7931.000
940.3130, 7849.000
941.4320, 7927.000
942.5510, 7876.000
943.6700, 7930.000
944.7890, 7912.000
945.9080, 7927.000
947.0260, 7841.000
948.1450, 7808.000
949.2630, 7932.000
950.3810, 8016.000
951.4990, 7948.076
952.6170, 8134.000
953.7340, 7911.000
954.8520, 7877.000
955.9690, 8015.000
957.0860, 7837.000
958.2030, 7991.000
959.3200, 7914.000
960.4360, 7862.000
961.5530, 7948.000
962.6690, 7843.000
963.7850, 7875.000
964.9010, 7862.000
966.0170, 7918.000
967.1330, 7986.000
968.2480, 7917.362
969.3630, 8052.000
970.4790, 7857.000
971.5940, 7841.000
972.7080, 7929.000
973.8230, 7925.000
974.9380, 7834.000
976.0520, 7877.000
977.1660, 7903.000
978.2800, 7882.000
979.3940, 7882.000
980.5080, 7951.000
981.6220, 7975.000
982.7350, 7892.000
983.8480, 7981.000
984.9610, 7871.000
986.0740, 7926.000
987.1870, 7913.000
988.3000, 7869.000
989.4120, 7964.000
990.5250, 7976.000
991.6370, 8064.000
992.7490, 8084.000
993.8610, 7894.000
994.9720, 8084.000
996.0840, 7861.000
997.1950, 8016.000
998.3060, 7908.000
999.4170, 7987.000
1000.528, 7877.158
1001.639, 7984.487
1002.750, 8046.091
1003.860, 8064.424
1004.970, 7909.894
1006.080, 7978.580
1007.190, 7957.812
1008.300, 7933.375
1009.410, 8033.478
1010.519, 7904.087
1011.628, 8002.212
1012.738, 8009.520
1013.846, 8058.389
1014.955, 8017.252
1016.064, 8010.000
1017.172, 7982.000
1018.281, 8021.000
1019.389, 8054.000
1020.497, 8072.000
1021.605, 8118.000
1022.713, 8076.000
1023.820, 8000.088
1024.928, 8111.135
1026.035, 8176.451
1027.142, 8198.497
1028.249, 8047.682
1029.356, 8120.082
1030.462, 8103.021
1031.569, 8082.298
1032.675, 8186.110
1033.781, 8060.430
1034.887, 8162.266
1035.993, 8173.283
1037.098, 8225.858
1038.204, 8188.434
1039.309, 8178.803
1040.415, 8259.215
1041.520, 8289.767
1042.624, 8241.968
1043.729, 8297.187
1044.834, 8168.356
1045.938, 8201.025
1047.042, 8303.377
1048.146, 8260.104
1049.250, 8316.963
1050.354, 8335.686
1051.458, 8181.099
1052.561, 8104.000
1053.664, 8325.000
1054.767, 8199.000
1055.870, 8215.000
1056.973, 8352.000
1058.076, 8353.000
1059.178, 8290.000
1060.281, 8424.000
1061.383, 8448.000
1062.485, 8275.000
1063.587, 8433.000
1064.688, 8411.000
1065.790, 8344.000
1066.891, 8344.000
1067.993, 8436.000
1069.094, 8427.000
1070.195, 8491.000
1071.295, 8533.000
1072.396, 8429.000
1073.496, 8465.000
1074.597, 8485.000
1075.697, 8506.000
1076.797, 8639.000
1077.897, 8481.000
1078.996, 8653.000
1080.096, 8616.000
1081.195, 8623.000
1082.294, 8651.000
1083.393, 8766.000
1084.492, 8685.000
1085.591, 8656.000
1086.689, 8711.000
1087.788, 8871.000
1088.886, 8780.000
1089.984, 8874.000
1091.082, 8633.000
1092.180, 8915.000
1093.277, 8739.000
1094.375, 8761.000
1095.472, 8800.000
1096.569, 8794.000
1097.666, 8842.000
1098.763, 8738.000
1099.860, 8878.000
1100.956, 8898.000
1102.053, 8857.000
1103.149, 8977.000
1104.245, 8875.000
1105.341, 8964.000
1106.436, 8988.000
1107.532, 9101.000
1108.627, 9001.000
1109.723, 8982.000
1110.818, 9069.000
1111.913, 9067.178
1113.007, 9079.000
1114.102, 9200.000
1115.197, 9234.000
1116.291, 9296.933
1117.385, 9312.797
1118.479, 9281.000
1119.573, 9259.000
1120.666, 9241.000
1121.760, 9118.000
1122.853, 9168.000
1123.947, 9105.000
1125.040, 9172.000
1126.132, 9124.000
1127.225, 9189.000
1128.318, 9159.000
1129.410, 9097.000
1130.502, 9078.000
1131.595, 9049.000
1132.687, 9119.000
1133.778, 9076.000
1134.870, 9194.000
1135.961, 9142.076
1137.053, 8998.000
1138.144, 9082.000
1139.235, 9031.000
1140.326, 9004.000
1141.416, 8991.000
1142.507, 9017.000
1143.597, 8981.109
1144.688, 9076.873
1145.778, 9126.919
1146.868, 9133.694
1147.957, 8967.616
1149.047, 9024.747
1150.136, 8992.431
1151.226, 8956.438
1152.315, 9044.992
1153.404, 8904.056
1154.493, 8990.636
1155.581, 8986.403
1156.670, 9023.729
1157.758, 8971.056
1158.846, 8946.184
1159.934, 9011.347
1161.022, 8875.000
1162.110, 8875.144
1163.198, 8940.000
1164.285, 8878.000
1165.372, 8945.000
1166.459, 8988.000
1167.546, 9165.000
1168.633, 9029.720
1169.720, 9096.000
1170.806, 8862.000
1171.892, 8842.000
1172.979, 8905.000
1174.065, 8972.000
1175.150, 8894.000
1176.236, 8892.000
1177.322, 8876.000
1178.407, 8853.000
1179.492, 8769.000
1180.577, 8821.000
1181.662, 8776.000
1182.747, 8798.000
1183.832, 8820.000
1184.916, 8771.000
1186.000, 8770.000
1187.084, 8828.000
1188.168, 8808.000
1189.252, 8880.000
1190.336, 8838.000
1191.419, 8870.081
1192.503, 8701.000
1193.586, 8862.000
1194.669, 8792.000
1195.752, 8697.000
1196.835, 8788.000
1197.917, 8663.000
1199.000, 8753.000
1200.082, 8801.000
1201.164, 8900.000
1202.246, 8677.000
1203.328, 8784.000
1204.409, 8686.000
1205.491, 8666.000
1206.572, 8753.000
1207.653, 8757.000
1208.734, 8775.000
1209.815, 8796.209
1210.896, 8880.000
1211.976, 8771.001
1213.057, 8730.000
1214.137, 8656.000
1215.217, 8752.000
1216.297, 8721.000
1217.377, 8744.000
1218.456, 8627.000
1219.536, 8752.000
1220.615, 8805.000
1221.694, 8696.000
1222.773, 8765.000
1223.852, 8638.000
1224.931, 8761.000
1226.009, 8747.000
1227.088, 8653.000
1228.166, 8642.000
1229.244, 8663.000
1230.322, 8768.000
1231.400, 8681.000
1232.477, 8756.000
1233.555, 8816.000
1234.632, 8730.000
1235.709, 8697.000
1236.786, 8755.000
1237.863, 8686.000
1238.939, 8591.000
1240.016, 8756.000
1241.092, 8793.000
1242.168, 8613.000
1243.245, 8695.000
1244.320, 8774.000
1245.396, 8724.000
1246.472, 8754.000
1247.547, 8701.000
1248.622, 8783.000
1249.697, 8735.000
1250.772, 8710.000
1251.847, 8697.000
1252.922, 8664.742
1253.996, 8604.000
1255.071, 8639.000
1256.145, 8606.724
1257.219, 8628.000
1258.293, 8600.000
1259.366, 8662.000
1260.440, 8597.000
1261.513, 8552.000
1262.587, 8705.000
1263.660, 8779.000
1264.733, 8710.000
1265.805, 8638.000
1266.878, 8671.000
1267.951, 8627.000
1269.023, 8660.000
1270.095, 8597.000
1271.167, 8667.000
1272.239, 8597.000
1273.311, 8691.000
1274.382, 8641.000
1275.454, 8671.000
1276.525, 8800.000
1277.596, 8666.000
1278.667, 8842.000
1279.738, 8693.000
1280.808, 8737.000
1281.879, 8797.000
1282.949, 8703.000
1284.019, 8845.000
1285.089, 8782.000
1286.159, 8634.323
1287.229, 8737.334
1288.298, 8794.621
1289.368, 8808.639
1290.437, 8649.794
1291.506, 8714.166
1292.575, 8689.083
1293.644, 8660.332
1294.712, 8756.122
1295.781, 8622.420
1296.849, 8716.235
1297.917, 8719.229
1298.985, 8763.791
1300.053, 8718.345
1301.121, 8700.698
1302.188, 8773.090
1303.255, 8795.628
1304.323, 8739.819
1305.390, 8787.024
1306.457, 8650.181
1307.523, 8674.843
1308.590, 8769.186
1309.656, 8717.906
1310.723, 8612.000
1311.789, 8676.000
1312.855, 8624.000
1313.921, 8663.000
1314.986, 8470.000
1316.052, 8615.000
1317.117, 8548.000
1318.182, 8526.000
1319.248, 8620.000
1320.312, 8604.000
1321.377, 8514.000
1322.442, 8521.000
1323.506, 8510.136
1324.571, 8559.000
1325.635, 8526.000
1326.699, 8555.000
1327.762, 8554.000
1328.826, 8553.000
1329.890, 8427.000
1330.953, 8510.000
1332.016, 8429.000
1333.079, 8526.000
1334.142, 8508.000
1335.205, 8572.000
1336.268, 8546.000
1337.330, 8527.000
1338.392, 8478.000
1339.454, 8604.000
1340.516, 8510.000
1341.578, 8531.000
1342.640, 8485.000
1343.701, 8466.000
1344.763, 8462.000
1345.824, 8588.000
1346.885, 8493.000
1347.946, 8609.000
1349.007, 8457.000
1350.067, 8543.000
1351.128, 8597.000
1352.188, 8503.000
1353.248, 8515.000
1354.308, 8519.000
1355.368, 8525.000
1356.428, 8524.000
1357.487, 8444.000
1358.547, 8524.000
1359.606, 8586.000
1360.665, 8498.000
1361.724, 8497.000
1362.783, 8482.000
1363.841, 8428.000
1364.900, 8537.000
1365.958, 8717.000
1367.016, 8500.000
1368.074, 8524.000
1369.132, 8643.000
1370.190, 8568.000
1371.247, 8420.000
1372.304, 8445.000
1373.362, 8481.000
1374.419, 8524.000
1375.476, 8566.000
1376.532, 8570.000
1377.589, 8498.000
1378.645, 8430.000
1379.702, 8415.408
1380.758, 8405.771
1381.814, 8372.000
1382.870, 8461.000
1383.925, 8490.000
1384.981, 8556.000
1386.036, 8538.000
1387.092, 8374.000
1388.147, 8442.000
1389.202, 8303.000
1390.256, 8458.000
1391.311, 8377.000
1392.365, 8426.000
1393.420, 8336.000
1394.474, 8401.000
1395.528, 8403.000
1396.582, 8382.000
1397.636, 8327.000
1398.689, 8355.000
1399.742, 8423.000
1400.796, 8293.000
1401.849, 8269.000
1402.902, 8367.000
1403.955, 8291.000
1405.007, 8365.000
1406.060, 8298.000
1407.112, 8258.000
1408.164, 8232.000
1409.216, 8190.000
1410.268, 8275.000
1411.320, 8218.029
1412.371, 8325.000
1413.423, 8234.000
1414.474, 8112.000
1415.525, 8219.000
1416.576, 8272.000
1417.627, 8253.000
1418.678, 8291.245
1419.728, 8288.640
1420.778, 8292.000
1421.829, 8220.000
1422.879, 8252.000
1423.928, 8088.000
1424.978, 8133.000
1426.028, 8106.000
1427.077, 8039.000
1428.126, 8181.000
1429.176, 8103.000
1430.225, 8048.000
1431.273, 8069.000
1432.322, 7983.000
1433.371, 8035.000
1434.419, 8067.000
1435.467, 8042.000
1436.515, 7933.000
1437.563, 8006.000
1438.611, 7995.000
1439.658, 8058.000
1440.706, 7962.000
1441.753, 7957.000
1442.800, 8038.000
1443.847, 7918.000
1444.894, 8052.000
1445.941, 7915.000
1446.987, 7942.000
1448.034, 7861.000
1449.080, 7903.000
1450.126, 7890.000
1451.172, 7848.464
1452.218, 7951.000
1453.263, 7800.000
1454.309, 7843.000
1455.354, 7856.000
1456.399, 7799.000
1457.444, 7835.000
1458.489, 7800.000
1459.534, 7745.000
1460.579, 7918.000
1461.623, 7822.000
1462.667, 7869.000
1463.711, 7709.000
1464.755, 7803.000
1465.799, 7678.000
1466.843, 7738.000
1467.886, 7771.000
1468.930, 7767.000
1469.973, 7710.000
1471.016, 7844.000
1472.059, 7721.000
1473.101, 7729.000
1474.144, 7636.000
1475.186, 7673.623
1476.229, 7770.630
1477.271, 7821.919
1478.313, 7829.939
1479.355, 7665.097
1480.396, 7723.478
1481.438, 7692.396
1482.479, 7657.654
1483.520, 7747.452
1484.561, 7607.758
1485.602, 7695.581
1486.643, 7692.584
1487.684, 7731.153
1488.724, 7679.721
1489.765, 7656.082
1490.805, 7722.487
1491.845, 7739.039
1492.885, 7677.246
1493.924, 7718.471
1494.964, 7575.641
1496.003, 7594.322
1497.042, 7682.687
1498.082, 7420.000
1499.120, 7531.000
1500.159, 7529.000
1501.198, 7540.000
1502.236, 7617.000
1503.275, 7549.000
1504.313, 7447.000
1505.351, 7500.000
1506.389, 7645.000
1507.427, 7589.000
1508.464, 7518.000
1509.502, 7454.000
1510.539, 7394.000
1511.576, 7474.000
1512.613, 7423.000
1513.650, 7542.000
1514.687, 7382.000
1515.723, 7481.000
1516.759, 7472.000
1517.796, 7426.000
1518.832, 7476.000
1519.868, 7550.000
1520.903, 7525.000
1521.939, 7443.000
1522.975, 7507.000
1524.010, 7399.000
1525.045, 7428.000
1526.080, 7450.000
1527.115, 7455.000
1528.150, 7484.000
1529.184, 7483.000
1530.219, 7429.000
1531.253, 7544.000
1532.287, 7456.000
1533.321, 7549.000
1534.355, 7508.890
1535.388, 7406.000
1536.422, 7476.000
1537.455, 7419.000
1538.488, 7479.000
1539.522, 7506.000
1540.554, 7515.000
1541.587, 7404.000
1542.620, 7455.000
1543.652, 7398.000
1544.685, 7392.000
1545.717, 7403.068
1546.749, 7506.933
1547.781, 7565.071
1548.812, 7579.941
1549.844, 7421.949
1550.875, 7487.173
1551.906, 7462.942
1552.938, 7435.042
1553.968, 7531.684
1554.999, 7398.834
1556.030, 7493.500
1557.060, 7497.347
1558.091, 7542.758
1559.121, 7498.164
1560.151, 7481.369
1561.181, 7554.611
1562.211, 7577.999
1563.240, 7523.043
1564.270, 7571.098
1565.299, 7435.105
1566.328, 7460.617
1567.357, 7555.811
1568.386, 7324.000
1569.415, 7494.000
1570.443, 7437.000
1571.472, 7469.000
1572.500, 7386.000
1573.528, 7361.000
1574.556, 7478.000
1575.584, 7425.000
1576.611, 7364.000
1577.639, 7412.000
##END=



