##NAMES=Magnesiochromite
##RRUFFID=R060797
##IDEAL CHEMISTRY=MgCr^3+^_2_O_4_
##LOCALITY=Benbow mine, Stillwater Complex, Mount Wood area, Stillwater County, Montana, USA
##OWNER=RRUFF
##SOURCE=California Institute of Technology
##DESCRIPTION=Black granular massive
##STATUS=The identification of this mineral has been confirmed by X-ray diffraction and chemical analysis
##URL=rruff.info/R060797
##MEASURED CHEMISTRY=(Mg_0.55_Fe^2+^_0.45_)_Σ=1_(Cr_1.28_Al_0.58_Fe^3+^_0.14_)_Σ=2_O_4_
##PIN_ID=M01281
##ORIENTATION=Laser parallel to -a* (-1 0 0). Fiducial mark perpendicular to laser is parallel to c [0 0 1]
125.2950, 16456.00
126.5290, 16500.00
127.7630, 16524.00
128.9970, 16781.00
130.2300, 17021.00
131.4640, 17011.00
132.6970, 16994.00
133.9300, 17445.00
135.1630, 17318.00
136.3950, 17161.00
137.6280, 17435.00
138.8600, 17713.00
140.0920, 17631.92
141.3240, 17769.00
142.5560, 17713.00
143.7880, 17703.82
145.0190, 17502.00
146.2510, 17577.00
147.4820, 17644.00
148.7130, 17430.00
149.9440, 17296.00
151.1750, 17231.00
152.4050, 17313.00
153.6360, 17414.00
154.8660, 17633.00
156.0960, 17803.00
157.3260, 17571.00
158.5560, 17343.00
159.7850, 17630.00
161.0150, 17405.00
162.2440, 17403.00
163.4730, 17374.00
164.7020, 17256.00
165.9310, 17336.00
167.1590, 17524.00
168.3880, 17338.00
169.6160, 17400.00
170.8440, 17518.00
172.0720, 17324.00
173.3000, 17375.00
174.5280, 17422.00
175.7550, 17261.00
176.9820, 17353.00
178.2100, 17287.86
179.4370, 17263.33
180.6630, 17262.00
181.8900, 17249.00
183.1170, 17305.00
184.3430, 17329.00
185.5690, 17441.00
186.7950, 17565.00
188.0210, 17503.78
189.2470, 17744.81
190.4720, 17909.89
191.6970, 18001.89
192.9230, 17873.45
194.1480, 17975.02
195.3730, 17950.98
196.5970, 17898.96
197.8220, 17964.75
199.0460, 17745.71
200.2700, 17761.67
201.4940, 17650.51
202.7180, 17562.82
203.9420, 17348.94
205.1660, 17156.00
206.3890, 16889.00
207.6120, 16942.00
208.8350, 16865.00
210.0580, 16696.00
211.2810, 16706.00
212.5040, 16780.00
213.7260, 16811.00
214.9480, 16734.00
216.1700, 16801.00
217.3920, 16689.00
218.6140, 16670.00
219.8360, 16420.03
221.0570, 16584.46
222.2790, 16670.86
223.5000, 16683.44
224.7210, 16401.07
225.9410, 16499.58
227.1620, 16445.45
228.3820, 16385.06
229.6030, 16537.17
230.8230, 16297.71
232.0430, 16446.45
233.2630, 16440.23
234.4820, 16504.95
235.7020, 16276.81
236.9210, 16426.00
238.1400, 16497.17
239.3590, 16494.51
240.5780, 16196.89
241.7970, 16280.14
243.0150, 16244.00
244.2340, 16281.00
245.4520, 16303.00
246.6700, 16321.00
247.8880, 16287.90
249.1060, 16296.76
250.3230, 16284.88
251.5400, 16267.00
252.7580, 16254.00
253.9750, 16229.00
255.1920, 16192.00
256.4080, 16139.00
257.6250, 16103.00
258.8410, 16146.00
260.0580, 16061.00
261.2740, 16079.00
262.4900, 16129.00
263.7050, 16125.89
264.9210, 16039.00
266.1360, 16163.00
267.3520, 16061.00
268.5670, 15974.00
269.7820, 16190.00
270.9960, 15907.00
272.2110, 16054.00
273.4250, 15919.00
274.6400, 16155.00
275.8540, 15852.00
277.0680, 16049.00
278.2810, 15807.00
279.4950, 16026.00
280.7090, 15960.00
281.9220, 15954.00
283.1350, 15901.00
284.3480, 15824.00
285.5610, 15837.00
286.7730, 15764.00
287.9860, 15823.00
289.1980, 15902.00
290.4100, 15816.00
291.6220, 15740.00
292.8340, 15809.00
294.0460, 15761.00
295.2570, 15858.00
296.4690, 15848.00
297.6800, 15919.00
298.8910, 15865.89
300.1020, 15756.00
301.3120, 15770.00
302.5230, 15660.00
303.7330, 15678.00
304.9440, 15824.00
306.1540, 15709.00
307.3630, 15695.00
308.5730, 15756.00
309.7830, 15602.00
310.9920, 15729.00
312.2010, 15763.00
313.4100, 15590.00
314.6190, 15844.00
315.8280, 15743.00
317.0370, 15691.00
318.2450, 15765.00
319.4530, 15726.03
320.6610, 15719.00
321.8690, 15757.00
323.0770, 15795.00
324.2850, 15768.00
325.4920, 15787.00
326.6990, 15705.00
327.9060, 15784.00
329.1130, 15814.00
330.3200, 15750.43
331.5270, 15935.71
332.7330, 16042.97
333.9390, 16076.40
335.1450, 15814.88
336.3510, 15934.23
337.5570, 15900.94
338.7630, 15861.39
339.9680, 16034.34
341.1740, 15815.72
342.3790, 15985.30
343.5840, 15999.91
344.7890, 16085.45
345.9930, 16099.00
347.1980, 15946.00
348.4020, 15938.00
349.6060, 15889.00
350.8100, 16109.00
352.0140, 16017.00
353.2180, 16069.00
354.4210, 16053.00
355.6250, 16161.00
356.8280, 16238.00
358.0310, 16132.00
359.2340, 16231.00
360.4360, 16229.00
361.6390, 16317.00
362.8410, 16171.00
364.0430, 16306.00
365.2450, 16190.00
366.4470, 16342.00
367.6490, 16297.00
368.8510, 16159.89
370.0520, 16390.46
371.2530, 16543.01
372.4540, 16621.73
373.6550, 16405.49
374.8560, 16570.12
376.0560, 16582.08
377.2570, 16587.81
378.4570, 16806.01
379.6570, 16577.00
380.8570, 16574.00
382.0570, 16713.00
383.2560, 16605.00
384.4560, 16639.00
385.6550, 16681.00
386.8540, 16634.00
388.0530, 16799.00
389.2520, 16966.00
390.4510, 17040.00
391.6490, 17077.71
392.8470, 17083.28
394.0450, 17068.00
395.2430, 16967.00
396.4410, 16987.00
397.6390, 16889.00
398.8360, 17277.00
400.0340, 17200.00
401.2310, 17149.00
402.4280, 17297.00
403.6250, 17231.00
404.8210, 17202.00
406.0180, 17405.00
407.2140, 17458.00
408.4100, 17249.00
409.6060, 17510.00
410.8020, 17414.00
411.9980, 17375.00
413.1930, 17606.00
414.3890, 17607.00
415.5840, 17613.00
416.7790, 17699.00
417.9740, 17672.00
419.1680, 17709.00
420.3630, 17649.59
421.5570, 17851.52
422.7510, 17975.43
423.9450, 18025.50
425.1390, 17780.62
426.3330, 17916.62
427.5270, 17899.97
428.7200, 17877.05
429.9130, 18066.63
431.1060, 17864.63
432.2990, 18050.84
433.4920, 18082.09
434.6840, 18184.23
435.8770, 18132.82
437.0690, 18264.00
438.2610, 18229.00
439.4530, 18200.00
440.6450, 18196.00
441.8360, 18453.00
443.0280, 18443.00
444.2190, 18441.00
445.4100, 18378.00
446.6010, 18525.00
447.7920, 18728.00
448.9820, 18633.00
450.1730, 18739.00
451.3630, 18813.00
452.5530, 18715.00
453.7430, 18952.00
454.9330, 18972.00
456.1230, 18854.00
457.3120, 19067.00
458.5010, 19356.00
459.6910, 19107.00
460.8800, 19373.00
462.0680, 19134.00
463.2570, 19434.00
464.4460, 19454.00
465.6340, 19589.00
466.8220, 19572.00
468.0100, 19618.21
469.1980, 19678.47
470.3860, 19636.00
471.5730, 19820.00
472.7600, 19808.00
473.9480, 19994.00
475.1350, 20091.00
476.3210, 20147.00
477.5080, 20275.25
478.6950, 20329.50
479.8810, 20424.00
481.0670, 20468.00
482.2530, 20483.00
483.4390, 20557.00
484.6250, 20782.00
485.8100, 20901.00
486.9960, 20893.00
488.1810, 21040.00
489.3660, 20918.00
490.5510, 21142.00
491.7360, 21355.00
492.9200, 21017.00
494.1050, 21171.00
495.2890, 21362.00
496.4730, 21282.00
497.6570, 21581.00
498.8400, 21478.00
500.0240, 21538.00
501.2070, 21717.00
502.3910, 21855.00
503.5740, 21852.00
504.7570, 22184.00
505.9400, 22211.00
507.1220, 22373.00
508.3050, 22558.00
509.4870, 22571.00
510.6690, 22608.00
511.8510, 22880.57
513.0330, 23142.00
514.2140, 23333.00
515.3960, 23561.00
516.5770, 23781.37
517.7580, 23991.26
518.9390, 24198.00
520.1200, 24405.00
521.3010, 24587.00
522.4810, 24747.00
523.6610, 25004.45
524.8420, 25386.00
526.0220, 25507.00
527.2010, 25918.00
528.3810, 26186.00
529.5610, 26362.00
530.7400, 26605.00
531.9190, 27058.00
533.0980, 27354.00
534.2770, 27642.00
535.4560, 27810.00
536.6340, 28238.00
537.8120, 28576.00
538.9910, 29223.00
540.1690, 29579.00
541.3460, 30323.00
542.5240, 30637.00
543.7020, 31185.00
544.8790, 31563.00
546.0560, 31997.00
547.2330, 32651.00
548.4100, 32829.00
549.5870, 33400.00
550.7630, 33931.00
551.9400, 34212.00
553.1160, 34488.95
554.2920, 34683.00
555.4680, 34811.00
556.6440, 34979.00
557.8190, 35237.00
558.9950, 35462.00
560.1700, 35683.95
561.3450, 35884.54
562.5200, 36162.00
563.6950, 36181.95
564.8690, 36512.43
566.0440, 36756.97
567.2180, 36918.05
568.3920, 36848.43
569.5660, 36998.65
570.7400, 37013.04
571.9130, 36989.19
573.0870, 37072.96
574.2600, 36861.68
575.4330, 36875.19
576.6060, 36532.00
577.7790, 36227.00
578.9520, 36176.00
580.1240, 35752.00
581.2960, 35552.00
582.4690, 35110.96
583.6410, 34406.00
584.8120, 34105.00
585.9840, 33485.00
587.1560, 32892.00
588.3270, 32763.00
589.4980, 32170.00
590.6690, 31569.00
591.8400, 31780.00
593.0110, 30979.00
594.1810, 30998.00
595.3510, 30820.00
596.5220, 30408.00
597.6920, 30142.00
598.8610, 29957.00
600.0310, 29772.00
601.2010, 29509.13
602.3700, 29225.00
603.5390, 29036.00
604.7080, 28759.00
605.8770, 28559.00
607.0460, 28289.00
608.2140, 28022.00
609.3830, 27617.00
610.5510, 27346.00
611.7190, 27173.00
612.8870, 26959.00
614.0550, 26459.00
615.2220, 26522.00
616.3900, 25794.00
617.5570, 25599.00
618.7240, 25339.00
619.8910, 25105.00
621.0580, 24705.00
622.2240, 24648.00
623.3910, 24144.00
624.5570, 24156.00
625.7230, 23743.00
626.8890, 23558.00
628.0550, 23381.00
629.2200, 23503.00
630.3860, 23331.00
631.5510, 23470.00
632.7160, 23407.00
633.8810, 23792.00
635.0460, 23848.00
636.2100, 23999.00
637.3750, 24353.00
638.5390, 24695.00
639.7030, 25015.00
640.8670, 25202.00
642.0310, 25882.00
643.1950, 26149.00
644.3580, 26735.00
645.5210, 26874.00
646.6850, 27251.00
647.8480, 27675.00
649.0100, 27924.00
650.1730, 28254.00
651.3350, 28241.00
652.4980, 28465.00
653.6600, 28784.00
654.8220, 28721.00
655.9840, 28900.00
657.1450, 29060.00
658.3070, 28826.00
659.4680, 28964.00
660.6300, 28931.00
661.7910, 28906.00
662.9510, 28927.00
664.1120, 28997.00
665.2730, 29071.00
666.4330, 29182.00
667.5930, 29295.00
668.7530, 29226.00
669.9130, 29576.00
671.0730, 29714.00
672.2320, 29947.00
673.3920, 30342.00
674.5510, 30472.00
675.7100, 30735.00
676.8690, 31154.00
678.0280, 31553.00
679.1860, 31776.00
680.3450, 32239.00
681.5030, 32639.00
682.6610, 32979.00
683.8190, 33720.00
684.9770, 33677.00
686.1340, 34352.00
687.2920, 34701.00
688.4490, 35417.00
689.6060, 35722.00
690.7630, 36135.00
691.9200, 36540.00
693.0760, 37323.24
694.2330, 37830.39
695.3890, 38202.23
696.5450, 38441.89
697.7010, 38401.97
698.8570, 38533.02
700.0130, 38479.36
701.1680, 38338.71
702.3230, 38256.93
703.4780, 37831.28
704.6330, 37581.65
705.7880, 37205.00
706.9430, 36728.00
708.0970, 36179.00
709.2520, 35610.72
710.4060, 35034.45
711.5600, 34409.91
712.7140, 33785.00
713.8670, 33129.00
715.0210, 32441.00
716.1740, 31799.00
717.3270, 31302.00
718.4800, 30491.00
719.6330, 29948.00
720.7860, 29080.00
721.9380, 28589.00
723.0910, 28159.00
724.2430, 27330.00
725.3950, 26972.00
726.5470, 26375.00
727.6980, 25859.51
728.8500, 25488.33
730.0010, 24912.00
731.1530, 24721.00
732.3040, 24241.00
733.4550, 23886.00
734.6050, 23519.00
735.7560, 23384.00
736.9060, 23122.00
738.0560, 22672.00
739.2060, 22515.00
740.3560, 22107.00
741.5060, 21944.00
742.6560, 21765.00
743.8050, 21482.00
744.9540, 21239.00
746.1030, 21136.00
747.2520, 20899.00
748.4010, 20801.00
749.5500, 20511.00
750.6980, 20292.00
751.8460, 20167.47
752.9950, 19987.00
754.1420, 19902.00
755.2900, 19809.00
756.4380, 19717.00
757.5850, 19512.00
758.7330, 19455.00
759.8800, 19220.00
761.0270, 19229.00
762.1730, 19169.00
763.3200, 19063.43
764.4670, 18773.00
765.6130, 18938.00
766.7590, 18685.00
767.9050, 18613.00
769.0510, 18783.00
770.1960, 18589.00
771.3420, 18691.00
772.4870, 18310.00
773.6320, 18546.00
774.7770, 18340.00
775.9220, 18365.00
777.0670, 18229.00
778.2110, 18200.00
779.3560, 18125.00
780.5000, 18143.81
781.6440, 18266.97
782.7880, 18312.10
783.9320, 18283.40
785.0750, 17959.79
786.2180, 18017.06
787.3620, 17921.65
788.5050, 17820.02
789.6480, 17930.89
790.7900, 17650.24
791.9330, 17757.75
793.0750, 17710.33
794.2170, 17733.85
795.3590, 17386.00
796.5010, 17581.00
797.6430, 17661.00
798.7850, 17398.00
799.9260, 17556.00
801.0670, 17546.00
802.2080, 17536.00
803.3490, 17598.00
804.4900, 17481.00
805.6310, 17435.00
806.7710, 17405.03
807.9110, 17392.47
809.0510, 17381.79
810.1910, 17419.00
811.3310, 17370.00
812.4710, 17343.00
813.6100, 17294.00
814.7490, 17365.00
815.8880, 17551.00
817.0270, 17334.00
818.1660, 17343.00
819.3050, 17347.00
820.4430, 17093.00
821.5820, 17106.00
822.7200, 17149.00
823.8580, 17221.00
824.9950, 17182.00
826.1330, 17166.00
827.2710, 17018.00
828.4080, 17002.72
829.5450, 17168.14
830.6820, 17255.54
831.8190, 17269.11
832.9560, 16987.73
834.0920, 17087.23
835.2280, 17034.09
836.3650, 16974.69
837.5010, 17127.79
838.6360, 16889.33
839.7720, 17039.06
840.9080, 17033.83
842.0430, 17099.54
843.1780, 17011.67
844.3130, 17082.00
845.4480, 17080.39
846.5830, 17104.81
847.7170, 16932.00
848.8520, 17185.00
849.9860, 16878.00
851.1200, 17086.00
852.2540, 16833.00
853.3870, 17094.00
854.5210, 16917.00
855.6540, 17026.00
856.7880, 16987.00
857.9210, 16908.00
859.0540, 16984.37
860.1860, 16925.70
861.3190, 16978.00
862.4510, 16955.00
863.5840, 16819.00
864.7160, 16937.00
865.8480, 16948.00
866.9790, 16750.00
868.1110, 16948.00
869.2420, 17268.00
870.3740, 16907.00
871.5050, 16874.00
872.6360, 16948.00
873.7660, 16667.00
874.8970, 17059.00
876.0280, 16746.00
877.1580, 16837.00
878.2880, 16785.00
879.4180, 16919.00
880.5480, 16934.12
881.6770, 17023.00
882.8070, 16952.00
883.9360, 16921.00
885.0650, 16770.00
886.1940, 16680.00
887.3230, 16763.00
888.4520, 16832.00
889.5800, 16724.00
890.7090, 16784.00
891.8370, 16802.00
892.9650, 16839.00
894.0930, 16731.00
895.2200, 16640.00
896.3480, 16854.00
897.4750, 16603.00
898.6020, 16681.00
899.7290, 16895.00
900.8560, 16966.00
901.9830, 16750.00
903.1090, 16701.00
904.2360, 16804.00
905.3620, 16834.00
906.4880, 16719.00
907.6140, 16838.00
908.7400, 16842.00
909.8650, 16790.00
910.9900, 16900.00
912.1160, 16778.00
913.2410, 16781.00
914.3660, 16672.00
915.4900, 16717.25
916.6150, 16802.00
917.7390, 16877.00
918.8640, 16866.52
919.9880, 16897.00
921.1120, 16797.00
922.2350, 16821.00
923.3590, 16696.00
924.4820, 16916.00
925.6060, 16828.00
926.7290, 16856.00
927.8520, 16861.00
928.9740, 16744.00
930.0970, 16768.00
931.2190, 16811.00
932.3420, 16708.00
933.4640, 16731.00
934.5860, 16772.00
935.7080, 16755.00
936.8290, 16843.00
937.9510, 16772.00
939.0720, 16765.81
940.1930, 16821.00
941.3140, 16667.00
942.4350, 16765.00
943.5560, 16695.44
944.6760, 16657.00
945.7960, 16754.00
946.9170, 16828.00
948.0370, 16814.00
949.1560, 16724.00
950.2760, 16813.00
951.3960, 16762.03
952.5150, 16826.00
953.6340, 16770.00
954.7530, 16860.00
955.8720, 16911.00
956.9910, 16902.00
958.1090, 16813.00
959.2280, 16973.00
960.3460, 16929.00
961.4640, 17019.00
962.5820, 16903.00
963.6990, 16864.00
964.8170, 16963.00
965.9340, 16712.00
967.0510, 17077.00
968.1690, 16950.00
969.2850, 16760.00
970.4020, 16966.00
971.5190, 16849.00
972.6350, 16787.00
973.7510, 16871.00
974.8670, 16914.00
975.9830, 16944.00
977.0990, 16924.00
978.2150, 16933.00
979.3300, 16833.00
980.4450, 16872.00
981.5600, 16801.00
982.6750, 17023.00
983.7900, 16893.00
984.9050, 16969.00
986.0190, 16938.00
987.1340, 16974.00
988.2480, 17051.00
989.3620, 16952.00
990.4750, 17043.00
991.5890, 17027.00
992.7020, 16897.00
993.8160, 17071.00
994.9290, 17134.00
996.0420, 16967.00
997.1550, 17212.00
998.2670, 17184.00
999.3800, 17067.00
1000.492, 16922.00
1001.604, 17057.09
1002.716, 17223.00
1003.828, 17154.00
1004.940, 17196.00
1006.051, 16901.00
1007.163, 17207.00
1008.274, 16961.00
1009.385, 17159.00
1010.496, 17151.00
1011.606, 17074.00
1012.717, 17230.00
1013.827, 17150.00
1014.937, 17243.00
1016.047, 17127.00
1017.157, 17005.00
1018.267, 16990.00
1019.377, 17159.00
1020.486, 17140.00
1021.595, 17203.00
1022.704, 17247.00
1023.813, 17169.59
1024.922, 17311.00
1026.030, 17121.00
1027.139, 17137.00
1028.247, 17337.00
1029.355, 17261.00
1030.463, 17339.00
1031.571, 17310.00
1032.678, 17306.00
1033.786, 17380.00
1034.893, 17360.00
1036.000, 17282.00
1037.107, 17366.00
1038.214, 17344.00
1039.321, 17316.00
1040.427, 17340.00
1041.533, 17357.69
1042.639, 17368.75
1043.745, 17451.00
1044.851, 17432.00
1045.957, 17499.00
1047.062, 17565.00
1048.168, 17436.00
1049.273, 17662.00
1050.378, 17415.00
1051.482, 17467.00
1052.587, 17605.00
1053.692, 17650.00
1054.796, 17659.85
1055.900, 17552.00
1057.004, 17608.00
1058.108, 17597.00
1059.212, 17512.00
1060.315, 17701.00
1061.418, 17704.00
1062.522, 17804.00
1063.625, 17565.00
1064.728, 17938.00
1065.830, 17647.00
1066.933, 17762.00
1068.035, 17792.00
1069.137, 17779.00
1070.239, 17863.00
1071.341, 17872.65
1072.443, 17942.00
1073.545, 17928.00
1074.646, 17900.00
1075.747, 17895.00
1076.848, 17849.00
1077.949, 17873.36
1079.050, 17863.00
1080.150, 18019.00
1081.251, 18077.24
1082.351, 18142.98
1083.451, 18211.00
1084.551, 18275.54
1085.651, 18211.70
1086.750, 18235.00
1087.850, 18068.00
1088.949, 18196.00
1090.048, 18355.00
1091.147, 18383.00
1092.246, 18170.00
1093.345, 18271.00
1094.443, 18417.00
1095.541, 18225.00
1096.639, 18294.00
1097.737, 18387.00
1098.835, 18274.00
1099.933, 18401.92
1101.030, 18507.96
1102.128, 18550.00
1103.225, 18643.00
1104.322, 18762.00
1105.419, 18455.00
1106.515, 18705.00
1107.612, 18515.00
1108.708, 18472.00
1109.804, 18719.00
1110.900, 18609.00
1111.996, 18694.00
1113.092, 18656.54
1114.187, 18660.00
1115.283, 18559.00
1116.378, 18780.00
1117.473, 18869.00
1118.568, 18732.00
1119.662, 18652.00
1120.757, 18598.00
1121.851, 18693.00
1122.946, 18781.00
1124.040, 18778.00
1125.134, 18716.00
1126.227, 18936.00
1127.321, 18875.00
1128.414, 18628.00
1129.508, 18702.00
1130.601, 18855.00
1131.693, 18877.00
1132.786, 18727.00
1133.879, 18773.00
1134.971, 18885.00
1136.064, 18998.00
1137.156, 18974.00
1138.248, 18759.00
1139.339, 18882.00
1140.431, 18872.00
1141.522, 18923.00
1142.614, 18886.00
1143.705, 18921.00
1144.796, 18845.00
1145.887, 18882.00
1146.977, 18768.00
1148.068, 18833.00
1149.158, 18957.00
1150.248, 18853.00
1151.338, 18910.00
1152.428, 18720.00
1153.518, 18834.00
1154.607, 18962.00
1155.696, 18862.00
1156.785, 18977.00
1157.874, 18816.00
1158.963, 18649.17
1160.052, 18824.88
1161.141, 18922.57
1162.229, 18946.43
1163.317, 18675.34
1164.405, 18785.12
1165.493, 18742.26
1166.581, 18693.15
1167.668, 18856.54
1168.756, 18628.34
1169.843, 18788.36
1170.930, 18793.42
1172.017, 18869.39
1173.103, 18791.79
1174.190, 18761.62
1175.276, 18885.09
1176.363, 18923.48
1177.449, 18754.00
1178.535, 18554.00
1179.620, 18764.00
1180.706, 18683.00
1181.791, 18599.00
1182.877, 18825.00
1183.962, 18634.57
1185.047, 18926.00
1186.131, 18585.00
1187.216, 18444.72
1188.300, 18622.40
1189.385, 18722.07
1190.469, 18747.90
1191.553, 18478.78
1192.637, 18590.54
1193.720, 18549.65
1194.804, 18502.51
1195.887, 18667.87
1196.970, 18441.66
1198.053, 18603.65
1199.136, 18610.67
1200.219, 18688.62
1201.301, 18692.00
1202.383, 18584.00
1203.465, 18524.00
1204.547, 18681.00
1205.629, 18649.00
1206.711, 18506.00
1207.792, 18542.00
1208.874, 18514.00
1209.955, 18536.26
1211.036, 18554.37
1212.117, 18577.00
1213.198, 18615.00
1214.278, 18479.00
1215.359, 18535.00
1216.439, 18559.00
1217.519, 18445.00
1218.599, 18564.00
1219.678, 18608.00
1220.758, 18478.00
1221.837, 18599.00
1222.917, 18452.00
1223.996, 18584.00
1225.075, 18777.00
1226.153, 18633.00
1227.232, 18591.00
1228.310, 18666.00
1229.389, 18655.00
1230.467, 18630.54
1231.545, 18543.00
1232.622, 18591.00
1233.700, 18556.00
1234.777, 18579.00
1235.855, 18685.00
1236.932, 18712.00
1238.009, 18683.00
1239.086, 18696.00
1240.162, 18405.00
1241.239, 18443.00
1242.315, 18497.00
1243.391, 18699.00
1244.467, 18556.00
1245.543, 18323.07
1246.619, 18506.57
1247.694, 18612.04
1248.769, 18643.68
1249.844, 18380.37
1250.919, 18497.93
1251.994, 18462.85
1253.069, 18421.52
1254.144, 18592.69
1255.218, 18372.27
1256.292, 18540.06
1257.366, 18599.00
1258.440, 18495.00
1259.514, 18650.00
1260.587, 18483.00
1261.661, 18545.00
1262.734, 18658.00
1263.807, 18573.09
1264.880, 18546.00
1265.952, 18569.00
1267.025, 18529.00
1268.097, 18551.00
1269.170, 18413.00
1270.242, 18534.00
1271.314, 18544.00
1272.385, 18670.00
1273.457, 18366.00
1274.528, 18440.80
1275.600, 18615.02
1276.671, 18711.22
1277.742, 18733.59
1278.812, 18461.02
1279.883, 18569.31
1280.954, 18524.96
1282.024, 18474.36
1283.094, 18636.26
1284.164, 18406.59
1285.234, 18565.12
1286.303, 18568.69
1287.373, 18643.18
1288.442, 18628.00
1289.511, 18624.57
1290.580, 18568.00
1291.649, 18639.00
1292.718, 18752.00
1293.786, 18581.00
1294.855, 18631.00
1295.923, 18622.00
1296.991, 18828.00
1298.059, 18658.85
1299.126, 18828.00
1300.194, 18703.00
1301.261, 18653.00
1302.328, 18669.11
1303.395, 18609.00
1304.462, 18567.00
1305.529, 18604.00
1306.596, 18496.00
1307.662, 18544.00
1308.728, 18518.00
1309.794, 18680.00
1310.860, 18613.00
1311.926, 18550.00
1312.991, 18654.00
1314.057, 18590.00
1315.122, 18676.00
1316.187, 18474.00
1317.252, 18714.00
1318.317, 18815.00
1319.381, 18478.00
1320.446, 18437.00
1321.510, 18379.00
1322.574, 18312.00
1323.638, 18292.00
1324.702, 18556.00
1325.766, 18288.00
1326.829, 18375.00
1327.892, 18496.00
1328.956, 18278.00
1330.019, 18356.00
1331.081, 18457.00
1332.144, 18499.00
1333.206, 18393.00
1334.269, 18312.00
1335.331, 18473.00
1336.393, 18268.00
1337.455, 18360.00
1338.516, 18215.00
1339.578, 18368.00
1340.639, 18401.00
1341.701, 18380.00
1342.762, 18652.00
1343.822, 18623.00
1344.883, 18657.34
1345.944, 18621.33
1347.004, 18606.00
1348.064, 18468.00
1349.124, 18362.00
1350.184, 18445.00
1351.244, 18468.00
1352.304, 18532.00
1353.363, 18537.07
1354.422, 18490.41
1355.481, 18523.00
1356.540, 18520.00
1357.599, 18491.38
1358.657, 18496.00
1359.716, 18367.00
1360.774, 18360.00
1361.832, 18228.00
1362.890, 18504.00
1363.948, 18413.00
1365.006, 18478.00
1366.063, 18341.00
1367.120, 18472.00
1368.178, 18403.28
1369.234, 18378.49
1370.291, 18345.00
1371.348, 18376.00
1372.404, 18348.00
1373.461, 18466.00
1374.517, 18466.00
1375.573, 18346.00
1376.629, 18271.00
1377.684, 18398.00
1378.740, 18432.00
1379.795, 18306.00
1380.850, 18181.00
1381.905, 18351.00
1382.960, 18409.00
1384.015, 18256.00
1385.070, 18417.00
1386.124, 18378.00
1387.178, 18425.00
1388.232, 18310.00
1389.286, 18308.00
1390.340, 18399.00
1391.393, 18335.00
1392.447, 18395.00
1393.500, 18494.00
1394.553, 18367.00
1395.606, 18329.00
1396.659, 18194.00
1397.711, 18299.00
1398.764, 18271.00
1399.816, 18297.00
1400.868, 18356.00
1401.920, 18356.00
1402.972, 18196.00
1404.023, 18350.00
1405.075, 18036.00
1406.126, 18393.00
1407.177, 17999.00
1408.228, 18184.00
1409.279, 18271.00
1410.330, 18300.00
1411.380, 18309.00
1412.431, 17949.47
1413.481, 18174.23
1414.531, 18297.55
1415.580, 18324.91
1416.630, 17968.82
1417.680, 18107.87
1418.729, 18048.49
1419.778, 17980.98
1420.827, 18189.71
1421.876, 18036.32
1422.925, 18090.00
1423.973, 18031.00
1425.022, 18114.00
1426.070, 18218.00
1427.118, 18154.00
1428.166, 17973.00
1429.214, 18105.00
1430.261, 18050.00
1431.309, 18277.00
1432.356, 18248.00
1433.403, 18114.00
1434.450, 17987.00
1435.497, 18076.00
1436.543, 18154.00
1437.590, 18196.00
1438.636, 18042.00
1439.682, 18075.00
1440.728, 18002.00
1441.774, 18184.00
1442.819, 17954.00
1443.865, 18104.00
1444.910, 18096.00
1445.955, 18026.00
1447.000, 17982.00
1448.045, 17982.00
1449.090, 18146.00
1450.134, 18123.00
1451.178, 18056.00
1452.223, 17926.00
1453.267, 17908.00
1454.310, 17884.76
1455.354, 17857.50
1456.398, 17899.00
1457.441, 17866.00
1458.484, 17854.00
1459.527, 17845.00
1460.570, 17801.00
1461.613, 17755.00
1462.655, 17834.00
1463.698, 17898.00
1464.740, 17868.27
1465.782, 17818.00
1466.824, 17823.00
1467.866, 17816.00
1468.907, 17728.00
1469.948, 17841.57
1470.990, 17861.00
1472.031, 17938.00
1473.072, 17767.00
1474.112, 17593.00
1475.153, 17782.00
1476.194, 17601.00
1477.234, 17703.00
1478.274, 17787.00
1479.314, 17680.00
1480.354, 17645.00
1481.393, 17679.00
1482.433, 17678.00
1483.472, 17691.00
1484.511, 17723.00
1485.550, 17630.00
1486.589, 17645.00
1487.628, 17746.00
1488.666, 17629.33
1489.704, 17650.00
1490.743, 17492.00
1491.781, 17512.00
1492.819, 17437.00
1493.856, 17556.00
1494.894, 17637.00
1495.931, 17600.00
1496.968, 17629.84
1498.005, 17572.00
1499.042, 17397.67
1500.079, 17501.45
1501.115, 17553.24
1502.152, 17555.79
1503.188, 17361.72
1504.224, 17421.57
1505.260, 17379.66
1506.296, 17333.58
1507.331, 17429.18
1508.367, 17493.00
1509.402, 17490.00
1510.437, 17439.00
1511.472, 17466.00
1512.507, 17440.00
1513.541, 17480.00
1514.576, 17621.00
1515.610, 17423.00
1516.644, 17426.00
1517.678, 17517.00
1518.712, 17410.00
1519.746, 17613.00
1520.779, 17508.00
1521.813, 17439.00
1522.846, 17381.00
1523.879, 17399.41
1524.912, 17443.00
1525.944, 17464.00
1526.977, 17515.00
1528.009, 17491.00
1529.041, 17322.00
1530.073, 17371.00
1531.105, 17390.00
1532.137, 17376.00
1533.168, 17497.00
1534.200, 17386.00
1535.231, 17529.00
1536.262, 17431.00
1537.293, 17376.00
1538.324, 17448.00
1539.354, 17345.00
1540.385, 17438.00
1541.415, 17592.00
1542.445, 17194.98
1543.475, 17377.06
1544.505, 17481.11
1545.534, 17511.33
1546.564, 17246.59
1547.593, 17362.73
1548.622, 17326.23
1549.651, 17283.47
1550.680, 17453.21
1551.708, 17231.37
1552.737, 17397.75
1553.765, 17409.15
1554.793, 17491.48
1555.821, 17420.22
1556.849, 17396.41
1557.877, 17526.22
1558.904, 17570.96
1559.932, 17482.03
1560.959, 17568.86
1561.986, 17341.66
1563.013, 17390.02
1564.039, 17557.28
1565.066, 17476.07
1566.092, 17565.71
1567.119, 17590.28
1568.145, 17319.12
1569.170, 17562.25
1570.196, 17582.97
1571.222, 17459.00
1572.247, 17604.00
1573.272, 17445.00
1574.297, 17397.00
1575.322, 17596.00
1576.347, 17479.00
1577.372, 17614.00
##END=



