##NAMES=Magnesioferrite
##RRUFFID=R060869
##IDEAL CHEMISTRY=MgFe^3+^_2_O_4_
##LOCALITY=Langban, Filipstad, Varmland, Sweden
##OWNER=RRUFF
##SOURCE=Michael Scott
##DESCRIPTION=Black semimetallic massive
##STATUS=The identification of this mineral is confirmed by single-crystal X-ray diffraction and chemical analysis.
##URL=rruff.info/R060869
##MEASURED CHEMISTRY=(Mg_0.67_Mn^2+^_0.30_Fe^2+^_0.03_)_Σ=1_(Fe^3+^_1.97_Al_0.03_)_Σ=2_O_4_
##PIN_ID=L00748
##ORIENTATION=Laser parallel to a* (1 0 0). Fiducial mark perpendicular to laser is parallel to b [0 1 0]
126.5580, 11641.00
127.7920, 11455.00
129.0260, 11287.00
130.2590, 11482.00
131.4920, 11292.00
132.7250, 11254.00
133.9580, 11421.00
135.1910, 11515.00
136.4230, 11782.00
137.6560, 11727.46
138.8880, 12041.00
140.1200, 11753.00
141.3520, 11570.00
142.5830, 11769.00
143.8150, 11459.01
145.0460, 11715.17
146.2770, 11877.72
147.5080, 11758.00
148.7390, 11675.49
149.9700, 11567.00
151.2000, 11511.00
152.4310, 11436.43
153.6610, 11360.66
154.8910, 11330.00
156.1210, 11309.00
157.3500, 11286.00
158.5800, 11270.81
159.8090, 11501.58
161.0380, 11638.75
162.2670, 11687.35
163.4960, 11382.10
164.7240, 11533.76
165.9530, 11502.31
167.1810, 11463.35
168.4090, 11679.32
169.6370, 11282.00
170.8650, 11271.28
172.0920, 11202.92
173.3200, 11393.00
174.5470, 11440.00
175.7740, 11664.00
177.0010, 11660.55
178.2280, 11704.89
179.4540, 11651.00
180.6810, 11734.00
181.9070, 11681.00
183.1330, 11769.00
184.3590, 11759.00
185.5850, 11668.00
186.8100, 11617.00
188.0350, 11618.00
189.2610, 11732.00
190.4860, 11797.00
191.7110, 11747.00
192.9350, 11982.00
194.1600, 11664.00
195.3840, 11824.00
196.6080, 11891.00
197.8320, 11835.00
199.0560, 11764.00
200.2800, 11761.00
201.5030, 11637.00
202.7270, 11583.00
203.9500, 11597.00
205.1730, 11509.00
206.3950, 11434.00
207.6180, 11243.00
208.8410, 11168.00
210.0630, 11217.89
211.2850, 11385.52
212.5070, 11459.55
213.7290, 11445.01
214.9500, 11076.65
216.1720, 11165.19
217.3930, 11070.64
218.6140, 10968.59
219.8350, 11121.46
221.0560, 10928.00
222.2770, 10947.00
223.4970, 11033.00
224.7170, 10961.00
225.9370, 11126.00
227.1570, 10850.00
228.3770, 10662.00
229.5970, 10685.00
230.8160, 10983.00
232.0350, 10835.00
233.2540, 10832.00
234.4730, 10733.00
235.6920, 10775.00
236.9110, 10869.00
238.1290, 10888.00
239.3470, 10697.00
240.5650, 10914.00
241.7830, 10696.00
243.0010, 10810.00
244.2180, 10862.00
245.4360, 10759.00
246.6530, 10663.00
247.8700, 10908.05
249.0870, 11059.49
250.3040, 11122.37
251.5200, 10831.37
252.7370, 10997.32
253.9530, 10980.12
255.1690, 10955.43
256.3850, 11185.66
257.6000, 10946.10
258.8160, 11001.00
260.0310, 11098.00
261.2460, 10967.00
262.4610, 11020.00
263.6760, 11020.00
264.8910, 10999.00
266.1050, 11161.00
267.3200, 10940.98
268.5340, 11166.87
269.7480, 11299.17
270.9620, 11342.89
272.1750, 11032.76
273.3890, 11179.55
274.6020, 11143.23
275.8150, 11307.00
277.0280, 11201.00
278.2410, 11206.00
279.4540, 11206.00
280.6660, 11187.00
281.8790, 11264.00
283.0910, 11253.00
284.3030, 11165.00
285.5140, 11168.00
286.7260, 11340.00
287.9380, 11474.00
289.1490, 11425.00
290.3600, 11350.00
291.5710, 11291.00
292.7820, 11463.00
293.9920, 11593.00
295.2030, 11544.00
296.4130, 11463.00
297.6230, 11454.00
298.8330, 11589.00
300.0430, 11576.00
301.2520, 11791.00
302.4620, 11703.00
303.6710, 11724.00
304.8800, 11875.00
306.0890, 12029.00
307.2980, 12076.00
308.5070, 12428.00
309.7150, 12161.00
310.9230, 12131.00
312.1310, 12191.00
313.3390, 12426.00
314.5470, 12263.00
315.7550, 12396.00
316.9620, 12445.00
318.1690, 12558.00
319.3760, 12666.98
320.5830, 12758.40
321.7900, 12901.00
322.9960, 12962.00
324.2030, 13095.00
325.4090, 13170.00
326.6150, 13335.00
327.8210, 13423.00
329.0270, 13442.49
330.2320, 13539.00
331.4380, 13501.00
332.6430, 13676.00
333.8480, 13834.00
335.0530, 13831.00
336.2580, 13863.00
337.4620, 13943.00
338.6670, 14075.00
339.8710, 14135.00
341.0750, 14042.00
342.2790, 14005.00
343.4820, 13975.00
344.6860, 13939.62
345.8890, 13949.00
347.0920, 13942.00
348.2960, 13870.00
349.4980, 13931.00
350.7010, 13609.00
351.9040, 13652.00
353.1060, 13685.00
354.3080, 13524.00
355.5100, 13609.00
356.7120, 13542.00
357.9140, 13212.00
359.1150, 13270.00
360.3170, 13260.00
361.5180, 13130.00
362.7190, 13202.00
363.9200, 13278.00
365.1200, 13291.00
366.3210, 13293.00
367.5210, 13141.00
368.7210, 13204.00
369.9210, 13048.00
371.1210, 12918.00
372.3210, 12990.00
373.5200, 12876.57
374.7200, 12895.00
375.9190, 12858.00
377.1180, 12848.00
378.3170, 12920.00
379.5150, 12875.75
380.7140, 12956.00
381.9120, 12848.00
383.1110, 12859.00
384.3090, 12827.00
385.5060, 12848.00
386.7040, 12814.19
387.9020, 12783.15
389.0990, 12746.00
390.2960, 12729.00
391.4930, 12673.00
392.6900, 12701.00
393.8860, 12648.00
395.0830, 12530.01
396.2790, 12717.73
397.4750, 12811.85
398.6710, 12817.39
399.8670, 12469.09
401.0630, 12577.71
402.2580, 12503.24
403.4540, 12712.00
404.6490, 12547.00
405.8440, 12664.00
407.0390, 12534.00
408.2330, 12641.00
409.4280, 12587.00
410.6220, 12626.00
411.8160, 12736.00
413.0100, 12623.00
414.2040, 12715.63
415.3980, 12593.00
416.5910, 12684.00
417.7850, 12749.00
418.9780, 12533.00
420.1710, 12625.00
421.3640, 12519.96
422.5560, 12767.10
423.7490, 12920.67
424.9410, 12985.64
426.1330, 12696.76
427.3250, 12864.81
428.5170, 12849.74
429.7090, 12720.00
430.9000, 12970.00
432.0910, 13062.00
433.2820, 13008.00
434.4730, 12967.00
435.6640, 13103.00
436.8550, 13041.00
438.0450, 13169.00
439.2360, 13185.59
440.4260, 13117.75
441.6160, 13341.00
442.8060, 12988.00
443.9950, 13234.00
445.1850, 13220.00
446.3740, 13090.00
447.5630, 13237.00
448.7520, 13118.00
449.9410, 13379.00
451.1300, 13352.00
452.3180, 13384.00
453.5060, 13405.00
454.6950, 13352.00
455.8830, 13348.00
457.0700, 13449.00
458.2580, 13535.00
459.4450, 13435.00
460.6330, 13421.00
461.8200, 13538.00
463.0070, 13495.00
464.1940, 13680.00
465.3800, 13572.00
466.5670, 13553.00
467.7530, 13644.00
468.9390, 13700.00
470.1250, 13816.00
471.3110, 13837.00
472.4970, 13776.00
473.6820, 13945.00
474.8680, 13876.00
476.0530, 13766.00
477.2380, 14086.00
478.4230, 14074.00
479.6070, 14087.00
480.7920, 14089.00
481.9760, 14203.00
483.1600, 14064.00
484.3440, 14301.00
485.5280, 14360.00
486.7120, 14344.00
487.8950, 14286.00
489.0780, 14366.00
490.2620, 14553.00
491.4450, 14505.00
492.6270, 14631.00
493.8100, 14647.00
494.9920, 14712.00
496.1750, 14736.00
497.3570, 14768.20
498.5390, 14693.00
499.7210, 14786.00
500.9020, 14822.49
502.0840, 14745.00
503.2650, 14860.00
504.4460, 14891.46
505.6270, 14853.35
506.8080, 14949.00
507.9890, 14876.00
509.1690, 14904.51
510.3500, 14828.00
511.5300, 14914.00
512.7100, 14921.00
513.8900, 14937.00
515.0690, 15023.00
516.2490, 15040.00
517.4280, 15046.00
518.6070, 15164.00
519.7860, 15314.00
520.9650, 15315.00
522.1440, 15538.00
523.3220, 15763.00
524.5010, 15510.00
525.6790, 15588.00
526.8570, 15674.00
528.0350, 15653.00
529.2130, 15623.00
530.3900, 15596.00
531.5670, 15747.00
532.7450, 15726.96
533.9220, 15800.50
535.0980, 15860.00
536.2750, 15883.00
537.4520, 16028.00
538.6280, 15997.00
539.8040, 16216.00
540.9800, 16352.00
542.1560, 16280.00
543.3320, 16498.00
544.5070, 16610.00
545.6830, 16492.00
546.8580, 16664.00
548.0330, 16718.00
549.2080, 17016.00
550.3830, 17116.00
551.5570, 17250.00
552.7310, 17169.87
553.9060, 17513.29
555.0800, 17763.01
556.2540, 17924.16
557.4270, 17731.35
558.6010, 17995.58
559.7740, 18076.57
560.9470, 18150.07
562.1210, 18312.00
563.2930, 18294.00
564.4660, 18405.00
565.6390, 18717.00
566.8110, 18945.00
567.9830, 19043.00
569.1550, 19183.00
570.3270, 19492.00
571.4990, 19767.00
572.6710, 19804.00
573.8420, 20191.00
575.0130, 20351.00
576.1840, 20544.00
577.3550, 20945.00
578.5260, 21202.00
579.6970, 21238.00
580.8670, 21504.00
582.0370, 22001.00
583.2070, 22390.00
584.3770, 22923.00
585.5470, 23249.00
586.7170, 23580.00
587.8860, 24181.00
589.0550, 24857.00
590.2240, 25530.00
591.3930, 26246.00
592.5620, 27215.00
593.7310, 28189.00
594.8990, 29420.00
596.0670, 30068.00
597.2350, 31026.00
598.4030, 32146.00
599.5710, 35210.00
600.7390, 35224.00
601.9060, 36994.00
603.0740, 36833.00
604.2410, 38136.00
605.4080, 39629.00
606.5740, 40755.00
607.7410, 41803.00
608.9080, 42829.00
610.0740, 44065.00
611.2400, 45182.00
612.4060, 45990.00
613.5720, 46841.00
614.7370, 47046.00
615.9030, 47867.00
617.0680, 47887.00
618.2330, 48039.00
619.3980, 48271.00
620.5630, 47893.00
621.7280, 47708.00
622.8920, 47217.00
624.0570, 46806.00
625.2210, 46058.00
626.3850, 45306.00
627.5490, 44420.00
628.7120, 43347.00
629.8760, 42563.00
631.0390, 41401.56
632.2020, 40382.74
633.3650, 39162.00
634.5280, 38230.00
635.6910, 37162.00
636.8530, 36154.00
638.0160, 34954.00
639.1780, 34308.00
640.3400, 33207.00
641.5020, 32260.00
642.6640, 31453.00
643.8250, 30618.74
644.9870, 29975.00
646.1480, 29214.00
647.3090, 28467.00
648.4700, 27824.00
649.6300, 27476.00
650.7910, 26902.00
651.9510, 26519.51
653.1120, 26152.08
654.2720, 25759.00
655.4320, 25458.00
656.5910, 25049.00
657.7510, 24691.00
658.9100, 24277.00
660.0690, 24202.00
661.2290, 23863.00
662.3880, 23587.41
663.5460, 23686.00
664.7050, 23043.00
665.8630, 23013.00
667.0220, 22820.00
668.1800, 22605.00
669.3380, 22346.00
670.4950, 22203.74
671.6530, 22053.00
672.8100, 21786.00
673.9680, 21801.00
675.1250, 21383.00
676.2820, 21330.00
677.4390, 21243.00
678.5950, 21053.00
679.7520, 20932.00
680.9080, 20770.00
682.0640, 20639.24
683.2200, 20594.00
684.3760, 20456.00
685.5320, 20311.00
686.6870, 20357.00
687.8420, 20123.27
688.9980, 20291.00
690.1530, 19779.00
691.3070, 19839.00
692.4620, 19706.00
693.6170, 19626.00
694.7710, 19569.00
695.9250, 19601.00
697.0790, 19383.00
698.2330, 19247.08
699.3870, 19189.00
700.5400, 18874.00
701.6940, 18834.00
702.8470, 18806.00
704.0000, 18648.00
705.1530, 18581.00
706.3050, 18455.60
707.4580, 18315.32
708.6100, 18158.00
709.7630, 18031.00
710.9150, 17806.00
712.0660, 17651.00
713.2180, 17448.05
714.3700, 17286.19
715.5210, 17043.37
716.6720, 16857.99
717.8240, 16677.00
718.9740, 16510.00
720.1250, 16388.00
721.2760, 16280.00
722.4260, 16039.00
723.5770, 15826.00
724.7270, 15686.00
725.8770, 15529.00
727.0260, 15451.00
728.1760, 15111.00
729.3250, 15003.00
730.4750, 15016.00
731.6240, 14768.34
732.7730, 14866.00
733.9220, 14524.00
735.0700, 14464.00
736.2190, 14439.00
737.3670, 14247.00
738.5150, 14187.00
739.6630, 14042.00
740.8110, 13935.00
741.9590, 13916.00
743.1060, 13587.48
744.2540, 13740.44
745.4010, 13799.86
746.5480, 13770.71
747.6950, 13387.70
748.8410, 13461.68
749.9880, 13352.49
751.1340, 13235.84
752.2800, 13374.12
753.4260, 13178.00
754.5720, 13186.08
755.7180, 13131.12
756.8640, 13121.00
758.0090, 13069.00
759.1540, 12976.00
760.2990, 12933.00
761.4440, 12837.70
762.5890, 12756.00
763.7340, 12716.00
764.8780, 12670.00
766.0220, 12741.00
767.1660, 12761.00
768.3100, 12724.00
769.4540, 12746.06
770.5980, 12608.00
771.7410, 12699.00
772.8840, 12550.00
774.0280, 12482.00
775.1700, 12549.00
776.3130, 12479.00
777.4560, 12457.85
778.5980, 12472.00
779.7410, 12400.00
780.8830, 12434.00
782.0250, 12450.00
783.1670, 12452.00
784.3080, 12228.00
785.4500, 12444.00
786.5910, 12370.00
787.7320, 12158.00
788.8730, 12284.00
790.0140, 12132.00
791.1550, 12342.00
792.2950, 12305.53
793.4360, 12251.71
794.5760, 12323.00
795.7160, 12261.00
796.8560, 12217.00
797.9960, 12207.92
799.1350, 12279.00
800.2750, 12161.00
801.4140, 12192.00
802.5530, 12246.00
803.6920, 12188.00
804.8310, 12190.00
805.9690, 12216.65
807.1080, 12216.74
808.2460, 12231.00
809.3840, 12257.00
810.5220, 12200.00
811.6600, 12175.00
812.7970, 12135.00
813.9350, 12192.00
815.0720, 12194.00
816.2090, 12185.44
817.3460, 12103.00
818.4830, 12148.00
819.6200, 12132.00
820.7560, 12053.00
821.8930, 12137.00
823.0290, 12014.00
824.1650, 12079.93
825.3010, 12021.00
826.4360, 12132.00
827.5720, 12063.00
828.7070, 12014.00
829.8420, 12015.00
830.9770, 12036.00
832.1120, 12062.00
833.2470, 12158.00
834.3820, 12040.00
835.5160, 12101.00
836.6500, 12066.00
837.7840, 12013.00
838.9180, 12061.00
840.0520, 12020.13
841.1860, 12104.00
842.3190, 12012.00
843.4520, 12151.00
844.5850, 12176.00
845.7180, 12058.00
846.8510, 12045.00
847.9840, 12102.00
849.1160, 12026.00
850.2490, 12073.00
851.3810, 12088.00
852.5130, 12173.00
853.6450, 12108.00
854.7760, 12004.00
855.9080, 12104.00
857.0390, 12200.00
858.1700, 12098.00
859.3010, 12025.00
860.4320, 12057.00
861.5630, 12023.04
862.6930, 12003.91
863.8240, 12020.00
864.9540, 12046.00
866.0840, 11955.00
867.2140, 12124.00
868.3440, 12010.00
869.4730, 12038.00
870.6030, 11971.00
871.7320, 11994.00
872.8610, 12126.00
873.9900, 12017.46
875.1190, 12209.00
876.2470, 11995.00
877.3760, 11933.00
878.5040, 12108.00
879.6320, 12077.00
880.7600, 11929.00
881.8880, 12011.00
883.0150, 12024.00
884.1430, 12079.00
885.2700, 12202.00
886.3970, 12108.00
887.5240, 12079.00
888.6510, 12135.00
889.7780, 12250.00
890.9040, 12080.00
892.0310, 12115.00
893.1570, 11967.00
894.2830, 12126.00
895.4090, 12124.00
896.5350, 12132.00
897.6600, 12199.00
898.7860, 12035.00
899.9110, 12290.00
901.0360, 12222.09
902.1610, 12382.00
903.2860, 12195.00
904.4100, 12242.00
905.5350, 12077.00
906.6590, 12310.00
907.7830, 12197.00
908.9070, 12261.00
910.0310, 12140.00
911.1540, 12183.00
912.2780, 12209.00
913.4010, 12195.00
914.5240, 12229.81
915.6470, 12224.00
916.7700, 12266.00
917.8930, 12313.00
919.0150, 12345.00
920.1380, 12341.00
921.2600, 12344.70
922.3820, 12209.00
923.5040, 12286.00
924.6260, 12293.00
925.7470, 12218.00
926.8690, 12326.00
927.9900, 12427.00
929.1110, 12426.00
930.2320, 12357.00
931.3530, 12405.00
932.4730, 12390.00
933.5940, 12521.00
934.7140, 12267.00
935.8340, 12419.00
936.9540, 12284.00
938.0740, 12546.00
939.1930, 12299.00
940.3130, 12426.00
941.4320, 12443.00
942.5510, 12314.00
943.6700, 12382.00
944.7890, 12512.00
945.9080, 12336.00
947.0260, 12514.00
948.1450, 12562.00
949.2630, 12486.80
950.3810, 12878.00
951.4990, 12409.00
952.6170, 12497.00
953.7340, 12462.00
954.8520, 12679.00
955.9690, 12436.00
957.0860, 12469.00
958.2030, 12420.00
959.3200, 12383.00
960.4360, 12492.00
961.5530, 12441.00
962.6690, 12427.00
963.7850, 12567.00
964.9010, 12604.00
966.0170, 12470.00
967.1330, 12475.00
968.2480, 12472.37
969.3630, 12596.00
970.4790, 12474.00
971.5940, 12575.00
972.7080, 12551.00
973.8230, 12614.00
974.9380, 12477.00
976.0520, 12571.00
977.1660, 12582.67
978.2800, 12552.69
979.3940, 12676.00
980.5080, 12615.00
981.6220, 12641.00
982.7350, 12804.00
983.8480, 12630.00
984.9610, 12699.00
986.0740, 12777.00
987.1870, 12812.00
988.3000, 12822.00
989.4120, 12687.00
990.5250, 12805.00
991.6370, 12668.00
992.7490, 12762.00
993.8610, 12628.00
994.9720, 12813.00
996.0840, 12824.00
997.1950, 12886.00
998.3060, 12931.85
999.4170, 12994.00
1000.528, 12941.00
1001.639, 12910.09
1002.750, 12883.00
1003.860, 12778.00
1004.970, 12912.00
1006.080, 12823.00
1007.190, 12864.00
1008.300, 12742.00
1009.410, 12752.00
1010.519, 12747.00
1011.628, 12802.00
1012.738, 12858.00
1013.846, 12777.00
1014.955, 12843.51
1016.064, 13048.00
1017.172, 12752.00
1018.281, 12978.00
1019.389, 12679.00
1020.497, 12808.00
1021.605, 12861.85
1022.713, 12918.00
1023.820, 12950.00
1024.928, 13007.00
1026.035, 12887.00
1027.142, 13028.00
1028.249, 12948.00
1029.356, 12951.31
1030.462, 13202.00
1031.569, 12893.00
1032.675, 13073.00
1033.781, 12973.00
1034.887, 12966.00
1035.993, 13053.00
1037.098, 13035.00
1038.204, 13067.00
1039.309, 12877.00
1040.415, 12994.00
1041.520, 13007.00
1042.624, 12939.00
1043.729, 13381.00
1044.834, 13016.00
1045.938, 12864.00
1047.042, 13165.00
1048.146, 12992.00
1049.250, 13086.00
1050.354, 13025.00
1051.458, 12947.00
1052.561, 12944.00
1053.664, 13016.02
1054.767, 13219.99
1055.870, 13330.36
1056.973, 13352.16
1058.076, 13020.10
1059.178, 13144.99
1060.281, 13086.74
1061.383, 13021.00
1062.485, 13210.19
1063.587, 12912.00
1064.688, 13186.00
1065.790, 13049.00
1066.891, 13075.00
1067.993, 13160.00
1069.094, 13255.00
1070.195, 13072.00
1071.295, 13293.00
1072.396, 13014.00
1073.496, 13174.00
1074.597, 13337.00
1075.697, 13111.00
1076.797, 13252.00
1077.897, 13385.88
1078.996, 13715.53
1080.096, 13279.00
1081.195, 13381.11
1082.294, 13442.00
1083.393, 13197.00
1084.492, 13200.00
1085.591, 13347.00
1086.689, 13218.00
1087.788, 13246.00
1088.886, 13379.00
1089.984, 13139.00
1091.082, 13229.00
1092.180, 13256.00
1093.277, 13097.00
1094.375, 13133.00
1095.472, 13274.00
1096.569, 13147.00
1097.666, 13262.00
1098.763, 13195.00
1099.860, 13280.00
1100.956, 13204.00
1102.053, 13242.61
1103.149, 13217.00
1104.245, 13286.00
1105.341, 13292.00
1106.436, 13303.00
1107.532, 13244.00
1108.627, 13219.00
1109.723, 13274.00
1110.818, 13247.62
1111.913, 13274.35
1113.007, 13281.00
1114.102, 13277.00
1115.197, 13302.00
1116.291, 13225.00
1117.385, 13234.00
1118.479, 13344.00
1119.573, 13241.00
1120.666, 13300.00
1121.760, 13305.00
1122.853, 13425.00
1123.947, 13332.00
1125.040, 13397.00
1126.132, 13458.00
1127.225, 13441.00
1128.318, 13392.63
1129.410, 13267.00
1130.502, 13231.00
1131.595, 13224.00
1132.687, 13200.00
1133.778, 13369.00
1134.870, 13320.00
1135.961, 13308.00
1137.053, 13379.00
1138.144, 13323.00
1139.235, 13335.00
1140.326, 13245.00
1141.416, 13218.00
1142.507, 13261.00
1143.597, 13331.00
1144.688, 13450.00
1145.778, 13426.00
1146.868, 13435.00
1147.957, 13449.00
1149.047, 13466.00
1150.136, 13300.00
1151.226, 13304.00
1152.315, 13440.00
1153.404, 13474.00
1154.493, 13576.00
1155.581, 13529.00
1156.670, 13453.00
1157.758, 13627.00
1158.846, 13503.00
1159.934, 13540.48
1161.022, 13504.00
1162.110, 13535.00
1163.198, 13512.00
1164.285, 13525.00
1165.372, 13614.00
1166.459, 13618.00
1167.546, 13529.00
1168.633, 13750.00
1169.720, 13552.00
1170.806, 13589.00
1171.892, 13626.00
1172.979, 13734.00
1174.065, 13838.00
1175.150, 13874.09
1176.236, 13731.00
1177.322, 13966.00
1178.407, 13904.00
1179.492, 13926.76
1180.577, 13993.00
1181.662, 13814.00
1182.747, 13973.00
1183.832, 13888.00
1184.916, 14020.00
1186.000, 13901.00
1187.084, 13931.00
1188.168, 14039.00
1189.252, 14113.00
1190.336, 14149.00
1191.419, 13988.00
1192.503, 14132.00
1193.586, 14055.00
1194.669, 14214.00
1195.752, 14348.00
1196.835, 14177.00
1197.917, 14221.00
1199.000, 14141.00
1200.082, 14246.00
1201.164, 14211.00
1202.246, 14205.13
1203.328, 14246.53
1204.409, 14244.00
1205.491, 14262.00
1206.572, 14410.00
1207.653, 14397.00
1208.734, 14339.00
1209.815, 14405.00
1210.896, 14292.00
1211.976, 14390.00
1213.057, 14361.00
1214.137, 14519.00
1215.217, 14397.00
1216.297, 14554.00
1217.377, 14727.00
1218.456, 14876.00
1219.536, 14393.00
1220.615, 14565.92
1221.694, 14552.00
1222.773, 14430.00
1223.852, 14598.00
1224.931, 14541.00
1226.009, 14412.00
1227.088, 14511.00
1228.166, 14587.00
1229.244, 14551.00
1230.322, 14465.00
1231.400, 14478.00
1232.477, 14551.00
1233.555, 14433.00
1234.632, 14631.00
1235.709, 14512.11
1236.786, 14491.24
1237.863, 14405.00
1238.939, 14427.00
1240.016, 14433.00
1241.092, 14416.06
1242.168, 14463.00
1243.245, 14427.00
1244.320, 14455.00
1245.396, 14450.00
1246.472, 14363.00
1247.547, 14429.00
1248.622, 14432.00
1249.697, 14301.00
1250.772, 14309.00
1251.847, 14310.00
1252.922, 14384.00
1253.996, 14269.00
1255.071, 14210.00
1256.145, 14382.00
1257.219, 14187.00
1258.293, 14192.00
1259.366, 14363.00
1260.440, 14347.00
1261.513, 14236.00
1262.587, 14199.00
1263.660, 14282.00
1264.733, 14306.00
1265.805, 14200.00
1266.878, 14221.00
1267.951, 14108.00
1269.023, 14010.37
1270.095, 14211.83
1271.167, 14319.70
1272.239, 14338.99
1273.311, 14004.43
1274.382, 14126.81
1275.454, 14066.06
1276.525, 13997.81
1277.596, 14145.00
1278.667, 13980.00
1279.738, 13976.00
1280.808, 14094.00
1281.879, 14099.87
1282.949, 14092.57
1284.019, 14201.00
1285.089, 14089.00
1286.159, 13884.00
1287.229, 13962.00
1288.298, 13969.00
1289.368, 13940.00
1290.437, 14006.00
1291.506, 14014.00
1292.575, 14011.15
1293.644, 13974.87
1294.712, 14061.00
1295.781, 13876.00
1296.849, 13998.00
1297.917, 14032.00
1298.985, 13925.00
1300.053, 13946.00
1301.121, 13778.00
1302.188, 13898.00
1303.255, 14026.00
1304.323, 13871.00
1305.390, 14033.00
1306.457, 13745.00
1307.523, 13935.00
1308.590, 13980.00
1309.656, 13802.00
1310.723, 13972.00
1311.789, 13916.00
1312.855, 13887.00
1313.921, 13892.00
1314.986, 13905.69
1316.052, 13868.31
1317.117, 13952.00
1318.182, 13814.00
1319.248, 13747.00
1320.312, 13721.00
1321.377, 13814.00
1322.442, 13862.00
1323.506, 13737.00
1324.571, 13728.00
1325.635, 13654.00
1326.699, 13706.00
1327.762, 13526.00
1328.826, 13710.00
1329.890, 13750.00
1330.953, 13628.00
1332.016, 13585.00
1333.079, 13624.00
1334.142, 13525.00
1335.205, 13546.00
1336.268, 13678.00
1337.330, 13601.00
1338.392, 13636.00
1339.454, 13660.00
1340.516, 13724.00
1341.578, 13712.54
1342.640, 13570.00
1343.701, 13692.00
1344.763, 13565.00
1345.824, 13521.00
1346.885, 13497.00
1347.946, 13438.88
1349.007, 13380.00
1350.067, 13415.00
1351.128, 13458.00
1352.188, 13507.00
1353.248, 13465.00
1354.308, 13331.41
1355.368, 13527.88
1356.428, 13630.76
1357.487, 13645.07
1358.547, 13305.53
1359.606, 13422.92
1360.665, 13357.20
1361.724, 13283.98
1362.783, 13465.68
1363.841, 13177.64
1364.900, 13355.30
1365.958, 13347.07
1367.016, 13497.00
1368.074, 13423.00
1369.132, 13407.00
1370.190, 13430.00
1371.247, 13332.97
1372.304, 13322.06
1373.362, 13252.00
1374.419, 13262.00
1375.476, 13370.00
1376.532, 13424.00
1377.589, 13245.00
1378.645, 13317.00
1379.702, 13276.00
1380.758, 12971.48
1381.814, 13184.66
1382.870, 13304.23
1383.925, 13335.24
1384.981, 13012.40
1386.036, 13146.48
1387.092, 13097.45
1388.147, 13040.91
1389.202, 13239.30
1390.256, 13168.00
1391.311, 13190.00
1392.365, 13300.00
1393.420, 13008.00
1394.474, 13084.00
1395.528, 13009.00
1396.582, 13135.00
1397.636, 13077.00
1398.689, 13044.00
1399.742, 12935.00
1400.796, 12866.00
1401.849, 13128.00
1402.902, 12897.00
1403.955, 12996.00
1405.007, 13132.00
1406.060, 13108.00
1407.112, 13047.00
1408.164, 12904.00
1409.216, 12964.00
1410.268, 12976.00
1411.320, 12872.00
1412.371, 13038.00
1413.423, 12844.00
1414.474, 12760.00
1415.525, 13011.00
1416.576, 12847.00
1417.627, 12782.00
1418.678, 12826.00
1419.728, 12883.00
1420.778, 12751.00
1421.829, 12808.00
1422.879, 12851.00
1423.928, 12673.00
1424.978, 12803.00
1426.028, 12687.00
1427.077, 12662.00
1428.126, 12814.00
1429.176, 12716.00
1430.225, 12749.00
1431.273, 12805.00
1432.322, 12769.00
1433.371, 12613.00
1434.419, 12858.00
1435.467, 12691.00
1436.515, 12715.00
1437.563, 12735.00
1438.611, 12738.00
1439.658, 12853.00
1440.706, 12643.00
1441.753, 12707.00
1442.800, 12875.00
1443.847, 12746.00
1444.894, 12784.00
1445.941, 12699.00
1446.987, 12614.00
1448.034, 12698.00
1449.080, 12665.00
1450.126, 12689.00
1451.172, 12632.00
1452.218, 12631.00
1453.263, 12641.00
1454.309, 12655.00
1455.354, 12673.00
1456.399, 12590.00
1457.444, 12603.00
1458.489, 12629.00
1459.534, 12638.00
1460.579, 12511.00
1461.623, 12436.00
1462.667, 12636.00
1463.711, 12401.00
1464.755, 12432.00
1465.799, 12605.00
1466.843, 12422.00
1467.886, 12581.00
1468.930, 12530.00
1469.973, 12541.00
1471.016, 12567.00
1472.059, 12469.00
1473.101, 12467.00
1474.144, 12493.00
1475.186, 12476.00
1476.229, 12470.23
1477.271, 12431.00
1478.313, 12459.00
1479.355, 12414.00
1480.396, 12452.00
1481.438, 12436.00
1482.479, 12432.00
1483.520, 12589.00
1484.561, 12410.00
1485.602, 12472.00
1486.643, 12545.00
1487.684, 12342.00
1488.724, 12289.00
1489.765, 12399.00
1490.805, 12434.00
1491.845, 12350.00
1492.885, 12308.00
1493.924, 12324.78
1494.964, 12445.00
1496.003, 12315.00
1497.042, 12361.51
1498.082, 12315.96
1499.120, 12204.00
1500.159, 12421.00
1501.198, 12250.00
1502.236, 12479.00
1503.275, 12252.00
1504.313, 12398.00
1505.351, 12217.00
1506.389, 12453.00
1507.427, 12396.00
1508.464, 12517.00
1509.502, 12323.00
1510.539, 12216.00
1511.576, 12420.00
1512.613, 12284.00
1513.650, 12283.00
1514.687, 12244.00
1515.723, 12422.00
1516.759, 12439.00
1517.796, 12481.00
1518.832, 12513.07
1519.868, 12522.00
1520.903, 12492.00
1521.939, 12422.00
1522.975, 12406.00
1524.010, 12301.00
1525.045, 12348.00
1526.080, 12278.01
1527.115, 12377.00
1528.150, 12179.00
1529.184, 12432.00
1530.219, 12362.00
1531.253, 12335.35
1532.287, 12730.00
1533.321, 12312.00
1534.355, 12327.00
1535.388, 12403.00
1536.422, 12278.00
1537.455, 12178.26
1538.488, 12391.08
1539.522, 12510.29
1540.554, 12540.94
1541.587, 12217.74
1542.620, 12351.46
1543.652, 12302.06
1544.685, 12245.16
1545.717, 12443.19
1546.749, 12171.45
1547.781, 12365.44
1548.812, 12373.52
1549.844, 12466.68
1550.875, 12375.61
1551.906, 12341.43
1552.938, 12491.57
1553.968, 12539.65
1554.999, 12427.36
1556.030, 12525.93
1557.060, 12247.76
1558.091, 12410.00
1559.121, 12226.00
1560.151, 12393.00
1561.181, 12356.00
1562.211, 12253.00
1563.240, 12311.00
1564.270, 12369.00
1565.299, 12575.00
1566.328, 12297.00
1567.357, 12479.00
1568.386, 12355.00
1569.415, 12379.00
1570.443, 12427.00
1571.472, 12472.00
1572.500, 12466.28
1573.528, 12469.00
1574.556, 12450.00
1575.584, 12396.00
1576.611, 12373.00
1577.639, 12471.00
##END=



