##NAMES=Magnesioferrite
##RRUFFID=R060869
##IDEAL CHEMISTRY=MgFe^3+^_2_O_4_
##LOCALITY=Langban, Filipstad, Varmland, Sweden
##OWNER=RRUFF
##SOURCE=Michael Scott
##DESCRIPTION=Black semimetallic massive
##STATUS=The identification of this mineral is confirmed by single-crystal X-ray diffraction and chemical analysis.
##URL=rruff.info/R060869
##MEASURED CHEMISTRY=(Mg_0.67_Mn^2+^_0.30_Fe^2+^_0.03_)_Σ=1_(Fe^3+^_1.97_Al_0.03_)_Σ=2_O_4_
##PIN_ID=L00748
##ORIENTATION=Laser parallel to a* (1 0 0). Fiducial mark perpendicular to laser is parallel to b [0 1 0]
126.5580, 13281.00
127.7920, 13078.00
129.0260, 12962.00
130.2590, 12963.00
131.4920, 13002.00
132.7250, 13041.00
133.9580, 12962.00
135.1910, 13193.00
136.4230, 13298.00
137.6560, 13280.73
138.8880, 13291.60
140.1200, 13335.00
141.3520, 13094.00
142.5830, 13182.00
143.8150, 13053.00
145.0460, 13019.64
146.2770, 12993.88
147.5080, 13023.00
148.7390, 12888.00
149.9700, 12970.00
151.2000, 12914.00
152.4310, 12902.00
153.6610, 12936.32
154.8910, 12907.00
156.1210, 12800.87
157.3500, 12979.45
158.5800, 13075.86
159.8090, 13094.51
161.0380, 12802.51
162.2670, 12911.66
163.4960, 12860.04
164.7240, 12801.84
165.9530, 12967.45
167.1810, 12720.64
168.4090, 12882.70
169.6370, 12881.55
170.8650, 12717.00
172.0920, 12903.00
173.3200, 12711.00
174.5470, 12939.00
175.7740, 12959.23
177.0010, 13196.66
178.2280, 13346.43
179.4540, 13412.93
180.6810, 13163.33
181.9070, 13309.38
183.1330, 13289.19
184.3590, 13256.94
185.5850, 13443.03
186.8100, 13211.22
188.0350, 13382.82
189.2610, 13385.74
190.4860, 13457.90
191.7110, 13362.83
192.9350, 13312.29
194.1600, 13418.07
195.3840, 13428.83
196.6080, 13293.34
197.8320, 13347.00
199.0560, 13122.00
200.2800, 13249.00
201.5030, 13256.00
202.7270, 13142.00
203.9500, 12972.00
205.1730, 12874.00
206.3950, 12743.00
207.6180, 12774.00
208.8410, 12727.00
210.0630, 12614.00
211.2850, 12534.00
212.5070, 12618.00
213.7290, 12538.00
214.9500, 12459.00
216.1720, 12553.00
217.3930, 12492.00
218.6140, 12412.00
219.8350, 12394.00
221.0560, 12356.00
222.2770, 12353.00
223.4970, 12371.00
224.7170, 12385.00
225.9370, 12475.00
227.1570, 12377.00
228.3770, 12217.00
229.5970, 12074.00
230.8160, 12077.00
232.0350, 12147.00
233.2540, 12173.00
234.4730, 12158.00
235.6920, 12086.00
236.9110, 12142.00
238.1290, 12152.00
239.3470, 12039.00
240.5650, 12255.00
241.7830, 11964.00
243.0010, 12092.00
244.2180, 12061.00
245.4360, 12016.00
246.6530, 12051.00
247.8700, 12148.00
249.0870, 12241.00
250.3040, 12089.00
251.5200, 12092.00
252.7370, 12034.00
253.9530, 11965.00
255.1690, 12091.00
256.3850, 12152.00
257.6000, 12123.00
258.8160, 12073.00
260.0310, 12179.00
261.2460, 12158.00
262.4610, 12082.00
263.6760, 12217.00
264.8910, 12294.00
266.1050, 12164.00
267.3200, 12410.00
268.5340, 12049.46
269.7480, 12249.38
270.9620, 12367.12
272.1750, 12407.10
273.3890, 12136.43
274.6020, 12266.90
275.8150, 12342.00
277.0280, 12186.00
278.2410, 12258.00
279.4540, 12164.00
280.6660, 12297.00
281.8790, 12267.07
283.0910, 12354.00
284.3030, 12283.00
285.5140, 12400.00
286.7260, 12422.00
287.9380, 12370.00
289.1490, 12415.00
290.3600, 12403.19
291.5710, 12432.75
292.7820, 12380.00
293.9920, 12522.00
295.2030, 12453.00
296.4130, 12513.00
297.6230, 12452.00
298.8330, 12565.00
300.0430, 12556.00
301.2520, 12620.00
302.4620, 12696.00
303.6710, 12787.00
304.8800, 12922.00
306.0890, 12927.00
307.2980, 12842.00
308.5070, 13024.00
309.7150, 13039.00
310.9230, 12712.22
312.1310, 12970.48
313.3390, 13143.23
314.5470, 13234.90
315.7550, 13012.58
316.9620, 13188.04
318.1690, 13199.41
319.3760, 13200.87
320.5830, 13422.82
321.7900, 13229.02
322.9960, 13440.75
324.2030, 13485.97
325.4090, 13602.54
326.6150, 13554.04
327.8210, 13552.19
329.0270, 13708.82
330.2320, 13772.53
331.4380, 13692.15
332.6430, 13793.56
333.8480, 13560.90
335.0530, 13615.18
336.2580, 13791.37
337.4620, 13772.00
338.6670, 13917.00
339.8710, 13820.00
341.0750, 13992.00
342.2790, 13895.00
343.4820, 13982.00
344.6860, 13800.00
345.8890, 13891.00
347.0920, 13728.00
348.2960, 13905.00
349.4980, 13809.00
350.7010, 13571.00
351.9040, 13727.19
353.1060, 13876.00
354.3080, 13734.00
355.5100, 13718.00
356.7120, 13540.00
357.9140, 13644.00
359.1150, 13733.00
360.3170, 13809.00
361.5180, 13839.00
362.7190, 13611.00
363.9200, 13681.00
365.1200, 13715.00
366.3210, 13677.00
367.5210, 13773.00
368.7210, 13761.00
369.9210, 13631.00
371.1210, 13604.00
372.3210, 13613.00
373.5200, 13736.00
374.7200, 13684.00
375.9190, 13600.00
377.1180, 13704.00
378.3170, 13543.00
379.5150, 13601.00
380.7140, 13554.00
381.9120, 13731.00
383.1110, 13699.61
384.3090, 13776.00
385.5060, 13729.00
386.7040, 13659.00
387.9020, 13650.00
389.0990, 13702.00
390.2960, 13701.00
391.4930, 13684.00
392.6900, 13634.00
393.8860, 13576.00
395.0830, 13816.00
396.2790, 13635.00
397.4750, 13711.13
398.6710, 13788.00
399.8670, 13746.00
401.0630, 13654.00
402.2580, 13743.00
403.4540, 13697.00
404.6490, 13648.00
405.8440, 13802.00
407.0390, 13715.00
408.2330, 13798.00
409.4280, 13866.00
410.6220, 13883.00
411.8160, 13886.00
413.0100, 13834.00
414.2040, 13819.00
415.3980, 13791.00
416.5910, 14111.00
417.7850, 13865.77
418.9780, 14186.00
420.1710, 14094.00
421.3640, 13936.00
422.5560, 14087.64
423.7490, 14163.00
424.9410, 13996.00
426.1330, 14224.00
427.3250, 13911.00
428.5170, 14125.00
429.7090, 14122.00
430.9000, 14186.00
432.0910, 14460.00
433.2820, 14347.00
434.4730, 14321.00
435.6640, 14266.00
436.8550, 14436.00
438.0450, 14315.00
439.2360, 14364.00
440.4260, 14410.00
441.6160, 14343.00
442.8060, 14518.00
443.9950, 14569.00
445.1850, 14497.00
446.3740, 14521.00
447.5630, 14561.16
448.7520, 14772.00
449.9410, 14685.00
451.1300, 14737.00
452.3180, 14855.00
453.5060, 14785.00
454.6950, 14825.00
455.8830, 14882.00
457.0700, 14849.00
458.2580, 14755.00
459.4450, 15011.00
460.6330, 15067.00
461.8200, 15170.00
463.0070, 15032.00
464.1940, 15222.00
465.3800, 15111.00
466.5670, 15062.00
467.7530, 15330.00
468.9390, 15400.00
470.1250, 15349.00
471.3110, 15320.00
472.4970, 15416.00
473.6820, 15417.00
474.8680, 15635.00
476.0530, 15660.00
477.2380, 15765.00
478.4230, 15742.00
479.6070, 15663.00
480.7920, 15885.00
481.9760, 15873.00
483.1600, 15932.00
484.3440, 16039.00
485.5280, 16044.00
486.7120, 16053.00
487.8950, 16138.00
489.0780, 16250.00
490.2620, 16276.00
491.4450, 16434.00
492.6270, 16443.00
493.8100, 16415.00
494.9920, 16538.00
496.1750, 16596.00
497.3570, 16458.00
498.5390, 16464.00
499.7210, 16503.00
500.9020, 16488.00
502.0840, 16510.57
503.2650, 16515.11
504.4460, 16548.00
505.6270, 16506.00
506.8080, 16551.00
507.9890, 16371.16
509.1690, 16599.08
510.3500, 16744.85
511.5300, 16812.84
512.7100, 16570.16
513.8900, 16728.64
515.0690, 16726.32
516.2490, 16717.44
517.4280, 16932.34
518.6070, 16734.82
519.7860, 16946.17
520.9650, 16994.31
522.1440, 17154.00
523.3220, 17208.00
524.5010, 17314.00
525.6790, 17684.00
526.8570, 17475.00
528.0350, 17454.00
529.2130, 17225.00
530.3900, 17436.00
531.5670, 17591.00
532.7450, 17574.00
533.9220, 17475.00
535.0980, 17520.00
536.2750, 17465.00
537.4520, 17582.00
538.6280, 17831.00
539.8040, 17992.00
540.9800, 18128.00
542.1560, 18253.00
543.3320, 18154.00
544.5070, 18282.00
545.6830, 18289.00
546.8580, 18506.00
548.0330, 18559.33
549.2080, 18605.00
550.3830, 18752.00
551.5570, 18794.04
552.7310, 18884.76
553.9060, 19040.00
555.0800, 19200.00
556.2540, 19349.00
557.4270, 19392.84
558.6010, 19640.22
559.7740, 19680.00
560.9470, 20000.00
562.1210, 19996.47
563.2930, 20178.18
564.4660, 20142.00
565.6390, 20319.00
566.8110, 20607.00
567.9830, 20401.00
569.1550, 20816.00
570.3270, 21016.00
571.4990, 21207.00
572.6710, 21329.29
573.8420, 21473.34
575.0130, 21387.00
576.1840, 21697.00
577.3550, 21712.00
578.5260, 21825.00
579.6970, 22240.00
580.8670, 22286.00
582.0370, 22626.00
583.2070, 22696.00
584.3770, 22889.00
585.5470, 23235.00
586.7170, 23677.00
587.8860, 24186.00
589.0550, 24582.00
590.2240, 25356.00
591.3930, 25864.00
592.5620, 26463.00
593.7310, 27223.00
594.8990, 28282.00
596.0670, 29053.00
597.2350, 29955.00
598.4030, 30864.00
599.5710, 31914.00
600.7390, 32795.00
601.9060, 33705.00
603.0740, 34725.00
604.2410, 35977.00
605.4080, 37051.00
606.5740, 38227.00
607.7410, 39072.00
608.9080, 40165.00
610.0740, 41019.00
611.2400, 42084.00
612.4060, 42730.00
613.5720, 43554.00
614.7370, 44019.00
615.9030, 44444.96
617.0680, 45178.00
618.2330, 44919.00
619.3980, 45252.00
620.5630, 45213.00
621.7280, 44881.00
622.8920, 44453.00
624.0570, 44220.00
625.2210, 43895.00
626.3850, 43526.00
627.5490, 42153.00
628.7120, 41884.00
629.8760, 40809.00
631.0390, 40084.00
632.2020, 39509.00
633.3650, 38035.00
634.5280, 37337.00
635.6910, 36353.00
636.8530, 35289.05
638.0160, 34517.71
639.1780, 33455.00
640.3400, 32771.00
641.5020, 32050.00
642.6640, 31172.00
643.8250, 30636.00
644.9870, 29930.00
646.1480, 29187.00
647.3090, 28787.00
648.4700, 28203.00
649.6300, 27395.00
650.7910, 27189.00
651.9510, 27366.00
653.1120, 26456.00
654.2720, 26361.00
655.4320, 25972.00
656.5910, 25589.45
657.7510, 25784.00
658.9100, 25232.00
660.0690, 24555.00
661.2290, 24672.00
662.3880, 23633.00
663.5460, 23592.13
664.7050, 23396.00
665.8630, 23215.00
667.0220, 22991.00
668.1800, 22954.00
669.3380, 22694.00
670.4950, 22702.00
671.6530, 22446.00
672.8100, 22265.00
673.9680, 22129.00
675.1250, 22320.00
676.2820, 21975.95
677.4390, 21872.00
678.5950, 21516.00
679.7520, 21651.00
680.9080, 21471.00
682.0640, 21294.00
683.2200, 21307.00
684.3760, 21090.00
685.5320, 21079.00
686.6870, 20687.00
687.8420, 20717.00
688.9980, 20775.00
690.1530, 20544.00
691.3070, 20571.00
692.4620, 20444.00
693.6170, 20329.00
694.7710, 20086.00
695.9250, 20261.00
697.0790, 20207.00
698.2330, 19844.00
699.3870, 19889.00
700.5400, 19713.00
701.6940, 19705.00
702.8470, 19715.00
704.0000, 19544.58
705.1530, 19357.00
706.3050, 19256.00
707.4580, 19172.00
708.6100, 18963.00
709.7630, 18791.00
710.9150, 18573.00
712.0660, 18628.00
713.2180, 18447.00
714.3700, 18287.64
715.5210, 17976.00
716.6720, 17870.00
717.8240, 17666.00
718.9740, 17344.00
720.1250, 17409.00
721.2760, 17371.00
722.4260, 17017.00
723.5770, 16963.67
724.7270, 16725.00
725.8770, 16527.00
727.0260, 16355.00
728.1760, 16089.00
729.3250, 15960.00
730.4750, 15989.00
731.6240, 15768.00
732.7730, 15670.00
733.9220, 15630.00
735.0700, 15322.00
736.2190, 15259.00
737.3670, 15252.00
738.5150, 15113.00
739.6630, 15075.00
740.8110, 14981.10
741.9590, 15009.00
743.1060, 14734.00
744.2540, 14765.00
745.4010, 14529.00
746.5480, 14564.00
747.6950, 14455.00
748.8410, 14421.00
749.9880, 14269.00
751.1340, 14213.00
752.2800, 14328.00
753.4260, 14142.00
754.5720, 14202.00
755.7180, 14130.00
756.8640, 14083.00
758.0090, 14090.00
759.1540, 13937.00
760.2990, 14124.00
761.4440, 14058.00
762.5890, 13861.00
763.7340, 13753.00
764.8780, 13831.00
766.0220, 13718.00
767.1660, 13842.00
768.3100, 13565.00
769.4540, 13658.00
770.5980, 13800.00
771.7410, 13551.00
772.8840, 13509.00
774.0280, 13596.00
775.1700, 13461.00
776.3130, 13419.00
777.4560, 13609.00
778.5980, 13473.00
779.7410, 13534.00
780.8830, 13455.00
782.0250, 13339.00
783.1670, 13409.00
784.3080, 13391.00
785.4500, 13416.00
786.5910, 13435.41
787.7320, 13435.51
788.8730, 13373.00
790.0140, 13452.00
791.1550, 13247.00
792.2950, 13233.00
793.4360, 13288.00
794.5760, 13285.00
795.7160, 13340.00
796.8560, 13318.63
797.9960, 13324.00
799.1350, 13270.00
800.2750, 13050.22
801.4140, 13237.62
802.5530, 13342.83
803.6920, 13370.29
804.8310, 13087.09
805.9690, 13205.04
807.1080, 13162.23
808.2460, 13112.83
809.3840, 13287.24
810.5220, 13049.22
811.6600, 13220.08
812.7970, 13227.73
813.9350, 13310.08
815.0720, 13230.67
816.2090, 13351.00
817.3460, 13170.00
818.4830, 13014.00
819.6200, 13263.00
820.7560, 13150.00
821.8930, 13083.00
823.0290, 13090.00
824.1650, 13048.00
825.3010, 13024.00
826.4360, 13236.00
827.5720, 13109.96
828.7070, 13215.00
829.8420, 13054.00
830.9770, 13002.00
832.1120, 13049.00
833.2470, 12983.57
834.3820, 13047.25
835.5160, 12991.00
836.6500, 13108.00
837.7840, 13112.00
838.9180, 12822.23
840.0520, 13061.00
841.1860, 13197.69
842.3190, 13236.71
843.4520, 12945.19
844.5850, 13034.95
845.7180, 12944.06
846.8510, 12826.71
847.9840, 13118.00
849.1160, 13006.00
850.2490, 13113.00
851.3810, 13045.00
852.5130, 13118.00
853.6450, 13121.00
854.7760, 12919.17
855.9080, 13090.45
857.0390, 13179.58
858.1700, 13190.94
859.3010, 12891.65
860.4320, 12993.51
861.5630, 13010.00
862.6930, 12980.00
863.8240, 12987.00
864.9540, 12987.26
866.0840, 13183.00
867.2140, 13027.00
868.3440, 13105.00
869.4730, 13184.00
870.6030, 13058.00
871.7320, 13109.00
872.8610, 13014.00
873.9900, 13046.00
875.1190, 12895.00
876.2470, 13062.00
877.3760, 13198.00
878.5040, 13123.00
879.6320, 13039.00
880.7600, 13154.00
881.8880, 13077.00
883.0150, 13003.00
884.1430, 13013.00
885.2700, 13000.04
886.3970, 13049.00
887.5240, 13050.00
888.6510, 12971.00
889.7780, 12979.00
890.9040, 12977.00
892.0310, 13069.00
893.1570, 12971.17
894.2830, 13178.47
895.4090, 13303.59
896.5350, 13350.96
897.6600, 13087.65
898.7860, 13225.50
899.9110, 13202.58
901.0360, 13173.07
902.1610, 13367.37
903.2860, 13244.00
904.4100, 13148.00
905.5350, 13030.00
906.6590, 13165.00
907.7830, 12995.00
908.9070, 13098.00
910.0310, 13093.00
911.1540, 13125.00
912.2780, 13293.00
913.4010, 13195.00
914.5240, 13123.00
915.6470, 13260.00
916.7700, 13340.00
917.8930, 13333.00
919.0150, 13168.00
920.1380, 13216.00
921.2600, 13178.00
922.3820, 13187.67
923.5040, 13214.88
924.6260, 13286.00
925.7470, 13220.00
926.8690, 13282.00
927.9900, 13194.00
929.1110, 13337.00
930.2320, 13207.00
931.3530, 13146.00
932.4730, 13379.00
933.5940, 13343.00
934.7140, 13290.00
935.8340, 13325.00
936.9540, 13296.00
938.0740, 13387.00
939.1930, 13352.00
940.3130, 13453.00
941.4320, 13443.00
942.5510, 13424.00
943.6700, 13344.00
944.7890, 13391.00
945.9080, 13359.00
947.0260, 13307.97
948.1450, 13555.00
949.2630, 13232.00
950.3810, 13420.00
951.4990, 13455.00
952.6170, 13348.87
953.7340, 13533.00
954.8520, 13337.00
955.9690, 13360.00
957.0860, 13460.00
958.2030, 13401.80
959.3200, 13415.33
960.4360, 13407.00
961.5530, 13496.00
962.6690, 13373.00
963.7850, 13708.00
964.9010, 13467.00
966.0170, 13485.00
967.1330, 13304.00
968.2480, 13553.00
969.3630, 13515.00
970.4790, 13676.00
971.5940, 13593.00
972.7080, 13567.00
973.8230, 13557.00
974.9380, 13489.00
976.0520, 13538.00
977.1660, 13597.00
978.2800, 13694.00
979.3940, 13636.00
980.5080, 13714.00
981.6220, 13448.29
982.7350, 13635.04
983.8480, 13739.62
984.9610, 13766.44
986.0740, 13482.59
987.1870, 13599.90
988.3000, 13556.45
989.4120, 13726.00
990.5250, 13754.00
991.6370, 13723.87
992.7490, 13784.01
993.8610, 13690.00
994.9720, 13806.00
996.0840, 13737.00
997.1950, 13760.00
998.3060, 13767.00
999.4170, 13798.00
1000.528, 13749.00
1001.639, 13751.00
1002.750, 13875.00
1003.860, 13739.00
1004.970, 13859.00
1006.080, 13863.00
1007.190, 13749.00
1008.300, 13805.00
1009.410, 13800.00
1010.519, 13793.00
1011.628, 13676.00
1012.738, 13813.00
1013.846, 13702.00
1014.955, 13755.00
1016.064, 13795.00
1017.172, 13864.00
1018.281, 13761.00
1019.389, 13915.00
1020.497, 13808.01
1021.605, 13836.00
1022.713, 13754.00
1023.820, 13638.00
1024.928, 13790.00
1026.035, 13915.00
1027.142, 13750.00
1028.249, 14059.00
1029.356, 13942.00
1030.462, 13899.00
1031.569, 13861.00
1032.675, 13790.00
1033.781, 13816.38
1034.887, 14073.00
1035.993, 13905.00
1037.098, 13866.00
1038.204, 13992.00
1039.309, 13867.00
1040.415, 14071.00
1041.520, 13747.00
1042.624, 14041.00
1043.729, 14006.00
1044.834, 14010.00
1045.938, 13989.00
1047.042, 14071.00
1048.146, 14015.00
1049.250, 13959.00
1050.354, 14200.00
1051.458, 14072.00
1052.561, 13904.00
1053.664, 14051.00
1054.767, 13989.00
1055.870, 14113.00
1056.973, 14134.00
1058.076, 14118.00
1059.178, 14132.00
1060.281, 14184.00
1061.383, 14149.00
1062.485, 14098.00
1063.587, 13989.00
1064.688, 13997.00
1065.790, 14011.28
1066.891, 14058.29
1067.993, 14163.00
1069.094, 14121.00
1070.195, 14283.00
1071.295, 14055.00
1072.396, 14155.00
1073.496, 14044.00
1074.597, 13972.00
1075.697, 14226.00
1076.797, 14199.00
1077.897, 14107.00
1078.996, 14157.00
1080.096, 14135.00
1081.195, 14120.00
1082.294, 14099.00
1083.393, 14274.00
1084.492, 14117.00
1085.591, 14239.00
1086.689, 14232.00
1087.788, 14117.00
1088.886, 14136.00
1089.984, 14263.00
1091.082, 14254.00
1092.180, 14184.00
1093.277, 14224.00
1094.375, 14117.00
1095.472, 14166.00
1096.569, 14267.67
1097.666, 14279.67
1098.763, 14488.00
1099.860, 14269.00
1100.956, 14235.00
1102.053, 13859.77
1103.149, 14293.00
1104.245, 14127.00
1105.341, 14184.00
1106.436, 14239.00
1107.532, 14361.00
1108.627, 14315.13
1109.723, 14325.64
1110.818, 14283.00
1111.913, 14250.00
1113.007, 14313.00
1114.102, 14308.00
1115.197, 14238.00
1116.291, 14260.00
1117.385, 14270.00
1118.479, 14367.00
1119.573, 14184.00
1120.666, 14298.00
1121.760, 14492.00
1122.853, 14199.00
1123.947, 14223.00
1125.040, 14273.00
1126.132, 14428.00
1127.225, 14369.00
1128.318, 14258.00
1129.410, 14207.00
1130.502, 14320.00
1131.595, 14221.00
1132.687, 14336.00
1133.778, 14380.00
1134.870, 14335.00
1135.961, 14417.00
1137.053, 14371.00
1138.144, 14302.00
1139.235, 14326.00
1140.326, 14310.00
1141.416, 14300.14
1142.507, 14314.87
1143.597, 14308.00
1144.688, 14299.00
1145.778, 14310.00
1146.868, 14236.00
1147.957, 14284.00
1149.047, 14295.00
1150.136, 14309.00
1151.226, 14361.00
1152.315, 14397.69
1153.404, 14507.00
1154.493, 14471.00
1155.581, 14541.00
1156.670, 14502.00
1157.758, 14306.00
1158.846, 14381.00
1159.934, 14529.00
1161.022, 14300.00
1162.110, 14456.00
1163.198, 14470.00
1164.285, 14395.00
1165.372, 14531.00
1166.459, 14498.00
1167.546, 14621.00
1168.633, 14639.00
1169.720, 14500.00
1170.806, 14479.00
1171.892, 14594.00
1172.979, 14657.00
1174.065, 14646.00
1175.150, 14632.00
1176.236, 14541.00
1177.322, 14667.00
1178.407, 14730.00
1179.492, 14740.00
1180.577, 14877.00
1181.662, 14776.00
1182.747, 14757.00
1183.832, 14707.00
1184.916, 14785.00
1186.000, 14915.00
1187.084, 14990.00
1188.168, 14742.00
1189.252, 14895.00
1190.336, 14731.00
1191.419, 14921.00
1192.503, 14921.00
1193.586, 14989.00
1194.669, 14996.00
1195.752, 15090.00
1196.835, 15100.00
1197.917, 15139.00
1199.000, 15248.00
1200.082, 15091.00
1201.164, 15082.00
1202.246, 15230.00
1203.328, 15308.00
1204.409, 15274.00
1205.491, 15127.00
1206.572, 15458.00
1207.653, 15142.00
1208.734, 15168.00
1209.815, 15037.00
1210.896, 15403.00
1211.976, 15120.00
1213.057, 15194.00
1214.137, 15347.00
1215.217, 15300.00
1216.297, 15301.23
1217.377, 15272.71
1218.456, 15129.96
1219.536, 15317.53
1220.615, 15422.93
1221.694, 15450.57
1222.773, 15167.54
1223.852, 15285.67
1224.931, 15243.04
1226.009, 15193.82
1227.088, 15368.41
1228.166, 15130.57
1229.244, 15301.61
1230.322, 15309.43
1231.400, 15391.96
1232.477, 15312.73
1233.555, 15283.46
1234.632, 15416.00
1235.709, 15458.94
1236.786, 15361.09
1237.863, 15174.00
1238.939, 15186.00
1240.016, 15278.00
1241.092, 15357.00
1242.168, 15108.00
1243.245, 15266.00
1244.320, 15187.00
1245.396, 15212.00
1246.472, 15263.00
1247.547, 15248.00
1248.622, 15244.00
1249.697, 15243.00
1250.772, 15241.15
1251.847, 15229.37
1252.922, 15241.00
1253.996, 15198.00
1255.071, 15180.00
1256.145, 15150.00
1257.219, 15143.00
1258.293, 15107.00
1259.366, 15200.00
1260.440, 15154.00
1261.513, 15053.00
1262.587, 15144.00
1263.660, 15200.00
1264.733, 15033.00
1265.805, 15342.00
1266.878, 15177.66
1267.951, 14924.00
1269.023, 15086.00
1270.095, 14974.00
1271.167, 14994.00
1272.239, 14951.00
1273.311, 14917.00
1274.382, 14850.00
1275.454, 15017.00
1276.525, 15107.00
1277.596, 15027.00
1278.667, 14983.00
1279.738, 14922.00
1280.808, 14879.77
1281.879, 14877.00
1282.949, 14811.58
1284.019, 14806.09
1285.089, 14784.00
1286.159, 14811.00
1287.229, 14755.00
1288.298, 14771.00
1289.368, 14784.00
1290.437, 14740.00
1291.506, 14853.00
1292.575, 14749.00
1293.644, 14866.00
1294.712, 14661.00
1295.781, 14882.00
1296.849, 14654.00
1297.917, 14859.00
1298.985, 14874.00
1300.053, 14928.00
1301.121, 14883.00
1302.188, 14911.60
1303.255, 14836.00
1304.323, 14878.00
1305.390, 14895.00
1306.457, 14800.00
1307.523, 14801.00
1308.590, 14617.00
1309.656, 14895.00
1310.723, 14909.00
1311.789, 15171.00
1312.855, 14653.00
1313.921, 14663.00
1314.986, 14742.00
1316.052, 14800.00
1317.117, 14709.00
1318.182, 14667.00
1319.248, 14782.00
1320.312, 14758.00
1321.377, 14585.00
1322.442, 14776.00
1323.506, 14699.00
1324.571, 14647.00
1325.635, 14660.00
1326.699, 14482.00
1327.762, 14684.00
1328.826, 14631.00
1329.890, 14593.00
1330.953, 14887.00
1332.016, 14616.39
1333.079, 14598.00
1334.142, 14360.00
1335.205, 14517.00
1336.268, 14605.00
1337.330, 14557.00
1338.392, 14629.00
1339.454, 14622.69
1340.516, 14478.00
1341.578, 14624.00
1342.640, 14482.00
1343.701, 14482.00
1344.763, 14637.00
1345.824, 14651.00
1346.885, 14582.00
1347.946, 14606.00
1349.007, 14466.00
1350.067, 14444.00
1351.128, 14512.00
1352.188, 14584.00
1353.248, 14545.40
1354.308, 14384.00
1355.368, 14506.00
1356.428, 14460.00
1357.487, 14442.00
1358.547, 14481.00
1359.606, 14492.02
1360.665, 14491.89
1361.724, 14489.00
1362.783, 14513.00
1363.841, 14511.61
1364.900, 14333.00
1365.958, 14500.00
1367.016, 14345.00
1368.074, 14267.00
1369.132, 14470.00
1370.190, 14208.00
1371.247, 14167.00
1372.304, 14302.00
1373.362, 14429.00
1374.419, 14081.00
1375.476, 14332.00
1376.532, 14291.00
1377.589, 14168.00
1378.645, 14236.00
1379.702, 14187.00
1380.758, 14363.00
1381.814, 14245.00
1382.870, 14234.00
1383.925, 14148.00
1384.981, 14092.00
1386.036, 14130.04
1387.092, 14198.00
1388.147, 14135.00
1389.202, 14300.00
1390.256, 14153.00
1391.311, 14174.00
1392.365, 14016.00
1393.420, 14105.00
1394.474, 14016.00
1395.528, 14053.00
1396.582, 14039.00
1397.636, 14120.00
1398.689, 14100.00
1399.742, 14092.00
1400.796, 14133.47
1401.849, 14079.82
1402.902, 14073.82
1403.955, 14010.00
1405.007, 14026.00
1406.060, 14005.00
1407.112, 14011.00
1408.164, 14011.08
1409.216, 13922.00
1410.268, 13979.00
1411.320, 13914.00
1412.371, 13822.00
1413.423, 13895.00
1414.474, 13838.00
1415.525, 13784.00
1416.576, 13720.00
1417.627, 13938.00
1418.678, 13983.00
1419.728, 13958.00
1420.778, 13856.00
1421.829, 13844.00
1422.879, 13807.00
1423.928, 13777.00
1424.978, 14038.00
1426.028, 13748.00
1427.077, 13837.62
1428.126, 14127.00
1429.176, 13788.00
1430.225, 13716.00
1431.273, 13749.00
1432.322, 13753.00
1433.371, 13702.00
1434.419, 13745.00
1435.467, 13715.00
1436.515, 13679.00
1437.563, 13847.00
1438.611, 13724.00
1439.658, 13710.00
1440.706, 13831.00
1441.753, 13719.77
1442.800, 13879.00
1443.847, 13651.00
1444.894, 13758.00
1445.941, 13748.00
1446.987, 13648.00
1448.034, 13628.00
1449.080, 13587.00
1450.126, 13596.00
1451.172, 13577.97
1452.218, 13619.00
1453.263, 13583.00
1454.309, 13630.00
1455.354, 13663.00
1456.399, 13652.00
1457.444, 13746.00
1458.489, 13594.00
1459.534, 13424.00
1460.579, 13614.00
1461.623, 13581.00
1462.667, 13592.00
1463.711, 13572.00
1464.755, 13515.00
1465.799, 13512.00
1466.843, 13554.00
1467.886, 13437.00
1468.930, 13586.00
1469.973, 13396.00
1471.016, 13655.00
1472.059, 13571.00
1473.101, 13393.00
1474.144, 13494.00
1475.186, 13403.00
1476.229, 13590.00
1477.271, 13662.00
1478.313, 13705.00
1479.355, 13530.00
1480.396, 13371.00
1481.438, 13376.00
1482.479, 13528.00
1483.520, 13221.00
1484.561, 13618.00
1485.602, 13445.00
1486.643, 13479.00
1487.684, 13394.00
1488.724, 13386.00
1489.765, 13322.00
1490.805, 13368.00
1491.845, 13368.00
1492.885, 13373.00
1493.924, 13388.00
1494.964, 13404.67
1496.003, 13421.78
1497.042, 13421.00
1498.082, 13463.00
1499.120, 13407.00
1500.159, 13418.00
1501.198, 13337.00
1502.236, 13318.00
1503.275, 13502.00
1504.313, 13572.00
1505.351, 13464.00
1506.389, 13363.00
1507.427, 13522.00
1508.464, 13392.00
1509.502, 13396.00
1510.539, 13408.00
1511.576, 13356.00
1512.613, 13377.83
1513.650, 13346.02
1514.687, 13378.00
1515.723, 13325.00
1516.759, 13312.00
1517.796, 13246.20
1518.832, 13433.95
1519.868, 13539.52
1520.903, 13567.33
1521.939, 13284.49
1522.975, 13402.79
1524.010, 13360.33
1525.045, 13311.28
1526.080, 13486.04
1527.115, 13248.38
1528.150, 13302.00
1529.184, 13273.00
1530.219, 13442.00
1531.253, 13427.00
1532.287, 13503.00
1533.321, 13378.00
1534.355, 13321.00
1535.388, 13409.00
1536.422, 13381.00
1537.455, 13248.00
1538.488, 13427.00
1539.522, 13339.00
1540.554, 13463.00
1541.587, 13486.00
1542.620, 13295.00
1543.652, 13302.00
1544.685, 13138.00
1545.717, 13346.53
1546.749, 13528.30
1547.781, 13627.90
1548.812, 13649.75
1549.844, 13360.93
1550.875, 13473.27
1551.906, 13424.85
1552.938, 13369.83
1553.968, 13538.63
1554.999, 13295.01
1556.030, 13460.26
1557.060, 13462.30
1558.091, 13539.03
1559.121, 13336.00
1560.151, 13332.00
1561.181, 13390.00
1562.211, 13354.00
1563.240, 13367.86
1564.270, 13279.00
1565.299, 13372.00
1566.328, 13308.00
1567.357, 13339.00
1568.386, 13407.00
1569.415, 13321.00
1570.443, 13318.00
1571.472, 13361.00
1572.500, 13418.00
1573.528, 13327.00
1574.556, 13410.00
1575.584, 13289.00
1576.611, 13411.00
1577.639, 13406.00
##END=



