##NAMES=Magnesio-hastingsite
##RRUFFID=R040010
##IDEAL CHEMISTRY=NaCa_2_(Mg_4_Fe^3+^)Si_6_Al_2_O_22_(OH)_2_
##LOCALITY=Amity, New York, USA
##OWNER=RRUFF
##SOURCE=University of Arizona Mineral Museum
##DESCRIPTION=Group of black prismatic crystals
##STATUS=The identification of this mineral has been confirmed by X-ray diffraction and chemical analysis
##URL=rruff.info/R040010
##MEASURED CHEMISTRY=(Na_0.50_K_0.43_[box]_0.07_)_Σ=1_(Ca_1.77_Na_0.23_)_Σ=2_(Mg_1.74_Fe_1.22_Fe^3+^_0.79_Mn_0.57_Al_0.30_Zn_0.25_Ti_0.13_)_Σ=5_(Si_5.95_Al_2.05_)_Σ=8_O_22_((OH)_1.75_F_0.22_Cl_0.03_)_Σ=2_; OH estimated by charge balance
##PIN_ID=L00374
##ORIENTATION=Laser parallel to a [1 0 0]. Fiducial mark perpendicular to laser is parallel to -b* (0 -1 0)
164.6200, 36768.20
165.8510, 36958.00
167.0820, 36973.00
168.3130, 37033.00
169.5440, 36899.00
170.7750, 36961.42
172.0050, 37053.79
173.2350, 37045.00
174.4650, 37297.00
175.6950, 37513.00
176.9250, 37610.00
178.1550, 38119.00
179.3840, 38184.00
180.6130, 38534.00
181.8420, 38803.00
183.0710, 38712.00
184.3000, 39236.00
185.5280, 39223.00
186.7570, 39468.00
187.9850, 39489.00
189.2130, 39609.00
190.4400, 39484.00
191.6680, 39425.00
192.8960, 39434.00
194.1230, 39391.00
195.3500, 39569.00
196.5770, 39634.81
197.8030, 39811.54
199.0300, 39968.00
200.2560, 40181.00
201.4830, 40450.00
202.7090, 40537.00
203.9340, 39477.00
205.1600, 37598.00
206.3860, 36881.00
207.6110, 36524.00
208.8360, 36671.00
210.0610, 37090.00
211.2860, 37260.00
212.5100, 37723.00
213.7350, 38225.00
214.9590, 38248.00
216.1830, 38355.00
217.4070, 38771.00
218.6310, 39340.00
219.8540, 39366.00
221.0780, 39774.00
222.3010, 39923.00
223.5240, 40353.00
224.7470, 40653.00
225.9690, 40454.00
227.1920, 40577.00
228.4140, 40483.00
229.6360, 40560.00
230.8580, 40624.00
232.0800, 40083.00
233.3020, 40434.00
234.5230, 40088.00
235.7440, 40125.00
236.9650, 39936.00
238.1860, 39494.00
239.4070, 39405.00
240.6280, 39453.00
241.8480, 39172.00
243.0680, 38868.00
244.2880, 38937.00
245.5080, 38607.00
246.7280, 38643.00
247.9470, 38307.00
249.1660, 38272.80
250.3860, 38179.12
251.6040, 37957.90
252.8230, 38159.60
254.0420, 38276.24
255.2600, 38312.38
256.4790, 38026.98
257.6970, 38156.79
258.9150, 38120.20
260.1320, 38076.78
261.3500, 38265.03
262.5670, 38026.38
263.7840, 38210.95
265.0010, 38226.59
266.2180, 38319.54
267.4350, 38245.05
268.6510, 38222.28
269.8680, 38280.00
271.0840, 38335.00
272.3000, 38580.00
273.5160, 38486.00
274.7310, 38887.00
275.9470, 39255.00
277.1620, 39331.00
278.3770, 39826.00
279.5920, 39674.00
280.8070, 39590.00
282.0210, 39855.00
283.2360, 39644.00
284.4500, 40429.00
285.6640, 40398.00
286.8780, 40458.00
288.0920, 40513.00
289.3050, 40462.00
290.5180, 40798.00
291.7320, 41013.00
292.9450, 40844.00
294.1570, 41110.00
295.3700, 41051.00
296.5830, 41033.00
297.7950, 40634.00
299.0070, 40501.00
300.2190, 40514.00
301.4310, 40472.00
302.6420, 40685.00
303.8540, 40538.00
305.0650, 40130.00
306.2760, 40263.00
307.4870, 40015.00
308.6980, 40145.00
309.9080, 39910.00
311.1190, 40002.00
312.3290, 39776.00
313.5390, 40020.00
314.7490, 39853.00
315.9580, 39894.00
317.1680, 39792.00
318.3770, 39721.00
319.5860, 39612.00
320.7950, 39689.80
322.0040, 39904.00
323.2130, 39865.00
324.4210, 39842.00
325.6290, 39897.00
326.8380, 39703.00
328.0460, 39856.00
329.2530, 40052.00
330.4610, 40218.00
331.6680, 40086.00
332.8760, 40005.00
334.0830, 40004.00
335.2890, 40168.00
336.4960, 40011.00
337.7030, 40399.00
338.9090, 40261.00
340.1150, 40402.00
341.3210, 40300.00
342.5270, 40338.00
343.7330, 40396.00
344.9380, 40473.00
346.1440, 40263.00
347.3490, 40741.00
348.5540, 40469.00
349.7590, 40870.00
350.9630, 40930.00
352.1680, 40904.00
353.3720, 41149.00
354.5760, 40952.00
355.7800, 41101.00
356.9840, 41162.00
358.1870, 41501.00
359.3910, 41163.00
360.5940, 41218.00
361.7970, 41432.00
363.0000, 41296.00
364.2030, 41473.00
365.4050, 41293.00
366.6080, 41190.00
367.8100, 41288.00
369.0120, 41263.00
370.2140, 41252.77
371.4150, 41352.29
372.6170, 41307.00
373.8180, 41404.00
375.0190, 41566.00
376.2200, 41368.00
377.4210, 41246.00
378.6220, 41285.00
379.8220, 41394.00
381.0230, 41239.00
382.2230, 41199.43
383.4230, 41209.00
384.6220, 40967.00
385.8220, 40912.00
387.0220, 40873.00
388.2210, 40716.00
389.4200, 40958.00
390.6190, 40707.00
391.8180, 40496.00
393.0160, 40798.00
394.2150, 40388.00
395.4130, 40455.00
396.6110, 40628.00
397.8090, 40223.00
399.0060, 40300.00
400.2040, 40360.00
401.4010, 40159.00
402.5980, 40336.00
403.7950, 40176.00
404.9920, 40236.00
406.1890, 39924.00
407.3860, 40077.00
408.5820, 39898.00
409.7780, 40195.00
410.9740, 40380.00
412.1700, 40403.00
413.3650, 40439.00
414.5610, 40512.00
415.7560, 40570.00
416.9510, 40820.00
418.1460, 40837.00
419.3410, 40780.00
420.5360, 41208.00
421.7300, 40941.00
422.9240, 41456.00
424.1180, 41550.00
425.3120, 41658.00
426.5060, 41943.00
427.7000, 41938.00
428.8930, 42220.00
430.0860, 42106.00
431.2790, 41908.00
432.4720, 42324.00
433.6650, 42198.00
434.8580, 41775.00
436.0500, 41711.00
437.2420, 41592.00
438.4340, 41585.00
439.6260, 41501.00
440.8180, 41319.00
442.0090, 41163.00
443.2010, 41024.00
444.3920, 40900.00
445.5830, 40802.00
446.7740, 40714.00
447.9640, 40552.00
449.1550, 40652.00
450.3450, 40434.00
451.5350, 40310.00
452.7250, 39979.00
453.9150, 40069.00
455.1050, 40245.00
456.2940, 39941.00
457.4830, 39900.00
458.6720, 39874.00
459.8610, 39794.00
461.0500, 39814.00
462.2390, 39758.00
463.4270, 39732.68
464.6150, 39682.00
465.8040, 39645.15
466.9910, 39593.87
468.1790, 39568.00
469.3670, 39547.00
470.5540, 39505.00
471.7410, 39585.00
472.9280, 39432.00
474.1150, 39473.00
475.3020, 39504.00
476.4890, 39691.00
477.6750, 39904.00
478.8610, 39932.21
480.0470, 39936.00
481.2330, 40049.00
482.4190, 40086.00
483.6040, 40093.00
484.7900, 40521.00
485.9750, 40784.00
487.1600, 40889.00
488.3450, 41081.00
489.5290, 41388.00
490.7140, 41305.00
491.8980, 42086.00
493.0820, 42412.00
494.2660, 42582.00
495.4500, 42801.00
496.6340, 43153.00
497.8170, 43303.00
499.0010, 43744.00
500.1840, 43887.00
501.3670, 44205.00
502.5500, 44799.00
503.7320, 44747.00
504.9150, 45089.00
506.0970, 45532.00
507.2790, 45583.74
508.4610, 45877.22
509.6430, 46052.00
510.8250, 46153.00
512.0060, 46596.00
513.1870, 46648.00
514.3680, 47028.00
515.5490, 47149.00
516.7300, 47245.00
517.9110, 47783.00
519.0910, 48144.00
520.2710, 48535.00
521.4510, 48587.00
522.6310, 48978.00
523.8110, 49501.00
524.9910, 49359.00
526.1700, 49649.00
527.3490, 50478.00
528.5280, 50743.00
529.7070, 50802.00
530.8860, 51260.00
532.0650, 51012.00
533.2430, 51426.00
534.4210, 51408.00
535.5990, 51080.00
536.7770, 50990.00
537.9550, 50876.00
539.1320, 50759.00
540.3100, 50541.00
541.4870, 50252.00
542.6640, 49913.00
543.8410, 49746.00
545.0170, 49385.00
546.1940, 49183.00
547.3700, 48902.19
548.5470, 48657.00
549.7230, 48298.00
550.8980, 48162.00
552.0740, 47762.00
553.2500, 47648.00
554.4250, 47396.00
555.6000, 47149.00
556.7750, 46994.74
557.9500, 46659.00
559.1250, 46564.00
560.2990, 46509.00
561.4730, 46179.00
562.6480, 45783.00
563.8220, 45869.00
564.9950, 45803.00
566.1690, 45040.00
567.3430, 45186.00
568.5160, 45085.00
569.6890, 44436.00
570.8620, 44292.00
572.0350, 43953.00
573.2070, 43999.00
574.3800, 43469.00
575.5520, 43144.00
576.7240, 42768.00
577.8960, 42527.00
579.0680, 42199.06
580.2400, 41935.00
581.4110, 41676.00
582.5830, 41356.00
583.7540, 41209.00
584.9250, 41142.00
586.0950, 40566.00
587.2660, 40654.00
588.4370, 40470.00
589.6070, 40129.00
590.7770, 40019.00
591.9470, 39727.00
593.1170, 39646.39
594.2860, 39840.00
595.4560, 39565.00
596.6250, 39594.00
597.7940, 39675.00
598.9630, 39425.00
600.1320, 39464.00
601.3000, 39571.00
602.4690, 39363.00
603.6370, 39536.00
604.8050, 39495.00
605.9730, 39542.00
607.1410, 39322.00
608.3090, 39766.00
609.4760, 39522.00
610.6430, 39784.00
611.8100, 39630.00
612.9770, 39687.00
614.1440, 39700.00
615.3110, 39806.00
616.4770, 39851.00
617.6430, 40159.00
618.8090, 40290.00
619.9750, 40288.00
621.1410, 40178.00
622.3070, 40050.00
623.4720, 40594.00
624.6370, 40381.00
625.8020, 41043.00
626.9670, 40949.00
628.1320, 40801.00
629.2970, 41274.00
630.4610, 41444.00
631.6250, 41731.00
632.7890, 41866.00
633.9530, 42126.00
635.1170, 42459.00
636.2810, 42549.00
637.4440, 42710.00
638.6070, 43180.00
639.7700, 43189.00
640.9330, 43379.00
642.0960, 43650.00
643.2590, 43954.00
644.4210, 44166.00
645.5830, 44343.00
646.7450, 44487.00
647.9070, 44677.18
649.0690, 44856.00
650.2310, 45005.00
651.3920, 45203.00
652.5530, 45352.00
653.7140, 45687.00
654.8750, 46006.00
656.0360, 46131.00
657.1970, 46227.00
658.3570, 46839.00
659.5170, 46755.00
660.6770, 47103.00
661.8370, 47024.00
662.9970, 47152.00
664.1570, 47219.00
665.3160, 46990.00
666.4750, 46522.00
667.6340, 46593.00
668.7930, 46288.00
669.9520, 46281.00
671.1110, 45879.00
672.2690, 45705.00
673.4270, 45602.00
674.5850, 45566.91
675.7430, 45507.82
676.9010, 45505.42
678.0590, 45519.00
679.2160, 45577.00
680.3730, 45632.00
681.5300, 45758.00
682.6870, 45681.00
683.8440, 45541.00
685.0010, 45327.00
686.1570, 45283.87
687.3130, 45070.50
688.4690, 45028.00
689.6250, 44706.00
690.7810, 44349.00
691.9370, 44119.00
693.0920, 43938.00
694.2470, 43698.04
695.4020, 43621.20
696.5570, 43412.00
697.7120, 43427.00
698.8670, 43462.00
700.0210, 43254.00
701.1750, 43259.00
702.3290, 43574.00
703.4830, 43484.00
704.6370, 43617.00
705.7910, 43688.00
706.9440, 44085.00
708.0970, 44341.00
709.2510, 44679.00
710.4030, 44730.00
711.5560, 45248.00
712.7090, 45191.00
713.8610, 45993.47
715.0140, 45880.00
716.1660, 46255.91
717.3180, 46465.00
718.4690, 46809.00
719.6210, 46857.00
720.7730, 47145.00
721.9240, 47039.00
723.0750, 47704.00
724.2260, 47635.00
725.3770, 48207.00
726.5270, 48024.00
727.6780, 48439.00
728.8280, 48712.00
729.9780, 48674.00
731.1280, 48527.00
732.2780, 48688.00
733.4280, 48870.00
734.5770, 48759.00
735.7260, 48862.00
736.8760, 49020.00
738.0250, 48879.00
739.1730, 48455.00
740.3220, 48926.00
741.4700, 49178.00
742.6190, 49219.00
743.7670, 48700.00
744.9150, 48144.00
746.0630, 48279.00
747.2100, 48106.00
748.3580, 47761.00
749.5050, 47162.00
750.6520, 46890.00
751.7990, 46893.00
752.9460, 46843.00
754.0930, 46364.00
755.2390, 46276.00
756.3860, 46138.00
757.5320, 46030.00
758.6780, 45887.00
759.8240, 45699.00
760.9690, 45716.00
762.1150, 45449.00
763.2600, 45618.00
764.4060, 45985.00
765.5510, 45766.00
766.6950, 45689.00
767.8400, 46045.00
768.9850, 45965.00
770.1290, 45944.00
771.2730, 46360.00
772.4170, 46104.00
773.5610, 46341.00
774.7050, 46213.00
775.8480, 46273.00
776.9920, 46384.00
778.1350, 46684.00
779.2780, 46541.00
780.4210, 46434.00
781.5640, 46509.00
782.7060, 46346.00
783.8490, 46058.00
784.9910, 45873.00
786.1330, 46231.00
787.2750, 45603.00
788.4170, 45743.00
789.5580, 45905.00
790.7000, 45504.00
791.8410, 45362.00
792.9820, 45041.00
794.1230, 45043.00
795.2640, 45332.00
796.4040, 44833.00
797.5450, 44735.00
798.6850, 44863.00
799.8250, 44585.54
800.9650, 44370.00
802.1050, 44396.00
803.2450, 44263.00
804.3840, 44113.00
805.5230, 44041.00
806.6630, 44030.00
807.8020, 43867.00
808.9400, 43869.00
810.0790, 43761.00
811.2170, 43725.32
812.3560, 43785.00
813.4940, 43631.00
814.6320, 43560.00
815.7700, 43419.00
816.9070, 43120.00
818.0450, 43255.00
819.1820, 43007.00
820.3190, 43368.00
821.4560, 43171.00
822.5930, 43172.00
823.7300, 42861.00
824.8670, 42714.00
826.0030, 42675.00
827.1390, 42711.00
828.2750, 42475.00
829.4110, 42468.00
830.5470, 42347.00
831.6820, 42192.00
832.8180, 42346.00
833.9530, 42306.00
835.0880, 42058.00
836.2230, 42174.00
837.3580, 42189.00
838.4920, 42199.00
839.6270, 42006.00
840.7610, 42281.00
841.8950, 42109.00
843.0290, 42133.00
844.1630, 42477.00
845.2960, 42293.00
846.4300, 42562.00
847.5630, 42158.00
848.6960, 42400.00
849.8290, 42442.00
850.9620, 42224.00
852.0940, 42488.00
853.2270, 42433.00
854.3590, 42560.00
855.4910, 42721.00
856.6230, 42563.00
857.7550, 42697.00
858.8870, 42767.00
860.0180, 42672.00
861.1500, 42754.00
862.2810, 42771.47
863.4120, 42957.00
864.5430, 42912.00
865.6730, 43116.00
866.8040, 43320.00
867.9340, 43284.00
869.0640, 43294.00
870.1940, 43213.00
871.3240, 43424.00
872.4540, 43288.00
873.5830, 43213.00
874.7130, 43730.00
875.8420, 43261.00
876.9710, 43811.00
878.1000, 43513.00
879.2290, 43813.00
880.3570, 43916.00
881.4860, 44294.00
882.6140, 44200.00
883.7420, 43979.00
884.8700, 44439.00
885.9980, 44132.00
887.1250, 44242.00
888.2530, 44374.00
889.3800, 44514.00
890.5070, 44417.00
891.6340, 44494.00
892.7610, 44501.00
893.8880, 44787.00
895.0140, 44525.00
896.1400, 44988.00
897.2670, 44692.00
898.3930, 44582.00
899.5180, 44930.14
900.6440, 44858.49
901.7700, 45388.00
902.8950, 45185.00
904.0200, 45305.00
905.1450, 45458.00
906.2700, 45492.00
907.3950, 45589.00
908.5190, 45631.00
909.6440, 46013.00
910.7680, 45957.00
911.8920, 46087.16
913.0160, 46196.00
914.1400, 46184.00
915.2630, 46559.00
916.3870, 46630.00
917.5100, 46494.00
918.6330, 47060.00
919.7560, 46653.00
920.8790, 46582.00
922.0010, 46558.00
923.1240, 47177.00
924.2460, 47033.00
925.3680, 46931.00
926.4900, 46675.00
927.6120, 46725.00
928.7340, 47238.00
929.8550, 46993.00
930.9760, 47238.00
932.0980, 47077.00
933.2190, 47196.00
934.3390, 47147.00
935.4600, 47256.00
936.5810, 47547.00
937.7010, 47295.00
938.8210, 47704.00
939.9410, 47584.00
941.0610, 47397.00
942.1810, 47671.00
943.3010, 47631.00
944.4200, 48012.00
945.5390, 47997.00
946.6580, 47775.00
947.7770, 47832.00
948.8960, 47799.00
950.0150, 47909.00
951.1330, 47796.00
952.2510, 47995.00
953.3690, 48091.00
954.4870, 47992.00
955.6050, 48166.00
956.7230, 47952.00
957.8400, 48094.00
958.9580, 48195.00
960.0750, 48332.00
961.1920, 48363.00
962.3090, 48773.00
963.4250, 48352.00
964.5420, 48669.00
965.6580, 48333.00
966.7740, 48246.00
967.8900, 48241.00
969.0060, 48122.00
970.1220, 48466.00
971.2380, 48171.00
972.3530, 48529.00
973.4680, 48591.00
974.5830, 48285.00
975.6980, 48489.00
976.8130, 48356.00
977.9280, 48466.00
979.0420, 48595.00
980.1560, 49037.00
981.2710, 49130.00
982.3850, 49089.00
983.4980, 49247.00
984.6120, 49065.00
985.7260, 49228.00
986.8390, 49228.00
987.9520, 49309.00
989.0650, 49426.00
990.1780, 49411.00
991.2910, 49470.00
992.4030, 49601.00
993.5160, 49642.22
994.6280, 49991.00
995.7400, 49829.00
996.8520, 50017.12
997.9640, 50132.00
999.0750, 50011.00
1000.187, 50525.00
1001.298, 50315.00
1002.409, 50512.00
1003.520, 50508.00
1004.631, 50666.00
1005.741, 50486.00
1006.852, 50803.00
1007.962, 50848.00
1009.072, 50673.00
1010.182, 50761.00
1011.292, 51183.00
1012.402, 50955.00
1013.511, 51188.00
1014.621, 51007.00
1015.730, 50695.00
1016.839, 50940.00
1017.948, 50462.00
1019.056, 50734.00
1020.165, 50603.00
1021.273, 50428.00
1022.382, 50362.00
1023.490, 50479.00
1024.598, 50312.02
1025.706, 50557.00
1026.813, 50192.00
1027.921, 50210.00
1029.028, 50225.00
1030.135, 50068.00
1031.242, 50135.00
1032.349, 50069.00
1033.456, 49968.00
1034.562, 49757.00
1035.668, 49724.00
1036.775, 49652.00
1037.881, 49757.00
1038.987, 49561.00
1040.092, 49703.00
1041.198, 49490.00
1042.303, 49510.00
1043.408, 49514.00
1044.514, 48989.00
1045.618, 49125.00
1046.723, 49135.00
1047.828, 49079.00
1048.932, 49135.00
1050.037, 49247.00
1051.141, 49078.00
1052.245, 48921.00
1053.349, 49113.00
1054.452, 48995.00
1055.556, 48897.00
1056.659, 48955.00
1057.762, 48909.16
1058.865, 48647.00
1059.968, 48890.00
1061.071, 49016.00
1062.174, 48866.01
1063.276, 48747.00
1064.378, 48506.00
1065.480, 48444.00
1066.582, 48354.00
1067.684, 48566.00
1068.786, 48314.00
1069.887, 48234.00
1070.988, 48002.00
1072.090, 48353.00
1073.191, 48304.00
1074.291, 48232.00
1075.392, 48168.00
1076.493, 48095.00
1077.593, 48020.00
1078.693, 47917.00
1079.793, 48076.00
1080.893, 48105.00
1081.993, 48064.00
1083.092, 48017.00
1084.192, 47899.00
1085.291, 47738.00
1086.390, 47624.00
1087.489, 47749.00
1088.588, 47511.00
1089.686, 47692.00
1090.785, 47494.00
1091.883, 47733.00
1092.981, 47380.00
1094.079, 47378.00
1095.177, 47446.00
1096.275, 46957.00
1097.373, 47033.00
1098.470, 47090.00
1099.567, 46823.00
1100.664, 46649.00
1101.761, 46466.00
1102.858, 46685.00
1103.954, 46376.00
1105.051, 46476.00
1106.147, 46339.00
1107.243, 46573.00
1108.339, 46412.00
1109.435, 46050.02
1110.531, 46203.57
1111.626, 46272.08
1112.722, 46260.07
1113.817, 45926.55
1114.912, 46008.25
1116.007, 45923.55
1117.101, 45832.06
1118.196, 45972.19
1119.290, 45685.48
1120.385, 45821.94
1121.479, 45789.50
1122.573, 45834.39
1123.666, 45711.88
1124.760, 45641.04
1125.853, 45737.73
1126.947, 45741.64
1128.040, 45599.86
1129.133, 45649.69
1130.226, 45357.17
1131.318, 45365.11
1132.411, 45502.63
1133.503, 45369.30
1134.596, 45422.20
1135.688, 45417.00
1136.780, 45247.00
1137.871, 45487.00
1138.963, 45158.00
1140.054, 44961.00
1141.146, 45584.00
1142.237, 45531.00
1143.328, 45205.00
1144.419, 45380.00
1145.509, 45114.00
1146.600, 45282.00
1147.690, 45230.00
1148.780, 45279.00
1149.870, 45338.00
1150.960, 44848.00
1152.050, 45281.00
1153.139, 44951.00
1154.229, 45141.00
1155.318, 45126.00
1156.407, 45011.76
1157.496, 45274.00
1158.585, 44997.00
1159.674, 44821.71
1160.762, 45024.45
1161.850, 45142.14
1162.939, 45179.34
1164.027, 44894.98
1165.114, 45025.84
1166.202, 44990.30
1167.290, 44947.95
1168.377, 45137.24
1169.464, 44899.64
1170.551, 45085.27
1171.638, 45101.95
1172.725, 45195.95
1173.812, 45122.52
1174.898, 45100.80
1175.984, 45246.56
1177.071, 45299.59
1178.157, 45206.88
1179.242, 45305.78
1180.328, 45062.32
1181.414, 45175.79
1182.499, 45489.00
1183.584, 45225.00
1184.669, 45325.00
1185.754, 45337.00
1186.839, 45132.00
1187.924, 45480.00
1189.008, 45476.00
1190.092, 45379.00
1191.177, 45132.00
1192.260, 45425.00
1193.344, 44905.00
1194.428, 45561.00
1195.512, 45476.00
1196.595, 45337.00
1197.678, 45429.00
1198.761, 45382.00
1199.844, 45652.00
1200.927, 45601.00
1202.009, 45603.00
1203.092, 45384.00
1204.174, 45568.00
1205.256, 45453.82
1206.338, 45943.00
1207.420, 45582.00
1208.502, 45504.00
1209.583, 45947.00
1210.665, 45562.00
1211.746, 45779.00
1212.827, 45791.00
1213.908, 45697.00
1214.988, 45781.00
1216.069, 45641.00
1217.149, 45678.71
1218.230, 45770.00
1219.310, 45679.00
1220.390, 45807.32
1221.470, 45779.47
1222.549, 45895.00
1223.629, 45868.00
1224.708, 45733.00
1225.787, 45953.00
1226.866, 46000.00
1227.945, 46051.00
1229.024, 45723.25
1230.103, 45932.12
1231.181, 46055.92
1232.259, 46099.24
1233.337, 45821.00
1234.415, 45957.98
1235.493, 45928.56
1236.571, 45892.31
1237.648, 46087.72
1238.726, 45856.25
1239.803, 46047.98
1240.880, 46070.78
1241.957, 46170.89
1243.034, 46103.57
1244.110, 46087.96
1245.187, 46239.84
1246.263, 46298.97
1247.339, 46212.36
1248.415, 46317.38
1249.491, 46080.03
1250.566, 46143.10
1251.642, 46335.80
1252.717, 46257.60
1253.793, 46365.68
1254.868, 46402.80
1255.943, 46117.54
1257.017, 46392.93
1258.092, 46425.86
1259.166, 46209.81
1260.241, 46466.00
1261.315, 46284.28
1262.389, 46258.86
1263.462, 46351.06
1264.536, 46320.64
1265.610, 46643.00
1266.683, 46595.00
1267.756, 46239.00
1268.829, 46298.00
1269.902, 46393.00
1270.975, 46597.00
1272.048, 46728.00
1273.120, 46560.00
1274.192, 46726.00
1275.264, 46599.00
1276.336, 46433.00
1277.408, 46585.00
1278.480, 46551.00
1279.551, 46528.00
1280.623, 46796.00
1281.694, 46754.00
1282.765, 46715.00
1283.836, 46534.00
1284.907, 46779.00
1285.977, 46596.00
1287.048, 46998.00
1288.118, 46860.13
1289.188, 46963.00
1290.258, 46681.00
1291.328, 46947.00
1292.398, 46751.00
1293.467, 46768.00
1294.537, 46662.00
1295.606, 46778.00
1296.675, 46610.00
1297.744, 46639.00
1298.813, 46914.00
1299.882, 47165.00
1300.950, 46555.00
1302.018, 47044.00
1303.086, 46618.00
1304.155, 47039.00
1305.222, 47169.00
1306.290, 47096.00
1307.358, 46963.00
1308.425, 46962.00
1309.492, 47117.00
1310.559, 47025.00
1311.626, 46995.00
1312.693, 47171.00
1313.760, 47152.00
1314.826, 47227.00
1315.893, 47277.00
1316.959, 47324.00
1318.025, 47311.00
1319.091, 47324.00
1320.157, 47542.00
1321.222, 47520.00
1322.288, 47191.00
1323.353, 47424.00
1324.418, 47229.00
1325.483, 47453.00
1326.548, 47293.00
1327.612, 47442.00
1328.677, 47648.00
1329.741, 47479.00
1330.806, 47538.00
1331.870, 47470.00
1332.934, 47528.00
1333.997, 47481.00
1335.061, 47297.00
1336.124, 47618.00
1337.188, 47375.00
1338.251, 47564.00
1339.314, 47308.00
1340.377, 47409.00
1341.439, 47786.00
1342.502, 47561.00
1343.564, 47355.00
1344.627, 47164.00
1345.689, 47658.00
1346.751, 47513.00
1347.813, 47471.00
1348.874, 47773.00
1349.936, 47540.00
1350.997, 47573.00
1352.058, 47586.00
1353.119, 47755.00
1354.180, 47898.00
1355.241, 47723.00
1356.301, 47483.00
1357.362, 47848.00
1358.422, 47799.00
1359.482, 47706.00
1360.542, 48043.00
1361.602, 47918.00
1362.662, 47706.00
1363.721, 47904.00
1364.781, 47546.00
1365.840, 48020.00
1366.899, 47739.00
1367.958, 47908.00
1369.017, 48007.00
1370.075, 47852.00
1371.134, 47949.00
1372.192, 47826.00
1373.250, 47880.00
1374.308, 48077.00
1375.366, 48006.00
1376.424, 47956.00
1377.481, 47942.00
1378.539, 47961.00
1379.596, 47960.00
1380.653, 47959.00
1381.710, 48128.00
1382.767, 48191.00
1383.824, 48329.00
1384.880, 48040.00
1385.937, 47997.00
1386.993, 48046.00
1388.049, 48108.00
1389.105, 48284.00
1390.161, 48066.00
1391.216, 48186.00
1392.272, 48654.00
1393.327, 48149.00
1394.382, 48607.00
1395.437, 48210.00
1396.492, 48403.00
1397.547, 48483.00
1398.601, 48179.00
1399.656, 48541.00
1400.710, 48369.00
1401.764, 48335.00
1402.818, 48372.00
1403.872, 48070.00
1404.925, 48550.00
1405.979, 48325.00
1407.032, 48547.00
1408.085, 48343.00
1409.139, 48300.00
1410.191, 48439.00
1411.244, 48514.00
1412.297, 48651.00
1413.349, 48409.00
1414.402, 48710.00
1415.454, 48557.00
1416.506, 48603.00
1417.558, 48766.00
1418.609, 48482.00
1419.661, 48777.00
1420.712, 48459.00
1421.764, 48959.00
1422.815, 49019.00
1423.866, 48881.00
1424.916, 49225.00
1425.967, 48919.00
1427.018, 48942.29
1428.068, 48746.00
1429.118, 48859.00
1430.168, 48856.00
1431.218, 49060.00
1432.268, 49085.00
1433.318, 48945.00
1434.367, 49098.00
1435.416, 49155.00
1436.465, 49257.00
1437.514, 49228.00
1438.563, 49346.00
1439.612, 49248.00
1440.661, 49200.00
1441.709, 49064.00
1442.757, 49077.00
1443.805, 49031.38
1444.853, 49164.00
1445.901, 49017.00
1446.949, 49295.00
1447.996, 49317.00
1449.044, 49239.00
1450.091, 49233.00
1451.138, 49328.00
1452.185, 49578.00
1453.232, 49473.00
1454.278, 49653.00
1455.325, 49392.00
1456.371, 49630.00
1457.417, 49506.00
1458.463, 49547.00
1459.509, 49707.00
1460.555, 49398.00
1461.601, 49515.00
1462.646, 49741.00
1463.691, 49770.00
1464.737, 49759.00
1465.782, 49639.00
1466.826, 49692.00
1467.871, 49623.00
1468.916, 49838.00
1469.960, 49777.00
1471.004, 49879.00
1472.048, 49690.00
1473.092, 49745.54
1474.136, 49874.10
1475.180, 49796.00
1476.223, 50077.00
1477.267, 50250.00
1478.310, 50092.00
1479.353, 49852.00
1480.396, 50011.00
1481.439, 49827.00
1482.481, 50135.00
1483.524, 49940.00
1484.566, 50155.00
1485.608, 50155.00
1486.650, 49747.00
1487.692, 50006.00
1488.734, 50289.00
1489.775, 49960.00
1490.817, 50078.00
1491.858, 50153.00
1492.899, 50203.00
1493.940, 50180.00
1494.981, 50333.00
1496.022, 50209.00
1497.062, 50303.00
1498.103, 50271.00
1499.143, 50171.00
1500.183, 50322.00
1501.223, 50383.00
1502.263, 50490.00
1503.302, 50494.00
1504.342, 50208.00
1505.381, 50354.82
1506.420, 50376.27
1507.459, 50371.00
1508.498, 50630.00
1509.537, 50593.00
1510.576, 50719.00
1511.614, 50400.00
1512.652, 50497.00
1513.691, 50665.00
1514.729, 50820.00
1515.767, 50354.00
1516.804, 50839.00
1517.842, 50398.00
1518.879, 50524.00
1519.917, 50808.00
1520.954, 50663.00
1521.991, 50950.00
1523.028, 50623.00
1524.064, 51053.00
1525.101, 50736.00
1526.137, 50878.00
1527.173, 50516.00
1528.210, 50725.00
1529.245, 51111.00
1530.281, 50646.00
1531.317, 50929.00
1532.352, 50712.00
1533.388, 50601.00
1534.423, 50714.87
1535.458, 50922.36
1536.493, 51044.79
1537.528, 51086.74
1538.562, 50807.11
1539.597, 50942.73
1540.631, 50911.93
1541.665, 50874.30
1542.700, 51068.35
1543.733, 50835.49
1544.767, 51025.86
1545.801, 51047.28
1546.834, 51146.01
1547.868, 51077.33
1548.901, 51060.34
1549.934, 51210.84
1550.967, 51268.61
1551.999, 51180.62
1553.032, 51284.27
1554.064, 51045.54
1555.097, 51107.26
1556.129, 51298.58
1557.161, 51219.02
1558.193, 51325.71
1559.224, 51361.46
1560.256, 51074.82
1561.287, 51348.85
1562.318, 51380.40
1563.350, 51163.00
1564.380, 51417.80
1565.411, 51234.71
1566.442, 51207.93
1567.472, 50863.00
1568.503, 51117.00
1569.533, 51220.00
1570.563, 51593.00
##END=



