##NAMES=Magnesite
##RRUFFID=R050443
##IDEAL CHEMISTRY=MgCO_3_
##LOCALITY=Brumado, Bahia, Brazil
##OWNER=RRUFF
##SOURCE=Eugene Schlepp
##DESCRIPTION=Group of colorless crystals
##STATUS=The identification of this mineral has been confirmed by X-ray diffraction and chemical analysis
##URL=rruff.info/R050443
##MEASURED CHEMISTRY=Mg_1.00_CO_3_
##PIN_ID=L01619
##ORIENTATION=Laser parallel to -c* (0 0 -1). Fiducial mark perpendicular to laser is parallel to a [1 0 0]
61.07900, 5232.000
62.32000, 5241.000
63.56100, 5397.000
64.80100, 5513.000
66.04100, 5563.000
67.28100, 5697.000
68.52100, 5757.000
69.76100, 5945.000
71.00100, 5753.000
72.24000, 5912.000
73.47900, 5720.000
74.71800, 5881.000
75.95700, 5967.000
77.19600, 6007.000
78.43500, 5781.000
79.67300, 5725.000
80.91200, 6106.000
82.15000, 6459.000
83.38800, 6195.000
84.62600, 5852.000
85.86300, 5662.000
87.10100, 5325.000
88.33800, 5137.000
89.57500, 5146.000
90.81200, 5120.000
92.04900, 5031.000
93.28600, 5121.000
94.52300, 5060.000
95.75900, 5111.000
96.99500, 4980.000
98.23100, 5027.000
99.46700, 5011.000
100.7030, 4979.000
101.9390, 4941.000
103.1740, 5074.000
104.4090, 5076.000
105.6440, 5197.000
106.8790, 5057.000
108.1140, 4995.000
109.3490, 4952.000
110.5830, 4937.000
111.8180, 4934.000
113.0520, 4965.000
114.2860, 5000.000
115.5200, 5076.000
116.7530, 5070.000
117.9870, 4982.000
119.2200, 5269.000
120.4530, 5807.000
121.6860, 5834.000
122.9190, 5600.000
124.1520, 5148.000
125.3850, 4864.000
126.6170, 4661.000
127.8490, 4553.000
129.0810, 4597.000
130.3130, 4577.000
131.5450, 4601.000
132.7770, 4494.000
134.0080, 4593.000
135.2390, 4469.000
136.4710, 4536.000
137.7020, 4516.000
138.9320, 4600.000
140.1630, 4455.000
141.3930, 4557.000
142.6240, 4527.000
143.8540, 4550.000
145.0840, 4499.000
146.3140, 4536.000
147.5440, 4563.000
148.7730, 4481.000
150.0020, 4512.000
151.2320, 4562.000
152.4610, 4493.000
153.6900, 4407.000
154.9180, 4477.000
156.1470, 4545.000
157.3750, 4464.000
158.6040, 4539.000
159.8320, 4549.000
161.0600, 4464.000
162.2870, 4598.000
163.5150, 4586.000
164.7420, 4570.000
165.9700, 4568.000
167.1970, 4433.000
168.4240, 4590.000
169.6510, 4451.000
170.8770, 4510.000
172.1040, 4473.000
173.3300, 4478.000
174.5560, 4528.000
175.7820, 4584.000
177.0080, 4550.000
178.2340, 4613.000
179.4590, 4525.000
180.6850, 4553.000
181.9100, 4567.000
183.1350, 4636.000
184.3600, 4573.000
185.5850, 4594.000
186.8090, 4628.000
188.0340, 4652.000
189.2580, 4734.000
190.4820, 4632.000
191.7060, 4811.000
192.9300, 4841.000
194.1530, 4826.000
195.3770, 4976.000
196.6000, 5049.000
197.8230, 5272.000
199.0460, 5528.000
200.2690, 5853.000
201.4910, 6268.000
202.7140, 6828.000
203.9360, 7431.000
205.1580, 8163.000
206.3800, 9340.000
207.6020, 10683.00
208.8240, 12394.00
210.0450, 14734.00
211.2670, 17703.00
212.4880, 20264.00
213.7090, 21409.00
214.9300, 20095.00
216.1510, 16999.00
217.3710, 13518.00
218.5920, 10553.00
219.8120, 8351.000
221.0320, 6997.000
222.2520, 6190.000
223.4720, 5593.000
224.6910, 5326.000
225.9110, 5003.000
227.1300, 4976.000
228.3490, 4755.000
229.5680, 4821.000
230.7870, 4690.000
232.0050, 4686.000
233.2240, 4731.000
234.4420, 4681.000
235.6600, 4730.000
236.8780, 4606.000
238.0960, 4590.000
239.3140, 4587.000
240.5310, 4631.000
241.7490, 4570.000
242.9660, 4658.000
244.1830, 4640.000
245.4000, 4698.000
246.6160, 4618.000
247.8330, 4689.000
249.0490, 4630.000
250.2660, 4712.000
251.4820, 4733.000
252.6980, 4684.000
253.9130, 4702.000
255.1290, 4680.000
256.3440, 4720.000
257.5600, 4652.000
258.7750, 4669.000
259.9900, 4572.000
261.2040, 4629.000
262.4190, 4575.000
263.6330, 4683.000
264.8480, 4601.000
266.0620, 4687.000
267.2760, 4660.000
268.4900, 4678.000
269.7030, 4659.000
270.9170, 4634.000
272.1300, 4682.000
273.3430, 4665.000
274.5560, 4689.000
275.7690, 4675.000
276.9820, 4622.000
278.1940, 4645.000
279.4070, 4621.000
280.6190, 4684.000
281.8310, 4678.000
283.0430, 4695.000
284.2550, 4788.000
285.4660, 4620.000
286.6770, 4648.000
287.8890, 4747.000
289.1000, 4671.000
290.3110, 4809.000
291.5210, 4709.000
292.7320, 4651.000
293.9420, 4752.000
295.1530, 4676.000
296.3630, 4668.000
297.5730, 4735.000
298.7830, 4817.000
299.9920, 4884.000
301.2020, 4852.817
302.4110, 4827.000
303.6200, 4793.000
304.8290, 4744.000
306.0380, 4783.000
307.2470, 4768.000
308.4550, 4823.000
309.6630, 4826.548
310.8720, 4792.000
312.0800, 4836.000
313.2880, 4887.000
314.4950, 4856.000
315.7030, 4959.000
316.9100, 5055.000
318.1170, 5188.000
319.3240, 5320.000
320.5310, 5524.000
321.7380, 5700.000
322.9450, 6092.000
324.1510, 6435.000
325.3570, 6861.000
326.5630, 7496.000
327.7690, 8215.000
328.9750, 9212.000
330.1810, 9834.000
331.3860, 9885.000
332.5910, 9422.000
333.7960, 8318.000
335.0010, 7468.000
336.2060, 6711.000
337.4110, 5992.000
338.6150, 5765.000
339.8200, 5447.000
341.0240, 5320.000
342.2280, 5200.000
343.4320, 5125.000
344.6350, 5191.000
345.8390, 5131.000
347.0420, 5068.000
348.2450, 5095.000
349.4480, 5029.000
350.6510, 5096.000
351.8540, 4972.000
353.0560, 5005.000
354.2590, 5086.000
355.4610, 4957.000
356.6630, 5022.000
357.8650, 5075.000
359.0670, 4995.000
360.2680, 5103.000
361.4700, 5022.000
362.6710, 5043.000
363.8720, 5164.000
365.0730, 5009.000
366.2740, 5022.000
367.4740, 5016.000
368.6750, 5150.000
369.8750, 5044.000
371.0750, 5044.000
372.2750, 5045.497
373.4750, 5065.000
374.6740, 5052.146
375.8740, 5063.820
377.0730, 5051.000
378.2720, 5054.000
379.4710, 5084.000
380.6700, 5040.000
381.8690, 5132.000
383.0670, 5156.000
384.2660, 5093.000
385.4640, 5162.000
386.6620, 5082.000
387.8600, 5065.000
389.0570, 5162.000
390.2550, 5073.000
391.4520, 5219.000
392.6490, 5079.000
393.8460, 5212.000
395.0430, 5181.000
396.2400, 5179.000
397.4370, 5177.000
398.6330, 5220.000
399.8290, 5272.000
401.0250, 5201.000
402.2210, 5181.000
403.4170, 5211.000
404.6130, 5246.000
405.8080, 5170.000
407.0030, 5236.000
408.1980, 5280.000
409.3930, 5306.000
410.5880, 5182.000
411.7830, 5197.000
412.9770, 5247.000
414.1720, 5318.000
415.3660, 5186.000
416.5600, 5237.000
417.7530, 5249.000
418.9470, 5152.000
420.1410, 5302.000
421.3340, 5102.000
422.5270, 5236.000
423.7200, 5372.000
424.9130, 5260.000
426.1060, 5281.000
427.2980, 5259.000
428.4900, 5309.000
429.6830, 5317.000
430.8750, 5321.547
432.0670, 5346.000
433.2580, 5304.000
434.4500, 5411.000
435.6410, 5342.000
436.8320, 5424.000
438.0240, 5401.000
439.2140, 5351.000
440.4050, 5324.000
441.5960, 5323.050
442.7860, 5426.000
443.9760, 5326.000
445.1670, 5374.000
446.3560, 5365.000
447.5460, 5328.000
448.7360, 5430.000
449.9250, 5401.000
451.1150, 5473.000
452.3040, 5468.000
453.4930, 5495.000
454.6810, 5434.000
455.8700, 5483.000
457.0590, 5513.000
458.2470, 5385.000
459.4350, 5477.000
460.6230, 5578.000
461.8110, 5471.000
462.9980, 5545.000
464.1860, 5504.000
465.3730, 5516.000
466.5600, 5609.000
467.7470, 5464.000
468.9340, 5425.000
470.1210, 5495.000
471.3080, 5523.000
472.4940, 5480.000
473.6800, 5581.000
474.8660, 5547.000
476.0520, 5489.000
477.2380, 5543.000
478.4230, 5375.909
479.6090, 5461.977
480.7940, 5516.766
481.9790, 5541.969
483.1640, 5448.968
484.3490, 5508.602
485.5330, 5507.054
486.7180, 5565.000
487.9020, 5644.000
489.0860, 5545.000
490.2700, 5648.000
491.4540, 5630.000
492.6370, 5719.000
493.8210, 5727.000
495.0040, 5588.000
496.1870, 5664.000
497.3700, 5661.000
498.5530, 5651.000
499.7360, 5768.000
500.9180, 5610.000
502.1000, 5683.000
503.2830, 5702.000
504.4650, 5664.000
505.6460, 5753.000
506.8280, 5594.000
508.0100, 5807.000
509.1910, 5763.000
510.3720, 5622.000
511.5530, 5755.000
512.7340, 5744.000
513.9150, 5869.000
515.0950, 5753.000
516.2760, 5795.000
517.4560, 5714.000
518.6360, 5704.226
519.8160, 5832.000
520.9950, 5731.000
522.1750, 5781.000
523.3540, 5896.000
524.5340, 5929.000
525.7130, 5874.000
526.8920, 5870.000
528.0700, 5805.000
529.2490, 5908.000
530.4270, 5868.000
531.6060, 5905.000
532.7840, 5910.000
533.9620, 5895.212
535.1390, 5905.000
536.3170, 5877.000
537.4940, 5833.000
538.6720, 5814.000
539.8490, 5879.000
541.0260, 5921.000
542.2030, 6033.000
543.3790, 5905.000
544.5560, 5974.000
545.7320, 5940.000
546.9080, 5880.000
548.0840, 5949.000
549.2600, 5954.000
550.4360, 5925.000
551.6110, 6014.000
552.7860, 5996.000
553.9620, 5987.000
555.1370, 5887.000
556.3110, 5968.000
557.4860, 6013.000
558.6610, 5972.000
559.8350, 6107.000
561.0090, 6012.000
562.1830, 5935.000
563.3570, 6053.000
564.5310, 6013.000
565.7040, 6014.000
566.8780, 6086.000
568.0510, 5965.000
569.2240, 5921.000
570.3970, 6037.000
571.5700, 6157.000
572.7420, 6120.000
573.9150, 6098.000
575.0870, 6030.000
576.2590, 6032.000
577.4310, 6029.000
578.6030, 5967.000
579.7740, 6163.000
580.9460, 6165.000
582.1170, 6154.000
583.2880, 6092.000
584.4590, 6102.000
585.6300, 6145.000
586.8010, 6136.000
587.9710, 6213.000
589.1410, 6201.000
590.3110, 6224.000
591.4810, 6198.000
592.6510, 6207.000
593.8210, 6229.000
594.9900, 6176.000
596.1600, 6234.000
597.3290, 6265.000
598.4980, 6094.000
599.6670, 6211.000
600.8350, 6139.000
602.0040, 6215.000
603.1720, 6231.185
604.3400, 6204.625
605.5080, 6302.000
606.6760, 6165.000
607.8440, 6257.000
609.0120, 6214.000
610.1790, 6271.000
611.3460, 6241.000
612.5130, 6358.000
613.6800, 6319.000
614.8470, 6301.000
616.0130, 6289.000
617.1800, 6222.000
618.3460, 6414.000
619.5120, 6259.000
620.6780, 6385.000
621.8440, 6417.000
623.0090, 6442.000
624.1750, 6391.000
625.3400, 6534.000
626.5050, 6389.000
627.6700, 6559.000
628.8350, 6278.000
629.9990, 6397.000
631.1640, 6374.000
632.3280, 6500.000
633.4920, 6372.000
634.6560, 6414.000
635.8200, 6497.000
636.9840, 6511.000
638.1470, 6483.000
639.3100, 6484.000
640.4730, 6427.000
641.6360, 6551.000
642.7990, 6489.000
643.9620, 6543.000
645.1240, 6659.000
646.2870, 6595.000
647.4490, 6557.000
648.6110, 6675.000
649.7730, 6602.000
650.9340, 6591.000
652.0960, 6600.000
653.2570, 6604.000
654.4180, 6610.141
655.5790, 6637.000
656.7400, 6645.000
657.9010, 6683.000
659.0620, 6732.000
660.2220, 6758.000
661.3820, 6708.000
662.5420, 6761.000
663.7020, 6760.000
664.8620, 6739.000
666.0210, 6828.000
667.1810, 6809.000
668.3400, 6814.000
669.4990, 6895.000
670.6580, 6834.000
671.8170, 6953.000
672.9750, 6840.000
674.1340, 6920.000
675.2920, 7029.000
676.4500, 7002.000
677.6080, 7038.000
678.7660, 7023.000
679.9230, 7011.000
681.0810, 7015.000
682.2380, 7080.000
683.3950, 7042.000
684.5520, 7117.000
685.7090, 7130.000
686.8660, 7302.000
688.0220, 7240.000
689.1780, 7264.000
690.3340, 7280.790
691.4900, 7487.000
692.6460, 7227.000
693.8020, 7444.000
694.9570, 7405.000
696.1130, 7408.000
697.2680, 7489.000
698.4230, 7561.000
699.5780, 7582.000
700.7320, 7662.422
701.8870, 7742.000
703.0410, 7810.000
704.1950, 7864.000
705.3490, 7998.000
706.5030, 8066.528
707.6570, 8214.000
708.8110, 8250.000
709.9640, 8352.000
711.1170, 8429.000
712.2700, 8584.000
713.4230, 8908.000
714.5760, 8928.000
715.7280, 9092.000
716.8810, 9525.000
718.0330, 9741.000
719.1850, 10162.00
720.3370, 10464.00
721.4890, 11164.00
722.6400, 11661.00
723.7920, 12303.00
724.9430, 12953.00
726.0940, 13770.00
727.2450, 14621.00
728.3960, 15887.00
729.5460, 17267.00
730.6970, 18274.00
731.8470, 19781.00
732.9970, 21125.00
734.1470, 22529.00
735.2970, 23921.00
736.4460, 25216.00
737.5960, 26043.00
738.7450, 26549.00
739.8940, 26708.00
741.0430, 25704.00
742.1920, 24828.00
743.3410, 22756.00
744.4890, 21264.00
745.6370, 19457.00
746.7850, 17512.00
747.9330, 16112.00
749.0810, 14550.00
750.2290, 13472.00
751.3760, 12431.00
752.5240, 11571.00
753.6710, 10914.00
754.8180, 10291.00
755.9650, 9897.000
757.1110, 9553.000
758.2580, 8975.000
759.4040, 8788.000
760.5510, 8423.000
761.6970, 8232.000
762.8420, 8124.000
763.9880, 7782.000
765.1340, 7874.000
766.2790, 7646.000
767.4240, 7381.000
768.5690, 7367.000
769.7140, 7437.000
770.8590, 7437.000
772.0030, 7331.000
773.1480, 7301.000
774.2920, 7198.000
775.4360, 7167.000
776.5800, 7235.000
777.7240, 7209.000
778.8670, 7254.000
780.0110, 7121.000
781.1540, 7166.000
782.2970, 7096.000
783.4400, 7025.000
784.5830, 7066.000
785.7250, 7117.000
786.8680, 7134.000
788.0100, 7172.000
789.1520, 7056.000
790.2940, 7110.000
791.4360, 7002.000
792.5780, 7163.000
793.7190, 7057.000
794.8600, 7082.000
796.0010, 7121.000
797.1420, 7109.000
798.2830, 7016.000
799.4240, 7016.000
800.5640, 7012.000
801.7050, 7157.000
802.8450, 7115.000
803.9850, 7217.000
805.1250, 7085.000
806.2640, 7120.000
807.4040, 7049.000
808.5430, 7068.000
809.6820, 7190.000
810.8210, 7108.000
811.9600, 7199.000
813.0990, 7198.000
814.2370, 7188.000
815.3760, 7268.000
816.5140, 7135.000
817.6520, 7116.000
818.7900, 7095.000
819.9270, 7242.000
821.0650, 7200.000
822.2020, 7243.000
823.3390, 7228.000
824.4760, 7325.000
825.6130, 7196.000
826.7500, 7212.000
827.8870, 7247.000
829.0230, 7170.000
830.1590, 7273.000
831.2950, 7202.000
832.4310, 7278.000
833.5670, 7377.000
834.7030, 7253.000
835.8380, 7179.000
836.9730, 7220.000
838.1080, 7254.000
839.2430, 7281.000
840.3780, 7277.000
841.5130, 7298.000
842.6470, 7342.000
843.7810, 7293.000
844.9150, 7276.000
846.0490, 7283.000
847.1830, 7309.000
848.3170, 7284.843
849.4500, 7314.098
850.5830, 7270.000
851.7160, 7331.000
852.8490, 7354.000
853.9820, 7324.414
855.1150, 7500.000
856.2470, 7390.000
857.3800, 7434.000
858.5120, 7527.000
859.6440, 7345.000
860.7760, 7502.000
861.9070, 7412.000
863.0390, 7557.000
864.1700, 7498.000
865.3010, 7518.000
866.4320, 7487.000
867.5630, 7508.000
868.6940, 7530.000
869.8240, 7420.000
870.9540, 7421.000
872.0850, 7452.000
873.2150, 7535.000
874.3450, 7512.000
875.4740, 7491.000
876.6040, 7594.000
877.7330, 7622.000
878.8620, 7534.000
879.9910, 7611.000
881.1200, 7613.000
882.2490, 7645.000
883.3770, 7529.000
884.5060, 7495.000
885.6340, 7535.000
886.7620, 7518.000
887.8900, 7508.000
889.0180, 7623.000
890.1450, 7635.000
891.2730, 7647.359
892.4000, 7668.000
893.5270, 7673.000
894.6540, 7709.000
895.7810, 7767.000
896.9070, 7632.000
898.0340, 7786.000
899.1600, 7720.000
900.2860, 7620.000
901.4120, 7737.000
902.5380, 7790.000
903.6630, 7692.000
904.7890, 7743.000
905.9140, 7753.000
907.0390, 7757.667
908.1640, 7743.000
909.2890, 7808.000
910.4130, 7790.000
911.5380, 7776.000
912.6620, 7822.000
913.7860, 7736.000
914.9100, 7773.000
916.0340, 7818.000
917.1580, 7771.000
918.2810, 7831.000
919.4040, 7900.000
920.5280, 7859.000
921.6510, 7985.000
922.7730, 7918.000
923.8960, 7798.000
925.0180, 7938.000
926.1410, 7940.000
927.2630, 7829.000
928.3850, 7914.000
929.5070, 7953.000
930.6280, 7912.000
931.7500, 7881.000
932.8710, 7956.000
933.9920, 7959.000
935.1130, 7960.110
936.2340, 7992.000
937.3550, 7968.000
938.4760, 7934.000
939.5960, 7950.000
940.7160, 7964.000
941.8360, 7990.000
942.9560, 7950.000
944.0760, 8054.000
945.1950, 8100.000
946.3150, 8088.562
947.4340, 7965.000
948.5530, 8080.000
949.6720, 8018.000
950.7900, 7988.000
951.9090, 8108.000
953.0270, 8066.000
954.1460, 8160.000
955.2640, 8146.000
956.3820, 8122.000
957.4990, 8008.000
958.6170, 8129.000
959.7340, 8066.000
960.8520, 8255.000
961.9690, 8166.000
963.0860, 8093.000
964.2020, 8187.000
965.3190, 8145.000
966.4350, 8117.000
967.5520, 8202.000
968.6680, 8258.000
969.7840, 8170.000
970.8990, 8288.000
972.0150, 8123.000
973.1310, 8352.000
974.2460, 8449.000
975.3610, 8347.000
976.4760, 8365.000
977.5910, 8229.000
978.7050, 8115.000
979.8200, 8376.000
980.9340, 8384.000
982.0480, 8258.000
983.1620, 8358.000
984.2760, 8386.000
985.3900, 8373.000
986.5030, 8332.000
987.6160, 8369.000
988.7300, 8459.000
989.8430, 8327.000
990.9550, 8415.000
992.0680, 8336.000
993.1810, 8423.000
994.2930, 8418.000
995.4050, 8462.000
996.5170, 8577.000
997.6290, 8583.000
998.7410, 8648.000
999.8520, 8625.000
1000.964, 8684.000
1002.075, 8819.000
1003.186, 8709.000
1004.297, 8747.000
1005.407, 8560.000
1006.518, 8611.000
1007.628, 8621.000
1008.738, 8487.000
1009.848, 8585.000
1010.958, 8438.000
1012.068, 8457.000
1013.178, 8467.000
1014.287, 8620.000
1015.396, 8458.000
1016.505, 8475.000
1017.614, 8487.000
1018.723, 8359.000
1019.831, 8459.000
1020.940, 8650.000
1022.048, 8607.000
1023.156, 8636.000
1024.264, 8696.000
1025.372, 8651.000
1026.479, 8672.000
1027.587, 8780.000
1028.694, 8900.000
1029.801, 8825.000
1030.908, 8897.000
1032.015, 9005.000
1033.121, 9123.000
1034.228, 9065.000
1035.334, 9283.000
1036.440, 9273.000
1037.546, 9392.000
1038.652, 9280.000
1039.758, 9545.000
1040.863, 9435.000
1041.968, 9780.000
1043.074, 9745.000
1044.178, 9965.000
1045.283, 10055.00
1046.388, 10206.00
1047.492, 10525.00
1048.597, 10734.00
1049.701, 10786.00
1050.805, 11049.00
1051.909, 11228.00
1053.012, 11471.00
1054.116, 11676.99
1055.219, 11792.00
1056.322, 12151.00
1057.425, 12170.00
1058.528, 12528.00
1059.631, 12963.00
1060.733, 13346.00
1061.836, 13833.00
1062.938, 14151.00
1064.040, 14886.00
1065.142, 15336.00
1066.243, 16028.00
1067.345, 17015.00
1068.446, 17958.00
1069.547, 19014.00
1070.648, 20492.00
1071.749, 21963.00
1072.850, 23640.00
1073.951, 25780.00
1075.051, 28068.00
1076.151, 30732.00
1077.251, 33499.00
1078.351, 37531.00
1079.451, 41817.00
1080.550, 47129.00
1081.650, 54301.00
1082.749, 62892.00
1083.848, 73567.00
1084.947, 86809.00
1086.046, 102900.0
1087.144, 122180.0
1088.243, 144288.0
1089.341, 169495.0
1090.439, 197033.0
1091.537, 224997.0
1092.635, 248698.0
1093.732, 266542.0
1094.830, 274380.0
1095.927, 268994.0
1097.024, 254859.0
1098.121, 232275.0
1099.218, 206803.0
1100.314, 182260.0
1101.411, 159169.0
1102.507, 139364.0
1103.603, 121544.0
1104.699, 107458.0
1105.795, 94469.00
1106.890, 82913.00
1107.986, 72613.00
1109.081, 63496.00
1110.176, 55548.00
1111.271, 48365.00
1112.366, 42618.00
1113.461, 37438.00
1114.555, 33260.00
1115.649, 29393.00
1116.744, 26070.00
1117.838, 23785.00
1118.931, 21455.00
1120.025, 19996.00
1121.119, 18308.40
1122.212, 17571.00
1123.305, 15884.00
1124.398, 15196.00
1125.491, 14407.00
1126.584, 13819.00
1127.676, 13307.00
1128.768, 12845.00
1129.861, 12475.00
1130.953, 12114.00
1132.044, 12002.00
1133.136, 11676.00
1134.228, 11494.00
1135.319, 11328.00
1136.410, 10968.00
1137.501, 10928.00
1138.592, 10650.00
1139.683, 10648.00
1140.773, 10640.00
1141.864, 10433.00
1142.954, 10237.00
1144.044, 10338.00
1145.134, 10038.00
1146.224, 10064.00
1147.313, 10148.00
1148.402, 10045.00
1149.492, 9975.000
1150.581, 9884.000
1151.670, 9878.000
1152.758, 9821.110
1153.847, 9771.000
1154.935, 9749.000
1156.024, 9698.000
1157.112, 9626.000
1158.200, 9698.000
1159.287, 9641.000
1160.375, 9673.000
1161.462, 9625.000
1162.550, 9626.000
1163.637, 9633.168
1164.724, 9546.000
1165.810, 9635.000
1166.897, 9596.000
1167.983, 9573.000
1169.070, 9664.000
1170.156, 9643.000
1171.242, 9454.000
1172.327, 9506.000
1173.413, 9308.000
1174.499, 9427.000
1175.584, 9582.000
1176.669, 9646.000
1177.754, 9534.000
1178.839, 9503.000
1179.923, 9603.000
1181.008, 9487.000
1182.092, 9532.000
1183.176, 9494.000
1184.260, 9564.000
1185.344, 9544.387
1186.428, 9522.000
1187.511, 9578.000
1188.595, 9521.000
1189.678, 9626.733
1190.761, 9492.000
1191.843, 9677.000
1192.926, 9440.000
1194.009, 9431.000
1195.091, 9435.000
1196.173, 9466.000
1197.255, 9425.000
1198.337, 9476.000
1199.419, 9577.000
1200.500, 9543.000
1201.582, 9449.000
1202.663, 9359.000
1203.744, 9376.000
1204.825, 9371.391
1205.905, 9587.000
1206.986, 9481.000
1208.066, 9461.000
1209.146, 9543.000
1210.226, 9481.000
1211.306, 9451.000
1212.386, 9334.000
1213.466, 9395.000
1214.545, 9612.000
1215.624, 9493.000
1216.703, 9564.000
1217.782, 9571.000
1218.861, 9557.000
1219.939, 9596.000
1221.018, 9438.000
1222.096, 9508.000
1223.174, 9584.000
1224.252, 9470.000
1225.330, 9521.000
1226.407, 9540.000
1227.485, 9714.000
1228.562, 9514.000
1229.639, 9711.000
1230.716, 9649.000
1231.793, 9513.000
1232.869, 9671.000
1233.946, 9490.000
1235.022, 9629.000
1236.098, 9525.000
1237.174, 9692.000
1238.250, 9610.000
1239.325, 9764.000
1240.401, 9610.000
1241.476, 9688.000
1242.551, 9654.000
1243.626, 9673.000
1244.701, 9649.000
1245.776, 9662.000
1246.850, 9614.000
1247.924, 9580.000
1248.999, 9692.000
1250.073, 9585.000
1251.146, 9785.000
1252.220, 9615.000
1253.293, 9690.000
1254.367, 9640.000
1255.440, 9883.000
1256.513, 9615.000
1257.586, 9732.000
1258.658, 9731.000
1259.731, 9704.000
1260.803, 9840.000
1261.875, 9787.000
1262.947, 9791.000
1264.019, 9825.000
1265.091, 9766.000
1266.162, 9824.000
1267.234, 9875.000
1268.305, 9945.000
1269.376, 9809.000
1270.447, 9824.000
1271.517, 9771.000
1272.588, 9949.000
1273.658, 9892.000
1274.729, 9872.000
1275.799, 9993.000
1276.868, 9781.000
1277.938, 9959.000
1279.008, 9916.000
1280.077, 10083.00
1281.146, 9913.000
1282.215, 10064.00
1283.284, 10062.00
1284.353, 9945.000
1285.421, 9986.000
1286.490, 10049.00
1287.558, 10023.00
1288.626, 9941.000
1289.694, 10000.00
1290.762, 10010.00
1291.829, 10006.00
1292.897, 10016.00
1293.964, 10091.00
1295.031, 10062.00
1296.098, 10082.00
1297.165, 9981.000
1298.231, 10060.00
1299.298, 10073.00
1300.364, 9984.000
1301.430, 10007.00
1302.496, 9975.000
1303.562, 10086.00
1304.627, 10052.00
1305.693, 10006.00
1306.758, 9965.000
1307.823, 10147.00
1308.888, 9995.000
1309.953, 10048.00
1311.018, 10163.00
1312.082, 10083.00
1313.146, 10054.00
1314.210, 10074.00
1315.274, 10153.00
1316.338, 10159.00
1317.402, 10109.00
1318.465, 10196.00
1319.529, 10066.00
1320.592, 10155.00
1321.655, 10172.00
1322.718, 10130.00
1323.780, 9985.000
1324.843, 10163.00
1325.905, 10110.61
1326.967, 10156.00
1328.029, 10175.00
1329.091, 10191.00
1330.153, 10168.00
1331.214, 10132.00
1332.275, 10080.00
1333.337, 10023.00
1334.398, 10052.00
1335.458, 10071.00
1336.519, 10162.00
1337.580, 10201.00
1338.640, 10040.00
1339.700, 10140.00
1340.760, 10051.00
1341.820, 10070.00
1342.880, 10093.00
1343.939, 10187.00
1344.999, 10203.00
1346.058, 10090.00
1347.117, 10247.00
1348.176, 10184.00
1349.235, 10167.00
1350.293, 10322.00
1351.351, 10271.00
1352.410, 10288.00
1353.468, 10181.00
1354.526, 10116.00
1355.583, 10318.00
1356.641, 10077.00
1357.698, 10294.00
1358.756, 10131.00
1359.813, 10189.00
1360.869, 10221.00
1361.926, 10161.00
1362.983, 10170.00
1364.039, 10406.00
1365.095, 10406.00
1366.152, 10379.00
1367.207, 10322.00
1368.263, 10366.00
1369.319, 10387.00
1370.374, 10326.00
1371.430, 10285.00
1372.485, 10301.98
1373.540, 10282.25
1374.594, 10310.00
1375.649, 10299.00
1376.703, 10289.00
1377.758, 10284.00
1378.812, 10167.00
1379.866, 10444.00
1380.920, 10440.00
1381.973, 10400.00
1383.027, 10293.00
1384.080, 10384.00
1385.133, 10418.00
1386.186, 10334.00
1387.239, 10308.00
1388.291, 10358.00
1389.344, 10347.00
1390.396, 10541.00
1391.448, 10259.00
1392.500, 10476.00
1393.552, 10394.00
1394.604, 10381.00
1395.655, 10336.00
1396.707, 10237.00
1397.758, 10498.00
1398.809, 10441.00
1399.860, 10499.00
1400.910, 10393.00
1401.961, 10460.00
1403.011, 10400.00
1404.061, 10528.00
1405.111, 10492.00
1406.161, 10587.00
1407.211, 10405.00
1408.260, 10450.00
1409.310, 10508.00
1410.359, 10473.00
1411.408, 10523.00
1412.457, 10604.00
1413.506, 10400.00
1414.554, 10709.00
1415.603, 10489.00
1416.651, 10553.00
1417.699, 10681.00
1418.747, 10771.00
1419.794, 10637.00
1420.842, 10605.00
1421.889, 10714.00
1422.937, 10446.00
1423.984, 10654.00
1425.031, 10678.00
1426.077, 10664.00
1427.124, 10788.00
1428.170, 10838.00
1429.217, 10872.00
1430.263, 10682.00
1431.309, 10887.00
1432.354, 10951.00
1433.400, 10910.00
1434.445, 11152.00
1435.491, 11250.00
1436.536, 11576.00
1437.581, 11839.00
1438.625, 12324.00
1439.670, 12612.00
1440.714, 13515.00
1441.759, 14416.00
1442.803, 15521.00
1443.847, 16809.00
1444.890, 17438.00
1445.934, 17221.00
1446.978, 16303.00
1448.021, 15142.00
1449.064, 14077.00
1450.107, 13274.00
1451.150, 12833.00
1452.192, 12506.00
1453.235, 12260.00
1454.277, 11982.00
1455.319, 11940.00
1456.361, 11861.00
1457.403, 11748.00
1458.445, 11594.00
1459.486, 11583.00
1460.528, 11599.00
1461.569, 11557.00
1462.610, 11661.00
1463.651, 11449.00
1464.691, 11641.00
1465.732, 11325.00
1466.772, 11363.00
1467.812, 11359.00
1468.852, 11349.00
1469.892, 11236.00
1470.932, 11390.00
1471.971, 11360.00
1473.011, 11536.00
1474.050, 11461.00
1475.089, 11321.00
1476.128, 11173.00
1477.166, 11396.00
1478.205, 11270.00
1479.243, 11363.00
1480.282, 11442.00
1481.320, 11321.00
1482.357, 11251.00
1483.395, 11256.00
1484.433, 11310.00
1485.470, 11235.00
1486.507, 11259.00
1487.544, 11257.00
1488.581, 11107.00
1489.618, 11331.00
1490.655, 11139.00
1491.691, 11136.00
1492.727, 11164.00
1493.763, 11185.00
1494.799, 11137.00
1495.835, 11132.00
1496.871, 11202.00
1497.906, 11179.00
1498.941, 11113.00
1499.976, 11051.00
1501.011, 11253.00
1502.046, 11037.00
1503.081, 11275.00
1504.115, 10907.00
1505.149, 11113.00
1506.183, 11386.00
1507.217, 11294.00
1508.251, 11062.00
1509.285, 11139.00
1510.318, 11054.00
1511.352, 11129.00
1512.385, 11123.00
1513.418, 10971.00
1514.450, 11039.00
1515.483, 11013.62
1516.516, 11130.00
1517.548, 11075.00
1518.580, 11087.00
1519.612, 11148.00
1520.644, 11146.00
1521.675, 11101.00
1522.707, 11132.00
1523.738, 10992.00
1524.769, 11175.00
1525.800, 11260.00
1526.831, 11117.00
1527.862, 11081.00
1528.892, 11175.00
1529.923, 11080.00
1530.953, 11064.00
1531.983, 11091.00
1533.013, 11078.95
1534.042, 11098.00
1535.072, 11140.00
1536.101, 11150.00
1537.131, 11178.00
1538.160, 11167.00
1539.188, 11074.00
1540.217, 11296.00
1541.246, 11164.00
1542.274, 11157.00
1543.302, 11306.00
1544.330, 11285.00
1545.358, 11176.00
1546.386, 11322.00
1547.413, 11340.00
1548.441, 11251.00
1549.468, 11227.00
1550.495, 11274.00
1551.522, 11281.00
1552.549, 11295.00
1553.575, 11315.00
1554.602, 11328.00
1555.628, 11282.00
1556.654, 11428.00
1557.680, 11306.00
1558.706, 11526.00
1559.731, 11436.00
1560.757, 11333.00
1561.782, 11382.00
1562.807, 11297.00
1563.832, 11346.00
1564.857, 11327.29
1565.881, 11413.00
1566.906, 11336.00
1567.930, 11317.00
1568.954, 11362.00
1569.978, 11572.00
1571.002, 11364.00
1572.025, 11559.00
1573.049, 11340.00
1574.072, 11363.00
1575.095, 11388.00
1576.118, 11387.00
1577.141, 11530.00
##END=



