##NAMES=Magnesio-hastingsite
##RRUFFID=R070288
##IDEAL CHEMISTRY=NaCa_2_(Mg_4_Fe^3+^)Si_6_Al_2_O_22_(OH)_2_
##LOCALITY=Dallas Gem Mine (Gem Mine; Benitoite Mine), New Idria District, San Benito County, California, USA
##OWNER=RRUFF
##SOURCE=Michael Scott
##DESCRIPTION=Dark brown to black prismatic crystals frozen in albite
##STATUS=The identification of this mineral is confirmed by single-crystal X-ray diffraction and chemical analysis.
##URL=rruff.info/R070288
##MEASURED CHEMISTRY=(Na_0.51_[box]_0.33_K_0.16_)_Σ=1_(Ca_1.75_Na_0.25_)_Σ=2_(Mg_3.02_Fe^2+^_0.61_Ti_0.37_)_Σ=4_(Fe^3+^_0.73_Al_0.27_)_Σ=1_Si_5.84_Al_2.16_O_22_(OH)_2_; (OH) estimated by difference
##PIN_ID=M01310
##ORIENTATION=Laser parallel to c* (0 0 1). Fiducial mark perpendicular to laser is parallel to a [1 0 0]
88.87300, 8737.000
90.11400, 9074.000
91.35400, 9569.000
92.59500, 9364.000
93.83500, 9293.000
95.07500, 9187.000
96.31500, 8977.000
97.55400, 8951.698
98.79400, 8872.000
100.0330, 8845.000
101.2720, 8785.000
102.5110, 8783.000
103.7500, 9131.000
104.9890, 9416.000
106.2270, 9358.990
107.4650, 9896.000
108.7040, 9495.000
109.9420, 9372.000
111.1790, 9786.000
112.4170, 10438.00
113.6540, 11697.00
114.8920, 12064.00
116.1290, 12508.00
117.3650, 12772.00
118.6020, 12641.00
119.8390, 13009.00
121.0750, 13015.00
122.3110, 12104.00
123.5470, 11178.00
124.7830, 10670.00
126.0190, 10578.00
127.2540, 10077.36
128.4900, 9922.000
129.7250, 9796.000
130.9600, 9863.000
132.1950, 9668.716
133.4290, 9586.849
134.6640, 9480.000
135.8980, 9443.011
137.1320, 9460.222
138.3660, 9458.006
139.6000, 9437.407
140.8340, 9343.367
142.0670, 9344.184
143.3000, 9306.994
144.5330, 9268.246
145.7660, 9315.724
146.9990, 9290.770
148.2320, 9450.000
149.4640, 9351.000
150.6960, 9501.000
151.9280, 9637.000
153.1600, 9932.000
154.3920, 10192.00
155.6230, 10492.85
156.8550, 10821.00
158.0860, 11293.00
159.3170, 11655.00
160.5480, 12307.00
161.7780, 12343.00
163.0090, 12566.00
164.2390, 12539.00
165.4690, 12324.00
166.6990, 12058.00
167.9290, 11687.00
169.1590, 11350.00
170.3880, 11290.00
171.6180, 11046.00
172.8470, 10722.00
174.0760, 10497.00
175.3040, 10470.00
176.5330, 10372.00
177.7610, 10466.00
178.9900, 10431.00
180.2180, 10443.00
181.4460, 10404.00
182.6730, 10440.00
183.9010, 10533.00
185.1280, 10520.00
186.3560, 10671.00
187.5830, 10558.00
188.8100, 10486.00
190.0360, 10538.00
191.2630, 10397.00
192.4890, 10397.41
193.7150, 10329.12
194.9410, 10382.00
196.1670, 10330.84
197.3930, 10223.75
198.6180, 10266.89
199.8440, 10291.66
201.0690, 10242.97
202.2940, 10289.12
203.5190, 10297.26
204.7430, 10303.82
205.9680, 10614.81
207.1920, 10882.24
208.4160, 11131.29
209.6400, 11306.89
210.8640, 11577.33
212.0880, 11809.77
213.3110, 12040.45
214.5340, 12324.04
215.7570, 12753.99
216.9800, 13027.00
218.2030, 13699.00
219.4260, 14287.00
220.6480, 14762.00
221.8700, 15568.00
223.0920, 16082.00
224.3140, 16330.00
225.5360, 16283.00
226.7580, 16360.00
227.9790, 16022.00
229.2000, 15419.00
230.4210, 14747.00
231.6420, 14057.00
232.8630, 13582.00
234.0830, 13039.00
235.3040, 12414.00
236.5240, 11814.00
237.7440, 11689.00
238.9640, 11319.00
240.1830, 11011.00
241.4030, 10759.00
242.6220, 10669.00
243.8410, 10564.00
245.0600, 10436.00
246.2790, 10150.00
247.4980, 10127.00
248.7160, 10035.00
249.9340, 10074.00
251.1530, 9902.000
252.3710, 9876.000
253.5880, 9725.000
254.8060, 9514.000
256.0230, 9557.000
257.2410, 9495.000
258.4580, 9268.000
259.6750, 9145.000
260.8910, 9080.000
262.1080, 9015.175
263.3240, 8967.897
264.5410, 8950.000
265.7570, 8966.000
266.9730, 8801.000
268.1880, 8894.000
269.4040, 8794.000
270.6190, 8751.000
271.8350, 8845.000
273.0500, 8792.000
274.2650, 8664.000
275.4790, 8695.000
276.6940, 8671.000
277.9080, 8704.000
279.1220, 8658.000
280.3360, 8745.000
281.5500, 8692.000
282.7640, 8718.000
283.9770, 8731.000
285.1910, 8765.000
286.4040, 8800.244
287.6170, 8930.000
288.8300, 8878.000
290.0420, 8983.000
291.2550, 9016.000
292.4670, 8971.000
293.6790, 9103.000
294.8910, 9165.000
296.1030, 9197.000
297.3150, 9159.000
298.5260, 9186.000
299.7380, 9200.000
300.9490, 9131.000
302.1600, 9205.000
303.3710, 9180.000
304.5810, 9202.334
305.7920, 9264.140
307.0020, 9306.097
308.2120, 9329.262
309.4220, 9278.577
310.6320, 9322.318
311.8410, 9327.633
313.0510, 9330.994
314.2600, 9386.846
315.4690, 9344.790
316.6780, 9398.986
317.8870, 9414.190
319.0950, 9446.635
320.3040, 9440.443
321.5120, 9445.646
322.7200, 9488.691
323.9280, 9510.150
325.1360, 9497.918
326.3430, 9529.033
327.5510, 9481.559
328.7580, 9473.000
329.9650, 9450.711
331.1720, 9533.000
332.3790, 9414.000
333.5850, 9468.000
334.7910, 9387.000
335.9980, 9411.000
337.2040, 9347.000
338.4100, 9379.000
339.6150, 9261.000
340.8210, 9407.000
342.0260, 9243.000
343.2310, 9308.000
344.4360, 9293.005
345.6410, 9300.000
346.8460, 9217.000
348.0500, 9412.000
349.2550, 9292.000
350.4590, 9228.000
351.6630, 9400.000
352.8670, 9311.000
354.0700, 9325.000
355.2740, 9355.000
356.4770, 9499.000
357.6800, 9458.197
358.8830, 9506.170
360.0860, 9474.000
361.2890, 9527.000
362.4910, 9583.000
363.6930, 9619.000
364.8960, 9669.096
366.0980, 9674.000
367.2990, 9728.000
368.5010, 9716.000
369.7020, 9683.000
370.9040, 9689.829
372.1050, 9727.332
373.3060, 9752.204
374.5070, 9765.125
375.7070, 9730.289
376.9080, 9757.118
378.1080, 9759.230
379.3080, 9760.329
380.5080, 9718.219
381.7080, 9729.000
382.9070, 9701.000
384.1070, 9585.000
385.3060, 9552.000
386.5050, 9578.000
387.7040, 9423.000
388.9030, 9399.000
390.1010, 9275.000
391.3000, 9188.000
392.4980, 9254.000
393.6960, 9187.000
394.8940, 9141.000
396.0920, 9125.000
397.2890, 9021.000
398.4870, 9040.000
399.6840, 8953.000
400.8810, 8967.000
402.0780, 8811.000
403.2750, 8754.000
404.4710, 8724.000
405.6680, 8951.000
406.8640, 8905.000
408.0600, 8896.000
409.2560, 9016.000
410.4520, 8915.000
411.6470, 8870.000
412.8430, 8874.000
414.0380, 8961.000
415.2330, 8851.000
416.4280, 8942.000
417.6220, 8752.000
418.8170, 8833.000
420.0110, 8625.000
421.2050, 8749.000
422.4000, 8587.000
423.5930, 8727.000
424.7870, 8616.000
425.9810, 8519.000
427.1740, 8601.000
428.3670, 8484.000
429.5600, 8483.000
430.7530, 8479.000
431.9460, 8434.000
433.1380, 8327.000
434.3310, 8168.000
435.5230, 8190.000
436.7150, 8170.000
437.9070, 8138.785
439.0980, 8185.000
440.2900, 8164.000
441.4810, 8203.000
442.6720, 8243.000
443.8630, 8194.000
445.0540, 8122.000
446.2450, 8117.000
447.4350, 8138.000
448.6260, 8189.000
449.8160, 8085.000
451.0060, 8029.000
452.1960, 8124.000
453.3850, 8074.000
454.5750, 8041.000
455.7640, 8104.000
456.9530, 8183.000
458.1420, 8242.000
459.3310, 8109.000
460.5200, 8034.000
461.7080, 8001.000
462.8970, 8104.000
464.0850, 8022.000
465.2730, 8085.000
466.4610, 7974.000
467.6480, 8020.000
468.8360, 8042.000
470.0230, 8064.000
471.2100, 7991.000
472.3970, 8057.000
473.5840, 8014.000
474.7710, 8111.000
475.9570, 8096.000
477.1440, 8165.000
478.3300, 8150.000
479.5160, 8041.000
480.7020, 8062.000
481.8870, 8095.000
483.0730, 8159.000
484.2580, 8214.000
485.4430, 8245.000
486.6280, 8246.000
487.8130, 8278.000
488.9980, 8241.000
490.1820, 8211.000
491.3660, 8317.000
492.5510, 8281.000
493.7350, 8421.000
494.9180, 8350.000
496.1020, 8585.000
497.2860, 8507.000
498.4690, 8535.000
499.6520, 8717.000
500.8350, 8669.000
502.0180, 8876.000
503.2000, 8777.000
504.3830, 8813.205
505.5650, 8928.868
506.7470, 9007.435
507.9290, 9066.573
509.1110, 9107.331
510.2930, 9074.648
511.4740, 9136.770
512.6560, 9160.915
513.8370, 9183.474
515.0180, 9258.943
516.1980, 9295.000
517.3790, 9297.000
518.5600, 9203.000
519.7400, 9232.086
520.9200, 9252.264
522.1000, 9201.000
523.2800, 9341.000
524.4590, 9377.000
525.6390, 9404.000
526.8180, 9488.000
527.9970, 9388.000
529.1760, 9454.000
530.3550, 9335.000
531.5340, 9428.000
532.7120, 9420.000
533.8910, 9540.000
535.0690, 9311.000
536.2470, 9388.000
537.4250, 9359.000
538.6020, 9479.000
539.7800, 9440.000
540.9570, 9427.000
542.1340, 9407.000
543.3110, 9452.000
544.4880, 9415.000
545.6650, 9408.000
546.8410, 9383.900
548.0170, 9346.683
549.1940, 9305.000
550.3690, 9310.000
551.5450, 9271.000
552.7210, 9334.000
553.8960, 9273.000
555.0720, 9215.000
556.2470, 9358.000
557.4220, 9330.000
558.5970, 9364.000
559.7710, 9374.000
560.9460, 9206.000
562.1200, 9176.000
563.2940, 9193.000
564.4680, 9194.000
565.6420, 9221.000
566.8160, 9199.801
567.9890, 9230.000
569.1630, 9172.000
570.3360, 9164.000
571.5090, 9176.000
572.6820, 9082.000
573.8540, 9039.730
575.0270, 8938.013
576.1990, 8830.000
577.3710, 8714.000
578.5430, 8585.133
579.7150, 8417.000
580.8870, 8314.000
582.0580, 8134.000
583.2300, 7999.000
584.4010, 7883.000
585.5720, 7754.000
586.7430, 7681.000
587.9130, 7690.000
589.0840, 7631.663
590.2540, 7647.000
591.4240, 7591.000
592.5940, 7553.000
593.7640, 7475.000
594.9340, 7535.000
596.1030, 7449.000
597.2730, 7473.000
598.4420, 7504.000
599.6110, 7421.000
600.7800, 7498.000
601.9490, 7474.867
603.1170, 7460.000
604.2850, 7509.000
605.4540, 7551.000
606.6220, 7620.000
607.7900, 7697.000
608.9570, 7584.000
610.1250, 7618.000
611.2920, 7791.000
612.4590, 7887.000
613.6260, 7794.000
614.7930, 7901.000
615.9600, 7919.000
617.1270, 8040.000
618.2930, 8147.000
619.4590, 8173.000
620.6250, 8280.000
621.7910, 8443.000
622.9570, 8436.000
624.1220, 8549.000
625.2880, 8746.000
626.4530, 8844.000
627.6180, 9061.000
628.7830, 9161.000
629.9480, 9359.000
631.1120, 9515.000
632.2770, 9721.549
633.4410, 9924.436
634.6050, 10222.00
635.7690, 10396.00
636.9330, 10751.00
638.0960, 11094.00
639.2600, 11239.00
640.4230, 11693.00
641.5860, 12152.00
642.7490, 12184.00
643.9120, 12557.00
645.0740, 12806.00
646.2370, 13395.00
647.3990, 13439.00
648.5610, 13803.00
649.7230, 14038.00
650.8850, 14034.00
652.0460, 14539.00
653.2080, 14577.00
654.3690, 14766.00
655.5300, 15046.00
656.6910, 15221.00
657.8520, 15403.00
659.0130, 15643.00
660.1730, 15549.00
661.3330, 15900.00
662.4930, 15889.00
663.6530, 15862.00
664.8130, 16029.00
665.9730, 15668.00
667.1320, 15554.00
668.2920, 15325.00
669.4510, 15056.00
670.6100, 14682.00
671.7680, 14244.00
672.9270, 13952.00
674.0860, 13281.00
675.2440, 13050.00
676.4020, 12741.00
677.5600, 12324.00
678.7180, 12226.00
679.8760, 11787.00
681.0330, 11476.00
682.1900, 11319.00
683.3480, 11239.00
684.5050, 11147.00
685.6610, 11009.00
686.8180, 10913.28
687.9750, 10798.00
689.1310, 10676.00
690.2870, 10532.00
691.4430, 10405.00
692.5990, 10124.00
693.7550, 9995.000
694.9100, 9828.000
696.0660, 9728.000
697.2210, 9532.355
698.3760, 9375.000
699.5310, 9170.209
700.6860, 9067.000
701.8400, 8919.000
702.9940, 8824.000
704.1490, 8772.000
705.3030, 8796.000
706.4570, 8683.000
707.6100, 8754.000
708.7640, 8534.000
709.9170, 8607.000
711.0710, 8441.000
712.2240, 8395.000
713.3770, 8432.871
714.5290, 8395.223
715.6820, 8514.000
716.8340, 8417.000
717.9870, 8499.000
719.1390, 8413.000
720.2910, 8512.000
721.4430, 8462.380
722.5940, 8454.604
723.7460, 8432.000
724.8970, 8433.000
726.0480, 8495.000
727.1990, 8507.000
728.3500, 8524.976
729.5000, 8539.984
730.6510, 8531.000
731.8010, 8546.000
732.9510, 8501.000
734.1010, 8509.000
735.2510, 8607.000
736.4010, 8595.000
737.5500, 8543.000
738.7000, 8629.000
739.8490, 8534.000
740.9980, 8578.000
742.1470, 8573.645
743.2950, 8566.228
744.4440, 8567.000
745.5920, 8612.000
746.7400, 8606.000
747.8880, 8663.000
749.0360, 8668.703
750.1840, 8630.010
751.3310, 8672.809
752.4790, 8698.789
753.6260, 8652.857
754.7730, 8703.307
755.9200, 8717.295
757.0670, 8731.272
758.2130, 8799.681
759.3600, 8772.158
760.5060, 8842.815
761.6520, 8876.431
762.7980, 8929.248
763.9440, 8945.369
765.0890, 8974.813
766.2350, 9044.082
767.3800, 9132.000
768.5250, 9168.000
769.6700, 9240.309
770.8150, 9290.000
771.9590, 9361.000
773.1040, 9401.000
774.2480, 9413.000
775.3920, 9421.000
776.5360, 9488.000
777.6800, 9624.000
778.8240, 9727.000
779.9670, 9846.000
781.1100, 9941.000
782.2540, 10040.57
783.3970, 10135.07
784.5390, 10209.00
785.6820, 10324.00
786.8240, 10370.00
787.9670, 10488.00
789.1090, 10529.77
790.2510, 10585.57
791.3930, 10623.00
792.5350, 10632.00
793.6760, 10683.00
794.8170, 10619.00
795.9590, 10636.00
797.1000, 10589.00
798.2410, 10635.00
799.3810, 10606.09
800.5220, 10626.01
801.6620, 10626.51
802.8030, 10608.62
803.9430, 10517.30
805.0820, 10520.84
806.2220, 10486.35
807.3620, 10450.31
808.5010, 10467.20
809.6410, 10386.56
810.7800, 10402.61
811.9190, 10380.07
813.0570, 10375.21
814.1960, 10332.10
815.3340, 10300.81
816.4730, 10307.75
817.6110, 10293.54
818.7490, 10246.04
819.8870, 10242.31
821.0240, 10160.40
822.1620, 10073.47
823.2990, 10068.75
824.4360, 10026.04
825.5730, 9981.762
826.7100, 9990.396
827.8470, 9901.532
828.9830, 9909.356
830.1200, 9878.566
831.2560, 9865.466
832.3920, 9814.123
833.5280, 9774.594
834.6630, 9633.087
835.7990, 9595.402
836.9340, 9519.769
838.0700, 9442.520
839.2050, 9418.238
840.3400, 9296.459
841.4740, 9271.398
842.6090, 9206.000
843.7430, 9190.000
844.8780, 9061.000
846.0120, 8961.000
847.1460, 8939.000
848.2790, 8848.000
849.4130, 8837.000
850.5460, 8825.000
851.6800, 8796.000
852.8130, 8707.000
853.9460, 8695.000
855.0790, 8620.000
856.2110, 8664.000
857.3440, 8699.000
858.4760, 8541.000
859.6080, 8642.000
860.7400, 8507.000
861.8720, 8461.000
863.0040, 8546.000
864.1350, 8567.000
865.2670, 8519.000
866.3980, 8585.000
867.5290, 8525.000
868.6600, 8614.000
869.7900, 8648.000
870.9210, 8752.000
872.0510, 8594.000
873.1820, 8665.573
874.3120, 8705.179
875.4420, 8663.000
876.5710, 8781.000
877.7010, 8811.000
878.8300, 8742.000
879.9600, 8861.000
881.0890, 8781.000
882.2180, 8792.000
883.3460, 9020.000
884.4750, 8991.000
885.6040, 9180.000
886.7320, 9049.000
887.8600, 9207.000
888.9880, 9248.000
890.1160, 9470.000
891.2430, 9437.000
892.3710, 9393.000
893.4980, 9496.000
894.6260, 9638.000
895.7530, 9478.000
896.8790, 9686.000
898.0060, 9676.000
899.1330, 9693.000
900.2590, 9840.000
901.3850, 9777.000
902.5110, 9749.000
903.6370, 9798.000
904.7630, 9770.000
905.8890, 9820.000
907.0140, 9867.000
908.1390, 9959.000
909.2640, 9877.000
910.3890, 9929.000
911.5140, 9894.000
912.6390, 9903.000
913.7630, 9824.000
914.8870, 9842.000
916.0120, 9889.000
917.1360, 9784.000
918.2590, 9838.000
919.3830, 9769.000
920.5070, 9610.000
921.6300, 9521.000
922.7530, 9591.000
923.8760, 9631.000
924.9990, 9629.000
926.1220, 9585.000
927.2440, 9656.000
928.3670, 9507.000
929.4890, 9626.000
930.6110, 9503.000
931.7330, 9498.000
932.8540, 9688.000
933.9760, 9449.000
935.0980, 9364.000
936.2190, 9548.000
937.3400, 9412.000
938.4610, 9491.000
939.5820, 9624.000
940.7020, 9516.000
941.8230, 9667.000
942.9430, 9592.000
944.0630, 9660.000
945.1830, 9716.000
946.3030, 9693.000
947.4230, 9746.107
948.5420, 9784.000
949.6610, 9755.000
950.7810, 9811.000
951.9000, 9754.000
953.0190, 9765.000
954.1370, 9952.000
955.2560, 10039.00
956.3740, 9982.000
957.4920, 9959.000
958.6110, 10021.00
959.7280, 9920.000
960.8460, 9958.000
961.9640, 10128.00
963.0810, 10107.00
964.1990, 10197.00
965.3160, 10268.00
966.4330, 10246.00
967.5490, 10171.00
968.6660, 10257.00
969.7830, 10221.00
970.8990, 10207.00
972.0150, 10222.00
973.1310, 10252.00
974.2470, 10279.00
975.3630, 10342.00
976.4780, 10366.00
977.5930, 10264.00
978.7090, 10264.00
979.8240, 10315.00
980.9390, 10432.00
982.0530, 10568.00
983.1680, 10599.80
984.2820, 10485.00
985.3970, 10675.00
986.5110, 10710.00
987.6250, 10693.00
988.7380, 10831.00
989.8520, 10764.00
990.9660, 10982.00
992.0790, 10996.00
993.1920, 11007.00
994.3050, 11111.00
995.4180, 11267.00
996.5300, 11404.00
997.6430, 11530.92
998.7550, 11678.71
999.8680, 11796.55
1000.980, 11947.23
1002.091, 12078.38
1003.203, 12191.25
1004.315, 12295.59
1005.426, 12394.81
1006.537, 12460.99
1007.648, 12555.58
1008.759, 12617.57
1009.870, 12662.05
1010.981, 12674.00
1012.091, 12697.00
1013.201, 12654.00
1014.312, 12631.12
1015.422, 12602.09
1016.531, 12553.70
1017.641, 12486.86
1018.751, 12346.59
1019.860, 12301.21
1020.969, 12217.82
1022.078, 12132.88
1023.187, 12100.85
1024.296, 11971.32
1025.404, 11938.52
1026.513, 11833.54
1027.621, 11666.23
1028.729, 11620.57
1029.837, 11556.52
1030.945, 11419.03
1032.052, 11376.44
1033.160, 11295.78
1034.267, 11213.63
1035.374, 11184.38
1036.481, 11057.64
1037.588, 11027.56
1038.695, 10958.89
1039.801, 10907.95
1040.907, 10818.76
1042.014, 10741.32
1043.120, 10669.00
1044.225, 10652.68
1045.331, 10616.88
1046.437, 10562.70
1047.542, 10435.13
1048.647, 10402.40
1049.752, 10331.66
1050.857, 10259.36
1051.962, 10239.97
1053.067, 10123.09
1054.171, 10102.92
1055.275, 10044.16
1056.380, 10003.01
1057.484, 9923.674
1058.587, 9856.202
1059.691, 9826.929
1060.795, 9776.476
1061.898, 9692.798
1063.001, 9652.878
1064.104, 9534.765
1065.207, 9485.268
1066.310, 9465.374
1067.412, 9383.673
1068.515, 9251.777
1069.617, 9230.129
1070.719, 9170.470
1071.821, 9109.252
1072.923, 9100.950
1074.024, 8995.188
1075.126, 8986.048
1076.227, 8938.361
1077.328, 8908.340
1078.429, 8840.078
1079.530, 8783.622
1080.631, 8765.423
1081.731, 8726.088
1082.831, 8653.463
1083.932, 8624.563
1085.032, 8517.516
1086.132, 8479.082
1087.231, 8470.298
1088.331, 8399.596
1089.430, 8371.483
1090.530, 8374.000
1091.629, 8338.702
1092.728, 8312.000
1093.826, 8304.000
1094.925, 8281.000
1096.023, 8234.000
1097.122, 8191.000
1098.220, 8263.000
1099.318, 8221.000
1100.416, 8237.000
1101.513, 8223.000
1102.611, 8192.000
1103.708, 8173.000
1104.806, 8156.255
1105.903, 8157.000
1107.000, 8108.000
1108.096, 8066.373
1109.193, 8006.000
1110.289, 7948.000
1111.386, 7922.000
1112.482, 7925.000
1113.578, 7886.000
1114.673, 7904.102
1115.769, 7939.287
1116.865, 7955.174
1117.960, 7952.814
1119.055, 7877.140
1120.150, 7896.428
1121.245, 7877.839
1122.340, 7857.819
1123.434, 7890.845
1124.529, 7826.491
1125.623, 7858.932
1126.717, 7852.916
1127.811, 7864.687
1128.905, 7838.345
1129.998, 7823.949
1131.092, 7847.924
1132.185, 7850.854
1133.278, 7820.626
1134.371, 7834.290
1135.464, 7769.888
1136.557, 7774.228
1137.649, 7808.305
1138.742, 7780.636
1139.834, 7795.640
1140.926, 7794.569
1142.018, 7719.995
1143.109, 7773.603
1144.201, 7771.955
1145.292, 7713.579
1146.384, 7763.174
1147.475, 7712.891
1148.566, 7698.431
1149.657, 7710.964
1150.747, 7695.622
1151.838, 7711.000
1152.928, 7714.000
1154.018, 7738.000
1155.108, 7711.000
1156.198, 7677.000
1157.288, 7729.000
1158.377, 7717.000
1159.467, 7655.000
1160.556, 7623.000
1161.645, 7717.000
1162.734, 7521.000
1163.823, 7717.000
1164.911, 7644.000
1166.000, 7610.000
1167.088, 7630.271
1168.176, 7567.704
1169.264, 7606.000
1170.352, 7507.000
1171.440, 7623.000
1172.527, 7617.000
1173.615, 7698.000
1174.702, 7699.000
1175.789, 7690.671
1176.876, 7670.000
1177.963, 7662.000
1179.049, 7607.000
1180.136, 7615.000
1181.222, 7560.000
1182.308, 7580.974
1183.394, 7586.704
1184.480, 7597.000
1185.566, 7613.000
1186.651, 7568.000
1187.736, 7544.000
1188.822, 7631.000
1189.907, 7575.000
1190.992, 7670.000
1192.076, 7742.000
1193.161, 7681.000
1194.245, 7599.000
1195.330, 7610.000
1196.414, 7705.000
1197.498, 7675.000
1198.581, 7523.000
1199.665, 7670.000
1200.749, 7603.000
1201.832, 7552.000
1202.915, 7581.000
1203.998, 7680.000
1205.081, 7559.000
1206.164, 7673.000
1207.246, 7576.000
1208.329, 7613.000
1209.411, 7581.000
1210.493, 7507.000
1211.575, 7672.000
1212.657, 7569.000
1213.738, 7823.000
1214.820, 7653.000
1215.901, 7609.000
1216.982, 7792.000
1218.063, 7663.382
1219.144, 7720.000
1220.225, 7603.000
1221.305, 7654.000
1222.386, 7557.000
1223.466, 7750.000
1224.546, 7696.000
1225.626, 7713.000
1226.706, 7660.000
1227.785, 7710.000
1228.865, 7709.000
1229.944, 7744.000
1231.023, 7701.000
1232.102, 7759.000
1233.181, 7715.000
1234.260, 7704.000
1235.338, 7731.000
1236.417, 7723.000
1237.495, 7687.000
1238.573, 7689.000
1239.651, 7710.000
1240.729, 7698.000
1241.806, 7632.000
1242.884, 7739.291
1243.961, 7767.000
1245.038, 7852.000
1246.115, 7763.000
1247.192, 7654.000
1248.269, 7722.000
1249.345, 7740.000
1250.421, 7694.000
1251.498, 7716.000
1252.574, 7668.000
1253.650, 7732.000
1254.725, 7781.000
1255.801, 7693.000
1256.876, 7781.000
1257.952, 7788.000
1259.027, 7857.000
1260.102, 7695.000
1261.177, 7724.000
1262.251, 7800.000
1263.326, 7732.000
1264.400, 7807.000
1265.474, 7786.000
1266.548, 7810.420
1267.622, 7718.000
1268.696, 7838.000
1269.770, 7801.000
1270.843, 7739.000
1271.916, 7903.000
1272.990, 7830.000
1274.063, 7742.000
1275.135, 7770.000
1276.208, 7748.000
1277.281, 7733.000
1278.353, 7786.000
1279.425, 7841.000
1280.497, 7855.000
1281.569, 7832.000
1282.641, 7905.000
1283.712, 7852.000
1284.784, 7828.000
1285.855, 7903.000
1286.926, 7910.000
1287.997, 7823.000
1289.068, 7746.000
1290.139, 7933.000
1291.209, 7789.000
1292.280, 7855.944
1293.350, 7905.714
1294.420, 7936.058
1295.490, 7948.018
1296.560, 7886.539
1297.629, 7919.887
1298.699, 7915.236
1299.768, 7909.021
1300.837, 7955.717
1301.906, 7904.915
1302.975, 7950.771
1304.043, 7958.038
1305.112, 7982.970
1306.180, 7969.657
1307.249, 7968.160
1308.317, 8004.910
1309.385, 8020.479
1310.452, 7902.000
1311.520, 7874.000
1312.587, 7941.000
1313.655, 8007.000
1314.722, 7934.000
1315.789, 7877.000
1316.856, 7930.000
1317.922, 7922.000
1318.989, 7918.000
1320.055, 7947.000
1321.121, 7954.000
1322.187, 7946.494
1323.253, 7952.000
1324.319, 7913.000
1325.385, 7925.000
1326.450, 7878.000
1327.515, 7902.000
1328.581, 7882.932
1329.646, 7882.106
1330.710, 7879.000
1331.775, 7884.000
1332.840, 7913.000
1333.904, 7904.000
1334.968, 7907.641
1336.032, 7851.000
1337.096, 7877.000
1338.160, 7905.000
1339.224, 7851.000
1340.287, 8028.000
1341.350, 7951.322
1342.414, 8020.000
1343.477, 7895.000
1344.539, 7984.765
1345.602, 8026.808
1346.665, 8049.425
1347.727, 8053.662
1348.789, 7984.458
1349.851, 8010.087
1350.913, 7997.711
1351.975, 7983.777
1353.037, 8022.753
1354.098, 7964.233
1355.160, 8002.370
1356.221, 8001.925
1357.282, 8019.139
1358.343, 7998.113
1359.403, 7932.000
1360.464, 8018.000
1361.524, 7947.000
1362.585, 7987.000
1363.645, 8062.000
1364.705, 8023.000
1365.765, 7896.000
1366.824, 7975.000
1367.884, 8021.000
1368.943, 7962.000
1370.002, 8090.000
1371.061, 7891.000
1372.120, 8049.000
1373.179, 7893.000
1374.237, 8019.000
1375.296, 8083.000
1376.354, 8022.000
1377.412, 8059.000
1378.470, 8048.602
1379.528, 8038.000
1380.586, 8027.000
1381.643, 7992.000
1382.701, 7973.000
1383.758, 7926.000
1384.815, 7947.000
1385.872, 7996.000
1386.929, 7958.166
1387.985, 7980.000
1389.042, 7969.000
1390.098, 7944.000
1391.154, 8024.000
1392.210, 8041.000
1393.266, 7976.000
1394.322, 8000.000
1395.377, 8099.000
1396.433, 8021.000
1397.488, 7940.000
1398.543, 8042.000
1399.598, 7960.000
1400.653, 8042.000
1401.707, 7961.000
1402.762, 7975.125
1403.816, 7966.000
1404.870, 7990.000
1405.924, 8071.173
1406.978, 8117.804
1408.032, 8145.008
1409.085, 8153.828
1410.139, 8089.209
1411.192, 8119.422
1412.245, 8111.629
1413.298, 8102.278
1414.351, 8145.838
1415.404, 8091.899
1416.456, 8134.617
1417.509, 8138.753
1418.561, 8160.546
1419.613, 8144.100
1420.665, 8139.464
1421.717, 8173.080
1422.768, 8185.514
1423.820, 8164.666
1424.871, 8187.579
1425.922, 8132.300
1426.973, 8145.636
1428.024, 8188.576
1429.075, 8169.647
1430.125, 8193.258
1431.175, 8200.667
1432.226, 8198.883
1433.276, 8196.276
1434.326, 8202.728
1435.376, 8212.000
1436.425, 8209.000
1437.475, 8204.471
1438.524, 8160.000
1439.573, 8187.000
1440.622, 8087.000
1441.671, 8083.000
1442.720, 8178.000
1443.768, 8125.000
1444.817, 8097.000
1445.865, 8170.000
1446.913, 8236.000
1447.961, 8263.000
1449.009, 8017.000
1450.057, 8119.000
1451.104, 8183.000
1452.152, 8091.000
1453.199, 8189.000
1454.246, 8211.000
1455.293, 8169.000
1456.339, 8197.000
1457.386, 8242.000
1458.433, 8329.000
1459.479, 8194.000
1460.525, 8260.000
1461.571, 8157.000
1462.617, 8158.000
1463.663, 8090.000
1464.708, 8284.000
1465.754, 8174.000
1466.799, 8135.000
1467.844, 8263.000
1468.889, 8150.000
1469.934, 8226.000
1470.978, 8168.000
1472.023, 8138.000
1473.067, 8230.000
1474.111, 8155.000
1475.155, 8119.000
1476.199, 8251.000
1477.243, 8243.000
1478.287, 8208.000
1479.330, 8145.000
1480.373, 8213.000
1481.417, 8281.000
1482.460, 8282.000
1483.502, 8341.000
1484.545, 8256.000
1485.588, 8215.000
1486.630, 8341.000
1487.672, 8176.000
1488.714, 8204.000
1489.756, 8260.000
1490.798, 8097.000
1491.840, 8215.000
1492.881, 8255.000
1493.923, 8257.000
1494.964, 8282.000
1496.005, 8276.000
1497.046, 8354.000
1498.087, 8297.000
1499.127, 8314.000
1500.168, 8290.000
1501.208, 8201.000
1502.248, 8261.000
1503.288, 8235.000
1504.328, 8298.000
1505.368, 8317.000
1506.407, 8299.000
1507.446, 8325.000
1508.486, 8282.000
1509.525, 8277.000
1510.564, 8353.000
1511.603, 8341.000
1512.641, 8316.000
1513.680, 8272.000
1514.718, 8275.000
1515.756, 8271.000
1516.794, 8452.000
1517.832, 8338.000
1518.870, 8359.000
1519.907, 8305.000
1520.945, 8276.000
1521.982, 8338.000
1523.019, 8278.000
1524.056, 8321.000
1525.093, 8309.000
1526.130, 8296.071
1527.166, 8330.143
1528.203, 8288.000
1529.239, 8383.000
1530.275, 8396.000
1531.311, 8444.000
1532.347, 8421.000
1533.383, 8364.000
1534.418, 8372.000
1535.453, 8359.000
1536.489, 8284.000
1537.524, 8393.000
1538.559, 8260.900
1539.593, 8383.369
1540.628, 8454.037
1541.662, 8475.681
1542.697, 8301.487
1543.731, 8380.179
1544.765, 8357.523
1545.799, 8330.712
1546.832, 8444.992
1547.866, 8299.279
1548.899, 8411.322
1549.933, 8420.476
1550.966, 8476.717
1551.999, 8430.985
1553.031, 8416.746
1554.064, 8504.516
1555.097, 8535.805
1556.129, 8478.331
1557.161, 8537.562
1558.193, 8388.278
1559.225, 8421.969
1560.257, 8534.604
1561.289, 8482.257
1562.320, 8543.348
1563.351, 8561.234
1564.383, 8382.776
1565.414, 8545.783
1566.444, 8561.111
1567.475, 8435.000
1568.506, 8422.000
1569.536, 8520.000
1570.566, 8394.000
1571.597, 8420.000
1572.627, 8440.000
##END=



