##NAMES=Magnetite
##RRUFFID=R060191
##IDEAL CHEMISTRY=Fe^2+^Fe^3+^_2_O_4_
##LOCALITY=Merrry Widow mine, Vancouver Island, British Columbia, Canada
##OWNER=RRUFF
##SOURCE=Lloyd Twaites
##DESCRIPTION=Grayish-black octahedral crystals
##STATUS=The identification of this mineral has been confirmed by X-ray diffraction and chemical analysis
##URL=rruff.info/R060191
##MEASURED CHEMISTRY=(Fe^2+^_0.97_Mg_0.03_)(Fe^3+^_0.97_Al_0.03_)_2_O_4_
##PIN_ID=M01451
##ORIENTATION=Laser parallel to -a* (-1 0 0). Fiducial mark perpendicular to laser is parallel to -c [0 0 -1]
126.5290, 43260.00
127.7630, 42768.00
128.9970, 43133.00
130.2300, 43175.00
131.4640, 43253.00
132.6970, 42958.00
133.9300, 42509.00
135.1630, 42500.00
136.3950, 42575.00
137.6280, 43094.00
138.8600, 43432.00
140.0920, 43556.00
141.3240, 42780.00
142.5560, 42567.00
143.7880, 41892.00
145.0190, 41661.00
146.2510, 42029.00
147.4820, 41967.00
148.7130, 42075.00
149.9440, 42008.00
151.1750, 42239.00
152.4050, 41919.00
153.6360, 41940.61
154.8660, 41652.00
156.0960, 41712.00
157.3260, 41261.00
158.5560, 41097.00
159.7850, 40943.00
161.0150, 40979.00
162.2440, 41198.00
163.4730, 41031.55
164.7020, 41284.00
165.9310, 40904.00
167.1590, 40756.00
168.3880, 40673.00
169.6160, 40848.00
170.8440, 41067.00
172.0720, 40897.95
173.3000, 40903.00
174.5280, 40658.00
175.7550, 40576.00
176.9820, 40417.00
178.2100, 40292.96
179.4370, 40434.00
180.6630, 40138.00
181.8900, 40236.00
183.1170, 40287.00
184.3430, 40492.00
185.5690, 40526.00
186.7950, 40745.00
188.0210, 40919.00
189.2470, 40871.10
190.4720, 41093.64
191.6970, 41250.34
192.9230, 41343.11
194.1480, 41274.26
195.3730, 41342.02
196.5970, 41311.05
197.8220, 41245.91
199.0460, 41243.17
200.2700, 41246.00
201.4940, 41078.00
202.7180, 40879.00
203.9420, 40840.00
205.1660, 39878.00
206.3890, 39547.00
207.6120, 39724.00
208.8350, 39311.00
210.0580, 39491.00
211.2810, 39284.00
212.5040, 39215.43
213.7260, 39326.00
214.9480, 39171.00
216.1700, 39294.00
217.3920, 39386.00
218.6140, 39261.75
219.8360, 39449.50
221.0570, 39534.02
222.2790, 39520.80
223.5000, 39117.25
224.7210, 39217.78
225.9410, 39116.33
227.1620, 39006.56
228.3820, 39178.07
229.6030, 38831.29
230.8230, 39239.00
232.0430, 39001.00
233.2630, 38931.25
234.4820, 39158.48
235.7020, 39282.46
236.9210, 39308.72
238.1400, 38944.62
239.3590, 39084.60
240.5780, 39022.56
241.7970, 38952.24
243.0150, 39163.17
244.2340, 38855.84
245.4520, 39062.31
246.6700, 39063.68
247.8880, 39083.00
249.1060, 38889.00
250.3230, 38888.00
251.5400, 38765.00
252.7580, 38950.00
253.9750, 39133.00
255.1920, 39307.00
256.4080, 39980.00
257.6250, 41165.00
258.8410, 40655.03
260.0580, 41394.00
261.2740, 40050.00
262.4900, 39612.00
263.7050, 39304.00
264.9210, 39309.00
266.1360, 39734.00
267.3520, 39449.00
268.5670, 39547.00
269.7820, 39877.00
270.9960, 39688.92
272.2110, 39733.00
273.4250, 39601.00
274.6400, 39924.00
275.8540, 39766.00
277.0680, 40009.00
278.2810, 39902.00
279.4950, 40129.00
280.7090, 39923.00
281.9220, 40001.00
283.1350, 40183.00
284.3480, 40103.00
285.5610, 40170.00
286.7730, 40217.00
287.9860, 40565.00
289.1980, 40514.00
290.4100, 40680.00
291.6220, 40654.00
292.8340, 40801.00
294.0460, 40816.00
295.2570, 40931.76
296.4690, 41102.00
297.6800, 41085.00
298.8910, 41110.00
300.1020, 40990.00
301.3120, 41077.00
302.5230, 41125.00
303.7330, 41158.00
304.9440, 41156.29
306.1540, 41154.23
307.3630, 41107.00
308.5730, 41167.00
309.7830, 41157.73
310.9920, 41297.00
312.2010, 41064.00
313.4100, 41156.00
314.6190, 40935.00
315.8280, 40862.00
317.0370, 41149.00
318.2450, 40791.00
319.4530, 40986.00
320.6610, 40759.00
321.8690, 40931.00
323.0770, 40716.00
324.2850, 40743.00
325.4920, 40666.00
326.6990, 40508.00
327.9060, 40497.00
329.1130, 40435.50
330.3200, 40324.00
331.5270, 40401.00
332.7330, 40396.00
333.9390, 40400.00
335.1450, 40435.00
336.3510, 40354.96
337.5570, 40345.89
338.7630, 40197.00
339.9680, 40286.00
341.1740, 40209.00
342.3790, 40249.00
343.5840, 40054.00
344.7890, 39996.00
345.9930, 40277.00
347.1980, 40084.00
348.4020, 39844.00
349.6060, 40095.00
350.8100, 40438.00
352.0140, 40205.00
353.2180, 39891.00
354.4210, 39817.00
355.6250, 40316.00
356.8280, 39808.00
358.0310, 40198.00
359.2340, 39944.00
360.4360, 39931.00
361.6390, 40212.00
362.8410, 40131.00
364.0430, 39978.00
365.2450, 39968.00
366.4470, 39867.00
367.6490, 40009.00
368.8510, 40143.00
370.0520, 39790.00
371.2530, 40065.00
372.4540, 40004.00
373.6550, 39935.00
374.8560, 40245.00
376.0560, 40093.00
377.2570, 39978.00
378.4570, 40009.00
379.6570, 40176.00
380.8570, 39867.00
382.0570, 40180.00
383.2560, 40317.00
384.4560, 40369.00
385.6550, 40284.00
386.8540, 40452.00
388.0530, 40292.00
389.2520, 40300.00
390.4510, 40360.00
391.6490, 40422.00
392.8470, 40545.00
394.0450, 40343.28
395.2430, 40613.32
396.4410, 40780.10
397.6390, 40849.17
398.8360, 40527.84
400.0340, 40710.62
401.2310, 40691.36
402.4280, 40663.82
403.6250, 40996.00
404.8210, 41055.00
406.0180, 41080.00
407.2140, 41055.00
408.4100, 40915.00
409.6060, 41133.00
410.8020, 41238.00
411.9980, 41034.00
413.1930, 41047.00
414.3890, 41228.00
415.5840, 41148.00
416.7790, 41478.00
417.9740, 41374.00
419.1680, 41218.00
420.3630, 41442.13
421.5570, 41353.93
422.7510, 41615.00
423.9450, 41412.00
425.1390, 41407.00
426.3330, 41369.00
427.5270, 41371.00
428.7200, 41399.40
429.9130, 41410.24
431.1060, 41476.00
432.2990, 41489.00
433.4920, 41515.00
434.6840, 41572.00
435.8770, 41507.00
437.0690, 41625.00
438.2610, 41417.00
439.4530, 41691.00
440.6450, 41615.00
441.8360, 41508.00
443.0280, 41845.00
444.2190, 41490.14
445.4100, 41780.79
446.6010, 41968.17
447.7920, 42057.84
448.9820, 41757.09
450.1730, 41960.47
451.3630, 41961.79
452.5530, 41954.83
453.7430, 42229.11
454.9330, 41897.00
456.1230, 42123.00
457.3120, 42176.00
458.5010, 42152.00
459.6910, 42192.30
460.8800, 42314.00
462.0680, 42188.00
463.2570, 42119.00
464.4460, 42309.00
465.6340, 42193.00
466.8220, 42182.00
468.0100, 42454.00
469.1980, 42281.00
470.3860, 42278.00
471.5730, 42512.00
472.7600, 42302.00
473.9480, 42515.00
475.1350, 42513.00
476.3210, 42523.05
477.5080, 42603.42
478.6950, 42684.00
479.8810, 42672.00
481.0670, 42896.00
482.2530, 42993.00
483.4390, 42787.00
484.6250, 43097.00
485.8100, 43412.00
486.9960, 43154.00
488.1810, 43340.00
489.3660, 43485.00
490.5510, 43699.00
491.7360, 43580.00
492.9200, 43845.00
494.1050, 43702.00
495.2890, 43586.00
496.4730, 43784.00
497.6570, 44202.00
498.8400, 44037.00
500.0240, 44389.00
501.2070, 44206.00
502.3910, 44606.00
503.5740, 44619.00
504.7570, 44439.00
505.9400, 44547.00
507.1220, 44601.00
508.3050, 44351.00
509.4870, 44674.00
510.6690, 44768.00
511.8510, 44570.00
513.0330, 45269.00
514.2140, 45052.00
515.3960, 45332.00
516.5770, 45558.00
517.7580, 45544.00
518.9390, 45877.00
520.1200, 46008.00
521.3010, 45965.00
522.4810, 46155.00
523.6610, 46329.00
524.8420, 46316.00
526.0220, 46279.00
527.2010, 46973.00
528.3810, 46794.00
529.5610, 47251.00
530.7400, 47002.00
531.9190, 47167.00
533.0980, 47261.00
534.2770, 47217.00
535.4560, 47350.00
536.6340, 47469.00
537.8120, 47549.00
538.9910, 47851.00
540.1690, 48266.00
541.3460, 48255.00
542.5240, 48351.00
543.7020, 48023.00
544.8790, 48711.00
546.0560, 48153.00
547.2330, 48139.00
548.4100, 48654.00
549.5870, 48518.00
550.7630, 48503.00
551.9400, 48879.00
553.1160, 49033.00
554.2920, 48785.00
555.4680, 48765.00
556.6440, 48679.00
557.8190, 48768.00
558.9950, 48558.00
560.1700, 48310.00
561.3450, 48642.00
562.5200, 48749.00
563.6950, 48739.00
564.8690, 48559.00
566.0440, 48271.00
567.2180, 48399.00
568.3920, 48066.00
569.5660, 48197.00
570.7400, 48249.00
571.9130, 48257.00
573.0870, 47879.00
574.2600, 47719.00
575.4330, 47566.00
576.6060, 47354.00
577.7790, 47042.07
578.9520, 46770.62
580.1240, 46308.00
581.2960, 46045.00
582.4690, 45619.00
583.6410, 45132.00
584.8120, 44866.00
585.9840, 44512.00
587.1560, 44119.00
588.3270, 44290.00
589.4980, 44220.00
590.6690, 43848.00
591.8400, 43990.00
593.0110, 44200.00
594.1810, 44219.00
595.3510, 44207.00
596.5220, 44479.00
597.6920, 44101.00
598.8610, 44101.00
600.0310, 44537.00
601.2010, 44315.00
602.3700, 44454.00
603.5390, 44436.00
604.7080, 44517.00
605.8770, 44463.00
607.0460, 44597.83
608.2140, 44801.00
609.3830, 44844.00
610.5510, 44884.00
611.7190, 44993.00
612.8870, 45008.00
614.0550, 45242.18
615.2220, 45392.72
616.3900, 45664.00
617.5570, 45869.00
618.7240, 45960.00
619.8910, 46276.00
621.0580, 46410.66
622.2240, 46388.00
623.3910, 46787.00
624.5570, 47035.00
625.7230, 47240.00
626.8890, 47290.00
628.0550, 47536.00
629.2200, 47806.34
630.3860, 48194.00
631.5510, 48419.00
632.7160, 48731.00
633.8810, 48982.00
635.0460, 49360.69
636.2100, 49707.00
637.3750, 50175.00
638.5390, 50577.00
639.7030, 51043.00
640.8670, 51741.00
642.0310, 52566.00
643.1950, 52794.00
644.3580, 54647.00
645.5210, 54659.38
646.6850, 55389.00
647.8480, 55567.00
649.0100, 56274.00
650.1730, 57039.00
651.3350, 57684.00
652.4980, 58724.00
653.6600, 59713.00
654.8220, 60623.00
655.9840, 61398.00
657.1450, 62745.00
658.3070, 63210.00
659.4680, 64601.00
660.6300, 65062.00
661.7910, 66149.00
662.9510, 67111.00
664.1120, 67919.00
665.2730, 68570.00
666.4330, 69120.00
667.5930, 69592.27
668.7530, 70048.00
669.9130, 70102.00
671.0730, 70501.00
672.2320, 70309.00
673.3920, 70340.00
674.5510, 69666.00
675.7100, 68949.00
676.8690, 68587.00
678.0280, 67826.00
679.1860, 67165.00
680.3450, 66352.50
681.5030, 65497.00
682.6610, 64649.00
683.8190, 63707.54
684.9770, 62746.46
686.1340, 61750.00
687.2920, 60746.00
688.4490, 59700.00
689.6060, 58727.48
690.7630, 57708.00
691.9200, 56954.00
693.0760, 56230.00
694.2330, 55501.00
695.3890, 54418.00
696.5450, 53868.00
697.7010, 53212.00
698.8570, 52205.00
700.0130, 51696.00
701.1680, 50856.00
702.3230, 50503.00
703.4780, 49838.00
704.6330, 49562.00
705.7880, 48831.00
706.9430, 48501.00
708.0970, 47848.00
709.2520, 47230.00
710.4060, 46906.66
711.5600, 46655.00
712.7140, 46269.00
713.8670, 45735.00
715.0210, 45649.00
716.1740, 45455.00
717.3270, 44773.00
718.4800, 44804.00
719.6330, 44512.00
720.7860, 44306.00
721.9380, 43982.00
723.0910, 43823.00
724.2430, 43409.00
725.3950, 43285.00
726.5470, 42897.00
727.6980, 43065.00
728.8500, 43050.00
730.0010, 42687.00
731.1530, 42716.00
732.3040, 42089.00
733.4550, 42083.00
734.6050, 42114.00
735.7560, 42222.00
736.9060, 42022.00
738.0560, 41915.00
739.2060, 41579.00
740.3560, 41488.00
741.5060, 41523.00
742.6560, 41390.00
743.8050, 41111.00
744.9540, 41206.00
746.1030, 41168.00
747.2520, 41103.02
748.4010, 41246.80
749.5500, 41287.32
750.6980, 41230.21
751.8460, 40782.72
752.9950, 41068.00
754.1420, 40723.00
755.2900, 40444.00
756.4380, 40725.00
757.5850, 40454.00
758.7330, 40319.00
759.8800, 40326.00
761.0270, 40200.09
762.1730, 40386.00
763.3200, 40174.00
764.4670, 40229.00
765.6130, 40282.00
766.7590, 40246.00
767.9050, 40362.00
769.0510, 40136.00
770.1960, 40147.00
771.3420, 40174.00
772.4870, 40161.00
773.6320, 40141.80
774.7770, 40119.00
775.9220, 40053.00
777.0670, 39910.00
778.2110, 39814.00
779.3560, 39817.00
780.5000, 39868.00
781.6440, 39799.00
782.7880, 39797.97
783.9320, 39693.00
785.0750, 39765.00
786.2180, 39621.00
787.3620, 39679.00
788.5050, 39767.00
789.6480, 39534.00
790.7900, 39812.00
791.9330, 39765.00
793.0750, 39587.00
794.2170, 39459.00
795.3590, 39696.00
796.5010, 39525.00
797.6430, 39551.00
798.7850, 39726.00
799.9260, 39567.00
801.0670, 39545.00
802.2080, 39578.00
803.3490, 39552.00
804.4900, 39899.00
805.6310, 39910.00
806.7710, 39663.00
807.9110, 39403.00
809.0510, 39584.00
810.1910, 39473.00
811.3310, 39485.00
812.4710, 39528.00
813.6100, 39528.00
814.7490, 39703.00
815.8880, 39816.00
817.0270, 39412.00
818.1660, 39539.00
819.3050, 39404.00
820.4430, 39677.00
821.5820, 39746.02
822.7200, 39220.29
823.8580, 39461.57
824.9950, 39599.58
826.1330, 39639.89
827.2710, 39289.83
828.4080, 39443.85
829.5450, 39395.85
830.6820, 39339.57
831.8190, 39564.54
832.9560, 39565.00
834.0920, 39540.00
835.2280, 39510.00
836.3650, 39599.00
837.5010, 39416.00
838.6360, 39182.00
839.7720, 39312.00
840.9080, 39237.95
842.0430, 39352.00
843.1780, 39498.00
844.3130, 39121.00
845.4480, 39497.00
846.5830, 39630.00
847.7170, 39300.00
848.8520, 39306.00
849.9860, 39409.49
851.1200, 39722.00
852.2540, 39618.00
853.3870, 39617.00
854.5210, 39607.00
855.6540, 39642.00
856.7880, 39418.00
857.9210, 39344.00
859.0540, 39413.00
860.1860, 39331.00
861.3190, 39521.00
862.4510, 39379.00
863.5840, 39524.00
864.7160, 39576.00
865.8480, 39686.00
866.9790, 39360.00
868.1110, 39437.00
869.2420, 39688.00
870.3740, 39413.00
871.5050, 39793.00
872.6360, 39479.00
873.7660, 39414.00
874.8970, 39701.00
876.0280, 39810.00
877.1580, 39777.00
878.2880, 39680.00
879.4180, 39565.00
880.5480, 39543.00
881.6770, 39630.00
882.8070, 39803.00
883.9360, 39705.00
885.0650, 39561.00
886.1940, 39866.00
887.3230, 39843.00
888.4520, 39746.00
889.5800, 39907.00
890.7090, 39857.00
891.8370, 39807.00
892.9650, 39956.00
894.0930, 39732.00
895.2200, 39502.00
896.3480, 40006.00
897.4750, 39858.00
898.6020, 39945.00
899.7290, 39894.00
900.8560, 39912.62
901.9830, 39950.00
903.1090, 40011.00
904.2360, 39843.00
905.3620, 39926.00
906.4880, 39963.00
907.6140, 39937.00
908.7400, 40121.00
909.8650, 39736.00
910.9900, 39862.00
912.1160, 39826.84
913.2410, 40188.00
914.3660, 39869.00
915.4900, 40118.00
916.6150, 40213.00
917.7390, 39882.00
918.8640, 39976.00
919.9880, 39737.00
921.1120, 40146.00
922.2350, 40050.00
923.3590, 39981.00
924.4820, 39984.00
925.6060, 39976.21
926.7290, 40023.23
927.8520, 39990.00
928.9740, 40188.26
930.0970, 40085.83
931.2190, 40196.00
932.3420, 40103.00
933.4640, 40077.00
934.5860, 40151.00
935.7080, 40011.00
936.8290, 40113.00
937.9510, 40189.00
939.0720, 40221.93
940.1930, 40203.00
941.3140, 40295.00
942.4350, 40378.00
943.5560, 40162.00
944.6760, 40328.00
945.7960, 40221.00
946.9170, 40172.00
948.0370, 40345.00
949.1560, 40451.00
950.2760, 40271.00
951.3960, 40239.00
952.5150, 40266.00
953.6340, 40474.00
954.7530, 40396.00
955.8720, 40176.00
956.9910, 40493.00
958.1090, 40297.00
959.2280, 40451.00
960.3460, 40524.00
961.4640, 40548.00
962.5820, 40603.00
963.6990, 40538.00
964.8170, 40616.29
965.9340, 40319.00
967.0510, 40694.00
968.1690, 40597.00
969.2850, 40588.00
970.4020, 40959.00
971.5190, 40821.00
972.6350, 40626.00
973.7510, 40600.00
974.8670, 40592.00
975.9830, 40583.00
977.0990, 40861.00
978.2150, 40411.00
979.3300, 40808.00
980.4450, 40566.00
981.5600, 40733.00
982.6750, 40761.00
983.7900, 40674.00
984.9050, 40674.00
986.0190, 40510.00
987.1340, 40690.00
988.2480, 40475.00
989.3620, 40622.46
990.4750, 40711.66
991.5890, 40834.00
992.7020, 40867.00
993.8160, 40940.00
994.9290, 40985.85
996.0420, 40961.00
997.1550, 41022.00
998.2670, 40898.00
999.3800, 40841.00
1000.492, 40895.15
1001.604, 40860.74
1002.716, 40966.00
1003.828, 40917.00
1004.940, 40926.00
1006.051, 40936.00
1007.163, 40922.00
1008.274, 40871.00
1009.385, 40879.00
1010.496, 40911.00
1011.606, 41055.00
1012.717, 41141.00
1013.827, 40803.00
1014.937, 40993.00
1016.047, 40992.00
1017.157, 40899.00
1018.267, 41221.00
1019.377, 41098.00
1020.486, 41112.00
1021.595, 41283.00
1022.704, 41262.00
1023.813, 40931.00
1024.922, 40942.00
1026.030, 40892.00
1027.139, 41284.00
1028.247, 41085.00
1029.355, 41322.00
1030.463, 41280.00
1031.571, 41037.00
1032.678, 41208.00
1033.786, 41143.00
1034.893, 41124.00
1036.000, 41167.00
1037.107, 41182.11
1038.214, 41344.00
1039.321, 41318.00
1040.427, 41308.00
1041.533, 41414.00
1042.639, 41391.70
1043.745, 41536.00
1044.851, 41453.00
1045.957, 41402.00
1047.062, 41453.00
1048.168, 41467.00
1049.273, 41472.84
1050.378, 41529.09
1051.482, 41547.00
1052.587, 41611.00
1053.692, 41723.00
1054.796, 41746.76
1055.900, 41584.00
1057.004, 41756.00
1058.108, 41574.00
1059.212, 41584.00
1060.315, 41450.00
1061.418, 41871.00
1062.522, 41783.00
1063.625, 41674.00
1064.728, 41723.00
1065.830, 41591.00
1066.933, 41680.00
1068.035, 41713.00
1069.137, 41745.11
1070.239, 41571.00
1071.341, 41901.00
1072.443, 41893.00
1073.545, 41964.00
1074.646, 41770.00
1075.747, 41855.00
1076.848, 41684.00
1077.949, 42019.00
1079.050, 41892.00
1080.150, 41556.00
1081.251, 41794.00
1082.351, 41665.00
1083.451, 41867.00
1084.551, 41809.00
1085.651, 41649.16
1086.750, 41880.76
1087.850, 42009.10
1088.949, 42039.73
1090.048, 41679.99
1091.147, 41824.33
1092.246, 41766.66
1093.345, 41700.70
1094.443, 41915.99
1095.541, 41613.03
1096.639, 41823.86
1097.737, 41829.60
1098.835, 41929.20
1099.933, 41825.54
1101.030, 41784.67
1102.128, 41947.12
1103.225, 41996.99
1104.322, 41758.07
1105.419, 41774.60
1106.515, 41741.00
1107.612, 41825.00
1108.708, 41703.00
1109.804, 41738.00
1110.900, 41771.00
1111.996, 41603.00
1113.092, 41804.00
1114.187, 41645.00
1115.283, 41448.00
1116.378, 41760.00
1117.473, 41553.00
1118.568, 41296.00
1119.662, 41699.00
1120.757, 41481.00
1121.851, 41512.00
1122.946, 41751.00
1124.040, 41386.00
1125.134, 41687.00
1126.227, 41625.00
1127.321, 41571.00
1128.414, 41517.00
1129.508, 41502.97
1130.601, 41488.46
1131.693, 41503.00
1132.786, 41493.88
1133.879, 41520.59
1134.971, 41514.00
1136.064, 41516.00
1137.156, 41277.00
1138.248, 41340.00
1139.339, 41308.00
1140.431, 41240.07
1141.522, 41332.00
1142.614, 41205.00
1143.705, 41285.00
1144.796, 41282.00
1145.887, 41134.00
1146.977, 41174.00
1148.068, 41265.00
1149.158, 41164.00
1150.248, 41084.00
1151.338, 41112.91
1152.428, 41109.82
1153.518, 41115.00
1154.607, 41139.00
1155.696, 41194.00
1156.785, 41040.00
1157.874, 41151.14
1158.963, 41353.60
1160.052, 41452.80
1161.141, 41454.29
1162.229, 41065.43
1163.317, 41180.66
1164.405, 41093.88
1165.493, 40998.80
1166.581, 41184.98
1167.668, 40852.94
1168.756, 41034.65
1169.843, 41011.30
1170.930, 41081.81
1172.017, 41086.00
1173.103, 40895.00
1174.190, 40851.00
1175.276, 41103.00
1176.363, 41146.00
1177.449, 41034.45
1178.535, 41006.00
1179.620, 40872.00
1180.706, 41183.00
1181.791, 41375.00
1182.877, 40727.00
1183.962, 41289.00
1185.047, 40922.00
1186.131, 41051.00
1187.216, 41075.00
1188.300, 41143.00
1189.385, 41172.34
1190.469, 41168.63
1191.553, 41216.00
1192.637, 41144.00
1193.720, 41203.85
1194.804, 41198.00
1195.887, 41125.00
1196.970, 41139.00
1198.053, 41072.00
1199.136, 41167.00
1200.219, 41144.96
1201.301, 41150.00
1202.383, 41146.00
1203.465, 41025.00
1204.547, 40945.00
1205.629, 41128.00
1206.711, 41046.00
1207.792, 41231.00
1208.874, 40985.00
1209.955, 40762.00
1211.036, 40879.86
1212.117, 41114.10
1213.198, 41245.09
1214.278, 41278.36
1215.359, 40921.26
1216.439, 41068.25
1217.519, 41013.22
1218.599, 40949.91
1219.678, 41167.84
1220.758, 40867.52
1221.837, 41080.98
1222.917, 41089.36
1223.996, 41191.60
1225.075, 41206.00
1226.153, 41120.00
1227.232, 41167.00
1228.310, 41157.75
1229.389, 41252.00
1230.467, 41183.00
1231.545, 41139.00
1232.622, 41137.75
1233.700, 40942.00
1234.777, 41112.00
1235.855, 41112.00
1236.932, 41005.00
1238.009, 41180.00
1239.086, 41349.00
1240.162, 41328.00
1241.239, 41262.00
1242.315, 41190.00
1243.391, 41243.00
1244.467, 41212.00
1245.543, 41313.00
1246.619, 41321.00
1247.694, 41329.23
1248.769, 41350.03
1249.844, 41407.00
1250.919, 41255.00
1251.994, 41421.00
1253.069, 41221.00
1254.144, 41392.00
1255.218, 41234.00
1256.292, 41492.00
1257.366, 41421.00
1258.440, 41476.00
1259.514, 41004.00
1260.587, 41401.00
1261.661, 41719.00
1262.734, 41318.00
1263.807, 41497.00
1264.880, 41494.00
1265.952, 41462.00
1267.025, 41556.00
1268.097, 41353.00
1269.170, 41444.00
1270.242, 41794.00
1271.314, 41383.00
1272.385, 41500.00
1273.457, 41429.00
1274.528, 41740.00
1275.600, 41526.00
1276.671, 41479.00
1277.742, 41732.00
1278.812, 41522.00
1279.883, 41631.00
1280.954, 41655.00
1282.024, 41477.00
1283.094, 41619.00
1284.164, 41585.00
1285.234, 41445.00
1286.303, 41622.00
1287.373, 41832.00
1288.442, 41698.00
1289.511, 41708.00
1290.580, 41733.00
1291.649, 41708.00
1292.718, 41626.00
1293.786, 41874.00
1294.855, 41592.00
1295.923, 41849.00
1296.991, 41654.00
1298.059, 41606.79
1299.126, 41768.00
1300.194, 41523.56
1301.261, 41770.42
1302.328, 41914.02
1303.395, 41959.90
1304.462, 41615.41
1305.529, 41775.01
1306.596, 41732.59
1307.662, 41681.88
1308.728, 41912.41
1309.794, 41624.69
1310.860, 41850.76
1311.926, 41871.73
1312.991, 41986.57
1314.057, 41898.15
1315.122, 41872.50
1316.187, 42050.18
1317.252, 42115.27
1318.317, 42160.00
1319.381, 42201.00
1320.446, 41971.00
1321.510, 42242.00
1322.574, 42094.62
1323.638, 42033.38
1324.702, 42095.00
1325.766, 41885.00
1326.829, 42051.00
1327.892, 42071.00
1328.956, 41988.00
1330.019, 41887.00
1331.081, 41997.00
1332.144, 41988.00
1333.206, 41917.00
1334.269, 41908.00
1335.331, 42051.00
1336.393, 42023.00
1337.455, 42241.00
1338.516, 41964.00
1339.578, 41934.00
1340.639, 42289.00
1341.701, 42130.00
1342.762, 42004.00
1343.822, 42189.00
1344.883, 41903.00
1345.944, 42159.00
1347.004, 41914.00
1348.064, 42033.00
1349.124, 42368.00
1350.184, 42318.00
1351.244, 42066.00
1352.304, 42116.00
1353.363, 42098.00
1354.422, 42107.00
1355.481, 42109.00
1356.540, 42127.00
1357.599, 41840.00
1358.657, 42053.00
1359.716, 41799.00
1360.774, 42024.00
1361.832, 41943.00
1362.890, 42218.00
1363.948, 41963.00
1365.006, 42067.00
1366.063, 42003.00
1367.120, 42152.00
1368.178, 42480.00
1369.234, 42280.64
1370.291, 41842.00
1371.348, 42092.00
1372.404, 42063.00
1373.461, 42026.00
1374.517, 42290.00
1375.573, 41952.00
1376.629, 42000.00
1377.684, 42055.00
1378.740, 42022.00
1379.795, 42032.00
1380.850, 41848.00
1381.905, 42202.00
1382.960, 41966.00
1384.015, 42132.00
1385.070, 42033.00
1386.124, 41798.00
1387.178, 41914.00
1388.232, 41794.00
1389.286, 41957.00
1390.340, 42010.00
1391.393, 41742.00
1392.447, 41863.00
1393.500, 41854.40
1394.553, 42017.00
1395.606, 42031.00
1396.659, 41934.00
1397.711, 42125.00
1398.764, 42009.00
1399.816, 42019.00
1400.868, 42154.00
1401.920, 42153.00
1402.972, 41932.00
1404.023, 41960.00
1405.075, 41991.00
1406.126, 41952.00
1407.177, 42159.00
1408.228, 41936.00
1409.279, 42171.00
1410.330, 42085.00
1411.380, 41995.00
1412.431, 42244.00
1413.481, 41962.00
1414.531, 41943.00
1415.580, 42070.00
1416.630, 42058.00
1417.680, 42418.00
1418.729, 42004.00
1419.778, 42099.00
1420.827, 41933.00
1421.876, 42199.00
1422.925, 42145.00
1423.973, 42247.00
1425.022, 42015.00
1426.070, 42154.00
1427.118, 42301.00
1428.166, 41936.00
1429.214, 42121.00
1430.261, 42149.00
1431.309, 42007.00
1432.356, 42125.00
1433.403, 42221.00
1434.450, 42283.00
1435.497, 41923.00
1436.543, 42161.16
1437.590, 42296.07
1438.636, 42333.26
1439.682, 41980.08
1440.728, 42130.98
1441.774, 42079.87
1442.819, 42020.47
1443.865, 42242.32
1444.910, 41945.92
1445.955, 42163.30
1447.000, 42175.59
1448.045, 42281.75
1449.090, 42184.65
1450.134, 42150.32
1451.178, 42319.33
1452.223, 42375.75
1453.267, 42418.00
1454.310, 42245.00
1455.354, 42052.00
1456.398, 42076.00
1457.441, 42164.00
1458.484, 42047.00
1459.527, 42180.00
1460.570, 42207.29
1461.613, 42439.45
1462.655, 42568.35
1463.698, 42599.54
1464.740, 42240.36
1465.782, 42385.26
1466.824, 42328.15
1467.866, 42262.76
1468.907, 42478.61
1469.948, 42176.21
1470.990, 42387.61
1472.031, 42393.90
1473.072, 42494.07
1474.112, 42390.97
1475.153, 42350.66
1476.194, 42513.67
1477.234, 42564.10
1478.274, 42437.61
1479.314, 42543.74
1480.354, 42234.25
1481.393, 42289.48
1482.433, 42386.00
1483.472, 42177.00
1484.511, 42299.00
1485.550, 42127.00
1486.589, 42516.00
1487.628, 42048.00
1488.666, 42102.00
1489.704, 42553.00
1490.743, 42295.00
1491.781, 42106.00
1492.819, 42290.00
1493.856, 42254.00
1494.894, 42460.00
1495.931, 42322.02
1496.968, 41967.00
1498.005, 42056.00
1499.042, 42182.00
1500.079, 42078.00
1501.115, 42335.00
1502.152, 42044.00
1503.188, 42360.00
1504.224, 41924.47
1505.260, 42168.38
1506.296, 42309.03
1507.331, 42351.96
1508.367, 42004.53
1509.402, 42161.17
1510.437, 42115.80
1511.472, 42062.14
1512.507, 42289.73
1513.541, 41999.06
1514.576, 42222.19
1515.610, 42240.21
1516.644, 42352.11
1517.678, 42260.74
1518.712, 42232.15
1519.746, 42406.89
1520.779, 42469.04
1521.813, 42354.27
1522.846, 42472.12
1523.879, 42174.34
1524.912, 42234.00
1525.944, 42114.00
1526.977, 42223.00
1528.009, 42187.00
1529.041, 42224.00
1530.073, 42256.00
1531.105, 42110.00
1532.137, 42024.00
1533.168, 42219.00
1534.200, 42213.00
1535.231, 42316.00
1536.262, 42062.00
1537.293, 42293.00
1538.324, 42040.00
1539.354, 42205.00
1540.385, 42056.00
1541.415, 42324.00
1542.445, 42139.00
1543.475, 42380.00
1544.505, 42323.00
1545.534, 42278.00
1546.564, 42523.00
##END=



