##NAMES=Magnesio-hastingsite
##RRUFFID=R070288
##IDEAL CHEMISTRY=NaCa_2_(Mg_4_Fe^3+^)Si_6_Al_2_O_22_(OH)_2_
##LOCALITY=Dallas Gem Mine (Gem Mine; Benitoite Mine), New Idria District, San Benito County, California, USA
##OWNER=RRUFF
##SOURCE=Michael Scott
##DESCRIPTION=Dark brown to black prismatic crystals frozen in albite
##STATUS=The identification of this mineral is confirmed by single-crystal X-ray diffraction and chemical analysis.
##URL=rruff.info/R070288
##MEASURED CHEMISTRY=(Na_0.51_[box]_0.33_K_0.16_)_Σ=1_(Ca_1.75_Na_0.25_)_Σ=2_(Mg_3.02_Fe^2+^_0.61_Ti_0.37_)_Σ=4_(Fe^3+^_0.73_Al_0.27_)_Σ=1_Si_5.84_Al_2.16_O_22_(OH)_2_; (OH) estimated by difference
##PIN_ID=M01097
##ORIENTATION=Laser parallel to a* (1 0 0). Fiducial mark perpendicular to laser is parallel to b [0 1 0]
102.5110, 12418.00
103.7500, 12835.00
104.9890, 13461.00
106.2270, 14060.00
107.4650, 14051.00
108.7040, 13261.00
109.9420, 13407.00
111.1790, 13894.00
112.4170, 14741.00
113.6540, 15892.00
114.8920, 16165.00
116.1290, 15999.00
117.3650, 16205.00
118.6020, 16342.00
119.8390, 16035.75
121.0750, 16711.00
122.3110, 15389.00
123.5470, 14486.00
124.7830, 13892.00
126.0190, 14073.00
127.2540, 13808.00
128.4900, 13781.00
129.7250, 13752.00
130.9600, 13661.38
132.1950, 13712.00
133.4290, 13718.00
134.6640, 13744.72
135.8980, 13842.72
137.1320, 13918.18
138.3660, 13972.30
139.6000, 13941.18
140.8340, 14020.13
142.0670, 14054.93
143.3000, 14087.93
144.5330, 14182.33
145.7660, 14252.00
146.9990, 14255.00
148.2320, 14116.00
149.4640, 14394.00
150.6960, 14546.00
151.9280, 14517.00
153.1600, 14805.00
154.3920, 15221.00
155.6230, 15320.00
156.8550, 15509.00
158.0860, 15877.00
159.3170, 15847.00
160.5480, 16022.00
161.7780, 16021.00
163.0090, 15901.00
164.2390, 15595.00
165.4690, 15448.00
166.6990, 15112.00
167.9290, 14853.00
169.1590, 14718.38
170.3880, 14533.81
171.6180, 14477.00
172.8470, 14315.00
174.0760, 14291.00
175.3040, 14162.81
176.5330, 14176.00
177.7610, 14121.00
178.9900, 14116.00
180.2180, 14182.00
181.4460, 14053.00
182.6730, 14008.00
183.9010, 14080.00
185.1280, 13996.00
186.3560, 14082.00
187.5830, 14054.00
188.8100, 13976.00
190.0360, 14037.62
191.2630, 14042.78
192.4890, 14021.56
193.7150, 13974.76
194.9410, 13857.66
196.1670, 13806.97
197.3930, 13714.77
198.6180, 13610.75
199.8440, 13539.02
201.0690, 13377.53
202.2940, 13283.95
203.5190, 13232.00
204.7430, 12845.00
205.9680, 12822.00
207.1920, 12914.66
208.4160, 12727.00
209.6400, 12847.00
210.8640, 12780.07
212.0880, 12828.00
213.3110, 12700.00
214.5340, 13009.00
215.7570, 12960.00
216.9800, 13042.00
218.2030, 13016.00
219.4260, 13298.00
220.6480, 13252.00
221.8700, 13329.00
223.0920, 13383.00
224.3140, 13356.00
225.5360, 13259.00
226.7580, 13391.00
227.9790, 13496.00
229.2000, 13399.00
230.4210, 13510.00
231.6420, 13542.09
232.8630, 13619.39
234.0830, 13635.00
235.3040, 13815.00
236.5240, 13822.00
237.7440, 13845.00
238.9640, 13895.00
240.1830, 13822.00
241.4030, 13836.00
242.6220, 13651.00
243.8410, 13524.00
245.0600, 13503.00
246.2790, 13378.00
247.4980, 13278.00
248.7160, 12965.00
249.9340, 12846.00
251.1530, 12647.00
252.3710, 12581.26
253.5880, 12490.24
254.8060, 12387.05
256.0230, 12273.13
257.2410, 12084.37
258.4580, 12016.26
259.6750, 11914.53
260.8910, 11821.54
262.1080, 11800.38
263.3240, 11676.60
264.5410, 11632.00
265.7570, 11726.00
266.9730, 11593.00
268.1880, 11611.00
269.4040, 11543.00
270.6190, 11449.00
271.8350, 11394.00
273.0500, 11320.53
274.2650, 11272.00
275.4790, 11240.00
276.6940, 11221.00
277.9080, 11291.00
279.1220, 11208.00
280.3360, 11248.00
281.5500, 11145.09
282.7640, 11256.00
283.9770, 11314.31
285.1910, 11322.83
286.4040, 11132.47
287.6170, 11198.93
288.8300, 11162.47
290.0420, 11121.80
291.2550, 11224.41
292.4670, 11062.98
293.6790, 11163.33
294.8910, 11159.18
296.1030, 11202.85
297.3150, 11142.97
298.5260, 11115.08
299.7380, 11190.77
300.9490, 11209.11
302.1600, 11137.32
303.3710, 11112.00
304.5810, 11118.00
305.7920, 11081.00
307.0020, 10983.00
308.2120, 11094.00
309.4220, 10934.00
310.6320, 11252.00
311.8410, 11160.70
313.0510, 11091.00
314.2600, 11165.00
315.4690, 11057.00
316.6780, 11042.00
317.8870, 11071.55
319.0950, 11015.47
320.3040, 11165.00
321.5120, 11018.00
322.7200, 11162.00
323.9280, 11241.00
325.1360, 11044.00
326.3430, 11084.00
327.5510, 11150.00
328.7580, 11158.00
329.9650, 11149.00
331.1720, 11092.00
332.3790, 11015.00
333.5850, 10971.00
334.7910, 10901.00
335.9980, 11014.00
337.2040, 11070.00
338.4100, 11077.00
339.6150, 11046.00
340.8210, 11075.06
342.0260, 10993.00
343.2310, 11043.00
344.4360, 11091.00
345.6410, 11004.00
346.8460, 10979.00
348.0500, 10900.00
349.2550, 11031.00
350.4590, 11062.00
351.6630, 10922.00
352.8670, 11045.00
354.0700, 11004.96
355.2740, 11118.00
356.4770, 11058.00
357.6800, 11051.00
358.8830, 11134.00
360.0860, 11170.00
361.2890, 11198.00
362.4910, 11270.93
363.6930, 11309.58
364.8960, 11408.00
366.0980, 11414.00
367.2990, 11519.00
368.5010, 11568.00
369.7020, 11568.00
370.9040, 11593.00
372.1050, 11612.00
373.3060, 11848.00
374.5070, 11868.00
375.7070, 11970.00
376.9080, 12117.00
378.1080, 12193.89
379.3080, 12342.00
380.5080, 12402.00
381.7080, 12453.00
382.9070, 12493.00
384.1070, 12554.94
385.3060, 12724.00
386.5050, 12579.00
387.7040, 12794.00
388.9030, 12630.00
390.1010, 12315.00
391.3000, 12211.00
392.4980, 12293.00
393.6960, 12294.00
394.8940, 12138.00
396.0920, 12118.00
397.2890, 12125.00
398.4870, 12090.00
399.6840, 12047.00
400.8810, 12023.00
402.0780, 12153.00
403.2750, 12157.00
404.4710, 12332.00
405.6680, 12273.00
406.8640, 12331.00
408.0600, 12397.00
409.2560, 12471.00
410.4520, 12572.00
411.6470, 12493.00
412.8430, 12577.00
414.0380, 12638.00
415.2330, 12427.00
416.4280, 12544.00
417.6220, 12640.00
418.8170, 12733.00
420.0110, 12655.11
421.2050, 12302.00
422.4000, 12416.00
423.5930, 12285.00
424.7870, 12114.00
425.9810, 12249.00
427.1740, 12212.00
428.3670, 12114.00
429.5600, 12157.00
430.7530, 11996.00
431.9460, 11811.00
433.1380, 11699.00
434.3310, 11815.00
435.5230, 11722.00
436.7150, 11640.00
437.9070, 11430.00
439.0980, 11479.00
440.2900, 11322.78
441.4810, 11274.00
442.6720, 11223.00
443.8630, 11025.00
445.0540, 11165.00
446.2450, 11004.00
447.4350, 11033.00
448.6260, 10825.00
449.8160, 10817.00
451.0060, 10974.00
452.1960, 10915.00
453.3850, 10752.00
454.5750, 10942.00
455.7640, 10748.00
456.9530, 10734.00
458.1420, 10675.00
459.3310, 10806.00
460.5200, 10739.00
461.7080, 10720.00
462.8970, 10691.00
464.0850, 10681.00
465.2730, 10655.00
466.4610, 10598.00
467.6480, 10657.00
468.8360, 10591.00
470.0230, 10626.00
471.2100, 10681.00
472.3970, 10700.00
473.5840, 10645.00
474.7710, 10746.00
475.9570, 10648.00
477.1440, 10663.00
478.3300, 10750.00
479.5160, 10838.00
480.7020, 10886.00
481.8870, 10955.00
483.0730, 11006.16
484.2580, 11048.11
485.4430, 11092.00
486.6280, 11118.00
487.8130, 11146.00
488.9980, 11163.00
490.1820, 11259.87
491.3660, 11362.00
492.5510, 11448.00
493.7350, 11606.00
494.9180, 11670.00
496.1020, 11742.00
497.2860, 11729.00
498.4690, 11958.00
499.6520, 12017.00
500.8350, 12029.00
502.0180, 12171.00
503.2000, 12264.00
504.3830, 12484.00
505.5650, 12600.00
506.7470, 12576.00
507.9290, 12756.00
509.1110, 12784.33
510.2930, 12935.37
511.4740, 13068.78
512.6560, 13185.70
513.8370, 13236.21
515.0180, 13372.35
516.1980, 13474.07
517.3790, 13574.49
518.5600, 13722.67
519.7400, 13782.74
520.9200, 13930.07
522.1000, 14042.56
523.2800, 14097.00
524.4590, 14165.91
525.6390, 14283.00
526.8180, 14257.00
527.9970, 14246.00
529.1760, 14356.00
530.3550, 14399.00
531.5340, 14356.00
532.7120, 14237.00
533.8910, 14319.00
535.0690, 14233.00
536.2470, 14332.00
537.4250, 14352.00
538.6020, 14247.00
539.7800, 14385.00
540.9570, 14358.00
542.1340, 14387.78
543.3110, 14298.00
544.4880, 14218.87
545.6650, 14391.42
546.8410, 14485.07
548.0170, 14504.03
549.1940, 14224.66
550.3690, 14330.54
551.5450, 14282.02
552.7210, 14227.17
553.8960, 14387.27
555.0720, 14151.30
556.2470, 14307.98
557.4220, 14299.46
558.5970, 14382.00
559.7710, 14177.00
560.9460, 14314.00
562.1200, 14253.00
563.2940, 14403.00
564.4680, 14166.00
565.6420, 14306.00
566.8160, 14054.00
567.9890, 14069.00
569.1630, 14107.00
570.3360, 14118.00
571.5090, 13851.00
572.6820, 13754.00
573.8540, 13424.00
575.0270, 13307.00
576.1990, 13148.00
577.3710, 12732.00
578.5430, 12751.00
579.7150, 12345.00
580.8870, 12098.00
582.0580, 11718.00
583.2300, 11481.78
584.4010, 11242.00
585.5720, 11070.00
586.7430, 10792.00
587.9130, 10690.00
589.0840, 10478.00
590.2540, 10272.00
591.4240, 10276.00
592.5940, 10232.00
593.7640, 10058.00
594.9340, 9906.000
596.1030, 9854.000
597.2730, 9814.000
598.4420, 9797.000
599.6110, 9826.000
600.7800, 9691.000
601.9490, 9756.000
603.1170, 9641.000
604.2850, 9699.000
605.4540, 9713.000
606.6220, 9622.000
607.7900, 9658.000
608.9570, 9659.000
610.1250, 9610.000
611.2920, 9647.000
612.4590, 9619.000
613.6260, 9763.000
614.7930, 9671.000
615.9600, 9782.000
617.1270, 9739.000
618.2930, 9762.000
619.4590, 9818.000
620.6250, 9881.000
621.7910, 9925.378
622.9570, 10023.00
624.1220, 10023.00
625.2880, 10081.00
626.4530, 10097.00
627.6180, 10331.00
628.7830, 10414.00
629.9480, 10419.00
631.1120, 10435.00
632.2770, 10563.00
633.4410, 10657.00
634.6050, 10695.00
635.7690, 10933.00
636.9330, 10972.00
638.0960, 11092.00
639.2600, 11101.00
640.4230, 11366.00
641.5860, 11407.00
642.7490, 11673.00
643.9120, 11699.00
645.0740, 11855.00
646.2370, 11975.45
647.3990, 12084.59
648.5610, 12230.00
649.7230, 12296.00
650.8850, 12416.00
652.0460, 12531.00
653.2080, 12635.00
654.3690, 12742.00
655.5300, 12895.00
656.6910, 12904.00
657.8520, 12992.00
659.0130, 13217.00
660.1730, 13190.00
661.3330, 13290.00
662.4930, 13213.00
663.6530, 13277.00
664.8130, 13172.00
665.9730, 13217.21
667.1320, 13124.98
668.2920, 13163.00
669.4510, 12919.00
670.6100, 12636.00
671.7680, 12467.00
672.9270, 12322.00
674.0860, 12258.00
675.2440, 12194.00
676.4020, 12096.00
677.5600, 12030.00
678.7180, 11910.00
679.8760, 11822.00
681.0330, 11721.00
682.1900, 11628.97
683.3480, 11483.58
684.5050, 11466.30
685.6610, 11430.02
686.8180, 11375.84
687.9750, 11239.90
689.1310, 11217.57
690.2870, 11154.62
691.4430, 11093.33
692.5990, 11096.95
693.7550, 10990.89
694.9100, 11000.53
696.0660, 10968.84
697.2210, 10961.15
698.3760, 10912.56
699.5310, 10932.29
700.6860, 10935.53
701.8400, 10931.88
702.9940, 10876.59
704.1490, 10906.40
705.3030, 10913.37
706.4570, 10927.10
707.6100, 10991.82
708.7640, 10985.39
709.9170, 11065.48
711.0710, 11122.30
712.2240, 11201.44
713.3770, 11305.00
714.5290, 11382.80
715.6820, 11521.00
716.8340, 11576.00
717.9870, 11643.00
719.1390, 11748.00
720.2910, 11767.00
721.4430, 11860.00
722.5940, 11890.00
723.7460, 11884.00
724.8970, 11891.00
726.0480, 11956.11
727.1990, 12054.00
728.3500, 12113.00
729.5000, 12147.00
730.6510, 12272.00
731.8010, 12354.00
732.9510, 12313.00
734.1010, 12340.00
735.2510, 12377.94
736.4010, 12320.19
737.5500, 12490.00
738.7000, 12291.00
739.8490, 12430.00
740.9980, 12547.00
742.1470, 12531.00
743.2950, 12456.00
744.4440, 12579.00
745.5920, 12461.00
746.7400, 12501.00
747.8880, 12609.00
749.0360, 12485.00
750.1840, 12470.00
751.3310, 12679.00
752.4790, 12710.00
753.6260, 12699.81
754.7730, 12758.45
755.9200, 12804.20
757.0670, 12837.99
758.2130, 12810.10
759.3600, 12872.48
760.5060, 12905.16
761.6520, 12941.06
762.7980, 13029.36
763.9440, 13034.27
765.0890, 13131.03
766.2350, 13197.63
767.3800, 13284.74
768.5250, 13367.34
769.6700, 13455.94
770.8150, 13543.00
771.9590, 13609.00
773.1040, 13719.70
774.2480, 13723.00
775.3920, 13904.00
776.5360, 13870.00
777.6800, 13956.00
778.8240, 13997.00
779.9670, 14156.00
781.1100, 14253.00
782.2540, 14333.00
783.3970, 14501.00
784.5390, 14620.00
785.6820, 14828.00
786.8240, 14924.27
787.9670, 15007.22
789.1090, 15095.00
790.2510, 15053.00
791.3930, 15020.00
792.5350, 14896.00
793.6760, 15012.00
794.8170, 15064.00
795.9590, 14909.00
797.1000, 14962.00
798.2410, 14850.00
799.3810, 14843.00
800.5220, 14667.00
801.6620, 14656.00
802.8030, 14498.00
803.9430, 14455.00
805.0820, 14282.00
806.2220, 14295.00
807.3620, 14280.00
808.5010, 14082.00
809.6410, 14065.00
810.7800, 13939.00
811.9190, 13898.00
813.0570, 13696.00
814.1960, 13629.00
815.3340, 13624.00
816.4730, 13340.00
817.6110, 13390.00
818.7490, 13091.00
819.8870, 13205.00
821.0240, 13040.00
822.1620, 13054.00
823.2990, 12767.00
824.4360, 12739.00
825.5730, 12723.00
826.7100, 12601.00
827.8470, 12508.00
828.9830, 12391.00
830.1200, 12328.00
831.2560, 12186.00
832.3920, 12091.00
833.5280, 12024.00
834.6630, 11978.00
835.7990, 11904.81
836.9340, 11832.59
838.0700, 11729.00
839.2050, 11730.00
840.3400, 11514.00
841.4740, 11568.00
842.6090, 11496.00
843.7430, 11463.00
844.8780, 11458.00
846.0120, 11355.00
847.1460, 11334.00
848.2790, 11243.00
849.4130, 11395.00
850.5460, 11317.00
851.6800, 11219.00
852.8130, 11177.00
853.9460, 11070.00
855.0790, 11147.00
856.2110, 11171.00
857.3440, 11174.67
858.4760, 11162.00
859.6080, 11231.00
860.7400, 11195.00
861.8720, 11183.00
863.0040, 11114.00
864.1350, 11299.00
865.2670, 11221.00
866.3980, 11291.00
867.5290, 11410.00
868.6600, 11281.00
869.7900, 11365.00
870.9210, 11248.00
872.0510, 11427.00
873.1820, 11325.00
874.3120, 11423.00
875.4420, 11478.00
876.5710, 11600.00
877.7010, 11436.00
878.8300, 11523.80
879.9600, 11740.00
881.0890, 11522.00
882.2180, 11601.00
883.3460, 11603.00
884.4750, 11481.00
885.6040, 11668.00
886.7320, 11558.00
887.8600, 11782.00
888.9880, 11760.00
890.1160, 11859.00
891.2430, 11882.00
892.3710, 11814.00
893.4980, 11882.00
894.6260, 11939.00
895.7530, 12014.00
896.8790, 11915.00
898.0060, 11907.00
899.1330, 11806.00
900.2590, 12068.00
901.3850, 11865.00
902.5110, 11992.00
903.6370, 11821.00
904.7630, 11869.92
905.8890, 11886.56
907.0140, 12000.00
908.1390, 11819.00
909.2640, 11978.00
910.3890, 11715.00
911.5140, 11708.82
912.6390, 11812.93
913.7630, 11864.45
914.8870, 11866.18
916.0120, 11669.00
917.1360, 11728.67
918.2590, 11685.43
919.3830, 11637.95
920.5070, 11733.77
921.6300, 11565.55
922.7530, 11659.11
923.8760, 11648.17
924.9990, 11685.05
926.1220, 11618.38
927.2440, 11583.71
928.3670, 11621.00
929.4890, 11496.00
930.6110, 11623.00
931.7330, 11714.00
932.8540, 11562.00
933.9760, 11597.00
935.0980, 11702.00
936.2190, 11700.00
937.3400, 11843.00
938.4610, 11746.00
939.5820, 11644.00
940.7020, 11849.00
941.8230, 11971.00
942.9430, 11826.00
944.0630, 11853.00
945.1830, 12008.00
946.3030, 11931.00
947.4230, 11961.00
948.5420, 11950.00
949.6610, 12052.00
950.7810, 12063.00
951.9000, 12013.00
953.0190, 12080.00
954.1370, 12099.00
955.2560, 12158.00
956.3740, 12160.00
957.4920, 12164.00
958.6110, 12246.00
959.7280, 12158.00
960.8460, 12158.00
961.9640, 12337.00
963.0810, 12229.52
964.1990, 12250.90
965.3160, 12177.00
966.4330, 12193.00
967.5490, 12167.00
968.6660, 12208.00
969.7830, 12204.14
970.8990, 12239.00
972.0150, 12209.00
973.1310, 12194.00
974.2470, 12163.00
975.3630, 12298.00
976.4780, 12250.00
977.5930, 12310.00
978.7090, 12418.00
979.8240, 12408.00
980.9390, 12403.00
982.0530, 12330.00
983.1680, 12412.00
984.2820, 12478.00
985.3970, 12425.00
986.5110, 12556.00
987.6250, 12705.00
988.7380, 12747.00
989.8520, 12775.00
990.9660, 12780.00
992.0790, 12789.00
993.1920, 13003.00
994.3050, 12955.00
995.4180, 13060.00
996.5300, 13045.00
997.6430, 13193.00
998.7550, 13229.00
999.8680, 13352.00
1000.980, 13436.00
1002.091, 13473.76
1003.203, 13578.00
1004.315, 13544.00
1005.426, 13614.00
1006.537, 13624.00
1007.648, 13640.00
1008.759, 13696.00
1009.870, 13734.96
1010.981, 13746.91
1012.091, 13791.79
1013.201, 13811.73
1014.312, 13807.58
1015.422, 13734.62
1016.531, 13729.58
1017.641, 13684.50
1018.751, 13629.00
1019.860, 13607.38
1020.969, 13507.29
1022.078, 13505.53
1023.187, 13487.98
1024.296, 13455.49
1025.404, 13363.37
1026.513, 13348.27
1027.621, 13302.33
1028.729, 13255.11
1029.837, 13250.88
1030.945, 13167.45
1032.052, 13162.58
1033.160, 13126.32
1034.267, 13104.45
1035.374, 13041.00
1036.481, 12879.00
1037.588, 12821.00
1038.695, 12606.00
1039.801, 12726.00
1040.907, 12567.00
1042.014, 12524.00
1043.120, 12645.00
1044.225, 12566.00
1045.331, 12441.00
1046.437, 12499.00
1047.542, 12331.00
1048.647, 12317.00
1049.752, 12450.00
1050.857, 12243.00
1051.962, 12220.00
1053.067, 12294.00
1054.171, 12286.00
1055.275, 12060.00
1056.380, 12164.00
1057.484, 12110.00
1058.587, 11984.00
1059.691, 12048.00
1060.795, 11978.00
1061.898, 11942.08
1063.001, 12030.18
1064.104, 12065.67
1065.207, 12051.37
1066.310, 11838.19
1067.412, 11881.86
1068.515, 11822.57
1069.617, 11759.10
1070.719, 11838.92
1071.821, 11654.69
1072.923, 11732.23
1074.024, 11705.31
1075.126, 11726.18
1076.227, 11643.52
1077.328, 11592.85
1078.429, 11645.78
1079.530, 11641.34
1080.631, 11546.76
1081.731, 11570.73
1082.831, 11382.94
1083.932, 11587.00
1085.032, 11443.00
1086.132, 11575.00
1087.231, 11387.00
1088.331, 11411.00
1089.430, 11316.00
1090.530, 11307.00
1091.629, 11294.00
1092.728, 11315.00
1093.826, 11308.00
1094.925, 11219.00
1096.023, 11277.00
1097.122, 11191.12
1098.220, 11206.00
1099.318, 11114.00
1100.416, 10967.00
1101.513, 11006.00
1102.611, 11067.00
1103.708, 11150.00
1104.806, 10827.00
1105.903, 10974.00
1107.000, 10908.00
1108.096, 10874.00
1109.193, 10949.00
1110.289, 10731.00
1111.386, 10835.00
1112.482, 10741.00
1113.578, 10744.00
1114.673, 10654.00
1115.769, 10666.00
1116.865, 10706.00
1117.960, 10728.00
1119.055, 10697.00
1120.150, 10621.00
1121.245, 10809.00
1122.340, 10755.00
1123.434, 10564.00
1124.529, 10640.00
1125.623, 10462.00
1126.717, 10603.00
1127.811, 10493.00
1128.905, 10584.00
1129.998, 10555.00
1131.092, 10569.00
1132.185, 10645.00
1133.278, 10495.00
1134.371, 10425.00
1135.464, 10482.00
1136.557, 10451.00
1137.649, 10557.00
1138.742, 10380.99
1139.834, 10487.12
1140.926, 10540.65
1142.018, 10544.38
1143.109, 10349.24
1144.201, 10410.92
1145.292, 10369.68
1146.384, 10324.20
1147.475, 10422.04
1148.566, 10255.83
1149.657, 10351.39
1150.747, 10342.46
1151.838, 10381.35
1152.928, 10391.00
1154.018, 10356.99
1155.108, 10458.00
1156.198, 10313.00
1157.288, 10286.00
1158.377, 10334.00
1159.467, 10302.00
1160.556, 10304.00
1161.645, 10254.00
1162.734, 10281.95
1163.823, 10234.80
1164.911, 10225.47
1166.000, 10180.00
1167.088, 10177.00
1168.176, 10186.00
1169.264, 10128.00
1170.352, 10303.00
1171.440, 10299.00
1172.527, 10265.00
1173.615, 10311.00
1174.702, 10181.00
1175.789, 10188.00
1176.876, 10219.00
1177.963, 10137.00
1179.049, 10309.00
1180.136, 10174.00
1181.222, 10291.00
1182.308, 10248.00
1183.394, 10300.00
1184.480, 10168.00
1185.566, 10377.00
1186.651, 10211.00
1187.736, 10269.00
1188.822, 10157.00
1189.907, 10210.00
1190.992, 10159.00
1192.076, 10171.00
1193.161, 10206.03
1194.245, 10294.51
1195.330, 10343.53
1196.414, 10355.21
1197.498, 10217.73
1198.581, 10272.87
1199.665, 10250.82
1200.749, 10225.59
1201.832, 10307.84
1202.915, 10192.06
1203.998, 10272.60
1205.081, 10274.78
1206.164, 10312.82
1207.246, 10273.19
1208.329, 10244.00
1209.411, 10144.00
1210.493, 10147.00
1211.575, 10205.00
1212.657, 10184.93
1213.738, 10218.72
1214.820, 10266.00
1215.901, 10258.00
1216.982, 10333.00
1218.063, 10355.00
1219.144, 10311.00
1220.225, 10342.00
1221.305, 10316.00
1222.386, 10314.41
1223.466, 10222.00
1224.546, 10273.00
1225.626, 10326.00
1226.706, 10229.00
1227.785, 10248.62
1228.865, 10339.66
1229.944, 10391.25
1231.023, 10405.49
1232.102, 10270.57
1233.181, 10328.26
1234.260, 10308.77
1235.338, 10286.10
1236.417, 10370.91
1237.495, 10257.68
1238.573, 10340.79
1239.651, 10345.52
1240.729, 10386.12
1241.806, 10349.04
1242.884, 10335.96
1243.961, 10400.58
1245.038, 10422.17
1246.115, 10376.16
1247.192, 10419.04
1248.269, 10303.09
1249.345, 10326.52
1250.421, 10410.07
1251.498, 10367.97
1252.574, 10412.26
1253.650, 10423.65
1254.725, 10285.49
1255.801, 10407.41
1256.876, 10416.86
1257.952, 10310.81
1259.027, 10423.82
1260.102, 10333.70
1261.177, 10316.08
1262.251, 10353.02
1263.326, 10333.09
1264.400, 10402.84
1265.474, 10386.19
1266.548, 10361.81
1267.622, 10371.13
1268.696, 10349.38
1269.770, 10375.94
1270.843, 10345.92
1271.916, 10376.04
1272.990, 10419.78
1274.063, 10359.16
1275.135, 10409.03
1276.208, 10287.56
1277.281, 10309.45
1278.353, 10315.91
1279.425, 10318.00
1280.497, 10341.00
1281.569, 10332.57
1282.641, 10355.00
1283.712, 10308.00
1284.784, 10326.00
1285.855, 10272.00
1286.926, 10351.00
1287.997, 10397.00
1289.068, 10400.00
1290.139, 10367.00
1291.209, 10302.00
1292.280, 10429.00
1293.350, 10369.00
1294.420, 10435.00
1295.490, 10361.00
1296.560, 10389.51
1297.629, 10374.00
1298.699, 10432.00
1299.768, 10370.00
1300.837, 10416.00
1301.906, 10511.00
1302.975, 10519.00
1304.043, 10419.00
1305.112, 10466.00
1306.180, 10392.00
1307.249, 10421.00
1308.317, 10305.00
1309.385, 10466.00
1310.452, 10375.00
1311.520, 10471.00
1312.587, 10426.00
1313.655, 10452.00
1314.722, 10572.00
1315.789, 10468.00
1316.856, 10408.00
1317.922, 10324.00
1318.989, 10329.27
1320.055, 10565.00
1321.121, 10412.00
1322.187, 10446.00
1323.253, 10583.00
1324.319, 10449.00
1325.385, 10478.00
1326.450, 10595.00
1327.515, 10436.00
1328.581, 10503.00
1329.646, 10541.00
1330.710, 10581.00
1331.775, 10464.00
1332.840, 10602.00
1333.904, 10660.00
1334.968, 10471.00
1336.032, 10482.00
1337.096, 10643.00
1338.160, 10430.00
1339.224, 10470.00
1340.287, 10636.00
1341.350, 10521.00
1342.414, 10600.97
1343.477, 10655.54
1344.539, 10687.55
1345.602, 10698.23
1346.665, 10623.67
1347.727, 10659.18
1348.789, 10650.57
1349.851, 10640.16
1350.913, 10691.16
1351.975, 10629.00
1353.037, 10679.02
1354.098, 10684.26
1355.160, 10710.00
1356.221, 10691.35
1357.282, 10686.41
1358.343, 10725.86
1359.403, 10713.18
1360.464, 10708.18
1361.524, 10712.00
1362.585, 10667.00
1363.645, 10628.00
1364.705, 10582.00
1365.765, 10673.00
1366.824, 10652.00
1367.884, 10620.00
1368.943, 10726.00
1370.002, 10611.00
1371.061, 10594.00
1372.120, 10635.00
1373.179, 10685.00
1374.237, 10713.00
1375.296, 10710.00
1376.354, 10740.00
1377.412, 10542.00
1378.470, 10707.00
1379.528, 10604.00
1380.586, 10634.00
1381.643, 10716.00
1382.701, 10619.00
1383.758, 10692.00
1384.815, 10583.00
1385.872, 10758.00
1386.929, 10650.00
1387.985, 10656.00
1389.042, 10628.00
1390.098, 10637.81
1391.154, 10590.00
1392.210, 10701.00
1393.266, 10702.00
1394.322, 10713.00
1395.377, 10572.00
1396.433, 10571.00
1397.488, 10767.00
1398.543, 10665.20
1399.598, 10754.00
1400.653, 10655.00
1401.707, 10641.00
1402.762, 10591.00
1403.816, 10739.00
1404.870, 10694.00
1405.924, 10672.00
1406.978, 10657.00
1408.032, 10658.00
1409.085, 10743.00
1410.139, 10734.00
1411.192, 10787.00
1412.245, 10661.00
1413.298, 10766.00
1414.351, 10625.00
1415.404, 10720.00
1416.456, 10637.00
1417.509, 10827.00
1418.561, 10705.00
1419.613, 10818.00
1420.665, 10869.00
1421.717, 10718.00
1422.768, 10750.00
1423.820, 10788.00
1424.871, 10765.00
1425.922, 10774.00
1426.973, 10815.00
1428.024, 10874.00
1429.075, 10726.00
1430.125, 10810.00
1431.175, 10944.00
1432.226, 10758.00
1433.276, 10788.00
1434.326, 11067.00
1435.376, 10940.24
1436.425, 11016.00
1437.475, 10989.00
1438.524, 10892.00
1439.573, 10936.00
1440.622, 10891.77
1441.671, 10904.00
1442.720, 10895.00
1443.768, 10948.00
1444.817, 10999.00
1445.865, 10960.89
1446.913, 10963.68
1447.961, 10902.00
1449.009, 10900.00
1450.057, 10874.00
1451.104, 10865.00
1452.152, 11068.00
1453.199, 10987.00
1454.246, 10938.00
1455.293, 11099.00
1456.339, 10913.00
1457.386, 11045.00
1458.433, 10913.00
1459.479, 10892.00
1460.525, 11042.00
1461.571, 11016.00
1462.617, 11014.00
1463.663, 11096.00
1464.708, 11024.00
1465.754, 11032.00
1466.799, 10891.00
1467.844, 11056.00
1468.889, 11051.00
1469.934, 11190.00
1470.978, 11186.86
1472.023, 11153.69
1473.067, 11176.00
1474.111, 11025.00
1475.155, 11011.00
1476.199, 10930.00
1477.243, 11063.00
1478.287, 10980.00
1479.330, 11006.00
1480.373, 11175.00
1481.417, 11048.00
1482.460, 10993.00
1483.502, 10973.00
1484.545, 11053.00
1485.588, 11014.00
1486.630, 11067.00
1487.672, 11060.00
1488.714, 11019.00
1489.756, 11057.00
1490.798, 11152.00
1491.840, 11120.89
1492.881, 11208.00
1493.923, 11157.00
1494.964, 11082.00
1496.005, 11138.00
1497.046, 10951.00
1498.087, 11015.00
1499.127, 11167.00
1500.168, 11091.00
1501.208, 11022.00
1502.248, 11087.00
1503.288, 11141.00
1504.328, 11074.00
1505.368, 11047.00
1506.407, 11199.00
1507.446, 11052.00
1508.486, 11042.00
1509.525, 11204.00
1510.564, 11118.00
1511.603, 11076.00
1512.641, 11228.00
1513.680, 11113.00
1514.718, 11114.00
1515.756, 11126.00
1516.794, 11074.00
1517.832, 11138.00
1518.870, 11144.00
1519.907, 11082.00
1520.945, 11125.00
1521.982, 11090.00
1523.019, 11249.00
1524.056, 11265.00
1525.093, 11163.00
1526.130, 11225.00
1527.166, 11129.00
1528.203, 11121.00
1529.239, 11130.00
1530.275, 11142.00
1531.311, 11142.99
1532.347, 11145.76
1533.383, 11164.00
1534.418, 11152.00
1535.453, 11177.00
1536.489, 11202.00
1537.524, 11117.00
1538.559, 11159.00
1539.593, 11172.00
1540.628, 11262.00
1541.662, 11278.00
1542.697, 11274.00
1543.731, 11161.00
1544.765, 11250.00
1545.799, 11185.00
1546.832, 11193.00
1547.866, 11270.00
1548.899, 11090.27
1549.933, 11289.25
1550.966, 11401.43
1551.999, 11431.47
1553.031, 11133.34
1554.064, 11258.97
1555.097, 11214.77
1556.129, 11163.61
1557.161, 11348.88
1558.193, 11098.48
1559.225, 11280.00
1560.257, 11289.11
1561.289, 11377.13
1562.320, 11294.27
1563.351, 11264.19
1564.383, 11405.04
1565.414, 11451.24
1566.444, 11348.71
1567.475, 11441.75
1568.506, 11185.38
1569.536, 11235.61
1570.566, 11418.13
1571.597, 11324.19
1572.627, 11420.35
1573.656, 11444.11
1574.686, 11272.00
1575.716, 11204.00
1576.745, 11256.00
1577.774, 11613.00
##END=



