##NAMES=Magnesio-hastingsite
##RRUFFID=R040010
##IDEAL CHEMISTRY=NaCa_2_(Mg_4_Fe^3+^)Si_6_Al_2_O_22_(OH)_2_
##LOCALITY=Amity, New York, USA
##OWNER=RRUFF
##SOURCE=University of Arizona Mineral Museum
##DESCRIPTION=Group of black prismatic crystals
##STATUS=The identification of this mineral has been confirmed by X-ray diffraction and chemical analysis
##URL=rruff.info/R040010
##MEASURED CHEMISTRY=(Na_0.50_K_0.43_[box]_0.07_)_Σ=1_(Ca_1.77_Na_0.23_)_Σ=2_(Mg_1.74_Fe_1.22_Fe^3+^_0.79_Mn_0.57_Al_0.30_Zn_0.25_Ti_0.13_)_Σ=5_(Si_5.95_Al_2.05_)_Σ=8_O_22_((OH)_1.75_F_0.22_Cl_0.03_)_Σ=2_; OH estimated by charge balance
##PIN_ID=L00491
##ORIENTATION=Laser parallel to [1 0 1]. Fiducial mark perpendicular to laser is parallel to b* (0 1 0)
159.6920, 33460.00
160.9250, 33792.00
162.1560, 33739.00
163.3880, 34636.00
164.6200, 34889.00
165.8510, 34551.00
167.0820, 34800.00
168.3130, 34714.00
169.5440, 35111.00
170.7750, 35365.00
172.0050, 35696.00
173.2350, 35582.00
174.4650, 35964.00
175.6950, 36150.00
176.9250, 36181.00
178.1550, 36792.00
179.3840, 37924.00
180.6130, 37230.00
181.8420, 37844.00
183.0710, 37332.00
184.3000, 37672.00
185.5280, 37894.00
186.7570, 37937.00
187.9850, 37508.00
189.2130, 37588.00
190.4400, 37352.00
191.6680, 37195.00
192.8960, 36991.00
194.1230, 37223.00
195.3500, 37197.00
196.5770, 37087.00
197.8030, 37027.00
199.0300, 37228.00
200.2560, 37705.00
201.4830, 37762.00
202.7090, 37464.00
203.9340, 36547.00
205.1600, 35536.00
206.3860, 35237.00
207.6110, 35451.00
208.8360, 35796.00
210.0610, 36338.00
211.2860, 36906.00
212.5100, 37575.00
213.7350, 37846.00
214.9590, 38410.00
216.1830, 38748.00
217.4070, 39366.00
218.6310, 39665.00
219.8540, 39934.00
221.0780, 40576.00
222.3010, 40523.00
223.5240, 40297.00
224.7470, 40613.00
225.9690, 40305.00
227.1920, 39671.00
228.4140, 39606.00
229.6360, 39072.00
230.8580, 38307.00
232.0800, 38086.00
233.3020, 37647.00
234.5230, 37206.00
235.7440, 36807.00
236.9650, 36530.00
238.1860, 36237.00
239.4070, 35992.00
240.6280, 35912.00
241.8480, 35526.00
243.0680, 35134.00
244.2880, 34933.00
245.5080, 35054.00
246.7280, 34619.00
247.9470, 34677.00
249.1660, 34599.00
250.3860, 34511.00
251.6040, 34293.87
252.8230, 34479.83
254.0420, 34580.74
255.2600, 34601.16
256.4790, 34300.02
257.6970, 34414.12
258.9150, 34361.80
260.1320, 34302.68
261.3500, 34475.21
262.5670, 34220.86
263.7840, 34389.73
265.0010, 34495.00
266.2180, 34588.00
267.4350, 34304.00
268.6510, 34605.00
269.8680, 34631.00
271.0840, 34920.00
272.3000, 34699.00
273.5160, 34915.00
274.7310, 34823.00
275.9470, 34987.00
277.1620, 35002.00
278.3770, 35095.00
279.5920, 35318.00
280.8070, 35068.00
282.0210, 35474.00
283.2360, 35313.00
284.4500, 35523.00
285.6640, 35412.00
286.8780, 35578.00
288.0920, 35424.00
289.3050, 35491.00
290.5180, 35579.00
291.7320, 35408.00
292.9450, 35629.00
294.1570, 35783.00
295.3700, 35349.00
296.5830, 35392.00
297.7950, 35474.00
299.0070, 35338.00
300.2190, 35428.96
301.4310, 35399.32
302.6420, 35471.00
303.8540, 35337.00
305.0650, 35330.00
306.2760, 35186.00
307.4870, 35440.00
308.6980, 35268.00
309.9080, 35363.00
311.1190, 35354.85
312.3290, 35334.49
313.5390, 35224.00
314.7490, 35343.00
315.9580, 35141.00
317.1680, 35077.00
318.3770, 34959.00
319.5860, 35346.00
320.7950, 35022.00
322.0040, 35105.00
323.2130, 35180.00
324.4210, 34892.00
325.6290, 35156.00
326.8380, 35010.00
328.0460, 35293.00
329.2530, 35273.00
330.4610, 35294.00
331.6680, 35659.00
332.8760, 35368.00
334.0830, 35249.00
335.2890, 35551.00
336.4960, 35488.00
337.7030, 35448.00
338.9090, 35539.00
340.1150, 35878.00
341.3210, 35858.00
342.5270, 36171.00
343.7330, 36085.00
344.9380, 36323.00
346.1440, 36531.00
347.3490, 36860.00
348.5540, 37143.00
349.7590, 37490.00
350.9630, 37892.00
352.1680, 37949.00
353.3720, 38391.00
354.5760, 38523.00
355.7800, 39156.00
356.9840, 39132.00
358.1870, 39385.00
359.3910, 39626.00
360.5940, 39861.00
361.7970, 40113.00
363.0000, 40124.00
364.2030, 40216.00
365.4050, 40155.91
366.6080, 39986.00
367.8100, 39883.00
369.0120, 39738.81
370.2140, 39315.00
371.4150, 39392.00
372.6170, 39095.00
373.8180, 38821.00
375.0190, 38722.00
376.2200, 38450.00
377.4210, 38318.00
378.6220, 37893.00
379.8220, 38037.00
381.0230, 37645.00
382.2230, 37484.00
383.4230, 37041.00
384.6220, 36928.75
385.8220, 36672.66
387.0220, 36666.00
388.2210, 36410.00
389.4200, 36277.00
390.6190, 36189.70
391.8180, 36069.30
393.0160, 35967.00
394.2150, 35956.00
395.4130, 35819.00
396.6110, 35774.00
397.8090, 35398.00
399.0060, 35680.00
400.2040, 35565.00
401.4010, 35902.00
402.5980, 36434.00
403.7950, 35278.00
404.9920, 35355.00
406.1890, 35518.00
407.3860, 35473.00
408.5820, 35218.00
409.7780, 35593.00
410.9740, 35169.00
412.1700, 35510.00
413.3650, 35361.00
414.5610, 35508.00
415.7560, 35339.00
416.9510, 35784.00
418.1460, 35679.61
419.3410, 35740.00
420.5360, 35736.00
421.7300, 36094.00
422.9240, 36161.00
424.1180, 36353.00
425.3120, 36136.00
426.5060, 36178.00
427.7000, 36089.00
428.8930, 36151.00
430.0860, 36064.00
431.2790, 36123.00
432.4720, 36010.00
433.6650, 35901.00
434.8580, 35483.00
436.0500, 35672.00
437.2420, 35515.73
438.4340, 35655.00
439.6260, 35483.00
440.8180, 35541.00
442.0090, 35466.00
443.2010, 35184.00
444.3920, 35331.00
445.5830, 35127.00
446.7740, 35138.00
447.9640, 35212.00
449.1550, 34740.00
450.3450, 34864.00
451.5350, 34773.00
452.7250, 35161.00
453.9150, 34912.00
455.1050, 35031.00
456.2940, 34929.00
457.4830, 34563.00
458.6720, 34989.00
459.8610, 34997.00
461.0500, 34840.00
462.2390, 34769.00
463.4270, 34721.00
464.6150, 35152.00
465.8040, 34555.00
466.9910, 34801.00
468.1790, 34921.00
469.3670, 34664.00
470.5540, 34795.00
471.7410, 34998.00
472.9280, 34964.00
474.1150, 35008.00
475.3020, 34998.00
476.4890, 34945.00
477.6750, 35028.00
478.8610, 35099.00
480.0470, 35235.00
481.2330, 35432.00
482.4190, 35512.00
483.6040, 35694.00
484.7900, 35754.00
485.9750, 36021.00
487.1600, 36160.00
488.3450, 36348.00
489.5290, 36416.00
490.7140, 36601.00
491.8980, 36665.00
493.0820, 36924.00
494.2660, 37230.00
495.4500, 37238.00
496.6340, 37430.00
497.8170, 37694.70
499.0010, 37856.00
500.1840, 38133.00
501.3670, 38498.00
502.5500, 38525.00
503.7320, 38951.00
504.9150, 39206.00
506.0970, 39185.00
507.2790, 39533.00
508.4610, 39823.00
509.6430, 40040.00
510.8250, 40162.00
512.0060, 40028.00
513.1870, 40423.00
514.3680, 40848.00
515.5490, 40847.00
516.7300, 41271.00
517.9110, 41576.00
519.0910, 42063.00
520.2710, 42336.00
521.4510, 42669.00
522.6310, 43078.00
523.8110, 43119.00
524.9910, 43281.00
526.1700, 43514.00
527.3490, 43750.00
528.5280, 43908.85
529.7070, 44383.00
530.8860, 44229.00
532.0650, 44281.00
533.2430, 44370.00
534.4210, 44093.00
535.5990, 44421.00
536.7770, 44285.00
537.9550, 44232.00
539.1320, 44060.00
540.3100, 44072.00
541.4870, 43683.00
542.6640, 43470.00
543.8410, 43126.00
545.0170, 43193.00
546.1940, 42820.00
547.3700, 42960.00
548.5470, 42859.00
549.7230, 42584.00
550.8980, 42568.00
552.0740, 42174.00
553.2500, 42324.00
554.4250, 42076.00
555.6000, 42028.00
556.7750, 41906.00
557.9500, 41875.00
559.1250, 41823.00
560.2990, 41670.24
561.4730, 41544.00
562.6480, 41334.00
563.8220, 41113.00
564.9950, 40842.00
566.1690, 40782.00
567.3430, 40515.00
568.5160, 40572.00
569.6890, 40220.00
570.8620, 40063.00
572.0350, 39775.00
573.2070, 39397.00
574.3800, 39375.00
575.5520, 39423.00
576.7240, 38903.00
577.8960, 38713.00
579.0680, 38505.00
580.2400, 38255.67
581.4110, 38169.49
582.5830, 37942.00
583.7540, 38004.00
584.9250, 37851.00
586.0950, 37803.00
587.2660, 37738.00
588.4370, 37333.00
589.6070, 37321.00
590.7770, 37308.00
591.9470, 37037.00
593.1170, 37026.00
594.2860, 37355.00
595.4560, 37086.00
596.6250, 37124.00
597.7940, 36916.00
598.9630, 36884.00
600.1320, 37005.00
601.3000, 37039.00
602.4690, 36910.00
603.6370, 37202.00
604.8050, 37268.00
605.9730, 37144.00
607.1410, 37207.00
608.3090, 37495.00
609.4760, 37598.00
610.6430, 37698.05
611.8100, 37448.00
612.9770, 37818.00
614.1440, 37757.00
615.3110, 37707.00
616.4770, 37975.00
617.6430, 38170.00
618.8090, 37904.00
619.9750, 37906.00
621.1410, 38169.00
622.3070, 38369.00
623.4720, 38487.46
624.6370, 38549.00
625.8020, 38818.00
626.9670, 39085.00
628.1320, 39265.00
629.2970, 39194.00
630.4610, 39429.00
631.6250, 39534.00
632.7890, 40051.00
633.9530, 40179.00
635.1170, 40305.00
636.2810, 40265.00
637.4440, 40639.00
638.6070, 40726.00
639.7700, 41013.00
640.9330, 41239.00
642.0960, 41456.00
643.2590, 41698.00
644.4210, 41829.00
645.5830, 41809.00
646.7450, 42095.00
647.9070, 42259.84
649.0690, 42550.00
650.2310, 42763.00
651.3920, 43164.00
652.5530, 43430.00
653.7140, 43400.00
654.8750, 43384.00
656.0360, 43944.00
657.1970, 44369.00
658.3570, 44408.17
659.5170, 44572.42
660.6770, 44543.00
661.8370, 44548.00
662.9970, 44401.00
664.1570, 44571.00
665.3160, 44436.00
666.4750, 44092.00
667.6340, 43849.00
668.7930, 43886.00
669.9520, 44073.00
671.1110, 43787.00
672.2690, 44000.00
673.4270, 43752.00
674.5850, 43844.00
675.7430, 43967.00
676.9010, 43995.08
678.0590, 44284.00
679.2160, 44250.00
680.3730, 44393.00
681.5300, 44446.00
682.6870, 44225.00
683.8440, 44055.00
685.0010, 43861.00
686.1570, 43753.00
687.3130, 43250.00
688.4690, 42830.00
689.6250, 42169.00
690.7810, 42113.00
691.9370, 41857.00
693.0920, 41497.00
694.2470, 41529.00
695.4020, 41310.00
696.5570, 40838.00
697.7120, 40830.00
698.8670, 40907.00
700.0210, 40887.00
701.1750, 40975.00
702.3290, 41028.00
703.4830, 41283.00
704.6370, 41570.00
705.7910, 41628.00
706.9440, 41921.00
708.0970, 42088.00
709.2510, 42222.00
710.4030, 42779.00
711.5560, 42818.00
712.7090, 43686.00
713.8610, 43385.00
715.0140, 43636.00
716.1660, 44195.00
717.3180, 44532.00
718.4690, 44897.00
719.6210, 44682.00
720.7730, 45163.00
721.9240, 45134.00
723.0750, 45567.00
724.2260, 45242.00
725.3770, 45870.00
726.5270, 45765.00
727.6780, 46153.00
728.8280, 46111.00
729.9780, 46097.00
731.1280, 46547.00
732.2780, 46146.00
733.4280, 46122.00
734.5770, 45957.00
735.7260, 46437.00
736.8760, 46040.00
738.0250, 46007.00
739.1730, 46062.00
740.3220, 45580.00
741.4700, 45386.00
742.6190, 45306.00
743.7670, 44992.00
744.9150, 44641.00
746.0630, 44486.00
747.2100, 43866.00
748.3580, 43289.00
749.5050, 43088.00
750.6520, 42788.00
751.7990, 42602.00
752.9460, 42325.00
754.0930, 41840.00
755.2390, 41738.00
756.3860, 41306.00
757.5320, 41155.00
758.6780, 40993.00
759.8240, 40537.00
760.9690, 40915.00
762.1150, 40380.00
763.2600, 40699.00
764.4060, 40456.00
765.5510, 40372.00
766.6950, 40429.00
767.8400, 40388.00
768.9850, 40458.00
770.1290, 40258.00
771.2730, 40158.00
772.4170, 40287.00
773.5610, 40143.00
774.7050, 40417.00
775.8480, 40271.00
776.9920, 40281.00
778.1350, 40155.00
779.2780, 40090.00
780.4210, 40109.00
781.5640, 40348.00
782.7060, 40023.00
783.8490, 40373.00
784.9910, 40027.00
786.1330, 40149.00
787.2750, 40140.00
788.4170, 40170.00
789.5580, 40196.00
790.7000, 40141.00
791.8410, 40178.58
792.9820, 40116.31
794.1230, 40142.00
795.2640, 39994.00
796.4040, 39851.00
797.5450, 39760.00
798.6850, 39806.00
799.8250, 39668.00
800.9650, 39932.00
802.1050, 39911.00
803.2450, 39911.00
804.3840, 39569.00
805.5230, 39900.00
806.6630, 39642.49
807.8020, 39686.00
808.9400, 39451.00
810.0790, 39519.00
811.2170, 39507.00
812.3560, 39288.00
813.4940, 39331.00
814.6320, 39166.00
815.7700, 39044.00
816.9070, 39130.54
818.0450, 39348.00
819.1820, 39182.00
820.3190, 39180.00
821.4560, 39032.00
822.5930, 39203.00
823.7300, 38884.00
824.8670, 39087.00
826.0030, 38758.00
827.1390, 38723.00
828.2750, 38702.84
829.4110, 38843.00
830.5470, 38666.00
831.6820, 38319.00
832.8180, 38409.00
833.9530, 38268.00
835.0880, 38290.00
836.2230, 38430.00
837.3580, 38411.00
838.4920, 38397.00
839.6270, 38527.00
840.7610, 38443.00
841.8950, 38603.66
843.0290, 38577.00
844.1630, 38851.00
845.2960, 39011.48
846.4300, 39095.90
847.5630, 39402.00
848.6960, 39150.00
849.8290, 38857.00
850.9620, 39017.00
852.0940, 39094.00
853.2270, 39154.00
854.3590, 39133.00
855.4910, 39125.00
856.6230, 39065.00
857.7550, 39458.00
858.8870, 39510.00
860.0180, 39527.00
861.1500, 39528.00
862.2810, 39637.00
863.4120, 39655.00
864.5430, 39558.00
865.6730, 39832.00
866.8040, 39970.00
867.9340, 39904.17
869.0640, 39958.00
870.1940, 39867.00
871.3240, 40012.00
872.4540, 40081.00
873.5830, 40197.00
874.7130, 40044.00
875.8420, 40221.00
876.9710, 40337.00
878.1000, 40498.00
879.2290, 40340.00
880.3570, 40543.00
881.4860, 40480.00
882.6140, 40656.00
883.7420, 40494.00
884.8700, 40542.00
885.9980, 40404.00
887.1250, 40609.00
888.2530, 40437.00
889.3800, 40323.00
890.5070, 40650.00
891.6340, 40557.00
892.7610, 40660.00
893.8880, 40583.00
895.0140, 40846.00
896.1400, 40622.00
897.2670, 40711.00
898.3930, 41248.00
899.5180, 41314.00
900.6440, 40780.00
901.7700, 40634.00
902.8950, 40959.00
904.0200, 40845.00
905.1450, 40962.00
906.2700, 40948.00
907.3950, 40791.00
908.5190, 40939.00
909.6440, 40899.00
910.7680, 40965.00
911.8920, 40915.00
913.0160, 40946.00
914.1400, 41143.00
915.2630, 41177.00
916.3870, 41240.00
917.5100, 41118.00
918.6330, 41231.00
919.7560, 41173.00
920.8790, 41105.00
922.0010, 41135.00
923.1240, 41064.00
924.2460, 41303.00
925.3680, 41167.00
926.4900, 41177.00
927.6120, 41411.00
928.7340, 41083.00
929.8550, 41042.00
930.9760, 41337.00
932.0980, 41394.00
933.2190, 41245.00
934.3390, 41342.00
935.4600, 41213.00
936.5810, 41105.00
937.7010, 41593.00
938.8210, 41348.00
939.9410, 41449.00
941.0610, 41559.00
942.1810, 41584.00
943.3010, 41547.00
944.4200, 41761.00
945.5390, 41912.00
946.6580, 41604.00
947.7770, 41726.00
948.8960, 41810.00
950.0150, 41774.00
951.1330, 41657.00
952.2510, 41899.00
953.3690, 41855.00
954.4870, 41792.00
955.6050, 41935.00
956.7230, 41948.00
957.8400, 41970.57
958.9580, 42094.00
960.0750, 42007.00
961.1920, 42038.00
962.3090, 42015.00
963.4250, 42286.00
964.5420, 42277.00
965.6580, 42360.00
966.7740, 41980.00
967.8900, 42221.00
969.0060, 42465.00
970.1220, 42490.00
971.2380, 42807.00
972.3530, 42594.00
973.4680, 42606.00
974.5830, 42838.00
975.6980, 42851.00
976.8130, 42961.00
977.9280, 42958.00
979.0420, 43201.00
980.1560, 43037.00
981.2710, 43441.00
982.3850, 43357.00
983.4980, 43581.00
984.6120, 43375.00
985.7260, 43431.00
986.8390, 43768.00
987.9520, 43545.00
989.0650, 43611.00
990.1780, 43864.00
991.2910, 43710.00
992.4030, 44174.00
993.5160, 44235.00
994.6280, 44080.00
995.7400, 44253.00
996.8520, 44164.00
997.9640, 44231.07
999.0750, 44689.00
1000.187, 44418.00
1001.298, 44545.00
1002.409, 44761.00
1003.520, 44625.00
1004.631, 44819.00
1005.741, 44524.00
1006.852, 44613.00
1007.962, 44772.00
1009.072, 44767.00
1010.182, 44966.00
1011.292, 44533.00
1012.402, 44802.00
1013.511, 44725.00
1014.621, 44872.00
1015.730, 44941.00
1016.839, 44783.00
1017.948, 44533.00
1019.056, 44731.00
1020.165, 44661.00
1021.273, 44649.00
1022.382, 44748.00
1023.490, 44623.00
1024.598, 44784.00
1025.706, 44676.00
1026.813, 44578.00
1027.921, 44595.00
1029.028, 44391.00
1030.135, 44353.00
1031.242, 44290.63
1032.349, 44215.09
1033.456, 44203.00
1034.562, 44168.00
1035.668, 44181.00
1036.775, 44206.00
1037.881, 44068.00
1038.987, 44027.00
1040.092, 44066.11
1041.198, 43956.00
1042.303, 44130.00
1043.408, 44029.00
1044.514, 44001.00
1045.618, 44022.00
1046.723, 43986.00
1047.828, 44121.00
1048.932, 43756.00
1050.037, 44043.00
1051.141, 43496.00
1052.245, 43762.00
1053.349, 43709.00
1054.452, 43397.35
1055.556, 43555.93
1056.659, 43629.47
1057.762, 43622.53
1058.865, 43294.03
1059.968, 43380.76
1061.071, 43301.08
1062.174, 43214.58
1063.276, 43359.78
1064.378, 43078.08
1065.480, 43219.61
1066.582, 43192.19
1067.684, 43242.09
1068.786, 43159.00
1069.887, 43217.00
1070.988, 43232.00
1072.090, 43087.00
1073.191, 43171.00
1074.291, 43061.00
1075.392, 43159.00
1076.493, 43035.00
1077.593, 42998.00
1078.693, 43245.00
1079.793, 43015.25
1080.893, 42952.23
1081.993, 42844.00
1083.092, 42644.00
1084.192, 42699.00
1085.291, 42693.00
1086.390, 42665.00
1087.489, 42385.00
1088.588, 42762.00
1089.686, 42192.00
1090.785, 42146.00
1091.883, 42400.00
1092.981, 42450.00
1094.079, 42532.00
1095.177, 42215.00
1096.275, 41753.00
1097.373, 42099.00
1098.470, 41808.00
1099.567, 41732.75
1100.664, 41897.21
1101.761, 41976.61
1102.858, 41975.52
1103.954, 41652.91
1105.051, 41745.48
1106.147, 41671.69
1107.243, 41591.07
1108.339, 41742.11
1109.435, 41466.27
1110.531, 41613.64
1111.626, 41592.10
1112.722, 41647.85
1113.817, 41536.20
1114.912, 41476.26
1116.007, 41583.80
1117.101, 41598.64
1118.196, 41467.71
1119.290, 41528.44
1120.385, 41246.77
1121.479, 41265.55
1122.573, 41413.96
1123.666, 41291.51
1124.760, 41355.29
1125.853, 41348.16
1126.947, 41018.61
1128.040, 41249.76
1129.133, 41238.44
1130.226, 40978.16
1131.318, 41190.12
1132.411, 40964.16
1133.503, 40894.52
1134.596, 40942.50
1135.688, 40931.00
1136.780, 40923.00
1137.871, 40954.00
1138.963, 40228.00
1140.054, 40618.00
1141.146, 40661.00
1142.237, 40551.00
1143.328, 41136.00
1144.419, 40848.60
1145.509, 41057.00
1146.600, 40557.00
1147.690, 40753.00
1148.780, 40452.00
1149.870, 40466.00
1150.960, 40794.00
1152.050, 40327.00
1153.139, 40345.00
1154.229, 40603.00
1155.318, 40510.00
1156.407, 40510.00
1157.496, 40368.00
1158.585, 40678.00
1159.674, 40631.00
1160.762, 40446.00
1161.850, 40711.00
1162.939, 40711.00
1164.027, 40467.00
1165.114, 40691.00
1166.202, 40968.00
1167.290, 40644.00
1168.377, 41035.00
1169.464, 40509.00
1170.551, 40470.00
1171.638, 40693.00
1172.725, 40834.00
1173.812, 40448.00
1174.898, 40831.00
1175.984, 40623.00
1177.071, 40713.00
1178.157, 40741.00
1179.242, 40857.00
1180.328, 40905.79
1181.414, 40766.00
1182.499, 41017.00
1183.584, 40861.00
1184.669, 40865.00
1185.754, 40671.00
1186.839, 40771.00
1187.924, 40834.00
1189.008, 40832.00
1190.092, 40861.00
1191.177, 40718.00
1192.260, 40708.00
1193.344, 40878.97
1194.428, 40747.44
1195.512, 41214.00
1196.595, 40798.00
1197.678, 40763.00
1198.761, 41049.00
1199.844, 41011.00
1200.927, 41095.00
1202.009, 41080.21
1203.092, 41005.00
1204.174, 40997.00
1205.256, 41076.00
1206.338, 41189.00
1207.420, 40959.00
1208.502, 41320.00
1209.583, 41037.00
1210.665, 40981.00
1211.746, 41028.00
1212.827, 41311.00
1213.908, 41012.00
1214.988, 41334.00
1216.069, 41237.00
1217.149, 41024.00
1218.230, 41159.00
1219.310, 41172.00
1220.390, 41176.00
1221.470, 41240.00
1222.549, 41395.00
1223.629, 41262.00
1224.708, 41426.00
1225.787, 41347.00
1226.866, 41313.61
1227.945, 41235.00
1229.024, 41237.00
1230.103, 41298.74
1231.181, 41547.00
1232.259, 41472.00
1233.337, 41496.00
1234.415, 41544.00
1235.493, 41397.00
1236.571, 41274.00
1237.648, 41385.00
1238.726, 41395.00
1239.803, 41586.44
1240.880, 41563.39
1241.957, 41608.54
1243.034, 41524.00
1244.110, 41600.00
1245.187, 41475.00
1246.263, 41408.00
1247.339, 41405.00
1248.415, 41357.00
1249.491, 41497.00
1250.566, 41481.00
1251.642, 41542.00
1252.717, 41508.00
1253.793, 41486.00
1254.868, 41660.00
1255.943, 41464.00
1257.017, 41553.00
1258.092, 41418.00
1259.166, 41434.00
1260.241, 41515.00
1261.315, 41314.00
1262.389, 41661.00
1263.462, 41349.00
1264.536, 41324.00
1265.610, 41464.00
1266.683, 41711.00
1267.756, 41437.00
1268.829, 41293.00
1269.902, 41546.00
1270.975, 41644.00
1272.048, 41627.00
1273.120, 41632.00
1274.192, 41573.00
1275.264, 41638.00
1276.336, 41676.00
1277.408, 41639.00
1278.480, 41691.00
1279.551, 41577.00
1280.623, 41649.00
1281.694, 41672.00
1282.765, 41832.00
1283.836, 41566.00
1284.907, 41593.00
1285.977, 41350.00
1287.048, 41293.00
1288.118, 41505.00
1289.188, 41524.00
1290.258, 41684.00
1291.328, 41625.00
1292.398, 41576.00
1293.467, 41672.00
1294.537, 41730.00
1295.606, 41738.00
1296.675, 41784.00
1297.744, 41661.00
1298.813, 41660.00
1299.882, 41625.00
1300.950, 41430.00
1302.018, 41703.00
1303.086, 41646.00
1304.155, 41830.00
1305.222, 41503.00
1306.290, 41830.00
1307.358, 41796.00
1308.425, 41991.00
1309.492, 42332.00
1310.559, 41941.00
1311.626, 42029.00
1312.693, 42171.00
1313.760, 42081.00
1314.826, 42037.00
1315.893, 42075.00
1316.959, 42059.00
1318.025, 42086.00
1319.091, 42138.00
1320.157, 42198.00
1321.222, 42251.00
1322.288, 42044.00
1323.353, 42004.00
1324.418, 42228.00
1325.483, 41968.00
1326.548, 42318.00
1327.612, 42169.17
1328.677, 42148.65
1329.741, 42098.00
1330.806, 42072.00
1331.870, 42189.00
1332.934, 42209.00
1333.997, 42248.86
1335.061, 42250.00
1336.124, 42393.00
1337.188, 42336.00
1338.251, 42529.00
1339.314, 42327.00
1340.377, 42235.00
1341.439, 42471.00
1342.502, 42330.00
1343.564, 42344.00
1344.627, 42389.00
1345.689, 42354.00
1346.751, 42208.84
1347.813, 42410.61
1348.874, 42527.32
1349.936, 42563.55
1350.997, 42278.21
1352.058, 42408.10
1353.119, 42371.58
1354.180, 42328.24
1355.241, 42516.57
1356.301, 42278.00
1357.362, 42462.65
1358.422, 42478.36
1359.482, 42571.38
1360.542, 42496.98
1361.602, 42474.29
1362.662, 42619.08
1363.721, 42671.13
1364.781, 42577.45
1365.840, 42675.39
1366.899, 42430.96
1367.958, 42486.96
1369.017, 42672.58
1370.075, 42587.30
1371.134, 42688.30
1372.192, 42718.35
1373.250, 42426.01
1374.308, 42694.34
1375.366, 42720.19
1376.424, 42497.09
1377.481, 42746.20
1378.539, 42557.41
1379.596, 42524.92
1380.653, 42610.06
1381.710, 42572.58
1382.767, 42728.43
1383.824, 42698.03
1384.880, 42650.98
1385.937, 42676.55
1386.993, 42496.34
1388.049, 42670.00
1389.105, 42636.41
1390.161, 42794.00
1391.216, 42698.00
1392.272, 42818.00
1393.327, 42912.00
1394.382, 42551.00
1395.437, 42749.00
1396.492, 42815.00
1397.547, 42699.00
1398.601, 42851.58
1399.656, 42981.00
1400.710, 42972.00
1401.764, 42817.00
1402.818, 42894.00
1403.872, 42757.00
1404.925, 42881.00
1405.979, 42711.00
1407.032, 42945.00
1408.085, 42559.00
1409.139, 42908.00
1410.191, 42974.00
1411.244, 42897.72
1412.297, 42930.00
1413.349, 42923.00
1414.402, 43003.00
1415.454, 43032.00
1416.506, 43211.00
1417.558, 42902.00
1418.609, 43210.00
1419.661, 42989.00
1420.712, 43298.00
1421.764, 42988.00
1422.815, 43113.00
1423.866, 43189.00
1424.916, 43177.00
1425.967, 43128.00
1427.018, 43267.00
1428.068, 42985.00
1429.118, 43343.00
1430.168, 43248.00
1431.218, 43413.00
1432.268, 43563.00
1433.318, 43256.00
1434.367, 43345.00
1435.416, 43441.00
1436.465, 43295.81
1437.514, 43661.00
1438.563, 43334.00
1439.612, 43162.00
1440.661, 43424.00
1441.709, 43706.00
1442.757, 43596.00
1443.805, 43650.00
1444.853, 43667.00
1445.901, 43645.00
1446.949, 43646.10
1447.996, 43470.00
1449.044, 43617.00
1450.091, 43594.00
1451.138, 43636.00
1452.185, 43873.00
1453.232, 43438.00
1454.278, 43569.00
1455.325, 43540.00
1456.371, 44021.00
1457.417, 43893.00
1458.463, 43800.00
1459.509, 43784.00
1460.555, 43822.00
1461.601, 43727.00
1462.646, 43950.00
1463.691, 43962.00
1464.737, 43913.00
1465.782, 43971.00
1466.826, 43795.00
1467.871, 44048.00
1468.916, 44082.00
1469.960, 44408.00
1471.004, 44288.00
1472.048, 43883.00
1473.092, 44170.00
1474.136, 43915.00
1475.180, 44275.00
1476.223, 43944.00
1477.267, 44321.00
1478.310, 44246.00
1479.353, 44306.00
1480.396, 44178.00
1481.439, 44421.00
1482.481, 44537.00
1483.524, 43954.00
1484.566, 44193.00
1485.608, 43978.00
1486.650, 44219.00
1487.692, 44275.00
1488.734, 44282.00
1489.775, 44288.00
1490.817, 44228.00
1491.858, 44167.00
1492.899, 44516.00
1493.940, 44115.00
1494.981, 44294.00
1496.022, 44150.00
1497.062, 44591.00
1498.103, 44464.86
1499.143, 44447.60
1500.183, 44425.00
1501.223, 44361.00
1502.263, 44316.00
1503.302, 44477.00
1504.342, 44440.00
1505.381, 44405.00
1506.420, 44577.00
1507.459, 44633.00
1508.498, 44620.00
1509.537, 44546.00
1510.576, 44580.00
1511.614, 44563.00
1512.652, 44572.00
1513.691, 44573.00
1514.729, 44248.00
1515.767, 44537.00
1516.804, 44391.00
1517.842, 44602.00
1518.879, 44618.00
1519.917, 44809.00
1520.954, 44750.00
1521.991, 44764.00
1523.028, 44589.00
1524.064, 44712.00
1525.101, 44718.00
1526.137, 44520.00
1527.173, 44536.00
1528.210, 44822.00
1529.245, 44627.00
1530.281, 44679.51
1531.317, 44492.10
1532.352, 44699.39
1533.388, 44821.63
1534.423, 44863.37
1535.458, 44583.56
1536.493, 44718.97
1537.528, 44687.97
1538.562, 44650.14
1539.597, 44843.99
1540.631, 44610.93
1541.665, 44801.10
1542.700, 44822.33
1543.733, 44920.86
1544.767, 44851.97
1545.801, 44834.80
1546.834, 44985.09
1547.868, 45042.67
1548.901, 44954.49
1549.934, 45057.94
1550.967, 44819.02
1551.999, 44880.52
1553.032, 45071.64
1554.064, 44991.88
1555.097, 45098.38
1556.129, 45133.94
1557.161, 44847.10
1558.193, 45120.93
1559.224, 45152.28
1560.256, 44934.68
1561.287, 45189.29
1562.318, 45006.00
1563.350, 44979.02
1564.380, 45069.65
1565.411, 45037.67
1566.442, 45199.02
1567.472, 45174.10
1568.503, 45132.56
1569.533, 45163.62
1570.563, 45085.00
##END=



