##NAMES=Magnesite
##RRUFFID=R050676
##IDEAL CHEMISTRY=MgCO_3_
##LOCALITY=Tyrol, Austria
##OWNER=RRUFF
##SOURCE=University of Arizona Mineral Museum
##DESCRIPTION=Brown rhombohedral crystals
##STATUS=The identification of this mineral has been confirmed by X-ray diffraction and chemical analysis
##URL=rruff.info/R050676
##MEASURED CHEMISTRY=(Mg_0.87_Fe^2+^_0.12_Ca_0.01_)_Î£=1_CO_3_; trace amounts of Mn and Cd; CO_2_ estimated by difference
##PIN_ID=M01410
##ORIENTATION=Laser parallel to c* (0 0 1). Fiducial mark perpendicular to laser is parallel to a [1 0 0]
61.07900, 7076.000
62.32000, 7189.000
63.56100, 7360.000
64.80100, 7698.000
66.04100, 7688.000
67.28100, 8011.000
68.52100, 8170.000
69.76100, 8224.000
71.00100, 8336.000
72.24000, 8401.000
73.47900, 8410.000
74.71800, 8486.077
75.95700, 8577.000
77.19600, 8515.000
78.43500, 8575.000
79.67300, 8477.000
80.91200, 8830.000
82.15000, 9250.000
83.38800, 8991.000
84.62600, 8867.000
85.86300, 8404.000
87.10100, 8071.000
88.33800, 7983.000
89.57500, 8120.000
90.81200, 7978.000
92.04900, 8019.000
93.28600, 7956.000
94.52300, 7947.633
95.75900, 7925.745
96.99500, 7986.000
98.23100, 7917.000
99.46700, 7978.000
100.7030, 8096.000
101.9390, 7994.000
103.1740, 8095.000
104.4090, 8194.000
105.6440, 8207.000
106.8790, 8195.000
108.1140, 8168.000
109.3490, 8091.000
110.5830, 8062.000
111.8180, 8000.000
113.0520, 8069.000
114.2860, 8034.000
115.5200, 8332.000
116.7530, 8261.000
117.9870, 8335.000
119.2200, 8521.000
120.4530, 9083.000
121.6860, 9148.000
122.9190, 8880.000
124.1520, 8465.000
125.3850, 8132.000
126.6170, 8004.000
127.8490, 7953.000
129.0810, 7969.000
130.3130, 8022.000
131.5450, 7939.000
132.7770, 7879.000
134.0080, 7984.000
135.2390, 7955.000
136.4710, 8111.000
137.7020, 8001.000
138.9320, 8057.000
140.1630, 7976.000
141.3930, 8060.000
142.6240, 7999.000
143.8540, 8141.000
145.0840, 8078.000
146.3140, 8126.000
147.5440, 8091.000
148.7730, 8057.000
150.0020, 8103.000
151.2320, 8109.000
152.4610, 8064.000
153.6900, 8164.000
154.9180, 8146.000
156.1470, 8114.000
157.3750, 8206.000
158.6040, 8142.000
159.8320, 8264.000
161.0600, 8295.000
162.2870, 8288.000
163.5150, 8442.000
164.7420, 8459.000
165.9700, 8469.000
167.1970, 8389.000
168.4240, 8443.000
169.6510, 8422.000
170.8770, 8342.000
172.1040, 8566.000
173.3300, 8493.000
174.5560, 8630.000
175.7820, 8632.000
177.0080, 8638.000
178.2340, 8747.000
179.4590, 8770.766
180.6850, 8791.684
181.9100, 8828.000
183.1350, 8884.000
184.3600, 8905.508
185.5850, 8932.000
186.8090, 9000.000
188.0340, 9052.000
189.2580, 9166.000
190.4820, 9347.000
191.7060, 9427.000
192.9300, 9851.000
194.1530, 10080.00
195.3770, 10083.00
196.6000, 10681.00
197.8230, 11184.00
199.0460, 11932.00
200.2690, 12613.00
201.4910, 13463.00
202.7140, 14516.00
203.9360, 15938.00
205.1580, 17185.00
206.3800, 19036.00
207.6020, 21291.00
208.8240, 23036.00
210.0450, 23822.00
211.2670, 23309.00
212.4880, 21284.00
213.7090, 18518.00
214.9300, 15878.00
216.1510, 13649.00
217.3710, 11993.00
218.5920, 10746.00
219.8120, 10079.00
221.0320, 9547.000
222.2520, 9309.000
223.4720, 9011.000
224.6910, 8884.000
225.9110, 8684.000
227.1300, 8666.000
228.3490, 8704.000
229.5680, 8587.000
230.7870, 8617.000
232.0050, 8565.000
233.2240, 8600.000
234.4420, 8645.000
235.6600, 8682.000
236.8780, 8579.000
238.0960, 8520.000
239.3140, 8442.000
240.5310, 8406.781
241.7490, 8673.000
242.9660, 8395.000
244.1830, 8547.000
245.4000, 8636.000
246.6160, 8551.000
247.8330, 8704.000
249.0490, 8657.000
250.2660, 8670.000
251.4820, 8625.000
252.6980, 8553.000
253.9130, 8665.000
255.1290, 8604.000
256.3440, 8810.000
257.5600, 8601.000
258.7750, 8678.000
259.9900, 8602.000
261.2040, 8698.000
262.4190, 8713.000
263.6330, 8831.000
264.8480, 8672.000
266.0620, 8914.000
267.2760, 8820.000
268.4900, 8676.000
269.7030, 8722.000
270.9170, 8761.000
272.1300, 8791.000
273.3430, 8767.000
274.5560, 8865.000
275.7690, 8758.000
276.9820, 8690.000
278.1940, 8636.000
279.4070, 8810.000
280.6190, 8816.000
281.8310, 8802.000
283.0430, 8710.000
284.2550, 8845.000
285.4660, 8778.000
286.6770, 8869.000
287.8890, 8961.000
289.1000, 8854.000
290.3110, 9051.000
291.5210, 8859.000
292.7320, 8863.000
293.9420, 8843.000
295.1530, 8901.000
296.3630, 9016.000
297.5730, 9086.000
298.7830, 9119.000
299.9920, 9167.135
301.2020, 9096.000
302.4110, 9182.000
303.6200, 9177.000
304.8290, 9143.000
306.0380, 9298.000
307.2470, 9349.000
308.4550, 9392.000
309.6630, 9488.000
310.8720, 9804.000
312.0800, 10256.00
313.2880, 10322.00
314.4950, 10755.00
315.7030, 11235.00
316.9100, 11959.00
318.1170, 12525.00
319.3240, 13455.00
320.5310, 14555.00
321.7380, 15531.00
322.9450, 16881.00
324.1510, 18195.00
325.3570, 18554.00
326.5630, 18414.00
327.7690, 17172.00
328.9750, 16191.00
330.1810, 14650.00
331.3860, 13175.00
332.5910, 12350.00
333.7960, 11492.00
335.0010, 11024.00
336.2060, 10580.00
337.4110, 10305.00
338.6150, 10008.00
339.8200, 9929.000
341.0240, 9766.217
342.2280, 9865.000
343.4320, 9642.000
344.6350, 9662.000
345.8390, 9652.000
347.0420, 9607.000
348.2450, 9475.000
349.4480, 9537.000
350.6510, 9574.000
351.8540, 9564.000
353.0560, 9663.000
354.2590, 9642.083
355.4610, 9516.000
356.6630, 9640.000
357.8650, 9520.000
359.0670, 9494.000
360.2680, 9595.000
361.4700, 9476.000
362.6710, 9470.000
363.8720, 9516.000
365.0730, 9576.000
366.2740, 9560.000
367.4740, 9652.000
368.6750, 9622.000
369.8750, 9591.000
371.0750, 9616.927
372.2750, 9589.434
373.4750, 9591.000
374.6740, 9604.000
375.8740, 9571.684
377.0730, 9635.000
378.2720, 9617.000
379.4710, 9761.000
380.6700, 9844.000
381.8690, 9827.000
383.0670, 9765.000
384.2660, 9873.000
385.4640, 9747.000
386.6620, 9686.000
387.8600, 9716.000
389.0570, 9790.000
390.2550, 9746.000
391.4520, 9772.000
392.6490, 9739.000
393.8460, 9743.000
395.0430, 9768.000
396.2400, 9729.293
397.4370, 9758.000
398.6330, 9671.000
399.8290, 9732.000
401.0250, 9688.000
402.2210, 9687.000
403.4170, 9775.000
404.6130, 9750.000
405.8080, 9733.000
407.0030, 9689.000
408.1980, 9676.889
409.3930, 9757.000
410.5880, 9647.000
411.7830, 9763.000
412.9770, 9776.000
414.1720, 9781.000
415.3660, 9720.000
416.5600, 9872.000
417.7530, 9689.000
418.9470, 9802.000
420.1410, 9893.000
421.3340, 9788.000
422.5270, 9796.000
423.7200, 9974.000
424.9130, 9901.000
426.1060, 9949.000
427.2980, 9734.000
428.4900, 9885.000
429.6830, 9753.000
430.8750, 9821.000
432.0670, 10021.00
433.2580, 9911.000
434.4500, 9952.000
435.6410, 9958.000
436.8320, 10061.00
438.0240, 10067.00
439.2140, 10024.00
440.4050, 10031.00
441.5960, 9976.000
442.7860, 10034.00
443.9760, 10019.00
445.1670, 10020.00
446.3560, 10056.00
447.5460, 9989.000
448.7360, 10093.00
449.9250, 9886.205
451.1150, 10079.12
452.3040, 10199.28
453.4930, 10250.61
454.6810, 10026.96
455.8700, 10158.38
457.0590, 10147.52
458.2470, 10130.80
459.4350, 10312.18
460.6230, 10128.52
461.8110, 10306.76
462.9980, 10340.51
464.1860, 10363.00
465.3730, 10266.00
466.5600, 10385.00
467.7470, 10299.00
468.9340, 10354.00
470.1210, 10449.00
471.3080, 10606.00
472.4940, 10533.00
473.6800, 10548.00
474.8660, 10596.00
476.0520, 10452.00
477.2380, 10505.00
478.4230, 10803.00
479.6090, 10698.00
480.7940, 10799.00
481.9790, 10873.00
483.1640, 10811.00
484.3490, 10801.00
485.5330, 10919.00
486.7180, 10869.00
487.9020, 11007.00
489.0860, 10923.00
490.2700, 11019.00
491.4540, 11182.00
492.6370, 11180.00
493.8210, 11217.00
495.0040, 11267.00
496.1870, 11276.00
497.3700, 11315.00
498.5530, 11382.34
499.7360, 11318.00
500.9180, 11491.00
502.1000, 11339.00
503.2830, 11298.00
504.4650, 11527.00
505.6460, 11563.00
506.8280, 11302.00
508.0100, 11581.00
509.1910, 11516.00
510.3720, 11483.00
511.5530, 11482.00
512.7340, 11588.00
513.9150, 11602.00
515.0950, 11407.00
516.2760, 11427.00
517.4560, 11604.00
518.6360, 11500.00
519.8160, 11611.00
520.9950, 11666.00
522.1750, 11470.00
523.3540, 11536.00
524.5340, 11556.00
525.7130, 11509.00
526.8920, 11535.00
528.0700, 11548.00
529.2490, 11505.00
530.4270, 11304.00
531.6060, 11540.00
532.7840, 11325.00
533.9620, 11291.00
535.1390, 11359.00
536.3170, 11299.00
537.4940, 11315.00
538.6720, 11314.00
539.8490, 11440.00
541.0260, 11440.00
542.2030, 11380.00
543.3790, 11309.00
544.5560, 11383.00
545.7320, 11367.00
546.9080, 11341.00
548.0840, 11361.00
549.2600, 11325.00
550.4360, 11398.00
551.6110, 11323.00
552.7860, 11419.00
553.9620, 11346.00
555.1370, 11359.00
556.3110, 11306.00
557.4860, 11353.00
558.6610, 11350.00
559.8350, 11387.00
561.0090, 11260.00
562.1830, 11481.00
563.3570, 11495.00
564.5310, 11307.00
565.7040, 11391.00
566.8780, 11435.00
568.0510, 11207.00
569.2240, 11377.00
570.3970, 11383.00
571.5700, 11434.00
572.7420, 11439.00
573.9150, 11485.00
575.0870, 11346.00
576.2590, 11299.00
577.4310, 11488.00
578.6030, 11312.00
579.7740, 11579.00
580.9460, 11479.00
582.1170, 11416.00
583.2880, 11511.00
584.4590, 11479.00
585.6300, 11333.00
586.8010, 11576.00
587.9710, 11449.00
589.1410, 11503.00
590.3110, 11405.00
591.4810, 11544.00
592.6510, 11339.00
593.8210, 11594.00
594.9900, 11524.00
596.1600, 11547.00
597.3290, 11489.00
598.4980, 11455.00
599.6670, 11619.00
600.8350, 11510.00
602.0040, 11558.00
603.1720, 11587.00
604.3400, 11585.00
605.5080, 11571.00
606.6760, 11692.00
607.8440, 11560.00
609.0120, 11495.00
610.1790, 11580.00
611.3460, 11618.00
612.5130, 11643.00
613.6800, 11609.00
614.8470, 11650.00
616.0130, 11570.00
617.1800, 11591.00
618.3460, 11713.00
619.5120, 11677.00
620.6780, 11737.00
621.8440, 11763.00
623.0090, 11756.00
624.1750, 11762.00
625.3400, 11694.00
626.5050, 11695.00
627.6700, 11702.14
628.8350, 11772.00
629.9990, 11740.00
631.1640, 11794.00
632.3280, 11822.00
633.4920, 11877.00
634.6560, 11747.00
635.8200, 11967.00
636.9840, 11820.00
638.1470, 11979.00
639.3100, 11814.00
640.4730, 11752.00
641.6360, 12054.00
642.7990, 11954.00
643.9620, 11911.00
645.1240, 12022.00
646.2870, 12042.00
647.4490, 12039.00
648.6110, 12127.00
649.7730, 12081.00
650.9340, 12162.00
652.0960, 12085.00
653.2570, 12211.00
654.4180, 12147.00
655.5790, 12260.00
656.7400, 12061.00
657.9010, 12244.00
659.0620, 12170.00
660.2220, 12255.00
661.3820, 12215.00
662.5420, 12479.00
663.7020, 12264.00
664.8620, 12430.00
666.0210, 12373.00
667.1810, 12436.00
668.3400, 12436.00
669.4990, 12437.38
670.6580, 12443.00
671.8170, 12464.00
672.9750, 12471.00
674.1340, 12497.00
675.2920, 12609.00
676.4500, 12687.00
677.6080, 12653.00
678.7660, 12748.71
679.9230, 12677.00
681.0810, 12786.00
682.2380, 12701.00
683.3950, 12595.00
684.5520, 12677.00
685.7090, 12743.00
686.8660, 12822.00
688.0220, 12839.00
689.1780, 12750.00
690.3340, 12708.00
691.4900, 12847.00
692.6460, 12974.00
693.8020, 12950.00
694.9570, 12989.00
696.1130, 12991.00
697.2680, 13128.00
698.4230, 12995.00
699.5780, 13158.00
700.7320, 13206.00
701.8870, 13183.00
703.0410, 13499.00
704.1950, 13592.00
705.3490, 13565.00
706.5030, 13602.00
707.6570, 13736.00
708.8110, 13758.00
709.9640, 14005.00
711.1170, 14117.00
712.2700, 14163.00
713.4230, 14413.00
714.5760, 14609.29
715.7280, 14794.00
716.8810, 15190.00
718.0330, 15475.00
719.1850, 15859.00
720.3370, 16153.00
721.4890, 16539.00
722.6400, 16986.00
723.7920, 17569.18
724.9430, 18162.00
726.0940, 18963.00
727.2450, 19849.00
728.3960, 20717.00
729.5460, 21768.00
730.6970, 22908.00
731.8470, 24158.00
732.9970, 25512.00
734.1470, 26677.00
735.2970, 27547.00
736.4460, 28281.00
737.5960, 28456.00
738.7450, 28599.00
739.8940, 27969.00
741.0430, 26995.00
742.1920, 26146.00
743.3410, 24468.00
744.4890, 22950.00
745.6370, 21812.00
746.7850, 20571.00
747.9330, 19340.00
749.0810, 18314.00
750.2290, 17754.00
751.3760, 16981.00
752.5240, 16355.00
753.6710, 15758.00
754.8180, 15258.00
755.9650, 14886.00
757.1110, 14548.00
758.2580, 14351.00
759.4040, 14055.24
760.5510, 13765.00
761.6970, 13667.00
762.8420, 13437.00
763.9880, 13383.00
765.1340, 13266.32
766.2790, 13177.69
767.4240, 13173.00
768.5690, 13065.00
769.7140, 13164.00
770.8590, 13126.00
772.0030, 12987.00
773.1480, 13075.00
774.2920, 12916.00
775.4360, 12952.00
776.5800, 13000.00
777.7240, 13055.00
778.8670, 13139.00
780.0110, 12988.00
781.1540, 13201.00
782.2970, 13092.00
783.4400, 13077.00
784.5830, 13226.00
785.7250, 13214.00
786.8680, 13280.00
788.0100, 13412.00
789.1520, 13325.00
790.2940, 13378.00
791.4360, 13316.00
792.5780, 13348.00
793.7190, 13329.00
794.8600, 13373.00
796.0010, 13475.00
797.1420, 13359.00
798.2830, 13491.00
799.4240, 13476.00
800.5640, 13553.00
801.7050, 13541.62
802.8450, 13590.00
803.9850, 13508.00
805.1250, 13447.00
806.2640, 13466.00
807.4040, 13349.00
808.5430, 13437.26
809.6820, 13575.00
810.8210, 13559.00
811.9600, 13640.00
813.0990, 13648.00
814.2370, 13699.00
815.3760, 13768.00
816.5140, 13727.00
817.6520, 13732.91
818.7900, 13684.00
819.9270, 13694.00
821.0650, 13708.00
822.2020, 13767.00
823.3390, 13859.00
824.4760, 13825.00
825.6130, 13822.00
826.7500, 13845.00
827.8870, 13813.00
829.0230, 13754.00
830.1590, 13740.00
831.2950, 13760.00
832.4310, 13894.00
833.5670, 13871.00
834.7030, 13904.00
835.8380, 13811.00
836.9730, 13903.00
838.1080, 13887.28
839.2430, 13945.00
840.3780, 13924.00
841.5130, 13932.00
842.6470, 13940.00
843.7810, 13865.00
844.9150, 13990.00
846.0490, 13921.00
847.1830, 13976.00
848.3170, 14042.00
849.4500, 14015.00
850.5830, 13973.00
851.7160, 13981.00
852.8490, 14230.00
853.9820, 14129.00
855.1150, 14120.00
856.2470, 14171.00
857.3800, 13992.00
858.5120, 14147.00
859.6440, 14146.00
860.7760, 14323.00
861.9070, 14292.00
863.0390, 14120.00
864.1700, 14039.00
865.3010, 14169.00
866.4320, 14446.00
867.5630, 14495.00
868.6940, 14422.00
869.8240, 14437.00
870.9540, 14560.00
872.0850, 14476.00
873.2150, 14788.00
874.3450, 14665.00
875.4740, 14849.00
876.6040, 14750.00
877.7330, 14941.00
878.8620, 15085.00
879.9910, 14900.00
881.1200, 14848.00
882.2490, 14657.00
883.3770, 14706.00
884.5060, 14608.00
885.6340, 14532.00
886.7620, 14594.00
887.8900, 14563.00
889.0180, 14764.00
890.1450, 14464.00
891.2730, 14530.00
892.4000, 14651.00
893.5270, 14467.00
894.6540, 14678.00
895.7810, 14588.00
896.9070, 14775.00
898.0340, 14745.00
899.1600, 14584.00
900.2860, 14717.00
901.4120, 14959.00
902.5380, 14810.00
903.6630, 14702.00
904.7890, 14880.00
905.9140, 14674.00
907.0390, 14845.00
908.1640, 14736.00
909.2890, 14938.00
910.4130, 14861.00
911.5380, 14910.00
912.6620, 14834.00
913.7860, 14921.00
914.9100, 14926.00
916.0340, 14950.00
917.1580, 15080.00
918.2810, 15170.00
919.4040, 15088.00
920.5280, 14884.00
921.6510, 14978.00
922.7730, 15051.00
923.8960, 15071.00
925.0180, 15094.00
926.1410, 15219.00
927.2630, 15036.00
928.3850, 15024.00
929.5070, 15074.08
930.6280, 15108.00
931.7500, 15135.00
932.8710, 15119.00
933.9920, 15103.00
935.1130, 15283.00
936.2340, 15258.00
937.3550, 15230.00
938.4760, 15315.00
939.5960, 15285.00
940.7160, 15354.00
941.8360, 15269.00
942.9560, 15439.00
944.0760, 15488.00
945.1950, 15447.00
946.3150, 15253.00
947.4340, 15483.00
948.5530, 15435.00
949.6720, 15539.00
950.7900, 15428.00
951.9090, 15642.00
953.0270, 15594.00
954.1460, 15662.00
955.2640, 15733.00
956.3820, 15780.40
957.4990, 15957.00
958.6170, 15976.00
959.7340, 16044.00
960.8520, 16197.00
961.9690, 16573.00
963.0860, 16696.00
964.2020, 16609.00
965.3190, 16475.00
966.4350, 16290.00
967.5520, 16207.00
968.6680, 15981.00
969.7840, 15963.00
970.8990, 15880.00
972.0150, 15920.00
973.1310, 15836.00
974.2460, 15936.00
975.3610, 15883.00
976.4760, 16053.00
977.5910, 16107.00
978.7050, 15792.00
979.8200, 15865.00
980.9340, 15905.00
982.0480, 15981.00
983.1620, 16015.27
984.2760, 16017.20
985.3900, 16039.00
986.5030, 15991.00
987.6160, 15893.00
988.7300, 15863.00
989.8430, 15892.00
990.9550, 16034.00
992.0680, 15911.00
993.1810, 15815.00
994.2930, 16017.00
995.4050, 15924.80
996.5170, 16022.00
997.6290, 16023.00
998.7410, 16094.00
999.8520, 16239.00
1000.964, 16094.00
1002.075, 16343.00
1003.186, 16164.00
1004.297, 16371.00
1005.407, 16233.00
1006.518, 16088.00
1007.628, 15889.00
1008.738, 16169.00
1009.848, 16090.00
1010.958, 16187.00
1012.068, 15977.00
1013.178, 16049.22
1014.287, 16036.93
1015.396, 16041.00
1016.505, 16035.00
1017.614, 15951.00
1018.723, 15874.00
1019.831, 15888.00
1020.940, 16197.00
1022.048, 16058.00
1023.156, 16278.00
1024.264, 16113.00
1025.372, 16097.00
1026.479, 16290.00
1027.587, 16346.00
1028.694, 16355.00
1029.801, 16649.00
1030.908, 16673.66
1032.015, 16758.54
1033.121, 16965.00
1034.228, 16870.00
1035.334, 17123.00
1036.440, 17204.00
1037.546, 17328.00
1038.652, 17463.00
1039.758, 17662.00
1040.863, 17684.00
1041.968, 17904.00
1043.074, 17930.00
1044.178, 18151.00
1045.283, 18241.00
1046.388, 18343.00
1047.492, 18785.00
1048.597, 18764.00
1049.701, 18980.00
1050.805, 19115.00
1051.909, 19497.00
1053.012, 19456.00
1054.116, 19808.00
1055.219, 20082.00
1056.322, 20595.00
1057.425, 20872.00
1058.528, 21236.00
1059.631, 21815.00
1060.733, 22202.00
1061.836, 22675.00
1062.938, 23243.00
1064.040, 23972.00
1065.142, 24879.00
1066.243, 25758.00
1067.345, 26860.00
1068.446, 28193.00
1069.547, 29612.00
1070.648, 31137.00
1071.749, 33065.00
1072.850, 35224.00
1073.951, 37583.00
1075.051, 40452.00
1076.151, 43320.00
1077.251, 47079.00
1078.351, 51417.00
1079.451, 57159.00
1080.550, 63435.00
1081.650, 71592.00
1082.749, 81854.00
1083.848, 94711.00
1084.947, 109742.7
1086.046, 125991.0
1087.144, 147178.0
1088.243, 170212.0
1089.341, 195496.0
1090.439, 221031.0
1091.537, 244695.0
1092.635, 261917.0
1093.732, 272371.0
1094.830, 272705.0
1095.927, 263379.0
1097.024, 245205.0
1098.121, 223339.0
1099.218, 200163.0
1100.314, 175223.0
1101.411, 153263.0
1102.507, 133302.0
1103.603, 114788.0
1104.699, 99074.00
1105.795, 86272.00
1106.890, 74284.00
1107.986, 64621.00
1109.081, 56472.00
1110.176, 50170.00
1111.271, 44974.00
1112.366, 40617.00
1113.461, 37232.00
1114.555, 34117.00
1115.649, 31834.00
1116.744, 29610.00
1117.838, 28135.00
1118.931, 26805.00
1120.025, 25531.00
1121.119, 24527.00
1122.212, 23988.00
1123.305, 23456.00
1124.398, 22683.00
1125.491, 22176.00
1126.584, 21787.00
1127.676, 21357.00
1128.768, 21032.00
1129.861, 20816.00
1130.953, 20495.43
1132.044, 20317.00
1133.136, 20063.00
1134.228, 19922.57
1135.319, 19837.00
1136.410, 19700.00
1137.501, 19593.00
1138.592, 19625.00
1139.683, 19424.00
1140.773, 19481.00
1141.864, 19393.00
1142.954, 19071.00
1144.044, 19184.00
1145.134, 19179.00
1146.224, 19062.00
1147.313, 19125.00
1148.402, 19036.00
1149.492, 19083.00
1150.581, 19049.75
1151.670, 18954.94
1152.758, 18964.00
1153.847, 18818.00
1154.935, 18695.00
1156.024, 18747.00
1157.112, 18902.00
1158.200, 18836.00
1159.287, 18584.00
1160.375, 18783.00
1161.462, 18677.00
1162.550, 18854.00
1163.637, 18630.00
1164.724, 18669.00
1165.810, 18611.00
1166.897, 18656.00
1167.983, 18523.00
1169.070, 18809.00
1170.156, 18821.00
1171.242, 18712.00
1172.327, 18598.00
1173.413, 18543.00
1174.499, 18702.00
1175.584, 18540.00
1176.669, 18894.00
1177.754, 18618.00
1178.839, 18575.00
1179.923, 18722.00
1181.008, 18731.00
1182.092, 18555.00
1183.176, 18666.00
1184.260, 18747.00
1185.344, 18707.00
1186.428, 18825.00
1187.511, 18821.00
1188.595, 18810.00
1189.678, 18884.00
1190.761, 18829.00
1191.843, 18884.00
1192.926, 18858.00
1194.009, 18823.00
1195.091, 18771.00
1196.173, 18770.00
1197.255, 18781.00
1198.337, 18770.57
1199.419, 18815.00
1200.500, 18817.00
1201.582, 18832.00
1202.663, 18913.00
1203.744, 18880.00
1204.825, 18836.00
1205.905, 18899.00
1206.986, 19051.00
1208.066, 19018.00
1209.146, 19172.00
1210.226, 18907.00
1211.306, 19097.00
1212.386, 19108.00
1213.466, 18818.00
1214.545, 19028.00
1215.624, 18992.00
1216.703, 18992.00
1217.782, 19177.00
1218.861, 19130.00
1219.939, 19111.00
1221.018, 19264.00
1222.096, 19301.00
1223.174, 19254.00
1224.252, 19041.00
1225.330, 19293.00
1226.407, 19144.00
1227.485, 19017.00
1228.562, 19157.00
1229.639, 19407.00
1230.716, 19221.00
1231.793, 19363.00
1232.869, 19447.00
1233.946, 19122.00
1235.022, 19359.00
1236.098, 19299.00
1237.174, 19318.00
1238.250, 19364.00
1239.325, 19411.00
1240.401, 19460.00
1241.476, 19323.00
1242.551, 19487.00
1243.626, 19381.00
1244.701, 19386.00
1245.776, 19468.00
1246.850, 19351.00
1247.924, 19282.00
1248.999, 19664.00
1250.073, 19490.00
1251.146, 19630.00
1252.220, 19475.00
1253.293, 19510.00
1254.367, 19687.00
1255.440, 19612.00
1256.513, 19436.00
1257.586, 19594.00
1258.658, 19638.00
1259.731, 19818.00
1260.803, 19609.00
1261.875, 19520.00
1262.947, 19542.00
1264.019, 19557.00
1265.091, 19588.00
1266.162, 19811.00
1267.234, 19713.00
1268.305, 19872.00
1269.376, 19782.00
1270.447, 19826.00
1271.517, 19811.00
1272.588, 19804.00
1273.658, 19674.00
1274.729, 19901.00
1275.799, 19989.00
1276.868, 19774.00
1277.938, 19829.00
1279.008, 19856.00
1280.077, 19856.00
1281.146, 19830.00
1282.215, 20057.00
1283.284, 19888.00
1284.353, 20055.00
1285.421, 19967.00
1286.490, 19986.00
1287.558, 20026.00
1288.626, 20164.00
1289.694, 19944.00
1290.762, 20044.00
1291.829, 19888.00
1292.897, 19987.00
1293.964, 19941.00
1295.031, 20229.00
1296.098, 20260.00
1297.165, 19975.00
1298.231, 20153.00
1299.298, 20103.00
1300.364, 20206.00
1301.430, 20191.00
1302.496, 20113.00
1303.562, 20336.00
1304.627, 20453.00
1305.693, 20498.00
1306.758, 20283.00
1307.823, 20304.00
1308.888, 20308.00
1309.953, 20306.00
1311.018, 20285.92
1312.082, 20383.00
1313.146, 20286.00
1314.210, 20350.00
1315.274, 20491.00
1316.338, 20293.00
1317.402, 20355.00
1318.465, 20288.00
1319.529, 20425.00
1320.592, 20271.00
1321.655, 20346.00
1322.718, 20350.00
1323.780, 20446.00
1324.843, 20474.00
1325.905, 20418.00
1326.967, 20463.00
1328.029, 20493.00
1329.091, 20375.00
1330.153, 20557.00
1331.214, 20661.00
1332.275, 20464.00
1333.337, 20576.00
1334.398, 20510.00
1335.458, 20581.00
1336.519, 20447.00
1337.580, 20610.00
1338.640, 20656.00
1339.700, 20609.00
1340.760, 20642.00
1341.820, 20571.00
1342.880, 20781.00
1343.939, 20685.00
1344.999, 20586.00
1346.058, 20461.00
1347.117, 20722.00
1348.176, 20635.00
1349.235, 20707.00
1350.293, 20691.00
1351.351, 20613.00
1352.410, 20780.00
1353.468, 20662.00
1354.526, 20538.00
1355.583, 20641.00
1356.641, 20756.00
1357.698, 20724.88
1358.756, 20616.00
1359.813, 20777.00
1360.869, 20744.00
1361.926, 20739.00
1362.983, 20763.00
1364.039, 20817.00
1365.095, 20774.00
1366.152, 20895.00
1367.207, 20844.00
1368.263, 20668.00
1369.319, 20745.00
1370.374, 20802.00
1371.430, 20703.00
1372.485, 20782.00
1373.540, 20849.00
1374.594, 20794.00
1375.649, 20744.00
1376.703, 20826.00
1377.758, 20869.00
1378.812, 20866.00
1379.866, 20923.00
1380.920, 20560.00
1381.973, 20898.00
1383.027, 20674.00
1384.080, 20865.00
1385.133, 20893.00
1386.186, 20919.00
1387.239, 21043.00
1388.291, 21189.00
1389.344, 20967.00
1390.396, 20828.00
1391.448, 20898.00
1392.500, 21018.00
1393.552, 20965.00
1394.604, 21052.00
1395.655, 21000.00
1396.707, 21020.44
1397.758, 21168.00
1398.809, 21019.00
1399.860, 21143.00
1400.910, 21118.00
1401.961, 20787.00
1403.011, 21036.00
1404.061, 20874.00
1405.111, 21070.00
1406.161, 21058.00
1407.211, 21044.00
1408.260, 21101.00
1409.310, 21029.00
1410.359, 20953.00
1411.408, 21214.00
1412.457, 21107.00
1413.506, 21313.00
1414.554, 21061.00
1415.603, 21220.00
1416.651, 21175.00
1417.699, 21272.00
1418.747, 21337.00
1419.794, 21217.00
1420.842, 21339.00
1421.889, 21452.00
1422.937, 21305.00
1423.984, 21528.00
1425.031, 21491.00
1426.077, 21717.00
1427.124, 21660.00
1428.170, 21592.00
1429.217, 21900.00
1430.263, 21888.00
1431.309, 21970.00
1432.354, 22058.00
1433.400, 22155.62
1434.445, 22325.07
1435.491, 22450.00
1436.536, 22724.00
1437.581, 22943.17
1438.625, 23206.00
1439.670, 23543.00
1440.714, 23831.00
1441.759, 24278.00
1442.803, 24448.00
1443.847, 24661.00
1444.890, 24700.00
1445.934, 24558.00
1446.978, 24615.00
1448.021, 24358.00
1449.064, 23994.00
1450.107, 24073.00
1451.150, 23667.00
1452.192, 23425.00
1453.235, 23365.00
1454.277, 23307.00
1455.319, 23090.00
1456.361, 23145.00
1457.403, 23090.00
1458.445, 23067.00
1459.486, 22908.00
1460.528, 22793.00
1461.569, 22949.00
1462.610, 22998.00
1463.651, 22946.00
1464.691, 22740.00
1465.732, 22736.00
1466.772, 22885.00
1467.812, 22791.00
1468.852, 22982.00
1469.892, 22915.00
1470.932, 22845.00
1471.971, 22948.00
1473.011, 22839.00
1474.050, 22915.00
1475.089, 22895.63
1476.128, 22907.00
1477.166, 22892.00
1478.205, 22939.00
1479.243, 22978.00
1480.282, 22716.00
1481.320, 22915.00
1482.357, 22784.00
1483.395, 22870.00
1484.433, 22894.00
1485.470, 22972.00
1486.507, 22946.00
1487.544, 22942.71
1488.581, 22869.00
1489.618, 22872.00
1490.655, 22813.00
1491.691, 22770.00
1492.727, 22768.00
1493.763, 22851.00
1494.799, 22861.00
1495.835, 22855.85
1496.871, 22862.31
1497.906, 22804.00
1498.941, 22822.00
1499.976, 22752.00
1501.011, 22744.00
1502.046, 22801.00
1503.081, 22747.00
1504.115, 22699.00
1505.149, 22866.00
1506.183, 22821.00
1507.217, 22652.00
1508.251, 22935.00
1509.285, 22932.00
1510.318, 22765.00
1511.352, 22949.00
1512.385, 22875.00
1513.418, 23020.00
1514.450, 23105.00
1515.483, 22742.00
1516.516, 22858.00
1517.548, 22905.00
1518.580, 23190.00
1519.612, 22818.00
1520.644, 23046.00
1521.675, 22888.00
1522.707, 23123.00
1523.738, 23062.00
1524.769, 22935.00
1525.800, 22965.00
1526.831, 22929.00
1527.862, 22980.73
1528.892, 22998.32
1529.923, 23151.00
1530.953, 23093.00
1531.983, 23178.00
1533.013, 23283.00
1534.042, 23241.00
1535.072, 23319.80
1536.101, 23234.00
1537.131, 23305.00
1538.160, 23321.00
1539.188, 23162.00
1540.217, 23262.00
1541.246, 23298.00
1542.274, 23253.00
1543.302, 23421.00
1544.330, 23170.00
1545.358, 23471.00
1546.386, 23489.00
1547.413, 23334.00
1548.441, 23464.00
1549.468, 23498.00
1550.495, 23358.00
1551.522, 23454.00
1552.549, 23545.00
1553.575, 23494.00
1554.602, 23387.00
1555.628, 23481.00
1556.654, 23445.00
1557.680, 23500.00
1558.706, 23521.00
1559.731, 23501.62
1560.757, 23494.00
1561.782, 23496.00
1562.807, 23468.00
1563.832, 23499.00
1564.857, 23577.00
1565.881, 23579.00
1566.906, 23653.00
1567.930, 23804.00
1568.954, 23543.00
1569.978, 23617.00
1571.002, 23554.00
1572.025, 23790.00
1573.049, 23698.00
1574.072, 23601.00
1575.095, 23801.00
1576.118, 23620.00
1577.141, 23635.00
##END=



