##NAMES=Magnesioferrite
##RRUFFID=R060869
##IDEAL CHEMISTRY=MgFe^3+^_2_O_4_
##LOCALITY=Langban, Filipstad, Varmland, Sweden
##OWNER=RRUFF
##SOURCE=Michael Scott
##DESCRIPTION=Black semimetallic massive
##STATUS=The identification of this mineral is confirmed by single-crystal X-ray diffraction and chemical analysis.
##URL=rruff.info/R060869
##MEASURED CHEMISTRY=(Mg_0.67_Mn^2+^_0.30_Fe^2+^_0.03_)_Σ=1_(Fe^3+^_1.97_Al_0.03_)_Σ=2_O_4_
##PIN_ID=L00748
##ORIENTATION=Laser parallel to a* (1 0 0). Fiducial mark perpendicular to laser is parallel to b [0 1 0]
127.7920, 10772.00
129.0260, 10775.00
130.2590, 10784.00
131.4920, 10636.00
132.7250, 10587.00
133.9580, 10688.00
135.1910, 10822.00
136.4230, 11092.00
137.6560, 11021.58
138.8880, 11257.00
140.1200, 10969.00
141.3520, 10687.00
142.5830, 10677.00
143.8150, 10743.00
145.0460, 10738.00
146.2770, 10689.61
147.5080, 10726.00
148.7390, 10578.00
149.9700, 10580.00
151.2000, 10564.00
152.4310, 10535.00
153.6610, 10507.11
154.8910, 10507.00
156.1210, 10415.00
157.3500, 10376.00
158.5800, 10129.39
159.8090, 10363.46
161.0380, 10502.06
162.2670, 10550.29
163.4960, 10237.55
164.7240, 10390.93
165.9530, 10357.51
167.1810, 10316.42
168.4090, 10535.40
169.6370, 10508.00
170.8650, 10507.00
172.0920, 10318.00
173.3200, 10320.00
174.5470, 10552.00
175.7740, 10568.00
177.0010, 10629.80
178.2280, 10883.00
179.4540, 10713.00
180.6810, 10628.00
181.9070, 10679.00
183.1330, 10637.00
184.3590, 10702.00
185.5850, 10656.76
186.8100, 10891.00
188.0350, 10534.00
189.2610, 10836.00
190.4860, 10699.00
191.7110, 10827.00
192.9350, 10783.00
194.1600, 10701.00
195.3840, 10736.00
196.6080, 10748.00
197.8320, 10839.00
199.0560, 10780.00
200.2800, 10645.00
201.5030, 10659.00
202.7270, 10566.00
203.9500, 10498.00
205.1730, 10374.00
206.3950, 10338.00
207.6180, 10256.00
208.8410, 10292.00
210.0630, 10210.00
211.2850, 10252.00
212.5070, 10079.00
213.7290, 9760.677
214.9500, 9999.981
216.1720, 10134.69
217.3930, 10169.04
218.6140, 9877.530
219.8350, 9949.424
221.0560, 9840.611
222.2770, 9977.000
223.4970, 9995.000
224.7170, 9943.000
225.9370, 9966.000
227.1570, 9970.951
228.3770, 9842.000
229.5970, 9987.000
230.8160, 9950.000
232.0350, 9916.846
233.2540, 9775.000
234.4730, 9816.000
235.6920, 9702.000
236.9110, 9729.000
238.1290, 9882.000
239.3470, 9785.000
240.5650, 9775.000
241.7830, 9714.000
243.0010, 9865.000
244.2180, 9731.000
245.4360, 9973.000
246.6530, 9958.000
247.8700, 9959.000
249.0870, 9791.000
250.3040, 9895.000
251.5200, 9932.000
252.7370, 10003.00
253.9530, 9878.000
255.1690, 9836.000
256.3850, 9901.000
257.6000, 9974.000
258.8160, 10065.00
260.0310, 10017.00
261.2460, 9915.911
262.4610, 10105.85
263.6760, 10216.22
264.8910, 10251.29
266.1050, 9985.538
267.3200, 10108.23
268.5340, 10075.25
269.7480, 10035.89
270.9620, 10213.25
272.1750, 9991.250
273.3890, 10165.17
274.6020, 10183.00
275.8150, 10078.00
277.0280, 10144.00
278.2410, 10190.00
279.4540, 10142.18
280.6660, 10388.00
281.8790, 10170.00
283.0910, 10163.00
284.3030, 10291.00
285.5140, 10206.00
286.7260, 10335.00
287.9380, 10395.00
289.1490, 10387.00
290.3600, 10437.00
291.5710, 10458.00
292.7820, 10449.00
293.9920, 10343.00
295.2030, 10412.00
296.4130, 10469.00
297.6230, 10534.00
298.8330, 10601.00
300.0430, 10626.00
301.2520, 10725.00
302.4620, 10706.42
303.6710, 10775.96
304.8800, 10700.00
306.0890, 10904.00
307.2980, 10951.00
308.5070, 11088.00
309.7150, 11075.00
310.9230, 11369.00
312.1310, 11284.00
313.3390, 11443.00
314.5470, 11384.00
315.7550, 11419.00
316.9620, 11510.34
318.1690, 11729.00
319.3760, 11739.00
320.5830, 11758.00
321.7900, 12047.00
322.9960, 11852.00
324.2030, 12108.00
325.4090, 12199.00
326.6150, 12197.00
327.8210, 12222.00
329.0270, 12432.00
330.2320, 12519.00
331.4380, 12491.00
332.6430, 12657.00
333.8480, 12594.00
335.0530, 12704.00
336.2580, 12743.00
337.4620, 12799.00
338.6670, 12884.78
339.8710, 13032.00
341.0750, 12991.00
342.2790, 13026.00
343.4820, 12984.93
344.6860, 12959.94
345.8890, 12901.00
347.0920, 12870.00
348.2960, 12775.00
349.4980, 12684.00
350.7010, 12628.00
351.9040, 12538.05
353.1060, 12437.00
354.3080, 12369.00
355.5100, 12306.00
356.7120, 12184.00
357.9140, 12137.00
359.1150, 12040.00
360.3170, 12012.00
361.5180, 12141.00
362.7190, 12166.00
363.9200, 12024.00
365.1200, 12110.00
366.3210, 11873.00
367.5210, 11845.00
368.7210, 11815.00
369.9210, 11736.00
371.1210, 11741.41
372.3210, 11744.00
373.5200, 11724.00
374.7200, 11749.00
375.9190, 11744.00
377.1180, 11690.00
378.3170, 11792.00
379.5150, 11622.00
380.7140, 11703.96
381.9120, 11773.00
383.1110, 11767.00
384.3090, 11706.00
385.5060, 11733.00
386.7040, 11585.00
387.9020, 11508.00
389.0990, 11502.00
390.2960, 11588.00
391.4930, 11592.00
392.6900, 11603.00
393.8860, 11550.00
395.0830, 11452.00
396.2790, 11477.00
397.4750, 11477.00
398.6710, 11277.00
399.8670, 11457.00
401.0630, 11374.00
402.2580, 11255.00
403.4540, 11454.00
404.6490, 11485.00
405.8440, 11528.00
407.0390, 11516.00
408.2330, 11529.00
409.4280, 11534.19
410.6220, 11521.00
411.8160, 11512.00
413.0100, 11585.00
414.2040, 11540.00
415.3980, 11528.00
416.5910, 11557.00
417.7850, 11453.00
418.9780, 11507.00
420.1710, 11538.00
421.3640, 11604.00
422.5560, 11721.00
423.7490, 11712.00
424.9410, 11607.00
426.1330, 11611.00
427.3250, 11756.00
428.5170, 11946.00
429.7090, 11816.00
430.9000, 11750.00
432.0910, 11704.00
433.2820, 11707.00
434.4730, 11802.00
435.6640, 11934.00
436.8550, 11899.00
438.0450, 12009.00
439.2360, 11986.00
440.4260, 11990.83
441.6160, 12098.00
442.8060, 11981.00
443.9950, 12006.00
445.1850, 12023.00
446.3740, 11998.56
447.5630, 12014.33
448.7520, 12057.00
449.9410, 12026.00
451.1300, 12118.00
452.3180, 12167.00
453.5060, 12180.48
454.6950, 12346.00
455.8830, 12284.00
457.0700, 12220.00
458.2580, 12363.00
459.4450, 12336.00
460.6330, 12281.00
461.8200, 12442.00
463.0070, 12338.00
464.1940, 12358.00
465.3800, 12512.00
466.5670, 12448.00
467.7530, 12510.00
468.9390, 12509.00
470.1250, 12510.00
471.3110, 12498.00
472.4970, 12613.00
473.6820, 12623.00
474.8680, 12648.00
476.0530, 12756.00
477.2380, 12747.00
478.4230, 12938.00
479.6070, 12769.00
480.7920, 12921.00
481.9760, 12891.00
483.1600, 13156.00
484.3440, 13050.00
485.5280, 13026.00
486.7120, 13132.00
487.8950, 13238.00
489.0780, 13288.00
490.2620, 13310.46
491.4450, 13383.07
492.6270, 13441.00
493.8100, 13389.00
494.9920, 13394.30
496.1750, 13401.42
497.3570, 13367.00
498.5390, 13381.00
499.7210, 13515.00
500.9020, 13476.00
502.0840, 13570.00
503.2650, 13559.00
504.4460, 13670.00
505.6270, 13658.85
506.8080, 13623.00
507.9890, 13693.00
509.1690, 13669.00
510.3500, 13761.64
511.5300, 13590.00
512.7100, 13801.00
513.8900, 13858.00
515.0690, 13802.00
516.2490, 14037.00
517.4280, 13931.00
518.6070, 14039.00
519.7860, 14016.00
520.9650, 14127.00
522.1440, 14186.00
523.3220, 14319.00
524.5010, 14371.00
525.6790, 14327.00
526.8570, 14388.00
528.0350, 14443.00
529.2130, 14485.00
530.3900, 14562.00
531.5670, 14472.00
532.7450, 14608.00
533.9220, 14586.00
535.0980, 14670.00
536.2750, 14531.00
537.4520, 14824.00
538.6280, 14878.00
539.8040, 14806.09
540.9800, 15071.20
542.1560, 15256.75
543.3320, 15367.01
544.5070, 15176.38
545.6830, 15374.25
546.8580, 15416.39
548.0330, 15452.15
549.2080, 15609.00
550.3830, 15851.00
551.5570, 15856.00
552.7310, 16040.00
553.9060, 16130.00
555.0800, 16071.00
556.2540, 16350.00
557.4270, 16450.00
558.6010, 16648.00
559.7740, 16873.00
560.9470, 16845.00
562.1210, 17106.00
563.2930, 17035.00
564.4660, 17273.00
565.6390, 17566.00
566.8110, 17659.00
567.9830, 17929.06
569.1550, 18077.46
570.3270, 18319.00
571.4990, 18445.00
572.6710, 18562.00
573.8420, 18869.00
575.0130, 19030.00
576.1840, 19271.00
577.3550, 19483.00
578.5260, 19615.00
579.6970, 20022.00
580.8670, 20389.00
582.0370, 20601.00
583.2070, 20983.00
584.3770, 21468.00
585.5470, 21848.00
586.7170, 22412.72
587.8860, 22957.54
589.0550, 23654.00
590.2240, 24186.00
591.3930, 25019.00
592.5620, 25718.00
593.7310, 26610.00
594.8990, 27460.00
596.0670, 28465.00
597.2350, 29508.00
598.4030, 30632.00
599.5710, 31799.00
600.7390, 33131.00
601.9060, 34047.00
603.0740, 35579.00
604.2410, 36414.00
605.4080, 37847.00
606.5740, 39194.00
607.7410, 39847.00
608.9080, 40910.00
610.0740, 41929.00
611.2400, 42990.00
612.4060, 43562.00
613.5720, 44383.00
614.7370, 44952.00
615.9030, 45247.00
617.0680, 45662.00
618.2330, 46068.00
619.3980, 45822.00
620.5630, 46033.00
621.7280, 45369.00
622.8920, 45201.00
624.0570, 44763.00
625.2210, 43764.00
626.3850, 43167.00
627.5490, 42347.88
628.7120, 41456.00
629.8760, 40613.00
631.0390, 39674.00
632.2020, 38657.00
633.3650, 37514.00
634.5280, 36734.00
635.6910, 35499.00
636.8530, 34388.00
638.0160, 33573.00
639.1780, 32685.00
640.3400, 31865.00
641.5020, 30932.00
642.6640, 30093.00
643.8250, 29416.00
644.9870, 28776.00
646.1480, 28029.00
647.3090, 27403.00
648.4700, 26946.00
649.6300, 26358.00
650.7910, 25986.00
651.9510, 25437.00
653.1120, 25061.00
654.2720, 24484.00
655.4320, 24282.00
656.5910, 23645.00
657.7510, 23696.00
658.9100, 23121.00
660.0690, 22950.00
661.2290, 22747.00
662.3880, 22406.00
663.5460, 22211.00
664.7050, 21836.00
665.8630, 21855.00
667.0220, 21566.00
668.1800, 21304.00
669.3380, 20914.00
670.4950, 20895.00
671.6530, 20825.00
672.8100, 20658.47
673.9680, 20569.00
675.1250, 20429.00
676.2820, 20382.00
677.4390, 20123.00
678.5950, 20078.00
679.7520, 19867.00
680.9080, 19805.00
682.0640, 19518.00
683.2200, 19586.00
684.3760, 19323.00
685.5320, 19211.00
686.6870, 19214.00
687.8420, 18952.00
688.9980, 18955.00
690.1530, 18725.00
691.3070, 18805.00
692.4620, 18665.00
693.6170, 18509.00
694.7710, 18477.00
695.9250, 18477.00
697.0790, 18222.00
698.2330, 18167.00
699.3870, 18102.00
700.5400, 17968.00
701.6940, 17763.00
702.8470, 17925.00
704.0000, 17706.00
705.1530, 17292.00
706.3050, 17427.00
707.4580, 17107.00
708.6100, 16909.00
709.7630, 16904.00
710.9150, 16567.00
712.0660, 16569.00
713.2180, 16355.00
714.3700, 16151.61
715.5210, 16003.00
716.6720, 15739.00
717.8240, 15568.00
718.9740, 15321.00
720.1250, 15182.00
721.2760, 15021.00
722.4260, 14809.63
723.5770, 14656.42
724.7270, 14453.00
725.8770, 14306.00
727.0260, 14193.00
728.1760, 14036.00
729.3250, 13663.00
730.4750, 13603.00
731.6240, 13429.00
732.7730, 13347.00
733.9220, 13299.00
735.0700, 13176.00
736.2190, 12960.00
737.3670, 12807.00
738.5150, 12742.00
739.6630, 12530.24
740.8110, 12634.19
741.9590, 12658.57
743.1060, 12607.72
744.2540, 12255.99
745.4010, 12292.77
746.5480, 12249.00
747.6950, 12210.00
748.8410, 12120.00
749.9880, 11980.00
751.1340, 11961.00
752.2800, 11824.00
753.4260, 11802.00
754.5720, 11659.00
755.7180, 11714.00
756.8640, 11573.00
758.0090, 11624.00
759.1540, 11414.00
760.2990, 11499.00
761.4440, 11396.00
762.5890, 11361.00
763.7340, 11317.00
764.8780, 11261.86
766.0220, 11243.87
767.1660, 11187.00
768.3100, 11214.00
769.4540, 11186.00
770.5980, 11200.00
771.7410, 11137.00
772.8840, 11121.00
774.0280, 11123.00
775.1700, 11072.00
776.3130, 11152.00
777.4560, 11004.00
778.5980, 11082.00
779.7410, 10874.00
780.8830, 10819.00
782.0250, 10886.00
783.1670, 10856.67
784.3080, 10907.00
785.4500, 10946.00
786.5910, 10935.00
787.7320, 10864.00
788.8730, 10915.00
790.0140, 10659.00
791.1550, 10800.00
792.2950, 10897.00
793.4360, 10709.00
794.5760, 10706.00
795.7160, 10855.44
796.8560, 10929.75
797.9960, 10927.00
799.1350, 10878.10
800.2750, 10756.00
801.4140, 10708.00
802.5530, 10634.00
803.6920, 10694.00
804.8310, 10688.00
805.9690, 10764.00
807.1080, 10865.29
808.2460, 10655.00
809.3840, 10727.50
810.5220, 10645.00
811.6600, 10691.00
812.7970, 10625.00
813.9350, 10689.00
815.0720, 10599.00
816.2090, 10581.00
817.3460, 10708.00
818.4830, 10834.00
819.6200, 10728.44
820.7560, 10738.07
821.8930, 10617.00
823.0290, 10561.00
824.1650, 10642.00
825.3010, 10579.00
826.4360, 10552.00
827.5720, 10555.00
828.7070, 10598.00
829.8420, 10507.00
830.9770, 10606.00
832.1120, 10591.00
833.2470, 10585.00
834.3820, 10548.00
835.5160, 10615.00
836.6500, 10601.00
837.7840, 10628.00
838.9180, 10675.00
840.0520, 10584.00
841.1860, 10561.00
842.3190, 10522.00
843.4520, 10545.00
844.5850, 10584.00
845.7180, 10511.00
846.8510, 10443.00
847.9840, 10583.00
849.1160, 10562.00
850.2490, 10476.00
851.3810, 10569.00
852.5130, 10535.00
853.6450, 10559.00
854.7760, 10458.00
855.9080, 10533.00
857.0390, 10534.00
858.1700, 10373.22
859.3010, 10480.88
860.4320, 10548.33
861.5630, 10577.28
862.6930, 10477.52
863.8240, 10524.76
864.9540, 10501.36
866.0840, 10467.04
867.2140, 10511.04
868.3440, 10635.00
869.4730, 10524.00
870.6030, 10591.00
871.7320, 10510.00
872.8610, 10472.00
873.9900, 10509.00
875.1190, 10602.00
876.2470, 10483.00
877.3760, 10752.00
878.5040, 10641.00
879.6320, 10560.00
880.7600, 10567.00
881.8880, 10701.00
883.0150, 10540.00
884.1430, 10683.71
885.2700, 10631.08
886.3970, 10741.00
887.5240, 10679.00
888.6510, 10484.00
889.7780, 10701.00
890.9040, 10676.00
892.0310, 10682.00
893.1570, 10784.00
894.2830, 10662.00
895.4090, 10563.00
896.5350, 10519.00
897.6600, 10484.56
898.7860, 10587.00
899.9110, 10519.00
901.0360, 10575.00
902.1610, 10663.00
903.2860, 10592.00
904.4100, 10596.00
905.5350, 10639.00
906.6590, 10612.00
907.7830, 10650.00
908.9070, 10549.00
910.0310, 10537.00
911.1540, 10613.45
912.2780, 10827.00
913.4010, 10703.00
914.5240, 10726.00
915.6470, 10591.00
916.7700, 10705.00
917.8930, 10715.00
919.0150, 10569.00
920.1380, 10764.00
921.2600, 10719.00
922.3820, 10635.00
923.5040, 10761.00
924.6260, 10678.00
925.7470, 10804.00
926.8690, 10691.00
927.9900, 10818.00
929.1110, 10860.00
930.2320, 10626.00
931.3530, 10835.00
932.4730, 10755.00
933.5940, 10779.00
934.7140, 10740.00
935.8340, 10736.00
936.9540, 10797.00
938.0740, 10842.00
939.1930, 10792.00
940.3130, 10793.00
941.4320, 10852.00
942.5510, 10762.00
943.6700, 10855.00
944.7890, 10930.00
945.9080, 10718.00
947.0260, 10844.00
948.1450, 10892.00
949.2630, 10793.00
950.3810, 10881.00
951.4990, 10847.00
952.6170, 10806.00
953.7340, 10834.00
954.8520, 11011.00
955.9690, 10901.22
957.0860, 10957.00
958.2030, 10872.00
959.3200, 10847.00
960.4360, 10982.00
961.5530, 10993.00
962.6690, 10956.00
963.7850, 10997.00
964.9010, 10951.00
966.0170, 10935.00
967.1330, 10944.00
968.2480, 10932.12
969.3630, 10994.00
970.4790, 10928.00
971.5940, 10980.00
972.7080, 10939.00
973.8230, 11092.00
974.9380, 11008.00
976.0520, 11036.00
977.1660, 10940.00
978.2800, 10974.00
979.3940, 11136.00
980.5080, 10948.00
981.6220, 11082.00
982.7350, 10992.00
983.8480, 10991.00
984.9610, 10993.00
986.0740, 11092.00
987.1870, 11106.00
988.3000, 11081.00
989.4120, 11179.00
990.5250, 11091.00
991.6370, 11105.00
992.7490, 11254.00
993.8610, 11123.00
994.9720, 11155.00
996.0840, 11118.00
997.1950, 11167.00
998.3060, 11189.00
999.4170, 11236.00
1000.528, 11254.00
1001.639, 11239.00
1002.750, 11148.00
1003.860, 11316.00
1004.970, 11223.00
1006.080, 11249.00
1007.190, 11125.00
1008.300, 11289.00
1009.410, 11278.00
1010.519, 11175.00
1011.628, 11300.00
1012.738, 11263.00
1013.846, 11113.00
1014.955, 11313.00
1016.064, 11205.00
1017.172, 11193.93
1018.281, 11466.00
1019.389, 11146.00
1020.497, 11198.00
1021.605, 11229.00
1022.713, 11183.00
1023.820, 11191.00
1024.928, 11267.00
1026.035, 11346.00
1027.142, 11259.00
1028.249, 11291.00
1029.356, 11237.00
1030.462, 11236.00
1031.569, 11231.00
1032.675, 11311.00
1033.781, 11368.00
1034.887, 11362.00
1035.993, 11327.00
1037.098, 11391.00
1038.204, 11391.00
1039.309, 11302.00
1040.415, 11500.00
1041.520, 11227.00
1042.624, 11271.00
1043.729, 11389.00
1044.834, 11346.00
1045.938, 11390.00
1047.042, 11334.00
1048.146, 11501.00
1049.250, 11289.00
1050.354, 11447.00
1051.458, 11378.00
1052.561, 11485.00
1053.664, 11485.00
1054.767, 11380.00
1055.870, 11392.00
1056.973, 11385.54
1058.076, 11437.00
1059.178, 11446.00
1060.281, 11444.00
1061.383, 11541.00
1062.485, 11545.00
1063.587, 11509.00
1064.688, 11559.00
1065.790, 11582.00
1066.891, 11551.70
1067.993, 11554.00
1069.094, 11540.00
1070.195, 11478.00
1071.295, 11537.00
1072.396, 11425.00
1073.496, 11572.00
1074.597, 11434.00
1075.697, 11516.00
1076.797, 11462.00
1077.897, 11474.00
1078.996, 11521.00
1080.096, 11405.00
1081.195, 11496.00
1082.294, 11532.00
1083.393, 11571.00
1084.492, 11521.00
1085.591, 11480.00
1086.689, 11537.00
1087.788, 11568.00
1088.886, 11531.00
1089.984, 11576.60
1091.082, 11546.00
1092.180, 11556.00
1093.277, 11650.00
1094.375, 11544.00
1095.472, 11614.00
1096.569, 11644.00
1097.666, 11436.00
1098.763, 11551.00
1099.860, 11580.00
1100.956, 11601.30
1102.053, 11647.26
1103.149, 11725.00
1104.245, 11651.00
1105.341, 11599.00
1106.436, 11532.00
1107.532, 11614.00
1108.627, 11556.00
1109.723, 11598.00
1110.818, 11685.00
1111.913, 11640.00
1113.007, 11664.63
1114.102, 11660.00
1115.197, 11638.00
1116.291, 11681.00
1117.385, 11689.00
1118.479, 11665.00
1119.573, 11780.00
1120.666, 11594.00
1121.760, 11843.00
1122.853, 11768.00
1123.947, 11667.00
1125.040, 11629.00
1126.132, 11610.00
1127.225, 11572.00
1128.318, 11656.00
1129.410, 11653.00
1130.502, 11653.18
1131.595, 11657.12
1132.687, 11713.00
1133.778, 11696.15
1134.870, 11744.00
1135.961, 11675.00
1137.053, 11678.00
1138.144, 11618.00
1139.235, 11715.00
1140.326, 11585.00
1141.416, 11802.00
1142.507, 11713.00
1143.597, 11649.00
1144.688, 11730.00
1145.778, 11739.00
1146.868, 11715.59
1147.957, 11690.00
1149.047, 11706.00
1150.136, 11700.91
1151.226, 11799.00
1152.315, 11745.00
1153.404, 11801.00
1154.493, 11869.00
1155.581, 11823.00
1156.670, 11827.00
1157.758, 11880.00
1158.846, 11872.00
1159.934, 11813.00
1161.022, 11876.00
1162.110, 12053.00
1163.198, 11993.00
1164.285, 12019.67
1165.372, 11848.00
1166.459, 11922.00
1167.546, 11950.00
1168.633, 11878.00
1169.720, 12021.00
1170.806, 12023.00
1171.892, 12110.00
1172.979, 11995.00
1174.065, 12003.00
1175.150, 12061.00
1176.236, 11975.00
1177.322, 11984.00
1178.407, 12200.00
1179.492, 12177.00
1180.577, 12157.00
1181.662, 12134.00
1182.747, 12175.00
1183.832, 12184.76
1184.916, 12202.71
1186.000, 12242.00
1187.084, 12261.00
1188.168, 12254.00
1189.252, 12299.00
1190.336, 12514.00
1191.419, 12522.00
1192.503, 12389.00
1193.586, 12537.00
1194.669, 12427.00
1195.752, 12588.00
1196.835, 12547.00
1197.917, 12549.00
1199.000, 12566.00
1200.082, 12534.00
1201.164, 12513.00
1202.246, 12683.00
1203.328, 12659.00
1204.409, 12655.00
1205.491, 12657.00
1206.572, 12635.82
1207.653, 12675.00
1208.734, 12660.00
1209.815, 12707.00
1210.896, 12838.00
1211.976, 12828.00
1213.057, 12567.00
1214.137, 12745.00
1215.217, 12764.00
1216.297, 12751.00
1217.377, 12914.00
1218.456, 12914.00
1219.536, 12806.00
1220.615, 12779.00
1221.694, 12801.00
1222.773, 12707.00
1223.852, 12846.00
1224.931, 12735.00
1226.009, 12748.00
1227.088, 12839.00
1228.166, 12794.00
1229.244, 12874.00
1230.322, 12845.00
1231.400, 12835.00
1232.477, 12927.00
1233.555, 12821.00
1234.632, 12767.00
1235.709, 12803.76
1236.786, 12752.48
1237.863, 12791.00
1238.939, 12791.00
1240.016, 12722.00
1241.092, 12818.00
1242.168, 12642.00
1243.245, 12811.00
1244.320, 12768.99
1245.396, 12790.56
1246.472, 12744.00
1247.547, 12733.13
1248.622, 12731.00
1249.697, 12681.00
1250.772, 12678.00
1251.847, 12623.00
1252.922, 12670.00
1253.996, 12590.00
1255.071, 12676.00
1256.145, 12639.00
1257.219, 12488.00
1258.293, 12644.00
1259.366, 12635.00
1260.440, 12539.00
1261.513, 12557.00
1262.587, 12545.96
1263.660, 12469.00
1264.733, 12554.00
1265.805, 12567.00
1266.878, 12533.00
1267.951, 12465.00
1269.023, 12503.00
1270.095, 12486.45
1271.167, 12471.09
1272.239, 12522.00
1273.311, 12464.00
1274.382, 12475.00
1275.454, 12487.65
1276.525, 12405.00
1277.596, 12325.00
1278.667, 12478.00
1279.738, 12250.00
1280.808, 12480.00
1281.879, 12453.00
1282.949, 12308.00
1284.019, 12028.00
1285.089, 12498.00
1286.159, 12303.00
1287.229, 12384.00
1288.298, 12328.00
1289.368, 12259.00
1290.437, 12342.00
1291.506, 12200.00
1292.575, 12223.00
1293.644, 12337.00
1294.712, 12388.00
1295.781, 12256.00
1296.849, 12271.00
1297.917, 12180.00
1298.985, 12273.00
1300.053, 12168.00
1301.121, 12201.00
1302.188, 12242.00
1303.255, 12219.00
1304.323, 12242.99
1305.390, 12239.97
1306.457, 12223.00
1307.523, 12228.00
1308.590, 12172.00
1309.656, 12155.00
1310.723, 12219.00
1311.789, 12114.00
1312.855, 12165.00
1313.921, 12141.00
1314.986, 12147.00
1316.052, 12163.93
1317.117, 12167.55
1318.182, 12188.00
1319.248, 12170.00
1320.312, 12196.17
1321.377, 12129.00
1322.442, 12104.00
1323.506, 12085.00
1324.571, 11849.00
1325.635, 11884.00
1326.699, 11995.00
1327.762, 12082.00
1328.826, 11866.00
1329.890, 11935.00
1330.953, 11900.00
1332.016, 11992.00
1333.079, 11957.00
1334.142, 11951.10
1335.205, 11997.00
1336.268, 11921.00
1337.330, 11889.00
1338.392, 11907.00
1339.454, 11924.00
1340.516, 11883.31
1341.578, 11850.00
1342.640, 11807.00
1343.701, 11921.00
1344.763, 11868.00
1345.824, 11956.00
1346.885, 11784.00
1347.946, 11926.00
1349.007, 11809.00
1350.067, 11802.00
1351.128, 11742.00
1352.188, 11810.00
1353.248, 11727.00
1354.308, 11731.00
1355.368, 11833.00
1356.428, 11778.83
1357.487, 11804.96
1358.547, 11770.00
1359.606, 11778.00
1360.665, 11739.00
1361.724, 11702.00
1362.783, 11677.84
1363.841, 11682.86
1364.900, 11628.00
1365.958, 11713.00
1367.016, 11751.00
1368.074, 11765.00
1369.132, 11776.98
1370.190, 11757.22
1371.247, 11705.00
1372.304, 11668.00
1373.362, 11544.00
1374.419, 11441.00
1375.476, 11612.00
1376.532, 11583.00
1377.589, 11708.00
1378.645, 11593.00
1379.702, 11573.00
1380.758, 11601.00
1381.814, 11480.00
1382.870, 11567.00
1383.925, 11527.00
1384.981, 11551.00
1386.036, 11439.00
1387.092, 11534.00
1388.147, 11458.00
1389.202, 11515.00
1390.256, 11506.00
1391.311, 11451.00
1392.365, 11391.00
1393.420, 11412.00
1394.474, 11451.00
1395.528, 11392.00
1396.582, 11380.00
1397.636, 11276.00
1398.689, 11368.00
1399.742, 11211.00
1400.796, 11399.00
1401.849, 11343.00
1402.902, 11221.00
1403.955, 11203.00
1405.007, 11381.00
1406.060, 11269.00
1407.112, 11331.00
1408.164, 11273.08
1409.216, 11219.00
1410.268, 11202.00
1411.320, 11235.00
1412.371, 11192.36
1413.423, 11200.00
1414.474, 11119.00
1415.525, 11240.00
1416.576, 11122.00
1417.627, 11035.00
1418.678, 11081.00
1419.728, 10928.00
1420.778, 11114.00
1421.829, 11158.00
1422.879, 11030.00
1423.928, 11118.00
1424.978, 11051.00
1426.028, 11048.46
1427.077, 11036.19
1428.126, 11065.00
1429.176, 10972.00
1430.225, 11005.00
1431.273, 10983.00
1432.322, 11197.00
1433.371, 11217.00
1434.419, 11133.97
1435.467, 11123.51
1436.515, 10941.00
1437.563, 10953.00
1438.611, 10941.00
1439.658, 11001.00
1440.706, 10968.00
1441.753, 10905.00
1442.800, 10944.45
1443.847, 10901.00
1444.894, 10964.00
1445.941, 10891.00
1446.987, 10908.00
1448.034, 10980.00
1449.080, 10835.00
1450.126, 10786.00
1451.172, 10905.00
1452.218, 10941.00
1453.263, 10850.00
1454.309, 10807.00
1455.354, 10857.00
1456.399, 10677.00
1457.444, 10935.00
1458.489, 10934.00
1459.534, 10876.00
1460.579, 10778.00
1461.623, 10672.00
1462.667, 10792.00
1463.711, 10851.00
1464.755, 10720.00
1465.799, 10803.00
1466.843, 10826.00
1467.886, 10828.64
1468.930, 10724.00
1469.973, 10854.00
1471.016, 10744.00
1472.059, 10620.00
1473.101, 10733.00
1474.144, 10669.00
1475.186, 10704.00
1476.229, 10610.00
1477.271, 10586.00
1478.313, 10647.00
1479.355, 10705.00
1480.396, 10808.00
1481.438, 10749.00
1482.479, 10628.00
1483.520, 10757.00
1484.561, 10795.00
1485.602, 10764.34
1486.643, 10828.00
1487.684, 10646.00
1488.724, 10839.00
1489.765, 10548.00
1490.805, 10608.00
1491.845, 10696.00
1492.885, 10712.00
1493.924, 10703.00
1494.964, 10703.53
1496.003, 10702.43
1497.042, 10591.00
1498.082, 10707.00
1499.120, 10571.00
1500.159, 10593.00
1501.198, 10602.93
1502.236, 10593.00
1503.275, 10630.00
1504.313, 10583.00
1505.351, 10638.00
1506.389, 10708.00
1507.427, 10595.00
1508.464, 10687.00
1509.502, 10881.00
1510.539, 10669.00
1511.576, 10491.07
1512.613, 10564.23
1513.650, 10605.57
1514.687, 10616.79
1515.723, 10507.68
1516.759, 10553.95
1517.796, 10537.95
1518.832, 10519.40
1519.868, 10587.53
1520.903, 10495.93
1521.939, 10562.69
1522.975, 10566.23
1524.010, 10598.71
1525.045, 10575.00
1526.080, 10591.00
1527.115, 10546.00
1528.150, 10589.00
1529.184, 10624.00
1530.219, 10589.02
1531.253, 10662.00
1532.287, 10559.00
1533.321, 10602.00
1534.355, 10607.00
1535.388, 10663.00
1536.422, 10702.00
1537.455, 10682.74
1538.488, 10691.06
1539.522, 10649.00
1540.554, 10628.00
1541.587, 10616.05
1542.620, 10548.00
1543.652, 10569.00
1544.685, 10523.00
1545.717, 10275.78
1546.749, 10408.06
1547.781, 10459.48
1548.812, 10675.84
1549.844, 10796.71
1550.875, 10827.23
1551.906, 10496.78
1552.938, 10632.44
1553.968, 10581.31
1554.999, 10522.52
1556.030, 10723.80
1557.060, 10445.85
1558.091, 10643.00
1559.121, 10581.00
1560.151, 10503.00
1561.181, 10713.00
1562.211, 10663.00
1563.240, 10622.00
1564.270, 10566.00
1565.299, 10643.00
1566.328, 10621.00
1567.357, 10723.00
1568.386, 10660.00
1569.415, 10772.00
1570.443, 10588.00
1571.472, 10627.78
1572.500, 10676.00
1573.528, 10608.00
1574.556, 10554.00
1575.584, 10587.00
1576.611, 10566.00
1577.639, 10699.00
##END=



