##NAMES=Magnetite
##RRUFFID=R060191
##IDEAL CHEMISTRY=Fe^2+^Fe^3+^_2_O_4_
##LOCALITY=Merrry Widow mine, Vancouver Island, British Columbia, Canada
##OWNER=RRUFF
##SOURCE=Lloyd Twaites
##DESCRIPTION=Grayish-black octahedral crystals
##STATUS=The identification of this mineral has been confirmed by X-ray diffraction and chemical analysis
##URL=rruff.info/R060191
##MEASURED CHEMISTRY=(Fe^2+^_0.97_Mg_0.03_)(Fe^3+^_0.97_Al_0.03_)_2_O_4_
##PIN_ID=M01451
##ORIENTATION=Laser parallel to -a* (-1 0 0). Fiducial mark perpendicular to laser is parallel to -c [0 0 -1]
126.5290, 41816.00
127.7630, 41778.00
128.9970, 41848.00
130.2300, 42065.00
131.4640, 41809.00
132.6970, 41542.00
133.9300, 41143.00
135.1630, 41653.00
136.3950, 41657.00
137.6280, 41724.00
138.8600, 41790.02
140.0920, 42170.00
141.3240, 41600.00
142.5560, 40970.00
143.7880, 40727.00
145.0190, 40856.00
146.2510, 40717.00
147.4820, 40794.00
148.7130, 40827.00
149.9440, 40871.00
151.1750, 40799.35
152.4050, 40770.00
153.6360, 40550.00
154.8660, 40617.00
156.0960, 40381.00
157.3260, 40284.00
158.5560, 40040.00
159.7850, 39898.00
161.0150, 40063.00
162.2440, 40283.00
163.4730, 40239.00
164.7020, 40289.00
165.9310, 40307.00
167.1590, 40167.00
168.3880, 40241.78
169.6160, 40331.00
170.8440, 40216.00
172.0720, 40124.00
173.3000, 39992.00
174.5280, 39744.00
175.7550, 39461.00
176.9820, 39437.00
178.2100, 39461.00
179.4370, 39643.00
180.6630, 39589.00
181.8900, 39618.00
183.1170, 39332.00
184.3430, 39456.00
185.5690, 39472.00
186.7950, 39885.00
188.0210, 39870.00
189.2470, 39969.00
190.4720, 40097.00
191.6970, 40312.00
192.9230, 40322.14
194.1480, 40363.63
195.3730, 40326.00
196.5970, 40371.00
197.8220, 40223.00
199.0460, 40349.00
200.2700, 40375.00
201.4940, 40083.00
202.7180, 40173.00
203.9420, 39756.00
205.1660, 39263.00
206.3890, 38988.00
207.6120, 38808.56
208.8350, 39085.00
210.0580, 38767.00
211.2810, 38983.00
212.5040, 39260.00
213.7260, 38963.00
214.9480, 38542.00
216.1700, 38715.00
217.3920, 38857.00
218.6140, 38814.00
219.8360, 38890.00
221.0570, 38900.50
222.2790, 38876.00
223.5000, 38895.00
224.7210, 38753.00
225.9410, 38728.00
227.1620, 38664.00
228.3820, 38620.00
229.6030, 38498.00
230.8230, 38811.00
232.0430, 38707.00
233.2630, 38752.00
234.4820, 38668.00
235.7020, 38850.00
236.9210, 38656.00
238.1400, 38840.00
239.3590, 38735.00
240.5780, 38987.00
241.7970, 38617.00
243.0150, 38407.00
244.2340, 38718.00
245.4520, 39000.00
246.6700, 38708.00
247.8880, 38852.00
249.1060, 39175.00
250.3230, 38847.00
251.5400, 38828.00
252.7580, 38717.00
253.9750, 38945.00
255.1920, 39334.00
256.4080, 40156.00
257.6250, 41065.00
258.8410, 42100.00
260.0580, 40892.00
261.2740, 39178.46
262.4900, 39446.91
263.7050, 39612.07
264.9210, 39679.55
266.1360, 39356.64
267.3520, 39537.83
268.5670, 39488.00
269.7820, 39708.00
270.9960, 39582.00
272.2110, 39581.00
273.4250, 39690.00
274.6400, 39942.00
275.8540, 40013.00
277.0680, 40163.00
278.2810, 40090.00
279.4950, 40110.00
280.7090, 40027.00
281.9220, 40222.23
283.1350, 40182.00
284.3480, 40630.00
285.5610, 40647.00
286.7730, 40807.00
287.9860, 40642.00
289.1980, 40906.00
290.4100, 41127.38
291.6220, 41249.00
292.8340, 41376.00
294.0460, 41920.00
295.2570, 41222.00
296.4690, 41589.00
297.6800, 41354.00
298.8910, 41762.00
300.1020, 41793.00
301.3120, 41731.00
302.5230, 41839.00
303.7330, 41815.82
304.9440, 41946.00
306.1540, 41873.00
307.3630, 41703.00
308.5730, 41780.00
309.7830, 41839.00
310.9920, 41839.00
312.2010, 41634.00
313.4100, 41599.00
314.6190, 41721.00
315.8280, 41262.00
317.0370, 41557.00
318.2450, 41691.00
319.4530, 41240.00
320.6610, 41364.00
321.8690, 41258.00
323.0770, 41098.00
324.2850, 41022.00
325.4920, 41187.00
326.6990, 41078.00
327.9060, 40857.00
329.1130, 40926.00
330.3200, 40713.00
331.5270, 40734.00
332.7330, 40474.00
333.9390, 40594.00
335.1450, 40482.00
336.3510, 40418.00
337.5570, 40413.00
338.7630, 40400.00
339.9680, 40662.00
341.1740, 40578.00
342.3790, 40623.00
343.5840, 40280.00
344.7890, 40283.00
345.9930, 40294.00
347.1980, 40126.00
348.4020, 40204.00
349.6060, 40066.00
350.8100, 40070.77
352.0140, 40200.00
353.2180, 40019.00
354.4210, 39986.00
355.6250, 39857.00
356.8280, 40054.00
358.0310, 40132.00
359.2340, 40041.00
360.4360, 39918.00
361.6390, 40096.00
362.8410, 40017.00
364.0430, 39926.00
365.2450, 39840.00
366.4470, 40034.00
367.6490, 39958.00
368.8510, 40232.00
370.0520, 39870.00
371.2530, 40202.00
372.4540, 40099.00
373.6550, 39995.00
374.8560, 40115.73
376.0560, 40107.00
377.2570, 40166.00
378.4570, 40194.00
379.6570, 40313.00
380.8570, 40318.00
382.0570, 40310.00
383.2560, 40227.00
384.4560, 40477.00
385.6550, 40091.00
386.8540, 40286.00
388.0530, 40167.00
389.2520, 40377.00
390.4510, 40282.00
391.6490, 40375.00
392.8470, 40427.00
394.0450, 40489.00
395.2430, 40523.00
396.4410, 40501.00
397.6390, 40575.18
398.8360, 40563.21
400.0340, 40687.00
401.2310, 40576.00
402.4280, 40647.00
403.6250, 40659.48
404.8210, 40860.00
406.0180, 40875.00
407.2140, 40857.00
408.4100, 41050.00
409.6060, 41118.00
410.8020, 41101.00
411.9980, 41347.00
413.1930, 41148.00
414.3890, 41023.00
415.5840, 40934.00
416.7790, 41018.00
417.9740, 40833.00
419.1680, 40977.00
420.3630, 41136.00
421.5570, 41086.00
422.7510, 41286.00
423.9450, 41412.00
425.1390, 41194.00
426.3330, 41421.00
427.5270, 41345.00
428.7200, 41120.00
429.9130, 41148.00
431.1060, 41340.00
432.2990, 41205.00
433.4920, 41336.00
434.6840, 41511.00
435.8770, 41398.00
437.0690, 41409.00
438.2610, 41531.00
439.4530, 41474.00
440.6450, 41428.00
441.8360, 41329.00
443.0280, 41587.00
444.2190, 41705.00
445.4100, 41360.00
446.6010, 41728.00
447.7920, 41625.00
448.9820, 41622.00
450.1730, 41581.00
451.3630, 41746.00
452.5530, 41560.00
453.7430, 41652.00
454.9330, 41931.00
456.1230, 42010.00
457.3120, 41787.00
458.5010, 41994.00
459.6910, 41735.00
460.8800, 41785.00
462.0680, 41890.00
463.2570, 41666.00
464.4460, 41725.00
465.6340, 41957.00
466.8220, 42030.00
468.0100, 41918.00
469.1980, 41915.00
470.3860, 41934.00
471.5730, 41961.45
472.7600, 42378.00
473.9480, 42143.00
475.1350, 42350.00
476.3210, 42516.00
477.5080, 42420.00
478.6950, 42479.00
479.8810, 42149.38
481.0670, 42431.32
482.2530, 42610.01
483.4390, 42690.98
484.6250, 42381.59
485.8100, 42576.24
486.9960, 42568.91
488.1810, 42553.26
489.3660, 42731.88
490.5510, 42709.51
491.7360, 42938.00
492.9200, 42942.00
494.1050, 43209.00
495.2890, 43306.00
496.4730, 43319.00
497.6570, 43519.00
498.8400, 43641.00
500.0240, 43677.00
501.2070, 43721.00
502.3910, 43747.00
503.5740, 43616.00
504.7570, 44010.00
505.9400, 44189.00
507.1220, 44060.00
508.3050, 44192.66
509.4870, 44161.00
510.6690, 43966.00
511.8510, 44438.00
513.0330, 44136.00
514.2140, 44316.00
515.3960, 44699.00
516.5770, 44525.00
517.7580, 44831.00
518.9390, 44767.00
520.1200, 44645.05
521.3010, 44982.71
522.4810, 45217.02
523.6610, 45353.62
524.8420, 45099.93
526.0220, 45350.24
527.2010, 45398.45
528.3810, 45438.46
529.5610, 45759.72
530.7400, 45562.64
531.9190, 45879.35
533.0980, 45990.96
534.2770, 46196.44
535.4560, 46198.66
536.6340, 46263.57
537.8120, 46531.82
538.9910, 46291.00
540.1690, 46620.00
541.3460, 46500.00
542.5240, 46669.00
543.7020, 46795.00
544.8790, 46770.44
546.0560, 47022.83
547.2330, 47171.96
548.4100, 47223.38
549.5870, 46884.42
550.7630, 47049.54
551.9400, 47012.65
553.1160, 46967.47
554.2920, 47203.53
555.4680, 46921.35
556.6440, 47152.95
557.8190, 47179.44
558.9950, 47299.81
560.1700, 47216.91
561.3450, 47196.79
562.5200, 47380.00
563.6950, 47405.00
564.8690, 47436.00
566.0440, 47551.00
567.2180, 47277.00
568.3920, 47032.00
569.5660, 47008.95
570.7400, 46818.68
571.9130, 46754.00
573.0870, 46673.00
574.2600, 46474.00
575.4330, 46297.30
576.6060, 45809.00
577.7790, 45777.00
578.9520, 45497.00
580.1240, 45138.00
581.2960, 45077.00
582.4690, 44863.00
583.6410, 44869.00
584.8120, 44366.00
585.9840, 44502.00
587.1560, 44039.00
588.3270, 44029.00
589.4980, 44097.00
590.6690, 43806.00
591.8400, 43925.00
593.0110, 44210.00
594.1810, 44041.00
595.3510, 44165.73
596.5220, 44429.00
597.6920, 44185.00
598.8610, 44076.00
600.0310, 44153.45
601.2010, 44360.00
602.3700, 44421.00
603.5390, 44533.00
604.7080, 44563.00
605.8770, 44638.00
607.0460, 44565.00
608.2140, 44907.00
609.3830, 44933.41
610.5510, 45240.00
611.7190, 45360.00
612.8870, 45469.96
614.0550, 45563.00
615.2220, 45489.21
616.3900, 45909.21
617.5570, 46225.80
618.7240, 46444.66
619.8910, 46273.16
621.0580, 46605.75
622.2240, 46736.16
623.3910, 46858.45
624.5570, 47261.82
625.7230, 47450.00
626.8890, 47613.00
628.0550, 47756.00
629.2200, 48049.00
630.3860, 48206.00
631.5510, 48883.00
632.7160, 49078.00
633.8810, 49330.00
635.0460, 49830.00
636.2100, 50070.00
637.3750, 50518.00
638.5390, 51062.00
639.7030, 51870.00
640.8670, 52289.00
642.0310, 52505.00
643.1950, 53450.00
644.3580, 53985.00
645.5210, 54772.00
646.6850, 55149.00
647.8480, 56216.00
649.0100, 56985.00
650.1730, 57864.00
651.3350, 58798.00
652.4980, 59692.53
653.6600, 60663.10
654.8220, 61621.00
655.9840, 62598.00
657.1450, 63610.00
658.3070, 64531.00
659.4680, 65564.00
660.6300, 66425.34
661.7910, 67147.00
662.9510, 68083.00
664.1120, 68767.00
665.2730, 69426.00
666.4330, 69913.00
667.5930, 70373.00
668.7530, 70736.00
669.9130, 70948.20
671.0730, 70909.00
672.2320, 71016.00
673.3920, 70752.00
674.5510, 70315.00
675.7100, 69676.00
676.8690, 69152.00
678.0280, 68568.00
679.1860, 67349.00
680.3450, 66672.00
681.5030, 65569.00
682.6610, 64653.02
683.8190, 64168.00
684.9770, 62736.00
686.1340, 61918.00
687.2920, 60817.00
688.4490, 60100.00
689.6060, 59061.00
690.7630, 58290.00
691.9200, 57032.00
693.0760, 56431.00
694.2330, 55154.00
695.3890, 54294.00
696.5450, 53870.00
697.7010, 52949.00
698.8570, 52991.00
700.0130, 51817.00
701.1680, 51093.00
702.3230, 50784.00
703.4780, 49751.00
704.6330, 49446.00
705.7880, 48711.00
706.9430, 48554.00
708.0970, 47519.00
709.2520, 47625.00
710.4060, 47054.00
711.5600, 46265.00
712.7140, 46133.00
713.8670, 45816.00
715.0210, 45852.00
716.1740, 45113.00
717.3270, 44971.00
718.4800, 44810.00
719.6330, 44310.00
720.7860, 44357.00
721.9380, 44030.00
723.0910, 43539.00
724.2430, 43554.00
725.3950, 43499.00
726.5470, 43145.00
727.6980, 43171.00
728.8500, 42727.00
730.0010, 42332.00
731.1530, 42619.00
732.3040, 42362.00
733.4550, 42114.00
734.6050, 42137.00
735.7560, 42225.00
736.9060, 41622.00
738.0560, 41812.00
739.2060, 41755.00
740.3560, 41652.00
741.5060, 41331.00
742.6560, 41433.00
743.8050, 41248.00
744.9540, 41191.00
746.1030, 41164.00
747.2520, 41052.00
748.4010, 41069.00
749.5500, 40964.12
750.6980, 40866.00
751.8460, 40817.00
752.9950, 40667.00
754.1420, 40635.00
755.2900, 40302.00
756.4380, 40694.00
757.5850, 40350.00
758.7330, 40435.00
759.8800, 40519.00
761.0270, 40393.00
762.1730, 40411.00
763.3200, 40386.00
764.4670, 40358.00
765.6130, 40249.00
766.7590, 40542.00
767.9050, 40197.00
769.0510, 40083.00
770.1960, 40331.00
771.3420, 40341.00
772.4870, 40237.75
773.6320, 40221.00
774.7770, 40088.00
775.9220, 39980.00
777.0670, 40078.00
778.2110, 40067.00
779.3560, 39901.00
780.5000, 39993.00
781.6440, 39904.79
782.7880, 39625.00
783.9320, 39911.00
785.0750, 39754.00
786.2180, 39908.00
787.3620, 39831.00
788.5050, 39817.89
789.6480, 39784.57
790.7900, 39800.00
791.9330, 39794.44
793.0750, 39696.00
794.2170, 39783.00
795.3590, 39791.00
796.5010, 39721.00
797.6430, 39868.00
798.7850, 39700.00
799.9260, 39721.90
801.0670, 39701.00
802.2080, 39626.00
803.3490, 39741.00
804.4900, 39664.00
805.6310, 39460.00
806.7710, 39557.00
807.9110, 39560.00
809.0510, 39312.00
810.1910, 39474.00
811.3310, 39446.00
812.4710, 39599.00
813.6100, 39598.00
814.7490, 39604.00
815.8880, 39588.31
817.0270, 39550.00
818.1660, 39445.00
819.3050, 39529.00
820.4430, 39447.00
821.5820, 39367.00
822.7200, 39565.00
823.8580, 39267.98
824.9950, 39498.30
826.1330, 39625.36
827.2710, 39654.70
828.4080, 39293.68
829.5450, 39436.74
830.6820, 39377.78
831.8190, 39310.55
832.9560, 39524.55
834.0920, 39220.31
835.2280, 39429.86
836.3650, 39434.32
837.5010, 39532.64
838.6360, 39427.71
839.7720, 39385.55
840.9080, 39546.72
842.0430, 39595.31
843.1780, 39494.00
844.3130, 39550.00
845.4480, 39579.00
846.5830, 39584.00
847.7170, 39719.00
848.8520, 39681.00
849.9860, 39560.00
851.1200, 39740.00
852.2540, 39406.00
853.3870, 39562.00
854.5210, 39571.00
855.6540, 39566.00
856.7880, 39651.00
857.9210, 39597.00
859.0540, 39453.00
860.1860, 39589.00
861.3190, 39659.00
862.4510, 39708.00
863.5840, 39476.00
864.7160, 39462.00
865.8480, 39728.00
866.9790, 39435.00
868.1110, 39736.00
869.2420, 39555.00
870.3740, 39804.00
871.5050, 39555.00
872.6360, 39441.00
873.7660, 39736.00
874.8970, 39611.00
876.0280, 39615.00
877.1580, 39675.00
878.2880, 39648.00
879.4180, 39660.00
880.5480, 39853.00
881.6770, 39508.00
882.8070, 39699.00
883.9360, 39597.00
885.0650, 39779.00
886.1940, 39599.00
887.3230, 39785.00
888.4520, 39613.00
889.5800, 39581.00
890.7090, 39816.00
891.8370, 39652.00
892.9650, 39844.00
894.0930, 39784.00
895.2200, 39945.00
896.3480, 40018.00
897.4750, 40029.00
898.6020, 39745.00
899.7290, 39779.00
900.8560, 39706.00
901.9830, 39717.68
903.1090, 39810.00
904.2360, 40024.00
905.3620, 39989.83
906.4880, 40037.00
907.6140, 39955.00
908.7400, 39918.00
909.8650, 39728.00
910.9900, 40046.00
912.1160, 39724.00
913.2410, 39998.00
914.3660, 39976.00
915.4900, 39939.00
916.6150, 39984.00
917.7390, 39924.00
918.8640, 40097.00
919.9880, 40381.00
921.1120, 40137.00
922.2350, 39859.00
923.3590, 40026.00
924.4820, 40276.00
925.6060, 39952.00
926.7290, 40138.00
927.8520, 39875.00
928.9740, 39976.00
930.0970, 40188.00
931.2190, 40039.00
932.3420, 40047.00
933.4640, 40254.00
934.5860, 40260.00
935.7080, 40265.00
936.8290, 40318.00
937.9510, 40481.00
939.0720, 40584.00
940.1930, 40300.00
941.3140, 40440.26
942.4350, 40344.00
943.5560, 40371.00
944.6760, 40411.00
945.7960, 40311.00
946.9170, 40400.00
948.0370, 40324.00
949.1560, 40014.00
950.2760, 40429.00
951.3960, 40013.00
952.5150, 40198.00
953.6340, 40294.00
954.7530, 40347.00
955.8720, 40371.00
956.9910, 40529.00
958.1090, 40518.00
959.2280, 40569.00
960.3460, 40388.28
961.4640, 40641.68
962.5820, 40791.80
963.6990, 40844.21
964.8170, 40506.26
965.9340, 40672.38
967.0510, 40636.48
968.1690, 40592.32
969.2850, 40829.37
970.4020, 40477.00
971.5190, 40395.00
972.6350, 40411.13
973.7510, 40299.39
974.8670, 40520.00
975.9830, 40612.00
977.0990, 40845.00
978.2150, 40830.04
979.3300, 40808.96
980.4450, 40772.00
981.5600, 40685.00
982.6750, 40608.00
983.7900, 40702.00
984.9050, 40709.00
986.0190, 40507.00
987.1340, 40690.00
988.2480, 40849.00
989.3620, 40663.00
990.4750, 40574.00
991.5890, 40638.00
992.7020, 40495.00
993.8160, 40624.00
994.9290, 40801.00
996.0420, 40766.00
997.1550, 40826.00
998.2670, 40751.00
999.3800, 40933.00
1000.492, 41041.00
1001.604, 40902.28
1002.716, 41102.00
1003.828, 40669.00
1004.940, 40997.00
1006.051, 40937.00
1007.163, 40843.00
1008.274, 40928.00
1009.385, 40939.00
1010.496, 40946.00
1011.606, 40874.00
1012.717, 40993.00
1013.827, 40968.00
1014.937, 41146.00
1016.047, 40903.00
1017.157, 41028.00
1018.267, 41008.00
1019.377, 41040.00
1020.486, 40995.00
1021.595, 41094.00
1022.704, 41029.00
1023.813, 41232.00
1024.922, 41169.00
1026.030, 41312.00
1027.139, 41218.00
1028.247, 41078.00
1029.355, 41156.00
1030.463, 41214.00
1031.571, 40960.00
1032.678, 41235.00
1033.786, 41301.00
1034.893, 41207.00
1036.000, 41311.00
1037.107, 41118.00
1038.214, 41066.00
1039.321, 41194.00
1040.427, 41269.00
1041.533, 41271.58
1042.639, 41261.00
1043.745, 41341.00
1044.851, 41448.00
1045.957, 41522.00
1047.062, 41553.77
1048.168, 41330.00
1049.273, 41573.00
1050.378, 41590.00
1051.482, 41559.00
1052.587, 41728.00
1053.692, 41678.00
1054.796, 41354.00
1055.900, 41508.00
1057.004, 41581.00
1058.108, 41953.00
1059.212, 41738.00
1060.315, 41811.00
1061.418, 41765.00
1062.522, 41763.00
1063.625, 41591.00
1064.728, 41662.00
1065.830, 41818.00
1066.933, 41604.00
1068.035, 41621.00
1069.137, 41819.00
1070.239, 41802.00
1071.341, 41913.00
1072.443, 41772.00
1073.545, 41738.00
1074.646, 42000.00
1075.747, 41558.00
1076.848, 41866.00
1077.949, 41629.00
1079.050, 41827.00
1080.150, 42087.00
1081.251, 41795.00
1082.351, 41724.00
1083.451, 41764.00
1084.551, 41711.00
1085.651, 41827.00
1086.750, 41797.00
1087.850, 41964.00
1088.949, 42032.00
1090.048, 42035.00
1091.147, 41985.82
1092.246, 41988.00
1093.345, 41763.00
1094.443, 41715.00
1095.541, 41651.00
1096.639, 41829.00
1097.737, 41781.78
1098.835, 41798.29
1099.933, 41841.00
1101.030, 41788.00
1102.128, 41769.00
1103.225, 41769.00
1104.322, 41763.00
1105.419, 41536.00
1106.515, 41547.00
1107.612, 41499.00
1108.708, 41554.47
1109.804, 41733.00
1110.900, 41732.00
1111.996, 41508.00
1113.092, 41440.00
1114.187, 41778.00
1115.283, 41394.00
1116.378, 41767.00
1117.473, 41666.00
1118.568, 41353.00
1119.662, 41569.00
1120.757, 41720.00
1121.851, 41731.00
1122.946, 41543.00
1124.040, 41307.00
1125.134, 41429.00
1126.227, 41303.00
1127.321, 41556.00
1128.414, 41432.00
1129.508, 41278.00
1130.601, 41402.00
1131.693, 41558.00
1132.786, 41362.00
1133.879, 41501.00
1134.971, 41395.00
1136.064, 41450.00
1137.156, 41332.40
1138.248, 41327.13
1139.339, 41333.49
1140.431, 41290.00
1141.522, 41329.00
1142.614, 41145.29
1143.705, 41371.23
1144.796, 41493.91
1145.887, 41518.89
1146.977, 41153.50
1148.068, 41292.19
1149.158, 41228.87
1150.248, 41157.27
1151.338, 41366.91
1152.428, 41058.30
1153.518, 41263.48
1154.607, 41263.57
1155.696, 41357.54
1156.785, 41248.24
1157.874, 41201.72
1158.963, 41358.53
1160.052, 41402.75
1161.141, 41270.05
1162.229, 41369.99
1163.317, 41054.30
1164.405, 41103.33
1165.493, 41309.72
1166.581, 41187.25
1167.668, 41290.91
1168.756, 41308.45
1169.843, 40934.61
1170.930, 40790.00
1172.017, 41282.00
1173.103, 41057.45
1174.190, 41137.42
1175.276, 41010.00
1176.363, 41101.00
1177.449, 41111.00
1178.535, 40902.00
1179.620, 40920.00
1180.706, 41075.00
1181.791, 41012.00
1182.877, 41105.00
1183.962, 40804.35
1185.047, 41037.84
1186.131, 41168.08
1187.216, 41200.60
1188.300, 40842.75
1189.385, 40988.99
1190.469, 40933.21
1191.553, 40869.15
1192.637, 41086.34
1193.720, 40785.27
1194.804, 40997.99
1195.887, 41005.62
1196.970, 41161.00
1198.053, 40799.00
1199.136, 41186.00
1200.219, 41055.00
1201.301, 40992.00
1202.383, 40901.00
1203.465, 41099.00
1204.547, 40974.00
1205.629, 41102.00
1206.711, 41085.00
1207.792, 41021.00
1208.874, 41047.00
1209.955, 41047.54
1211.036, 41174.00
1212.117, 41121.00
1213.198, 41110.00
1214.278, 41188.00
1215.359, 40849.00
1216.439, 40980.00
1217.519, 40845.00
1218.599, 41170.00
1219.678, 41278.00
1220.758, 41323.00
1221.837, 41063.00
1222.917, 41288.00
1223.996, 41012.00
1225.075, 41244.00
1226.153, 41091.00
1227.232, 41227.00
1228.310, 41347.00
1229.389, 41197.00
1230.467, 41076.00
1231.545, 41382.00
1232.622, 41367.00
1233.700, 40979.00
1234.777, 41196.00
1235.855, 41228.00
1236.932, 41212.00
1238.009, 41420.00
1239.086, 41013.00
1240.162, 41164.00
1241.239, 41142.00
1242.315, 41201.00
1243.391, 41135.00
1244.467, 41169.00
1245.543, 41484.00
1246.619, 41178.00
1247.694, 41177.00
1248.769, 41067.00
1249.844, 41467.00
1250.919, 41334.00
1251.994, 41312.00
1253.069, 41292.00
1254.144, 41225.00
1255.218, 41401.00
1256.292, 41345.16
1257.366, 41499.00
1258.440, 41385.00
1259.514, 41343.00
1260.587, 41358.00
1261.661, 41551.00
1262.734, 41602.00
1263.807, 41644.00
1264.880, 41508.00
1265.952, 41503.00
1267.025, 41561.00
1268.097, 41629.00
1269.170, 41611.00
1270.242, 41597.00
1271.314, 41536.00
1272.385, 41250.00
1273.457, 41478.00
1274.528, 41556.00
1275.600, 41683.00
1276.671, 41447.00
1277.742, 41270.00
1278.812, 41660.00
1279.883, 41821.00
1280.954, 41654.00
1282.024, 41788.00
1283.094, 41711.00
1284.164, 41788.00
1285.234, 41764.65
1286.303, 41806.00
1287.373, 41733.00
1288.442, 41734.00
1289.511, 41781.00
1290.580, 41727.00
1291.649, 42054.00
1292.718, 41717.00
1293.786, 42051.00
1294.855, 41631.00
1295.923, 41737.00
1296.991, 41923.00
1298.059, 41986.00
1299.126, 41852.00
1300.194, 42049.00
1301.261, 41992.00
1302.328, 41962.00
1303.395, 42090.00
1304.462, 42288.00
1305.529, 41935.00
1306.596, 41767.00
1307.662, 41775.00
1308.728, 42211.00
1309.794, 42099.00
1310.860, 42109.00
1311.926, 41918.00
1312.991, 42184.00
1314.057, 42035.00
1315.122, 42099.00
1316.187, 41892.00
1317.252, 41897.42
1318.317, 41898.14
1319.381, 41898.00
1320.446, 41945.00
1321.510, 42087.00
1322.574, 42156.00
1323.638, 42124.00
1324.702, 42084.00
1325.766, 41929.00
1326.829, 42221.00
1327.892, 41982.00
1328.956, 42310.00
1330.019, 42046.00
1331.081, 42058.00
1332.144, 42055.00
1333.206, 42076.00
1334.269, 42088.00
1335.331, 42242.00
1336.393, 42178.25
1337.455, 42304.00
1338.516, 42188.00
1339.578, 42192.05
1340.639, 42322.00
1341.701, 41960.52
1342.762, 42178.31
1343.822, 42292.86
1344.883, 42309.68
1345.944, 41936.13
1347.004, 42066.68
1348.064, 41995.21
1349.124, 41915.47
1350.184, 42116.96
1351.244, 41800.21
1352.304, 41997.24
1353.363, 41989.20
1354.422, 42075.02
1355.481, 41882.54
1356.540, 41886.00
1357.599, 41912.00
1358.657, 41997.00
1359.716, 42034.00
1360.774, 42004.54
1361.832, 42086.00
1362.890, 41848.00
1363.948, 42013.00
1365.006, 41797.00
1366.063, 42008.00
1367.120, 42144.00
1368.178, 42259.00
1369.234, 42195.68
1370.291, 41975.00
1371.348, 41985.00
1372.404, 41946.00
1373.461, 41916.00
1374.517, 41947.00
1375.573, 41823.00
1376.629, 41800.00
1377.684, 41712.00
1378.740, 41781.72
1379.795, 41836.28
1380.850, 41943.00
1381.905, 41988.00
1382.960, 42020.00
1384.015, 41946.00
1385.070, 41957.05
1386.124, 41824.77
1387.178, 41976.00
1388.232, 41721.00
1389.286, 41903.00
1390.340, 42271.00
1391.393, 41902.00
1392.447, 42038.00
1393.500, 42047.00
1394.553, 42123.00
1395.606, 42079.00
1396.659, 41975.00
1397.711, 41987.41
1398.764, 41921.00
1399.816, 41932.00
1400.868, 42041.00
1401.920, 42090.00
1402.972, 42035.00
1404.023, 42006.00
1405.075, 41737.00
1406.126, 41906.00
1407.177, 41813.00
1408.228, 41987.00
1409.279, 41947.00
1410.330, 41937.00
1411.380, 42155.00
1412.431, 42128.00
1413.481, 42125.00
1414.531, 41913.00
1415.580, 41947.00
1416.630, 41991.00
1417.680, 41770.00
1418.729, 42010.00
1419.778, 41976.00
1420.827, 42194.00
1421.876, 41747.00
1422.925, 42111.00
1423.973, 41870.12
1425.022, 42155.00
1426.070, 41647.00
1427.118, 41884.00
1428.166, 41910.00
1429.214, 41895.00
1430.261, 41875.00
1431.309, 42232.00
1432.356, 42046.00
1433.403, 42295.00
1434.450, 42536.00
1435.497, 42241.00
1436.543, 42178.00
1437.590, 41959.00
1438.636, 42128.00
1439.682, 42019.00
1440.728, 41945.00
1441.774, 42168.00
1442.819, 41874.00
1443.865, 42129.00
1444.910, 41935.00
1445.955, 42270.00
1447.000, 42019.00
1448.045, 41887.00
1449.090, 42146.00
1450.134, 42139.00
1451.178, 42037.00
1452.223, 42068.86
1453.267, 41997.69
1454.310, 41796.49
1455.354, 42045.57
1456.398, 42191.39
1457.441, 42239.49
1458.484, 41897.23
1459.527, 42059.04
1460.570, 42018.84
1461.613, 41970.35
1462.655, 42203.10
1463.698, 41917.61
1464.740, 42145.90
1465.782, 42169.09
1466.824, 42286.15
1467.866, 42341.00
1468.907, 42094.00
1469.948, 42059.00
1470.990, 41986.00
1472.031, 42024.00
1473.072, 42151.00
1474.112, 42413.00
1475.153, 42197.00
1476.194, 42130.00
1477.234, 42221.00
1478.274, 41783.00
1479.314, 42050.00
1480.354, 42574.00
1481.393, 41965.00
1482.433, 42324.00
1483.472, 42024.00
1484.511, 42040.00
1485.550, 42173.00
1486.589, 41990.00
1487.628, 41970.00
1488.666, 42003.00
1489.704, 42152.00
1490.743, 42058.00
1491.781, 42126.00
1492.819, 42107.88
1493.856, 41902.00
1494.894, 42105.00
1495.931, 42052.00
1496.968, 42169.00
1498.005, 42063.00
1499.042, 42048.00
1500.079, 42242.00
1501.115, 42046.00
1502.152, 42192.00
1503.188, 42128.00
1504.224, 41884.00
1505.260, 42004.00
1506.296, 42039.00
1507.331, 42594.00
1508.367, 42385.00
1509.402, 42281.00
1510.437, 41946.00
1511.472, 41846.00
1512.507, 42161.00
1513.541, 42343.00
1514.576, 41996.00
1515.610, 42193.00
1516.644, 41992.00
1517.678, 42029.00
1518.712, 41896.00
1519.746, 42117.00
1520.779, 42182.00
1521.813, 42201.02
1522.846, 42326.00
1523.879, 42356.00
1524.912, 41969.00
1525.944, 42111.00
1526.977, 42054.00
1528.009, 42246.00
1529.041, 42188.00
1530.073, 42204.00
1531.105, 42070.00
1532.137, 42107.00
1533.168, 42244.00
1534.200, 42262.00
1535.231, 42136.00
1536.262, 41812.00
1537.293, 42187.00
1538.324, 41939.42
1539.354, 41909.00
1540.385, 42022.00
1541.415, 41742.00
1542.445, 42134.00
1543.475, 42336.00
1544.505, 42172.73
1545.534, 42228.40
1546.564, 42107.00
##END=



