##NAMES=Marialite
##RRUFFID=R060469
##IDEAL CHEMISTRY=Na_4_Al_3_Si_9_O_24_Cl
##LOCALITY=Mpwa-Mpwa mine, Umba Valley, near Arusha, Tanzania
##OWNER=RRUFF
##SOURCE=Michael Scott
##DESCRIPTION=Yellow tetragonal prism with pronounced striations along the c-axis direction
##STATUS=The identification of this mineral has been confirmed by X-ray diffraction and chemical analysis
##URL=rruff.info/R060469
##MEASURED CHEMISTRY=(Na_0.66_Ca_0.27_K_0.07_)_4_(Si_0.68_Al_0.32_)_12_O_24_(Cl_0.75_(CO_3_)_0.25_)
##PIN_ID=L01385
##ORIENTATION=Laser parallel to a* (1 0 0). Fiducial mark perpendicular to laser is parallel to c [0 0 1]
60.89500, 560.0000
62.13700, 570.0000
63.38000, 578.0000
64.62300, 577.0000
65.86500, 572.0000
67.10700, 583.0000
68.34900, 580.0000
69.59100, 563.0000
70.83300, 601.0000
72.07400, 588.0000
73.31600, 558.0000
74.55700, 579.0000
75.79800, 578.0000
77.03900, 585.0000
78.27900, 593.0000
79.52000, 577.0000
80.76000, 600.0000
82.00000, 597.0000
83.24000, 615.0000
84.48000, 618.0000
85.72000, 665.0000
86.95900, 656.0000
88.19900, 669.0000
89.43800, 706.0000
90.67700, 770.0000
91.91600, 847.0000
93.15400, 899.0000
94.39300, 994.0000
95.63100, 1086.000
96.86900, 1228.000
98.10700, 1412.000
99.34500, 1638.000
100.5820, 1834.000
101.8200, 2101.000
103.0570, 2402.427
104.2940, 2805.000
105.5310, 3084.000
106.7680, 3492.000
108.0040, 3881.000
109.2410, 4119.000
110.4770, 4326.000
111.7130, 4580.000
112.9490, 4753.000
114.1850, 4913.000
115.4200, 5065.000
116.6560, 5237.602
117.8910, 5394.000
119.1260, 5561.000
120.3610, 5735.000
121.5960, 5875.000
122.8300, 6119.000
124.0640, 6229.000
125.2990, 6476.000
126.5330, 6476.000
127.7670, 6583.000
129.0000, 6666.000
130.2340, 6932.000
131.4670, 6915.000
132.7000, 6992.000
133.9330, 7042.000
135.1660, 7068.000
136.3990, 7280.000
137.6310, 7389.000
138.8640, 7542.000
140.0960, 7632.000
141.3280, 7824.000
142.5600, 8040.000
143.7910, 8295.000
145.0230, 8597.000
146.2540, 8938.000
147.4850, 9373.000
148.7160, 9732.000
149.9470, 10281.00
151.1780, 10699.37
152.4080, 11237.00
153.6380, 11699.00
154.8690, 12196.00
156.0980, 12822.00
157.3280, 13377.00
158.5580, 13696.00
159.7870, 13932.00
161.0170, 14205.00
162.2460, 14187.00
163.4750, 14267.00
164.7030, 14183.00
165.9320, 13789.00
167.1600, 13255.00
168.3890, 12866.00
169.6170, 12425.00
170.8450, 11866.00
172.0730, 11421.00
173.3000, 11010.00
174.5280, 10608.00
175.7550, 10300.67
176.9820, 10114.00
178.2090, 9845.000
179.4350, 9807.000
180.6620, 9821.000
181.8880, 9655.000
183.1150, 9666.000
184.3410, 9567.000
185.5670, 9662.000
186.7920, 9597.000
188.0180, 9702.000
189.2430, 9488.000
190.4690, 9454.000
191.6940, 9432.000
192.9180, 9232.000
194.1430, 9107.000
195.3680, 8995.000
196.5920, 8921.000
197.8160, 8821.000
199.0400, 8634.000
200.2640, 8632.000
201.4880, 8563.000
202.7110, 8428.000
203.9350, 8211.000
205.1580, 8086.000
206.3810, 8051.000
207.6040, 7919.000
208.8270, 7988.000
210.0490, 7707.000
211.2710, 7778.000
212.4940, 7676.000
213.7160, 7637.000
214.9370, 7730.000
216.1590, 7519.000
217.3810, 7503.000
218.6020, 7700.000
219.8230, 7636.000
221.0440, 7624.000
222.2650, 7671.000
223.4860, 7638.000
224.7060, 7578.000
225.9260, 7576.000
227.1470, 7621.000
228.3670, 7543.000
229.5860, 7453.000
230.8060, 7365.000
232.0260, 7267.000
233.2450, 7245.000
234.4640, 7114.000
235.6830, 7005.000
236.9020, 7002.000
238.1200, 6977.000
239.3390, 6925.000
240.5570, 6813.000
241.7750, 6839.000
242.9930, 6809.614
244.2110, 6743.000
245.4290, 6847.000
246.6460, 6862.000
247.8630, 6909.000
249.0810, 7004.000
250.2980, 7154.000
251.5140, 7274.000
252.7310, 7413.000
253.9470, 7596.000
255.1640, 7911.000
256.3800, 8026.000
257.5960, 8361.000
258.8120, 8464.000
260.0270, 8642.000
261.2430, 8609.000
262.4580, 8708.000
263.6730, 8800.000
264.8880, 8663.000
266.1030, 8495.000
267.3170, 8294.000
268.5320, 8059.000
269.7460, 7715.000
270.9600, 7455.000
272.1740, 7329.000
273.3880, 7198.000
274.6010, 6993.000
275.8150, 6940.000
277.0280, 6952.000
278.2410, 7101.000
279.4540, 7026.000
280.6670, 7171.000
281.8790, 7317.000
283.0920, 7299.000
284.3040, 7480.000
285.5160, 7564.000
286.7280, 7661.000
287.9400, 7609.000
289.1510, 7829.000
290.3630, 7670.000
291.5740, 7669.000
292.7850, 7625.000
293.9960, 7508.000
295.2070, 7240.000
296.4170, 7125.000
297.6280, 6993.000
298.8380, 6959.000
300.0480, 6777.000
301.2580, 6708.000
302.4680, 6542.000
303.6770, 6405.000
304.8870, 6189.000
306.0960, 6115.000
307.3050, 6057.000
308.5140, 5985.000
309.7230, 5975.000
310.9310, 6049.000
312.1400, 5899.000
313.3480, 5954.000
314.5560, 5993.000
315.7640, 5925.000
316.9720, 5996.000
318.1790, 5982.000
319.3870, 6091.000
320.5940, 6096.000
321.8010, 6252.000
323.0080, 6216.000
324.2150, 6427.000
325.4210, 6458.000
326.6280, 6452.000
327.8340, 6468.000
329.0400, 6599.000
330.2460, 6787.000
331.4510, 6807.000
332.6570, 6928.000
333.8620, 6896.000
335.0680, 7008.000
336.2730, 7019.000
337.4780, 7104.000
338.6820, 6946.000
339.8870, 6868.000
341.0910, 6975.000
342.2950, 6755.000
343.5000, 6746.000
344.7030, 6663.000
345.9070, 6640.000
347.1110, 6695.000
348.3140, 6691.728
349.5170, 6793.000
350.7200, 6844.000
351.9230, 6984.000
353.1260, 7188.000
354.3290, 7145.000
355.5310, 7351.000
356.7330, 7476.000
357.9350, 7547.000
359.1370, 7565.000
360.3390, 7708.000
361.5400, 7802.000
362.7420, 7582.000
363.9430, 7551.000
365.1440, 7356.000
366.3450, 7206.000
367.5460, 7188.000
368.7460, 7065.000
369.9470, 6976.000
371.1470, 6881.000
372.3470, 6805.000
373.5470, 6764.000
374.7460, 6828.000
375.9460, 6706.000
377.1450, 6770.000
378.3450, 6772.000
379.5440, 6675.000
380.7430, 6738.000
381.9410, 6698.000
383.1400, 6664.000
384.3380, 6584.000
385.5370, 6590.000
386.7350, 6528.000
387.9320, 6490.000
389.1300, 6424.000
390.3280, 6543.000
391.5250, 6578.000
392.7220, 6512.000
393.9190, 6463.000
395.1160, 6399.000
396.3130, 6535.000
397.5100, 6463.000
398.7060, 6514.000
399.9020, 6377.000
401.0980, 6489.000
402.2940, 6557.000
403.4900, 6596.000
404.6860, 6594.000
405.8810, 6481.000
407.0760, 6585.000
408.2710, 6604.000
409.4660, 6747.000
410.6610, 6759.000
411.8550, 6820.000
413.0500, 6813.000
414.2440, 6913.000
415.4380, 7102.000
416.6320, 6980.000
417.8260, 7047.000
419.0190, 7248.000
420.2130, 7276.000
421.4060, 7333.000
422.5990, 7355.000
423.7920, 7452.000
424.9850, 7435.000
426.1770, 7334.000
427.3700, 7446.000
428.5620, 7417.000
429.7540, 7486.000
430.9460, 7615.000
432.1380, 7756.000
433.3290, 7855.000
434.5210, 8141.000
435.7120, 8302.000
436.9030, 8428.000
438.0940, 8824.000
439.2850, 8962.000
440.4750, 9275.000
441.6660, 9766.000
442.8560, 10308.00
444.0460, 10927.00
445.2360, 11729.00
446.4260, 12663.00
447.6160, 13993.00
448.8050, 15404.00
449.9940, 16986.00
451.1830, 18147.00
452.3720, 19787.00
453.5610, 21407.00
454.7500, 22929.00
455.9380, 23646.00
457.1260, 24431.00
458.3150, 24627.00
459.5020, 24272.00
460.6900, 23995.00
461.8780, 22987.00
463.0650, 21476.00
464.2530, 20187.00
465.4400, 18657.00
466.6270, 17091.00
467.8130, 15671.00
469.0000, 14262.00
470.1870, 13200.00
471.3730, 12384.00
472.5590, 11638.00
473.7450, 10910.00
474.9310, 10243.00
476.1160, 9940.000
477.3020, 9491.000
478.4870, 9163.000
479.6720, 8826.000
480.8570, 8745.000
482.0420, 8442.000
483.2270, 8405.000
484.4110, 8334.000
485.5960, 8061.000
486.7800, 8029.000
487.9640, 7979.000
489.1480, 7960.000
490.3310, 7863.000
491.5150, 7719.000
492.6980, 7768.000
493.8810, 7717.000
495.0640, 7721.000
496.2470, 7777.000
497.4300, 7706.000
498.6120, 7629.000
499.7950, 7805.000
500.9770, 7583.000
502.1590, 7703.000
503.3410, 7634.000
504.5220, 7554.000
505.7040, 7587.000
506.8850, 7608.000
508.0660, 7604.000
509.2470, 7570.000
510.4280, 7658.000
511.6090, 7592.000
512.7890, 7708.000
513.9700, 7706.000
515.1500, 7670.000
516.3300, 7711.000
517.5100, 7834.000
518.6900, 7807.000
519.8690, 8027.000
521.0490, 8123.000
522.2280, 8039.000
523.4070, 8284.000
524.5860, 8562.000
525.7640, 8714.000
526.9430, 9001.000
528.1210, 9540.000
529.3000, 9988.000
530.4780, 10460.00
531.6560, 11162.00
532.8330, 11582.00
534.0110, 12175.00
535.1880, 12667.00
536.3650, 12837.00
537.5430, 13079.00
538.7190, 12952.00
539.8960, 12748.00
541.0730, 12039.00
542.2490, 11569.00
543.4250, 10829.00
544.6020, 10379.00
545.7780, 9829.000
546.9530, 9360.000
548.1290, 9204.000
549.3040, 8932.000
550.4800, 8859.000
551.6550, 8593.000
552.8300, 8570.000
554.0040, 8454.000
555.1790, 8278.000
556.3540, 8354.000
557.5280, 8278.000
558.7020, 8258.000
559.8760, 8166.000
561.0500, 8193.000
562.2230, 8240.000
563.3970, 8226.000
564.5700, 8207.000
565.7430, 8232.000
566.9160, 8246.000
568.0890, 8178.000
569.2620, 8148.000
570.4340, 8253.000
571.6070, 8258.000
572.7790, 8094.000
573.9510, 8148.000
575.1230, 8231.000
576.2940, 8312.000
577.4660, 8270.000
578.6370, 8285.000
579.8080, 8263.000
580.9790, 8282.770
582.1500, 8227.000
583.3210, 8350.000
584.4910, 8357.000
585.6620, 8423.000
586.8320, 8340.000
588.0020, 8352.000
589.1720, 8486.000
590.3410, 8360.000
591.5110, 8492.000
592.6800, 8619.000
593.8500, 8462.000
595.0190, 8648.000
596.1880, 8646.000
597.3560, 8642.000
598.5250, 8775.000
599.6930, 8733.000
600.8620, 8830.000
602.0300, 8810.000
603.1970, 8835.876
604.3650, 8846.000
605.5330, 8864.000
606.7000, 8884.000
607.8680, 8873.000
609.0350, 8888.000
610.2020, 8862.000
611.3680, 8883.405
612.5350, 8915.729
613.7010, 8898.000
614.8680, 8970.000
616.0340, 8946.000
617.2000, 8897.000
618.3660, 8980.000
619.5310, 8839.000
620.6970, 8993.000
621.8620, 8946.000
623.0270, 8788.000
624.1920, 8919.000
625.3570, 8870.000
626.5220, 8908.000
627.6860, 8870.000
628.8500, 8931.000
630.0140, 8867.000
631.1780, 8975.000
632.3420, 9144.000
633.5060, 9030.000
634.6700, 8999.000
635.8330, 9045.000
636.9960, 8924.000
638.1590, 9151.000
639.3220, 9040.000
640.4850, 9074.000
641.6470, 9045.000
642.8100, 9038.000
643.9720, 9100.000
645.1340, 9018.000
646.2960, 9098.000
647.4570, 9183.000
648.6190, 9201.000
649.7800, 9174.000
650.9420, 9118.000
652.1030, 9281.000
653.2640, 9179.000
654.4240, 9380.000
655.5850, 9324.000
656.7450, 9410.000
657.9060, 9361.000
659.0660, 9404.000
660.2260, 9500.000
661.3850, 9323.000
662.5450, 9490.000
663.7040, 9529.000
664.8640, 9473.000
666.0230, 9540.000
667.1820, 9606.000
668.3410, 9549.000
669.4990, 9566.000
670.6580, 9604.000
671.8160, 9613.000
672.9740, 9587.000
674.1320, 9719.000
675.2900, 9668.000
676.4480, 9736.000
677.6050, 9692.000
678.7630, 9765.000
679.9200, 9717.000
681.0770, 9649.000
682.2340, 9812.000
683.3900, 9864.000
684.5470, 9809.000
685.7030, 9833.000
686.8590, 9738.000
688.0150, 9766.000
689.1710, 9804.000
690.3270, 9798.000
691.4830, 9855.000
692.6380, 10000.00
693.7930, 9817.000
694.9480, 9850.000
696.1030, 9750.000
697.2580, 9879.000
698.4130, 9973.000
699.5670, 9997.000
700.7210, 10006.00
701.8750, 10085.00
703.0290, 10123.00
704.1830, 10132.00
705.3370, 10114.00
706.4900, 10162.00
707.6430, 10224.00
708.7970, 10050.00
709.9490, 10355.00
711.1020, 10317.00
712.2550, 10132.00
713.4070, 10337.00
714.5600, 10236.00
715.7120, 10286.00
716.8640, 10247.00
718.0160, 10341.00
719.1670, 10344.00
720.3190, 10311.00
721.4700, 10330.00
722.6210, 10341.00
723.7720, 10454.00
724.9230, 10527.00
726.0740, 10535.00
727.2250, 10562.00
728.3750, 10560.00
729.5250, 10580.00
730.6750, 10587.00
731.8250, 10588.99
732.9750, 10589.00
734.1240, 10603.00
735.2740, 10648.00
736.4230, 10679.00
737.5720, 10536.00
738.7210, 10667.00
739.8700, 10483.00
741.0190, 10757.00
742.1670, 10794.00
743.3150, 10880.00
744.4630, 10741.00
745.6110, 10806.00
746.7590, 10911.00
747.9070, 11000.00
749.0540, 10987.00
750.2020, 10935.00
751.3490, 11145.00
752.4960, 11348.00
753.6430, 11297.00
754.7890, 11366.00
755.9360, 11429.00
757.0820, 11560.00
758.2280, 11549.00
759.3740, 11715.00
760.5200, 11713.00
761.6660, 11858.00
762.8120, 11929.00
763.9570, 12054.00
765.1020, 12479.00
766.2470, 12464.00
767.3920, 12603.00
768.5370, 12708.00
769.6810, 12695.00
770.8260, 12932.00
771.9700, 12942.00
773.1140, 12839.00
774.2580, 13013.00
775.4020, 13053.00
776.5460, 12922.00
777.6890, 12853.00
778.8320, 12740.00
779.9750, 12559.00
781.1180, 12372.00
782.2610, 12281.00
783.4040, 12152.73
784.5460, 12138.00
785.6890, 11975.00
786.8310, 11930.00
787.9730, 11838.00
789.1150, 11918.00
790.2560, 11833.00
791.3980, 11820.00
792.5390, 11658.00
793.6810, 11852.00
794.8220, 11909.00
795.9630, 11646.00
797.1030, 11903.00
798.2440, 11881.00
799.3840, 11995.00
800.5240, 12245.00
801.6650, 12061.00
802.8040, 12193.00
803.9440, 12441.00
805.0840, 12331.00
806.2230, 12364.00
807.3630, 12515.00
808.5020, 12550.00
809.6410, 12543.00
810.7790, 12579.00
811.9180, 12642.00
813.0570, 12423.00
814.1950, 12361.00
815.3330, 12252.00
816.4710, 12329.00
817.6090, 12113.00
818.7470, 12145.00
819.8840, 12056.00
821.0220, 12065.00
822.1590, 12110.00
823.2960, 12149.00
824.4330, 12289.00
825.5690, 12214.00
826.7060, 12287.00
827.8420, 12173.00
828.9790, 12210.00
830.1150, 12301.00
831.2510, 12335.00
832.3860, 12349.00
833.5220, 12364.00
834.6570, 12403.29
835.7930, 12426.53
836.9280, 12461.00
838.0630, 12469.00
839.1980, 12464.00
840.3320, 12429.00
841.4670, 12576.00
842.6010, 12703.00
843.7350, 12598.00
844.8690, 12624.00
846.0030, 12617.00
847.1370, 12551.00
848.2700, 12657.00
849.4040, 12769.00
850.5370, 12694.00
851.6700, 12630.00
852.8030, 12837.00
853.9360, 12808.00
855.0680, 12710.00
856.2000, 12754.00
857.3330, 12784.00
858.4650, 12850.00
859.5970, 12864.00
860.7290, 12912.95
861.8600, 12866.00
862.9920, 12970.00
864.1230, 13042.00
865.2540, 13026.00
866.3850, 12959.00
867.5160, 13126.00
868.6460, 13044.00
869.7770, 13115.00
870.9070, 13077.00
872.0370, 13147.00
873.1670, 13239.00
874.2970, 13291.00
875.4270, 13307.00
876.5570, 13377.52
877.6860, 13373.85
878.8150, 13435.00
879.9440, 13388.00
881.0730, 13334.00
882.2020, 13358.00
883.3300, 13403.00
884.4590, 13480.00
885.5870, 13548.00
886.7150, 13585.05
887.8430, 13532.00
888.9710, 13655.00
890.0990, 13549.00
891.2260, 13553.00
892.3530, 13551.00
893.4810, 13640.00
894.6080, 13712.00
895.7340, 13756.00
896.8610, 13806.00
897.9880, 13829.00
899.1140, 13841.00
900.2400, 13812.00
901.3660, 13895.00
902.4920, 13860.00
903.6180, 13888.00
904.7430, 13983.00
905.8690, 14091.00
906.9940, 13991.00
908.1190, 14082.00
909.2440, 14020.00
910.3690, 14164.00
911.4930, 14015.00
912.6180, 14308.00
913.7420, 14146.00
914.8660, 14339.00
915.9900, 14116.00
917.1140, 14250.00
918.2380, 14245.00
919.3610, 14347.00
920.4850, 14504.00
921.6080, 14469.00
922.7310, 14461.00
923.8540, 14444.00
924.9760, 14497.00
926.0990, 14433.00
927.2210, 14543.00
928.3440, 14558.38
929.4660, 14692.00
930.5880, 14632.00
931.7090, 14697.00
932.8310, 14675.00
933.9520, 14701.00
935.0740, 14755.00
936.1950, 14828.00
937.3160, 14724.00
938.4360, 14788.00
939.5570, 14838.00
940.6780, 14928.00
941.7980, 14935.00
942.9180, 14933.00
944.0380, 14950.00
945.1580, 14992.00
946.2780, 15104.00
947.3970, 15142.00
948.5170, 15219.00
949.6360, 15247.00
950.7550, 15157.00
951.8740, 15254.00
952.9930, 15270.00
954.1110, 15347.00
955.2300, 15339.00
956.3480, 15436.00
957.4660, 15481.00
958.5840, 15391.00
959.7020, 15513.00
960.8190, 15669.00
961.9370, 15601.00
963.0540, 15662.00
964.1710, 15627.00
965.2880, 15651.00
966.4050, 15636.00
967.5220, 15780.00
968.6380, 15741.00
969.7550, 15863.00
970.8710, 15885.00
971.9870, 15776.00
973.1030, 15828.00
974.2190, 15877.00
975.3340, 15916.00
976.4500, 15994.00
977.5650, 16133.00
978.6800, 16253.00
979.7950, 16380.00
980.9100, 16564.00
982.0250, 16687.00
983.1390, 16700.00
984.2530, 16974.00
985.3680, 17107.00
986.4820, 17447.00
987.5950, 17411.00
988.7090, 17775.00
989.8230, 18003.00
990.9360, 18287.00
992.0490, 18359.00
993.1620, 18402.00
994.2750, 18365.00
995.3880, 18216.00
996.5010, 18059.00
997.6130, 17905.00
998.7250, 17587.00
999.8370, 17286.00
1000.949, 17145.00
1002.061, 17201.00
1003.173, 17121.00
1004.284, 17001.00
1005.396, 16874.00
1006.507, 16886.00
1007.618, 17059.00
1008.729, 17124.00
1009.839, 17096.00
1010.950, 17095.00
1012.060, 17038.00
1013.171, 17164.00
1014.281, 17280.00
1015.391, 17219.00
1016.500, 17194.00
1017.610, 17100.00
1018.719, 17206.00
1019.829, 17397.00
1020.938, 17485.00
1022.047, 17564.00
1023.156, 17573.00
1024.264, 17600.00
1025.373, 17682.00
1026.481, 17507.00
1027.589, 17705.00
1028.697, 17841.00
1029.805, 17587.00
1030.913, 17784.00
1032.020, 17930.00
1033.128, 17692.00
1034.235, 18107.00
1035.342, 18012.00
1036.449, 18270.00
1037.556, 18269.00
1038.663, 18359.00
1039.769, 18223.00
1040.875, 18399.00
1041.981, 18371.00
1043.087, 18377.00
1044.193, 18345.00
1045.299, 18584.00
1046.404, 18554.00
1047.510, 18630.00
1048.615, 18626.00
1049.720, 18854.00
1050.825, 18724.00
1051.930, 18935.00
1053.034, 18905.00
1054.139, 19003.00
1055.243, 19038.00
1056.347, 19110.00
1057.451, 19158.00
1058.555, 19332.00
1059.658, 19363.00
1060.762, 19447.00
1061.865, 19525.00
1062.968, 19596.53
1064.071, 19668.00
1065.174, 19786.00
1066.277, 19757.00
1067.380, 19882.00
1068.482, 20083.00
1069.584, 20079.00
1070.686, 20208.00
1071.788, 20161.00
1072.890, 20143.00
1073.992, 20579.00
1075.093, 20495.00
1076.194, 20552.00
1077.295, 20444.00
1078.396, 20380.00
1079.497, 20389.00
1080.598, 20400.94
1081.698, 20411.14
1082.799, 20520.00
1083.899, 20564.00
1084.999, 20606.00
1086.099, 20857.00
1087.199, 20847.00
1088.298, 21114.00
1089.398, 21282.00
1090.497, 21239.00
1091.596, 21550.00
1092.695, 21766.00
1093.794, 21786.00
1094.892, 21807.00
1095.991, 21978.00
1097.089, 22094.00
1098.187, 22175.00
1099.285, 22179.00
1100.383, 22073.00
1101.481, 22338.00
1102.579, 22077.00
1103.676, 21850.00
1104.773, 21593.00
1105.870, 21688.00
1106.967, 21575.00
1108.064, 21805.00
1109.161, 22067.00
1110.257, 22139.00
1111.353, 22625.00
1112.449, 22430.00
1113.545, 22554.00
1114.641, 22447.00
1115.737, 22235.00
1116.832, 21927.00
1117.928, 21457.00
1119.023, 21256.00
1120.118, 21225.00
1121.213, 20980.00
1122.308, 21351.00
1123.402, 20939.00
1124.497, 21235.00
1125.591, 21250.00
1126.685, 21402.00
1127.779, 21178.00
1128.873, 21183.00
1129.967, 21038.00
1131.060, 21064.00
1132.153, 21168.00
1133.247, 21161.00
1134.340, 21154.00
1135.433, 21126.00
1136.525, 21366.00
1137.618, 21186.00
1138.710, 21341.00
1139.802, 21273.00
1140.895, 21311.00
1141.987, 21382.00
1143.078, 21439.00
1144.170, 21495.00
1145.261, 21556.00
1146.353, 21612.00
1147.444, 21645.72
1148.535, 21749.00
1149.626, 21721.00
1150.716, 21775.00
1151.807, 21847.00
1152.897, 21978.00
1153.988, 21989.00
1155.078, 21848.00
1156.168, 21945.00
1157.257, 22116.00
1158.347, 21863.00
1159.436, 22058.00
1160.526, 22101.00
1161.615, 22265.00
1162.704, 22317.56
1163.793, 22328.68
1164.881, 22407.00
1165.970, 22299.00
1167.058, 22317.00
1168.147, 22280.00
1169.235, 22318.11
1170.323, 22275.00
1171.410, 22449.00
1172.498, 22442.00
1173.585, 22515.00
1174.673, 22693.00
1175.760, 22658.00
1176.847, 22578.00
1177.934, 22583.00
1179.020, 22641.96
1180.107, 22689.21
1181.193, 22837.00
1182.279, 22885.00
1183.365, 22998.00
1184.451, 23084.00
1185.537, 23229.00
1186.623, 23183.00
1187.708, 23465.00
1188.793, 23214.00
1189.878, 23422.00
1190.963, 23545.00
1192.048, 23526.00
1193.133, 23438.00
1194.217, 23525.00
1195.302, 23615.00
1196.386, 23606.30
1197.470, 23745.00
1198.554, 23771.00
1199.638, 23768.00
1200.721, 24034.00
1201.805, 24095.00
1202.888, 24335.00
1203.971, 24109.00
1205.054, 24066.00
1206.137, 24388.00
1207.219, 24238.00
1208.302, 24282.00
1209.384, 24375.00
1210.466, 24309.00
1211.548, 24401.00
1212.630, 24484.00
1213.712, 24390.00
1214.794, 24352.00
1215.875, 24325.00
1216.956, 24356.02
1218.037, 24442.00
1219.118, 24496.00
1220.199, 24605.00
1221.280, 24711.00
1222.360, 24504.00
1223.441, 24598.00
1224.521, 24627.00
1225.601, 24628.00
1226.681, 24731.12
1227.760, 24870.00
1228.840, 24889.00
1229.919, 24906.00
1230.999, 24973.00
1232.078, 24976.00
1233.157, 24981.00
1234.236, 25074.00
1235.314, 25099.43
1236.393, 25157.37
1237.471, 25226.00
1238.549, 25335.00
1239.627, 25411.00
1240.705, 25634.00
1241.783, 25410.00
1242.860, 25292.00
1243.938, 25743.00
1245.015, 25512.00
1246.092, 25682.00
1247.169, 25717.00
1248.246, 25590.00
1249.323, 25654.00
1250.399, 25771.00
1251.475, 26043.00
1252.552, 25778.00
1253.628, 26002.00
1254.703, 25988.00
1255.779, 26021.00
1256.855, 26318.00
1257.930, 26114.00
1259.005, 26210.00
1260.080, 26203.00
1261.155, 26370.00
1262.230, 26395.00
1263.305, 26210.00
1264.379, 26542.00
1265.454, 26416.00
1266.528, 26465.00
1267.602, 26569.00
1268.676, 26575.00
1269.750, 26885.00
1270.823, 27051.00
1271.897, 26970.00
1272.970, 27201.00
1274.043, 26849.00
1275.116, 27150.00
1276.189, 26974.00
1277.261, 27096.00
1278.334, 26928.00
1279.406, 27068.00
1280.478, 27435.00
1281.550, 27315.00
1282.622, 27439.00
1283.694, 27378.00
1284.766, 27368.00
1285.837, 27531.00
1286.908, 27315.00
1287.979, 27598.00
1289.050, 27669.00
1290.121, 27537.00
1291.192, 27829.00
1292.262, 27825.00
1293.333, 27845.00
1294.403, 27705.00
1295.473, 27827.00
1296.543, 27811.00
1297.613, 27813.92
1298.682, 27938.00
1299.752, 27954.00
1300.821, 28053.00
1301.890, 28326.00
1302.959, 28334.00
1304.028, 28433.00
1305.096, 28326.00
1306.165, 28477.00
1307.233, 28577.00
1308.301, 28507.00
1309.370, 28702.00
1310.437, 28639.00
1311.505, 28891.00
1312.573, 28751.00
1313.640, 29031.00
1314.708, 29042.00
1315.775, 29033.00
1316.842, 28885.00
1317.908, 29148.00
1318.975, 28958.00
1320.042, 29251.00
1321.108, 29403.00
1322.174, 29463.00
1323.240, 29445.00
1324.306, 29490.00
1325.372, 29388.00
1326.438, 29456.00
1327.503, 29793.00
1328.568, 29678.00
1329.634, 29577.00
1330.699, 29905.00
1331.763, 29794.00
1332.828, 29840.00
1333.893, 30029.00
1334.957, 30025.00
1336.021, 30187.00
1337.085, 30290.00
1338.149, 30135.00
1339.213, 30183.00
1340.277, 30404.00
1341.340, 30302.00
1342.404, 30400.00
1343.467, 30532.00
1344.530, 30464.00
1345.593, 30599.00
1346.655, 30655.96
1347.718, 30624.00
1348.780, 30816.00
1349.843, 30876.00
1350.905, 30949.00
1351.967, 30912.00
1353.028, 30979.00
1354.090, 30934.00
1355.152, 31157.00
1356.213, 31233.00
1357.274, 31021.00
1358.335, 31312.00
1359.396, 31137.00
1360.457, 31419.00
1361.517, 31247.00
1362.578, 31122.00
1363.638, 31487.00
1364.698, 31534.00
1365.758, 31565.00
1366.818, 31707.00
1367.878, 31747.00
1368.937, 31927.00
1369.997, 31790.00
1371.056, 31752.00
1372.115, 32059.00
1373.174, 31987.00
1374.232, 32406.00
1375.291, 32048.00
1376.350, 32102.00
1377.408, 32322.00
1378.466, 32146.00
1379.524, 32409.00
1380.582, 32370.00
1381.640, 32610.00
1382.697, 32546.00
1383.754, 32590.00
1384.812, 32770.00
1385.869, 32537.00
1386.926, 32670.00
1387.983, 32814.00
1389.039, 33091.00
1390.096, 32752.00
1391.152, 32880.00
1392.208, 33028.00
1393.264, 33193.00
1394.320, 33149.00
1395.376, 33202.00
1396.431, 33266.00
1397.487, 33406.00
1398.542, 33350.00
1399.597, 33553.00
1400.652, 33673.00
1401.707, 33458.00
1402.762, 33578.00
1403.816, 33789.00
1404.871, 33740.00
1405.925, 33990.00
1406.979, 33948.00
1408.033, 34138.00
1409.086, 33959.00
1410.140, 34103.00
1411.194, 33852.00
1412.247, 34222.00
1413.300, 34366.00
1414.353, 34418.00
1415.406, 34645.00
1416.458, 34553.00
1417.511, 34446.00
1418.563, 34727.00
1419.616, 34992.00
1420.668, 34958.00
1421.720, 34679.00
1422.772, 35087.00
1423.823, 35067.00
1424.875, 34809.00
1425.926, 35184.00
1426.977, 35200.00
1428.028, 35322.00
1429.079, 35264.00
1430.130, 35316.00
1431.180, 35392.19
1432.231, 35500.00
1433.281, 35570.00
1434.331, 35713.00
1435.381, 35872.00
1436.431, 35715.00
1437.481, 35556.00
1438.530, 35773.00
1439.580, 35867.00
1440.629, 36226.00
1441.678, 36029.00
1442.727, 36339.00
1443.776, 36279.00
1444.824, 36300.00
1445.873, 36465.00
1446.921, 36618.00
1447.969, 36506.00
1449.017, 36624.00
1450.065, 36557.00
1451.113, 36985.00
1452.160, 36794.00
1453.208, 36574.00
1454.255, 37022.00
1455.302, 37368.00
1456.349, 37151.00
1457.396, 37242.00
1458.443, 37505.00
1459.489, 37336.00
1460.535, 37397.00
1461.582, 37515.00
1462.628, 37470.00
1463.674, 37538.00
1464.719, 37596.00
1465.765, 37806.00
1466.810, 37637.00
1467.856, 37988.00
1468.901, 38026.00
1469.946, 37912.00
1470.991, 38177.00
1472.035, 38111.00
1473.080, 38151.00
1474.124, 38155.00
1475.169, 38104.00
1476.213, 38374.00
1477.257, 38403.00
1478.300, 38444.00
1479.344, 38599.00
1480.388, 38673.00
1481.431, 38566.00
1482.474, 38974.00
1483.517, 39115.00
1484.560, 39080.00
1485.603, 39027.00
1486.645, 39233.00
1487.688, 39316.00
1488.730, 39435.00
1489.772, 39369.00
1490.814, 39408.00
1491.856, 39507.00
1492.898, 39618.00
1493.939, 39444.00
1494.981, 40004.00
1496.022, 39894.00
1497.063, 39844.00
1498.104, 40313.00
1499.145, 40267.00
1500.186, 40296.00
1501.226, 40351.00
1502.266, 40184.00
1503.307, 40442.00
1504.347, 40274.00
1505.387, 40385.00
1506.426, 40494.00
1507.466, 40453.00
1508.505, 40778.00
1509.545, 40878.00
1510.584, 41094.00
1511.623, 41147.29
1512.662, 41094.00
1513.700, 41235.00
1514.739, 41214.00
1515.777, 41377.00
1516.815, 41689.00
1517.854, 41651.00
1518.892, 41501.00
1519.929, 41728.00
1520.967, 41547.00
1522.004, 41599.00
1523.042, 41909.00
1524.079, 41843.00
1525.116, 41989.00
1526.153, 42063.00
1527.190, 42414.00
1528.226, 42288.00
1529.263, 42375.00
1530.299, 42444.00
1531.335, 42302.00
1532.371, 42573.00
1533.407, 42305.00
1534.443, 42732.00
1535.478, 42926.00
1536.514, 43051.00
1537.549, 42799.00
1538.584, 42763.00
1539.619, 43021.00
1540.654, 43421.00
1541.689, 43281.00
1542.723, 43311.00
1543.757, 43272.00
1544.792, 43352.00
1545.826, 43577.00
1546.860, 43564.00
1547.893, 43534.00
1548.927, 43435.00
1549.960, 43561.20
1550.994, 43776.00
1552.027, 43776.00
1553.060, 43811.00
1554.093, 43880.00
1555.126, 43932.45
1556.158, 44019.00
1557.191, 44067.00
1558.223, 44236.00
1559.255, 44261.00
1560.287, 44425.00
1561.319, 44477.58
1562.350, 44420.00
1563.382, 44602.00
1564.413, 44511.00
1565.444, 44572.00
1566.476, 44594.00
1567.506, 44676.00
1568.537, 44836.00
1569.568, 44862.23
1570.598, 45020.00
1571.629, 44987.00
1572.659, 45078.00
1573.689, 45118.05
1574.719, 45313.00
1575.749, 45368.00
1576.778, 45465.00
1577.808, 45770.00
1578.837, 45989.00
##END=



