##NAMES=Marialite
##RRUFFID=R060526
##IDEAL CHEMISTRY=Na_4_Al_3_Si_9_O_24_Cl
##LOCALITY=Minas Gerais, Brazil
##OWNER=RRUFF
##SOURCE=Michael Scott
##DESCRIPTION=Heavily striated pale yellow elongated prism
##STATUS=The identification of this mineral has been confirmed by X-ray diffraction and chemical analysis
##URL=rruff.info/R060526
##MEASURED CHEMISTRY=(Na_0.62_Ca_0.33_K_0.05_)_4_(Si_0.66_Al_0.34_)_12_O_24_(Cl_0.77_(CO_3_)_0.23_)
##PIN_ID=L01174
##ORIENTATION=Laser parallel to a* (1 0 0). Fiducial mark perpendicular to laser is parallel to c [0 0 1]
60.89500, 567.0000
62.13700, 571.0000
63.38000, 565.0000
64.62300, 552.0000
65.86500, 565.0000
67.10700, 565.0000
68.34900, 568.0000
69.59100, 571.7208
70.83300, 580.0000
72.07400, 572.0000
73.31600, 566.0000
74.55700, 562.0000
75.79800, 568.0000
77.03900, 560.0000
78.27900, 564.0000
79.52000, 549.0000
80.76000, 578.0000
82.00000, 583.0000
83.24000, 561.0000
84.48000, 580.0000
85.72000, 575.0000
86.95900, 580.0000
88.19900, 552.0000
89.43800, 578.0000
90.67700, 578.0000
91.91600, 604.0000
93.15400, 581.0000
94.39300, 602.0000
95.63100, 611.0000
96.86900, 605.0000
98.10700, 642.0000
99.34500, 646.0000
100.5820, 711.0000
101.8200, 754.0000
103.0570, 784.0000
104.2940, 808.0000
105.5310, 882.0000
106.7680, 958.0000
108.0040, 1021.000
109.2410, 1119.000
110.4770, 1207.000
111.7130, 1293.000
112.9490, 1433.000
114.1850, 1565.036
115.4200, 1717.000
116.6560, 1901.000
117.8910, 2079.000
119.1260, 2295.000
120.3610, 2445.000
121.5960, 2673.000
122.8300, 2870.000
124.0640, 3068.000
125.2990, 3266.293
126.5330, 3446.228
127.7670, 3629.000
129.0000, 3761.000
130.2340, 3907.000
131.4670, 3973.000
132.7000, 3996.000
133.9330, 3982.000
135.1660, 3981.000
136.3990, 3956.000
137.6310, 3923.851
138.8640, 3874.381
140.0960, 3836.000
141.3280, 3748.000
142.5600, 3686.000
143.7910, 3623.000
145.0230, 3624.000
146.2540, 3567.000
147.4850, 3609.000
148.7160, 3487.000
149.9470, 3584.000
151.1780, 3599.000
152.4080, 3682.000
153.6380, 3680.000
154.8690, 3770.000
156.0980, 3860.154
157.3280, 3978.000
158.5580, 4112.000
159.7870, 4235.000
161.0170, 4329.378
162.2460, 4406.000
163.4750, 4464.000
164.7030, 4459.216
165.9320, 4453.604
167.1600, 4365.000
168.3890, 4318.000
169.6170, 4187.000
170.8450, 4006.000
172.0730, 3919.000
173.3000, 3723.000
174.5280, 3598.000
175.7550, 3537.000
176.9820, 3435.000
178.2090, 3445.000
179.4350, 3322.000
180.6620, 3367.000
181.8880, 3304.000
183.1150, 3360.000
184.3410, 3374.000
185.5670, 3439.000
186.7920, 3443.000
188.0180, 3468.000
189.2430, 3574.000
190.4690, 3536.000
191.6940, 3608.000
192.9180, 3682.000
194.1430, 3670.000
195.3680, 3654.000
196.5920, 3674.132
197.8160, 3689.000
199.0400, 3644.000
200.2640, 3636.000
201.4880, 3581.704
202.7110, 3601.000
203.9350, 3540.000
205.1580, 3565.000
206.3810, 3587.000
207.6040, 3503.000
208.8270, 3508.000
210.0490, 3416.000
211.2710, 3438.000
212.4940, 3481.000
213.7160, 3475.000
214.9370, 3616.000
216.1590, 3644.000
217.3810, 3740.000
218.6020, 3744.000
219.8230, 3840.000
221.0440, 3861.000
222.2650, 3856.000
223.4860, 3849.000
224.7060, 3795.000
225.9260, 3769.000
227.1470, 3709.000
228.3670, 3663.000
229.5860, 3538.000
230.8060, 3457.000
232.0260, 3464.000
233.2450, 3339.000
234.4640, 3331.000
235.6830, 3264.000
236.9020, 3211.000
238.1200, 3171.000
239.3390, 3108.000
240.5570, 3074.000
241.7750, 3096.000
242.9930, 3102.000
244.2110, 3085.000
245.4290, 3062.000
246.6460, 3174.000
247.8630, 3130.000
249.0810, 3249.000
250.2980, 3322.000
251.5140, 3487.000
252.7310, 3618.000
253.9470, 3851.000
255.1640, 4101.000
256.3800, 4300.000
257.5960, 4541.000
258.8120, 4920.000
260.0270, 5187.000
261.2430, 5436.000
262.4580, 5682.000
263.6730, 5976.000
264.8880, 5970.000
266.1030, 5879.000
267.3170, 5640.000
268.5320, 5307.000
269.7460, 4953.000
270.9600, 4508.000
272.1740, 4220.000
273.3880, 3932.000
274.6010, 3672.000
275.8150, 3521.000
277.0280, 3347.000
278.2410, 3187.000
279.4540, 3143.000
280.6670, 3149.000
281.8790, 3043.000
283.0920, 2972.000
284.3040, 3062.000
285.5160, 3081.000
286.7280, 3136.000
287.9400, 3214.000
289.1510, 3301.000
290.3630, 3389.000
291.5740, 3542.000
292.7850, 3613.000
293.9960, 3653.000
295.2070, 3829.000
296.4170, 3978.000
297.6280, 4240.000
298.8380, 4458.000
300.0480, 4434.000
301.2580, 4196.000
302.4680, 3935.000
303.6770, 3672.000
304.8870, 3305.000
306.0960, 3119.000
307.3050, 3024.000
308.5140, 2932.000
309.7230, 2866.000
310.9310, 2811.801
312.1400, 2813.000
313.3480, 2763.000
314.5560, 2757.000
315.7640, 2797.000
316.9720, 2700.000
318.1790, 2632.000
319.3870, 2692.000
320.5940, 2713.000
321.8010, 2752.000
323.0080, 2687.000
324.2150, 2770.000
325.4210, 2735.000
326.6280, 2761.000
327.8340, 2819.000
329.0400, 2862.000
330.2460, 2905.000
331.4510, 2852.000
332.6570, 2969.000
333.8620, 2891.000
335.0680, 3018.000
336.2730, 3018.000
337.4780, 3019.000
338.6820, 2970.000
339.8870, 3009.000
341.0910, 3053.000
342.2950, 3036.000
343.5000, 3072.000
344.7030, 3044.000
345.9070, 3108.000
347.1110, 3088.000
348.3140, 3235.000
349.5170, 3228.000
350.7200, 3219.000
351.9230, 3363.000
353.1260, 3454.000
354.3290, 3637.000
355.5310, 3674.000
356.7330, 3790.000
357.9350, 3836.000
359.1370, 3982.000
360.3390, 4052.000
361.5400, 4114.000
362.7420, 4094.000
363.9430, 3978.000
365.1440, 3844.000
366.3450, 3630.000
367.5460, 3578.000
368.7460, 3475.000
369.9470, 3474.000
371.1470, 3377.000
372.3470, 3389.000
373.5470, 3490.000
374.7460, 3391.000
375.9460, 3533.000
377.1450, 3618.000
378.3450, 3535.000
379.5440, 3600.000
380.7430, 3572.000
381.9410, 3587.000
383.1400, 3586.000
384.3380, 3566.000
385.5370, 3581.000
386.7350, 3540.917
387.9320, 3469.000
389.1300, 3457.000
390.3280, 3379.000
391.5250, 3308.000
392.7220, 3215.000
393.9190, 3215.000
395.1160, 3127.000
396.3130, 3153.000
397.5100, 3138.000
398.7060, 3158.000
399.9020, 3158.000
401.0980, 3065.000
402.2940, 3031.000
403.4900, 3162.000
404.6860, 3089.000
405.8810, 3182.000
407.0760, 3124.000
408.2710, 3170.000
409.4660, 3260.000
410.6610, 3333.000
411.8550, 3422.000
413.0500, 3476.000
414.2440, 3718.000
415.4380, 3813.000
416.6320, 3947.000
417.8260, 4032.000
419.0190, 4185.000
420.2130, 4351.000
421.4060, 4455.000
422.5990, 4452.000
423.7920, 4256.000
424.9850, 4094.000
426.1770, 3891.000
427.3700, 3758.000
428.5620, 3612.000
429.7540, 3559.000
430.9460, 3554.000
432.1380, 3522.000
433.3290, 3593.000
434.5210, 3644.000
435.7120, 3760.000
436.9030, 3797.000
438.0940, 3962.000
439.2850, 4086.000
440.4750, 4110.000
441.6660, 4215.000
442.8560, 4399.000
444.0460, 4507.000
445.2360, 4780.000
446.4260, 4962.000
447.6160, 5316.000
448.8050, 5672.000
449.9940, 6266.000
451.1830, 6805.000
452.3720, 7514.000
453.5610, 8084.000
454.7500, 8799.000
455.9380, 9295.000
457.1260, 9520.000
458.3150, 9612.000
459.5020, 9708.000
460.6900, 9533.000
461.8780, 9412.000
463.0650, 9235.000
464.2530, 8559.000
465.4400, 8136.000
466.6270, 7676.000
467.8130, 7114.000
469.0000, 6730.000
470.1870, 6274.000
471.3730, 5896.000
472.5590, 5490.000
473.7450, 5286.000
474.9310, 5071.000
476.1160, 4839.000
477.3020, 4677.000
478.4870, 4511.000
479.6720, 4406.000
480.8570, 4198.000
482.0420, 4205.000
483.2270, 4124.000
484.4110, 3995.000
485.5960, 3881.000
486.7800, 3847.000
487.9640, 3755.000
489.1480, 3694.000
490.3310, 3665.000
491.5150, 3625.625
492.6980, 3602.000
493.8810, 3587.000
495.0640, 3621.000
496.2470, 3585.000
497.4300, 3594.000
498.6120, 3560.000
499.7950, 3579.000
500.9770, 3618.000
502.1590, 3562.000
503.3410, 3661.000
504.5220, 3572.000
505.7040, 3546.000
506.8850, 3602.000
508.0660, 3681.000
509.2470, 3582.000
510.4280, 3675.000
511.6090, 3548.000
512.7890, 3608.000
513.9700, 3589.000
515.1500, 3627.000
516.3300, 3719.000
517.5100, 3679.000
518.6900, 3755.000
519.8690, 3874.000
521.0490, 3868.000
522.2280, 3988.000
523.4070, 4167.000
524.5860, 4368.000
525.7640, 4598.211
526.9430, 4870.708
528.1210, 5192.000
529.3000, 5544.000
530.4780, 5987.000
531.6560, 6494.000
532.8330, 7090.000
534.0110, 7683.000
535.1880, 8341.000
536.3650, 8938.000
537.5430, 9098.000
538.7190, 9215.000
539.8960, 8668.000
541.0730, 8187.000
542.2490, 7528.000
543.4250, 6839.000
544.6020, 6308.000
545.7780, 5922.000
546.9530, 5442.000
548.1290, 5190.000
549.3040, 4911.000
550.4800, 4688.000
551.6550, 4519.000
552.8300, 4487.000
554.0040, 4357.000
555.1790, 4334.000
556.3540, 4203.000
557.5280, 4213.000
558.7020, 4302.000
559.8760, 4171.000
561.0500, 4166.000
562.2230, 4119.000
563.3970, 4123.000
564.5700, 4203.000
565.7430, 4055.000
566.9160, 4068.000
568.0890, 4154.000
569.2620, 4173.000
570.4340, 4088.000
571.6070, 4146.000
572.7790, 4094.000
573.9510, 4128.000
575.1230, 4076.000
576.2940, 4145.000
577.4660, 4118.000
578.6370, 4196.000
579.8080, 4179.000
580.9790, 4216.000
582.1500, 4226.387
583.3210, 4208.000
584.4910, 4242.000
585.6620, 4233.000
586.8320, 4264.000
588.0020, 4211.000
589.1720, 4264.000
590.3410, 4276.000
591.5110, 4253.000
592.6800, 4328.000
593.8500, 4208.000
595.0190, 4301.000
596.1880, 4336.000
597.3560, 4300.000
598.5250, 4329.000
599.6930, 4291.000
600.8620, 4295.000
602.0300, 4344.000
603.1970, 4324.000
604.3650, 4372.000
605.5330, 4393.042
606.7000, 4331.000
607.8680, 4436.000
609.0350, 4419.000
610.2020, 4407.000
611.3680, 4483.000
612.5350, 4380.000
613.7010, 4494.000
614.8680, 4454.000
616.0340, 4479.000
617.2000, 4458.000
618.3660, 4434.618
619.5310, 4476.000
620.6970, 4432.000
621.8620, 4448.000
623.0270, 4551.000
624.1920, 4591.000
625.3570, 4573.000
626.5220, 4553.000
627.6860, 4568.000
628.8500, 4632.000
630.0140, 4616.000
631.1780, 4608.000
632.3420, 4568.000
633.5060, 4605.000
634.6700, 4639.000
635.8330, 4649.000
636.9960, 4654.000
638.1590, 4592.000
639.3220, 4607.000
640.4850, 4631.000
641.6470, 4750.000
642.8100, 4727.000
643.9720, 4738.000
645.1340, 4714.000
646.2960, 4762.000
647.4570, 4841.000
648.6190, 4846.000
649.7800, 4843.000
650.9420, 4829.000
652.1030, 4942.000
653.2640, 4885.000
654.4240, 4952.000
655.5850, 4916.000
656.7450, 4879.000
657.9060, 4986.000
659.0660, 5078.000
660.2260, 5008.000
661.3850, 5009.000
662.5450, 5062.000
663.7040, 5085.000
664.8640, 5106.000
666.0230, 5088.000
667.1820, 5099.000
668.3410, 5193.000
669.4990, 5090.000
670.6580, 5149.000
671.8160, 4973.000
672.9740, 5045.000
674.1320, 5112.000
675.2900, 5132.000
676.4480, 5142.000
677.6050, 5205.000
678.7630, 5148.000
679.9200, 5261.000
681.0770, 5290.000
682.2340, 5288.000
683.3900, 5250.000
684.5470, 5195.000
685.7030, 5227.000
686.8590, 5233.747
688.0150, 5303.000
689.1710, 5302.000
690.3270, 5387.000
691.4830, 5395.000
692.6380, 5405.000
693.7930, 5441.000
694.9480, 5473.000
696.1030, 5521.884
697.2580, 5604.000
698.4130, 5596.000
699.5670, 5658.000
700.7210, 5607.000
701.8750, 5605.000
703.0290, 5670.000
704.1830, 5610.000
705.3370, 5744.000
706.4900, 5729.000
707.6430, 5768.479
708.7970, 5850.000
709.9490, 5834.000
711.1020, 5890.000
712.2550, 5906.000
713.4070, 5932.000
714.5600, 5918.000
715.7120, 5943.000
716.8640, 5920.000
718.0160, 5941.042
719.1670, 5905.000
720.3190, 5966.000
721.4700, 5966.000
722.6210, 5963.000
723.7720, 5940.000
724.9230, 5966.000
726.0740, 6051.000
727.2250, 6003.000
728.3750, 5905.000
729.5250, 5894.000
730.6750, 6134.000
731.8250, 6001.000
732.9750, 5978.000
734.1240, 6064.000
735.2740, 5957.000
736.4230, 6143.000
737.5720, 6074.000
738.7210, 6194.000
739.8700, 6035.000
741.0190, 6184.000
742.1670, 6207.000
743.3150, 6174.000
744.4630, 6323.000
745.6110, 6183.000
746.7590, 6391.000
747.9070, 6477.000
749.0540, 6466.000
750.2020, 6493.000
751.3490, 6613.000
752.4960, 6726.000
753.6430, 6813.000
754.7890, 6888.000
755.9360, 7067.000
757.0820, 7108.000
758.2280, 7159.000
759.3740, 7322.000
760.5200, 7617.000
761.6660, 7645.000
762.8120, 7999.000
763.9570, 8231.000
765.1020, 8410.000
766.2470, 8740.000
767.3920, 8882.000
768.5370, 9167.000
769.6810, 9582.000
770.8260, 9714.000
771.9700, 9860.000
773.1140, 10050.00
774.2580, 10054.00
775.4020, 9790.000
776.5460, 9585.000
777.6890, 9248.000
778.8320, 9052.000
779.9750, 8702.000
781.1180, 8559.000
782.2610, 8188.000
783.4040, 7872.000
784.5460, 7714.000
785.6890, 7498.000
786.8310, 7492.000
787.9730, 7230.000
789.1150, 7219.000
790.2560, 7240.000
791.3980, 7094.000
792.5390, 7086.000
793.6810, 7104.000
794.8220, 7179.000
795.9630, 7091.000
797.1030, 7027.000
798.2440, 7085.000
799.3840, 7158.000
800.5240, 7234.000
801.6650, 7117.000
802.8040, 7102.000
803.9440, 7217.000
805.0840, 7139.000
806.2230, 7237.000
807.3630, 7291.000
808.5020, 7270.000
809.6410, 7376.000
810.7790, 7349.000
811.9180, 7355.000
813.0570, 7326.000
814.1950, 7224.000
815.3330, 7226.000
816.4710, 7323.000
817.6090, 7165.000
818.7470, 7294.000
819.8840, 7387.000
821.0220, 7210.000
822.1590, 7363.000
823.2960, 7342.000
824.4330, 7357.000
825.5690, 7452.000
826.7060, 7461.000
827.8420, 7420.000
828.9790, 7494.000
830.1150, 7427.000
831.2510, 7520.000
832.3860, 7601.000
833.5220, 7579.000
834.6570, 7624.000
835.7930, 7638.000
836.9280, 7656.000
838.0630, 7659.000
839.1980, 7664.000
840.3320, 7613.000
841.4670, 7618.000
842.6010, 7776.000
843.7350, 7742.000
844.8690, 7860.000
846.0030, 7839.000
847.1370, 7900.000
848.2700, 7760.000
849.4040, 7950.000
850.5370, 7863.000
851.6700, 8011.000
852.8030, 7879.000
853.9360, 7978.000
855.0680, 8023.000
856.2000, 8001.000
857.3330, 8047.000
858.4650, 8121.000
859.5970, 8064.000
860.7290, 8170.000
861.8600, 8203.000
862.9920, 8158.000
864.1230, 8201.000
865.2540, 8174.000
866.3850, 8199.000
867.5160, 8250.000
868.6460, 8294.000
869.7770, 8305.000
870.9070, 8242.000
872.0370, 8309.000
873.1670, 8399.000
874.2970, 8323.000
875.4270, 8410.000
876.5570, 8445.000
877.6860, 8495.000
878.8150, 8471.000
879.9440, 8468.000
881.0730, 8534.000
882.2020, 8619.000
883.3300, 8577.000
884.4590, 8670.000
885.5870, 8749.000
886.7150, 8633.000
887.8430, 8745.000
888.9710, 8608.000
890.0990, 8718.000
891.2260, 8835.000
892.3530, 8769.000
893.4810, 8795.000
894.6080, 8855.000
895.7340, 8862.000
896.8610, 8928.000
897.9880, 8894.000
899.1140, 8965.000
900.2400, 8959.000
901.3660, 8992.233
902.4920, 9033.000
903.6180, 9071.000
904.7430, 9043.000
905.8690, 9096.000
906.9940, 9059.000
908.1190, 9284.000
909.2440, 9149.000
910.3690, 9253.000
911.4930, 9162.000
912.6180, 9261.000
913.7420, 9236.000
914.8660, 9193.000
915.9900, 9427.000
917.1140, 9359.000
918.2380, 9537.000
919.3610, 9471.000
920.4850, 9449.000
921.6080, 9314.000
922.7310, 9622.000
923.8540, 9544.000
924.9760, 9624.000
926.0990, 9549.000
927.2210, 9506.000
928.3440, 9714.000
929.4660, 9784.000
930.5880, 9762.000
931.7090, 9831.000
932.8310, 9832.000
933.9520, 9869.000
935.0740, 9885.000
936.1950, 9945.000
937.3160, 9962.633
938.4360, 10040.00
939.5570, 10041.00
940.6780, 10011.00
941.7980, 10097.00
942.9180, 10039.00
944.0380, 10191.00
945.1580, 10177.00
946.2780, 10177.00
947.3970, 10342.00
948.5170, 10300.00
949.6360, 10291.00
950.7550, 10381.00
951.8740, 10376.00
952.9930, 10459.00
954.1110, 10488.00
955.2300, 10448.00
956.3480, 10554.00
957.4660, 10551.00
958.5840, 10774.00
959.7020, 10670.00
960.8190, 10709.00
961.9370, 10635.00
963.0540, 10727.00
964.1710, 10876.00
965.2880, 10849.00
966.4050, 10791.00
967.5220, 10955.00
968.6380, 10940.00
969.7550, 10896.00
970.8710, 11088.00
971.9870, 10851.00
973.1030, 10841.00
974.2190, 10933.00
975.3340, 10959.00
976.4500, 11073.00
977.5650, 11144.00
978.6800, 11141.00
979.7950, 11241.70
980.9100, 11395.00
982.0250, 11352.00
983.1390, 11526.00
984.2530, 11558.00
985.3680, 11422.00
986.4820, 11577.00
987.5950, 11671.00
988.7090, 11685.00
989.8230, 11819.35
990.9360, 11768.00
992.0490, 11934.00
993.1620, 11995.00
994.2750, 11912.00
995.3880, 12103.00
996.5010, 11956.00
997.6130, 12129.00
998.7250, 12329.00
999.8370, 12009.00
1000.949, 12112.00
1002.061, 12243.00
1003.173, 12328.00
1004.284, 12355.00
1005.396, 12294.00
1006.507, 12274.00
1007.618, 12312.00
1008.729, 12369.00
1009.839, 12466.00
1010.950, 12519.00
1012.060, 12347.23
1013.171, 12526.07
1014.281, 12645.86
1015.391, 12709.82
1016.500, 12550.67
1017.610, 12679.61
1018.719, 12693.07
1019.829, 12701.83
1020.938, 12871.27
1022.047, 12744.56
1023.156, 12911.45
1024.264, 12961.10
1025.373, 13064.43
1026.481, 13051.57
1027.589, 13074.59
1028.697, 13213.79
1029.805, 13288.66
1030.913, 13262.43
1032.020, 13369.09
1033.128, 13307.00
1034.235, 13367.00
1035.342, 13274.00
1036.449, 13445.00
1037.556, 13532.00
1038.663, 13531.00
1039.769, 13719.00
1040.875, 13786.00
1041.981, 13744.00
1043.087, 13816.00
1044.193, 13882.79
1045.299, 13891.00
1046.404, 13994.00
1047.510, 13942.00
1048.615, 13854.00
1049.720, 14012.00
1050.825, 14086.00
1051.930, 14002.00
1053.034, 14037.00
1054.139, 14173.00
1055.243, 14259.00
1056.347, 14310.00
1057.451, 14333.00
1058.555, 14457.00
1059.658, 14441.00
1060.762, 14591.00
1061.865, 14673.00
1062.968, 14801.00
1064.071, 14893.00
1065.174, 15066.00
1066.277, 14984.00
1067.380, 15036.00
1068.482, 15182.00
1069.584, 15379.00
1070.686, 15412.00
1071.788, 15610.00
1072.890, 15627.00
1073.992, 15712.00
1075.093, 15939.00
1076.194, 15988.00
1077.295, 16064.00
1078.396, 16199.00
1079.497, 16193.00
1080.598, 16343.00
1081.698, 16317.00
1082.799, 16512.00
1083.899, 16598.00
1084.999, 16673.00
1086.099, 16765.00
1087.199, 16757.00
1088.298, 16858.00
1089.398, 16809.00
1090.497, 17070.00
1091.596, 17217.00
1092.695, 17213.00
1093.794, 17249.00
1094.892, 17260.00
1095.991, 17361.76
1097.089, 17453.00
1098.187, 17531.00
1099.285, 17502.00
1100.383, 17448.00
1101.481, 17569.00
1102.579, 17298.00
1103.676, 17513.00
1104.773, 17336.00
1105.870, 17137.00
1106.967, 17095.00
1108.064, 17143.00
1109.161, 17098.00
1110.257, 17239.00
1111.353, 17554.00
1112.449, 17677.00
1113.545, 17734.00
1114.641, 17866.00
1115.737, 17710.00
1116.832, 17510.00
1117.928, 16943.00
1119.023, 16855.00
1120.118, 16776.00
1121.213, 16577.00
1122.308, 16803.00
1123.402, 16652.00
1124.497, 16675.00
1125.591, 16886.00
1126.685, 16697.00
1127.779, 16856.00
1128.873, 16798.00
1129.967, 16694.00
1131.060, 16981.00
1132.153, 16957.00
1133.247, 16865.00
1134.340, 16776.00
1135.433, 16858.00
1136.525, 16991.00
1137.618, 17040.00
1138.710, 17115.00
1139.802, 17082.00
1140.895, 17102.00
1141.987, 17104.00
1143.078, 17076.00
1144.170, 17169.00
1145.261, 17041.00
1146.353, 17149.00
1147.444, 17133.00
1148.535, 17323.00
1149.626, 17338.00
1150.716, 17319.00
1151.807, 17380.00
1152.897, 17456.00
1153.988, 17548.00
1155.078, 17605.96
1156.168, 17763.00
1157.257, 17693.00
1158.347, 17787.00
1159.436, 17734.00
1160.526, 17768.00
1161.615, 17851.00
1162.704, 17712.00
1163.793, 17945.00
1164.881, 17841.00
1165.970, 18093.00
1167.058, 18172.00
1168.147, 18157.00
1169.235, 18048.00
1170.323, 18351.00
1171.410, 18274.00
1172.498, 18305.00
1173.585, 18279.00
1174.673, 18464.00
1175.760, 18326.00
1176.847, 18543.00
1177.934, 18478.00
1179.020, 18464.00
1180.107, 18507.00
1181.193, 18564.35
1182.279, 18626.15
1183.365, 18688.12
1184.451, 18763.03
1185.537, 18828.00
1186.623, 18921.00
1187.708, 18997.00
1188.793, 19079.51
1189.878, 19234.00
1190.963, 19272.00
1192.048, 19301.00
1193.133, 19380.00
1194.217, 19315.00
1195.302, 19365.00
1196.386, 19452.93
1197.470, 19548.00
1198.554, 19602.00
1199.638, 19638.00
1200.721, 19590.00
1201.805, 19780.00
1202.888, 19851.00
1203.971, 19852.00
1205.054, 19780.00
1206.137, 19851.79
1207.219, 19858.33
1208.302, 19929.00
1209.384, 19999.00
1210.466, 20076.00
1211.548, 20256.00
1212.630, 20174.00
1213.712, 20307.00
1214.794, 20253.00
1215.875, 20311.00
1216.956, 20481.00
1218.037, 20530.00
1219.118, 20573.00
1220.199, 20584.00
1221.280, 20714.00
1222.360, 20769.00
1223.441, 20719.00
1224.521, 20812.00
1225.601, 20785.00
1226.681, 20850.00
1227.760, 20830.00
1228.840, 20924.00
1229.919, 21074.00
1230.999, 20979.00
1232.078, 21087.00
1233.157, 21311.00
1234.236, 21341.00
1235.314, 21288.00
1236.393, 21322.00
1237.471, 21436.00
1238.549, 21542.00
1239.627, 21576.00
1240.705, 21716.00
1241.783, 21634.00
1242.860, 21818.00
1243.938, 21857.00
1245.015, 21827.00
1246.092, 22000.00
1247.169, 21947.00
1248.246, 22245.00
1249.323, 22251.00
1250.399, 22252.00
1251.475, 22039.00
1252.552, 22315.00
1253.628, 22414.00
1254.703, 22313.00
1255.779, 22561.00
1256.855, 22542.00
1257.930, 22774.00
1259.005, 22718.00
1260.080, 22704.00
1261.155, 22970.00
1262.230, 22949.00
1263.305, 22907.00
1264.379, 23191.00
1265.454, 22987.00
1266.528, 23219.00
1267.602, 23184.00
1268.676, 23081.00
1269.750, 23427.00
1270.823, 23331.00
1271.897, 23539.00
1272.970, 23477.00
1274.043, 23858.00
1275.116, 23791.00
1276.189, 23852.00
1277.261, 23964.00
1278.334, 23779.00
1279.406, 23985.00
1280.478, 23980.00
1281.550, 23880.00
1282.622, 24063.00
1283.694, 24065.00
1284.766, 24052.00
1285.837, 24286.00
1286.908, 24239.00
1287.979, 24551.00
1289.050, 24294.00
1290.121, 24516.00
1291.192, 24715.00
1292.262, 24509.00
1293.333, 24863.00
1294.403, 24623.00
1295.473, 24781.00
1296.543, 24897.00
1297.613, 24826.00
1298.682, 25105.00
1299.752, 25099.00
1300.821, 25266.00
1301.890, 25305.00
1302.959, 25424.00
1304.028, 25475.13
1305.096, 25357.00
1306.165, 25565.00
1307.233, 25537.00
1308.301, 25599.00
1309.370, 25772.00
1310.437, 25717.00
1311.505, 25878.00
1312.573, 25881.00
1313.640, 25858.00
1314.708, 25872.00
1315.775, 26056.00
1316.842, 26136.00
1317.908, 26200.00
1318.975, 26269.00
1320.042, 26386.00
1321.108, 26498.00
1322.174, 26475.00
1323.240, 26383.00
1324.306, 26642.00
1325.372, 26600.00
1326.438, 26835.00
1327.503, 26942.00
1328.568, 26851.00
1329.634, 26994.00
1330.699, 26910.00
1331.763, 27182.00
1332.828, 27144.00
1333.893, 27351.00
1334.957, 27357.00
1336.021, 27141.00
1337.085, 27288.00
1338.149, 27341.00
1339.213, 27569.00
1340.277, 27732.00
1341.340, 27740.00
1342.404, 27807.00
1343.467, 27905.00
1344.530, 27984.00
1345.593, 28151.00
1346.655, 28188.46
1347.718, 28088.00
1348.780, 28229.00
1349.843, 28397.00
1350.905, 28263.00
1351.967, 28403.00
1353.028, 28673.00
1354.090, 28628.00
1355.152, 28689.00
1356.213, 28826.00
1357.274, 28953.00
1358.335, 29061.00
1359.396, 29098.00
1360.457, 29019.00
1361.517, 29010.00
1362.578, 29027.00
1363.638, 29423.00
1364.698, 29362.00
1365.758, 29295.00
1366.818, 29702.00
1367.878, 29485.00
1368.937, 29614.00
1369.997, 29757.00
1371.056, 29802.00
1372.115, 29919.00
1373.174, 29857.00
1374.232, 30122.00
1375.291, 30026.00
1376.350, 30055.00
1377.408, 30261.00
1378.466, 30344.00
1379.524, 30301.00
1380.582, 30295.00
1381.640, 30600.00
1382.697, 30430.00
1383.754, 30721.00
1384.812, 30614.00
1385.869, 30783.00
1386.926, 30826.00
1387.983, 31006.00
1389.039, 31007.00
1390.096, 31029.00
1391.152, 31108.00
1392.208, 31001.00
1393.264, 31363.00
1394.320, 31273.00
1395.376, 31599.00
1396.431, 31490.00
1397.487, 31537.00
1398.542, 31602.00
1399.597, 31739.00
1400.652, 31830.00
1401.707, 31768.00
1402.762, 31803.00
1403.816, 31946.00
1404.871, 32038.00
1405.925, 32256.00
1406.979, 32299.00
1408.033, 32386.20
1409.086, 32474.00
1410.140, 32485.00
1411.194, 32594.00
1412.247, 32655.00
1413.300, 32811.00
1414.353, 32872.00
1415.406, 32896.00
1416.458, 33009.00
1417.511, 33018.00
1418.563, 33289.00
1419.616, 33183.00
1420.668, 33394.00
1421.720, 33498.00
1422.772, 33416.00
1423.823, 33725.00
1424.875, 33710.00
1425.926, 33852.00
1426.977, 33789.00
1428.028, 33697.00
1429.079, 34199.00
1430.130, 33950.00
1431.180, 34547.00
1432.231, 34413.00
1433.281, 34438.00
1434.331, 34432.00
1435.381, 34512.23
1436.431, 34617.00
1437.481, 34746.00
1438.530, 34815.00
1439.580, 34876.00
1440.629, 34803.00
1441.678, 35003.15
1442.727, 35063.00
1443.776, 35328.00
1444.824, 35622.00
1445.873, 35782.00
1446.921, 35960.00
1447.969, 35727.00
1449.017, 35734.00
1450.065, 35776.00
1451.113, 36019.00
1452.160, 35936.00
1453.208, 36077.00
1454.255, 36354.00
1455.302, 36406.00
1456.349, 36393.00
1457.396, 36448.00
1458.443, 36745.00
1459.489, 36883.00
1460.535, 36897.00
1461.582, 37027.04
1462.628, 37064.15
1463.674, 37085.00
1464.719, 37116.00
1465.765, 37140.00
1466.810, 37097.00
1467.856, 37493.00
1468.901, 37367.00
1469.946, 37745.00
1470.991, 37601.00
1472.035, 37857.00
1473.080, 37929.00
1474.124, 37847.00
1475.169, 38041.00
1476.213, 38034.00
1477.257, 38180.00
1478.300, 38424.00
1479.344, 38408.00
1480.388, 38541.00
1481.431, 38512.00
1482.474, 38433.00
1483.517, 38353.00
1484.560, 38895.00
1485.603, 38762.00
1486.645, 39199.00
1487.688, 39090.00
1488.730, 39220.00
1489.772, 39029.00
1490.814, 39153.00
1491.856, 39812.00
1492.898, 39684.00
1493.939, 39900.00
1494.981, 39741.00
1496.022, 40163.00
1497.063, 40251.00
1498.104, 40148.00
1499.145, 40159.00
1500.186, 40438.00
1501.226, 40408.00
1502.266, 40539.00
1503.307, 40527.00
1504.347, 40691.00
1505.387, 40680.00
1506.426, 41085.00
1507.466, 41164.00
1508.505, 41166.00
1509.545, 41406.00
1510.584, 41482.00
1511.623, 41538.00
1512.662, 41715.16
1513.700, 41763.00
1514.739, 41923.00
1515.777, 42025.00
1516.815, 42024.00
1517.854, 42180.00
1518.892, 42271.00
1519.929, 42091.00
1520.967, 42333.00
1522.004, 42233.00
1523.042, 42705.00
1524.079, 42448.00
1525.116, 42795.00
1526.153, 43050.00
1527.190, 43158.00
1528.226, 43217.00
1529.263, 43278.00
1530.299, 43293.00
1531.335, 43287.00
1532.371, 43546.00
1533.407, 43657.00
1534.443, 43643.00
1535.478, 43904.00
1536.514, 44164.00
1537.549, 44159.00
1538.584, 44024.00
1539.619, 44004.00
1540.654, 44194.00
1541.689, 44521.00
1542.723, 44684.00
1543.757, 44714.00
1544.792, 44602.00
1545.826, 44813.00
1546.860, 44755.00
1547.893, 45046.00
1548.927, 45137.00
1549.960, 45137.00
1550.994, 45113.00
1552.027, 45212.00
1553.060, 44935.00
1554.093, 45121.00
1555.126, 45254.00
1556.158, 45421.00
1557.191, 45768.00
1558.223, 45760.00
1559.255, 45913.00
1560.287, 45989.00
1561.319, 45988.00
1562.350, 46238.00
1563.382, 46229.36
1564.413, 46381.00
1565.444, 46294.00
1566.476, 46530.00
1567.506, 46469.00
1568.537, 46547.00
1569.568, 46428.00
1570.598, 46912.00
1571.629, 46832.00
1572.659, 46901.00
1573.689, 47221.00
1574.719, 47265.00
1575.749, 47335.00
1576.778, 47408.00
1577.808, 47608.00
1578.837, 47577.00
##END=



