##NAMES=Marialite
##RRUFFID=R060526
##IDEAL CHEMISTRY=Na_4_Al_3_Si_9_O_24_Cl
##LOCALITY=Minas Gerais, Brazil
##OWNER=RRUFF
##SOURCE=Michael Scott
##DESCRIPTION=Heavily striated pale yellow elongated prism
##STATUS=The identification of this mineral has been confirmed by X-ray diffraction and chemical analysis
##URL=rruff.info/R060526
##MEASURED CHEMISTRY=(Na_0.62_Ca_0.33_K_0.05_)_4_(Si_0.66_Al_0.34_)_12_O_24_(Cl_0.77_(CO_3_)_0.23_)
##PIN_ID=L01495
##ORIENTATION=Laser parallel to c* (0 0 1). Fiducial mark perpendicular to laser is parallel to a [1 0 0]
60.89500, 1272.000
62.13700, 1322.000
63.38000, 1320.000
64.62300, 1331.000
65.86500, 1347.000
67.10700, 1338.000
68.34900, 1378.000
69.59100, 1375.000
70.83300, 1421.000
72.07400, 1426.000
73.31600, 1445.000
74.55700, 1450.000
75.79800, 1449.000
77.03900, 1485.000
78.27900, 1499.000
79.52000, 1550.000
80.76000, 1567.000
82.00000, 1610.000
83.24000, 1600.000
84.48000, 1646.000
85.72000, 1691.000
86.95900, 1672.000
88.19900, 1740.000
89.43800, 1729.000
90.67700, 1800.000
91.91600, 1842.000
93.15400, 1909.000
94.39300, 1929.000
95.63100, 1960.000
96.86900, 2065.000
98.10700, 2062.000
99.34500, 2125.000
100.5820, 2132.000
101.8200, 2241.000
103.0570, 2270.000
104.2940, 2348.000
105.5310, 2316.000
106.7680, 2473.000
108.0040, 2529.000
109.2410, 2566.000
110.4770, 2674.000
111.7130, 2732.000
112.9490, 2660.000
114.1850, 2647.000
115.4200, 2518.000
116.6560, 2474.000
117.8910, 2380.000
119.1260, 2453.000
120.3610, 2477.000
121.5960, 2500.000
122.8300, 2525.988
124.0640, 2515.000
125.2990, 2553.000
126.5330, 2604.000
127.7670, 2638.000
129.0000, 2625.000
130.2340, 2641.000
131.4670, 2595.000
132.7000, 2590.000
133.9330, 2486.000
135.1660, 2447.000
136.3990, 2384.000
137.6310, 2341.000
138.8640, 2341.000
140.0960, 2254.000
141.3280, 2260.000
142.5600, 2386.000
143.7910, 2300.000
145.0230, 2348.000
146.2540, 2446.000
147.4850, 2453.000
148.7160, 2536.000
149.9470, 2582.000
151.1780, 2703.000
152.4080, 2823.000
153.6380, 2981.000
154.8690, 3134.000
156.0980, 3248.000
157.3280, 3362.000
158.5580, 3664.000
159.7870, 3745.000
161.0170, 3908.000
162.2460, 4041.000
163.4750, 3985.000
164.7030, 4119.000
165.9320, 4034.000
167.1600, 3976.000
168.3890, 3791.000
169.6170, 3622.000
170.8450, 3452.000
172.0730, 3215.000
173.3000, 3063.000
174.5280, 2900.000
175.7550, 2757.000
176.9820, 2659.000
178.2090, 2529.000
179.4350, 2493.000
180.6620, 2398.000
181.8880, 2397.000
183.1150, 2382.438
184.3410, 2451.000
185.5670, 2439.000
186.7920, 2433.000
188.0180, 2535.000
189.2430, 2526.000
190.4690, 2546.000
191.6940, 2567.000
192.9180, 2559.000
194.1430, 2589.000
195.3680, 2602.000
196.5920, 2577.000
197.8160, 2501.000
199.0400, 2524.000
200.2640, 2430.000
201.4880, 2363.000
202.7110, 2393.000
203.9350, 2362.000
205.1580, 2341.000
206.3810, 2304.000
207.6040, 2268.000
208.8270, 2192.000
210.0490, 2232.000
211.2710, 2178.000
212.4940, 2148.000
213.7160, 2253.000
214.9370, 2210.000
216.1590, 2188.000
217.3810, 2140.000
218.6020, 2175.000
219.8230, 2224.000
221.0440, 2246.000
222.2650, 2192.000
223.4860, 2224.000
224.7060, 2209.000
225.9260, 2260.000
227.1470, 2167.000
228.3670, 2155.000
229.5860, 2098.000
230.8060, 2028.000
232.0260, 2004.000
233.2450, 1935.000
234.4640, 1882.000
235.6830, 1850.611
236.9020, 1845.000
238.1200, 1783.000
239.3390, 1767.000
240.5570, 1743.000
241.7750, 1697.000
242.9930, 1721.000
244.2110, 1754.000
245.4290, 1701.000
246.6460, 1694.000
247.8630, 1701.000
249.0810, 1787.000
250.2980, 1774.000
251.5140, 1804.000
252.7310, 1803.000
253.9470, 1921.000
255.1640, 1910.000
256.3800, 1984.000
257.5960, 2148.000
258.8120, 2299.000
260.0270, 2344.000
261.2430, 2459.000
262.4580, 2541.000
263.6730, 2609.000
264.8880, 2603.320
266.1030, 2615.000
267.3170, 2493.000
268.5320, 2380.000
269.7460, 2223.000
270.9600, 2133.000
272.1740, 1981.000
273.3880, 1937.000
274.6010, 1858.000
275.8150, 1784.000
277.0280, 1711.000
278.2410, 1690.000
279.4540, 1772.000
280.6670, 1699.000
281.8790, 1750.000
283.0920, 1783.000
284.3040, 1783.000
285.5160, 1805.000
286.7280, 1924.000
287.9400, 1952.000
289.1510, 2061.000
290.3630, 2054.000
291.5740, 2005.000
292.7850, 2039.000
293.9960, 1955.000
295.2070, 1917.000
296.4170, 1945.000
297.6280, 1925.000
298.8380, 1922.000
300.0480, 1877.737
301.2580, 1839.000
302.4680, 1759.000
303.6770, 1694.000
304.8870, 1624.000
306.0960, 1568.000
307.3050, 1553.000
308.5140, 1497.000
309.7230, 1539.000
310.9310, 1449.000
312.1400, 1436.000
313.3480, 1461.000
314.5560, 1510.000
315.7640, 1469.000
316.9720, 1477.000
318.1790, 1500.000
319.3870, 1497.000
320.5940, 1535.000
321.8010, 1540.000
323.0080, 1550.000
324.2150, 1565.000
325.4210, 1646.000
326.6280, 1653.000
327.8340, 1671.000
329.0400, 1710.000
330.2460, 1712.000
331.4510, 1765.000
332.6570, 1799.000
333.8620, 1900.000
335.0680, 1901.000
336.2730, 1952.000
337.4780, 1914.000
338.6820, 1959.000
339.8870, 1834.000
341.0910, 1784.000
342.2950, 1766.000
343.5000, 1691.000
344.7030, 1685.000
345.9070, 1675.000
347.1110, 1650.000
348.3140, 1661.000
349.5170, 1696.000
350.7200, 1699.000
351.9230, 1642.000
353.1260, 1725.000
354.3290, 1714.000
355.5310, 1790.000
356.7330, 1857.000
357.9350, 1882.000
359.1370, 1983.000
360.3390, 2018.000
361.5400, 2080.000
362.7420, 2053.000
363.9430, 2044.000
365.1440, 1958.000
366.3450, 1920.000
367.5460, 1785.000
368.7460, 1791.000
369.9470, 1711.000
371.1470, 1681.000
372.3470, 1686.000
373.5470, 1676.000
374.7460, 1709.000
375.9460, 1727.000
377.1450, 1728.664
378.3450, 1790.000
379.5440, 1752.000
380.7430, 1748.000
381.9410, 1781.000
383.1400, 1756.000
384.3380, 1733.000
385.5370, 1737.000
386.7350, 1721.026
387.9320, 1730.000
389.1300, 1715.000
390.3280, 1722.000
391.5250, 1726.000
392.7220, 1690.000
393.9190, 1663.000
395.1160, 1685.000
396.3130, 1659.470
397.5100, 1650.000
398.7060, 1632.000
399.9020, 1634.000
401.0980, 1580.000
402.2940, 1634.000
403.4900, 1634.000
404.6860, 1627.000
405.8810, 1695.000
407.0760, 1627.000
408.2710, 1711.000
409.4660, 1758.000
410.6610, 1734.000
411.8550, 1731.000
413.0500, 1742.000
414.2440, 1772.000
415.4380, 1751.000
416.6320, 1829.000
417.8260, 1897.000
419.0190, 1883.000
420.2130, 2011.000
421.4060, 1971.000
422.5990, 2002.000
423.7920, 1978.000
424.9850, 1957.000
426.1770, 1930.000
427.3700, 1912.000
428.5620, 1939.000
429.7540, 1922.000
430.9460, 1973.000
432.1380, 1913.000
433.3290, 1987.000
434.5210, 2024.000
435.7120, 2079.000
436.9030, 2130.000
438.0940, 2219.000
439.2850, 2319.000
440.4750, 2370.000
441.6660, 2369.000
442.8560, 2534.000
444.0460, 2609.000
445.2360, 2838.000
446.4260, 2943.000
447.6160, 3232.000
448.8050, 3544.000
449.9940, 3963.000
451.1830, 4362.000
452.3720, 5029.000
453.5610, 5539.000
454.7500, 6170.000
455.9380, 6451.000
457.1260, 6743.000
458.3150, 6893.000
459.5020, 6960.000
460.6900, 6886.000
461.8780, 6680.000
463.0650, 6478.000
464.2530, 6173.000
465.4400, 5668.000
466.6270, 5275.000
467.8130, 4878.000
469.0000, 4381.000
470.1870, 3986.000
471.3730, 3685.000
472.5590, 3367.000
473.7450, 3134.000
474.9310, 2995.000
476.1160, 2747.000
477.3020, 2621.000
478.4870, 2544.000
479.6720, 2431.000
480.8570, 2358.000
482.0420, 2286.303
483.2270, 2207.000
484.4110, 2174.000
485.5960, 2110.000
486.7800, 2086.000
487.9640, 2079.000
489.1480, 2058.000
490.3310, 2002.000
491.5150, 2033.000
492.6980, 2008.000
493.8810, 2020.000
495.0640, 2037.000
496.2470, 1942.000
497.4300, 1956.000
498.6120, 1978.000
499.7950, 1961.000
500.9770, 1967.316
502.1590, 1940.000
503.3410, 1958.000
504.5220, 1936.000
505.7040, 1942.000
506.8850, 1976.000
508.0660, 1980.000
509.2470, 1932.000
510.4280, 1973.000
511.6090, 1978.000
512.7890, 1951.000
513.9700, 2012.000
515.1500, 1996.000
516.3300, 2037.000
517.5100, 2045.000
518.6900, 2044.000
519.8690, 2072.000
521.0490, 2112.000
522.2280, 2105.000
523.4070, 2142.000
524.5860, 2260.000
525.7640, 2260.000
526.9430, 2388.000
528.1210, 2453.000
529.3000, 2550.000
530.4780, 2708.000
531.6560, 2968.000
532.8330, 3208.000
534.0110, 3439.000
535.1880, 3712.000
536.3650, 4007.000
537.5430, 4068.000
538.7190, 4082.000
539.8960, 4054.000
541.0730, 3761.000
542.2490, 3504.000
543.4250, 3244.000
544.6020, 3041.000
545.7780, 2820.000
546.9530, 2708.000
548.1290, 2584.000
549.3040, 2480.000
550.4800, 2453.000
551.6550, 2415.000
552.8300, 2333.000
554.0040, 2327.000
555.1790, 2231.000
556.3540, 2304.000
557.5280, 2239.000
558.7020, 2238.000
559.8760, 2258.000
561.0500, 2245.000
562.2230, 2223.504
563.3970, 2221.000
564.5700, 2170.000
565.7430, 2179.000
566.9160, 2178.000
568.0890, 2146.000
569.2620, 2219.000
570.4340, 2163.000
571.6070, 2206.000
572.7790, 2177.000
573.9510, 2231.000
575.1230, 2187.000
576.2940, 2188.000
577.4660, 2190.000
578.6370, 2200.000
579.8080, 2209.000
580.9790, 2262.000
582.1500, 2252.000
583.3210, 2251.000
584.4910, 2257.000
585.6620, 2244.000
586.8320, 2239.000
588.0020, 2233.000
589.1720, 2272.000
590.3410, 2243.000
591.5110, 2299.000
592.6800, 2238.000
593.8500, 2250.000
595.0190, 2310.000
596.1880, 2338.000
597.3560, 2291.000
598.5250, 2347.000
599.6930, 2310.000
600.8620, 2308.000
602.0300, 2336.000
603.1970, 2329.000
604.3650, 2348.000
605.5330, 2329.000
606.7000, 2329.000
607.8680, 2390.000
609.0350, 2451.000
610.2020, 2466.000
611.3680, 2448.000
612.5350, 2443.000
613.7010, 2470.000
614.8680, 2464.000
616.0340, 2474.000
617.2000, 2441.000
618.3660, 2424.000
619.5310, 2426.000
620.6970, 2447.000
621.8620, 2375.000
623.0270, 2409.000
624.1920, 2415.000
625.3570, 2390.000
626.5220, 2424.000
627.6860, 2446.000
628.8500, 2403.000
630.0140, 2433.000
631.1780, 2388.000
632.3420, 2438.000
633.5060, 2460.000
634.6700, 2483.000
635.8330, 2484.000
636.9960, 2502.000
638.1590, 2475.000
639.3220, 2448.000
640.4850, 2495.000
641.6470, 2491.000
642.8100, 2510.000
643.9720, 2525.059
645.1340, 2547.000
646.2960, 2539.000
647.4570, 2532.000
648.6190, 2529.000
649.7800, 2596.000
650.9420, 2591.000
652.1030, 2589.000
653.2640, 2574.000
654.4240, 2593.000
655.5850, 2608.000
656.7450, 2589.000
657.9060, 2595.000
659.0660, 2608.000
660.2260, 2668.000
661.3850, 2716.000
662.5450, 2680.000
663.7040, 2705.000
664.8640, 2714.000
666.0230, 2723.000
667.1820, 2732.000
668.3410, 2709.000
669.4990, 2719.762
670.6580, 2694.000
671.8160, 2724.000
672.9740, 2713.000
674.1320, 2727.000
675.2900, 2717.029
676.4480, 2767.000
677.6050, 2709.000
678.7630, 2744.000
679.9200, 2788.000
681.0770, 2829.000
682.2340, 2802.000
683.3900, 2773.000
684.5470, 2769.000
685.7030, 2812.000
686.8590, 2825.000
688.0150, 2796.000
689.1710, 2809.000
690.3270, 2747.000
691.4830, 2763.962
692.6380, 2821.000
693.7930, 2784.000
694.9480, 2811.000
696.1030, 2850.000
697.2580, 2842.000
698.4130, 2809.000
699.5670, 2890.000
700.7210, 2907.000
701.8750, 2940.000
703.0290, 2872.000
704.1830, 2972.000
705.3370, 2877.000
706.4900, 2901.000
707.6430, 2939.000
708.7970, 2987.000
709.9490, 3027.000
711.1020, 2998.000
712.2550, 2979.000
713.4070, 3008.000
714.5600, 3015.000
715.7120, 3002.000
716.8640, 2992.000
718.0160, 3037.000
719.1670, 2990.000
720.3190, 3020.000
721.4700, 3040.000
722.6210, 3042.000
723.7720, 3061.652
724.9230, 3018.000
726.0740, 3073.000
727.2250, 3085.000
728.3750, 3074.000
729.5250, 3114.000
730.6750, 3110.548
731.8250, 3119.192
732.9750, 3117.000
734.1240, 3117.000
735.2740, 3096.000
736.4230, 3064.000
737.5720, 3072.745
738.7210, 3061.000
739.8700, 3073.000
741.0190, 3104.000
742.1670, 3101.000
743.3150, 3133.000
744.4630, 3135.000
745.6110, 3214.000
746.7590, 3160.000
747.9070, 3242.000
749.0540, 3224.000
750.2020, 3327.000
751.3490, 3316.000
752.4960, 3311.000
753.6430, 3347.000
754.7890, 3372.000
755.9360, 3388.818
757.0820, 3407.000
758.2280, 3436.000
759.3740, 3485.000
760.5200, 3509.000
761.6660, 3542.000
762.8120, 3608.000
763.9570, 3687.000
765.1020, 3762.000
766.2470, 3836.000
767.3920, 3899.315
768.5370, 3888.000
769.6810, 4006.000
770.8260, 4075.000
771.9700, 4100.000
773.1140, 4070.000
774.2580, 4290.000
775.4020, 4148.000
776.5460, 4207.000
777.6890, 4089.000
778.8320, 4119.000
779.9750, 3985.000
781.1180, 3857.000
782.2610, 3799.000
783.4040, 3682.000
784.5460, 3616.000
785.6890, 3614.000
786.8310, 3671.000
787.9730, 3572.000
789.1150, 3552.000
790.2560, 3576.000
791.3980, 3537.000
792.5390, 3607.000
793.6810, 3604.000
794.8220, 3503.000
795.9630, 3585.000
797.1030, 3541.000
798.2440, 3604.000
799.3840, 3584.000
800.5240, 3634.000
801.6650, 3660.000
802.8040, 3660.000
803.9440, 3705.000
805.0840, 3717.000
806.2230, 3708.000
807.3630, 3791.000
808.5020, 3766.000
809.6410, 3741.000
810.7790, 3845.000
811.9180, 3811.000
813.0570, 3795.000
814.1950, 3745.000
815.3330, 3758.000
816.4710, 3738.759
817.6090, 3744.000
818.7470, 3746.000
819.8840, 3748.000
821.0220, 3782.000
822.1590, 3714.000
823.2960, 3748.000
824.4330, 3689.000
825.5690, 3747.000
826.7060, 3830.000
827.8420, 3782.000
828.9790, 3788.000
830.1150, 3740.000
831.2510, 3718.000
832.3860, 3802.000
833.5220, 3827.000
834.6570, 3856.000
835.7930, 3812.000
836.9280, 3889.000
838.0630, 3828.000
839.1980, 3877.000
840.3320, 3860.000
841.4670, 3941.000
842.6010, 3908.000
843.7350, 3992.000
844.8690, 3925.000
846.0030, 3946.000
847.1370, 3966.000
848.2700, 3987.000
849.4040, 4028.000
850.5370, 3939.000
851.6700, 4024.000
852.8030, 4006.000
853.9360, 4026.000
855.0680, 4117.000
856.2000, 4010.000
857.3330, 4024.000
858.4650, 4057.000
859.5970, 4054.000
860.7290, 4091.000
861.8600, 4076.000
862.9920, 4088.000
864.1230, 4084.000
865.2540, 4184.000
866.3850, 4097.000
867.5160, 4146.000
868.6460, 4204.000
869.7770, 4186.000
870.9070, 4181.000
872.0370, 4149.000
873.1670, 4204.000
874.2970, 4250.000
875.4270, 4248.000
876.5570, 4269.000
877.6860, 4258.000
878.8150, 4230.000
879.9440, 4191.000
881.0730, 4320.000
882.2020, 4236.000
883.3300, 4296.000
884.4590, 4391.000
885.5870, 4380.000
886.7150, 4341.000
887.8430, 4311.000
888.9710, 4301.000
890.0990, 4375.000
891.2260, 4450.000
892.3530, 4376.000
893.4810, 4431.000
894.6080, 4413.000
895.7340, 4360.000
896.8610, 4370.000
897.9880, 4536.000
899.1140, 4434.000
900.2400, 4511.000
901.3660, 4433.000
902.4920, 4474.000
903.6180, 4454.000
904.7430, 4486.000
905.8690, 4540.000
906.9940, 4520.000
908.1190, 4561.000
909.2440, 4603.000
910.3690, 4542.000
911.4930, 4576.000
912.6180, 4560.081
913.7420, 4574.650
914.8660, 4600.000
915.9900, 4571.000
917.1140, 4715.000
918.2380, 4607.000
919.3610, 4712.000
920.4850, 4749.000
921.6080, 4723.000
922.7310, 4737.000
923.8540, 4732.000
924.9760, 4721.860
926.0990, 4740.000
927.2210, 4713.000
928.3440, 4693.000
929.4660, 4698.000
930.5880, 4746.000
931.7090, 4778.000
932.8310, 4799.114
933.9520, 4827.097
935.0740, 4857.000
936.1950, 4883.000
937.3160, 4924.000
938.4360, 4996.000
939.5570, 4928.000
940.6780, 4878.000
941.7980, 4941.000
942.9180, 5043.000
944.0380, 4975.000
945.1580, 4950.000
946.2780, 5010.000
947.3970, 4999.000
948.5170, 5045.000
949.6360, 5067.000
950.7550, 5098.000
951.8740, 5113.442
952.9930, 5085.000
954.1110, 5132.000
955.2300, 5125.000
956.3480, 5130.000
957.4660, 5144.000
958.5840, 5150.975
959.7020, 5222.000
960.8190, 5212.000
961.9370, 5181.000
963.0540, 5276.000
964.1710, 5297.000
965.2880, 5190.000
966.4050, 5189.000
967.5220, 5186.000
968.6380, 5227.000
969.7550, 5301.000
970.8710, 5398.000
971.9870, 5255.000
973.1030, 5383.000
974.2190, 5382.000
975.3340, 5362.000
976.4500, 5392.000
977.5650, 5442.000
978.6800, 5399.000
979.7950, 5492.000
980.9100, 5503.000
982.0250, 5556.000
983.1390, 5624.000
984.2530, 5575.000
985.3680, 5577.000
986.4820, 5711.000
987.5950, 5594.000
988.7090, 5640.000
989.8230, 5636.000
990.9360, 5706.000
992.0490, 5793.000
993.1620, 5673.000
994.2750, 5698.000
995.3880, 5659.000
996.5010, 5781.000
997.6130, 5813.000
998.7250, 5814.000
999.8370, 5803.000
1000.949, 5804.000
1002.061, 5813.000
1003.173, 5751.000
1004.284, 5847.000
1005.396, 5734.000
1006.507, 5960.000
1007.618, 5906.000
1008.729, 5942.000
1009.839, 5855.000
1010.950, 5806.000
1012.060, 5950.000
1013.171, 5946.000
1014.281, 5974.000
1015.391, 6051.000
1016.500, 5975.000
1017.610, 6086.000
1018.719, 6071.000
1019.829, 6047.000
1020.938, 6009.000
1022.047, 6003.000
1023.156, 6134.000
1024.264, 6163.000
1025.373, 6135.000
1026.481, 6145.000
1027.589, 6096.000
1028.697, 6160.000
1029.805, 6226.000
1030.913, 6266.000
1032.020, 6203.000
1033.128, 6336.000
1034.235, 6336.000
1035.342, 6316.000
1036.449, 6440.000
1037.556, 6426.000
1038.663, 6338.000
1039.769, 6499.000
1040.875, 6536.000
1041.981, 6550.000
1043.087, 6523.000
1044.193, 6438.000
1045.299, 6590.000
1046.404, 6569.000
1047.510, 6558.000
1048.615, 6643.000
1049.720, 6709.000
1050.825, 6627.000
1051.930, 6649.000
1053.034, 6789.000
1054.139, 6619.000
1055.243, 6759.000
1056.347, 6797.000
1057.451, 6859.000
1058.555, 6886.000
1059.658, 6860.000
1060.762, 6938.000
1061.865, 6982.000
1062.968, 7068.000
1064.071, 6998.000
1065.174, 7052.000
1066.277, 7047.000
1067.380, 7173.000
1068.482, 7215.000
1069.584, 7158.000
1070.686, 7277.000
1071.788, 7309.000
1072.890, 7345.000
1073.992, 7378.842
1075.093, 7374.000
1076.194, 7382.000
1077.295, 7433.000
1078.396, 7417.000
1079.497, 7464.000
1080.598, 7498.000
1081.698, 7437.000
1082.799, 7399.000
1083.899, 7424.000
1084.999, 7321.000
1086.099, 7392.000
1087.199, 7428.000
1088.298, 7429.000
1089.398, 7589.000
1090.497, 7499.000
1091.596, 7592.000
1092.695, 7733.000
1093.794, 7769.000
1094.892, 7762.000
1095.991, 7846.000
1097.089, 7908.000
1098.187, 7916.000
1099.285, 7959.000
1100.383, 8051.000
1101.481, 7967.000
1102.579, 8026.000
1103.676, 7995.814
1104.773, 7933.000
1105.870, 7939.000
1106.967, 7914.000
1108.064, 7889.000
1109.161, 8067.000
1110.257, 8218.000
1111.353, 8330.000
1112.449, 8438.000
1113.545, 8762.000
1114.641, 8698.000
1115.737, 8690.000
1116.832, 8373.000
1117.928, 8002.000
1119.023, 7900.000
1120.118, 7813.000
1121.213, 7752.000
1122.308, 7853.000
1123.402, 7704.000
1124.497, 7832.000
1125.591, 7853.000
1126.685, 7845.000
1127.779, 7821.000
1128.873, 7775.000
1129.967, 7729.000
1131.060, 7867.000
1132.153, 7898.000
1133.247, 8035.000
1134.340, 7923.000
1135.433, 7861.000
1136.525, 7969.000
1137.618, 8049.000
1138.710, 7968.000
1139.802, 7933.000
1140.895, 7941.000
1141.987, 8028.000
1143.078, 7976.000
1144.170, 7962.000
1145.261, 8018.000
1146.353, 7939.000
1147.444, 8106.000
1148.535, 8081.000
1149.626, 8141.000
1150.716, 8091.000
1151.807, 8104.000
1152.897, 8097.000
1153.988, 8198.000
1155.078, 8166.000
1156.168, 8214.000
1157.257, 8299.000
1158.347, 8313.000
1159.436, 8278.000
1160.526, 8258.000
1161.615, 8316.000
1162.704, 8433.000
1163.793, 8326.000
1164.881, 8393.000
1165.970, 8414.000
1167.058, 8400.000
1168.147, 8457.000
1169.235, 8553.000
1170.323, 8499.000
1171.410, 8561.000
1172.498, 8593.509
1173.585, 8575.368
1174.673, 8653.000
1175.760, 8591.000
1176.847, 8584.000
1177.934, 8627.000
1179.020, 8680.000
1180.107, 8641.000
1181.193, 8717.000
1182.279, 8651.000
1183.365, 8628.000
1184.451, 8752.000
1185.537, 8791.000
1186.623, 8854.000
1187.708, 8818.000
1188.793, 8861.000
1189.878, 8852.000
1190.963, 8875.000
1192.048, 8877.000
1193.133, 8982.000
1194.217, 9008.000
1195.302, 9055.000
1196.386, 9091.195
1197.470, 9122.000
1198.554, 9124.000
1199.638, 9136.000
1200.721, 9141.000
1201.805, 9217.000
1202.888, 9122.000
1203.971, 9313.000
1205.054, 9327.000
1206.137, 9286.000
1207.219, 9033.000
1208.302, 9318.000
1209.384, 9239.000
1210.466, 9442.000
1211.548, 9301.000
1212.630, 9388.000
1213.712, 9317.000
1214.794, 9390.000
1215.875, 9335.000
1216.956, 9428.000
1218.037, 9322.000
1219.118, 9514.000
1220.199, 9490.000
1221.280, 9585.000
1222.360, 9558.000
1223.441, 9591.000
1224.521, 9600.054
1225.601, 9616.801
1226.681, 9611.000
1227.760, 9634.000
1228.840, 9686.000
1229.919, 9623.000
1230.999, 9763.000
1232.078, 9799.000
1233.157, 9775.000
1234.236, 9743.000
1235.314, 9719.000
1236.393, 9814.000
1237.471, 9828.000
1238.549, 9816.000
1239.627, 9749.000
1240.705, 9907.000
1241.783, 9957.000
1242.860, 10074.00
1243.938, 10001.00
1245.015, 9978.000
1246.092, 10068.00
1247.169, 10103.00
1248.246, 9955.000
1249.323, 9885.000
1250.399, 10131.00
1251.475, 10126.00
1252.552, 10220.00
1253.628, 10153.00
1254.703, 10208.00
1255.779, 10343.00
1256.855, 10327.00
1257.930, 10242.00
1259.005, 10348.00
1260.080, 10487.00
1261.155, 10383.00
1262.230, 10497.00
1263.305, 10482.00
1264.379, 10482.00
1265.454, 10504.00
1266.528, 10520.00
1267.602, 10521.00
1268.676, 10599.00
1269.750, 10563.00
1270.823, 10680.00
1271.897, 10641.00
1272.970, 10686.00
1274.043, 10674.00
1275.116, 10796.00
1276.189, 10658.00
1277.261, 10797.00
1278.334, 10629.00
1279.406, 10902.00
1280.478, 10882.00
1281.550, 10857.00
1282.622, 11158.00
1283.694, 10924.00
1284.766, 10880.00
1285.837, 10962.00
1286.908, 11004.00
1287.979, 11050.00
1289.050, 11194.00
1290.121, 11114.00
1291.192, 11043.00
1292.262, 11193.00
1293.333, 11134.00
1294.403, 11101.00
1295.473, 11259.00
1296.543, 11002.00
1297.613, 11295.00
1298.682, 11288.00
1299.752, 11262.00
1300.821, 11173.00
1301.890, 11201.93
1302.959, 11234.88
1304.028, 11245.00
1305.096, 11381.00
1306.165, 11479.00
1307.233, 11563.00
1308.301, 11596.23
1309.370, 11619.21
1310.437, 11624.00
1311.505, 11620.00
1312.573, 11661.65
1313.640, 11703.00
1314.708, 11704.00
1315.775, 11724.00
1316.842, 11750.00
1317.908, 11689.00
1318.975, 11823.00
1320.042, 11760.00
1321.108, 11808.00
1322.174, 11856.00
1323.240, 11943.00
1324.306, 11866.00
1325.372, 12056.00
1326.438, 12001.00
1327.503, 12119.00
1328.568, 12079.00
1329.634, 11964.00
1330.699, 12085.00
1331.763, 12211.00
1332.828, 12181.00
1333.893, 12249.00
1334.957, 12220.00
1336.021, 12286.00
1337.085, 12307.00
1338.149, 12355.60
1339.213, 12383.71
1340.277, 12468.00
1341.340, 12389.00
1342.404, 12411.00
1343.467, 12321.00
1344.530, 12496.00
1345.593, 12283.00
1346.655, 12637.00
1347.718, 12496.00
1348.780, 12709.00
1349.843, 12469.00
1350.905, 12699.00
1351.967, 12585.00
1353.028, 12651.00
1354.090, 12726.00
1355.152, 12740.00
1356.213, 12781.00
1357.274, 12837.00
1358.335, 12885.00
1359.396, 12860.00
1360.457, 12894.00
1361.517, 12964.00
1362.578, 12915.00
1363.638, 13059.00
1364.698, 12922.00
1365.758, 13150.00
1366.818, 13082.00
1367.878, 13058.00
1368.937, 13105.00
1369.997, 13280.00
1371.056, 13114.00
1372.115, 13282.00
1373.174, 13056.00
1374.232, 13283.00
1375.291, 13255.00
1376.350, 13242.00
1377.408, 13386.00
1378.466, 13371.00
1379.524, 13461.00
1380.582, 13437.00
1381.640, 13502.00
1382.697, 13536.00
1383.754, 13488.00
1384.812, 13611.00
1385.869, 13683.00
1386.926, 13621.00
1387.983, 13632.00
1389.039, 13592.00
1390.096, 13814.00
1391.152, 13807.00
1392.208, 13748.00
1393.264, 13893.00
1394.320, 13877.00
1395.376, 13811.00
1396.431, 13845.00
1397.487, 13909.00
1398.542, 13939.00
1399.597, 13943.00
1400.652, 14011.00
1401.707, 14119.00
1402.762, 14021.00
1403.816, 14202.00
1404.871, 14094.00
1405.925, 14112.00
1406.979, 14110.00
1408.033, 14244.00
1409.086, 14298.00
1410.140, 14298.00
1411.194, 14288.00
1412.247, 14287.00
1413.300, 14297.00
1414.353, 14300.54
1415.406, 14365.00
1416.458, 14340.00
1417.511, 14478.00
1418.563, 14545.00
1419.616, 14618.00
1420.668, 14638.00
1421.720, 14625.00
1422.772, 14755.00
1423.823, 14880.00
1424.875, 14867.00
1425.926, 14791.00
1426.977, 14939.00
1428.028, 14907.00
1429.079, 14938.00
1430.130, 14911.00
1431.180, 14996.00
1432.231, 14967.00
1433.281, 15015.00
1434.331, 15017.00
1435.381, 15117.00
1436.431, 15011.00
1437.481, 15214.00
1438.530, 15180.00
1439.580, 15229.00
1440.629, 15326.00
1441.678, 15433.00
1442.727, 15415.53
1443.776, 15462.72
1444.824, 15391.00
1445.873, 15454.00
1446.921, 15448.00
1447.969, 15438.00
1449.017, 15489.02
1450.065, 15500.87
1451.113, 15549.00
1452.160, 15644.00
1453.208, 15663.00
1454.255, 15886.00
1455.302, 15835.00
1456.349, 15898.00
1457.396, 15703.00
1458.443, 15850.00
1459.489, 15882.00
1460.535, 15804.00
1461.582, 16058.00
1462.628, 16075.00
1463.674, 15891.00
1464.719, 16084.00
1465.765, 16136.00
1466.810, 16036.00
1467.856, 16171.00
1468.901, 16126.00
1469.946, 16326.00
1470.991, 16378.00
1472.035, 16323.00
1473.080, 16496.00
1474.124, 16474.00
1475.169, 16385.00
1476.213, 16393.00
1477.257, 16394.00
1478.300, 16536.00
1479.344, 16597.00
1480.388, 16684.00
1481.431, 16750.24
1482.474, 16598.00
1483.517, 16821.00
1484.560, 16767.00
1485.603, 16733.00
1486.645, 16854.00
1487.688, 17015.00
1488.730, 16956.00
1489.772, 16985.00
1490.814, 16931.00
1491.856, 17175.00
1492.898, 17239.00
1493.939, 17126.00
1494.981, 17168.00
1496.022, 17084.00
1497.063, 17359.00
1498.104, 17392.00
1499.145, 17337.00
1500.186, 17452.00
1501.226, 17456.00
1502.266, 17555.00
1503.307, 17648.00
1504.347, 17582.00
1505.387, 17629.00
1506.426, 17702.00
1507.466, 17689.00
1508.505, 17754.46
1509.545, 17771.31
1510.584, 17836.00
1511.623, 17839.00
1512.662, 17874.00
1513.700, 17964.00
1514.739, 18000.00
1515.777, 18107.00
1516.815, 18058.00
1517.854, 18168.00
1518.892, 18202.00
1519.929, 18175.00
1520.967, 18282.00
1522.004, 18274.00
1523.042, 18347.49
1524.079, 18407.00
1525.116, 18492.00
1526.153, 18546.22
1527.190, 18510.00
1528.226, 18637.00
1529.263, 18613.00
1530.299, 18596.00
1531.335, 18627.00
1532.371, 18773.00
1533.407, 18818.00
1534.443, 18708.00
1535.478, 18910.00
1536.514, 18920.00
1537.549, 19247.00
1538.584, 18998.00
1539.619, 18796.00
1540.654, 19062.00
1541.689, 19042.00
1542.723, 19134.00
1543.757, 19226.00
1544.792, 19141.00
1545.826, 19176.00
1546.860, 19253.00
1547.893, 19153.00
1548.927, 19337.00
1549.960, 19211.00
1550.994, 19280.00
1552.027, 19242.00
1553.060, 19337.00
1554.093, 19401.00
1555.126, 19509.00
1556.158, 19554.00
1557.191, 19515.00
1558.223, 19679.00
1559.255, 19547.00
1560.287, 19587.00
1561.319, 19550.00
1562.350, 19480.00
1563.382, 19783.00
1564.413, 19595.00
1565.444, 19841.00
1566.476, 19530.00
1567.506, 19814.00
1568.537, 19961.00
1569.568, 20016.00
1570.598, 20148.00
1571.629, 19948.00
1572.659, 20182.00
1573.689, 20014.00
1574.719, 20171.00
1575.749, 20225.00
1576.778, 20310.00
1577.808, 20325.00
1578.837, 20420.00
##END=



