##NAMES=Marialite
##RRUFFID=R060526
##IDEAL CHEMISTRY=Na_4_Al_3_Si_9_O_24_Cl
##LOCALITY=Minas Gerais, Brazil
##OWNER=RRUFF
##SOURCE=Michael Scott
##DESCRIPTION=Heavily striated pale yellow elongated prism
##STATUS=The identification of this mineral has been confirmed by X-ray diffraction and chemical analysis
##URL=rruff.info/R060526
##MEASURED CHEMISTRY=(Na_0.62_Ca_0.33_K_0.05_)_4_(Si_0.66_Al_0.34_)_12_O_24_(Cl_0.77_(CO_3_)_0.23_)
##PIN_ID=L01495
##ORIENTATION=Laser parallel to c* (0 0 1). Fiducial mark perpendicular to laser is parallel to a [1 0 0]
60.89500, 3325.000
62.13700, 3377.000
63.38000, 3344.000
64.62300, 3341.000
65.86500, 3370.000
67.10700, 3366.591
68.34900, 3353.000
69.59100, 3444.000
70.83300, 3501.000
72.07400, 3630.000
73.31600, 3588.000
74.55700, 3644.000
75.79800, 3643.000
77.03900, 3674.000
78.27900, 3684.000
79.52000, 3690.000
80.76000, 3728.000
82.00000, 3788.000
83.24000, 3749.000
84.48000, 3800.000
85.72000, 3880.000
86.95900, 3854.000
88.19900, 3905.000
89.43800, 3976.000
90.67700, 3934.000
91.91600, 3962.000
93.15400, 3986.000
94.39300, 4092.000
95.63100, 4041.000
96.86900, 4159.000
98.10700, 4145.000
99.34500, 4351.000
100.5820, 4345.000
101.8200, 4360.000
103.0570, 4501.000
104.2940, 4624.000
105.5310, 4696.000
106.7680, 4784.081
108.0040, 4801.000
109.2410, 4911.000
110.4770, 4917.000
111.7130, 4996.000
112.9490, 4980.000
114.1850, 4723.000
115.4200, 4697.000
116.6560, 4662.000
117.8910, 4511.000
119.1260, 4516.000
120.3610, 4490.000
121.5960, 4470.000
122.8300, 4537.000
124.0640, 4485.000
125.2990, 4562.000
126.5330, 4540.000
127.7670, 4452.000
129.0000, 4572.000
130.2340, 4522.000
131.4670, 4511.000
132.7000, 4523.000
133.9330, 4494.000
135.1660, 4489.000
136.3990, 4458.000
137.6310, 4521.000
138.8640, 4458.000
140.0960, 4454.000
141.3280, 4490.000
142.5600, 4453.000
143.7910, 4448.000
145.0230, 4635.000
146.2540, 4645.000
147.4850, 4713.000
148.7160, 4753.000
149.9470, 4785.000
151.1780, 4852.000
152.4080, 5019.000
153.6380, 5173.000
154.8690, 5166.000
156.0980, 5338.000
157.3280, 5369.000
158.5580, 5553.000
159.7870, 5614.000
161.0170, 5615.000
162.2460, 5689.000
163.4750, 5711.000
164.7030, 5781.000
165.9320, 5653.000
167.1600, 5660.000
168.3890, 5533.000
169.6170, 5450.000
170.8450, 5227.000
172.0730, 5080.000
173.3000, 5055.000
174.5280, 4901.000
175.7550, 4810.000
176.9820, 4806.000
178.2090, 4653.000
179.4350, 4637.000
180.6620, 4712.000
181.8880, 4693.000
183.1150, 4699.000
184.3410, 4650.000
185.5670, 4665.000
186.7920, 4663.000
188.0180, 4712.000
189.2430, 4757.000
190.4690, 4803.000
191.6940, 4769.000
192.9180, 4794.000
194.1430, 4845.000
195.3680, 4802.000
196.5920, 4808.000
197.8160, 4860.000
199.0400, 4913.000
200.2640, 4844.000
201.4880, 4750.000
202.7110, 4787.000
203.9350, 4848.000
205.1580, 4886.000
206.3810, 4860.322
207.6040, 4795.000
208.8270, 4791.000
210.0490, 4789.000
211.2710, 4768.000
212.4940, 4683.000
213.7160, 4741.000
214.9370, 4626.000
216.1590, 4635.000
217.3810, 4685.000
218.6020, 4735.000
219.8230, 4663.000
221.0440, 4729.000
222.2650, 4712.000
223.4860, 4625.000
224.7060, 4746.000
225.9260, 4710.000
227.1470, 4668.000
228.3670, 4721.000
229.5860, 4619.000
230.8060, 4603.000
232.0260, 4669.000
233.2450, 4647.000
234.4640, 4514.000
235.6830, 4578.000
236.9020, 4431.000
238.1200, 4423.000
239.3390, 4499.000
240.5570, 4469.000
241.7750, 4467.000
242.9930, 4515.000
244.2110, 4487.000
245.4290, 4523.018
246.6460, 4430.000
247.8630, 4547.000
249.0810, 4515.000
250.2980, 4475.000
251.5140, 4568.000
252.7310, 4592.000
253.9470, 4578.000
255.1640, 4641.000
256.3800, 4693.000
257.5960, 4697.000
258.8120, 4806.000
260.0270, 4784.000
261.2430, 4898.000
262.4580, 4961.000
263.6730, 4931.000
264.8880, 4988.000
266.1030, 4980.000
267.3170, 4876.000
268.5320, 4910.000
269.7460, 4838.000
270.9600, 4784.000
272.1740, 4716.000
273.3880, 4699.000
274.6010, 4658.000
275.8150, 4519.000
277.0280, 4553.000
278.2410, 4518.000
279.4540, 4661.000
280.6670, 4538.000
281.8790, 4638.000
283.0920, 4724.000
284.3040, 4668.000
285.5160, 4662.000
286.7280, 4762.000
287.9400, 4760.000
289.1510, 4831.000
290.3630, 4823.000
291.5740, 4875.000
292.7850, 4767.000
293.9960, 4788.000
295.2070, 4755.000
296.4170, 4818.000
297.6280, 4815.000
298.8380, 4800.085
300.0480, 4812.000
301.2580, 4745.000
302.4680, 4726.000
303.6770, 4654.000
304.8870, 4669.000
306.0960, 4618.000
307.3050, 4586.000
308.5140, 4505.000
309.7230, 4611.000
310.9310, 4582.000
312.1400, 4636.000
313.3480, 4622.000
314.5560, 4593.000
315.7640, 4685.000
316.9720, 4624.000
318.1790, 4622.000
319.3870, 4659.000
320.5940, 4668.000
321.8010, 4675.000
323.0080, 4715.000
324.2150, 4737.000
325.4210, 4781.000
326.6280, 4809.950
327.8340, 4754.000
329.0400, 4832.000
330.2460, 4884.000
331.4510, 4807.000
332.6570, 4911.000
333.8620, 4997.000
335.0680, 4963.000
336.2730, 4830.000
337.4780, 4984.000
338.6820, 5027.000
339.8870, 4892.000
341.0910, 4963.000
342.2950, 4892.000
343.5000, 4825.000
344.7030, 4848.000
345.9070, 4915.000
347.1110, 4952.000
348.3140, 4840.000
349.5170, 4887.000
350.7200, 4809.000
351.9230, 4938.000
353.1260, 4926.000
354.3290, 4879.000
355.5310, 5008.000
356.7330, 5055.000
357.9350, 4941.000
359.1370, 5063.000
360.3390, 5063.000
361.5400, 5021.000
362.7420, 5097.000
363.9430, 5100.000
365.1440, 5181.000
366.3450, 5057.000
367.5460, 5073.000
368.7460, 4920.000
369.9470, 5080.000
371.1470, 4984.000
372.3470, 4923.000
373.5470, 4915.000
374.7460, 5024.000
375.9460, 5056.000
377.1450, 5040.000
378.3450, 5053.000
379.5440, 5020.000
380.7430, 5032.532
381.9410, 5062.000
383.1400, 5057.000
384.3380, 5113.000
385.5370, 5160.000
386.7350, 5016.000
387.9320, 5071.000
389.1300, 5057.000
390.3280, 5091.000
391.5250, 5038.000
392.7220, 5081.000
393.9190, 5021.000
395.1160, 5042.000
396.3130, 5125.000
397.5100, 5102.000
398.7060, 5003.000
399.9020, 5023.000
401.0980, 5137.000
402.2940, 4997.000
403.4900, 5154.000
404.6860, 5092.000
405.8810, 5141.000
407.0760, 5060.000
408.2710, 5133.000
409.4660, 5160.000
410.6610, 5163.000
411.8550, 5212.000
413.0500, 5271.000
414.2440, 5289.000
415.4380, 5217.000
416.6320, 5302.000
417.8260, 5263.000
419.0190, 5326.000
420.2130, 5283.000
421.4060, 5310.000
422.5990, 5350.000
423.7920, 5409.000
424.9850, 5402.000
426.1770, 5482.000
427.3700, 5379.000
428.5620, 5443.000
429.7540, 5348.000
430.9460, 5427.000
432.1380, 5552.000
433.3290, 5374.000
434.5210, 5567.000
435.7120, 5495.000
436.9030, 5637.000
438.0940, 5524.000
439.2850, 5648.000
440.4750, 5631.000
441.6660, 5672.000
442.8560, 5789.000
444.0460, 5833.000
445.2360, 5909.000
446.4260, 5971.000
447.6160, 6119.000
448.8050, 6350.000
449.9940, 6591.000
451.1830, 6841.000
452.3720, 7211.000
453.5610, 7508.000
454.7500, 7847.000
455.9380, 8128.000
457.1260, 8146.000
458.3150, 8328.000
459.5020, 8345.000
460.6900, 8364.000
461.8780, 8205.000
463.0650, 8019.000
464.2530, 7846.000
465.4400, 7520.000
466.6270, 7430.000
467.8130, 7282.000
469.0000, 6849.000
470.1870, 6766.000
471.3730, 6549.000
472.5590, 6342.000
473.7450, 6253.000
474.9310, 6231.000
476.1160, 6012.000
477.3020, 5998.000
478.4870, 5910.000
479.6720, 5912.000
480.8570, 5986.000
482.0420, 5819.000
483.2270, 5748.000
484.4110, 5845.000
485.5960, 5737.000
486.7800, 5705.000
487.9640, 5668.000
489.1480, 5633.000
490.3310, 5687.000
491.5150, 5740.000
492.6980, 5709.000
493.8810, 5665.000
495.0640, 5684.000
496.2470, 5757.000
497.4300, 5768.000
498.6120, 5697.000
499.7950, 5813.000
500.9770, 5761.000
502.1590, 5735.000
503.3410, 5751.000
504.5220, 5777.000
505.7040, 5753.000
506.8850, 5706.000
508.0660, 5801.000
509.2470, 5686.000
510.4280, 5806.000
511.6090, 5774.000
512.7890, 5819.000
513.9700, 5809.000
515.1500, 5830.000
516.3300, 5795.000
517.5100, 5728.000
518.6900, 5872.000
519.8690, 5824.000
521.0490, 5954.000
522.2280, 5919.000
523.4070, 5931.000
524.5860, 5953.000
525.7640, 5977.000
526.9430, 6037.000
528.1210, 6129.000
529.3000, 6204.000
530.4780, 6318.000
531.6560, 6435.000
532.8330, 6597.000
534.0110, 6662.000
535.1880, 6814.000
536.3650, 6899.000
537.5430, 7013.000
538.7190, 7062.000
539.8960, 7018.000
541.0730, 6962.000
542.2490, 6724.000
543.4250, 6502.000
544.6020, 6465.000
545.7780, 6450.000
546.9530, 6268.000
548.1290, 6297.000
549.3040, 6344.000
550.4800, 6188.000
551.6550, 6241.000
552.8300, 6096.000
554.0040, 6193.000
555.1790, 6155.000
556.3540, 6152.000
557.5280, 6184.000
558.7020, 6203.000
559.8760, 6218.441
561.0500, 6224.768
562.2230, 6201.000
563.3970, 6252.000
564.5700, 6122.000
565.7430, 6187.000
566.9160, 6326.000
568.0890, 6219.000
569.2620, 6207.000
570.4340, 6112.000
571.6070, 6179.000
572.7790, 6271.000
573.9510, 6159.000
575.1230, 6189.000
576.2940, 6279.000
577.4660, 6138.000
578.6370, 6322.000
579.8080, 6199.000
580.9790, 6348.000
582.1500, 6320.000
583.3210, 6203.000
584.4910, 6324.000
585.6620, 6306.000
586.8320, 6310.000
588.0020, 6409.000
589.1720, 6310.000
590.3410, 6367.000
591.5110, 6336.000
592.6800, 6401.000
593.8500, 6372.000
595.0190, 6460.000
596.1880, 6344.000
597.3560, 6359.000
598.5250, 6435.000
599.6930, 6431.000
600.8620, 6428.000
602.0300, 6457.000
603.1970, 6509.000
604.3650, 6455.000
605.5330, 6494.000
606.7000, 6527.000
607.8680, 6523.000
609.0350, 6508.000
610.2020, 6553.000
611.3680, 6526.000
612.5350, 6591.000
613.7010, 6595.000
614.8680, 6643.000
616.0340, 6596.000
617.2000, 6629.000
618.3660, 6684.000
619.5310, 6706.000
620.6970, 6575.000
621.8620, 6560.000
623.0270, 6617.000
624.1920, 6688.000
625.3570, 6590.000
626.5220, 6670.000
627.6860, 6637.000
628.8500, 6602.000
630.0140, 6662.000
631.1780, 6704.000
632.3420, 6628.000
633.5060, 6703.000
634.6700, 6621.000
635.8330, 6694.000
636.9960, 6747.000
638.1590, 6716.000
639.3220, 6821.000
640.4850, 6761.000
641.6470, 6751.000
642.8100, 6727.000
643.9720, 6790.000
645.1340, 6771.000
646.2960, 6881.000
647.4570, 6822.000
648.6190, 6798.000
649.7800, 6920.000
650.9420, 6813.000
652.1030, 6709.000
653.2640, 6851.000
654.4240, 6876.000
655.5850, 6912.000
656.7450, 6935.000
657.9060, 6893.000
659.0660, 6927.000
660.2260, 6902.000
661.3850, 6910.000
662.5450, 7008.000
663.7040, 6983.000
664.8640, 7127.000
666.0230, 6954.000
667.1820, 6981.000
668.3410, 7049.000
669.4990, 7096.000
670.6580, 7063.000
671.8160, 6966.000
672.9740, 7019.000
674.1320, 7117.000
675.2900, 7045.000
676.4480, 7171.000
677.6050, 7043.000
678.7630, 7148.000
679.9200, 7167.000
681.0770, 7290.000
682.2340, 7088.000
683.3900, 7230.000
684.5470, 7215.000
685.7030, 7141.000
686.8590, 7160.000
688.0150, 7158.000
689.1710, 7171.000
690.3270, 7154.000
691.4830, 7229.000
692.6380, 7116.000
693.7930, 7263.000
694.9480, 7260.000
696.1030, 7152.000
697.2580, 7365.000
698.4130, 7315.000
699.5670, 7386.000
700.7210, 7296.000
701.8750, 7257.000
703.0290, 7407.000
704.1830, 7343.000
705.3370, 7426.000
706.4900, 7407.000
707.6430, 7478.000
708.7970, 7440.000
709.9490, 7275.000
711.1020, 7533.000
712.2550, 7327.000
713.4070, 7432.000
714.5600, 7452.000
715.7120, 7476.000
716.8640, 7403.000
718.0160, 7570.000
719.1670, 7466.000
720.3190, 7559.000
721.4700, 7491.000
722.6210, 7478.000
723.7720, 7545.000
724.9230, 7509.000
726.0740, 7512.000
727.2250, 7521.000
728.3750, 7613.000
729.5250, 7552.000
730.6750, 7633.000
731.8250, 7624.000
732.9750, 7573.000
734.1240, 7719.000
735.2740, 7659.000
736.4230, 7686.000
737.5720, 7703.000
738.7210, 7613.000
739.8700, 7637.000
741.0190, 7714.000
742.1670, 7665.000
743.3150, 7742.000
744.4630, 7800.000
745.6110, 7759.000
746.7590, 7708.000
747.9070, 7757.000
749.0540, 7820.000
750.2020, 7885.000
751.3490, 7759.000
752.4960, 7862.000
753.6430, 7957.000
754.7890, 7842.000
755.9360, 7978.000
757.0820, 7918.000
758.2280, 8066.000
759.3740, 8031.000
760.5200, 8094.000
761.6660, 8082.000
762.8120, 8085.000
763.9570, 8141.000
765.1020, 8168.000
766.2470, 8193.000
767.3920, 8241.000
768.5370, 8290.930
769.6810, 8318.447
770.8260, 8434.000
771.9700, 8389.000
773.1140, 8497.000
774.2580, 8547.000
775.4020, 8685.000
776.5460, 8400.000
777.6890, 8538.000
778.8320, 8499.000
779.9750, 8431.000
781.1180, 8466.000
782.2610, 8427.000
783.4040, 8369.000
784.5460, 8350.000
785.6890, 8281.000
786.8310, 8239.000
787.9730, 8278.000
789.1150, 8366.000
790.2560, 8271.000
791.3980, 8286.000
792.5390, 8256.000
793.6810, 8220.000
794.8220, 8312.000
795.9630, 8282.000
797.1030, 8327.000
798.2440, 8323.000
799.3840, 8377.000
800.5240, 8440.000
801.6650, 8385.000
802.8040, 8419.000
803.9440, 8454.000
805.0840, 8453.000
806.2230, 8484.000
807.3630, 8546.000
808.5020, 8531.000
809.6410, 8563.312
810.7790, 8559.977
811.9180, 8585.000
813.0570, 8539.000
814.1950, 8547.000
815.3330, 8536.000
816.4710, 8598.000
817.6090, 8532.000
818.7470, 8491.000
819.8840, 8560.000
821.0220, 8535.000
822.1590, 8584.000
823.2960, 8568.000
824.4330, 8600.000
825.5690, 8618.000
826.7060, 8673.000
827.8420, 8592.000
828.9790, 8652.000
830.1150, 8655.000
831.2510, 8809.000
832.3860, 8641.000
833.5220, 8748.000
834.6570, 8743.000
835.7930, 8654.000
836.9280, 8700.000
838.0630, 8757.000
839.1980, 8737.000
840.3320, 8822.000
841.4670, 8792.000
842.6010, 8864.000
843.7350, 8884.000
844.8690, 8786.000
846.0030, 8841.000
847.1370, 8851.000
848.2700, 8760.000
849.4040, 8903.000
850.5370, 8932.000
851.6700, 8874.000
852.8030, 8828.000
853.9360, 8951.000
855.0680, 8966.000
856.2000, 8986.000
857.3330, 9038.000
858.4650, 9081.000
859.5970, 9024.000
860.7290, 9039.000
861.8600, 8950.000
862.9920, 9038.000
864.1230, 9101.000
865.2540, 9029.000
866.3850, 9198.000
867.5160, 9057.000
868.6460, 9075.000
869.7770, 9109.000
870.9070, 9189.000
872.0370, 9151.000
873.1670, 9299.000
874.2970, 9093.000
875.4270, 9140.000
876.5570, 9207.000
877.6860, 9264.000
878.8150, 9370.000
879.9440, 9355.000
881.0730, 9217.000
882.2020, 9195.000
883.3300, 9292.000
884.4590, 9318.000
885.5870, 9455.000
886.7150, 9425.000
887.8430, 9370.000
888.9710, 9413.000
890.0990, 9338.000
891.2260, 9454.000
892.3530, 9436.000
893.4810, 9473.000
894.6080, 9542.000
895.7340, 9461.000
896.8610, 9513.000
897.9880, 9511.000
899.1140, 9562.000
900.2400, 9590.641
901.3660, 9573.000
902.4920, 9662.000
903.6180, 9586.000
904.7430, 9619.000
905.8690, 9603.000
906.9940, 9654.000
908.1190, 9831.000
909.2440, 9635.000
910.3690, 9820.000
911.4930, 9687.000
912.6180, 9808.000
913.7420, 9642.000
914.8660, 9724.000
915.9900, 9802.000
917.1140, 9774.000
918.2380, 9809.000
919.3610, 9761.000
920.4850, 9840.000
921.6080, 9916.000
922.7310, 9914.000
923.8540, 9942.000
924.9760, 9938.000
926.0990, 9852.000
927.2210, 10032.00
928.3440, 9911.000
929.4660, 9893.000
930.5880, 9991.000
931.7090, 10108.00
932.8310, 9971.000
933.9520, 10002.00
935.0740, 10045.00
936.1950, 10061.00
937.3160, 10168.00
938.4360, 10078.00
939.5570, 10188.00
940.6780, 10102.00
941.7980, 10210.00
942.9180, 10363.00
944.0380, 10098.00
945.1580, 10153.00
946.2780, 10230.00
947.3970, 10301.00
948.5170, 10236.00
949.6360, 10416.00
950.7550, 10269.00
951.8740, 10453.00
952.9930, 10295.00
954.1110, 10440.00
955.2300, 10292.00
956.3480, 10437.00
957.4660, 10558.00
958.5840, 10449.00
959.7020, 10517.00
960.8190, 10491.00
961.9370, 10539.00
963.0540, 10556.00
964.1710, 10759.00
965.2880, 10546.00
966.4050, 10681.00
967.5220, 10481.00
968.6380, 10616.00
969.7550, 10624.00
970.8710, 10655.00
971.9870, 10774.00
973.1030, 10744.00
974.2190, 10642.00
975.3340, 10762.00
976.4500, 10551.00
977.5650, 10789.00
978.6800, 10678.00
979.7950, 10922.00
980.9100, 10907.00
982.0250, 10896.00
983.1390, 10897.00
984.2530, 10908.98
985.3680, 10941.29
986.4820, 10955.00
987.5950, 10987.00
988.7090, 11021.00
989.8230, 10951.00
990.9360, 11166.00
992.0490, 11118.00
993.1620, 11106.00
994.2750, 11060.00
995.3880, 11116.00
996.5010, 11166.00
997.6130, 11158.00
998.7250, 11240.00
999.8370, 11186.00
1000.949, 11349.00
1002.061, 11382.00
1003.173, 11102.00
1004.284, 11432.00
1005.396, 11208.00
1006.507, 11265.00
1007.618, 11374.00
1008.729, 11363.00
1009.839, 11338.00
1010.950, 11394.00
1012.060, 11377.00
1013.171, 11416.55
1014.281, 11419.00
1015.391, 11467.00
1016.500, 11530.00
1017.610, 11505.00
1018.719, 11530.00
1019.829, 11454.00
1020.938, 11565.00
1022.047, 11499.00
1023.156, 11570.00
1024.264, 11715.00
1025.373, 11685.00
1026.481, 11658.00
1027.589, 11709.00
1028.697, 11656.00
1029.805, 11727.00
1030.913, 11754.00
1032.020, 11795.00
1033.128, 11912.00
1034.235, 11886.00
1035.342, 11762.00
1036.449, 11796.00
1037.556, 11912.00
1038.663, 11913.00
1039.769, 11964.00
1040.875, 11992.00
1041.981, 12058.00
1043.087, 11962.00
1044.193, 11960.00
1045.299, 11964.00
1046.404, 12099.00
1047.510, 12135.00
1048.615, 12203.00
1049.720, 12169.00
1050.825, 12300.00
1051.930, 12220.00
1053.034, 12164.00
1054.139, 12187.00
1055.243, 12260.00
1056.347, 12304.00
1057.451, 12249.00
1058.555, 12301.00
1059.658, 12512.00
1060.762, 12464.00
1061.865, 12518.00
1062.968, 12436.00
1064.071, 12497.00
1065.174, 12540.80
1066.277, 12580.00
1067.380, 12662.00
1068.482, 12743.00
1069.584, 12776.00
1070.686, 12819.34
1071.788, 12696.00
1072.890, 12856.00
1073.992, 12816.00
1075.093, 12820.00
1076.194, 12929.00
1077.295, 12923.00
1078.396, 13019.00
1079.497, 12878.00
1080.598, 12983.00
1081.698, 12947.00
1082.799, 12819.00
1083.899, 12988.00
1084.999, 12855.00
1086.099, 13044.00
1087.199, 13027.00
1088.298, 13018.00
1089.398, 13138.00
1090.497, 13158.00
1091.596, 13121.00
1092.695, 13129.00
1093.794, 13342.00
1094.892, 13311.00
1095.991, 13323.00
1097.089, 13458.00
1098.187, 13411.00
1099.285, 13434.00
1100.383, 13484.00
1101.481, 13525.00
1102.579, 13479.00
1103.676, 13559.00
1104.773, 13520.00
1105.870, 13432.00
1106.967, 13507.00
1108.064, 13576.00
1109.161, 13738.00
1110.257, 13793.49
1111.353, 13731.00
1112.449, 13990.00
1113.545, 13959.00
1114.641, 14099.00
1115.737, 13962.00
1116.832, 13965.00
1117.928, 13754.00
1119.023, 13690.00
1120.118, 13578.00
1121.213, 13638.00
1122.308, 13519.00
1123.402, 13534.10
1124.497, 13529.00
1125.591, 13557.00
1126.685, 13661.00
1127.779, 13728.00
1128.873, 13520.00
1129.967, 13612.00
1131.060, 13729.00
1132.153, 13688.00
1133.247, 13814.00
1134.340, 13688.00
1135.433, 13626.00
1136.525, 13710.00
1137.618, 13807.00
1138.710, 13805.00
1139.802, 13767.00
1140.895, 13913.00
1141.987, 13972.00
1143.078, 13914.00
1144.170, 13908.00
1145.261, 13930.00
1146.353, 13947.00
1147.444, 13960.00
1148.535, 13951.00
1149.626, 14047.00
1150.716, 14060.00
1151.807, 14063.00
1152.897, 14198.00
1153.988, 14103.00
1155.078, 13983.00
1156.168, 13986.00
1157.257, 14205.00
1158.347, 14180.00
1159.436, 14209.00
1160.526, 14125.00
1161.615, 14218.00
1162.704, 14119.00
1163.793, 14380.00
1164.881, 14314.00
1165.970, 14354.00
1167.058, 14332.00
1168.147, 14252.00
1169.235, 14415.00
1170.323, 14489.00
1171.410, 14318.00
1172.498, 14569.00
1173.585, 14382.00
1174.673, 14525.00
1175.760, 14583.00
1176.847, 14544.00
1177.934, 14638.00
1179.020, 14706.00
1180.107, 14636.00
1181.193, 14626.00
1182.279, 14697.00
1183.365, 14694.99
1184.451, 14628.00
1185.537, 14797.00
1186.623, 14826.00
1187.708, 14884.00
1188.793, 14821.00
1189.878, 14788.00
1190.963, 14865.00
1192.048, 14970.00
1193.133, 15064.00
1194.217, 15134.34
1195.302, 15164.00
1196.386, 15215.00
1197.470, 15144.00
1198.554, 15040.00
1199.638, 15070.00
1200.721, 15319.00
1201.805, 15152.00
1202.888, 15200.00
1203.971, 15353.00
1205.054, 15263.00
1206.137, 15348.00
1207.219, 15399.01
1208.302, 15404.00
1209.384, 15470.00
1210.466, 15474.00
1211.548, 15432.00
1212.630, 15527.00
1213.712, 15571.00
1214.794, 15543.00
1215.875, 15427.00
1216.956, 15702.00
1218.037, 15727.00
1219.118, 15609.00
1220.199, 15647.00
1221.280, 15650.00
1222.360, 15682.00
1223.441, 15632.00
1224.521, 15566.00
1225.601, 15724.00
1226.681, 15698.00
1227.760, 15852.00
1228.840, 15779.00
1229.919, 15782.00
1230.999, 15946.00
1232.078, 15978.00
1233.157, 15837.00
1234.236, 15929.00
1235.314, 16069.00
1236.393, 15996.00
1237.471, 16127.00
1238.549, 15992.00
1239.627, 16004.00
1240.705, 16278.00
1241.783, 16099.00
1242.860, 16155.00
1243.938, 16082.00
1245.015, 16196.00
1246.092, 16335.00
1247.169, 16177.00
1248.246, 16358.00
1249.323, 16373.00
1250.399, 16309.00
1251.475, 16530.00
1252.552, 16468.00
1253.628, 16401.00
1254.703, 16376.00
1255.779, 16396.00
1256.855, 16364.17
1257.930, 16529.00
1259.005, 16340.00
1260.080, 16600.00
1261.155, 16567.00
1262.230, 16705.00
1263.305, 16696.00
1264.379, 16706.00
1265.454, 16820.00
1266.528, 16783.00
1267.602, 16861.00
1268.676, 16821.00
1269.750, 16966.00
1270.823, 17147.00
1271.897, 17007.00
1272.970, 16958.00
1274.043, 17183.00
1275.116, 17257.00
1276.189, 16981.00
1277.261, 17164.00
1278.334, 17022.00
1279.406, 17247.00
1280.478, 17302.00
1281.550, 17251.00
1282.622, 17301.00
1283.694, 17274.00
1284.766, 17410.00
1285.837, 17407.00
1286.908, 17348.00
1287.979, 17520.00
1289.050, 17380.00
1290.121, 17531.00
1291.192, 17476.00
1292.262, 17602.00
1293.333, 17668.00
1294.403, 17474.00
1295.473, 17616.00
1296.543, 17658.00
1297.613, 17668.00
1298.682, 17714.00
1299.752, 17572.00
1300.821, 17746.00
1301.890, 17939.00
1302.959, 17814.00
1304.028, 17697.00
1305.096, 17876.00
1306.165, 17873.00
1307.233, 17799.00
1308.301, 18072.00
1309.370, 18074.00
1310.437, 17905.00
1311.505, 18102.00
1312.573, 17959.00
1313.640, 18033.00
1314.708, 18114.00
1315.775, 17993.00
1316.842, 17969.00
1317.908, 18205.00
1318.975, 18333.00
1320.042, 18381.00
1321.108, 18255.00
1322.174, 18335.00
1323.240, 18157.00
1324.306, 18176.00
1325.372, 18388.00
1326.438, 18523.00
1327.503, 18499.00
1328.568, 18550.00
1329.634, 18650.00
1330.699, 18556.00
1331.763, 18868.00
1332.828, 18509.00
1333.893, 18807.00
1334.957, 18807.00
1336.021, 18729.00
1337.085, 18924.00
1338.149, 18792.00
1339.213, 18699.00
1340.277, 19018.00
1341.340, 18491.00
1342.404, 19090.00
1343.467, 18864.00
1344.530, 18979.00
1345.593, 19083.00
1346.655, 19066.00
1347.718, 19224.00
1348.780, 19060.00
1349.843, 19055.00
1350.905, 19319.00
1351.967, 19066.00
1353.028, 19238.00
1354.090, 19225.00
1355.152, 19324.00
1356.213, 19348.36
1357.274, 19283.00
1358.335, 19408.00
1359.396, 19292.00
1360.457, 19401.00
1361.517, 19496.00
1362.578, 19421.00
1363.638, 19701.00
1364.698, 19489.00
1365.758, 19514.00
1366.818, 19587.00
1367.878, 19650.00
1368.937, 19662.00
1369.997, 19760.00
1371.056, 19924.00
1372.115, 19900.00
1373.174, 19878.00
1374.232, 19785.00
1375.291, 19667.00
1376.350, 19865.00
1377.408, 20053.00
1378.466, 19888.00
1379.524, 20064.00
1380.582, 20272.00
1381.640, 20210.00
1382.697, 20065.00
1383.754, 19963.00
1384.812, 20238.00
1385.869, 20162.00
1386.926, 20311.00
1387.983, 20165.00
1389.039, 20330.00
1390.096, 20471.00
1391.152, 20313.00
1392.208, 20363.00
1393.264, 20631.00
1394.320, 20562.00
1395.376, 20575.00
1396.431, 20528.00
1397.487, 20581.00
1398.542, 20535.00
1399.597, 20553.00
1400.652, 20706.00
1401.707, 20714.00
1402.762, 20683.00
1403.816, 20763.00
1404.871, 20680.00
1405.925, 20952.00
1406.979, 20936.00
1408.033, 20936.00
1409.086, 20955.00
1410.140, 20970.00
1411.194, 21004.18
1412.247, 20942.00
1413.300, 21047.00
1414.353, 21104.00
1415.406, 21043.00
1416.458, 21279.00
1417.511, 21285.00
1418.563, 21305.00
1419.616, 21311.00
1420.668, 21346.00
1421.720, 21311.00
1422.772, 21364.73
1423.823, 21379.00
1424.875, 21448.00
1425.926, 21450.00
1426.977, 21496.00
1428.028, 21735.00
1429.079, 21620.00
1430.130, 21689.00
1431.180, 21798.00
1432.231, 21720.00
1433.281, 21845.00
1434.331, 21895.00
1435.381, 21778.00
1436.431, 21924.00
1437.481, 22005.00
1438.530, 21861.00
1439.580, 22032.00
1440.629, 21977.00
1441.678, 21970.00
1442.727, 22252.00
1443.776, 22062.00
1444.824, 22385.00
1445.873, 22385.00
1446.921, 22295.00
1447.969, 22293.00
1449.017, 22325.00
1450.065, 22380.00
1451.113, 22324.00
1452.160, 22381.00
1453.208, 22490.00
1454.255, 22514.00
1455.302, 22475.00
1456.349, 22646.00
1457.396, 22621.00
1458.443, 22829.00
1459.489, 22872.00
1460.535, 22854.00
1461.582, 22788.00
1462.628, 22711.00
1463.674, 22869.00
1464.719, 22744.00
1465.765, 22994.00
1466.810, 22787.00
1467.856, 22767.00
1468.901, 22887.00
1469.946, 22899.00
1470.991, 23078.00
1472.035, 23030.00
1473.080, 23236.00
1474.124, 23225.00
1475.169, 23372.00
1476.213, 23346.00
1477.257, 23264.00
1478.300, 23423.00
1479.344, 23573.00
1480.388, 23406.00
1481.431, 23320.00
1482.474, 23667.00
1483.517, 23520.00
1484.560, 23670.00
1485.603, 23667.00
1486.645, 23848.00
1487.688, 23856.00
1488.730, 23785.00
1489.772, 23893.00
1490.814, 23880.00
1491.856, 23971.00
1492.898, 23895.00
1493.939, 23997.00
1494.981, 24312.00
1496.022, 24072.00
1497.063, 24158.00
1498.104, 24391.00
1499.145, 24229.00
1500.186, 24419.00
1501.226, 24234.00
1502.266, 24354.00
1503.307, 24560.00
1504.347, 24420.00
1505.387, 24465.00
1506.426, 24664.00
1507.466, 24474.00
1508.505, 24633.00
1509.545, 24757.00
1510.584, 24626.00
1511.623, 24628.00
1512.662, 24807.00
1513.700, 25035.00
1514.739, 25089.00
1515.777, 25011.00
1516.815, 24939.00
1517.854, 25050.00
1518.892, 25242.00
1519.929, 25042.00
1520.967, 25381.00
1522.004, 25344.00
1523.042, 25355.00
1524.079, 25242.00
1525.116, 25310.00
1526.153, 25423.00
1527.190, 25413.00
1528.226, 25520.00
1529.263, 25630.00
1530.299, 25635.87
1531.335, 25734.00
1532.371, 25705.00
1533.407, 25709.00
1534.443, 25747.00
1535.478, 25867.00
1536.514, 25744.00
1537.549, 25838.00
1538.584, 25858.00
1539.619, 26136.00
1540.654, 26098.00
1541.689, 26205.00
1542.723, 25948.00
1543.757, 26187.00
1544.792, 26142.00
1545.826, 26133.00
1546.860, 26182.00
1547.893, 26101.00
1548.927, 26161.61
1549.960, 26159.73
1550.994, 26245.00
1552.027, 26189.00
1553.060, 26259.00
1554.093, 26267.00
1555.126, 26377.00
1556.158, 26427.13
1557.191, 26528.00
1558.223, 26586.00
1559.255, 26629.00
1560.287, 26735.42
1561.319, 26521.00
1562.350, 26768.00
1563.382, 26684.00
1564.413, 26514.00
1565.444, 26607.00
1566.476, 26785.00
1567.506, 26768.00
1568.537, 26809.00
1569.568, 26851.00
1570.598, 26869.60
1571.629, 26858.00
1572.659, 26982.00
1573.689, 27018.00
1574.719, 27163.00
1575.749, 27179.00
1576.778, 27133.00
1577.808, 27071.00
1578.837, 27461.00
##END=



