##NAMES=Mesolite
##RRUFFID=R050013
##IDEAL CHEMISTRY=Na_2_Ca_2_(Si_9_Al_6_)O_30_&#183;8H_2_O
##LOCALITY=Poona, Maharashtra, India
##OWNER=RRUFF
##SOURCE=University of Arizona Mineral Museum
##DESCRIPTION=Clear to white elongated prismatic single crystal
##STATUS=The identification of this mineral has been confirmed by X-ray diffraction and chemical analysis
##URL=rruff.info/R050013
##MEASURED CHEMISTRY=Na_2.00_Ca_2.00_(Si_9.00_Al_6.00_)O_30_Â·8H_2_O
##PIN_ID=M00096
##ORIENTATION=Laser parallel to b* (0 1 0). Fiducial mark perpendicular to laser is parallel to c [0 0 1]
88.54200, 12595.00
89.77700, 13397.00
91.01200, 14054.00
92.24600, 14594.00
93.48000, 15193.00
94.71400, 15603.00
95.94800, 16046.00
97.18200, 16443.00
98.41600, 17080.00
99.64900, 17057.00
100.8830, 17350.00
102.1160, 17599.00
103.3490, 18139.00
104.5820, 18486.00
105.8150, 18445.59
107.0470, 19300.00
108.2800, 18308.00
109.5120, 17536.00
110.7440, 17493.00
111.9760, 17626.00
113.2080, 17723.00
114.4400, 17710.00
115.6710, 17301.00
116.9030, 16992.00
118.1340, 16616.00
119.3650, 16526.00
120.5960, 16953.00
121.8270, 17401.00
123.0580, 18106.00
124.2880, 18303.00
125.5190, 18335.00
126.7490, 18548.00
127.9790, 19130.00
129.2090, 19589.00
130.4390, 19794.00
131.6680, 20296.00
132.8980, 21568.00
134.1270, 23481.00
135.3560, 25068.00
136.5850, 25082.00
137.8140, 24207.00
139.0430, 22914.00
140.2710, 21918.00
141.5000, 21360.00
142.7280, 21392.00
143.9560, 22340.00
145.1840, 23538.00
146.4120, 25116.00
147.6390, 25738.00
148.8670, 25818.00
150.0940, 25519.00
151.3210, 25358.00
152.5490, 25135.00
153.7750, 25604.00
155.0020, 26004.00
156.2290, 26058.00
157.4550, 26617.00
158.6810, 26465.00
159.9080, 25974.00
161.1340, 25005.00
162.3590, 24867.00
163.5850, 24249.00
164.8110, 23529.00
166.0360, 23238.00
167.2610, 22952.00
168.4860, 22622.00
169.7110, 22760.00
170.9360, 22755.00
172.1610, 22381.00
173.3850, 21384.00
174.6100, 20560.00
175.8340, 19321.00
177.0580, 18284.00
178.2820, 17480.00
179.5050, 16472.00
180.7290, 16006.00
181.9520, 15531.00
183.1760, 15177.00
184.3990, 15084.00
185.6220, 15011.00
186.8450, 15168.00
188.0670, 14815.00
189.2900, 14557.00
190.5120, 14169.00
191.7340, 13996.00
192.9560, 13783.00
194.1780, 13558.00
195.4000, 13312.00
196.6220, 13448.00
197.8430, 13401.00
199.0640, 13233.00
200.2860, 13211.00
201.5070, 13047.00
202.7270, 12696.00
203.9480, 12598.00
205.1690, 12286.00
206.3890, 12177.00
207.6090, 12194.00
208.8290, 12282.00
210.0490, 12398.00
211.2690, 12909.00
212.4890, 13342.00
213.7080, 13841.00
214.9280, 15048.00
216.1470, 15918.00
217.3660, 16610.00
218.5850, 17378.00
219.8030, 17995.00
221.0220, 18967.00
222.2400, 19431.00
223.4590, 20151.00
224.6770, 21305.00
225.8950, 22207.00
227.1120, 23599.00
228.3300, 24464.00
229.5480, 24647.00
230.7650, 24176.00
231.9820, 23319.00
233.1990, 22125.00
234.4160, 21147.00
235.6330, 20306.00
236.8490, 19759.00
238.0660, 19345.00
239.2820, 19322.00
240.4980, 19275.00
241.7140, 19476.00
242.9300, 19920.00
244.1460, 19841.00
245.3610, 19784.00
246.5770, 18688.00
247.7920, 17768.00
249.0070, 16871.00
250.2220, 16084.00
251.4370, 15534.00
252.6510, 15136.00
253.8660, 15153.00
255.0800, 15039.00
256.2940, 15295.00
257.5080, 15123.44
258.7220, 15143.00
259.9360, 14771.00
261.1490, 14441.00
262.3630, 13856.00
263.5760, 13453.00
264.7890, 12991.00
266.0020, 12658.00
267.2150, 12414.00
268.4270, 12122.00
269.6400, 11994.00
270.8520, 11860.75
272.0640, 11839.00
273.2760, 11773.00
274.4880, 11747.00
275.7000, 11812.00
276.9120, 11915.78
278.1230, 12109.59
279.3340, 12329.00
280.5450, 12694.00
281.7560, 13086.00
282.9670, 13550.00
284.1780, 14037.00
285.3880, 14481.25
286.5980, 14877.00
287.8090, 15370.00
289.0190, 15819.75
290.2290, 16327.53
291.4380, 16798.00
292.6480, 17315.00
293.8570, 17862.00
295.0670, 18219.00
296.2760, 18279.00
297.4850, 18118.00
298.6930, 17739.00
299.9020, 17514.00
301.1110, 17133.00
302.3190, 16869.00
303.5270, 16482.00
304.7350, 16411.00
305.9430, 15987.00
307.1510, 15689.00
308.3580, 15369.00
309.5660, 14995.00
310.7730, 14642.00
311.9800, 14373.00
313.1870, 14251.00
314.3940, 14178.00
315.6010, 14037.00
316.8070, 13735.00
318.0130, 13497.00
319.2200, 13609.00
320.4260, 13300.00
321.6310, 13258.00
322.8370, 12988.00
324.0430, 12846.00
325.2480, 12879.00
326.4540, 12652.00
327.6590, 12737.00
328.8640, 12777.00
330.0680, 12696.00
331.2730, 12751.00
332.4780, 12858.00
333.6820, 12777.00
334.8860, 12775.00
336.0900, 12845.00
337.2940, 12931.00
338.4980, 13045.00
339.7010, 13193.00
340.9050, 13280.00
342.1080, 13296.00
343.3110, 13283.00
344.5140, 13388.00
345.7170, 13521.00
346.9200, 13359.00
348.1220, 13597.00
349.3240, 13618.00
350.5270, 13563.00
351.7290, 13597.00
352.9310, 13935.00
354.1320, 13955.00
355.3340, 13958.00
356.5350, 13925.00
357.7370, 14128.00
358.9380, 14068.00
360.1390, 14133.00
361.3400, 14012.00
362.5400, 14205.00
363.7410, 14018.00
364.9410, 14072.00
366.1410, 13990.00
367.3410, 13938.00
368.5410, 13972.00
369.7410, 13770.00
370.9400, 13731.00
372.1400, 13663.00
373.3390, 13521.00
374.5380, 13217.00
375.7370, 13074.00
376.9360, 13096.00
378.1350, 12637.00
379.3330, 12523.00
380.5310, 12483.00
381.7300, 12566.00
382.9280, 12583.00
384.1260, 12566.00
385.3230, 12719.00
386.5210, 12777.00
387.7180, 12784.00
388.9160, 12845.00
390.1130, 12893.00
391.3100, 12843.00
392.5060, 12778.00
393.7030, 13199.00
394.9000, 12948.00
396.0960, 13196.00
397.2920, 13217.00
398.4880, 13370.00
399.6840, 13584.00
400.8800, 14022.00
402.0750, 14240.00
403.2710, 14747.00
404.4660, 15112.00
405.6610, 15387.00
406.8560, 16025.00
408.0510, 16451.00
409.2450, 17015.00
410.4400, 17894.00
411.6340, 18724.00
412.8280, 19608.00
414.0220, 20639.00
415.2160, 21299.00
416.4100, 21911.00
417.6030, 22086.00
418.7970, 22611.00
419.9900, 23227.00
421.1830, 23669.00
422.3760, 24340.00
423.5690, 24886.00
424.7610, 24942.00
425.9540, 24918.00
427.1460, 24809.00
428.3380, 24605.00
429.5300, 24056.00
430.7220, 23751.00
431.9140, 23682.00
433.1050, 23897.00
434.2970, 24255.00
435.4880, 25161.00
436.6790, 25727.00
437.8700, 26645.00
439.0610, 27196.00
440.2510, 28354.00
441.4420, 29357.00
442.6320, 29949.00
443.8220, 30295.00
445.0120, 30755.00
446.2020, 30754.00
447.3910, 30651.00
448.5810, 29828.00
449.7700, 29033.00
450.9600, 28071.00
452.1490, 26648.00
453.3370, 25453.00
454.5260, 24457.00
455.7150, 23020.00
456.9030, 22109.00
458.0910, 21143.00
459.2800, 20294.00
460.4670, 19448.00
461.6550, 18726.00
462.8430, 17895.00
464.0300, 17648.00
465.2180, 16946.00
466.4050, 16596.00
467.5920, 16350.00
468.7790, 15971.00
469.9650, 15624.00
471.1520, 15514.00
472.3380, 15219.00
473.5250, 14970.00
474.7110, 14892.00
475.8970, 14573.00
477.0820, 14453.00
478.2680, 14279.00
479.4540, 14185.00
480.6390, 13863.00
481.8240, 14042.00
483.0090, 13839.00
484.1940, 13884.00
485.3780, 13671.00
486.5630, 13734.00
487.7470, 13783.00
488.9320, 13812.00
490.1160, 13780.00
491.3000, 13881.00
492.4830, 13960.00
493.6670, 14043.00
494.8500, 14189.82
496.0340, 14360.00
497.2170, 14526.00
498.4000, 14741.00
499.5820, 14994.00
500.7650, 15246.00
501.9480, 15422.00
503.1300, 15941.00
504.3120, 16277.00
505.4940, 16585.00
506.6760, 17107.00
507.8580, 17580.00
509.0390, 18220.00
510.2210, 18947.00
511.4020, 19553.00
512.5830, 20425.00
513.7640, 21606.00
514.9450, 23128.00
516.1250, 24854.29
517.3060, 26771.00
518.4860, 29261.00
519.6660, 32005.00
520.8460, 35035.00
522.0260, 38464.00
523.2060, 42088.00
524.3850, 45496.00
525.5650, 48402.00
526.7440, 50811.00
527.9230, 53071.00
529.1020, 55014.00
530.2810, 56342.00
531.4590, 57301.00
532.6380, 56816.00
533.8160, 55064.00
534.9940, 51366.00
536.1720, 46821.00
537.3500, 41634.00
538.5270, 36914.00
539.7050, 32776.00
540.8820, 29109.00
542.0590, 26222.00
543.2360, 23982.00
544.4130, 22130.00
545.5900, 20732.00
546.7660, 19445.00
547.9430, 18459.00
549.1190, 17882.00
550.2950, 17222.00
551.4710, 16760.00
552.6470, 16252.00
553.8220, 15980.00
554.9980, 15661.00
556.1730, 15396.00
557.3480, 15190.00
558.5230, 15037.00
559.6980, 14861.00
560.8730, 14622.00
562.0470, 14555.00
563.2220, 14481.00
564.3960, 14373.98
565.5700, 14442.00
566.7440, 14303.00
567.9170, 14280.00
569.0910, 14341.00
570.2640, 14240.00
571.4380, 14284.00
572.6110, 14118.00
573.7840, 14162.06
574.9570, 14055.00
576.1290, 14280.00
577.3020, 14134.00
578.4740, 14369.00
579.6460, 14462.00
580.8180, 14519.00
581.9900, 14485.00
583.1620, 14501.00
584.3330, 14503.00
585.5040, 14725.00
586.6760, 14748.00
587.8470, 14707.00
589.0180, 14826.00
590.1880, 14730.00
591.3590, 14762.00
592.5290, 14709.00
593.7000, 14778.00
594.8700, 14589.00
596.0400, 14887.00
597.2090, 14858.00
598.3790, 14861.00
599.5490, 14700.00
600.7180, 14850.00
601.8870, 14796.00
603.0560, 14703.00
604.2250, 14615.00
605.3940, 14590.98
606.5620, 14509.92
607.7300, 14547.00
608.8990, 14437.00
610.0670, 14427.00
611.2350, 14473.00
612.4020, 14228.00
613.5700, 14305.00
614.7370, 14404.00
615.9050, 14506.00
617.0720, 14609.00
618.2390, 14717.00
619.4060, 14765.00
620.5720, 14920.00
621.7390, 15346.00
622.9050, 15446.00
624.0710, 15832.00
625.2370, 15906.00
626.4030, 15747.00
627.5690, 15518.00
628.7340, 15377.00
629.9000, 14925.00
631.0650, 14669.00
632.2300, 14503.00
633.3950, 14386.00
634.5600, 14312.00
635.7240, 14309.80
636.8890, 14403.00
638.0530, 14485.00
639.2170, 14555.00
640.3810, 14829.00
641.5450, 14928.00
642.7080, 15304.00
643.8720, 15451.00
645.0350, 15646.00
646.1980, 15699.00
647.3610, 15751.00
648.5240, 16011.00
649.6870, 15876.00
650.8490, 16097.00
652.0120, 16166.00
653.1740, 16291.00
654.3360, 16293.00
655.4980, 16193.00
656.6600, 16177.00
657.8210, 16399.00
658.9830, 16699.00
660.1440, 16717.00
661.3050, 16908.43
662.4660, 16904.00
663.6270, 17134.00
664.7870, 16992.00
665.9480, 17142.00
667.1080, 17025.00
668.2680, 16937.00
669.4280, 16885.00
670.5880, 16528.00
671.7480, 16252.00
672.9070, 15807.00
674.0670, 15553.00
675.2260, 15187.00
676.3850, 14938.94
677.5440, 14546.00
678.7030, 14473.00
679.8610, 14281.00
681.0200, 14017.00
682.1780, 14049.00
683.3360, 13885.00
684.4940, 13771.00
685.6520, 13808.00
686.8090, 13864.00
687.9670, 13521.00
689.1240, 13807.00
690.2810, 13796.00
691.4380, 13754.00
692.5950, 13920.00
693.7520, 13851.00
694.9080, 13821.00
696.0650, 13915.00
697.2210, 14024.00
698.3770, 14073.00
699.5330, 14307.00
700.6880, 14379.00
701.8440, 14752.00
702.9990, 15020.00
704.1550, 15289.00
705.3100, 15666.00
706.4650, 15983.00
707.6190, 16223.00
708.7740, 16623.00
709.9290, 16692.00
711.0830, 16886.00
712.2370, 17137.00
713.3910, 17194.00
714.5450, 17033.00
715.6980, 16852.00
716.8520, 16537.00
718.0050, 16254.00
719.1580, 15921.00
720.3110, 15671.00
721.4640, 15319.00
722.6170, 15057.00
723.7700, 15006.00
724.9220, 14931.00
726.0740, 14706.00
727.2260, 14705.00
728.3780, 14569.00
729.5300, 14504.00
730.6810, 14524.00
731.8330, 14621.00
732.9840, 14587.00
734.1350, 14665.60
735.2860, 14653.00
736.4370, 14767.00
737.5880, 14692.00
738.7380, 14720.00
739.8880, 14887.00
741.0390, 14911.00
742.1890, 14987.00
743.3380, 15231.00
744.4880, 15371.00
745.6380, 15439.00
746.7870, 15626.00
747.9360, 15670.00
749.0850, 15790.00
750.2340, 16049.00
751.3830, 16093.00
752.5310, 16135.00
753.6800, 16206.00
754.8280, 16226.08
755.9760, 16259.70
757.1240, 16250.00
758.2720, 16278.00
759.4190, 16224.00
760.5670, 16181.68
761.7140, 15998.00
762.8610, 15932.00
764.0080, 15761.00
765.1550, 15666.00
766.3020, 15490.00
767.4480, 15428.00
768.5950, 15136.00
769.7410, 14983.00
770.8870, 15057.00
772.0330, 14809.00
773.1780, 14755.00
774.3240, 14737.00
775.4690, 14515.00
776.6140, 14576.00
777.7590, 14501.00
778.9040, 14505.00
780.0490, 14357.00
781.1940, 14567.00
782.3380, 14471.00
783.4820, 14510.00
784.6260, 14336.00
785.7700, 14487.00
786.9140, 14365.00
788.0580, 14507.00
789.2010, 14589.00
790.3450, 14514.00
791.4880, 14543.00
792.6310, 14559.00
793.7730, 14418.00
794.9160, 14551.00
796.0590, 14671.00
797.2010, 14472.00
798.3430, 14523.00
799.4850, 14641.00
800.6270, 14686.00
801.7690, 14683.00
802.9100, 14660.00
804.0520, 14635.00
805.1930, 14649.00
806.3340, 14621.00
807.4750, 14822.00
808.6160, 14679.00
809.7560, 14632.00
810.8970, 14783.00
812.0370, 14676.00
813.1770, 14964.00
814.3170, 14801.00
815.4570, 14954.00
816.5960, 14931.00
817.7360, 14884.00
818.8750, 14892.00
820.0140, 14915.00
821.1530, 15064.00
822.2920, 14988.00
823.4310, 15116.00
824.5690, 15082.00
825.7070, 15060.00
826.8460, 15337.00
827.9840, 15132.00
829.1220, 15106.00
830.2590, 15133.00
831.3970, 15393.00
832.5340, 15356.00
833.6710, 15344.00
834.8080, 15356.00
835.9450, 15423.00
837.0820, 15338.00
838.2190, 15618.00
839.3550, 15713.00
840.4910, 15639.00
841.6270, 15685.00
842.7630, 15716.00
843.8990, 15755.61
845.0350, 16001.00
846.1700, 15927.00
847.3060, 16013.00
848.4410, 16153.00
849.5760, 15939.00
850.7100, 16142.00
851.8450, 16230.00
852.9800, 16494.00
854.1140, 16433.00
855.2480, 16833.00
856.3820, 16617.00
857.5160, 16991.00
858.6500, 17205.00
859.7830, 17209.00
860.9170, 17056.00
862.0500, 16975.00
863.1830, 17030.00
864.3160, 16769.00
865.4480, 16664.00
866.5810, 16598.00
867.7130, 16419.00
868.8460, 16330.00
869.9780, 16370.00
871.1100, 16164.00
872.2410, 16273.00
873.3730, 16083.00
874.5050, 16126.00
875.6360, 16187.00
876.7670, 16171.00
877.8980, 16154.00
879.0290, 16181.00
880.1590, 16259.00
881.2900, 15977.00
882.4200, 16051.00
883.5500, 15929.00
884.6800, 16039.00
885.8100, 15984.00
886.9400, 16041.00
888.0690, 15985.00
889.1990, 16053.00
890.3280, 15993.00
891.4570, 16009.00
892.5860, 16015.00
893.7140, 16053.00
894.8430, 16111.00
895.9710, 16227.00
897.1000, 16063.00
898.2280, 16127.00
899.3560, 16054.00
900.4830, 16274.00
901.6110, 16077.00
902.7380, 16228.00
903.8660, 16182.00
904.9930, 16238.00
906.1200, 16023.00
907.2460, 16040.00
908.3730, 16073.00
909.5000, 16135.00
910.6260, 16147.40
911.7520, 16187.00
912.8780, 16152.00
914.0040, 16126.00
915.1290, 16023.00
916.2550, 16023.00
917.3800, 15915.00
918.5050, 16085.00
919.6300, 15923.00
920.7550, 16074.00
921.8800, 16023.00
923.0040, 15914.00
924.1290, 16035.00
925.2530, 15992.00
926.3770, 16192.00
927.5010, 16204.00
928.6250, 16333.00
929.7480, 16420.00
930.8720, 16613.00
931.9950, 16630.95
933.1180, 16718.00
934.2410, 16719.00
935.3640, 16744.95
936.4860, 16696.00
937.6090, 16744.00
938.7310, 16763.00
939.8530, 16721.00
940.9750, 16537.00
942.0970, 16525.00
943.2180, 16435.23
944.3400, 16512.00
945.4610, 16319.00
946.5820, 16359.00
947.7030, 16324.00
948.8240, 16494.00
949.9450, 16523.00
951.0650, 16517.00
952.1860, 16519.00
953.3060, 16671.00
954.4260, 16694.00
955.5460, 16843.00
956.6650, 16746.00
957.7850, 16838.00
958.9040, 16823.00
960.0230, 16802.00
961.1420, 16904.00
962.2610, 16941.00
963.3800, 17153.00
964.4990, 17249.00
965.6170, 17582.00
966.7350, 17834.00
967.8530, 18023.00
968.9710, 18376.00
970.0890, 18999.00
971.2070, 19234.00
972.3240, 19565.00
973.4410, 19944.00
974.5580, 20185.00
975.6750, 20513.00
976.7920, 20569.00
977.9090, 20584.00
979.0250, 20587.00
980.1410, 20076.00
981.2580, 19858.00
982.3740, 19446.00
983.4890, 18970.00
984.6050, 18810.00
985.7200, 18419.00
986.8360, 18262.00
987.9510, 18264.00
989.0660, 18063.00
990.1810, 17818.00
991.2950, 18023.00
992.4100, 18051.00
993.5240, 17992.00
994.6390, 18237.00
995.7530, 18467.00
996.8660, 18751.00
997.9800, 19085.00
999.0940, 19593.00
1000.207, 20088.00
1001.320, 20631.00
1002.433, 20670.00
1003.546, 20086.00
1004.659, 19550.00
1005.772, 19179.00
1006.884, 18843.00
1007.996, 18764.00
1009.108, 18337.00
1010.220, 18104.00
1011.332, 18093.00
1012.444, 17899.00
1013.555, 17901.00
1014.666, 17851.00
1015.777, 17842.00
1016.888, 17817.00
1017.999, 17968.00
1019.110, 18247.00
1020.220, 18404.00
1021.331, 18418.00
1022.441, 18473.00
1023.551, 18653.00
1024.661, 18842.00
1025.770, 19040.00
1026.880, 19114.44
1027.989, 19176.00
1029.098, 19252.00
1030.207, 19312.00
1031.316, 19391.00
1032.425, 19525.00
1033.533, 19814.00
1034.642, 20119.00
1035.750, 20312.00
1036.858, 20617.00
1037.966, 21113.00
1039.073, 21718.00
1040.181, 22243.00
1041.288, 22538.00
1042.396, 22977.00
1043.503, 22955.00
1044.610, 22989.00
1045.716, 22934.00
1046.823, 22537.00
1047.929, 21751.00
1049.036, 21217.00
1050.142, 20866.00
1051.248, 20201.00
1052.353, 19854.00
1053.459, 19509.00
1054.564, 19013.00
1055.670, 19134.00
1056.775, 18869.00
1057.880, 18742.00
1058.985, 18756.00
1060.089, 18749.00
1061.194, 18652.00
1062.298, 18599.00
1063.402, 18579.00
1064.506, 18669.00
1065.610, 18818.00
1066.713, 18882.74
1067.817, 18955.00
1068.920, 19144.00
1070.023, 19265.00
1071.126, 19441.00
1072.229, 19942.00
1073.332, 20009.00
1074.435, 20276.00
1075.537, 20517.00
1076.639, 20633.00
1077.741, 20944.00
1078.843, 21041.00
1079.945, 20993.00
1081.046, 20939.00
1082.148, 20810.39
1083.249, 20615.00
1084.350, 20393.00
1085.451, 20162.00
1086.551, 19867.00
1087.652, 19514.00
1088.752, 19362.00
1089.853, 19379.00
1090.953, 19079.00
1092.053, 18950.00
1093.152, 18722.00
1094.252, 18790.00
1095.351, 18819.00
1096.451, 18608.00
1097.550, 18671.00
1098.649, 18601.00
1099.748, 18555.00
1100.846, 18554.00
1101.945, 18485.00
1103.043, 18570.00
1104.141, 18473.00
1105.239, 18705.00
1106.337, 18763.00
1107.434, 18733.00
1108.532, 18821.00
1109.629, 18826.83
1110.726, 18803.00
1111.823, 18897.00
1112.920, 18809.00
1114.017, 18879.00
1115.113, 18851.00
1116.210, 18857.00
1117.306, 18703.00
1118.402, 18505.00
1119.498, 18433.00
1120.593, 18592.00
1121.689, 18465.00
1122.784, 18475.00
1123.879, 18473.00
1124.974, 18433.00
1126.069, 18558.00
1127.164, 18351.00
1128.259, 18466.00
1129.353, 18387.00
1130.447, 18331.00
1131.541, 18523.00
1132.635, 18424.00
1133.729, 18448.00
1134.822, 18413.00
1135.916, 18175.00
1137.009, 18228.00
1138.102, 18313.00
1139.195, 18188.00
1140.288, 18389.00
1141.380, 18266.00
1142.473, 18388.00
1143.565, 18201.00
1144.657, 18343.00
1145.749, 18206.00
1146.841, 18412.00
1147.932, 18302.00
1149.024, 18193.00
1150.115, 18335.00
1151.206, 18208.00
1152.297, 18302.00
1153.388, 18326.00
1154.479, 18336.00
1155.569, 18328.00
1156.659, 18479.00
1157.750, 18340.00
1158.839, 18336.00
1159.929, 18493.00
1161.019, 18431.00
1162.108, 18526.00
1163.198, 18461.00
1164.287, 18300.00
1165.376, 18504.00
1166.465, 18398.00
1167.553, 18400.00
1168.642, 18688.00
1169.730, 18564.00
1170.818, 18688.00
1171.906, 18631.00
1172.994, 18642.00
1174.082, 18648.00
1175.170, 18751.00
1176.257, 18748.00
1177.344, 18729.23
1178.431, 18760.00
1179.518, 18703.00
1180.605, 18608.00
1181.691, 18710.00
1182.778, 18744.00
1183.864, 18695.00
1184.950, 18541.00
1186.036, 18878.00
1187.122, 18488.00
1188.207, 18861.00
1189.292, 18839.00
1190.378, 18692.00
1191.463, 18727.00
1192.548, 18776.00
1193.632, 18790.00
1194.717, 18652.00
1195.801, 18757.00
1196.886, 18840.00
1197.970, 18817.00
1199.054, 18974.00
1200.137, 18846.00
1201.221, 18856.00
1202.305, 18946.00
1203.388, 18698.00
1204.471, 18834.00
1205.554, 19139.00
1206.637, 18794.00
1207.719, 18699.00
1208.802, 18849.00
1209.884, 19013.00
1210.966, 18852.00
1212.048, 18902.00
1213.130, 19014.00
1214.212, 19037.00
1215.293, 19033.00
1216.374, 19237.00
1217.456, 19340.00
1218.536, 19084.00
1219.617, 18944.00
1220.698, 18944.00
1221.778, 18874.63
1222.859, 19017.00
1223.939, 18934.00
1225.019, 19129.00
1226.099, 19171.00
1227.178, 19113.00
1228.258, 19357.00
1229.337, 19282.00
1230.417, 19386.00
1231.496, 19371.00
1232.574, 19585.00
1233.653, 19595.39
1234.732, 19632.00
1235.810, 19666.00
1236.888, 19581.00
1237.966, 19504.00
1239.044, 19586.00
1240.122, 19441.00
1241.199, 19464.00
1242.277, 19806.00
1243.354, 19513.00
1244.431, 19759.00
1245.508, 19630.00
1246.585, 19783.00
1247.661, 19673.00
1248.738, 19847.00
1249.814, 19938.00
1250.890, 19631.00
1251.966, 19688.00
1253.042, 19875.00
1254.117, 19670.00
1255.193, 19810.00
1256.268, 19636.00
1257.343, 19825.00
1258.418, 19888.00
1259.493, 19964.00
1260.567, 20004.00
1261.642, 20072.19
1262.716, 20064.00
1263.790, 20152.00
1264.864, 20276.00
1265.938, 20243.00
1267.011, 20154.00
1268.085, 20332.00
1269.158, 20284.00
1270.231, 20470.00
1271.304, 20632.00
1272.377, 20645.00
1273.450, 20321.00
1274.522, 20489.00
1275.594, 20458.00
1276.666, 20455.00
1277.738, 20465.00
1278.810, 20251.00
1279.882, 20258.00
1280.953, 20200.00
1282.025, 20338.00
1283.096, 20361.00
1284.167, 20196.00
1285.238, 20108.00
1286.308, 20272.00
1287.379, 20342.00
1288.449, 20272.00
1289.519, 20383.00
1290.589, 20494.00
1291.659, 20644.00
1292.729, 20682.00
1293.798, 20660.00
1294.868, 20373.00
1295.937, 20325.00
1297.006, 20192.00
1298.075, 20023.00
1299.143, 20050.00
1300.212, 20269.00
1301.280, 20325.00
1302.348, 20514.00
1303.416, 20502.00
1304.484, 20604.00
1305.552, 20751.00
1306.620, 20893.00
1307.687, 20976.00
1308.754, 20999.00
1309.821, 20927.00
1310.888, 21088.00
1311.955, 21033.00
1313.021, 20942.00
1314.088, 21196.00
1315.154, 21176.00
1316.220, 21269.00
1317.286, 21308.00
1318.352, 21162.00
1319.417, 21283.00
1320.483, 21215.00
1321.548, 21120.00
1322.613, 20927.00
1323.678, 21086.00
1324.743, 20875.00
1325.807, 20811.00
1326.872, 20637.00
1327.936, 20512.00
1329.000, 20520.00
1330.064, 20425.00
1331.128, 20196.00
1332.191, 20433.00
1333.255, 20499.00
1334.318, 20370.00
1335.381, 20317.00
1336.444, 20130.00
1337.507, 20426.00
1338.569, 20493.00
1339.632, 20329.00
1340.694, 20496.00
1341.756, 20399.00
1342.818, 20341.00
1343.880, 20458.00
1344.941, 20561.00
1346.003, 20507.00
1347.064, 20562.00
1348.125, 20380.00
1349.186, 20389.00
1350.247, 20324.00
1351.308, 20355.00
1352.368, 20461.00
1353.428, 20378.00
1354.489, 20416.00
1355.549, 20427.00
1356.608, 20558.00
1357.668, 20528.00
1358.727, 20530.00
1359.787, 20439.00
1360.846, 20413.00
1361.905, 20464.00
1362.964, 20414.00
1364.022, 20468.00
1365.081, 20489.00
1366.139, 20523.00
1367.197, 20608.85
1368.255, 20689.00
1369.313, 20775.00
1370.371, 20845.00
1371.428, 20906.00
1372.486, 20869.00
1373.543, 20700.00
1374.600, 21071.00
1375.657, 20870.00
1376.713, 20853.00
1377.770, 21126.00
1378.826, 20939.00
1379.882, 20927.00
1380.938, 20983.00
1381.994, 20865.00
1383.050, 20773.00
1384.106, 20949.00
1385.161, 20976.00
1386.216, 20993.00
1387.271, 21042.00
1388.326, 20995.00
1389.381, 20851.00
1390.435, 20831.00
1391.490, 21004.00
1392.544, 20983.00
1393.598, 20773.00
1394.652, 20957.00
1395.705, 20849.00
1396.759, 20735.00
1397.812, 20947.00
1398.866, 20622.00
1399.919, 20771.00
1400.972, 20845.00
1402.024, 20842.00
1403.077, 20979.00
1404.129, 21017.00
1405.181, 21021.50
1406.233, 20777.00
1407.285, 20976.00
1408.337, 20922.00
1409.389, 20807.00
1410.440, 20950.00
1411.491, 20995.00
1412.542, 20926.00
1413.593, 20788.00
1414.644, 21134.00
1415.695, 21032.00
1416.745, 21032.00
1417.795, 21163.00
1418.845, 20951.00
1419.895, 21082.00
1420.945, 21029.00
1421.995, 21020.00
1423.044, 21181.00
1424.093, 21200.00
1425.142, 21292.00
1426.191, 21323.00
1427.240, 21166.00
1428.289, 21324.00
1429.337, 21327.00
1430.385, 21650.00
1431.433, 21618.00
1432.481, 21739.00
1433.529, 21693.00
1434.577, 21910.00
1435.624, 22034.00
1436.672, 22395.00
1437.719, 22280.00
1438.766, 22549.00
1439.812, 22915.00
1440.859, 22938.00
1441.905, 23012.00
1442.952, 23175.00
1443.998, 23371.00
1445.044, 23461.00
1446.090, 23441.00
1447.135, 23477.00
1448.181, 23544.00
1449.226, 23699.00
1450.271, 23734.41
1451.316, 23750.00
1452.361, 23876.00
1453.405, 23871.00
1454.450, 23920.00
1455.494, 23898.15
1456.538, 23848.39
1457.582, 23747.00
1458.626, 23701.00
1459.670, 23506.00
1460.713, 23408.00
1461.757, 23260.00
1462.800, 23186.00
1463.843, 23213.00
1464.886, 22919.00
1465.928, 22875.00
1466.971, 22546.00
1468.013, 22615.00
1469.055, 22649.00
1470.097, 22592.00
1471.139, 22420.00
1472.181, 22442.00
1473.222, 22344.00
1474.263, 22399.00
1475.305, 22406.00
1476.346, 22273.00
1477.386, 22426.00
1478.427, 22408.00
1479.468, 22553.00
1480.508, 22511.00
1481.548, 22485.00
1482.588, 22419.00
1483.628, 22389.00
1484.668, 22208.00
1485.707, 22096.00
1486.747, 21997.00
1487.786, 22064.00
1488.825, 22085.00
1489.864, 22049.34
1490.902, 22043.00
1491.941, 22048.00
1492.979, 21899.00
1494.017, 21928.00
1495.055, 21804.00
1496.093, 21847.00
1497.131, 21734.00
1498.168, 21919.00
1499.206, 21849.00
1500.243, 21822.00
1501.280, 21847.00
1502.317, 21821.00
1503.354, 21687.00
1504.390, 21931.00
1505.426, 21920.00
1506.463, 21756.00
1507.499, 21864.00
1508.535, 21879.00
1509.570, 21866.00
1510.606, 21855.00
1511.641, 21962.00
1512.676, 21795.00
1513.711, 21810.00
1514.746, 22025.00
1515.781, 21852.00
1516.816, 21960.00
1517.850, 22026.00
1518.884, 21920.00
1519.918, 22042.00
1520.952, 22084.00
1521.986, 22061.00
1523.019, 22163.00
1524.053, 22184.00
1525.086, 22112.00
1526.119, 21943.00
1527.152, 22327.00
1528.185, 22286.00
1529.217, 22209.00
1530.250, 22407.00
1531.282, 22440.00
1532.314, 22314.00
1533.346, 22361.00
1534.377, 22146.00
1535.409, 22451.00
1536.440, 22541.00
1537.472, 22605.00
1538.503, 22490.00
1539.534, 22621.00
1540.564, 22493.00
1541.595, 22452.00
1542.625, 22564.00
1543.656, 22548.00
1544.686, 22528.00
1545.716, 22258.00
1546.745, 22587.00
1547.775, 22376.00
1548.804, 22516.00
1549.834, 22748.00
1550.863, 22597.00
1551.892, 22703.00
1552.920, 22795.00
1553.949, 22584.00
1554.977, 22451.00
1556.006, 22490.00
1557.034, 22484.00
1558.062, 22300.00
1559.089, 22682.00
1560.117, 22697.00
1561.144, 22602.00
1562.172, 22622.00
1563.199, 22708.00
1564.226, 22466.00
1565.252, 22671.00
1566.279, 22701.00
1567.305, 22726.00
1568.332, 22614.00
1569.358, 22766.00
1570.384, 22806.00
##END=



