##NAMES=Mesolite
##RRUFFID=R040139
##IDEAL CHEMISTRY=Na_2_Ca_2_(Si_9_Al_6_)O_30_&#183;8H_2_O
##LOCALITY=Lake Superior beach,  41 miles north of Tofte, Minnesota, USA
##OWNER=RRUFF
##SOURCE=University of Arizona Mineral Museum
##DESCRIPTION=Aggregate of white radiating thin acicular crystals.
##STATUS=The identification of this mineral has been confirmed by X-ray diffraction and chemical analysis
##URL=rruff.info/R040139
##MEASURED CHEMISTRY=Na_1.95_Ca_1.89_(Si_9.21_Al_5.82_)O_30_Â·8H_2_O
##PIN_ID=L00551
83.570, 9963.000
84.949, 9982.000
86.327, 10050.000
87.705, 10076.052
89.083, 10370.000
90.461, 10420.000
91.839, 10540.000
93.216, 10860.000
94.593, 11310.000
95.971, 11860.000
97.347, 12220.000
98.724, 12340.000
100.101, 12270.000
101.477, 12350.000
102.854, 12410.000
104.230, 12720.000
105.606, 12930.000
106.982, 13460.000
108.358, 13530.000
109.733, 13650.000
111.108, 13750.000
112.484, 13470.000
113.859, 13720.000
115.233, 13760.000
116.608, 13590.000
117.983, 13080.000
119.357, 12660.000
120.731, 12220.000
122.105, 11610.000
123.479, 11510.000
124.853, 11080.000
126.227, 11320.000
127.600, 11220.000
128.973, 11330.000
130.346, 11720.000
131.719, 12300.000
133.092, 12630.000
134.465, 13020.000
135.837, 13460.000
137.209, 13790.000
138.581, 13850.000
139.953, 14020.000
141.325, 13850.000
142.697, 14430.000
144.068, 15020.000
145.439, 16120.000
146.810, 17520.000
148.181, 19110.000
149.552, 20290.000
150.923, 20500.000
152.293, 20980.000
153.664, 20990.000
155.034, 21630.000
156.404, 22660.000
157.774, 23340.000
159.143, 23590.000
160.513, 23400.000
161.882, 22930.000
163.251, 22030.000
164.620, 21310.000
165.989, 20970.000
167.358, 20660.000
168.726, 20750.000
170.095, 20920.000
171.463, 21040.000
172.831, 20720.000
174.199, 20390.000
175.566, 20070.000
176.934, 18910.000
178.301, 18190.000
179.669, 17020.000
181.036, 16370.000
182.403, 15340.000
183.769, 14740.000
185.136, 14410.000
186.502, 14120.000
187.869, 13950.000
189.235, 13680.000
190.601, 13260.000
191.966, 12360.000
193.332, 11870.000
194.698, 11220.000
196.063, 10740.000
197.428, 10500.000
198.793, 10270.000
200.158, 10160.000
201.522, 9836.000
202.887, 9613.000
204.251, 9355.000
205.615, 9025.000
206.979, 8778.000
208.343, 8394.000
209.707, 8429.000
211.070, 8379.000
212.434, 8324.000
213.797, 8606.000
215.160, 8858.000
216.523, 8640.000
217.885, 8585.000
219.248, 8530.000
220.610, 8650.000
221.973, 8642.000
223.335, 8931.000
224.697, 9443.000
226.058, 10060.000
227.420, 10770.000
228.781, 11140.000
230.143, 11640.000
231.504, 11390.000
232.865, 11130.000
234.225, 10490.000
235.586, 10020.000
236.946, 9501.000
238.307, 9224.000
239.667, 9233.000
241.027, 9156.000
242.387, 9346.000
243.746, 9487.000
245.106, 9668.000
246.465, 9451.000
247.824, 9083.000
249.183, 8710.000
250.542, 8131.000
251.901, 7865.000
253.259, 7525.000
254.618, 7409.000
255.976, 7348.000
257.334, 7469.000
258.692, 7548.000
260.050, 7467.000
261.407, 7526.000
262.765, 7316.000
264.122, 7225.000
265.479, 6989.000
266.836, 6831.000
268.193, 6696.000
269.549, 6545.000
270.906, 6468.000
272.262, 6355.000
273.618, 6339.000
274.974, 6366.000
276.330, 6238.000
277.686, 6413.000
279.041, 6432.000
280.396, 6459.000
281.752, 6603.000
283.107, 6536.000
284.461, 6845.000
285.816, 6831.000
287.171, 7094.000
288.525, 7368.000
289.879, 7672.000
291.233, 8116.000
292.587, 8704.000
293.941, 9360.000
295.294, 9671.000
296.648, 10060.000
298.001, 10100.000
299.354, 9727.000
300.707, 9531.000
302.060, 9243.000
303.412, 9009.261
304.765, 8880.000
306.117, 8578.000
307.469, 8382.000
308.821, 8159.000
310.173, 7880.000
311.525, 7600.000
312.876, 7533.000
314.228, 7333.000
315.579, 7200.000
316.930, 7132.000
318.281, 6959.000
319.631, 6922.000
320.982, 6780.000
322.332, 6714.000
323.683, 6635.000
325.033, 6537.000
326.383, 6715.000
327.732, 6514.000
329.082, 6589.214
330.431, 6839.000
331.781, 6594.000
333.130, 6716.000
334.479, 6678.000
335.827, 6781.000
337.176, 6775.000
338.525, 6770.000
339.873, 6826.000
341.221, 6822.000
342.569, 6854.000
343.917, 6974.000
345.265, 7153.000
346.612, 7201.000
347.960, 7471.000
349.307, 7580.000
350.654, 7846.000
352.001, 7963.000
353.347, 8049.000
354.694, 8023.000
356.040, 7993.000
357.387, 7702.000
358.733, 7665.000
360.079, 7360.000
361.425, 7458.000
362.770, 7367.000
364.116, 7254.000
365.461, 7391.000
366.806, 7319.000
368.151, 7382.000
369.496, 7347.000
370.841, 7386.000
372.185, 7286.000
373.529, 7129.000
374.874, 7111.000
376.218, 6806.000
377.562, 6759.000
378.905, 6771.000
380.249, 6571.000
381.592, 6633.000
382.936, 6464.000
384.279, 6532.000
385.622, 6493.000
386.964, 6607.000
388.307, 6569.000
389.650, 6686.000
390.992, 6745.000
392.334, 6672.000
393.676, 6693.000
395.018, 6700.000
396.360, 6634.000
397.701, 6825.000
399.042, 6804.000
400.384, 6923.000
401.725, 7111.000
403.066, 7202.000
404.406, 7408.000
405.747, 7619.000
407.087, 8041.000
408.428, 8382.000
409.768, 8957.000
411.108, 9613.000
412.447, 10210.000
413.787, 10900.000
415.127, 11290.000
416.466, 11890.000
417.805, 12250.000
419.144, 12582.106
420.483, 12760.000
421.822, 13090.000
423.160, 13310.000
424.499, 13450.000
425.837, 13361.922
427.175, 13490.000
428.513, 12970.000
429.850, 12980.000
431.188, 12790.000
432.526, 12970.000
433.863, 13060.000
435.200, 13500.000
436.537, 14220.000
437.874, 15030.000
439.210, 16200.000
440.547, 17320.000
441.883, 18850.000
443.219, 20340.000
444.555, 21270.000
445.891, 22320.000
447.227, 22490.000
448.563, 22500.000
449.898, 22640.000
451.233, 21830.000
452.568, 21230.000
453.903, 20000.000
455.238, 18980.000
456.573, 17930.000
457.907, 16480.000
459.241, 15010.000
460.576, 13830.000
461.910, 12950.000
463.243, 11870.000
464.577, 11130.000
465.911, 10580.000
467.244, 9902.000
468.577, 9786.000
469.910, 9336.000
471.243, 9074.000
472.576, 9046.000
473.908, 8770.000
475.241, 8744.000
476.573, 8640.000
477.905, 8600.000
479.237, 8595.000
480.569, 8505.000
481.901, 8653.000
483.232, 8686.000
484.564, 8738.000
485.895, 8933.000
487.226, 8973.000
488.557, 9216.000
489.887, 9347.000
491.218, 9617.000
492.548, 9695.000
493.879, 9890.000
495.209, 10200.000
496.539, 10200.000
497.868, 10340.000
499.198, 10350.000
500.528, 10470.000
501.857, 10430.000
503.186, 10390.000
504.515, 10640.000
505.844, 10740.000
507.173, 10900.000
508.501, 11150.000
509.830, 11470.000
511.158, 11901.911
512.486, 12350.000
513.814, 13050.000
515.142, 13860.000
516.469, 14730.000
517.797, 16090.000
519.124, 17330.000
520.451, 19220.000
521.778, 21280.000
523.105, 24080.000
524.432, 28100.000
525.758, 31830.000
527.085, 38080.000
528.411, 43190.000
529.737, 50320.000
531.063, 57200.000
532.388, 59870.000
533.714, 60538.934
535.040, 60490.000
536.365, 54790.000
537.690, 49050.000
539.015, 41060.000
540.340, 35260.000
541.664, 29300.000
542.989, 25190.000
544.313, 21550.000
545.638, 18710.000
546.962, 16890.000
548.285, 15110.000
549.609, 13760.000
550.933, 12930.000
552.256, 11900.000
553.580, 11230.000
554.903, 10760.000
556.226, 10180.000
557.548, 9903.000
558.871, 9495.000
560.194, 9235.000
561.516, 8921.000
562.838, 8833.000
564.160, 8553.000
565.482, 8377.402
566.804, 8287.000
568.125, 8029.000
569.447, 7966.000
570.768, 7837.000
572.089, 7777.000
573.410, 7670.000
574.731, 7430.000
576.052, 7522.000
577.372, 7454.000
578.693, 7323.000
580.013, 7394.000
581.333, 7273.000
582.653, 7296.000
583.972, 7188.000
585.292, 7286.000
586.611, 7136.000
587.931, 7171.000
589.250, 7137.000
590.569, 7085.000
591.888, 7084.000
593.206, 7042.000
594.525, 7003.000
595.843, 6921.000
597.161, 6874.000
598.479, 6959.000
599.797, 6916.000
601.115, 6788.000
602.433, 6882.000
603.750, 6760.000
605.067, 6870.000
606.384, 6868.000
607.701, 6754.000
609.018, 6824.000
610.335, 6789.000
611.651, 6850.000
612.968, 6776.000
614.284, 6690.000
615.600, 6707.000
616.916, 6593.000
618.232, 6617.000
619.547, 6583.000
620.863, 6465.000
622.178, 6543.000
623.493, 6544.000
624.808, 6441.000
626.123, 6571.000
627.438, 6465.000
628.752, 6494.000
630.066, 6440.000
631.381, 6413.000
632.695, 6444.000
634.009, 6430.000
635.322, 6421.000
636.636, 6364.000
637.949, 6450.000
639.263, 6360.000
640.576, 6337.000
641.889, 6421.000
643.202, 6400.000
644.514, 6318.000
645.827, 6411.000
647.139, 6405.000
648.452, 6481.000
649.764, 6499.965
651.076, 6505.000
652.387, 6558.000
653.699, 6531.000
655.010, 6597.000
656.322, 6610.000
657.633, 6696.000
658.944, 6697.000
660.255, 6746.000
661.565, 6879.000
662.876, 6816.000
664.186, 6909.000
665.497, 7030.000
666.807, 7087.000
668.117, 7262.000
669.426, 7292.000
670.736, 7498.000
672.046, 7646.000
673.355, 7730.000
674.664, 7699.000
675.973, 7644.000
677.282, 7604.000
678.591, 7306.000
679.899, 7208.000
681.208, 7090.000
682.516, 6907.000
683.824, 6844.000
685.132, 6702.000
686.440, 6700.000
687.748, 6764.000
689.055, 6466.000
690.362, 6636.000
691.670, 6597.000
692.977, 6695.000
694.284, 6787.000
695.590, 6682.000
696.897, 6884.000
698.203, 6921.000
699.510, 6993.000
700.816, 7104.000
702.122, 7089.000
703.428, 7227.000
704.733, 7318.000
706.039, 7596.000
707.344, 7865.000
708.650, 8059.000
709.955, 8385.000
711.260, 8848.000
712.564, 9335.000
713.869, 9726.000
715.173, 9842.000
716.478, 9882.535
717.782, 9720.000
719.086, 9486.000
720.390, 9113.000
721.694, 8635.000
722.997, 8329.000
724.301, 7931.000
725.604, 7629.000
726.907, 7507.000
728.210, 7209.000
729.513, 7232.000
730.815, 6976.000
732.118, 6906.000
733.420, 6930.000
734.723, 6771.000
736.025, 6797.000
737.327, 6716.000
738.628, 6746.000
739.930, 6647.000
741.231, 6668.000
742.533, 6707.000
743.834, 6728.000
745.135, 6818.000
746.436, 6811.000
747.736, 6852.000
749.037, 6945.000
750.337, 6999.000
751.638, 6980.000
752.938, 7184.000
754.238, 7263.000
755.538, 7321.000
756.837, 7510.000
758.137, 7419.000
759.436, 7389.000
760.735, 7452.000
762.034, 7448.000
763.333, 7397.000
764.632, 7320.000
765.931, 7288.000
767.229, 7070.000
768.527, 7094.000
769.825, 6981.000
771.123, 6836.000
772.421, 6900.000
773.719, 6682.000
775.017, 6690.000
776.314, 6579.000
777.611, 6509.000
778.908, 6542.000
780.205, 6364.000
781.502, 6339.000
782.799, 6341.000
784.095, 6287.000
785.392, 6345.000
786.688, 6229.000
787.984, 6176.000
789.280, 6231.000
790.575, 6225.000
791.871, 6132.000
793.167, 6175.000
794.462, 6059.000
795.757, 6073.000
797.052, 6075.000
798.347, 6023.000
799.642, 6035.000
800.936, 6070.000
802.230, 6069.000
803.525, 6029.000
804.819, 5999.000
806.113, 6045.000
807.407, 5971.000
808.700, 6117.000
809.994, 6062.000
811.287, 6066.000
812.580, 6068.000
813.873, 5996.000
815.166, 6123.000
816.459, 6011.000
817.752, 6047.000
819.044, 6051.000
820.336, 5969.000
821.629, 6138.000
822.921, 6110.000
824.212, 6064.000
825.504, 6100.000
826.796, 6055.000
828.087, 6121.000
829.378, 6119.000
830.670, 6134.000
831.961, 6177.276
833.251, 6124.000
834.542, 6235.000
835.833, 6176.000
837.123, 6181.000
838.413, 6189.000
839.703, 6126.000
840.993, 6214.000
842.283, 6233.000
843.573, 6189.000
844.862, 6168.000
846.151, 6246.000
847.441, 6223.000
848.730, 6258.000
850.018, 6220.000
851.307, 6300.000
852.596, 6285.000
853.884, 6257.000
855.173, 6256.000
856.461, 6249.000
857.749, 6271.000
859.037, 6279.000
860.324, 6279.773
861.612, 6290.000
862.899, 6283.000
864.186, 6315.000
865.474, 6315.000
866.760, 6291.000
868.047, 6370.000
869.334, 6316.000
870.620, 6357.000
871.907, 6233.000
873.193, 6275.000
874.479, 6385.000
875.765, 6320.000
877.051, 6348.000
878.336, 6343.000
879.622, 6282.000
880.907, 6360.000
882.192, 6294.000
883.477, 6271.000
884.762, 6398.000
886.047, 6380.000
887.332, 6390.000
888.616, 6402.000
889.900, 6346.000
891.184, 6433.000
892.468, 6423.000
893.752, 6378.000
895.036, 6440.000
896.320, 6388.000
897.603, 6415.000
898.886, 6368.000
900.169, 6451.000
901.452, 6480.000
902.735, 6474.000
904.018, 6549.000
905.300, 6421.000
906.583, 6476.000
907.865, 6515.000
909.147, 6419.000
910.429, 6486.000
911.711, 6510.000
912.992, 6503.000
914.274, 6554.237
915.555, 6530.258
916.836, 6630.000
918.117, 6547.000
919.398, 6614.000
920.679, 6729.000
921.960, 6630.000
923.240, 6691.000
924.520, 6855.000
925.800, 6964.000
927.080, 6861.000
928.360, 6896.000
929.640, 6934.000
930.920, 7100.000
932.199, 7094.592
933.478, 7282.000
934.757, 7236.000
936.036, 7403.000
937.315, 7627.000
938.594, 7870.000
939.872, 8105.000
941.151, 8456.000
942.429, 8512.000
943.707, 8634.000
944.985, 8644.000
946.263, 8357.000
947.541, 8350.000
948.818, 8014.000
950.096, 7958.000
951.373, 7854.000
952.650, 7839.000
953.927, 7957.000
955.204, 7744.000
956.480, 7813.000
957.757, 7744.000
959.033, 7543.000
960.309, 7626.000
961.585, 7463.000
962.861, 7521.000
964.137, 7525.000
965.412, 7516.000
966.688, 7647.589
967.963, 7766.000
969.238, 7889.000
970.513, 8196.000
971.788, 8314.000
973.063, 8630.000
974.338, 8892.000
975.612, 9073.000
976.886, 9173.776
978.160, 9249.000
979.434, 9200.000
980.708, 9072.000
981.982, 8989.000
983.256, 8866.007
984.529, 8648.000
985.802, 8602.000
987.075, 8468.000
988.348, 8336.000
989.621, 8424.000
990.894, 8337.000
992.166, 8425.000
993.439, 8590.000
994.711, 8611.000
995.983, 8655.000
997.255, 8860.000
998.527, 8946.000
999.799, 9106.000
1001.070, 9301.000
1002.341, 9490.000
1003.613, 9761.000
1004.884, 9823.000
1006.155, 10020.000
1007.425, 10010.000
1008.696, 9757.000
1009.967, 9435.000
1011.237, 9328.000
1012.507, 9093.000
1013.777, 8761.000
1015.047, 8655.000
1016.317, 8561.000
1017.586, 8461.000
1018.856, 8463.000
1020.125, 8512.000
1021.394, 8497.000
1022.663, 8601.000
1023.932, 8642.000
1025.201, 8640.000
1026.470, 8924.000
1027.738, 9074.000
1029.006, 9390.000
1030.275, 9803.000
1031.543, 10090.000
1032.811, 10600.000
1034.078, 11310.000
1035.346, 11720.000
1036.613, 12640.000
1037.881, 12940.000
1039.148, 13410.000
1040.415, 13810.000
1041.682, 13950.000
1042.948, 14030.000
1044.215, 14180.000
1045.481, 14000.000
1046.748, 14120.000
1048.014, 13870.000
1049.280, 13700.000
1050.546, 13610.000
1051.811, 12900.000
1053.077, 12650.000
1054.342, 11990.000
1055.608, 11440.000
1056.873, 11190.000
1058.138, 10600.000
1059.402, 10420.000
1060.667, 10380.000
1061.932, 10100.000
1063.196, 10300.000
1064.460, 10070.000
1065.724, 10080.000
1066.988, 10220.000
1068.252, 10080.000
1069.516, 10240.000
1070.779, 10090.000
1072.043, 10110.000
1073.306, 10270.000
1074.569, 10240.000
1075.832, 10220.000
1077.095, 10410.000
1078.358, 10250.000
1079.620, 10530.000
1080.882, 10540.000
1082.145, 10520.000
1083.407, 10710.000
1084.669, 10670.000
1085.931, 10730.000
1087.192, 10820.000
1088.454, 10730.000
1089.715, 10860.000
1090.976, 10570.000
1092.237, 10500.000
1093.498, 10330.000
1094.759, 10020.000
1096.020, 9976.000
1097.280, 9699.000
1098.541, 9439.000
1099.801, 9362.000
1101.061, 9116.000
1102.321, 8991.000
1103.581, 8884.000
1104.840, 8778.000
1106.100, 8697.000
1107.359, 8871.000
1108.618, 8634.000
1109.877, 8918.000
1111.136, 8822.000
1112.395, 8642.000
1113.654, 8881.000
1114.912, 8694.000
1116.171, 8783.000
1117.429, 8666.000
1118.687, 8514.000
1119.945, 8604.000
1121.202, 8426.000
1122.460, 8376.000
1123.718, 8355.000
1124.975, 8157.000
1126.232, 8186.000
1127.489, 8149.000
1128.746, 8008.000
1130.003, 7959.000
1131.259, 7928.000
1132.516, 7860.000
1133.772, 7834.000
1135.028, 7853.000
1136.285, 7804.000
1137.540, 7751.000
1138.796, 7633.000
1140.052, 7764.000
1141.307, 7628.000
1142.563, 7653.000
1143.818, 7677.000
1145.073, 7561.000
1146.328, 7589.802
1147.583, 7527.000
1148.837, 7550.000
1150.092, 7489.000
1151.346, 7478.000
1152.600, 7499.000
1153.854, 7481.000
1155.108, 7389.000
1156.362, 7503.000
1157.615, 7434.000
1158.869, 7430.000
1160.122, 7540.000
1161.375, 7328.000
1162.629, 7381.000
1163.881, 7456.000
1165.134, 7335.000
1166.387, 7377.000
1167.639, 7339.000
1168.892, 7406.000
1170.144, 7352.000
1171.396, 7296.000
1172.648, 7335.000
1173.900, 7424.000
1175.151, 7241.000
1176.403, 7360.000
1177.654, 7348.000
1178.905, 7347.000
1180.156, 7428.000
1181.407, 7339.000
1182.658, 7424.000
1183.909, 7351.000
1185.159, 7314.000
1186.409, 7361.000
1187.660, 7315.000
1188.910, 7316.000
1190.159, 7428.000
1191.409, 7328.000
1192.659, 7311.000
1193.908, 7453.000
1195.158, 7294.000
1196.407, 7454.000
1197.656, 7380.000
1198.905, 7315.000
1200.154, 7384.000
1201.402, 7360.000
1202.651, 7471.000
1203.899, 7434.000
1205.147, 7350.000
1206.395, 7476.000
1207.643, 7368.000
1208.891, 7383.000
1210.139, 7532.000
1211.386, 7413.000
1212.634, 7415.000
1213.881, 7495.000
1215.128, 7424.000
1216.375, 7424.000
1217.622, 7504.000
1218.868, 7454.000
1220.115, 7482.000
1221.361, 7409.000
1222.607, 7479.000
1223.853, 7399.000
1225.099, 7428.000
1226.345, 7596.000
1227.591, 7504.000
1228.836, 7558.000
1230.082, 7566.000
1231.327, 7503.000
1232.572, 7522.277
1233.817, 7618.000
1235.062, 7457.000
1236.306, 7577.000
1237.551, 7506.000
1238.795, 7555.000
1240.040, 7640.000
1241.284, 7534.000
1242.528, 7604.000
1243.771, 7547.000
1245.015, 7509.000
1246.259, 7571.000
1247.502, 7550.000
1248.745, 7465.000
1249.988, 7630.000
1251.231, 7522.000
1252.474, 7579.000
1253.717, 7595.000
1254.959, 7532.000
1256.202, 7632.000
1257.444, 7556.000
1258.686, 7554.000
1259.928, 7627.000
1261.170, 7630.000
1262.412, 7542.000
1263.653, 7598.000
1264.895, 7576.781
1266.136, 7760.000
1267.377, 7614.000
1268.618, 7616.000
1269.859, 7670.000
1271.100, 7587.000
1272.340, 7594.000
1273.581, 7602.476
1274.821, 7609.000
1276.061, 7627.000
1277.301, 7626.201
1278.541, 7630.000
1279.781, 7633.417
1281.020, 7631.271
1282.260, 7642.000
1283.499, 7646.000
1284.738, 7613.000
1285.977, 7637.000
1287.216, 7575.000
1288.455, 7551.000
1289.694, 7787.000
1290.932, 7608.000
1292.170, 7440.000
1293.409, 7741.000
1294.647, 7596.000
1295.885, 7578.000
1297.122, 7676.000
1298.360, 7599.000
1299.597, 7607.000
1300.835, 7790.000
1302.072, 7468.000
1303.309, 7728.000
1304.546, 7708.000
1305.783, 7749.000
1307.019, 7729.000
1308.256, 7611.000
1309.492, 7847.000
1310.728, 7676.000
1311.965, 7737.000
1313.200, 7783.000
1314.436, 7740.000
1315.672, 7622.000
1316.907, 7915.000
1318.143, 7709.000
1319.378, 7696.000
1320.613, 7917.000
1321.848, 7714.000
1323.083, 7830.000
1324.318, 7825.000
1325.552, 7702.000
1326.787, 8008.000
1328.021, 7810.000
1329.255, 7828.000
1330.489, 7944.000
1331.723, 7851.000
1332.957, 7872.000
1334.190, 7879.000
1335.424, 7849.000
1336.657, 7886.000
1337.890, 7839.000
1339.123, 7788.000
1340.356, 7960.000
1341.589, 7901.000
1342.821, 7868.000
1344.054, 8012.000
1345.286, 7824.000
1346.518, 8077.000
1347.750, 7898.000
1348.982, 7835.000
1350.214, 8266.000
1351.445, 7971.000
1352.677, 7913.000
1353.908, 8072.000
1355.139, 7804.000
1356.370, 8017.000
1357.601, 8053.000
1358.832, 7940.000
1360.063, 7993.000
1361.293, 8125.000
1362.524, 7911.000
1363.754, 8085.000
1364.984, 7930.000
1366.214, 8059.000
1367.444, 8097.000
1368.673, 8004.000
1369.903, 7991.000
1371.132, 8118.000
1372.362, 7975.000
1373.591, 8097.000
1374.820, 8125.000
1376.048, 7997.000
1377.277, 8201.000
1378.506, 8084.000
1379.734, 8150.000
1380.962, 8137.000
1382.191, 8048.000
1383.419, 8087.900
1384.646, 8056.000
1385.874, 8051.000
1387.102, 8171.000
1388.329, 8118.000
1389.556, 8088.000
1390.784, 8195.000
1392.011, 8142.000
1393.238, 8124.000
1394.464, 8242.000
1395.691, 8106.000
1396.917, 8312.000
1398.144, 8205.000
1399.370, 8142.000
1400.596, 8342.000
1401.822, 8230.000
1403.048, 8232.000
1404.273, 8485.000
1405.499, 8259.000
1406.724, 8331.000
1407.949, 8387.000
1409.175, 8143.000
1410.400, 8336.000
1411.624, 8452.000
1412.849, 8172.000
1414.074, 8481.000
1415.298, 8384.000
1416.522, 8315.000
1417.746, 8456.000
1418.970, 8221.000
1420.194, 8343.000
1421.418, 8485.000
1422.642, 8308.000
1423.865, 8466.000
1425.088, 8448.000
1426.311, 8269.000
1427.534, 8505.000
1428.757, 8440.000
1429.980, 8309.000
1431.203, 8591.000
1432.425, 8292.000
1433.647, 8484.000
1434.870, 8606.000
1436.092, 8303.000
1437.314, 8553.000
1438.535, 8456.000
1439.757, 8385.000
1440.979, 8693.000
1442.200, 8505.000
1443.421, 8473.000
1444.642, 8638.000
1445.863, 8417.000
1447.084, 8597.000
1448.305, 8591.000
1449.525, 8448.000
1450.746, 8625.000
1451.966, 8614.000
1453.186, 8514.000
1454.406, 8731.000
1455.626, 8596.000
1456.846, 8481.000
1458.065, 8769.000
1459.285, 8576.000
1460.504, 8704.000
1461.723, 8797.000
1462.942, 8574.000
1464.161, 8730.000
1465.380, 8790.000
1466.599, 8674.000
1467.817, 8795.000
1469.035, 8696.000
1470.254, 8627.000
1471.472, 8960.000
1472.690, 8775.000
1473.907, 8931.000
1475.125, 8912.000
1476.343, 8773.000
1477.560, 8955.000
1478.777, 8890.000
1479.994, 8731.000
1481.211, 9042.000
1482.428, 8910.000
1483.645, 8802.000
1484.861, 9059.000
1486.078, 8904.000
1487.294, 8839.000
1488.510, 9028.000
1489.726, 8807.000
1490.942, 9002.000
1492.158, 9123.000
1493.374, 8927.000
1494.589, 9088.000
1495.804, 8983.000
1497.020, 9018.000
1498.235, 9030.000
1499.450, 9055.000
1500.664, 8953.000
1501.879, 9181.000
1503.094, 8932.000
1504.308, 9082.000
1505.522, 9123.000
1506.736, 8863.000
1507.950, 9090.000
1509.164, 9203.000
1510.378, 8918.000
1511.591, 9206.000
1512.805, 9018.000
1514.018, 8946.000
1515.231, 9238.000
1516.444, 9029.000
1517.657, 8991.000
1518.870, 9309.000
1520.083, 9014.000
1521.295, 9078.000
1522.507, 9301.000
1523.720, 9024.000
1524.932, 9270.000
1526.144, 9159.000
1527.355, 8947.000
1528.567, 9352.000
1529.778, 9067.000
1530.990, 9021.000
1532.201, 9345.000
1533.412, 9104.000
1534.623, 9134.000
1535.834, 9274.000
1537.045, 9180.000
1538.255, 9314.000
1539.466, 9274.000
1540.676, 9036.000
1541.886, 9322.000
##END=



