##NAMES=Mesolite
##RRUFFID=R050013
##IDEAL CHEMISTRY=Na_2_Ca_2_(Si_9_Al_6_)O_30_&#183;8H_2_O
##LOCALITY=Poona, Maharashtra, India
##OWNER=RRUFF
##SOURCE=University of Arizona Mineral Museum
##DESCRIPTION=Clear to white elongated prismatic single crystal
##STATUS=The identification of this mineral has been confirmed by X-ray diffraction and chemical analysis
##URL=rruff.info/R050013
##MEASURED CHEMISTRY=Na_2.00_Ca_2.00_(Si_9.00_Al_6.00_)O_30_Â·8H_2_O
##PIN_ID=M00156
##ORIENTATION=Laser parallel to -a* (-1 0 0). Fiducial mark perpendicular to laser is parallel to b [0 1 0]
113.2080, 17644.00
114.4400, 17714.00
115.6710, 17815.00
116.9030, 17862.00
118.1340, 17930.00
119.3650, 17886.00
120.5960, 17965.00
121.8270, 18111.00
123.0580, 18148.00
124.2880, 18386.00
125.5190, 18537.51
126.7490, 18685.00
127.9790, 18991.00
129.2090, 19232.00
130.4390, 19559.00
131.6680, 19639.00
132.8980, 20047.00
134.1270, 20615.00
135.3560, 21090.00
136.5850, 21868.00
137.8140, 22595.00
139.0430, 23621.00
140.2710, 24764.00
141.5000, 25682.00
142.7280, 26172.00
143.9560, 26174.00
145.1840, 26460.00
146.4120, 26671.00
147.6390, 27269.00
148.8670, 27859.00
150.0940, 28463.00
151.3210, 28613.00
152.5490, 28437.00
153.7750, 28113.00
155.0020, 27912.00
156.2290, 27597.00
157.4550, 27316.00
158.6810, 27338.00
159.9080, 27188.00
161.1340, 27463.00
162.3590, 27383.00
163.5850, 27171.00
164.8110, 26665.00
166.0360, 26488.00
167.2610, 26195.00
168.4860, 25977.00
169.7110, 25581.00
170.9360, 25250.00
172.1610, 24653.00
173.3850, 24068.00
174.6100, 23710.00
175.8340, 23314.00
177.0580, 23215.00
178.2820, 22699.00
179.5050, 22921.00
180.7290, 22563.00
181.9520, 22623.00
183.1760, 22483.00
184.3990, 22155.00
185.6220, 21698.00
186.8450, 21483.00
188.0670, 21362.00
189.2900, 21252.00
190.5120, 20979.00
191.7340, 20935.00
192.9560, 20762.00
194.1780, 20638.00
195.4000, 20223.00
196.6220, 20238.00
197.8430, 19818.00
199.0640, 19701.00
200.2860, 19675.00
201.5070, 19566.00
202.7270, 19717.00
203.9480, 19730.00
205.1690, 19641.00
206.3890, 19982.00
207.6090, 20086.00
208.8290, 20399.00
210.0490, 20541.00
211.2690, 20462.00
212.4890, 20230.00
213.7080, 20032.00
214.9280, 19897.00
216.1470, 19733.89
217.3660, 19613.00
218.5850, 19550.00
219.8030, 19539.00
221.0220, 19594.00
222.2400, 19666.00
223.4590, 19417.00
224.6770, 19168.00
225.8950, 19211.00
227.1120, 19175.00
228.3300, 18735.00
229.5480, 18948.00
230.7650, 18733.00
231.9820, 18788.00
233.1990, 18563.00
234.4160, 18726.00
235.6330, 18747.00
236.8490, 18777.00
238.0660, 18566.00
239.2820, 18651.00
240.4980, 18722.00
241.7140, 18863.00
242.9300, 18765.00
244.1460, 18669.00
245.3610, 18911.00
246.5770, 18973.00
247.7920, 18798.00
249.0070, 19150.00
250.2220, 18982.00
251.4370, 19233.00
252.6510, 19328.00
253.8660, 19349.00
255.0800, 19427.00
256.2940, 19434.29
257.5080, 19477.16
258.7220, 19436.00
259.9360, 19568.00
261.1490, 19575.00
262.3630, 19679.00
263.5760, 19504.00
264.7890, 19523.00
266.0020, 19712.00
267.2150, 19480.00
268.4270, 19343.00
269.6400, 19355.00
270.8520, 19422.00
272.0640, 19497.00
273.2760, 19589.00
274.4880, 19744.00
275.7000, 19514.00
276.9120, 19708.00
278.1230, 19458.00
279.3340, 19574.00
280.5450, 19853.00
281.7560, 19754.00
282.9670, 19802.00
284.1780, 20078.00
285.3880, 20081.00
286.5980, 20265.00
287.8090, 20439.00
289.0190, 20737.00
290.2290, 20527.00
291.4380, 20552.00
292.6480, 20129.00
293.8570, 20215.00
295.0670, 20025.00
296.2760, 20015.00
297.4850, 19973.00
298.6930, 19719.00
299.9020, 19784.00
301.1110, 19600.00
302.3190, 19633.00
303.5270, 19715.00
304.7350, 19751.00
305.9430, 19581.00
307.1510, 19567.00
308.3580, 19550.00
309.5660, 19542.00
310.7730, 19635.00
311.9800, 19666.00
313.1870, 19645.00
314.3940, 19652.00
315.6010, 19786.00
316.8070, 19830.00
318.0130, 19975.00
319.2200, 19889.00
320.4260, 19788.00
321.6310, 19680.00
322.8370, 19838.00
324.0430, 19752.00
325.2480, 19982.00
326.4540, 19961.00
327.6590, 19780.00
328.8640, 20007.00
330.0680, 19932.00
331.2730, 20140.00
332.4780, 19907.00
333.6820, 20214.00
334.8860, 20171.00
336.0900, 20187.00
337.2940, 20343.00
338.4980, 20491.00
339.7010, 20594.00
340.9050, 20734.04
342.1080, 20923.00
343.3110, 20947.00
344.5140, 21058.00
345.7170, 21107.00
346.9200, 21044.00
348.1220, 21082.13
349.3240, 21215.00
350.5270, 21053.00
351.7290, 20914.00
352.9310, 20936.00
354.1320, 20718.00
355.3340, 20557.00
356.5350, 20715.00
357.7370, 20497.00
358.9380, 20685.00
360.1390, 20594.00
361.3400, 20495.00
362.5400, 20735.00
363.7410, 20667.00
364.9410, 20514.00
366.1410, 20551.00
367.3410, 20485.79
368.5410, 20661.00
369.7410, 20519.00
370.9400, 20571.00
372.1400, 20716.00
373.3390, 20639.00
374.5380, 20801.00
375.7370, 20705.00
376.9360, 20665.00
378.1350, 20785.00
379.3330, 20941.00
380.5310, 20796.00
381.7300, 20872.00
382.9280, 20979.00
384.1260, 20928.00
385.3230, 21094.00
386.5210, 21045.00
387.7180, 21241.00
388.9160, 21401.00
390.1130, 21174.00
391.3100, 21324.00
392.5060, 21561.00
393.7030, 21442.00
394.9000, 21624.00
396.0960, 21545.00
397.2920, 21739.00
398.4880, 21648.00
399.6840, 21774.00
400.8800, 21902.00
402.0750, 22005.00
403.2710, 22075.00
404.4660, 22381.00
405.6610, 22507.00
406.8560, 22790.00
408.0510, 22738.00
409.2450, 23012.00
410.4400, 23312.00
411.6340, 23568.00
412.8280, 24033.00
414.0220, 24493.00
415.2160, 24807.00
416.4100, 25198.00
417.6030, 25464.00
418.7970, 25851.00
419.9900, 26110.00
421.1830, 26075.00
422.3760, 26079.00
423.5690, 25682.00
424.7610, 25968.00
425.9540, 25857.00
427.1460, 25773.00
428.3380, 25858.00
429.5300, 26154.00
430.7220, 26210.00
431.9140, 26484.00
433.1050, 26703.00
434.2970, 27064.00
435.4880, 27383.00
436.6790, 27603.00
437.8700, 27681.00
439.0610, 27906.00
440.2510, 28061.00
441.4420, 27928.00
442.6320, 27569.00
443.8220, 27236.00
445.0120, 26984.00
446.2020, 26676.00
447.3910, 26331.19
448.5810, 25988.00
449.7700, 25677.00
450.9600, 25384.86
452.1490, 24994.00
453.3370, 24870.00
454.5260, 24536.00
455.7150, 24341.00
456.9030, 24242.00
458.0910, 24201.00
459.2800, 24097.00
460.4670, 24099.00
461.6550, 24055.00
462.8430, 24091.00
464.0300, 24102.00
465.2180, 24294.00
466.4050, 24321.00
467.5920, 24583.00
468.7790, 24672.00
469.9650, 24743.00
471.1520, 24772.00
472.3380, 25155.00
473.5250, 25303.00
474.7110, 25459.00
475.8970, 25813.00
477.0820, 25812.00
478.2680, 26624.00
479.4540, 26807.00
480.6390, 26941.00
481.8240, 27642.00
483.0090, 27660.00
484.1940, 28346.00
485.3780, 28926.00
486.5630, 29285.00
487.7470, 29274.00
488.9320, 29482.00
490.1160, 29356.00
491.3000, 29329.00
492.4830, 28870.00
493.6670, 28939.00
494.8500, 28662.00
496.0340, 28213.00
497.2170, 28115.00
498.4000, 27976.00
499.5820, 28000.00
500.7650, 27846.00
501.9480, 27818.00
503.1300, 27793.00
504.3120, 27710.00
505.4940, 27819.00
506.6760, 28057.00
507.8580, 28137.00
509.0390, 28494.00
510.2210, 28975.00
511.4020, 29395.00
512.5830, 29969.00
513.7640, 30851.00
514.9450, 31919.00
516.1250, 33047.00
517.3060, 34572.00
518.4860, 37064.00
519.6660, 39550.00
520.8460, 41896.00
522.0260, 45423.00
523.2060, 48639.00
524.3850, 52369.00
525.5650, 55096.00
526.7440, 56827.00
527.9230, 57266.88
529.1020, 57198.00
530.2810, 55103.00
531.4590, 52198.00
532.6380, 48650.00
533.8160, 44781.00
534.9940, 41296.00
536.1720, 38862.00
537.3500, 36042.00
538.5270, 34070.00
539.7050, 32502.00
540.8820, 31051.00
542.0590, 30179.00
543.2360, 29299.00
544.4130, 28622.00
545.5900, 28270.00
546.7660, 27809.00
547.9430, 27576.00
549.1190, 27453.00
550.2950, 27297.00
551.4710, 27013.70
552.6470, 26851.00
553.8220, 26651.92
554.9980, 26469.00
556.1730, 26285.00
557.3480, 26166.00
558.5230, 26000.00
559.6980, 25963.00
560.8730, 26061.00
562.0470, 25879.00
563.2220, 25818.00
564.3960, 25719.00
565.5700, 25537.00
566.7440, 25712.00
567.9170, 25568.00
569.0910, 25691.00
570.2640, 25509.00
571.4380, 25555.00
572.6110, 25416.00
573.7840, 25660.00
574.9570, 25639.00
576.1290, 25615.00
577.3020, 25353.00
578.4740, 25401.00
579.6460, 25543.00
580.8180, 25476.00
581.9900, 25618.00
583.1620, 25709.00
584.3330, 25607.00
585.5040, 25567.00
586.6760, 25819.00
587.8470, 25783.00
589.0180, 25826.00
590.1880, 25766.00
591.3590, 25557.00
592.5290, 25572.00
593.7000, 25654.00
594.8700, 25814.00
596.0400, 25652.00
597.2090, 25685.00
598.3790, 25594.00
599.5490, 25647.91
600.7180, 26058.00
601.8870, 25783.00
603.0560, 25791.00
604.2250, 25818.00
605.3940, 25591.00
606.5620, 25799.00
607.7300, 25944.00
608.8990, 25826.00
610.0670, 26085.00
611.2350, 25854.00
612.4020, 25913.00
613.5700, 26064.00
614.7370, 26102.00
615.9050, 26276.00
617.0720, 26605.00
618.2390, 26631.00
619.4060, 26755.00
620.5720, 26939.00
621.7390, 26973.00
622.9050, 27432.00
624.0710, 27826.00
625.2370, 27883.00
626.4030, 27785.00
627.5690, 27779.00
628.7340, 27969.00
629.9000, 27518.00
631.0650, 27442.00
632.2300, 26896.00
633.3950, 27006.00
634.5600, 26861.00
635.7240, 26856.00
636.8890, 27049.00
638.0530, 27146.00
639.2170, 27248.53
640.3810, 27375.06
641.5450, 27489.00
642.7080, 27616.00
643.8720, 27731.00
645.0350, 27939.00
646.1980, 28131.00
647.3610, 27936.00
648.5240, 28227.00
649.6870, 28322.00
650.8490, 28413.00
652.0120, 28119.00
653.1740, 28220.00
654.3360, 27855.00
655.4980, 28052.00
656.6600, 27734.00
657.8210, 27634.00
658.9830, 27420.00
660.1440, 27386.00
661.3050, 27199.00
662.4660, 26934.00
663.6270, 27012.00
664.7870, 26874.00
665.9480, 27120.00
667.1080, 27050.00
668.2680, 26821.00
669.4280, 26971.00
670.5880, 26850.00
671.7480, 26909.00
672.9070, 26776.00
674.0670, 26801.00
675.2260, 26746.00
676.3850, 26698.54
677.5440, 26931.00
678.7030, 26720.00
679.8610, 26777.00
681.0200, 26985.00
682.1780, 27149.00
683.3360, 27154.00
684.4940, 27178.00
685.6520, 27174.00
686.8090, 27047.00
687.9670, 27145.00
689.1240, 27148.39
690.2810, 27075.00
691.4380, 27309.00
692.5950, 27300.00
693.7520, 27452.00
694.9080, 27444.00
696.0650, 27765.00
697.2210, 27546.00
698.3770, 27602.00
699.5330, 27808.00
700.6880, 28083.00
701.8440, 28161.00
702.9990, 28313.00
704.1550, 28812.00
705.3100, 28853.00
706.4650, 29220.00
707.6190, 29272.00
708.7740, 29366.00
709.9290, 29493.00
711.0830, 29598.00
712.2370, 29523.00
713.3910, 29288.00
714.5450, 28977.00
715.6980, 29004.00
716.8520, 28557.00
718.0050, 28571.00
719.1580, 28609.00
720.3110, 28430.00
721.4640, 28594.00
722.6170, 28346.00
723.7700, 28202.00
724.9220, 28310.00
726.0740, 28246.00
727.2260, 28351.00
728.3780, 28263.00
729.5300, 28411.00
730.6810, 28267.00
731.8330, 28292.00
732.9840, 28422.00
734.1350, 28273.00
735.2860, 28303.00
736.4370, 28361.00
737.5880, 28458.00
738.7380, 28488.74
739.8880, 28463.00
741.0390, 28507.00
742.1890, 28540.00
743.3380, 28554.53
744.4880, 28563.00
745.6380, 28657.00
746.7870, 28696.00
747.9360, 28839.00
749.0850, 28848.00
750.2340, 28917.04
751.3830, 28996.00
752.5310, 28967.00
753.6800, 28879.00
754.8280, 28808.00
755.9760, 29119.00
757.1240, 28932.00
758.2720, 28889.00
759.4190, 29211.00
760.5670, 29137.00
761.7140, 29388.00
762.8610, 29068.00
764.0080, 29119.00
765.1550, 29077.00
766.3020, 29136.00
767.4480, 29156.00
768.5950, 29093.00
769.7410, 29378.00
770.8870, 29122.00
772.0330, 29245.00
773.1780, 29107.00
774.3240, 29176.00
775.4690, 29187.00
776.6140, 29348.00
777.7590, 29273.00
778.9040, 29308.89
780.0490, 29269.00
781.1940, 29308.00
782.3380, 29284.00
783.4820, 29355.00
784.6260, 29358.00
785.7700, 29429.00
786.9140, 29533.00
788.0580, 29403.00
789.2010, 29549.00
790.3450, 29618.00
791.4880, 29637.00
792.6310, 29528.00
793.7730, 29658.00
794.9160, 29848.00
796.0590, 29726.00
797.2010, 29633.00
798.3430, 29788.51
799.4850, 30146.00
800.6270, 29990.00
801.7690, 29955.00
802.9100, 30059.00
804.0520, 29949.00
805.1930, 29883.00
806.3340, 29928.00
807.4750, 30176.00
808.6160, 30122.00
809.7560, 30300.00
810.8970, 30117.00
812.0370, 30217.00
813.1770, 30183.00
814.3170, 30267.00
815.4570, 30059.00
816.5960, 30395.00
817.7360, 30477.00
818.8750, 30104.00
820.0140, 30361.00
821.1530, 30404.00
822.2920, 30613.00
823.4310, 30622.00
824.5690, 30439.00
825.7070, 30362.00
826.8460, 30755.00
827.9840, 30619.00
829.1220, 30806.00
830.2590, 31045.00
831.3970, 30934.00
832.5340, 31011.00
833.6710, 30751.00
834.8080, 31049.00
835.9450, 30814.00
837.0820, 30993.00
838.2190, 31352.00
839.3550, 31347.00
840.4910, 31449.00
841.6270, 31405.00
842.7630, 31523.00
843.8990, 31494.00
845.0350, 31516.00
846.1700, 31812.00
847.3060, 31881.00
848.4410, 31731.00
849.5760, 31790.00
850.7100, 31594.00
851.8450, 31847.00
852.9800, 32209.00
854.1140, 32254.00
855.2480, 32341.00
856.3820, 32447.00
857.5160, 32569.00
858.6500, 32820.00
859.7830, 32919.00
860.9170, 32954.00
862.0500, 33000.34
863.1830, 32832.00
864.3160, 32861.00
865.4480, 32691.00
866.5810, 32460.00
867.7130, 32492.00
868.8460, 32231.00
869.9780, 32253.00
871.1100, 32374.00
872.2410, 32471.00
873.3730, 32447.55
874.5050, 32538.00
875.6360, 32351.00
876.7670, 32329.00
877.8980, 32149.00
879.0290, 32178.00
880.1590, 32453.00
881.2900, 32463.00
882.4200, 32310.00
883.5500, 32336.00
884.6800, 32281.00
885.8100, 32416.00
886.9400, 32393.00
888.0690, 32609.00
889.1990, 32289.00
890.3280, 32456.00
891.4570, 32686.00
892.5860, 32564.00
893.7140, 32788.00
894.8430, 32676.00
895.9710, 32522.00
897.1000, 32775.00
898.2280, 32948.00
899.3560, 32579.00
900.4830, 33011.00
901.6110, 32654.00
902.7380, 32742.00
903.8660, 32766.00
904.9930, 33003.00
906.1200, 32974.00
907.2460, 33117.00
908.3730, 32860.00
909.5000, 32958.00
910.6260, 33085.00
911.7520, 32936.00
912.8780, 33089.00
914.0040, 33111.00
915.1290, 33006.00
916.2550, 33191.00
917.3800, 33187.00
918.5050, 32888.00
919.6300, 33478.00
920.7550, 33235.00
921.8800, 33609.00
923.0040, 33642.00
924.1290, 33572.00
925.2530, 33983.00
926.3770, 33931.00
927.5010, 34403.00
928.6250, 34843.00
929.7480, 34962.00
930.8720, 35460.00
931.9950, 35709.00
933.1180, 36085.00
934.2410, 36171.00
935.3640, 36159.00
936.4860, 35969.00
937.6090, 35702.00
938.7310, 35064.00
939.8530, 34981.00
940.9750, 34592.00
942.0970, 34483.00
943.2180, 34485.00
944.3400, 34080.00
945.4610, 34310.00
946.5820, 33911.00
947.7030, 34397.00
948.8240, 34202.00
949.9450, 34060.00
951.0650, 34317.00
952.1860, 34139.00
953.3060, 34213.00
954.4260, 34408.00
955.5460, 34267.00
956.6650, 34196.00
957.7850, 34390.00
958.9040, 34507.00
960.0230, 34535.00
961.1420, 34818.00
962.2610, 35101.00
963.3800, 35287.00
964.4990, 35396.00
965.6170, 35458.00
966.7350, 35641.00
967.8530, 35723.00
968.9710, 35862.00
970.0890, 36323.00
971.2070, 36599.00
972.3240, 36701.00
973.4410, 36698.00
974.5580, 36614.00
975.6750, 36364.00
976.7920, 35991.00
977.9090, 35565.00
979.0250, 35657.00
980.1410, 35486.00
981.2580, 35201.00
982.3740, 35241.71
983.4890, 35120.00
984.6050, 35087.00
985.7200, 35353.00
986.8360, 35239.00
987.9510, 35089.00
989.0660, 35304.00
990.1810, 35289.99
991.2950, 35610.00
992.4100, 35549.00
993.5240, 35802.00
994.6390, 35956.00
995.7530, 36089.00
996.8660, 36045.00
997.9800, 36309.00
999.0940, 36274.00
1000.207, 36329.00
1001.320, 37053.00
1002.433, 37231.00
1003.546, 36997.00
1004.659, 36425.00
1005.772, 36054.00
1006.884, 35888.00
1007.996, 35643.00
1009.108, 35499.00
1010.220, 35612.00
1011.332, 35492.00
1012.444, 35932.00
1013.555, 35976.00
1014.666, 35971.00
1015.777, 36108.00
1016.888, 36075.00
1017.999, 36560.00
1019.110, 36990.00
1020.220, 36917.00
1021.331, 37291.00
1022.441, 37349.00
1023.551, 37946.00
1024.661, 37964.00
1025.770, 38237.00
1026.880, 38234.00
1027.989, 38660.00
1029.098, 38627.00
1030.207, 39003.00
1031.316, 38859.00
1032.425, 38917.00
1033.533, 39480.00
1034.642, 39700.00
1035.750, 40209.00
1036.858, 41136.00
1037.966, 42001.00
1039.073, 42707.00
1040.181, 43516.00
1041.288, 43763.00
1042.396, 43781.00
1043.503, 43119.00
1044.610, 42276.00
1045.716, 41197.00
1046.823, 40633.00
1047.929, 39937.00
1049.036, 39617.00
1050.142, 38646.00
1051.248, 38673.00
1052.353, 37909.00
1053.459, 37918.00
1054.564, 37510.00
1055.670, 37455.00
1056.775, 37309.00
1057.880, 37418.00
1058.985, 37076.00
1060.089, 37102.00
1061.194, 37078.00
1062.298, 37021.00
1063.402, 37159.00
1064.506, 37276.00
1065.610, 37346.00
1066.713, 37532.00
1067.817, 37841.00
1068.920, 37701.00
1070.023, 37469.00
1071.126, 37714.00
1072.229, 37733.00
1073.332, 37838.00
1074.435, 37894.00
1075.537, 37885.00
1076.639, 37944.00
1077.741, 37998.00
1078.843, 38114.00
1079.945, 38093.00
1081.046, 38024.00
1082.148, 38007.25
1083.249, 37899.26
1084.350, 37895.00
1085.451, 37726.00
1086.551, 37763.00
1087.652, 37787.00
1088.752, 37647.00
1089.853, 37681.00
1090.953, 37799.00
1092.053, 37458.00
1093.152, 37692.00
1094.252, 37696.00
1095.351, 37381.00
1096.451, 37577.00
1097.550, 37561.00
1098.649, 37347.00
1099.748, 37853.00
1100.846, 37486.00
1101.945, 37679.00
1103.043, 37875.00
1104.141, 37860.00
1105.239, 38050.00
1106.337, 37726.00
1107.434, 37844.00
1108.532, 37976.00
1109.629, 37700.00
1110.726, 37991.00
1111.823, 37853.00
1112.920, 37979.00
1114.017, 37977.00
1115.113, 37997.00
1116.210, 37914.00
1117.306, 37803.00
1118.402, 37914.00
1119.498, 37708.00
1120.593, 37938.00
1121.689, 37941.00
1122.784, 37949.00
1123.879, 37775.00
1124.974, 37949.00
1126.069, 37952.00
1127.164, 37667.00
1128.259, 37665.00
1129.353, 37771.00
1130.447, 37864.00
1131.541, 37807.00
1132.635, 38023.00
1133.729, 38128.00
1134.822, 37838.00
1135.916, 37776.00
1137.009, 37944.00
1138.102, 37917.00
1139.195, 37914.00
1140.288, 37837.00
1141.380, 37934.00
1142.473, 37747.00
1143.565, 37890.00
1144.657, 37993.00
1145.749, 38143.00
1146.841, 38041.00
1147.932, 37778.00
1149.024, 37912.00
1150.115, 37978.00
1151.206, 38109.00
1152.297, 38091.98
1153.388, 38143.00
1154.479, 38071.00
1155.569, 38063.00
1156.659, 38121.00
1157.750, 38180.00
1158.839, 38224.00
1159.929, 38079.00
1161.019, 38264.00
1162.108, 38436.00
1163.198, 38274.00
1164.287, 38745.00
1165.376, 38800.00
1166.465, 38411.00
1167.553, 38898.00
1168.642, 38692.00
1169.730, 38855.00
1170.818, 38829.00
1171.906, 38857.00
1172.994, 38960.00
1174.082, 39142.00
1175.170, 38808.00
1176.257, 38791.00
1177.344, 39027.00
1178.431, 38669.00
1179.518, 38690.00
1180.605, 39206.00
1181.691, 38791.00
1182.778, 39114.00
1183.864, 39034.00
1184.950, 39212.00
1186.036, 39227.62
1187.122, 39049.00
1188.207, 39146.00
1189.292, 39265.00
1190.378, 39108.00
1191.463, 39073.00
1192.548, 39165.00
1193.632, 39190.00
1194.717, 39067.00
1195.801, 38924.00
1196.886, 39351.00
1197.970, 39159.00
1199.054, 39426.00
1200.137, 39297.00
1201.221, 39342.00
1202.305, 39526.00
1203.388, 39497.00
1204.471, 39479.00
1205.554, 39465.00
1206.637, 39468.68
1207.719, 39524.00
1208.802, 39531.00
1209.884, 39602.00
1210.966, 39722.00
1212.048, 39767.00
1213.130, 39776.00
1214.212, 39878.00
1215.293, 39714.00
1216.374, 40018.00
1217.456, 39853.00
1218.536, 39555.00
1219.617, 39745.00
1220.698, 39792.00
1221.778, 39685.00
1222.859, 40011.00
1223.939, 39864.00
1225.019, 40064.00
1226.099, 40140.00
1227.178, 39958.00
1228.258, 40051.00
1229.337, 40114.46
1230.417, 40293.00
1231.496, 40309.00
1232.574, 40296.00
1233.653, 40327.00
1234.732, 40396.00
1235.810, 40467.00
1236.888, 40700.00
1237.966, 40428.00
1239.044, 40676.00
1240.122, 40800.00
1241.199, 40615.00
1242.277, 40594.00
1243.354, 40701.00
1244.431, 40812.00
1245.508, 40917.00
1246.585, 40829.00
1247.661, 40968.00
1248.738, 40641.00
1249.814, 40876.00
1250.890, 40827.00
1251.966, 40754.00
1253.042, 40833.00
1254.117, 40961.00
1255.193, 40796.00
1256.268, 40880.00
1257.343, 41096.00
1258.418, 41089.00
1259.493, 40943.00
1260.567, 40967.00
1261.642, 41265.00
1262.716, 40993.00
1263.790, 41484.00
1264.864, 41331.00
1265.938, 41421.00
1267.011, 41448.00
1268.085, 41665.00
1269.158, 41530.00
1270.231, 41389.00
1271.304, 41588.00
1272.377, 41560.00
1273.450, 41666.00
1274.522, 41624.00
1275.594, 41779.00
1276.666, 41820.00
1277.738, 41731.00
1278.810, 41861.00
1279.882, 41719.00
1280.953, 41748.00
1282.025, 41884.00
1283.096, 41638.00
1284.167, 41814.00
1285.238, 41500.00
1286.308, 41962.00
1287.379, 41481.00
1288.449, 41705.00
1289.519, 41773.00
1290.589, 41729.00
1291.659, 41759.00
1292.729, 42260.00
1293.798, 42152.00
1294.868, 42346.00
1295.937, 42105.00
1297.006, 42051.00
1298.075, 42208.00
1299.143, 42106.00
1300.212, 42009.00
1301.280, 42066.00
1302.348, 42022.00
1303.416, 41940.00
1304.484, 42184.00
1305.552, 42086.00
1306.620, 42430.00
1307.687, 42418.00
1308.754, 42596.00
1309.821, 42561.00
1310.888, 42815.00
1311.955, 42508.00
1313.021, 42887.00
1314.088, 42805.00
1315.154, 42947.00
1316.220, 42936.00
1317.286, 42975.00
1318.352, 43084.00
1319.417, 42950.59
1320.483, 43100.00
1321.548, 42731.00
1322.613, 42827.00
1323.678, 42747.00
1324.743, 42841.00
1325.807, 42874.00
1326.872, 42880.00
1327.936, 42773.00
1329.000, 42563.00
1330.064, 42557.00
1331.128, 42332.00
1332.191, 42719.00
1333.255, 42565.00
1334.318, 42517.00
1335.381, 42744.00
1336.444, 42545.00
1337.507, 42828.00
1338.569, 42557.00
1339.632, 42665.00
1340.694, 42658.00
1341.756, 42552.00
1342.818, 42580.00
1343.880, 42540.00
1344.941, 42689.00
1346.003, 42652.00
1347.064, 42547.00
1348.125, 42705.00
1349.186, 42854.00
1350.247, 42990.00
1351.308, 42797.00
1352.368, 42799.00
1353.428, 42950.00
1354.489, 42797.00
1355.549, 42837.00
1356.608, 42932.00
1357.668, 43042.00
1358.727, 42812.00
1359.787, 42868.00
1360.846, 42809.00
1361.905, 42821.00
1362.964, 42937.00
1364.022, 42913.00
1365.081, 43196.00
1366.139, 43339.00
1367.197, 43065.00
1368.255, 42989.00
1369.313, 43231.00
1370.371, 43436.00
1371.428, 43282.00
1372.486, 43161.00
1373.543, 43195.00
1374.600, 43498.00
1375.657, 43566.00
1376.713, 43324.00
1377.770, 43663.00
1378.826, 43432.00
1379.882, 43390.00
1380.938, 43395.00
1381.994, 43602.00
1383.050, 43552.00
1384.106, 43627.00
1385.161, 43642.00
1386.216, 43840.00
1387.271, 43164.00
1388.326, 43855.00
1389.381, 43546.00
1390.435, 43863.00
1391.490, 43837.00
1392.544, 43888.00
1393.598, 43729.00
1394.652, 43689.00
1395.705, 43678.39
1396.759, 43788.00
1397.812, 43628.00
1398.866, 43634.00
1399.919, 43579.00
1400.972, 43591.00
1402.024, 43554.00
1403.077, 43629.48
1404.129, 43682.27
1405.181, 43798.00
1406.233, 43870.00
1407.285, 43938.00
1408.337, 44049.00
1409.389, 43895.00
1410.440, 43825.00
1411.491, 43941.00
1412.542, 44094.00
1413.593, 43999.00
1414.644, 44035.00
1415.695, 43875.00
1416.745, 43981.50
1417.795, 43949.00
1418.845, 44126.00
1419.895, 44202.00
1420.945, 44212.00
1421.995, 44230.00
1423.044, 44492.00
1424.093, 44141.00
1425.142, 44345.00
1426.191, 44613.00
1427.240, 44314.00
1428.289, 44535.00
1429.337, 44480.00
1430.385, 44718.00
1431.433, 44970.00
1432.481, 44951.00
1433.529, 45019.00
1434.577, 45251.00
1435.624, 45394.00
1436.672, 45438.00
1437.719, 45811.00
1438.766, 45860.00
1439.812, 46108.00
1440.859, 46058.00
1441.905, 46406.00
1442.952, 46458.00
1443.998, 46813.00
1445.044, 46441.00
1446.090, 46632.00
1447.135, 46789.00
1448.181, 46982.00
1449.226, 46953.00
1450.271, 46865.00
1451.316, 47063.00
1452.361, 47506.00
1453.405, 47167.00
1454.450, 47284.00
1455.494, 47240.00
1456.538, 47164.00
1457.582, 47211.00
1458.626, 47003.00
1459.670, 46818.00
1460.713, 46951.00
1461.757, 46868.00
1462.800, 46711.00
1463.843, 46570.00
1464.886, 46555.00
1465.928, 46322.00
1466.971, 46289.00
1468.013, 46479.00
1469.055, 46120.00
1470.097, 46313.00
1471.139, 46108.00
1472.181, 46056.00
1473.222, 45964.00
1474.263, 46136.00
1475.305, 45944.00
1476.346, 46413.00
1477.386, 46159.00
1478.427, 46066.00
1479.468, 46474.00
1480.508, 46037.00
1481.548, 46042.00
1482.588, 46046.00
1483.628, 46072.00
1484.668, 46076.00
1485.707, 46038.28
1486.747, 45965.00
1487.786, 45983.00
1488.825, 45943.00
1489.864, 45997.00
1490.902, 45956.00
1491.941, 45961.00
1492.979, 45831.00
1494.017, 45857.00
1495.055, 45847.00
1496.093, 45969.00
1497.131, 45970.00
1498.168, 46049.38
1499.206, 46221.00
1500.243, 46204.00
1501.280, 46220.00
1502.317, 46310.00
1503.354, 45837.00
1504.390, 46167.00
1505.426, 46006.00
1506.463, 46028.00
1507.499, 46378.00
1508.535, 46276.00
1509.570, 46099.00
1510.606, 46443.00
1511.641, 46291.00
1512.676, 46317.00
1513.711, 46266.00
1514.746, 46308.00
1515.781, 46244.00
1516.816, 46212.00
1517.850, 46240.00
1518.884, 46233.00
1519.918, 46346.28
1520.952, 46540.00
1521.986, 46599.00
1523.019, 46613.00
1524.053, 46709.00
1525.086, 46584.00
1526.119, 46711.00
1527.152, 47009.00
1528.185, 46792.00
1529.217, 46995.00
1530.250, 46930.00
1531.282, 46649.00
1532.314, 47014.00
1533.346, 46956.00
1534.377, 47090.00
1535.409, 46801.00
1536.440, 46817.00
1537.472, 47059.00
1538.503, 47277.00
1539.534, 47080.00
1540.564, 47010.00
1541.595, 47018.00
1542.625, 47290.00
1543.656, 47117.00
1544.686, 47070.00
1545.716, 47504.00
1546.745, 47612.00
1547.775, 47124.00
1548.804, 47349.00
1549.834, 47508.00
1550.863, 47551.00
1551.892, 47584.83
1552.920, 47730.00
1553.949, 47467.00
1554.977, 47424.00
1556.006, 47314.00
1557.034, 47500.00
1558.062, 47439.00
1559.089, 47772.00
1560.117, 47375.00
1561.144, 47556.00
1562.172, 47976.00
1563.199, 47568.00
1564.226, 47549.00
1565.252, 47703.00
1566.279, 47598.00
1567.305, 47697.00
1568.332, 47761.00
1569.358, 47608.00
1570.384, 47869.00
##END=



