##NAMES=Metatorbernite
##RRUFFID=R070686
##IDEAL CHEMISTRY=Cu^2+^(U^6+^O_2_)_2_(PO_4_)_2_&#183;8H_2_O
##LOCALITY=Fichtelgebirge, Franconia, Bavaria, Germany
##OWNER=RRUFF
##SOURCE=Michael Scott
##DESCRIPTION=Green tabular crystals
##STATUS=The identification of this mineral has been confirmed by X-ray diffraction.
##URL=rruff.info/R070686
##PIN_ID=M00978
##ORIENTATION=Laser parallel to -a* (-1 0 0). Fiducial mark perpendicular to laser is parallel to c [0 0 1]
170.7050, 9446.000
171.9380, 9561.000
173.1700, 9588.000
174.4030, 9790.000
175.6350, 9832.000
176.8680, 9939.000
178.1000, 10160.00
179.3310, 10416.00
180.5630, 10636.93
181.7940, 10731.00
183.0260, 11195.00
184.2570, 11518.00
185.4870, 11832.00
186.7180, 12524.00
187.9480, 12767.00
189.1790, 13303.00
190.4090, 13669.00
191.6390, 14129.00
192.8680, 14540.00
194.0980, 14730.00
195.3270, 14500.00
196.5560, 14094.00
197.7850, 13634.00
199.0140, 13034.00
200.2420, 12431.00
201.4710, 11973.00
202.6990, 11562.00
203.9270, 11400.00
205.1550, 11196.00
206.3820, 11083.00
207.6090, 10921.00
208.8370, 10908.00
210.0640, 10870.00
211.2900, 10921.00
212.5170, 10913.00
213.7440, 10929.00
214.9700, 10963.00
216.1960, 10979.96
217.4220, 11010.00
218.6470, 11065.00
219.8730, 11065.00
221.0980, 11151.00
222.3230, 11047.00
223.5480, 11072.00
224.7730, 11054.00
225.9970, 11160.00
227.2220, 11088.00
228.4460, 11210.00
229.6700, 11117.00
230.8940, 10942.00
232.1170, 11130.00
233.3400, 11130.00
234.5640, 10989.00
235.7870, 10948.00
237.0100, 10985.00
238.2320, 11059.00
239.4550, 11066.00
240.6770, 11098.00
241.8990, 11168.00
243.1210, 11264.00
244.3420, 11218.00
245.5640, 11230.00
246.7850, 11089.00
248.0060, 11273.00
249.2270, 11225.00
250.4480, 11266.00
251.6690, 11386.00
252.8890, 11344.00
254.1090, 11441.00
255.3290, 11329.00
256.5490, 11239.00
257.7680, 11471.00
258.9880, 11394.00
260.2070, 11344.00
261.4260, 11396.00
262.6450, 11603.00
263.8640, 11644.00
265.0820, 11601.00
266.3000, 11507.00
267.5180, 11570.00
268.7360, 11663.00
269.9540, 11660.00
271.1720, 11692.00
272.3890, 11747.27
273.6060, 11875.00
274.8230, 11834.00
276.0400, 11885.00
277.2560, 11928.00
278.4730, 12098.00
279.6890, 12125.00
280.9050, 12273.00
282.1210, 12234.00
283.3370, 12366.00
284.5520, 12420.00
285.7670, 12259.00
286.9820, 12477.00
288.1970, 12394.00
289.4120, 12354.00
290.6270, 12483.00
291.8410, 12304.00
293.0550, 12365.00
294.2690, 12473.00
295.4830, 12478.00
296.6970, 12395.00
297.9100, 12332.00
299.1230, 12404.00
300.3360, 12532.00
301.5490, 12486.00
302.7620, 12504.00
303.9740, 12506.00
305.1860, 12537.00
306.3990, 12483.00
307.6110, 12460.00
308.8220, 12555.00
310.0340, 12524.00
311.2450, 12559.00
312.4560, 12554.00
313.6670, 12537.00
314.8780, 12480.00
316.0890, 12570.00
317.2990, 12438.00
318.5090, 12637.00
319.7200, 12486.00
320.9290, 12647.00
322.1390, 12665.00
323.3490, 12652.00
324.5580, 12658.00
325.7670, 12626.00
326.9760, 12614.00
328.1850, 12551.00
329.3930, 12600.50
330.6020, 12747.00
331.8100, 12677.00
333.0180, 12746.00
334.2260, 12757.00
335.4340, 12786.00
336.6410, 12782.41
337.8480, 12792.62
339.0550, 12783.00
340.2620, 12799.00
341.4690, 12881.00
342.6760, 12897.00
343.8820, 12970.00
345.0880, 13115.00
346.2940, 12984.00
347.5000, 13072.00
348.7060, 12939.00
349.9110, 13199.00
351.1160, 13093.00
352.3210, 12968.00
353.5260, 13185.00
354.7310, 13081.00
355.9360, 13245.00
357.1400, 13235.00
358.3440, 13288.00
359.5480, 13376.00
360.7520, 13445.00
361.9550, 13295.00
363.1590, 13269.00
364.3620, 13280.00
365.5650, 13288.00
366.7680, 13344.00
367.9710, 13539.00
369.1730, 13447.00
370.3760, 13541.00
371.5780, 13596.00
372.7800, 13515.00
373.9810, 13631.00
375.1830, 13575.00
376.3840, 13622.00
377.5860, 13698.00
378.7870, 13633.00
379.9880, 13718.00
381.1880, 13933.00
382.3890, 13658.00
383.5890, 13845.00
384.7890, 13680.00
385.9890, 13771.00
387.1890, 13885.00
388.3880, 13832.00
389.5880, 14112.00
390.7870, 13918.00
391.9860, 14138.00
393.1850, 13964.00
394.3840, 14175.00
395.5820, 14172.00
396.7800, 14348.00
397.9790, 14540.00
399.1770, 14558.00
400.3740, 14657.00
401.5720, 14879.00
402.7690, 14940.00
403.9670, 14861.00
405.1640, 14916.00
406.3600, 14919.26
407.5570, 15043.00
408.7540, 14918.00
409.9500, 14845.00
411.1460, 14763.00
412.3420, 14608.00
413.5380, 14652.00
414.7330, 14630.00
415.9290, 14582.00
417.1240, 14693.00
418.3190, 14447.00
419.5140, 14291.00
420.7090, 14442.00
421.9030, 14386.00
423.0970, 14657.00
424.2920, 14554.00
425.4860, 14641.00
426.6790, 14547.00
427.8730, 14459.00
429.0660, 14778.00
430.2600, 14788.00
431.4530, 14795.00
432.6460, 14732.00
433.8380, 14603.00
435.0310, 14822.00
436.2230, 14877.00
437.4150, 14766.00
438.6070, 14919.00
439.7990, 15032.00
440.9910, 14944.00
442.1820, 14940.00
443.3730, 14907.00
444.5640, 14922.00
445.7550, 14901.00
446.9460, 14879.82
448.1370, 14820.00
449.3270, 14827.00
450.5170, 14777.00
451.7070, 14734.00
452.8970, 14713.00
454.0870, 14722.00
455.2760, 14685.00
456.4650, 14752.00
457.6550, 14577.00
458.8430, 14640.00
460.0320, 14658.00
461.2210, 14549.00
462.4090, 14839.00
463.5970, 14658.00
464.7850, 14601.00
465.9730, 14732.00
467.1610, 14571.00
468.3480, 14458.00
469.5360, 14645.00
470.7230, 14717.00
471.9100, 14620.00
473.0970, 14747.00
474.2830, 14766.00
475.4700, 14557.00
476.6560, 14467.00
477.8420, 14712.00
479.0280, 14698.00
480.2140, 14661.00
481.3990, 14578.00
482.5850, 14612.00
483.7700, 14450.00
484.9550, 14424.00
486.1400, 14682.00
487.3240, 14528.00
488.5090, 14545.00
489.6930, 14628.00
490.8770, 14546.00
492.0610, 14464.00
493.2450, 14576.00
494.4290, 14623.00
495.6120, 14624.00
496.7950, 14673.52
497.9780, 14655.00
499.1610, 14688.00
500.3440, 14682.00
501.5260, 14671.00
502.7090, 14576.00
503.8910, 14711.00
505.0730, 14660.00
506.2550, 14647.00
507.4360, 14730.00
508.6180, 14728.00
509.7990, 14452.00
510.9800, 14708.00
512.1610, 14613.00
513.3420, 14788.00
514.5230, 14695.00
515.7030, 14619.00
516.8830, 14553.00
518.0630, 14692.00
519.2430, 14736.00
520.4230, 14665.00
521.6020, 14733.00
522.7820, 14684.00
523.9610, 14775.00
525.1400, 14688.00
526.3190, 14865.00
527.4970, 14611.00
528.6760, 14596.00
529.8540, 14686.00
531.0320, 14874.00
532.2100, 14779.00
533.3880, 14661.00
534.5660, 14851.00
535.7430, 14895.00
536.9200, 14785.00
538.0970, 14865.00
539.2740, 14822.00
540.4510, 14758.00
541.6270, 14780.00
542.8040, 14835.00
543.9800, 14795.84
545.1560, 14838.00
546.3320, 14788.00
547.5080, 14796.00
548.6830, 14802.28
549.8580, 14771.00
551.0340, 14895.00
552.2090, 14858.00
553.3830, 14882.00
554.5580, 15017.00
555.7320, 14965.00
556.9070, 14805.00
558.0810, 14958.00
559.2550, 14902.00
560.4280, 14765.00
561.6020, 14958.00
562.7750, 14856.00
563.9490, 14884.00
565.1220, 14789.00
566.2950, 14952.00
567.4670, 14842.00
568.6400, 14971.00
569.8120, 14891.00
570.9840, 14862.00
572.1560, 14799.00
573.3280, 14823.48
574.5000, 14871.00
575.6710, 14922.00
576.8430, 14929.00
578.0140, 15034.00
579.1850, 14913.00
580.3560, 14921.00
581.5260, 14915.00
582.6970, 14971.00
583.8670, 14975.00
585.0370, 15081.00
586.2070, 15049.00
587.3770, 15115.00
588.5460, 14876.00
589.7160, 15072.00
590.8850, 14969.00
592.0540, 14966.00
593.2230, 15086.00
594.3920, 15090.00
595.5600, 15165.00
596.7290, 15159.00
597.8970, 15177.00
599.0650, 15086.00
600.2330, 15232.00
601.4000, 15309.00
602.5680, 15158.00
603.7350, 15300.00
604.9020, 15146.00
606.0690, 15152.00
607.2360, 15092.00
608.4030, 15103.40
609.5690, 15330.00
610.7360, 15204.00
611.9020, 15315.00
613.0680, 15411.00
614.2340, 15355.00
615.3990, 15413.57
616.5650, 15275.00
617.7300, 15391.00
618.8950, 15359.00
620.0600, 15329.00
621.2250, 15446.00
622.3890, 15435.00
623.5540, 15405.00
624.7180, 15517.00
625.8820, 15431.00
627.0460, 15461.00
628.2100, 15658.00
629.3730, 15399.00
630.5370, 15397.00
631.7000, 15475.00
632.8630, 15533.00
634.0260, 15578.00
635.1890, 15519.00
636.3510, 15517.00
637.5140, 15617.00
638.6760, 15564.00
639.8380, 15599.00
641.0000, 15538.00
642.1610, 15578.00
643.3230, 15484.00
644.4840, 15658.00
645.6450, 15561.00
646.8060, 15512.00
647.9670, 15669.00
649.1280, 15588.00
650.2880, 15548.00
651.4490, 15667.00
652.6090, 15677.00
653.7690, 15821.00
654.9290, 15695.00
656.0880, 15674.00
657.2480, 15780.00
658.4070, 15749.00
659.5660, 15605.00
660.7250, 15690.00
661.8840, 15701.00
663.0430, 15810.00
664.2010, 15703.00
665.3600, 15721.00
666.5180, 15750.00
667.6760, 15815.00
668.8330, 15923.00
669.9910, 15903.00
671.1480, 15817.00
672.3060, 15762.00
673.4630, 15857.00
674.6200, 15813.00
675.7770, 15768.00
676.9330, 16045.00
678.0900, 15828.00
679.2460, 15944.00
680.4020, 15785.00
681.5580, 15966.00
682.7140, 15876.00
683.8690, 15887.00
685.0250, 16016.00
686.1800, 15967.00
687.3350, 15914.00
688.4900, 16166.00
689.6450, 16046.00
690.7990, 16160.00
691.9540, 15979.00
693.1080, 16062.00
694.2620, 15919.00
695.4160, 16026.00
696.5700, 16220.00
697.7230, 16271.00
698.8770, 16055.00
700.0300, 16078.00
701.1830, 16133.00
702.3360, 16173.00
703.4890, 16051.00
704.6410, 16248.00
705.7930, 16373.00
706.9460, 16107.00
708.0980, 16355.00
709.2500, 16230.00
710.4010, 16157.00
711.5530, 16283.00
712.7040, 16193.00
713.8560, 16282.00
715.0070, 16447.00
716.1580, 16270.00
717.3080, 16291.00
718.4590, 16430.00
719.6090, 16362.00
720.7590, 16306.00
721.9090, 16267.00
723.0590, 16365.00
724.2090, 16374.00
725.3590, 16416.00
726.5080, 16479.00
727.6570, 16532.00
728.8060, 16581.00
729.9550, 16558.04
731.1040, 16516.00
732.2530, 16492.00
733.4010, 16482.00
734.5490, 16470.00
735.6970, 16587.00
736.8450, 16607.00
737.9930, 16637.00
739.1400, 16668.00
740.2880, 16451.00
741.4350, 16599.00
742.5820, 16620.00
743.7290, 16509.00
744.8760, 16710.00
746.0220, 16518.00
747.1690, 16624.00
748.3150, 16487.00
749.4610, 16767.00
750.6070, 16796.00
751.7530, 16695.00
752.8980, 16770.00
754.0440, 16848.00
755.1890, 16743.00
756.3340, 16805.00
757.4790, 16864.00
758.6240, 16933.00
759.7680, 17002.00
760.9130, 16758.00
762.0570, 16802.00
763.2010, 16849.00
764.3450, 17045.00
765.4890, 16869.00
766.6320, 17136.00
767.7760, 17061.00
768.9190, 17071.00
770.0620, 17054.00
771.2050, 16937.00
772.3480, 16993.00
773.4900, 17023.00
774.6330, 16930.00
775.7750, 17083.00
776.9170, 17014.00
778.0590, 17155.00
779.2010, 17045.00
780.3420, 17099.00
781.4840, 17021.00
782.6250, 17240.00
783.7660, 17318.00
784.9070, 17358.00
786.0480, 17438.67
787.1890, 17302.00
788.3290, 17457.00
789.4690, 17442.00
790.6100, 17402.00
791.7490, 17490.00
792.8890, 17628.00
794.0290, 17502.00
795.1680, 17665.00
796.3080, 17763.00
797.4470, 17711.00
798.5860, 18074.00
799.7250, 17937.00
800.8630, 18017.00
802.0020, 18132.00
803.1400, 18174.00
804.2780, 18454.00
805.4160, 18463.00
806.5540, 18463.00
807.6920, 18699.00
808.8300, 18897.00
809.9670, 18971.00
811.1040, 19180.00
812.2410, 19495.00
813.3780, 19877.00
814.5150, 20424.00
815.6510, 20911.00
816.7880, 21905.00
817.9240, 23199.00
819.0600, 25065.00
820.1960, 26952.00
821.3320, 29272.00
822.4670, 31925.00
823.6030, 34699.00
824.7380, 37658.00
825.8730, 39881.00
827.0080, 40131.00
828.1430, 38502.00
829.2770, 35017.00
830.4120, 31457.00
831.5460, 27899.00
832.6800, 25236.00
833.8140, 23283.00
834.9480, 22067.00
836.0810, 21286.00
837.2150, 20721.00
838.3480, 20359.00
839.4810, 19962.00
840.6140, 19946.00
841.7470, 19617.00
842.8800, 19295.00
844.0120, 19196.00
845.1450, 18871.00
846.2770, 18949.00
847.4090, 18659.00
848.5410, 18636.00
849.6720, 18440.00
850.8040, 18604.00
851.9350, 18458.00
853.0660, 18467.00
854.1970, 18416.00
855.3280, 18313.00
856.4590, 18279.00
857.5900, 18304.00
858.7200, 18115.00
859.8500, 18243.00
860.9800, 18320.00
862.1100, 18282.00
863.2400, 18249.00
864.3700, 18209.00
865.4990, 18345.00
866.6280, 18450.00
867.7570, 18385.00
868.8860, 18514.00
870.0150, 18195.00
871.1440, 18238.00
872.2720, 18176.00
873.4010, 18354.00
874.5290, 18355.00
875.6570, 18330.00
876.7850, 18588.00
877.9120, 18487.00
879.0400, 18405.00
880.1670, 18572.00
881.2940, 18508.00
882.4210, 18586.00
883.5480, 18519.00
884.6750, 18742.00
885.8020, 18523.00
886.9280, 18761.00
888.0540, 18572.00
889.1800, 18811.00
890.3060, 18712.00
891.4320, 18765.00
892.5580, 18801.00
893.6830, 18946.00
894.8080, 18938.72
895.9330, 18948.00
897.0580, 19036.00
898.1830, 19010.00
899.3080, 19169.00
900.4320, 19000.00
901.5570, 19003.00
902.6810, 19182.00
903.8050, 19161.00
904.9290, 19226.00
906.0520, 19273.00
907.1760, 19072.00
908.2990, 19122.00
909.4230, 19106.00
910.5460, 19067.00
911.6690, 19120.00
912.7910, 18944.00
913.9140, 19199.00
915.0360, 19218.00
916.1590, 19232.00
917.2810, 19072.00
918.4030, 19076.00
919.5240, 19096.00
920.6460, 19121.00
921.7680, 19104.00
922.8890, 19154.00
924.0100, 19150.91
925.1310, 19176.87
926.2520, 19132.00
927.3730, 19254.00
928.4930, 19173.00
929.6130, 19258.00
930.7340, 19256.00
931.8540, 19179.00
932.9740, 19228.00
934.0930, 19305.00
935.2130, 19139.00
936.3320, 19271.00
937.4520, 19367.00
938.5710, 19476.00
939.6900, 19417.00
940.8090, 19347.00
941.9270, 19360.00
943.0460, 19307.00
944.1640, 19324.00
945.2820, 19323.00
946.4000, 19451.00
947.5180, 19227.00
948.6360, 19411.00
949.7530, 19348.00
950.8710, 19537.00
951.9880, 19571.00
953.1050, 19645.00
954.2220, 19723.00
955.3390, 19631.00
956.4550, 19778.00
957.5720, 19672.00
958.6880, 19668.00
959.8040, 19826.00
960.9200, 19896.00
962.0360, 20125.00
963.1520, 20072.00
964.2670, 19985.00
965.3820, 20188.00
966.4980, 20063.00
967.6130, 20060.00
968.7280, 20349.00
969.8420, 20306.00
970.9570, 20343.00
972.0710, 20585.00
973.1850, 20678.00
974.3000, 20845.00
975.4140, 21093.00
976.5270, 21168.00
977.6410, 21435.00
978.7540, 21839.00
979.8680, 22443.00
980.9810, 22901.00
982.0940, 23630.00
983.2070, 24259.00
984.3200, 25394.00
985.4320, 26196.00
986.5440, 27230.00
987.6570, 27804.00
988.7690, 28381.00
989.8810, 28966.00
990.9920, 28745.00
992.1040, 28517.00
993.2160, 28499.00
994.3270, 28420.00
995.4380, 28221.00
996.5490, 27765.89
997.6600, 27122.00
998.7710, 26480.00
999.8810, 25715.00
1000.991, 25031.87
1002.102, 24168.00
1003.212, 23631.00
1004.322, 23017.00
1005.431, 22467.00
1006.541, 22229.00
1007.651, 21990.00
1008.760, 21608.00
1009.869, 21502.00
1010.978, 21508.00
1012.087, 21229.00
1013.195, 21088.00
1014.304, 20860.00
1015.412, 20908.00
1016.521, 20938.00
1017.629, 20839.00
1018.737, 20703.00
1019.844, 20765.00
1020.952, 20631.00
1022.059, 20884.00
1023.167, 20894.00
1024.274, 20879.00
1025.381, 20727.00
1026.488, 20906.00
1027.594, 21039.00
1028.701, 20875.00
1029.807, 20949.00
1030.913, 20852.00
1032.019, 20870.00
1033.125, 20862.00
1034.231, 20930.00
1035.337, 21014.00
1036.442, 21050.00
1037.548, 21095.00
1038.653, 20986.00
1039.758, 20931.00
1040.863, 20855.00
1041.967, 21013.00
1043.072, 20819.00
1044.176, 21049.00
1045.280, 21125.00
1046.384, 21078.00
1047.488, 21092.00
1048.592, 21245.00
1049.696, 21180.00
1050.799, 21232.00
1051.903, 21254.00
1053.006, 21347.00
1054.109, 21387.22
1055.212, 21256.00
1056.314, 21437.00
1057.417, 21394.00
1058.519, 21265.00
1059.621, 21274.00
1060.724, 21555.00
1061.826, 21433.00
1062.927, 21538.00
1064.029, 21353.00
1065.130, 21433.00
1066.232, 21556.00
1067.333, 21474.00
1068.434, 21503.00
1069.535, 21502.00
1070.636, 21425.00
1071.736, 21623.00
1072.837, 21500.00
1073.937, 21584.00
1075.037, 21597.00
1076.137, 21697.00
1077.237, 21815.00
1078.337, 21529.00
1079.436, 21486.00
1080.535, 21737.00
1081.635, 21682.00
1082.734, 22004.00
1083.833, 21675.00
1084.931, 21858.00
1086.030, 21730.00
1087.128, 21868.00
1088.227, 21741.00
1089.325, 21740.00
1090.423, 21897.00
1091.521, 21818.00
1092.618, 21929.00
1093.716, 22197.00
1094.813, 22066.00
1095.911, 21879.00
1097.008, 22041.00
1098.105, 22108.00
1099.202, 22100.00
1100.298, 22220.00
1101.395, 22144.00
1102.491, 22169.00
1103.587, 22285.00
1104.683, 22151.00
1105.779, 22244.83
1106.875, 22319.00
1107.971, 22238.00
1109.066, 22357.00
1110.161, 22223.00
1111.256, 22245.00
1112.351, 22220.00
1113.446, 22412.00
1114.541, 22584.00
1115.636, 22370.00
1116.730, 22602.00
1117.824, 22474.00
1118.918, 22425.00
1120.012, 22834.00
1121.106, 22735.00
1122.200, 22456.00
1123.293, 22630.00
1124.387, 22560.00
1125.480, 22444.00
1126.573, 22665.00
1127.666, 22536.00
1128.759, 22851.00
1129.851, 22862.00
1130.944, 22803.00
1132.036, 22962.00
1133.128, 22650.00
1134.220, 22810.00
1135.312, 22852.00
1136.404, 22645.00
1137.495, 22933.00
1138.587, 22713.00
1139.678, 22713.00
1140.769, 23044.00
1141.860, 22967.00
1142.951, 22875.00
1144.041, 23104.00
1145.132, 23150.00
1146.222, 23134.00
1147.313, 23070.00
1148.403, 22935.00
1149.493, 23063.00
1150.582, 22865.00
1151.672, 23167.00
1152.761, 23217.00
1153.851, 23335.00
1154.940, 23434.00
1156.029, 23401.96
1157.118, 23500.00
1158.207, 23289.00
1159.295, 23429.00
1160.384, 23297.00
1161.472, 23237.00
1162.560, 23498.00
1163.648, 23382.00
1164.736, 23708.00
1165.824, 23467.00
1166.911, 23399.00
1167.999, 23240.00
1169.086, 23618.00
1170.173, 23530.00
1171.260, 23497.00
1172.347, 23692.00
1173.434, 23540.00
1174.520, 23634.00
1175.606, 23600.00
1176.693, 23836.00
1177.779, 23720.00
1178.865, 23700.00
1179.951, 23643.00
1181.036, 23785.00
1182.122, 23846.00
1183.207, 23829.00
1184.292, 23736.00
1185.377, 23832.00
1186.462, 23896.00
1187.547, 23797.00
1188.632, 23939.00
1189.716, 24049.00
1190.800, 23989.00
1191.885, 24029.00
1192.969, 24106.00
1194.052, 24077.00
1195.136, 24307.00
1196.220, 24162.00
1197.303, 24240.00
1198.387, 24026.00
1199.470, 24162.00
1200.553, 24437.00
1201.636, 24385.00
1202.718, 24418.00
1203.801, 24285.00
1204.883, 24425.00
1205.966, 24418.00
1207.048, 24353.00
1208.130, 24317.00
1209.211, 24387.00
1210.293, 24464.00
1211.375, 24436.00
1212.456, 24579.00
1213.537, 24625.00
1214.618, 24550.00
1215.699, 24487.00
1216.780, 24725.00
1217.861, 24696.00
1218.941, 24634.00
1220.022, 24822.00
1221.102, 24927.00
1222.182, 24728.00
1223.262, 24610.00
1224.342, 24793.00
1225.422, 24658.00
1226.501, 24853.00
1227.580, 24705.00
1228.660, 24889.00
1229.739, 24776.00
1230.818, 25017.00
1231.896, 24874.00
1232.975, 25068.00
1234.054, 24819.00
1235.132, 25190.00
1236.210, 25138.00
1237.288, 24920.00
1238.366, 24912.00
1239.444, 25056.00
1240.521, 25090.00
1241.599, 25014.00
1242.676, 25143.00
1243.753, 25004.00
1244.830, 25141.00
1245.907, 24919.00
1246.984, 25365.00
1248.061, 25133.00
1249.137, 25310.00
1250.214, 25329.00
1251.290, 25380.00
1252.366, 25393.32
1253.442, 25236.00
1254.517, 25295.00
1255.593, 25301.00
1256.668, 25165.00
1257.744, 25237.00
1258.819, 25328.00
1259.894, 25095.00
1260.969, 25055.00
1262.044, 25264.00
1263.118, 25463.00
1264.193, 25134.00
1265.267, 25271.00
1266.341, 25238.00
1267.415, 25196.00
1268.489, 25220.00
1269.563, 25242.00
1270.636, 25349.00
1271.710, 25378.44
1272.783, 25411.00
1273.856, 25461.00
1274.929, 25427.00
1276.002, 25375.00
1277.075, 25484.00
1278.147, 25524.00
1279.220, 25589.00
1280.292, 25372.00
1281.364, 25312.00
1282.436, 25434.00
1283.508, 25295.00
1284.580, 25347.00
1285.652, 25509.00
1286.723, 25511.00
1287.794, 25471.00
1288.865, 25571.00
1289.936, 25719.00
1291.007, 25550.00
1292.078, 25658.00
1293.149, 25628.00
1294.219, 25597.00
1295.289, 25635.00
1296.360, 25636.00
1297.430, 25721.00
1298.499, 25698.28
1299.569, 25739.97
1300.639, 25658.00
1301.708, 25788.00
1302.778, 25723.00
1303.847, 25738.00
1304.916, 25701.00
1305.985, 25684.00
1307.053, 25703.36
1308.122, 25863.00
1309.190, 25762.00
1310.259, 25803.00
1311.327, 25889.00
1312.395, 25817.00
1313.463, 25886.00
1314.531, 25659.00
1315.598, 25955.00
1316.666, 25989.00
1317.733, 25800.00
1318.800, 25775.00
1319.867, 25869.00
1320.934, 25930.00
1322.001, 26036.00
1323.067, 25985.76
1324.134, 26029.00
1325.200, 25882.00
1326.266, 25905.00
1327.333, 25889.00
1328.398, 25909.02
1329.464, 25941.05
1330.530, 26055.00
1331.595, 26063.00
1332.661, 26179.00
1333.726, 26343.00
1334.791, 26337.00
1335.856, 25965.00
1336.921, 26090.00
1337.985, 25897.00
1339.050, 26010.00
1340.114, 26010.54
1341.178, 26155.00
1342.242, 26093.00
1343.306, 26142.00
1344.370, 26223.00
1345.434, 26002.00
1346.497, 26125.00
1347.561, 25964.00
1348.624, 26393.00
1349.687, 26264.00
1350.750, 26241.00
1351.813, 26241.00
1352.876, 26332.00
1353.938, 26296.00
1355.000, 26380.00
1356.063, 26386.00
1357.125, 26366.00
1358.187, 26473.00
1359.249, 26432.00
1360.310, 26495.00
1361.372, 26384.00
1362.433, 26445.00
1363.495, 26371.00
1364.556, 26431.00
1365.617, 26583.00
1366.678, 26621.00
1367.738, 26472.00
1368.799, 26449.00
1369.859, 26399.00
1370.920, 26474.00
1371.980, 26496.00
1373.040, 26616.00
1374.100, 26536.00
1375.159, 26580.00
1376.219, 26788.00
1377.278, 26516.00
1378.338, 26679.00
1379.397, 26548.00
1380.456, 26653.00
1381.515, 26809.00
1382.574, 26585.00
1383.632, 26553.00
1384.691, 26766.00
1385.749, 26590.00
1386.807, 26684.00
1387.865, 26688.00
1388.923, 26648.00
1389.981, 26709.00
1391.039, 26610.00
1392.096, 26764.00
1393.154, 26669.00
1394.211, 26734.00
1395.268, 26555.00
1396.325, 26845.00
1397.382, 26838.00
1398.439, 26795.00
1399.495, 26872.00
1400.552, 26829.00
1401.608, 26816.00
1402.664, 26925.00
1403.720, 26797.00
1404.776, 26757.00
1405.832, 26864.00
1406.887, 26641.00
1407.943, 26979.00
1408.998, 27120.00
1410.053, 26977.00
1411.108, 26879.00
1412.163, 27053.00
1413.218, 26854.00
1414.272, 27033.00
1415.327, 27061.00
1416.381, 26906.00
1417.435, 27021.00
1418.489, 26931.00
1419.543, 26889.00
1420.597, 26885.00
1421.651, 26922.12
1422.704, 27132.00
1423.758, 27038.00
1424.811, 27039.00
1425.864, 27008.00
1426.917, 27284.00
1427.970, 27214.00
1429.023, 27294.00
1430.075, 27220.00
1431.128, 27026.00
1432.180, 27378.00
1433.232, 27191.00
1434.284, 27382.00
1435.336, 27315.00
1436.388, 27198.00
1437.439, 27288.00
1438.491, 27465.00
1439.542, 27532.00
1440.593, 27433.00
1441.644, 27198.00
1442.695, 27380.00
1443.746, 27421.00
1444.797, 27324.00
1445.847, 27552.00
1446.898, 27605.00
1447.948, 27451.00
1448.998, 27394.00
1450.048, 27653.00
1451.098, 27488.00
1452.147, 27580.00
1453.197, 27484.00
1454.246, 27553.00
1455.296, 27596.00
1456.345, 27586.00
1457.394, 27645.17
1458.443, 27625.00
1459.491, 27673.00
1460.540, 27689.00
1461.588, 27620.00
1462.637, 27825.00
1463.685, 27701.00
1464.733, 27684.00
1465.781, 27768.00
1466.829, 27673.00
1467.876, 27703.00
1468.924, 27843.00
1469.971, 27763.00
1471.019, 27937.00
1472.066, 27824.00
1473.113, 27735.00
1474.160, 27864.00
1475.206, 27915.00
1476.253, 27820.00
1477.299, 27979.00
1478.346, 28040.00
1479.392, 27987.00
1480.438, 27952.00
1481.484, 27773.00
1482.529, 27820.84
1483.575, 28131.00
1484.620, 27898.00
1485.666, 27927.00
1486.711, 28085.00
1487.756, 27964.00
1488.801, 28059.00
1489.846, 28018.00
1490.891, 28117.00
1491.935, 28080.00
1492.980, 28221.00
1494.024, 28345.00
1495.068, 28151.00
1496.112, 28274.00
1497.156, 28227.00
1498.200, 28255.00
1499.243, 28368.00
1500.287, 28154.00
1501.330, 28037.00
1502.373, 28228.00
1503.416, 28287.00
1504.459, 28143.00
1505.502, 28197.00
1506.545, 28143.00
1507.587, 28238.00
1508.630, 28392.00
1509.672, 28282.00
1510.714, 28478.00
1511.756, 28231.00
1512.798, 28417.00
1513.840, 28488.00
1514.881, 28434.00
1515.923, 28533.00
1516.964, 28287.00
1518.005, 28514.00
1519.046, 28456.00
1520.087, 28491.00
1521.128, 28580.16
1522.169, 28485.00
1523.209, 28656.00
1524.249, 28643.00
1525.290, 28636.00
1526.330, 28613.00
1527.370, 28663.00
1528.410, 28596.00
1529.449, 28466.00
1530.489, 28434.00
1531.528, 28585.00
1532.568, 28661.00
1533.607, 28725.00
1534.646, 28831.00
1535.685, 28826.00
1536.724, 29070.00
1537.762, 28603.00
1538.801, 28676.00
1539.839, 28702.00
1540.878, 28778.00
1541.916, 28770.00
1542.954, 28856.00
1543.992, 28881.11
1545.029, 29015.00
1546.067, 28923.00
1547.104, 29013.92
1548.142, 28974.58
1549.179, 28993.00
1550.216, 28998.00
1551.253, 28890.00
1552.290, 28896.00
1553.326, 28851.00
1554.363, 28951.00
1555.399, 29070.00
1556.436, 28947.00
1557.472, 28968.00
1558.508, 28888.00
1559.544, 29008.00
1560.579, 28911.00
1561.615, 28826.00
1562.651, 29085.00
1563.686, 29045.00
1564.721, 29084.00
1565.756, 29005.00
1566.791, 29014.77
1567.826, 28940.00
1568.861, 29001.00
1569.895, 29134.00
1570.930, 29158.00
1571.964, 29093.00
1572.998, 29135.00
1574.032, 29096.00
1575.066, 29222.00
1576.100, 29181.00
1577.134, 29250.00
1578.167, 29378.00
##END=



