##NAMES=Metatorbernite
##RRUFFID=R070686
##IDEAL CHEMISTRY=Cu^2+^(U^6+^O_2_)_2_(PO_4_)_2_&#183;8H_2_O
##LOCALITY=Fichtelgebirge, Franconia, Bavaria, Germany
##OWNER=RRUFF
##SOURCE=Michael Scott
##DESCRIPTION=Green tabular crystals
##STATUS=The identification of this mineral has been confirmed by X-ray diffraction.
##URL=rruff.info/R070686
##PIN_ID=M00978
##ORIENTATION=Laser parallel to -a* (-1 0 0). Fiducial mark perpendicular to laser is parallel to c [0 0 1]
170.7050, 15490.00
171.9380, 15537.00
173.1700, 15672.16
174.4030, 15816.00
175.6350, 15993.00
176.8680, 16168.00
178.1000, 16282.00
179.3310, 16238.00
180.5630, 16565.00
181.7940, 16641.00
183.0260, 16970.00
184.2570, 17224.00
185.4870, 17312.00
186.7180, 17428.00
187.9480, 17679.00
189.1790, 17951.00
190.4090, 18306.00
191.6390, 18236.00
192.8680, 18394.00
194.0980, 18643.00
195.3270, 18685.00
196.5560, 18525.00
197.7850, 18431.00
199.0140, 18247.00
200.2420, 18416.00
201.4710, 17972.00
202.6990, 17737.00
203.9270, 17954.00
205.1550, 17490.00
206.3820, 17559.00
207.6090, 17673.00
208.8370, 17672.00
210.0640, 17652.00
211.2900, 17450.00
212.5170, 17465.00
213.7440, 17445.00
214.9700, 17620.00
216.1960, 17448.00
217.4220, 17446.00
218.6470, 17472.00
219.8730, 17322.00
221.0980, 17344.00
222.3230, 17483.00
223.5480, 17517.00
224.7730, 17424.00
225.9970, 17548.00
227.2220, 17547.00
228.4460, 17616.00
229.6700, 17621.00
230.8940, 17808.00
232.1170, 17691.00
233.3400, 17876.00
234.5640, 17792.00
235.7870, 17798.00
237.0100, 17956.00
238.2320, 17744.00
239.4550, 17734.00
240.6770, 17867.00
241.8990, 17803.00
243.1210, 17886.00
244.3420, 18051.00
245.5640, 17892.00
246.7850, 17962.00
248.0060, 18138.00
249.2270, 18241.00
250.4480, 18196.00
251.6690, 18011.00
252.8890, 18380.00
254.1090, 18116.00
255.3290, 18207.00
256.5490, 18137.00
257.7680, 18388.00
258.9880, 18270.00
260.2070, 18321.00
261.4260, 18378.00
262.6450, 18410.00
263.8640, 18458.00
265.0820, 18523.00
266.3000, 18528.00
267.5180, 18741.00
268.7360, 18725.00
269.9540, 18630.00
271.1720, 18804.00
272.3890, 18897.00
273.6060, 18878.00
274.8230, 18978.22
276.0400, 18995.00
277.2560, 19064.00
278.4730, 18972.00
279.6890, 19048.00
280.9050, 19039.00
282.1210, 19253.00
283.3370, 19280.00
284.5520, 19218.00
285.7670, 19400.00
286.9820, 19349.00
288.1970, 19433.00
289.4120, 19330.00
290.6270, 19496.00
291.8410, 19345.00
293.0550, 19440.00
294.2690, 19480.00
295.4830, 19616.00
296.6970, 19431.00
297.9100, 19631.00
299.1230, 19580.00
300.3360, 19459.00
301.5490, 19584.00
302.7620, 19722.00
303.9740, 19712.00
305.1860, 19698.00
306.3990, 19722.00
307.6110, 19697.00
308.8220, 19811.00
310.0340, 19816.00
311.2450, 19830.00
312.4560, 19860.84
313.6670, 19735.00
314.8780, 19858.00
316.0890, 19815.00
317.2990, 19799.00
318.5090, 19959.00
319.7200, 20015.00
320.9290, 19973.00
322.1390, 19892.00
323.3490, 20134.00
324.5580, 20214.00
325.7670, 20066.00
326.9760, 20162.00
328.1850, 19962.00
329.3930, 20070.00
330.6020, 20016.00
331.8100, 20197.00
333.0180, 20222.00
334.2260, 20384.00
335.4340, 20399.61
336.6410, 20287.00
337.8480, 20460.00
339.0550, 20339.00
340.2620, 20431.00
341.4690, 20172.00
342.6760, 20258.00
343.8820, 20440.00
345.0880, 20339.00
346.2940, 20450.00
347.5000, 20581.00
348.7060, 20504.00
349.9110, 20351.00
351.1160, 20423.00
352.3210, 20357.00
353.5260, 20485.00
354.7310, 20345.00
355.9360, 20558.00
357.1400, 20459.00
358.3440, 20491.00
359.5480, 20601.00
360.7520, 20685.00
361.9550, 20712.00
363.1590, 20891.00
364.3620, 20772.00
365.5650, 20766.00
366.7680, 20568.00
367.9710, 20788.00
369.1730, 20910.00
370.3760, 20833.00
371.5780, 20758.00
372.7800, 20808.00
373.9810, 20886.00
375.1830, 20817.00
376.3840, 20881.00
377.5860, 20753.00
378.7870, 20910.00
379.9880, 20998.00
381.1880, 20977.00
382.3890, 20972.00
383.5890, 20933.00
384.7890, 20998.00
385.9890, 21018.00
387.1890, 21026.00
388.3880, 21035.00
389.5880, 21039.22
390.7870, 21045.00
391.9860, 21062.00
393.1850, 21137.00
394.3840, 21203.00
395.5820, 21316.00
396.7800, 21408.00
397.9790, 21269.00
399.1770, 21424.00
400.3740, 21336.00
401.5720, 21468.00
402.7690, 21458.00
403.9670, 21497.00
405.1640, 21590.00
406.3600, 21281.00
407.5570, 21489.00
408.7540, 21403.00
409.9500, 21504.00
411.1460, 21550.00
412.3420, 21472.00
413.5380, 21472.00
414.7330, 21420.00
415.9290, 21422.00
417.1240, 21409.00
418.3190, 21442.00
419.5140, 21493.00
420.7090, 21471.00
421.9030, 21506.00
423.0970, 21455.00
424.2920, 21433.87
425.4860, 21465.51
426.6790, 21376.00
427.8730, 21478.00
429.0660, 21513.00
430.2600, 21442.00
431.4530, 21684.00
432.6460, 21741.00
433.8380, 21680.00
435.0310, 21725.00
436.2230, 21785.00
437.4150, 21705.00
438.6070, 21660.00
439.7990, 21847.00
440.9910, 21776.00
442.1820, 21837.00
443.3730, 21771.00
444.5640, 21797.00
445.7550, 21766.00
446.9460, 21775.00
448.1370, 21953.00
449.3270, 21900.00
450.5170, 21941.00
451.7070, 21665.00
452.8970, 21840.00
454.0870, 21686.00
455.2760, 21643.00
456.4650, 21583.00
457.6550, 21930.00
458.8430, 21818.00
460.0320, 21774.00
461.2210, 21777.00
462.4090, 21686.00
463.5970, 21876.00
464.7850, 21715.00
465.9730, 21817.00
467.1610, 21817.00
468.3480, 21792.00
469.5360, 21800.00
470.7230, 21867.00
471.9100, 21904.00
473.0970, 21795.00
474.2830, 21863.00
475.4700, 21858.00
476.6560, 21942.00
477.8420, 21926.09
479.0280, 21805.00
480.2140, 21829.00
481.3990, 21835.00
482.5850, 21817.25
483.7700, 21873.00
484.9550, 21893.00
486.1400, 21839.00
487.3240, 21953.00
488.5090, 21916.00
489.6930, 21879.00
490.8770, 21771.00
492.0610, 21964.00
493.2450, 21875.00
494.4290, 21884.00
495.6120, 21950.00
496.7950, 21980.00
497.9780, 22008.83
499.1610, 21965.00
500.3440, 22020.00
501.5260, 22064.00
502.7090, 21967.00
503.8910, 21994.00
505.0730, 22112.00
506.2550, 21922.00
507.4360, 22214.00
508.6180, 22048.00
509.7990, 21927.00
510.9800, 22039.00
512.1610, 21999.00
513.3420, 22059.00
514.5230, 22057.00
515.7030, 21967.00
516.8830, 22113.00
518.0630, 22083.00
519.2430, 22113.00
520.4230, 22170.88
521.6020, 22181.00
522.7820, 22205.00
523.9610, 22253.00
525.1400, 22205.00
526.3190, 22055.00
527.4970, 22214.00
528.6760, 22340.00
529.8540, 22236.00
531.0320, 22130.00
532.2100, 22171.00
533.3880, 22249.00
534.5660, 22249.00
535.7430, 22285.00
536.9200, 22318.00
538.0970, 22228.00
539.2740, 22226.00
540.4510, 22218.00
541.6270, 22192.00
542.8040, 22295.00
543.9800, 22436.00
545.1560, 22398.00
546.3320, 22474.00
547.5080, 22311.00
548.6830, 22385.00
549.8580, 22357.00
551.0340, 22499.00
552.2090, 22307.00
553.3830, 22464.00
554.5580, 22484.00
555.7320, 22579.00
556.9070, 22301.00
558.0810, 22405.00
559.2550, 22391.00
560.4280, 22669.00
561.6020, 22437.00
562.7750, 22676.00
563.9490, 22740.00
565.1220, 22483.00
566.2950, 22701.00
567.4670, 22625.00
568.6400, 22512.00
569.8120, 22633.00
570.9840, 22647.00
572.1560, 22529.00
573.3280, 22538.00
574.5000, 22695.00
575.6710, 22636.00
576.8430, 22649.00
578.0140, 22534.00
579.1850, 22619.00
580.3560, 22877.00
581.5260, 22572.00
582.6970, 22757.00
583.8670, 22606.00
585.0370, 22640.00
586.2070, 22557.00
587.3770, 22572.28
588.5460, 22683.00
589.7160, 22684.00
590.8850, 22726.00
592.0540, 22888.00
593.2230, 22839.00
594.3920, 22672.00
595.5600, 22786.00
596.7290, 22852.00
597.8970, 22780.00
599.0650, 22845.00
600.2330, 22666.00
601.4000, 23108.00
602.5680, 23092.00
603.7350, 22996.00
604.9020, 22899.00
606.0690, 22932.00
607.2360, 22811.00
608.4030, 22999.00
609.5690, 22779.00
610.7360, 23083.00
611.9020, 23008.00
613.0680, 22981.00
614.2340, 23201.00
615.3990, 23179.00
616.5650, 23094.00
617.7300, 22938.00
618.8950, 23189.00
620.0600, 23070.00
621.2250, 23195.00
622.3890, 23092.00
623.5540, 23399.00
624.7180, 23180.00
625.8820, 23283.00
627.0460, 23208.00
628.2100, 23225.00
629.3730, 23491.00
630.5370, 23431.00
631.7000, 23571.00
632.8630, 23451.00
634.0260, 23387.00
635.1890, 23458.00
636.3510, 23374.00
637.5140, 23405.00
638.6760, 23474.00
639.8380, 23432.02
641.0000, 23387.00
642.1610, 23466.00
643.3230, 23436.00
644.4840, 23518.00
645.6450, 23516.00
646.8060, 23601.00
647.9670, 23559.00
649.1280, 23633.00
650.2880, 23629.13
651.4490, 23604.69
652.6090, 23617.00
653.7690, 23615.00
654.9290, 23576.00
656.0880, 23718.00
657.2480, 23774.00
658.4070, 23870.00
659.5660, 23862.00
660.7250, 23863.46
661.8840, 23908.20
663.0430, 23797.00
664.2010, 23843.00
665.3600, 23827.00
666.5180, 23872.47
667.6760, 23921.21
668.8330, 23997.00
669.9910, 24010.00
671.1480, 24013.00
672.3060, 23990.00
673.4630, 24114.00
674.6200, 23850.00
675.7770, 24003.00
676.9330, 23746.00
678.0900, 23974.00
679.2460, 24138.00
680.4020, 24054.00
681.5580, 24095.00
682.7140, 24116.00
683.8690, 24131.00
685.0250, 24006.00
686.1800, 24197.00
687.3350, 24073.00
688.4900, 24060.00
689.6450, 24122.00
690.7990, 24194.00
691.9540, 24298.00
693.1080, 24313.00
694.2620, 24302.00
695.4160, 24388.00
696.5700, 24510.00
697.7230, 24386.00
698.8770, 24307.00
700.0300, 24471.00
701.1830, 24375.00
702.3360, 24419.00
703.4890, 24346.00
704.6410, 24391.74
705.7930, 24366.00
706.9460, 24460.00
708.0980, 24640.00
709.2500, 24620.00
710.4010, 24609.00
711.5530, 24390.00
712.7040, 24593.00
713.8560, 24685.00
715.0070, 24766.00
716.1580, 24477.00
717.3080, 24561.00
718.4590, 24733.00
719.6090, 24662.00
720.7590, 24847.00
721.9090, 24619.00
723.0590, 24944.00
724.2090, 24891.00
725.3590, 24597.00
726.5080, 24946.00
727.6570, 24923.00
728.8060, 24785.00
729.9550, 24860.00
731.1040, 24773.00
732.2530, 24748.00
733.4010, 24814.15
734.5490, 24933.00
735.6970, 24924.00
736.8450, 25052.00
737.9930, 25115.00
739.1400, 24984.00
740.2880, 24940.00
741.4350, 24917.00
742.5820, 24974.00
743.7290, 25115.00
744.8760, 25173.00
746.0220, 25229.00
747.1690, 25043.00
748.3150, 25256.00
749.4610, 25283.00
750.6070, 25524.00
751.7530, 25403.00
752.8980, 25366.00
754.0440, 25405.00
755.1890, 25535.00
756.3340, 25357.00
757.4790, 25581.00
758.6240, 25345.00
759.7680, 25578.00
760.9130, 25514.00
762.0570, 25452.00
763.2010, 25747.00
764.3450, 25572.00
765.4890, 25585.00
766.6320, 25592.00
767.7760, 25737.00
768.9190, 25727.00
770.0620, 25718.00
771.2050, 25828.00
772.3480, 25751.00
773.4900, 26047.00
774.6330, 25727.00
775.7750, 26081.00
776.9170, 26034.00
778.0590, 25839.00
779.2010, 25937.00
780.3420, 26063.00
781.4840, 26062.00
782.6250, 26485.00
783.7660, 26256.00
784.9070, 26685.00
786.0480, 26676.00
787.1890, 26692.00
788.3290, 26770.00
789.4690, 26925.00
790.6100, 27100.00
791.7490, 27317.00
792.8890, 27425.00
794.0290, 27427.00
795.1680, 27609.69
796.3080, 27877.00
797.4470, 27871.00
798.5860, 28167.00
799.7250, 28373.00
800.8630, 28243.00
802.0020, 28102.00
803.1400, 28230.00
804.2780, 28345.00
805.4160, 28650.00
806.5540, 28751.46
807.6920, 28994.85
808.8300, 29155.00
809.9670, 29486.00
811.1040, 29856.00
812.2410, 30208.00
813.3780, 30945.00
814.5150, 31352.00
815.6510, 32236.00
816.7880, 33090.00
817.9240, 34617.00
819.0600, 36003.00
820.1960, 37883.00
821.3320, 39659.00
822.4670, 40771.00
823.6030, 41837.00
824.7380, 42638.00
825.8730, 43188.00
827.0080, 42673.00
828.1430, 41732.00
829.2770, 39805.00
830.4120, 37361.00
831.5460, 35288.00
832.6800, 33628.00
833.8140, 32309.00
834.9480, 31443.00
836.0810, 30659.00
837.2150, 30330.00
838.3480, 29517.00
839.4810, 29511.00
840.6140, 29364.00
841.7470, 29246.00
842.8800, 28965.00
844.0120, 28681.00
845.1450, 28527.00
846.2770, 28388.77
847.4090, 28352.00
848.5410, 28267.00
849.6720, 28164.00
850.8040, 28151.00
851.9350, 28060.29
853.0660, 27974.00
854.1970, 27922.00
855.3280, 27960.00
856.4590, 27868.00
857.5900, 27883.00
858.7200, 27868.00
859.8500, 27728.00
860.9800, 27638.00
862.1100, 27786.00
863.2400, 27680.00
864.3700, 27909.00
865.4990, 27836.00
866.6280, 28023.00
867.7570, 27855.00
868.8860, 27663.00
870.0150, 27803.00
871.1440, 27877.00
872.2720, 27998.00
873.4010, 27886.00
874.5290, 27842.00
875.6570, 27829.00
876.7850, 27968.00
877.9120, 28007.00
879.0400, 27985.00
880.1670, 28188.00
881.2940, 28217.00
882.4210, 28034.00
883.5480, 28249.00
884.6750, 28113.00
885.8020, 28183.00
886.9280, 28165.00
888.0540, 28362.00
889.1800, 28390.00
890.3060, 28395.00
891.4320, 28410.00
892.5580, 28558.00
893.6830, 28527.00
894.8080, 28635.00
895.9330, 28627.00
897.0580, 28538.00
898.1830, 28661.00
899.3080, 28564.00
900.4320, 28760.00
901.5570, 28854.00
902.6810, 28642.00
903.8050, 28907.00
904.9290, 28774.00
906.0520, 28854.00
907.1760, 28963.00
908.2990, 28620.00
909.4230, 28560.00
910.5460, 28707.00
911.6690, 28701.00
912.7910, 28910.00
913.9140, 28755.00
915.0360, 28811.00
916.1590, 28904.00
917.2810, 28921.00
918.4030, 28748.00
919.5240, 28883.00
920.6460, 28965.00
921.7680, 29060.00
922.8890, 28868.00
924.0100, 28914.00
925.1310, 28884.00
926.2520, 28880.00
927.3730, 29122.00
928.4930, 29064.00
929.6130, 28965.00
930.7340, 29189.00
931.8540, 29268.00
932.9740, 29111.00
934.0930, 29244.00
935.2130, 29342.00
936.3320, 29117.00
937.4520, 29147.00
938.5710, 29146.00
939.6900, 29439.00
940.8090, 29313.00
941.9270, 29360.00
943.0460, 29451.00
944.1640, 29365.00
945.2820, 29388.00
946.4000, 29630.00
947.5180, 29577.00
948.6360, 29467.00
949.7530, 29760.00
950.8710, 29573.00
951.9880, 29775.00
953.1050, 29593.00
954.2220, 29971.00
955.3390, 29725.00
956.4550, 29943.00
957.5720, 29794.00
958.6880, 30147.00
959.8040, 30134.00
960.9200, 29844.00
962.0360, 30244.00
963.1520, 30299.00
964.2670, 30270.00
965.3820, 29981.00
966.4980, 30482.00
967.6130, 30081.00
968.7280, 30251.00
969.8420, 30357.00
970.9570, 30478.00
972.0710, 30538.00
973.1850, 30668.00
974.3000, 30777.42
975.4140, 30809.00
976.5270, 30981.00
977.6410, 30991.00
978.7540, 31000.00
979.8680, 31238.00
980.9810, 31392.00
982.0940, 31574.51
983.2070, 31764.00
984.3200, 32012.00
985.4320, 32302.00
986.5440, 32518.00
987.6570, 32735.00
988.7690, 32805.00
989.8810, 32555.00
990.9920, 32953.00
992.1040, 32869.00
993.2160, 33082.00
994.3270, 32759.00
995.4380, 32825.00
996.5490, 32781.00
997.6600, 32549.00
998.7710, 32471.00
999.8810, 32408.00
1000.991, 32312.00
1002.102, 32155.00
1003.212, 31911.00
1004.322, 31989.00
1005.431, 31772.00
1006.541, 31894.00
1007.651, 31762.00
1008.760, 31846.00
1009.869, 31657.00
1010.978, 31874.00
1012.087, 31696.00
1013.195, 31788.00
1014.304, 31827.00
1015.412, 31967.00
1016.521, 31617.00
1017.629, 31606.00
1018.737, 31792.00
1019.844, 31967.00
1020.952, 31748.00
1022.059, 31873.00
1023.167, 31783.00
1024.274, 31882.00
1025.381, 32129.00
1026.488, 31935.00
1027.594, 32107.00
1028.701, 32142.00
1029.807, 32085.00
1030.913, 31996.00
1032.019, 32009.00
1033.125, 32124.00
1034.231, 32174.00
1035.337, 32129.00
1036.442, 32126.00
1037.548, 32252.00
1038.653, 32381.00
1039.758, 32218.00
1040.863, 32033.00
1041.967, 32418.00
1043.072, 32395.00
1044.176, 32266.00
1045.280, 32208.00
1046.384, 32507.00
1047.488, 32684.00
1048.592, 32721.00
1049.696, 32829.96
1050.799, 32456.00
1051.903, 32787.00
1053.006, 32573.00
1054.109, 32407.00
1055.212, 32741.00
1056.314, 32865.00
1057.417, 32688.00
1058.519, 32934.00
1059.621, 32979.00
1060.724, 33062.00
1061.826, 33184.00
1062.927, 33150.00
1064.029, 33240.00
1065.130, 33149.00
1066.232, 33094.00
1067.333, 33218.00
1068.434, 33238.00
1069.535, 33415.00
1070.636, 33198.00
1071.736, 33514.00
1072.837, 33314.00
1073.937, 33428.00
1075.037, 33414.00
1076.137, 33495.00
1077.237, 33627.00
1078.337, 33393.00
1079.436, 33310.00
1080.535, 33713.00
1081.635, 33520.00
1082.734, 33688.00
1083.833, 33683.00
1084.931, 33838.00
1086.030, 33772.00
1087.128, 33649.00
1088.227, 33930.00
1089.325, 33787.00
1090.423, 33965.00
1091.521, 34004.00
1092.618, 34135.00
1093.716, 33857.00
1094.813, 34165.00
1095.911, 33839.00
1097.008, 34174.00
1098.105, 34089.00
1099.202, 34324.00
1100.298, 34296.00
1101.395, 34381.00
1102.491, 34393.00
1103.587, 34359.00
1104.683, 34420.00
1105.779, 34548.00
1106.875, 34584.00
1107.971, 34506.00
1109.066, 34703.00
1110.161, 34504.00
1111.256, 34739.00
1112.351, 34653.00
1113.446, 34820.00
1114.541, 34725.00
1115.636, 34863.00
1116.730, 34946.00
1117.824, 34928.00
1118.918, 34960.00
1120.012, 34907.00
1121.106, 34923.00
1122.200, 35043.00
1123.293, 35051.00
1124.387, 35003.00
1125.480, 35038.00
1126.573, 34949.00
1127.666, 35116.00
1128.759, 35253.00
1129.851, 35451.00
1130.944, 35295.00
1132.036, 35346.00
1133.128, 35390.00
1134.220, 35247.00
1135.312, 35548.00
1136.404, 35368.00
1137.495, 35591.00
1138.587, 35653.00
1139.678, 35478.00
1140.769, 35654.00
1141.860, 35571.00
1142.951, 35810.00
1144.041, 35833.00
1145.132, 35899.00
1146.222, 35651.00
1147.313, 35694.00
1148.403, 35995.00
1149.493, 35907.00
1150.582, 36060.00
1151.672, 35885.00
1152.761, 36071.00
1153.851, 36198.00
1154.940, 36057.00
1156.029, 36169.00
1157.118, 36393.00
1158.207, 36332.00
1159.295, 36293.00
1160.384, 36258.00
1161.472, 36133.00
1162.560, 36501.00
1163.648, 36481.00
1164.736, 36466.00
1165.824, 36052.00
1166.911, 36354.00
1167.999, 36181.00
1169.086, 36625.00
1170.173, 36391.00
1171.260, 36511.00
1172.347, 36475.00
1173.434, 36682.00
1174.520, 36729.00
1175.606, 36718.00
1176.693, 36688.00
1177.779, 36771.00
1178.865, 36758.00
1179.951, 36674.00
1181.036, 36723.00
1182.122, 36677.00
1183.207, 36909.00
1184.292, 36749.00
1185.377, 36816.00
1186.462, 37274.00
1187.547, 37142.00
1188.632, 37151.00
1189.716, 37113.00
1190.800, 37228.00
1191.885, 37340.00
1192.969, 37042.00
1194.052, 37207.00
1195.136, 37276.00
1196.220, 37429.00
1197.303, 37573.00
1198.387, 37471.00
1199.470, 37504.00
1200.553, 37392.00
1201.636, 37259.00
1202.718, 37670.00
1203.801, 37445.00
1204.883, 37773.00
1205.966, 37594.00
1207.048, 37633.00
1208.130, 37591.00
1209.211, 37802.00
1210.293, 37613.00
1211.375, 37746.00
1212.456, 37723.00
1213.537, 37820.00
1214.618, 37902.00
1215.699, 37921.00
1216.780, 37780.00
1217.861, 37876.00
1218.941, 37872.75
1220.022, 37934.00
1221.102, 38000.00
1222.182, 37881.00
1223.262, 37995.00
1224.342, 38162.00
1225.422, 38156.00
1226.501, 38401.00
1227.580, 38287.00
1228.660, 38156.00
1229.739, 38628.00
1230.818, 38247.00
1231.896, 38239.00
1232.975, 38207.00
1234.054, 38277.00
1235.132, 38368.00
1236.210, 38346.55
1237.288, 38527.00
1238.366, 38454.00
1239.444, 38365.00
1240.521, 38603.00
1241.599, 38150.00
1242.676, 38673.00
1243.753, 38492.00
1244.830, 38913.00
1245.907, 38654.00
1246.984, 38842.00
1248.061, 38581.00
1249.137, 38528.00
1250.214, 38684.00
1251.290, 38811.00
1252.366, 38635.00
1253.442, 38751.00
1254.517, 38899.00
1255.593, 39034.00
1256.668, 39094.62
1257.744, 39131.00
1258.819, 39246.00
1259.894, 38905.00
1260.969, 39034.00
1262.044, 38916.00
1263.118, 39077.00
1264.193, 39007.00
1265.267, 39142.00
1266.341, 39273.00
1267.415, 39222.00
1268.489, 39499.00
1269.563, 39185.00
1270.636, 39167.00
1271.710, 39226.00
1272.783, 39342.00
1273.856, 39341.00
1274.929, 39355.00
1276.002, 39541.00
1277.075, 39598.00
1278.147, 39422.00
1279.220, 39415.00
1280.292, 39586.00
1281.364, 39405.00
1282.436, 39505.00
1283.508, 39441.00
1284.580, 39461.00
1285.652, 39491.23
1286.723, 39366.00
1287.794, 39526.00
1288.865, 39590.00
1289.936, 39606.00
1291.007, 39477.00
1292.078, 39613.00
1293.149, 39449.00
1294.219, 39500.73
1295.289, 39636.00
1296.360, 39558.00
1297.430, 39855.00
1298.499, 39951.00
1299.569, 39886.00
1300.639, 39907.00
1301.708, 39877.69
1302.778, 39846.00
1303.847, 39854.00
1304.916, 39901.00
1305.985, 40046.00
1307.053, 39858.00
1308.122, 39792.00
1309.190, 40005.00
1310.259, 40119.00
1311.327, 39995.00
1312.395, 40034.00
1313.463, 40348.00
1314.531, 40352.00
1315.598, 40312.00
1316.666, 40342.00
1317.733, 40333.00
1318.800, 40356.00
1319.867, 40236.00
1320.934, 40362.00
1322.001, 40331.00
1323.067, 40100.00
1324.134, 40294.00
1325.200, 40555.00
1326.266, 40366.00
1327.333, 40666.00
1328.398, 40479.00
1329.464, 40451.00
1330.530, 40631.00
1331.595, 40430.00
1332.661, 40450.00
1333.726, 40559.00
1334.791, 40664.00
1335.856, 40676.00
1336.921, 40729.00
1337.985, 40710.27
1339.050, 40725.28
1340.114, 40663.00
1341.178, 40699.00
1342.242, 40745.00
1343.306, 40691.00
1344.370, 40768.45
1345.434, 40746.00
1346.497, 40841.00
1347.561, 40747.00
1348.624, 40722.04
1349.687, 40962.00
1350.750, 40738.00
1351.813, 41033.00
1352.876, 41096.00
1353.938, 41095.00
1355.000, 40970.00
1356.063, 40954.00
1357.125, 41014.00
1358.187, 40923.64
1359.249, 41450.00
1360.310, 40916.00
1361.372, 41177.00
1362.433, 41333.00
1363.495, 41128.00
1364.556, 41313.00
1365.617, 41426.00
1366.678, 41360.00
1367.738, 41431.00
1368.799, 41490.00
1369.859, 41127.00
1370.920, 41588.00
1371.980, 41326.00
1373.040, 41569.00
1374.100, 41492.00
1375.159, 41615.00
1376.219, 41525.00
1377.278, 41678.00
1378.338, 41584.00
1379.397, 41603.11
1380.456, 41512.00
1381.515, 41557.00
1382.574, 41556.00
1383.632, 41470.00
1384.691, 41601.00
1385.749, 41388.00
1386.807, 41673.00
1387.865, 41789.00
1388.923, 41690.00
1389.981, 41865.00
1391.039, 41758.00
1392.096, 41812.00
1393.154, 41718.00
1394.211, 41823.00
1395.268, 41851.00
1396.325, 41835.00
1397.382, 41939.00
1398.439, 41745.00
1399.495, 41904.00
1400.552, 41918.00
1401.608, 42137.00
1402.664, 41944.00
1403.720, 42008.00
1404.776, 41784.00
1405.832, 42017.00
1406.887, 41993.00
1407.943, 42029.00
1408.998, 42155.00
1410.053, 42141.00
1411.108, 42234.00
1412.163, 42313.57
1413.218, 42325.00
1414.272, 42399.00
1415.327, 42325.00
1416.381, 42176.00
1417.435, 42298.00
1418.489, 42278.00
1419.543, 42180.00
1420.597, 42349.00
1421.651, 42343.00
1422.704, 42467.00
1423.758, 42250.00
1424.811, 42303.00
1425.864, 42482.00
1426.917, 42632.00
1427.970, 42653.00
1429.023, 42673.62
1430.075, 42598.00
1431.128, 42525.00
1432.180, 42531.00
1433.232, 42371.00
1434.284, 42481.00
1435.336, 42519.00
1436.388, 42421.00
1437.439, 42553.18
1438.491, 42578.00
1439.542, 42692.00
1440.593, 42824.00
1441.644, 42897.00
1442.695, 42967.53
1443.746, 42936.00
1444.797, 43052.00
1445.847, 42979.00
1446.898, 42991.00
1447.948, 42836.00
1448.998, 42773.00
1450.048, 42797.93
1451.098, 43103.00
1452.147, 42925.00
1453.197, 43107.00
1454.246, 43344.00
1455.296, 43089.00
1456.345, 43197.00
1457.394, 42965.00
1458.443, 43196.00
1459.491, 43049.00
1460.540, 43140.00
1461.588, 43259.00
1462.637, 43076.00
1463.685, 43255.00
1464.733, 43162.00
1465.781, 43365.00
1466.829, 43390.00
1467.876, 43399.00
1468.924, 43237.00
1469.971, 43280.16
1471.019, 43186.00
1472.066, 43263.00
1473.113, 43537.00
1474.160, 43607.00
1475.206, 43640.43
1476.253, 43763.00
1477.299, 43630.00
1478.346, 43746.00
1479.392, 43758.00
1480.438, 43667.00
1481.484, 43584.00
1482.529, 43729.00
1483.575, 43791.00
1484.620, 43769.00
1485.666, 43807.00
1486.711, 43742.00
1487.756, 44091.00
1488.801, 43644.00
1489.846, 43842.00
1490.891, 44161.00
1491.935, 43960.00
1492.980, 44051.00
1494.024, 44126.00
1495.068, 44103.00
1496.112, 44179.00
1497.156, 44131.00
1498.200, 44455.00
1499.243, 44149.00
1500.287, 44367.00
1501.330, 44298.00
1502.373, 44061.00
1503.416, 44160.00
1504.459, 44068.00
1505.502, 44575.00
1506.545, 44472.00
1507.587, 44618.00
1508.630, 44576.00
1509.672, 44614.00
1510.714, 44611.00
1511.756, 44827.00
1512.798, 44787.09
1513.840, 44869.79
1514.881, 44820.00
1515.923, 44876.00
1516.964, 44868.00
1518.005, 44691.00
1519.046, 44830.00
1520.087, 44791.00
1521.128, 44997.00
1522.169, 45018.00
1523.209, 44948.00
1524.249, 44814.00
1525.290, 45127.00
1526.330, 45056.00
1527.370, 44928.00
1528.410, 44958.00
1529.449, 44902.25
1530.489, 44824.00
1531.528, 44905.00
1532.568, 45150.00
1533.607, 45209.00
1534.646, 45182.00
1535.685, 45250.00
1536.724, 45348.35
1537.762, 45436.00
1538.801, 45513.00
1539.839, 45434.00
1540.878, 45335.00
1541.916, 45465.00
1542.954, 45228.00
1543.992, 45440.00
1545.029, 45439.00
1546.067, 45362.00
1547.104, 45513.00
1548.142, 45772.00
1549.179, 45781.00
1550.216, 45853.17
1551.253, 45571.00
1552.290, 45741.00
1553.326, 45735.00
1554.363, 45473.00
1555.399, 45735.00
1556.436, 45812.00
1557.472, 45748.00
1558.508, 45564.00
1559.544, 45921.00
1560.579, 46011.00
1561.615, 45716.00
1562.651, 45990.00
1563.686, 45897.00
1564.721, 45914.00
1565.756, 45898.00
1566.791, 45981.00
1567.826, 46044.00
1568.861, 46175.00
1569.895, 46155.00
1570.930, 46382.00
1571.964, 46278.00
1572.998, 46348.00
1574.032, 46302.00
1575.066, 46354.00
1576.100, 46470.00
1577.134, 46178.00
1578.167, 46428.00
##END=



