##NAMES=Metatorbernite
##RRUFFID=R070686
##IDEAL CHEMISTRY=Cu^2+^(U^6+^O_2_)_2_(PO_4_)_2_&#183;8H_2_O
##LOCALITY=Fichtelgebirge, Franconia, Bavaria, Germany
##OWNER=RRUFF
##SOURCE=Michael Scott
##DESCRIPTION=Green tabular crystals
##STATUS=The identification of this mineral has been confirmed by X-ray diffraction.
##URL=rruff.info/R070686
##PIN_ID=M01699
##ORIENTATION=Laser parallel to c* (0 0 1). Fiducial mark perpendicular to laser is parallel to b [0 1 0]
136.1040, 6111.000
137.3420, 6091.717
138.5800, 6089.000
139.8180, 6082.000
141.0560, 6100.000
142.2940, 6114.000
143.5310, 6188.000
144.7680, 6238.000
146.0050, 6244.688
147.2420, 6299.000
148.4790, 6280.000
149.7150, 6331.000
150.9510, 6388.000
152.1870, 6458.000
153.4230, 6570.000
154.6590, 6458.000
155.8940, 6491.000
157.1300, 6538.000
158.3650, 6641.000
159.6000, 6703.000
160.8340, 6843.000
162.0690, 6854.000
163.3030, 7090.000
164.5370, 7113.000
165.7710, 7253.000
167.0050, 7169.000
168.2380, 7186.000
169.4720, 7237.000
170.7050, 7265.000
171.9380, 7320.000
173.1700, 7503.000
174.4030, 7561.000
175.6350, 7678.000
176.8680, 7708.000
178.1000, 8113.000
179.3310, 8144.000
180.5630, 8425.000
181.7940, 8934.000
183.0260, 9008.000
184.2570, 9380.000
185.4870, 10088.00
186.7180, 10185.00
187.9480, 10759.00
189.1790, 11261.00
190.4090, 11566.00
191.6390, 11817.00
192.8680, 12150.00
194.0980, 12295.00
195.3270, 11964.00
196.5560, 11670.00
197.7850, 11011.00
199.0140, 10411.00
200.2420, 9932.000
201.4710, 9464.000
202.6990, 9031.000
203.9270, 8866.000
205.1550, 8699.000
206.3820, 8839.000
207.6090, 8596.000
208.8370, 8791.000
210.0640, 8719.000
211.2900, 9046.000
212.5170, 9242.000
213.7440, 9225.000
214.9700, 9459.000
216.1960, 9595.000
217.4220, 9812.000
218.6470, 9988.000
219.8730, 9948.000
221.0980, 9967.000
222.3230, 10024.00
223.5480, 9998.000
224.7730, 9920.000
225.9970, 9776.000
227.2220, 9556.000
228.4460, 9473.000
229.6700, 9361.000
230.8940, 9173.000
232.1170, 9160.000
233.3400, 8920.000
234.5640, 8765.000
235.7870, 8822.000
237.0100, 8584.000
238.2320, 8611.000
239.4550, 8417.000
240.6770, 8643.000
241.8990, 8571.000
243.1210, 8572.000
244.3420, 8659.000
245.5640, 8668.000
246.7850, 8696.000
248.0060, 8730.000
249.2270, 8818.000
250.4480, 8976.000
251.6690, 8911.000
252.8890, 8874.000
254.1090, 8947.000
255.3290, 8657.000
256.5490, 8965.000
257.7680, 8850.000
258.9880, 8858.000
260.2070, 9021.000
261.4260, 9028.000
262.6450, 9220.000
263.8640, 9045.000
265.0820, 9166.000
266.3000, 9088.000
267.5180, 9188.000
268.7360, 9266.000
269.9540, 9198.000
271.1720, 9313.000
272.3890, 9355.000
273.6060, 9413.000
274.8230, 9574.000
276.0400, 9475.000
277.2560, 9734.000
278.4730, 9755.000
279.6890, 9764.000
280.9050, 9980.000
282.1210, 10104.00
283.3370, 10153.00
284.5520, 10223.00
285.7670, 10365.00
286.9820, 10270.00
288.1970, 10401.00
289.4120, 10390.00
290.6270, 10388.00
291.8410, 10413.00
293.0550, 10457.00
294.2690, 10278.00
295.4830, 10331.00
296.6970, 10318.00
297.9100, 10415.00
299.1230, 10514.00
300.3360, 10548.00
301.5490, 10355.00
302.7620, 10275.00
303.9740, 10462.00
305.1860, 10519.00
306.3990, 10503.00
307.6110, 10526.00
308.8220, 10539.00
310.0340, 10495.00
311.2450, 10650.00
312.4560, 10487.00
313.6670, 10644.00
314.8780, 10505.00
316.0890, 10560.00
317.2990, 10591.00
318.5090, 10448.00
319.7200, 10632.00
320.9290, 10517.00
322.1390, 10497.00
323.3490, 10515.00
324.5580, 10686.00
325.7670, 10742.00
326.9760, 10601.00
328.1850, 10687.00
329.3930, 10665.00
330.6020, 10800.00
331.8100, 10811.00
333.0180, 10865.00
334.2260, 10929.00
335.4340, 10976.00
336.6410, 11005.00
337.8480, 11021.00
339.0550, 10990.00
340.2620, 11062.00
341.4690, 11152.00
342.6760, 11137.00
343.8820, 11308.00
345.0880, 11195.00
346.2940, 11297.00
347.5000, 11330.00
348.7060, 11202.00
349.9110, 11448.00
351.1160, 11268.00
352.3210, 11243.00
353.5260, 11371.00
354.7310, 11356.00
355.9360, 11350.00
357.1400, 11492.00
358.3440, 11426.00
359.5480, 11552.00
360.7520, 11510.00
361.9550, 11536.00
363.1590, 11641.00
364.3620, 11682.00
365.5650, 11724.00
366.7680, 11826.00
367.9710, 11702.00
369.1730, 11860.00
370.3760, 11767.00
371.5780, 11770.00
372.7800, 11800.00
373.9810, 11944.00
375.1830, 12029.00
376.3840, 12006.00
377.5860, 12096.00
378.7870, 12120.00
379.9880, 12054.00
381.1880, 12176.00
382.3890, 12209.00
383.5890, 12237.74
384.7890, 12164.00
385.9890, 12341.00
387.1890, 12283.00
388.3880, 12347.00
389.5880, 12519.00
390.7870, 12639.00
391.9860, 12908.00
393.1850, 13167.00
394.3840, 13501.00
395.5820, 13939.00
396.7800, 14455.00
397.9790, 14701.00
399.1770, 15150.00
400.3740, 15555.00
401.5720, 15960.00
402.7690, 16140.00
403.9670, 16248.00
405.1640, 16447.00
406.3600, 16727.00
407.5570, 16523.00
408.7540, 16137.00
409.9500, 15774.00
411.1460, 14956.00
412.3420, 14596.00
413.5380, 13917.00
414.7330, 13680.00
415.9290, 13386.00
417.1240, 13137.00
418.3190, 12986.00
419.5140, 12791.00
420.7090, 12751.00
421.9030, 12721.00
423.0970, 12644.00
424.2920, 12678.29
425.4860, 12751.00
426.6790, 12745.00
427.8730, 12730.00
429.0660, 12781.00
430.2600, 12798.00
431.4530, 13014.00
432.6460, 13021.00
433.8380, 13186.00
435.0310, 13331.00
436.2230, 13426.00
437.4150, 13567.00
438.6070, 13502.00
439.7990, 13556.00
440.9910, 13554.00
442.1820, 13630.00
443.3730, 13464.00
444.5640, 13352.00
445.7550, 12994.00
446.9460, 12889.00
448.1370, 12665.00
449.3270, 12439.00
450.5170, 12404.00
451.7070, 12129.00
452.8970, 12125.00
454.0870, 11976.00
455.2760, 12031.00
456.4650, 11893.00
457.6550, 11880.00
458.8430, 11664.00
460.0320, 11766.00
461.2210, 11635.00
462.4090, 11634.00
463.5970, 11599.00
464.7850, 11558.00
465.9730, 11431.00
467.1610, 11294.00
468.3480, 11322.00
469.5360, 11056.00
470.7230, 11049.00
471.9100, 10946.00
473.0970, 10956.00
474.2830, 10754.00
475.4700, 10658.00
476.6560, 10624.00
477.8420, 10637.00
479.0280, 10525.67
480.2140, 10475.00
481.3990, 10404.00
482.5850, 10270.00
483.7700, 10300.00
484.9550, 10091.00
486.1400, 10104.00
487.3240, 10154.00
488.5090, 10066.00
489.6930, 9926.000
490.8770, 9912.000
492.0610, 9808.000
493.2450, 9781.000
494.4290, 9849.000
495.6120, 9839.000
496.7950, 9764.000
497.9780, 9605.000
499.1610, 9647.000
500.3440, 9701.000
501.5260, 9691.000
502.7090, 9718.000
503.8910, 9495.000
505.0730, 9654.000
506.2550, 9458.000
507.4360, 9529.000
508.6180, 9526.000
509.7990, 9365.000
510.9800, 9472.000
512.1610, 9382.000
513.3420, 9321.000
514.5230, 9333.000
515.7030, 9277.000
516.8830, 9181.000
518.0630, 9193.000
519.2430, 9115.000
520.4230, 9194.000
521.6020, 9057.000
522.7820, 9088.000
523.9610, 8983.000
525.1400, 9023.000
526.3190, 8955.000
527.4970, 8946.000
528.6760, 8916.000
529.8540, 8760.000
531.0320, 8828.000
532.2100, 8812.000
533.3880, 8926.000
534.5660, 8769.000
535.7430, 8851.000
536.9200, 8798.000
538.0970, 8846.000
539.2740, 8694.000
540.4510, 8796.000
541.6270, 8691.000
542.8040, 8595.000
543.9800, 8569.000
545.1560, 8628.000
546.3320, 8428.000
547.5080, 8553.000
548.6830, 8384.000
549.8580, 8417.000
551.0340, 8383.000
552.2090, 8439.000
553.3830, 8323.000
554.5580, 8341.000
555.7320, 8472.000
556.9070, 8308.000
558.0810, 8351.000
559.2550, 8225.000
560.4280, 8142.000
561.6020, 8224.000
562.7750, 8161.000
563.9490, 8111.000
565.1220, 8041.000
566.2950, 7985.000
567.4670, 7958.000
568.6400, 7993.000
569.8120, 8037.000
570.9840, 7901.000
572.1560, 7956.000
573.3280, 7847.000
574.5000, 7808.000
575.6710, 7773.000
576.8430, 7756.000
578.0140, 7736.102
579.1850, 7708.920
580.3560, 7715.000
581.5260, 7669.000
582.6970, 7653.000
583.8670, 7649.000
585.0370, 7529.000
586.2070, 7554.000
587.3770, 7487.000
588.5460, 7597.000
589.7160, 7550.000
590.8850, 7491.000
592.0540, 7391.000
593.2230, 7475.000
594.3920, 7373.000
595.5600, 7449.000
596.7290, 7460.000
597.8970, 7340.000
599.0650, 7432.000
600.2330, 7477.000
601.4000, 7461.000
602.5680, 7557.000
603.7350, 7427.000
604.9020, 7361.000
606.0690, 7441.000
607.2360, 7405.000
608.4030, 7436.000
609.5690, 7391.000
610.7360, 7347.000
611.9020, 7380.651
613.0680, 7431.000
614.2340, 7395.000
615.3990, 7342.000
616.5650, 7294.000
617.7300, 7234.000
618.8950, 7234.627
620.0600, 7432.000
621.2250, 7269.000
622.3890, 7325.000
623.5540, 7403.000
624.7180, 7277.000
625.8820, 7284.000
627.0460, 7306.000
628.2100, 7236.000
629.3730, 7161.000
630.5370, 7176.000
631.7000, 7194.000
632.8630, 7119.000
634.0260, 7066.000
635.1890, 7180.000
636.3510, 7074.000
637.5140, 7067.000
638.6760, 7095.000
639.8380, 7016.000
641.0000, 7114.000
642.1610, 7012.000
643.3230, 7051.000
644.4840, 7020.000
645.6450, 7018.196
646.8060, 6979.000
647.9670, 7032.000
649.1280, 6952.000
650.2880, 6920.000
651.4490, 6859.000
652.6090, 6885.000
653.7690, 6932.000
654.9290, 6808.000
656.0880, 6931.000
657.2480, 6877.000
658.4070, 6827.000
659.5660, 6788.000
660.7250, 6753.783
661.8840, 6810.000
663.0430, 6743.000
664.2010, 6795.000
665.3600, 6888.000
666.5180, 6668.000
667.6760, 6723.000
668.8330, 6711.000
669.9910, 6767.000
671.1480, 6705.000
672.3060, 6742.000
673.4630, 6795.000
674.6200, 6727.000
675.7770, 6672.000
676.9330, 6645.000
678.0900, 6614.000
679.2460, 6650.000
680.4020, 6554.000
681.5580, 6629.000
682.7140, 6642.000
683.8690, 6566.000
685.0250, 6396.000
686.1800, 6509.000
687.3350, 6449.000
688.4900, 6520.000
689.6450, 6500.000
690.7990, 6530.000
691.9540, 6470.000
693.1080, 6443.000
694.2620, 6490.000
695.4160, 6432.000
696.5700, 6410.000
697.7230, 6498.000
698.8770, 6404.000
700.0300, 6453.000
701.1830, 6436.000
702.3360, 6409.000
703.4890, 6366.000
704.6410, 6396.833
705.7930, 6378.627
706.9460, 6458.000
708.0980, 6371.000
709.2500, 6399.000
710.4010, 6351.000
711.5530, 6365.000
712.7040, 6310.000
713.8560, 6455.000
715.0070, 6408.000
716.1580, 6288.000
717.3080, 6293.000
718.4590, 6460.000
719.6090, 6313.000
720.7590, 6358.000
721.9090, 6385.000
723.0590, 6328.000
724.2090, 6343.000
725.3590, 6286.000
726.5080, 6345.000
727.6570, 6240.000
728.8060, 6236.000
729.9550, 6275.000
731.1040, 6368.000
732.2530, 6295.000
733.4010, 6208.000
734.5490, 6311.000
735.6970, 6199.000
736.8450, 6217.000
737.9930, 6192.000
739.1400, 6315.000
740.2880, 6160.000
741.4350, 6228.000
742.5820, 6155.000
743.7290, 6203.000
744.8760, 6174.000
746.0220, 6159.000
747.1690, 6137.000
748.3150, 6170.000
749.4610, 6163.000
750.6070, 6208.000
751.7530, 6253.000
752.8980, 6228.000
754.0440, 6319.000
755.1890, 6253.000
756.3340, 6242.000
757.4790, 6332.000
758.6240, 6216.000
759.7680, 6194.000
760.9130, 6224.000
762.0570, 6254.000
763.2010, 6286.000
764.3450, 6138.000
765.4890, 6275.000
766.6320, 6235.000
767.7760, 6354.000
768.9190, 6263.000
770.0620, 6351.000
771.2050, 6322.000
772.3480, 6251.000
773.4900, 6319.000
774.6330, 6297.000
775.7750, 6381.000
776.9170, 6348.000
778.0590, 6398.000
779.2010, 6358.000
780.3420, 6441.000
781.4840, 6555.000
782.6250, 6589.000
783.7660, 6602.000
784.9070, 6628.000
786.0480, 6605.000
787.1890, 6675.000
788.3290, 6682.000
789.4690, 6833.000
790.6100, 6861.000
791.7490, 6888.000
792.8890, 7178.000
794.0290, 7066.000
795.1680, 7258.000
796.3080, 7490.000
797.4470, 7488.000
798.5860, 7571.000
799.7250, 7688.000
800.8630, 7827.000
802.0020, 8019.000
803.1400, 8130.000
804.2780, 8326.000
805.4160, 8642.000
806.5540, 8766.000
807.6920, 9127.000
808.8300, 9206.000
809.9670, 9797.000
811.1040, 10247.00
812.2410, 10788.00
813.3780, 11616.00
814.5150, 12525.00
815.6510, 13731.00
816.7880, 15967.00
817.9240, 18857.00
819.0600, 22389.00
820.1960, 26957.00
821.3320, 32109.00
822.4670, 37573.00
823.6030, 43459.00
824.7380, 49536.00
825.8730, 54317.00
827.0080, 54854.00
828.1430, 50659.00
829.2770, 42902.00
830.4120, 34078.00
831.5460, 26820.00
832.6800, 20794.00
833.8140, 16959.00
834.9480, 14517.00
836.0810, 12824.00
837.2150, 11899.00
838.3480, 11159.00
839.4810, 10723.00
840.6140, 10257.00
841.7470, 9699.000
842.8800, 9246.000
844.0120, 8821.131
845.1450, 8247.000
846.2770, 8042.000
847.4090, 7768.000
848.5410, 7433.000
849.6720, 7408.000
850.8040, 7315.000
851.9350, 7164.000
853.0660, 7095.000
854.1970, 6968.000
855.3280, 6941.000
856.4590, 6900.000
857.5900, 7001.000
858.7200, 6733.000
859.8500, 6726.000
860.9800, 6736.000
862.1100, 6577.000
863.2400, 6586.000
864.3700, 6368.000
865.4990, 6451.000
866.6280, 6374.000
867.7570, 6334.000
868.8860, 6328.000
870.0150, 6295.000
871.1440, 6368.000
872.2720, 6379.000
873.4010, 6379.000
874.5290, 6386.612
875.6570, 6423.000
876.7850, 6322.000
877.9120, 6417.000
879.0400, 6331.000
880.1670, 6390.000
881.2940, 6404.000
882.4210, 6457.000
883.5480, 6502.889
884.6750, 6543.000
885.8020, 6602.000
886.9280, 6663.000
888.0540, 6714.376
889.1800, 6710.000
890.3060, 6796.000
891.4320, 6889.000
892.5580, 6940.000
893.6830, 7067.000
894.8080, 6975.000
895.9330, 7203.000
897.0580, 7172.000
898.1830, 7167.000
899.3080, 7253.000
900.4320, 7260.000
901.5570, 7276.000
902.6810, 7260.000
903.8050, 7240.532
904.9290, 7234.826
906.0520, 7160.000
907.1760, 7154.000
908.2990, 7084.000
909.4230, 6936.000
910.5460, 6878.000
911.6690, 6799.000
912.7910, 6823.000
913.9140, 6737.000
915.0360, 6739.000
916.1590, 6693.000
917.2810, 6654.000
918.4030, 6634.000
919.5240, 6600.546
920.6460, 6609.000
921.7680, 6568.000
922.8890, 6578.000
924.0100, 6595.000
925.1310, 6467.000
926.2520, 6412.000
927.3730, 6518.000
928.4930, 6564.000
929.6130, 6469.000
930.7340, 6590.000
931.8540, 6485.000
932.9740, 6525.000
934.0930, 6527.000
935.2130, 6479.000
936.3320, 6579.000
937.4520, 6496.000
938.5710, 6603.000
939.6900, 6609.000
940.8090, 6681.000
941.9270, 6784.000
943.0460, 6727.000
944.1640, 6792.000
945.2820, 6781.000
946.4000, 6893.000
947.5180, 6859.000
948.6360, 6957.000
949.7530, 6995.000
950.8710, 7067.000
951.9880, 7167.000
953.1050, 7291.000
954.2220, 7276.000
955.3390, 7503.000
956.4550, 7522.000
957.5720, 7659.000
958.6880, 7760.000
959.8040, 7854.000
960.9200, 7917.000
962.0360, 8059.000
963.1520, 8068.000
964.2670, 8194.000
965.3820, 8218.000
966.4980, 8460.000
967.6130, 8683.000
968.7280, 9034.000
969.8420, 9170.000
970.9570, 9563.000
972.0710, 9956.000
973.1850, 10639.00
974.3000, 11308.00
975.4140, 12193.00
976.5270, 13397.00
977.6410, 14790.00
978.7540, 16423.00
979.8680, 18454.00
980.9810, 21324.00
982.0940, 24288.00
983.2070, 27675.00
984.3200, 31765.00
985.4320, 36076.00
986.5440, 40095.00
987.6570, 43693.00
988.7690, 45962.00
989.8810, 47344.00
990.9920, 47429.00
992.1040, 46863.00
993.2160, 45938.00
994.3270, 44815.00
995.4380, 43927.00
996.5490, 42306.00
997.6600, 39299.00
998.7710, 35804.00
999.8810, 31693.00
1000.991, 27902.00
1002.102, 24352.00
1003.212, 21254.00
1004.322, 19050.00
1005.431, 17189.00
1006.541, 15415.00
1007.651, 14027.00
1008.760, 12813.00
1009.869, 11726.00
1010.978, 11007.00
1012.087, 10395.00
1013.195, 9850.000
1014.304, 9427.000
1015.412, 9192.000
1016.521, 8895.000
1017.629, 8765.000
1018.737, 8537.000
1019.844, 8402.916
1020.952, 8417.000
1022.059, 8215.000
1023.167, 8171.000
1024.274, 8174.000
1025.381, 8074.000
1026.488, 8066.000
1027.594, 8052.000
1028.701, 7865.000
1029.807, 7922.000
1030.913, 7882.000
1032.019, 7940.000
1033.125, 7751.000
1034.231, 7838.000
1035.337, 7805.000
1036.442, 7764.000
1037.548, 7762.000
1038.653, 7731.000
1039.758, 7804.000
1040.863, 7787.000
1041.967, 7780.000
1043.072, 7710.000
1044.176, 7762.000
1045.280, 7717.399
1046.384, 7862.000
1047.488, 7697.000
1048.592, 7799.000
1049.696, 7829.000
1050.799, 7784.000
1051.903, 7820.000
1053.006, 7755.000
1054.109, 7878.000
1055.212, 7907.000
1056.314, 7801.000
1057.417, 7706.000
1058.519, 7727.620
1059.621, 7806.000
1060.724, 7787.000
1061.826, 7756.000
1062.927, 7924.000
1064.029, 7878.000
1065.130, 7849.000
1066.232, 7922.000
1067.333, 7886.000
1068.434, 7893.000
1069.535, 7968.000
1070.636, 7955.000
1071.736, 7920.000
1072.837, 7846.000
1073.937, 8032.000
1075.037, 8049.000
1076.137, 8032.000
1077.237, 7985.000
1078.337, 8010.000
1079.436, 8030.000
1080.535, 8003.000
1081.635, 8059.000
1082.734, 8079.000
1083.833, 8140.000
1084.931, 8076.000
1086.030, 8177.000
1087.128, 8159.000
1088.227, 8198.000
1089.325, 8295.000
1090.423, 8237.000
1091.521, 8369.000
1092.618, 8417.000
1093.716, 8290.000
1094.813, 8270.000
1095.911, 8224.000
1097.008, 8495.000
1098.105, 8370.000
1099.202, 8332.000
1100.298, 8567.000
1101.395, 8373.000
1102.491, 8344.000
1103.587, 8401.000
1104.683, 8393.000
1105.779, 8507.000
1106.875, 8572.000
1107.971, 8430.000
1109.066, 8566.000
1110.161, 8576.000
1111.256, 8432.000
1112.351, 8475.000
1113.446, 8465.275
1114.541, 8641.000
1115.636, 8549.000
1116.730, 8604.000
1117.824, 8720.000
1118.918, 8685.000
1120.012, 8777.000
1121.106, 8803.000
1122.200, 8834.280
1123.293, 8816.000
1124.387, 8874.000
1125.480, 8902.000
1126.573, 8828.000
1127.666, 8859.000
1128.759, 8833.000
1129.851, 8845.426
1130.944, 8866.000
1132.036, 8907.000
1133.128, 8932.000
1134.220, 8992.000
1135.312, 9019.000
1136.404, 8928.000
1137.495, 8953.000
1138.587, 8967.000
1139.678, 9031.000
1140.769, 9013.000
1141.860, 9085.000
1142.951, 9148.000
1144.041, 9097.000
1145.132, 9126.000
1146.222, 9151.000
1147.313, 9206.000
1148.403, 9182.000
1149.493, 9248.000
1150.582, 9301.000
1151.672, 9290.000
1152.761, 9321.627
1153.851, 9354.000
1154.940, 9305.000
1156.029, 9280.000
1157.118, 9230.000
1158.207, 9245.000
1159.295, 9409.000
1160.384, 9294.000
1161.472, 9427.000
1162.560, 9330.000
1163.648, 9413.000
1164.736, 9493.000
1165.824, 9416.000
1166.911, 9450.000
1167.999, 9526.000
1169.086, 9509.000
1170.173, 9543.000
1171.260, 9598.978
1172.347, 9536.000
1173.434, 9713.000
1174.520, 9650.000
1175.606, 9714.000
1176.693, 9693.000
1177.779, 9711.000
1178.865, 9852.000
1179.951, 9850.000
1181.036, 9749.000
1182.122, 9923.000
1183.207, 9734.000
1184.292, 9685.000
1185.377, 9855.000
1186.462, 9864.000
1187.547, 9998.000
1188.632, 9860.000
1189.716, 9994.000
1190.800, 9954.000
1191.885, 9966.000
1192.969, 9929.000
1194.052, 10036.00
1195.136, 10099.00
1196.220, 10057.00
1197.303, 10033.00
1198.387, 10149.00
1199.470, 10200.00
1200.553, 10010.00
1201.636, 10103.00
1202.718, 10143.00
1203.801, 10124.00
1204.883, 10161.00
1205.966, 10160.00
1207.048, 10129.00
1208.130, 10154.00
1209.211, 10156.89
1210.293, 10122.00
1211.375, 10222.00
1212.456, 10165.00
1213.537, 10254.00
1214.618, 10239.00
1215.699, 10281.00
1216.780, 10196.00
1217.861, 10258.00
1218.941, 10142.00
1220.022, 10301.00
1221.102, 10061.00
1222.182, 10190.00
1223.262, 10229.00
1224.342, 10228.00
1225.422, 10268.65
1226.501, 10256.00
1227.580, 10251.00
1228.660, 10197.00
1229.739, 10163.00
1230.818, 10249.00
1231.896, 10314.00
1232.975, 10204.00
1234.054, 10109.00
1235.132, 10242.00
1236.210, 10124.00
1237.288, 10150.00
1238.366, 10196.00
1239.444, 10181.00
1240.521, 10093.00
1241.599, 10130.00
1242.676, 10000.00
1243.753, 9999.000
1244.830, 10052.00
1245.907, 10020.00
1246.984, 9979.000
1248.061, 9990.000
1249.137, 9991.000
1250.214, 9960.000
1251.290, 10046.00
1252.366, 9944.000
1253.442, 9920.000
1254.517, 9898.070
1255.593, 9797.000
1256.668, 9820.000
1257.744, 9833.000
1258.819, 9827.000
1259.894, 9828.000
1260.969, 9806.000
1262.044, 9664.000
1263.118, 9790.000
1264.193, 9618.000
1265.267, 9737.000
1266.341, 9554.000
1267.415, 9544.000
1268.489, 9694.000
1269.563, 9594.000
1270.636, 9571.000
1271.710, 9431.000
1272.783, 9549.000
1273.856, 9469.000
1274.929, 9548.000
1276.002, 9432.000
1277.075, 9478.000
1278.147, 9447.000
1279.220, 9332.000
1280.292, 9199.000
1281.364, 9312.000
1282.436, 9254.000
1283.508, 9279.000
1284.580, 9280.000
1285.652, 9262.000
1286.723, 9225.000
1287.794, 9164.000
1288.865, 9113.000
1289.936, 9105.000
1291.007, 9103.000
1292.078, 9041.000
1293.149, 9126.000
1294.219, 9058.000
1295.289, 8919.000
1296.360, 8927.000
1297.430, 8969.000
1298.499, 8884.000
1299.569, 8839.000
1300.639, 8834.000
1301.708, 8854.000
1302.778, 8812.000
1303.847, 8854.000
1304.916, 8745.000
1305.985, 8679.000
1307.053, 8555.000
1308.122, 8568.988
1309.190, 8521.000
1310.259, 8580.000
1311.327, 8593.000
1312.395, 8549.000
1313.463, 8472.000
1314.531, 8448.000
1315.598, 8595.000
1316.666, 8452.000
1317.733, 8378.000
1318.800, 8632.000
1319.867, 8522.000
1320.934, 8379.000
1322.001, 8430.000
1323.067, 8387.000
1324.134, 8207.000
1325.200, 8386.000
1326.266, 8336.000
1327.333, 8274.000
1328.398, 8212.000
1329.464, 8112.000
1330.530, 8153.000
1331.595, 8162.000
1332.661, 8244.000
1333.726, 8211.505
1334.791, 8061.000
1335.856, 8139.000
1336.921, 8045.000
1337.985, 7939.000
1339.050, 8074.000
1340.114, 7993.000
1341.178, 7955.000
1342.242, 7973.000
1343.306, 7923.222
1344.370, 7893.000
1345.434, 7900.000
1346.497, 7871.000
1347.561, 7878.000
1348.624, 7836.000
1349.687, 7837.000
1350.750, 7842.000
1351.813, 7829.000
1352.876, 7838.000
1353.938, 7819.000
1355.000, 7705.000
1356.063, 7751.000
1357.125, 7683.632
1358.187, 7725.000
1359.249, 7631.000
1360.310, 7677.000
1361.372, 7690.000
1362.433, 7717.000
1363.495, 7724.000
1364.556, 7624.000
1365.617, 7646.000
1366.678, 7537.000
1367.738, 7470.000
1368.799, 7626.000
1369.859, 7485.000
1370.920, 7540.000
1371.980, 7495.000
1373.040, 7462.000
1374.100, 7448.000
1375.159, 7435.280
1376.219, 7398.000
1377.278, 7418.000
1378.338, 7412.000
1379.397, 7362.000
1380.456, 7410.000
1381.515, 7327.000
1382.574, 7305.000
1383.632, 7300.000
1384.691, 7208.000
1385.749, 7350.000
1386.807, 7389.000
1387.865, 7309.000
1388.923, 7280.000
1389.981, 7250.000
1391.039, 7103.000
1392.096, 7255.000
1393.154, 7083.000
1394.211, 7230.000
1395.268, 7184.000
1396.325, 7081.000
1397.382, 7118.000
1398.439, 6992.000
1399.495, 6993.000
1400.552, 6990.348
1401.608, 6951.072
1402.664, 7024.000
1403.720, 6961.000
1404.776, 7020.000
1405.832, 7066.000
1406.887, 6938.000
1407.943, 6910.000
1408.998, 6914.000
1410.053, 6907.000
1411.108, 6962.000
1412.163, 6912.000
1413.218, 6988.000
1414.272, 6889.000
1415.327, 6872.000
1416.381, 6934.000
1417.435, 6782.000
1418.489, 6802.000
1419.543, 6876.000
1420.597, 6834.000
1421.651, 6869.000
1422.704, 6889.000
1423.758, 6776.000
1424.811, 6785.000
1425.864, 6772.000
1426.917, 6766.000
1427.970, 6777.684
1429.023, 6820.000
1430.075, 6766.000
1431.128, 6764.000
1432.180, 6689.000
1433.232, 6724.000
1434.284, 6695.000
1435.336, 6668.000
1436.388, 6781.000
1437.439, 6658.000
1438.491, 6670.000
1439.542, 6637.000
1440.593, 6741.000
1441.644, 6754.000
1442.695, 6706.000
1443.746, 6663.000
1444.797, 6639.000
1445.847, 6648.000
1446.898, 6642.000
1447.948, 6676.000
1448.998, 6609.000
1450.048, 6632.000
1451.098, 6558.000
1452.147, 6593.000
1453.197, 6619.000
1454.246, 6613.000
1455.296, 6575.000
1456.345, 6616.000
1457.394, 6625.000
1458.443, 6539.000
1459.491, 6538.000
1460.540, 6606.000
1461.588, 6499.000
1462.637, 6420.000
1463.685, 6555.000
1464.733, 6425.000
1465.781, 6430.000
1466.829, 6450.000
1467.876, 6379.000
1468.924, 6463.000
1469.971, 6429.000
1471.019, 6417.000
1472.066, 6313.000
1473.113, 6422.000
1474.160, 6347.000
1475.206, 6378.000
1476.253, 6416.000
1477.299, 6457.000
1478.346, 6343.000
1479.392, 6358.000
1480.438, 6294.000
1481.484, 6238.000
1482.529, 6288.000
1483.575, 6337.000
1484.620, 6319.000
1485.666, 6285.000
1486.711, 6308.000
1487.756, 6242.000
1488.801, 6312.000
1489.846, 6159.000
1490.891, 6164.000
1491.935, 6273.000
1492.980, 6305.000
1494.024, 6256.000
1495.068, 6266.000
1496.112, 6182.000
1497.156, 6258.000
1498.200, 6126.000
1499.243, 6145.000
1500.287, 6180.000
1501.330, 6244.000
1502.373, 6206.000
1503.416, 6194.000
1504.459, 6194.000
1505.502, 6176.000
1506.545, 6086.000
1507.587, 6132.000
1508.630, 6166.000
1509.672, 6024.000
1510.714, 6098.000
1511.756, 6099.000
1512.798, 6143.000
1513.840, 6139.000
1514.881, 6093.000
1515.923, 6122.000
1516.964, 6143.000
1518.005, 6106.000
1519.046, 6119.374
1520.087, 6003.000
1521.128, 6082.000
1522.169, 6041.000
1523.209, 5990.000
1524.249, 6028.000
1525.290, 5980.513
1526.330, 6031.000
1527.370, 5959.000
1528.410, 6038.000
1529.449, 6064.000
1530.489, 6003.000
1531.528, 5979.000
1532.568, 5933.000
1533.607, 6049.000
1534.646, 6076.000
1535.685, 5939.000
1536.724, 6054.000
1537.762, 6003.000
1538.801, 5817.000
1539.839, 5940.000
1540.878, 5985.000
1541.916, 6080.000
1542.954, 5846.000
1543.992, 5913.000
1545.029, 5890.000
1546.067, 5892.000
1547.104, 5841.000
1548.142, 5844.000
1549.179, 5924.000
1550.216, 5806.000
1551.253, 6035.000
1552.290, 5810.000
1553.326, 5897.000
1554.363, 5917.000
1555.399, 5939.000
1556.436, 5953.083
1557.472, 5869.000
1558.508, 5909.000
1559.544, 5878.000
1560.579, 5795.000
1561.615, 5799.000
1562.651, 5864.000
1563.686, 5866.000
1564.721, 5818.000
1565.756, 5813.000
1566.791, 5811.144
1567.826, 5781.000
1568.861, 5804.000
1569.895, 5792.000
1570.930, 5758.000
1571.964, 5810.000
1572.998, 5821.000
1574.032, 5824.000
1575.066, 5751.000
1576.100, 5676.000
1577.134, 5742.000
1578.167, 5857.000
##END=



