##NAMES=Metatorbernite
##RRUFFID=R070686
##IDEAL CHEMISTRY=Cu^2+^(U^6+^O_2_)_2_(PO_4_)_2_&#183;8H_2_O
##LOCALITY=Fichtelgebirge, Franconia, Bavaria, Germany
##OWNER=RRUFF
##SOURCE=Michael Scott
##DESCRIPTION=Green tabular crystals
##STATUS=The identification of this mineral has been confirmed by X-ray diffraction.
##URL=rruff.info/R070686
##PIN_ID=M00978
##ORIENTATION=Laser parallel to -a* (-1 0 0). Fiducial mark perpendicular to laser is parallel to c [0 0 1]
170.7050, 9048.000
171.9380, 9235.000
173.1700, 9304.000
174.4030, 9351.000
175.6350, 9570.000
176.8680, 9521.000
178.1000, 9807.000
179.3310, 9903.000
180.5630, 10173.00
181.7940, 10327.00
183.0260, 10740.00
184.2570, 11162.00
185.4870, 11401.00
186.7180, 11833.00
187.9480, 12234.00
189.1790, 12638.00
190.4090, 12995.00
191.6390, 13400.00
192.8680, 13683.00
194.0980, 13789.00
195.3270, 13537.00
196.5560, 13247.00
197.7850, 12892.00
199.0140, 12413.00
200.2420, 12053.00
201.4710, 11492.00
202.6990, 11252.00
203.9270, 10930.00
205.1550, 10860.00
206.3820, 10850.00
207.6090, 10909.00
208.8370, 10892.00
210.0640, 11015.00
211.2900, 10953.00
212.5170, 11147.00
213.7440, 11360.00
214.9700, 11420.00
216.1960, 11686.00
217.4220, 11902.00
218.6470, 11891.00
219.8730, 12104.00
221.0980, 12227.00
222.3230, 12248.00
223.5480, 12324.00
224.7730, 12133.00
225.9970, 12105.00
227.2220, 11935.00
228.4460, 11760.00
229.6700, 11837.00
230.8940, 11659.00
232.1170, 11417.00
233.3400, 11317.00
234.5640, 11099.00
235.7870, 11219.00
237.0100, 11122.00
238.2320, 11092.00
239.4550, 11103.71
240.6770, 11189.00
241.8990, 11024.00
243.1210, 11062.00
244.3420, 10951.00
245.5640, 11112.00
246.7850, 11145.00
248.0060, 11204.00
249.2270, 11152.00
250.4480, 11251.00
251.6690, 11106.00
252.8890, 11130.00
254.1090, 11144.00
255.3290, 11253.00
256.5490, 11248.00
257.7680, 11175.00
258.9880, 11272.00
260.2070, 11228.00
261.4260, 11345.00
262.6450, 11347.00
263.8640, 11271.00
265.0820, 11312.00
266.3000, 11331.00
267.5180, 11453.00
268.7360, 11494.00
269.9540, 11646.00
271.1720, 11687.00
272.3890, 11745.50
273.6060, 11694.00
274.8230, 11792.00
276.0400, 11877.00
277.2560, 11821.00
278.4730, 12006.00
279.6890, 12123.00
280.9050, 12036.00
282.1210, 12239.00
283.3370, 12311.00
284.5520, 12430.00
285.7670, 12313.00
286.9820, 12457.00
288.1970, 12478.00
289.4120, 12571.00
290.6270, 12581.00
291.8410, 12645.00
293.0550, 12694.00
294.2690, 12674.38
295.4830, 12558.00
296.6970, 12631.00
297.9100, 12561.00
299.1230, 12518.00
300.3360, 12562.00
301.5490, 12577.00
302.7620, 12609.00
303.9740, 12671.00
305.1860, 12645.00
306.3990, 12596.00
307.6110, 12557.00
308.8220, 12668.00
310.0340, 12675.00
311.2450, 12835.00
312.4560, 12712.00
313.6670, 12781.00
314.8780, 12815.00
316.0890, 12790.00
317.2990, 12822.00
318.5090, 12653.00
319.7200, 12779.00
320.9290, 12790.00
322.1390, 12685.00
323.3490, 12743.00
324.5580, 12740.00
325.7670, 12932.00
326.9760, 12939.00
328.1850, 12947.00
329.3930, 13065.00
330.6020, 12991.00
331.8100, 13043.00
333.0180, 13116.00
334.2260, 13123.00
335.4340, 13166.00
336.6410, 13280.00
337.8480, 13211.00
339.0550, 13239.00
340.2620, 13348.00
341.4690, 13412.00
342.6760, 13406.00
343.8820, 13463.97
345.0880, 13527.00
346.2940, 13505.00
347.5000, 13491.00
348.7060, 13527.00
349.9110, 13584.00
351.1160, 13816.00
352.3210, 13621.00
353.5260, 13902.00
354.7310, 13950.00
355.9360, 13952.00
357.1400, 13887.00
358.3440, 13975.00
359.5480, 14101.00
360.7520, 14134.00
361.9550, 14244.00
363.1590, 14358.00
364.3620, 14209.00
365.5650, 14336.00
366.7680, 14550.00
367.9710, 14433.00
369.1730, 14453.00
370.3760, 14532.00
371.5780, 14627.00
372.7800, 14834.00
373.9810, 14606.00
375.1830, 14627.00
376.3840, 14818.00
377.5860, 14924.00
378.7870, 14933.00
379.9880, 14902.00
381.1880, 15091.00
382.3890, 15015.00
383.5890, 15239.00
384.7890, 15319.00
385.9890, 15232.00
387.1890, 15281.00
388.3880, 15331.00
389.5880, 15528.00
390.7870, 15803.00
391.9860, 15822.00
393.1850, 15815.00
394.3840, 16196.00
395.5820, 16470.00
396.7800, 16914.00
397.9790, 17308.00
399.1770, 17771.00
400.3740, 18153.00
401.5720, 18391.00
402.7690, 18874.00
403.9670, 19059.00
405.1640, 19449.00
406.3600, 19689.00
407.5570, 19480.00
408.7540, 19691.00
409.9500, 19296.00
411.1460, 18674.00
412.3420, 18141.00
413.5380, 17702.00
414.7330, 17304.32
415.9290, 16994.42
417.1240, 16744.00
418.3190, 16609.00
419.5140, 16498.00
420.7090, 16397.36
421.9030, 16347.00
423.0970, 16315.00
424.2920, 16420.00
425.4860, 16425.00
426.6790, 16526.00
427.8730, 16535.00
429.0660, 16657.00
430.2600, 16586.00
431.4530, 16771.00
432.6460, 16758.00
433.8380, 17045.00
435.0310, 17105.00
436.2230, 17128.00
437.4150, 17389.00
438.6070, 17493.00
439.7990, 17747.00
440.9910, 17670.00
442.1820, 17783.00
443.3730, 17617.00
444.5640, 17625.00
445.7550, 17463.00
446.9460, 17097.00
448.1370, 17121.00
449.3270, 16818.00
450.5170, 16759.00
451.7070, 16541.00
452.8970, 16642.00
454.0870, 16388.00
455.2760, 16428.00
456.4650, 16374.00
457.6550, 16475.00
458.8430, 16287.00
460.0320, 16234.00
461.2210, 16267.00
462.4090, 16224.00
463.5970, 16272.00
464.7850, 16257.00
465.9730, 16130.00
467.1610, 16153.00
468.3480, 15931.00
469.5360, 16034.00
470.7230, 15909.00
471.9100, 15805.00
473.0970, 15817.00
474.2830, 15555.00
475.4700, 15689.00
476.6560, 15532.00
477.8420, 15430.00
479.0280, 15488.00
480.2140, 15357.00
481.3990, 15351.00
482.5850, 15452.00
483.7700, 15355.00
484.9550, 15347.00
486.1400, 15355.00
487.3240, 15285.00
488.5090, 15294.00
489.6930, 15271.00
490.8770, 15074.00
492.0610, 15238.00
493.2450, 15071.00
494.4290, 15106.00
495.6120, 15053.00
496.7950, 15219.00
497.9780, 15141.00
499.1610, 15132.00
500.3440, 15110.00
501.5260, 15058.00
502.7090, 14997.00
503.8910, 15164.00
505.0730, 15075.00
506.2550, 15234.00
507.4360, 15117.00
508.6180, 15109.00
509.7990, 14942.00
510.9800, 14989.00
512.1610, 15008.00
513.3420, 15148.00
514.5230, 15066.00
515.7030, 14969.00
516.8830, 14947.00
518.0630, 14869.00
519.2430, 14840.00
520.4230, 14899.00
521.6020, 14918.00
522.7820, 15054.00
523.9610, 15023.94
525.1400, 14846.00
526.3190, 14927.00
527.4970, 15016.00
528.6760, 14795.00
529.8540, 14881.00
531.0320, 14723.00
532.2100, 14710.00
533.3880, 14901.00
534.5660, 14697.00
535.7430, 14972.00
536.9200, 14750.00
538.0970, 14856.00
539.2740, 14684.00
540.4510, 14735.00
541.6270, 14786.00
542.8040, 14868.00
543.9800, 14609.00
545.1560, 14677.00
546.3320, 14655.00
547.5080, 14854.00
548.6830, 14783.00
549.8580, 14583.00
551.0340, 14559.00
552.2090, 14493.00
553.3830, 14656.00
554.5580, 14478.00
555.7320, 14594.00
556.9070, 14686.00
558.0810, 14577.00
559.2550, 14510.00
560.4280, 14538.00
561.6020, 14648.00
562.7750, 14635.00
563.9490, 14402.00
565.1220, 14592.00
566.2950, 14355.00
567.4670, 14429.00
568.6400, 14413.00
569.8120, 14425.00
570.9840, 14520.00
572.1560, 14410.00
573.3280, 14431.00
574.5000, 14446.00
575.6710, 14447.00
576.8430, 14338.00
578.0140, 14413.00
579.1850, 14403.00
580.3560, 14355.00
581.5260, 14433.00
582.6970, 14335.00
583.8670, 14428.00
585.0370, 14489.00
586.2070, 14376.00
587.3770, 14312.00
588.5460, 14446.00
589.7160, 14451.00
590.8850, 14453.00
592.0540, 14523.00
593.2230, 14319.00
594.3920, 14438.00
595.5600, 14510.00
596.7290, 14295.00
597.8970, 14300.00
599.0650, 14505.00
600.2330, 14346.00
601.4000, 14452.00
602.5680, 14403.00
603.7350, 14417.00
604.9020, 14396.00
606.0690, 14386.00
607.2360, 14437.15
608.4030, 14540.00
609.5690, 14565.00
610.7360, 14558.00
611.9020, 14665.00
613.0680, 14424.00
614.2340, 14483.00
615.3990, 14534.00
616.5650, 14377.00
617.7300, 14462.00
618.8950, 14607.00
620.0600, 14592.00
621.2250, 14599.00
622.3890, 14577.00
623.5540, 14528.00
624.7180, 14582.00
625.8820, 14539.85
627.0460, 14497.00
628.2100, 14523.00
629.3730, 14504.00
630.5370, 14511.00
631.7000, 14523.00
632.8630, 14516.52
634.0260, 14504.00
635.1890, 14526.00
636.3510, 14575.00
637.5140, 14594.00
638.6760, 14595.71
639.8380, 14469.00
641.0000, 14582.00
642.1610, 14480.00
643.3230, 14463.00
644.4840, 14460.00
645.6450, 14470.00
646.8060, 14466.86
647.9670, 14487.00
649.1280, 14464.00
650.2880, 14431.00
651.4490, 14393.00
652.6090, 14407.39
653.7690, 14516.00
654.9290, 14499.00
656.0880, 14445.00
657.2480, 14616.00
658.4070, 14601.00
659.5660, 14550.00
660.7250, 14558.00
661.8840, 14532.15
663.0430, 14589.00
664.2010, 14494.00
665.3600, 14527.00
666.5180, 14485.00
667.6760, 14417.00
668.8330, 14447.00
669.9910, 14498.00
671.1480, 14550.00
672.3060, 14488.00
673.4630, 14425.00
674.6200, 14441.34
675.7770, 14589.00
676.9330, 14429.00
678.0900, 14532.00
679.2460, 14561.00
680.4020, 14390.00
681.5580, 14481.00
682.7140, 14368.00
683.8690, 14418.00
685.0250, 14429.00
686.1800, 14471.00
687.3350, 14471.00
688.4900, 14307.00
689.6450, 14346.42
690.7990, 14490.00
691.9540, 14295.00
693.1080, 14409.00
694.2620, 14415.00
695.4160, 14514.00
696.5700, 14467.00
697.7230, 14664.00
698.8770, 14573.00
700.0300, 14454.00
701.1830, 14284.00
702.3360, 14352.72
703.4890, 14546.00
704.6410, 14436.00
705.7930, 14611.00
706.9460, 14565.00
708.0980, 14560.00
709.2500, 14523.00
710.4010, 14535.39
711.5530, 14519.00
712.7040, 14494.00
713.8560, 14554.00
715.0070, 14378.00
716.1580, 14615.00
717.3080, 14614.00
718.4590, 14509.00
719.6090, 14582.00
720.7590, 14671.00
721.9090, 14584.00
723.0590, 14611.00
724.2090, 14619.40
725.3590, 14587.09
726.5080, 14635.00
727.6570, 14591.00
728.8060, 14611.00
729.9550, 14661.00
731.1040, 14588.00
732.2530, 14473.00
733.4010, 14520.00
734.5490, 14651.00
735.6970, 14765.00
736.8450, 14547.00
737.9930, 14849.00
739.1400, 14702.00
740.2880, 14583.00
741.4350, 14755.00
742.5820, 14696.00
743.7290, 14760.00
744.8760, 14860.00
746.0220, 14688.00
747.1690, 14752.00
748.3150, 14803.00
749.4610, 14966.00
750.6070, 14754.00
751.7530, 14861.00
752.8980, 14767.00
754.0440, 14851.00
755.1890, 14909.00
756.3340, 14777.00
757.4790, 14957.00
758.6240, 14879.00
759.7680, 14842.00
760.9130, 14892.00
762.0570, 14905.00
763.2010, 14809.00
764.3450, 14947.00
765.4890, 14859.00
766.6320, 14932.00
767.7760, 14975.00
768.9190, 14857.00
770.0620, 15099.00
771.2050, 14942.00
772.3480, 15158.00
773.4900, 15031.00
774.6330, 15174.00
775.7750, 15205.00
776.9170, 15405.00
778.0590, 15249.00
779.2010, 15303.00
780.3420, 15280.00
781.4840, 15371.00
782.6250, 15310.00
783.7660, 15430.00
784.9070, 15548.00
786.0480, 15379.00
787.1890, 15469.00
788.3290, 15450.00
789.4690, 15469.00
790.6100, 15608.00
791.7490, 15666.00
792.8890, 15779.00
794.0290, 15990.00
795.1680, 16046.00
796.3080, 16203.00
797.4470, 16340.00
798.5860, 16466.00
799.7250, 16671.00
800.8630, 16672.00
802.0020, 16726.00
803.1400, 16869.00
804.2780, 17087.00
805.4160, 17302.00
806.5540, 17469.00
807.6920, 17822.00
808.8300, 18033.00
809.9670, 18539.00
811.1040, 18743.00
812.2410, 19172.00
813.3780, 19797.00
814.5150, 20710.00
815.6510, 21648.00
816.7880, 22986.00
817.9240, 24792.00
819.0600, 27428.00
820.1960, 30807.00
821.3320, 35076.00
822.4670, 39858.00
823.6030, 46381.00
824.7380, 52898.00
825.8730, 57910.00
827.0080, 59392.00
828.1430, 57391.00
829.2770, 51439.00
830.4120, 43521.00
831.5460, 35771.00
832.6800, 30287.00
833.8140, 26326.00
834.9480, 23807.00
836.0810, 22070.00
837.2150, 21245.00
838.3480, 20511.00
839.4810, 19979.00
840.6140, 19571.00
841.7470, 19019.00
842.8800, 18460.00
844.0120, 18132.00
845.1450, 17472.00
846.2770, 17183.00
847.4090, 16866.00
848.5410, 16738.00
849.6720, 16574.00
850.8040, 16420.35
851.9350, 16416.00
853.0660, 16277.00
854.1970, 16211.00
855.3280, 16295.00
856.4590, 16105.00
857.5900, 16095.00
858.7200, 15912.00
859.8500, 16041.00
860.9800, 15955.00
862.1100, 15911.00
863.2400, 15851.00
864.3700, 15908.00
865.4990, 15768.00
866.6280, 15742.00
867.7570, 15986.00
868.8860, 15909.00
870.0150, 15762.00
871.1440, 15694.00
872.2720, 15868.00
873.4010, 15941.00
874.5290, 16013.00
875.6570, 15820.00
876.7850, 15961.00
877.9120, 15927.00
879.0400, 15984.00
880.1670, 15993.00
881.2940, 16049.59
882.4210, 16003.00
883.5480, 16132.00
884.6750, 16158.00
885.8020, 16076.00
886.9280, 16210.00
888.0540, 16063.00
889.1800, 16143.73
890.3060, 16426.00
891.4320, 16316.00
892.5580, 16369.00
893.6830, 16645.00
894.8080, 16699.00
895.9330, 16828.00
897.0580, 16765.00
898.1830, 16836.00
899.3080, 16808.00
900.4320, 16949.00
901.5570, 17046.00
902.6810, 16968.00
903.8050, 17035.00
904.9290, 16997.00
906.0520, 16805.00
907.1760, 16715.00
908.2990, 16903.00
909.4230, 16567.00
910.5460, 16774.00
911.6690, 16791.00
912.7910, 16689.00
913.9140, 16437.00
915.0360, 16409.00
916.1590, 16271.00
917.2810, 16317.00
918.4030, 16421.00
919.5240, 16320.00
920.6460, 16332.00
921.7680, 16413.00
922.8890, 16375.00
924.0100, 16558.00
925.1310, 16400.00
926.2520, 16382.00
927.3730, 16216.00
928.4930, 16526.00
929.6130, 16613.00
930.7340, 16324.00
931.8540, 16489.00
932.9740, 16383.00
934.0930, 16410.00
935.2130, 16482.00
936.3320, 16527.00
937.4520, 16545.33
938.5710, 16717.00
939.6900, 16583.00
940.8090, 16616.00
941.9270, 16646.00
943.0460, 16783.00
944.1640, 16838.00
945.2820, 16889.00
946.4000, 16912.00
947.5180, 16908.00
948.6360, 17001.00
949.7530, 16953.00
950.8710, 17171.00
951.9880, 17204.00
953.1050, 17441.00
954.2220, 17516.28
955.3390, 17567.00
956.4550, 17669.00
957.5720, 17884.00
958.6880, 17893.00
959.8040, 17971.00
960.9200, 18169.00
962.0360, 18014.00
963.1520, 18131.00
964.2670, 18284.00
965.3820, 18259.00
966.4980, 18424.00
967.6130, 18563.00
968.7280, 18860.00
969.8420, 19010.00
970.9570, 19361.00
972.0710, 19540.00
973.1850, 20037.00
974.3000, 20690.00
975.4140, 21523.00
976.5270, 22369.00
977.6410, 23770.00
978.7540, 24652.00
979.8680, 26388.00
980.9810, 28493.00
982.0940, 30606.00
983.2070, 33536.00
984.3200, 36438.00
985.4320, 40382.00
986.5440, 44182.00
987.6570, 47906.00
988.7690, 50384.00
989.8810, 52054.00
990.9920, 52534.00
992.1040, 52210.00
993.2160, 51523.00
994.3270, 50953.00
995.4380, 49663.00
996.5490, 48688.00
997.6600, 46755.00
998.7710, 44049.00
999.8810, 40574.00
1000.991, 36966.00
1002.102, 33793.00
1003.212, 31050.00
1004.322, 28763.00
1005.431, 27021.00
1006.541, 25793.00
1007.651, 24179.00
1008.760, 23023.00
1009.869, 21981.00
1010.978, 21230.00
1012.087, 20468.00
1013.195, 20040.00
1014.304, 19639.00
1015.412, 19277.00
1016.521, 19093.29
1017.629, 19008.00
1018.737, 18841.00
1019.844, 18753.00
1020.952, 18659.00
1022.059, 18568.00
1023.167, 18517.00
1024.274, 18453.00
1025.381, 18423.00
1026.488, 18341.00
1027.594, 18307.67
1028.701, 18208.00
1029.807, 18234.00
1030.913, 18213.00
1032.019, 18198.52
1033.125, 18303.00
1034.231, 18157.00
1035.337, 18078.00
1036.442, 18113.00
1037.548, 18152.00
1038.653, 18119.00
1039.758, 18114.00
1040.863, 18088.54
1041.967, 18003.00
1043.072, 18038.00
1044.176, 18120.00
1045.280, 18160.00
1046.384, 18085.00
1047.488, 18240.00
1048.592, 18018.00
1049.696, 18213.00
1050.799, 18247.00
1051.903, 18177.00
1053.006, 18159.00
1054.109, 18194.00
1055.212, 18334.00
1056.314, 18299.00
1057.417, 18333.00
1058.519, 17982.00
1059.621, 18332.00
1060.724, 18220.00
1061.826, 18223.00
1062.927, 18369.00
1064.029, 18122.00
1065.130, 18422.00
1066.232, 18124.00
1067.333, 18366.00
1068.434, 18307.00
1069.535, 18279.00
1070.636, 18206.00
1071.736, 18282.00
1072.837, 18317.00
1073.937, 18313.87
1075.037, 18270.00
1076.137, 18333.00
1077.237, 18425.00
1078.337, 18390.00
1079.436, 18458.00
1080.535, 18435.00
1081.635, 18439.00
1082.734, 18504.00
1083.833, 18505.00
1084.931, 18537.00
1086.030, 18492.00
1087.128, 18659.00
1088.227, 18512.00
1089.325, 18798.00
1090.423, 18494.00
1091.521, 18690.00
1092.618, 18692.00
1093.716, 18663.00
1094.813, 18688.00
1095.911, 18772.00
1097.008, 18951.00
1098.105, 18831.00
1099.202, 18855.00
1100.298, 18794.00
1101.395, 19011.00
1102.491, 18880.00
1103.587, 18820.00
1104.683, 18986.00
1105.779, 18802.00
1106.875, 18889.00
1107.971, 18880.00
1109.066, 18979.00
1110.161, 19094.00
1111.256, 19011.00
1112.351, 19128.00
1113.446, 19148.00
1114.541, 19121.00
1115.636, 19173.00
1116.730, 19039.00
1117.824, 19156.00
1118.918, 18944.00
1120.012, 19168.00
1121.106, 19112.00
1122.200, 19208.00
1123.293, 19126.00
1124.387, 19143.00
1125.480, 19297.00
1126.573, 19314.00
1127.666, 19196.00
1128.759, 19217.00
1129.851, 19191.66
1130.944, 19120.00
1132.036, 19233.00
1133.128, 19192.00
1134.220, 19329.00
1135.312, 19213.00
1136.404, 19316.00
1137.495, 19403.00
1138.587, 19417.00
1139.678, 19578.00
1140.769, 19413.00
1141.860, 19494.00
1142.951, 19600.00
1144.041, 19711.00
1145.132, 19682.31
1146.222, 19681.00
1147.313, 19630.00
1148.403, 19641.00
1149.493, 19659.00
1150.582, 19690.00
1151.672, 19699.00
1152.761, 19879.00
1153.851, 19756.00
1154.940, 19993.00
1156.029, 19905.00
1157.118, 19900.00
1158.207, 19998.00
1159.295, 19909.00
1160.384, 19879.00
1161.472, 20128.00
1162.560, 20001.00
1163.648, 20091.00
1164.736, 19844.00
1165.824, 20167.00
1166.911, 20222.00
1167.999, 20076.00
1169.086, 20039.00
1170.173, 20137.00
1171.260, 20243.00
1172.347, 20323.00
1173.434, 20369.37
1174.520, 20312.00
1175.606, 20395.00
1176.693, 20531.00
1177.779, 20471.00
1178.865, 20704.00
1179.951, 20579.00
1181.036, 20324.00
1182.122, 20567.00
1183.207, 20479.00
1184.292, 20647.00
1185.377, 20581.00
1186.462, 20682.00
1187.547, 20683.00
1188.632, 20566.00
1189.716, 20776.00
1190.800, 20786.00
1191.885, 20884.00
1192.969, 20790.00
1194.052, 20781.00
1195.136, 20641.00
1196.220, 20852.00
1197.303, 20941.00
1198.387, 21024.00
1199.470, 20964.00
1200.553, 20982.00
1201.636, 21113.00
1202.718, 21215.00
1203.801, 20990.00
1204.883, 21194.00
1205.966, 21088.00
1207.048, 21266.00
1208.130, 21391.00
1209.211, 21350.00
1210.293, 21375.00
1211.375, 21357.89
1212.456, 21298.00
1213.537, 21279.00
1214.618, 21349.00
1215.699, 21343.00
1216.780, 21219.00
1217.861, 21411.00
1218.941, 21486.00
1220.022, 21566.00
1221.102, 21368.00
1222.182, 21324.00
1223.262, 21369.00
1224.342, 21399.00
1225.422, 21358.00
1226.501, 21570.00
1227.580, 21424.00
1228.660, 21649.00
1229.739, 21596.00
1230.818, 21511.00
1231.896, 21494.00
1232.975, 21587.00
1234.054, 21754.00
1235.132, 21724.00
1236.210, 21756.83
1237.288, 21653.00
1238.366, 21718.00
1239.444, 21590.00
1240.521, 21618.00
1241.599, 21626.00
1242.676, 21667.00
1243.753, 21637.00
1244.830, 21546.00
1245.907, 21631.00
1246.984, 21720.00
1248.061, 21759.00
1249.137, 21540.00
1250.214, 21758.00
1251.290, 21709.00
1252.366, 21683.00
1253.442, 21796.00
1254.517, 21804.00
1255.593, 21760.00
1256.668, 21764.00
1257.744, 21788.00
1258.819, 21712.00
1259.894, 21722.00
1260.969, 21691.00
1262.044, 21765.00
1263.118, 21720.00
1264.193, 21709.73
1265.267, 21744.00
1266.341, 21675.00
1267.415, 21745.00
1268.489, 21790.00
1269.563, 21685.00
1270.636, 21808.00
1271.710, 21767.00
1272.783, 21615.00
1273.856, 21789.00
1274.929, 21567.00
1276.002, 21612.00
1277.075, 21592.00
1278.147, 21703.00
1279.220, 21634.00
1280.292, 21548.00
1281.364, 21641.00
1282.436, 21747.00
1283.508, 21564.00
1284.580, 21535.00
1285.652, 21683.00
1286.723, 21531.00
1287.794, 21529.00
1288.865, 21453.00
1289.936, 21637.00
1291.007, 21588.00
1292.078, 21674.00
1293.149, 21667.00
1294.219, 21371.00
1295.289, 21565.00
1296.360, 21416.00
1297.430, 21458.00
1298.499, 21603.00
1299.569, 21634.00
1300.639, 21652.93
1301.708, 21477.00
1302.778, 21607.00
1303.847, 21584.00
1304.916, 21482.00
1305.985, 21524.00
1307.053, 21419.00
1308.122, 21464.00
1309.190, 21445.40
1310.259, 21503.00
1311.327, 21428.00
1312.395, 21463.00
1313.463, 21425.00
1314.531, 21388.00
1315.598, 21570.00
1316.666, 21519.00
1317.733, 21490.00
1318.800, 21505.00
1319.867, 21452.00
1320.934, 21495.00
1322.001, 21477.96
1323.067, 21362.00
1324.134, 21502.00
1325.200, 21468.00
1326.266, 21527.00
1327.333, 21220.00
1328.398, 21510.00
1329.464, 21413.00
1330.530, 21230.00
1331.595, 21649.00
1332.661, 21272.00
1333.726, 21599.00
1334.791, 21530.00
1335.856, 21455.00
1336.921, 21457.00
1337.985, 21426.00
1339.050, 21406.00
1340.114, 21529.00
1341.178, 21278.00
1342.242, 21423.00
1343.306, 21431.00
1344.370, 21598.00
1345.434, 21442.00
1346.497, 21300.00
1347.561, 21503.00
1348.624, 21410.00
1349.687, 21526.00
1350.750, 21574.44
1351.813, 21586.00
1352.876, 21605.00
1353.938, 21521.00
1355.000, 21398.00
1356.063, 21337.00
1357.125, 21212.00
1358.187, 21475.00
1359.249, 21275.00
1360.310, 21613.00
1361.372, 21523.00
1362.433, 21527.00
1363.495, 21360.00
1364.556, 21613.00
1365.617, 21481.00
1366.678, 21482.00
1367.738, 21585.00
1368.799, 21489.00
1369.859, 21511.00
1370.920, 21378.00
1371.980, 21471.00
1373.040, 21514.00
1374.100, 21642.00
1375.159, 21481.00
1376.219, 21534.00
1377.278, 21482.00
1378.338, 21598.00
1379.397, 21534.44
1380.456, 21544.00
1381.515, 21483.00
1382.574, 21478.00
1383.632, 21507.00
1384.691, 21455.00
1385.749, 21453.00
1386.807, 21327.00
1387.865, 21409.00
1388.923, 21350.00
1389.981, 21537.00
1391.039, 21628.00
1392.096, 21589.00
1393.154, 21498.00
1394.211, 21480.00
1395.268, 21410.00
1396.325, 21271.00
1397.382, 21417.00
1398.439, 21512.00
1399.495, 21638.00
1400.552, 21281.00
1401.608, 21433.00
1402.664, 21484.00
1403.720, 21444.00
1404.776, 21592.00
1405.832, 21526.00
1406.887, 21513.00
1407.943, 21626.00
1408.998, 21410.00
1410.053, 21437.00
1411.108, 21375.00
1412.163, 21532.00
1413.218, 21662.00
1414.272, 21580.00
1415.327, 21446.00
1416.381, 21494.00
1417.435, 21464.00
1418.489, 21594.00
1419.543, 21463.00
1420.597, 21761.00
1421.651, 21428.00
1422.704, 21556.00
1423.758, 21513.00
1424.811, 21386.00
1425.864, 21529.00
1426.917, 21521.00
1427.970, 21445.00
1429.023, 21627.00
1430.075, 21599.00
1431.128, 21529.00
1432.180, 21522.00
1433.232, 21524.93
1434.284, 21654.00
1435.336, 21615.00
1436.388, 21555.00
1437.439, 21694.00
1438.491, 21524.00
1439.542, 21641.00
1440.593, 21497.00
1441.644, 21595.00
1442.695, 21525.00
1443.746, 21594.00
1444.797, 21816.00
1445.847, 21592.00
1446.898, 21764.00
1447.948, 21697.00
1448.998, 21485.00
1450.048, 21643.00
1451.098, 21732.00
1452.147, 21928.00
1453.197, 21735.00
1454.246, 21708.00
1455.296, 21683.00
1456.345, 21679.00
1457.394, 21728.00
1458.443, 22021.00
1459.491, 21799.00
1460.540, 21870.00
1461.588, 21608.00
1462.637, 21905.00
1463.685, 21701.00
1464.733, 21673.00
1465.781, 21717.00
1466.829, 21633.00
1467.876, 21575.00
1468.924, 21653.00
1469.971, 21890.00
1471.019, 21825.00
1472.066, 21784.00
1473.113, 21765.00
1474.160, 21713.00
1475.206, 21839.00
1476.253, 21688.00
1477.299, 21811.00
1478.346, 21647.00
1479.392, 21778.00
1480.438, 21590.00
1481.484, 21769.00
1482.529, 21897.00
1483.575, 21889.00
1484.620, 21952.68
1485.666, 21774.00
1486.711, 21891.00
1487.756, 21790.00
1488.801, 21670.00
1489.846, 21897.00
1490.891, 21710.00
1491.935, 21840.00
1492.980, 21751.00
1494.024, 21796.00
1495.068, 22045.00
1496.112, 22118.00
1497.156, 21977.00
1498.200, 22029.00
1499.243, 21857.00
1500.287, 21946.00
1501.330, 21819.00
1502.373, 21924.00
1503.416, 21710.00
1504.459, 21789.00
1505.502, 21980.00
1506.545, 21979.00
1507.587, 21864.00
1508.630, 21903.00
1509.672, 21941.00
1510.714, 22023.00
1511.756, 22117.00
1512.798, 22104.44
1513.840, 21805.00
1514.881, 22080.00
1515.923, 21949.00
1516.964, 21897.00
1518.005, 22117.00
1519.046, 21909.00
1520.087, 22015.00
1521.128, 21899.00
1522.169, 22050.00
1523.209, 21874.00
1524.249, 22092.00
1525.290, 22235.00
1526.330, 22144.00
1527.370, 22230.00
1528.410, 22139.00
1529.449, 22084.00
1530.489, 22256.00
1531.528, 22058.00
1532.568, 21958.00
1533.607, 22003.00
1534.646, 21981.00
1535.685, 22096.00
1536.724, 22116.00
1537.762, 22263.00
1538.801, 22254.00
1539.839, 22263.00
1540.878, 22098.00
1541.916, 22162.00
1542.954, 22103.00
1543.992, 22054.00
1545.029, 22212.00
1546.067, 21954.00
1547.104, 21949.00
1548.142, 21989.00
1549.179, 22061.00
1550.216, 22081.00
1551.253, 22144.04
1552.290, 22133.00
1553.326, 22247.00
1554.363, 22128.00
1555.399, 22157.00
1556.436, 22072.00
1557.472, 22133.00
1558.508, 22189.00
1559.544, 22154.00
1560.579, 22159.00
1561.615, 22020.00
1562.651, 22077.16
1563.686, 22207.00
1564.721, 22082.00
1565.756, 22144.00
1566.791, 22058.00
1567.826, 22359.00
1568.861, 22273.00
1569.895, 22385.00
1570.930, 22295.00
1571.964, 21990.00
1572.998, 22203.00
1574.032, 22231.00
1575.066, 22067.00
1576.100, 22241.00
1577.134, 22298.00
1578.167, 22266.00
##END=



