##NAMES=Microcline
##RRUFFID=R050193
##IDEAL CHEMISTRY=KAlSi_3_O_8_
##LOCALITY=Devil's Head, Douglas County, Colorado, USA
##OWNER=RRUFF
##SOURCE=Dave Bunk Minerals
##DESCRIPTION=White to colorless heterogeneous mixture of K and Na feldspar in a cluster of crystals. Crystal structure determined, presented below. This sample is known as an intermediate microcline in the literature.
##STATUS=The identification of this mineral has been confirmed by X-ray diffraction and chemical analysis
##URL=rruff.info/R050193
##MEASURED CHEMISTRY=(K_0.929_Na_0.071_)(Al_1.005_Si_2.994_Fe_0.001_)O_7.993_F_0.007_  ; Light Band :  (Na_0.973_K_0.007_Ca_0.020_)(Al_1.020_Si_2.980_)O_8_ ; Dark Band
##PIN_ID=L01707
##ORIENTATION=Laser parallel to (-1 0 -1). Fiducial mark perpendicular to laser is parallel to b [0 1 0]
132.6970, 15082.00
133.9300, 15326.00
135.1630, 15381.00
136.3950, 15645.00
137.6280, 16131.00
138.8600, 16540.00
140.0920, 16728.00
141.3240, 17098.00
142.5560, 17319.00
143.7880, 17602.00
145.0190, 17696.00
146.2510, 18122.00
147.4820, 18510.00
148.7130, 19074.00
149.9440, 19395.00
151.1750, 19764.00
152.4050, 19967.00
153.6360, 20051.00
154.8660, 20418.00
156.0960, 20625.00
157.3260, 20536.00
158.5560, 20488.00
159.7850, 20250.00
161.0150, 20332.00
162.2440, 19976.00
163.4730, 19529.00
164.7020, 19039.00
165.9310, 18853.00
167.1590, 18639.00
168.3880, 18239.00
169.6160, 18143.00
170.8440, 18176.00
172.0720, 18267.00
173.3000, 18343.00
174.5280, 18384.00
175.7550, 18459.00
176.9820, 18391.00
178.2100, 18531.00
179.4370, 18346.00
180.6630, 18633.00
181.8900, 18537.00
183.1170, 18567.00
184.3430, 18626.00
185.5690, 18705.00
186.7950, 18639.04
188.0210, 18660.00
189.2470, 18475.00
190.4720, 18460.00
191.6970, 18308.00
192.9230, 18257.00
194.1480, 18150.00
195.3730, 18290.00
196.5970, 18285.00
197.8220, 18420.00
199.0460, 18395.35
200.2700, 18229.00
201.4940, 18362.00
202.7180, 18336.00
203.9420, 18349.00
205.1660, 18429.00
206.3890, 18674.00
207.6120, 18711.00
208.8350, 18724.00
210.0580, 18716.17
211.2810, 18619.88
212.5040, 18456.00
213.7260, 18369.00
214.9480, 18075.00
216.1700, 17937.00
217.3920, 17878.15
218.6140, 17870.00
219.8360, 17802.00
221.0570, 17920.00
222.2790, 17905.00
223.5000, 17992.00
224.7210, 18025.57
225.9410, 18079.00
227.1620, 18037.00
228.3820, 18031.00
229.6030, 18053.69
230.8230, 18061.00
232.0430, 18071.00
233.2630, 18171.00
234.4820, 18171.00
235.7020, 18233.00
236.9210, 18206.00
238.1400, 18322.00
239.3590, 18377.00
240.5780, 18288.00
241.7970, 18544.00
243.0150, 18603.00
244.2340, 18480.00
245.4520, 18804.00
246.6700, 18859.00
247.8880, 18873.00
249.1060, 18952.00
250.3230, 19233.00
251.5400, 19213.00
252.7580, 19401.00
253.9750, 19359.00
255.1920, 19633.00
256.4080, 19840.00
257.6250, 20085.00
258.8410, 20260.00
260.0580, 20138.00
261.2740, 20383.00
262.4900, 20451.00
263.7050, 20697.00
264.9210, 20814.67
266.1360, 20687.00
267.3520, 21072.00
268.5670, 21151.00
269.7820, 21266.00
270.9960, 21130.00
272.2110, 21304.00
273.4250, 21360.00
274.6400, 21805.00
275.8540, 22011.00
277.0680, 22179.00
278.2810, 22252.00
279.4950, 22593.00
280.7090, 22643.00
281.9220, 22870.00
283.1350, 22762.00
284.3480, 22768.00
285.5610, 22764.00
286.7730, 23057.00
287.9860, 22964.00
289.1980, 22818.00
290.4100, 22693.00
291.6220, 22417.00
292.8340, 22151.00
294.0460, 21615.00
295.2570, 21285.00
296.4690, 20808.00
297.6800, 20625.00
298.8910, 20445.00
300.1020, 20076.00
301.3120, 20213.00
302.5230, 20069.00
303.7330, 19999.00
304.9440, 20100.00
306.1540, 19862.00
307.3630, 19999.00
308.5730, 19961.00
309.7830, 19987.00
310.9920, 19943.00
312.2010, 19988.00
313.4100, 20057.00
314.6190, 20074.00
315.8280, 19892.00
317.0370, 20169.00
318.2450, 20031.00
319.4530, 20196.00
320.6610, 20139.00
321.8690, 20310.00
323.0770, 20482.00
324.2850, 20507.00
325.4920, 20453.00
326.6990, 20535.00
327.9060, 20658.00
329.1130, 20707.00
330.3200, 20568.00
331.5270, 20533.00
332.7330, 20515.00
333.9390, 20689.00
335.1450, 20624.00
336.3510, 20560.00
337.5570, 20458.00
338.7630, 20451.00
339.9680, 20659.00
341.1740, 20577.00
342.3790, 20476.00
343.5840, 20665.00
344.7890, 20584.00
345.9930, 20472.00
347.1980, 20739.00
348.4020, 20556.00
349.6060, 20807.00
350.8100, 20727.00
352.0140, 20865.00
353.2180, 20869.00
354.4210, 20964.00
355.6250, 20879.00
356.8280, 20648.00
358.0310, 20761.00
359.2340, 20939.00
360.4360, 21136.00
361.6390, 20901.00
362.8410, 21059.00
364.0430, 21133.00
365.2450, 21109.00
366.4470, 21182.00
367.6490, 21150.00
368.8510, 21429.00
370.0520, 21123.00
371.2530, 21398.00
372.4540, 21193.00
373.6550, 21249.00
374.8560, 21421.00
376.0560, 21226.00
377.2570, 21249.00
378.4570, 21292.00
379.6570, 21273.00
380.8570, 21310.00
382.0570, 21292.00
383.2560, 21249.00
384.4560, 21510.00
385.6550, 21414.00
386.8540, 21484.00
388.0530, 21481.00
389.2520, 21396.00
390.4510, 21591.00
391.6490, 21606.00
392.8470, 21628.00
394.0450, 21696.00
395.2430, 21930.00
396.4410, 21717.00
397.6390, 21811.00
398.8360, 22075.00
400.0340, 22004.00
401.2310, 22094.00
402.4280, 22205.07
403.6250, 22281.00
404.8210, 22332.00
406.0180, 22379.00
407.2140, 22360.00
408.4100, 22391.00
409.6060, 22516.00
410.8020, 22436.00
411.9980, 22481.00
413.1930, 22377.00
414.3890, 22351.00
415.5840, 22271.00
416.7790, 22357.00
417.9740, 22362.00
419.1680, 22220.00
420.3630, 22323.00
421.5570, 22299.00
422.7510, 22439.00
423.9450, 22115.00
425.1390, 22324.00
426.3330, 22399.00
427.5270, 22324.00
428.7200, 22511.00
429.9130, 22257.00
431.1060, 22293.00
432.2990, 22501.00
433.4920, 22528.00
434.6840, 22694.00
435.8770, 22768.00
437.0690, 22925.00
438.2610, 22853.00
439.4530, 23175.00
440.6450, 22976.00
441.8360, 23357.00
443.0280, 23455.00
444.2190, 23714.00
445.4100, 23941.00
446.6010, 24110.00
447.7920, 24385.00
448.9820, 24578.00
450.1730, 24911.00
451.3630, 24907.00
452.5530, 25303.00
453.7430, 25286.00
454.9330, 25346.00
456.1230, 25220.00
457.3120, 25258.00
458.5010, 24999.00
459.6910, 24907.00
460.8800, 24805.00
462.0680, 24930.00
463.2570, 25042.00
464.4460, 25062.00
465.6340, 25385.00
466.8220, 25658.00
468.0100, 26115.00
469.1980, 26689.00
470.3860, 27232.00
471.5730, 27616.00
472.7600, 28272.00
473.9480, 28584.00
475.1350, 29115.00
476.3210, 29530.00
477.5080, 29575.00
478.6950, 29060.00
479.8810, 29063.00
481.0670, 28150.00
482.2530, 27597.00
483.4390, 26923.00
484.6250, 26409.00
485.8100, 25986.00
486.9960, 25704.51
488.1810, 25534.00
489.3660, 25448.00
490.5510, 25493.00
491.7360, 25540.00
492.9200, 25465.00
494.1050, 25561.00
495.2890, 25922.00
496.4730, 26093.00
497.6570, 26488.00
498.8400, 27001.00
500.0240, 27931.00
501.2070, 28782.00
502.3910, 29746.00
503.5740, 31498.00
504.7570, 32773.00
505.9400, 33984.00
507.1220, 35257.00
508.3050, 35834.00
509.4870, 36515.00
510.6690, 36557.00
511.8510, 36517.00
513.0330, 35781.00
514.2140, 34655.00
515.3960, 33320.00
516.5770, 32068.00
517.7580, 30642.00
518.9390, 29597.00
520.1200, 28370.00
521.3010, 27789.00
522.4810, 27153.00
523.6610, 26665.00
524.8420, 26327.00
526.0220, 26016.20
527.2010, 26142.00
528.3810, 25714.00
529.5610, 25664.00
530.7400, 25663.00
531.9190, 25394.00
533.0980, 25394.00
534.2770, 25703.00
535.4560, 25456.00
536.6340, 25515.00
537.8120, 25497.00
538.9910, 25408.00
540.1690, 25336.00
541.3460, 25350.00
542.5240, 25131.00
543.7020, 25339.00
544.8790, 25136.00
546.0560, 25427.00
547.2330, 25186.00
548.4100, 25402.00
549.5870, 25316.00
550.7630, 25236.00
551.9400, 25339.00
553.1160, 25256.93
554.2920, 25334.00
555.4680, 25289.00
556.6440, 25316.00
557.8190, 25458.00
558.9950, 25497.00
560.1700, 25428.00
561.3450, 25633.00
562.5200, 25546.00
563.6950, 25616.00
564.8690, 25561.00
566.0440, 25541.00
567.2180, 25611.00
568.3920, 25404.00
569.5660, 25766.00
570.7400, 25900.00
571.9130, 25760.00
573.0870, 25761.00
574.2600, 25917.00
575.4330, 26036.00
576.6060, 26014.00
577.7790, 25857.00
578.9520, 26114.00
580.1240, 25973.00
581.2960, 26065.00
582.4690, 26037.00
583.6410, 26005.00
584.8120, 25903.00
585.9840, 25916.00
587.1560, 26075.00
588.3270, 26197.00
589.4980, 26093.00
590.6690, 26092.00
591.8400, 26374.00
593.0110, 26085.00
594.1810, 26253.00
595.3510, 26166.00
596.5220, 26096.00
597.6920, 26107.00
598.8610, 26213.00
600.0310, 26184.00
601.2010, 26434.00
602.3700, 26458.00
603.5390, 26122.00
604.7080, 26436.00
605.8770, 26417.00
607.0460, 26471.00
608.2140, 26657.00
609.3830, 26400.00
610.5510, 26731.00
611.7190, 26627.00
612.8870, 26965.00
614.0550, 26899.00
615.2220, 26715.00
616.3900, 26665.00
617.5570, 26721.00
618.7240, 26830.00
619.8910, 26810.00
621.0580, 26770.00
622.2240, 26835.22
623.3910, 26858.00
624.5570, 26890.00
625.7230, 26928.00
626.8890, 26964.00
628.0550, 27095.00
629.2200, 27186.00
630.3860, 27171.00
631.5510, 27409.00
632.7160, 27369.88
633.8810, 27119.00
635.0460, 27382.00
636.2100, 27316.00
637.3750, 27272.00
638.5390, 27331.00
639.7030, 27341.00
640.8670, 27398.00
642.0310, 27541.00
643.1950, 27472.00
644.3580, 27562.00
645.5210, 27470.00
646.6850, 27806.00
647.8480, 27567.00
649.0100, 27670.00
650.1730, 27802.00
651.3350, 27662.00
652.4980, 27723.00
653.6600, 27864.00
654.8220, 27681.00
655.9840, 27726.00
657.1450, 27755.00
658.3070, 27857.00
659.4680, 27725.00
660.6300, 27952.00
661.7910, 27855.00
662.9510, 27786.00
664.1120, 28063.00
665.2730, 27740.00
666.4330, 27830.00
667.5930, 27766.00
668.7530, 27642.00
669.9130, 27814.00
671.0730, 27952.00
672.2320, 28084.00
673.3920, 28021.00
674.5510, 28055.00
675.7100, 28085.00
676.8690, 28078.65
678.0280, 28066.00
679.1860, 28119.00
680.3450, 28133.00
681.5030, 28156.00
682.6610, 28157.33
683.8190, 28264.00
684.9770, 28144.00
686.1340, 28130.00
687.2920, 28137.00
688.4490, 28426.00
689.6060, 28234.00
690.7630, 28316.00
691.9200, 28558.00
693.0760, 28400.00
694.2330, 28426.00
695.3890, 28537.00
696.5450, 28620.00
697.7010, 28519.00
698.8570, 28481.00
700.0130, 28678.00
701.1680, 28517.00
702.3230, 28669.00
703.4780, 28618.00
704.6330, 28820.00
705.7880, 28561.00
706.9430, 28726.00
708.0970, 28726.00
709.2520, 29106.00
710.4060, 28817.00
711.5600, 29014.00
712.7140, 29079.00
713.8670, 28987.00
715.0210, 29119.00
716.1740, 29145.00
717.3270, 29136.00
718.4800, 29341.00
719.6330, 29394.00
720.7860, 29237.00
721.9380, 29373.00
723.0910, 29207.00
724.2430, 29472.00
725.3950, 29388.00
726.5470, 29473.00
727.6980, 29375.00
728.8500, 29433.94
730.0010, 29466.00
731.1530, 29576.00
732.3040, 29613.00
733.4550, 29658.55
734.6050, 29723.00
735.7560, 29730.00
736.9060, 29850.00
738.0560, 29890.00
739.2060, 30118.00
740.3560, 30169.00
741.5060, 30340.00
742.6560, 30196.00
743.8050, 30542.00
744.9540, 30608.00
746.1030, 30480.00
747.2520, 30325.00
748.4010, 30547.00
749.5500, 30531.00
750.6980, 30709.00
751.8460, 30921.00
752.9950, 30576.00
754.1420, 30659.00
755.2900, 30788.00
756.4380, 31147.00
757.5850, 30890.00
758.7330, 30986.00
759.8800, 31265.00
761.0270, 31375.00
762.1730, 31395.00
763.3200, 31476.00
764.4670, 31183.00
765.6130, 31514.00
766.7590, 31114.00
767.9050, 31236.00
769.0510, 31008.00
770.1960, 31122.00
771.3420, 30995.00
772.4870, 30945.00
773.6320, 31011.00
774.7770, 30851.00
775.9220, 31046.00
777.0670, 30966.00
778.2110, 31107.00
779.3560, 30977.00
780.5000, 31130.00
781.6440, 30825.00
782.7880, 31058.00
783.9320, 30922.00
785.0750, 30864.00
786.2180, 31062.00
787.3620, 31315.00
788.5050, 31317.00
789.6480, 31429.56
790.7900, 31160.00
791.9330, 31425.00
793.0750, 31466.00
794.2170, 31369.00
795.3590, 31511.00
796.5010, 31575.00
797.6430, 31573.00
798.7850, 31465.00
799.9260, 31657.00
801.0670, 31729.00
802.2080, 31990.00
803.3490, 31905.00
804.4900, 32014.00
805.6310, 32227.00
806.7710, 32154.00
807.9110, 32329.00
809.0510, 32626.00
810.1910, 32707.00
811.3310, 32964.00
812.4710, 33118.00
813.6100, 33001.00
814.7490, 33214.00
815.8880, 33138.00
817.0270, 32713.00
818.1660, 32821.00
819.3050, 32446.00
820.4430, 32295.00
821.5820, 32057.00
822.7200, 32112.00
823.8580, 32257.00
824.9950, 32232.00
826.1330, 32095.00
827.2710, 32246.00
828.4080, 31916.00
829.5450, 32185.00
830.6820, 31956.00
831.8190, 32411.00
832.9560, 32194.00
834.0920, 31959.00
835.2280, 32204.00
836.3650, 32126.00
837.5010, 32145.00
838.6360, 32354.00
839.7720, 32150.00
840.9080, 32547.00
842.0430, 32231.00
843.1780, 32629.00
844.3130, 32457.00
845.4480, 32381.00
846.5830, 32477.00
847.7170, 32865.00
848.8520, 32514.00
849.9860, 32589.00
851.1200, 32637.00
852.2540, 32517.00
853.3870, 32753.00
854.5210, 32845.00
855.6540, 32948.00
856.7880, 32863.00
857.9210, 32849.00
859.0540, 32789.00
860.1860, 32890.00
861.3190, 32849.00
862.4510, 32900.00
863.5840, 32963.00
864.7160, 32767.00
865.8480, 33206.00
866.9790, 33194.00
868.1110, 33121.00
869.2420, 33432.00
870.3740, 33091.00
871.5050, 33378.00
872.6360, 33167.00
873.7660, 33335.00
874.8970, 33123.00
876.0280, 33289.00
877.1580, 33235.00
878.2880, 33407.00
879.4180, 33326.00
880.5480, 33412.00
881.6770, 33279.00
882.8070, 33315.00
883.9360, 33535.00
885.0650, 33473.37
886.1940, 33693.00
887.3230, 33603.00
888.4520, 33614.00
889.5800, 33737.00
890.7090, 33810.00
891.8370, 33781.00
892.9650, 33810.00
894.0930, 33720.00
895.2200, 33996.00
896.3480, 33842.00
897.4750, 33938.00
898.6020, 34024.00
899.7290, 34044.00
900.8560, 33982.00
901.9830, 33956.00
903.1090, 34018.39
904.2360, 34006.80
905.3620, 34164.00
906.4880, 34111.00
907.6140, 34211.00
908.7400, 34342.00
909.8650, 34241.00
910.9900, 34543.00
912.1160, 34190.00
913.2410, 34263.00
914.3660, 34356.00
915.4900, 34341.00
916.6150, 34768.00
917.7390, 34719.00
918.8640, 34554.00
919.9880, 34412.00
921.1120, 34782.00
922.2350, 34744.00
923.3590, 34707.00
924.4820, 34876.00
925.6060, 34526.00
926.7290, 34727.00
927.8520, 34942.00
928.9740, 34724.00
930.0970, 34923.00
931.2190, 34861.00
932.3420, 34745.00
933.4640, 35047.00
934.5860, 35123.00
935.7080, 34947.00
936.8290, 35167.00
937.9510, 35369.00
939.0720, 35151.00
940.1930, 35236.00
941.3140, 35410.00
942.4350, 35169.00
943.5560, 35295.00
944.6760, 35389.00
945.7960, 35355.00
946.9170, 35386.00
948.0370, 35437.00
949.1560, 35380.00
950.2760, 35569.00
951.3960, 35737.00
952.5150, 35493.00
953.6340, 35763.00
954.7530, 35682.00
955.8720, 35464.00
956.9910, 35563.00
958.1090, 35706.00
959.2280, 35597.00
960.3460, 35827.00
961.4640, 35727.00
962.5820, 36100.00
963.6990, 35969.00
964.8170, 36005.00
965.9340, 36107.00
967.0510, 36109.00
968.1690, 36057.00
969.2850, 36130.00
970.4020, 36159.50
971.5190, 36328.00
972.6350, 36271.00
973.7510, 36494.00
974.8670, 36510.00
975.9830, 36567.00
977.0990, 36713.00
978.2150, 36928.00
979.3300, 36758.00
980.4450, 36811.00
981.5600, 36796.00
982.6750, 36685.00
983.7900, 36808.00
984.9050, 36939.00
986.0190, 36859.00
987.1340, 37053.00
988.2480, 36936.00
989.3620, 36785.00
990.4750, 37119.00
991.5890, 36903.00
992.7020, 37343.00
993.8160, 37019.00
994.9290, 37313.00
996.0420, 37227.00
997.1550, 37289.00
998.2670, 37397.60
999.3800, 37900.00
1000.492, 37581.00
1001.604, 37516.00
1002.716, 37727.00
1003.828, 37414.00
1004.940, 37824.00
1006.051, 37858.00
1007.163, 37788.00
1008.274, 37760.00
1009.385, 37724.00
1010.496, 37584.00
1011.606, 37616.24
1012.717, 37735.00
1013.827, 37628.00
1014.937, 37709.00
1016.047, 37748.00
1017.157, 37823.00
1018.267, 37844.00
1019.377, 37730.00
1020.486, 37960.00
1021.595, 38026.00
1022.704, 38311.00
1023.813, 37837.00
1024.922, 38086.00
1026.030, 38127.00
1027.139, 38125.00
1028.247, 38413.00
1029.355, 38134.00
1030.463, 38431.00
1031.571, 38438.00
1032.678, 38247.00
1033.786, 38794.00
1034.893, 38505.00
1036.000, 38515.00
1037.107, 38318.00
1038.214, 38412.00
1039.321, 38866.00
1040.427, 38696.00
1041.533, 38641.00
1042.639, 38692.00
1043.745, 38583.00
1044.851, 38894.00
1045.957, 38747.00
1047.062, 38913.00
1048.168, 38691.00
1049.273, 38848.00
1050.378, 38934.00
1051.482, 38964.00
1052.587, 39033.00
1053.692, 38896.00
1054.796, 39139.00
1055.900, 39126.00
1057.004, 39223.00
1058.108, 39071.00
1059.212, 39056.00
1060.315, 39061.00
1061.418, 39060.26
1062.522, 39358.00
1063.625, 39164.00
1064.728, 39442.00
1065.830, 39503.00
1066.933, 39344.00
1068.035, 39156.00
1069.137, 39168.00
1070.239, 39249.00
1071.341, 39431.00
1072.443, 39571.00
1073.545, 39528.00
1074.646, 39772.00
1075.747, 39647.00
1076.848, 39838.00
1077.949, 39737.00
1079.050, 39764.00
1080.150, 39914.00
1081.251, 40080.00
1082.351, 39868.00
1083.451, 40003.00
1084.551, 40264.00
1085.651, 40324.00
1086.750, 40575.00
1087.850, 40605.34
1088.949, 40420.00
1090.048, 40670.00
1091.147, 40616.00
1092.246, 40650.00
1093.345, 40976.00
1094.443, 40947.00
1095.541, 41019.00
1096.639, 41145.00
1097.737, 41428.00
1098.835, 41544.00
1099.933, 41565.00
1101.030, 41458.00
1102.128, 41411.00
1103.225, 41701.00
1104.322, 41294.00
1105.419, 41562.00
1106.515, 41533.00
1107.612, 41383.00
1108.708, 41362.00
1109.804, 41454.00
1110.900, 41471.00
1111.996, 41572.70
1113.092, 41814.00
1114.187, 41764.00
1115.283, 41863.00
1116.378, 41883.75
1117.473, 41840.00
1118.568, 42000.00
1119.662, 42144.00
1120.757, 42212.00
1121.851, 42197.00
1122.946, 42307.00
1124.040, 42284.00
1125.134, 42563.00
1126.227, 42394.00
1127.321, 42498.00
1128.414, 42418.00
1129.508, 42330.00
1130.601, 42427.00
1131.693, 42356.00
1132.786, 42373.00
1133.879, 42526.00
1134.971, 42718.00
1136.064, 42386.00
1137.156, 42712.00
1138.248, 42498.00
1139.339, 42518.00
1140.431, 42461.00
1141.522, 42477.00
1142.614, 42691.00
1143.705, 42804.00
1144.796, 42592.00
1145.887, 42951.00
1146.977, 42784.00
1148.068, 42532.00
1149.158, 42499.00
1150.248, 42581.00
1151.338, 42568.00
1152.428, 42569.77
1153.518, 42583.72
1154.607, 42609.00
1155.696, 42535.00
1156.785, 42655.00
1157.874, 42575.00
1158.963, 42828.00
1160.052, 43018.00
1161.141, 42678.00
1162.229, 42911.00
1163.317, 43056.00
1164.405, 42762.00
1165.493, 42872.00
1166.581, 42721.00
1167.668, 42896.00
1168.756, 43015.00
1169.843, 42849.00
1170.930, 43017.00
1172.017, 43033.00
1173.103, 42781.00
1174.190, 42957.00
1175.276, 43179.00
1176.363, 43120.00
1177.449, 43303.00
1178.535, 43283.00
1179.620, 43204.00
1180.706, 43405.00
1181.791, 43230.00
1182.877, 43501.00
1183.962, 43382.00
1185.047, 43163.00
1186.131, 43684.00
1187.216, 43586.00
1188.300, 43562.00
1189.385, 43567.00
1190.469, 43576.99
1191.553, 43537.00
1192.637, 43703.00
1193.720, 43718.00
1194.804, 43835.00
1195.887, 43717.00
1196.970, 43919.00
1198.053, 43804.00
1199.136, 43973.00
1200.219, 43887.00
1201.301, 43974.00
1202.383, 44073.00
1203.465, 44014.00
1204.547, 44044.00
1205.629, 44072.00
1206.711, 44296.00
1207.792, 44538.00
1208.874, 44161.00
1209.955, 44605.00
1211.036, 44358.00
1212.117, 44628.00
1213.198, 44552.00
1214.278, 44738.00
1215.359, 44640.00
1216.439, 44591.00
1217.519, 44781.00
1218.599, 44824.00
1219.678, 44532.00
1220.758, 44845.00
1221.837, 44724.00
1222.917, 44879.00
1223.996, 44734.00
1225.075, 44845.80
1226.153, 45058.00
1227.232, 45039.00
1228.310, 44957.00
1229.389, 45079.00
1230.467, 45186.00
1231.545, 45293.00
1232.622, 45331.00
1233.700, 45162.00
1234.777, 45206.00
1235.855, 45315.00
1236.932, 45500.00
1238.009, 45195.00
1239.086, 45347.00
1240.162, 45785.00
1241.239, 45368.00
1242.315, 45376.00
1243.391, 45474.00
1244.467, 45738.00
1245.543, 45860.00
1246.619, 45695.00
1247.694, 45492.00
1248.769, 45838.00
1249.844, 45683.00
1250.919, 45796.00
1251.994, 45934.00
1253.069, 45783.00
1254.144, 46107.00
1255.218, 45925.00
1256.292, 45939.00
1257.366, 45897.00
1258.440, 46113.00
1259.514, 46150.00
1260.587, 45982.00
1261.661, 46126.00
1262.734, 46084.00
1263.807, 46110.00
1264.880, 46200.00
1265.952, 46225.00
1267.025, 46270.03
1268.097, 46363.78
1269.170, 46362.00
1270.242, 46493.00
1271.314, 46587.00
1272.385, 46551.00
1273.457, 46518.00
1274.528, 46586.29
1275.600, 46615.64
1276.671, 46670.00
1277.742, 46758.00
1278.812, 46815.00
1279.883, 46865.00
1280.954, 46876.76
1282.024, 46943.00
1283.094, 46859.00
1284.164, 46858.00
1285.234, 46841.00
1286.303, 47085.00
1287.373, 47282.00
1288.442, 47275.00
1289.511, 47189.00
1290.580, 47216.00
1291.649, 47350.00
1292.718, 47291.00
1293.786, 47585.00
1294.855, 47475.00
1295.923, 47578.00
1296.991, 47266.00
1298.059, 47300.00
1299.126, 47705.00
1300.194, 47613.00
1301.261, 47758.00
1302.328, 48241.00
1303.395, 47652.00
1304.462, 48160.00
1305.529, 47713.00
1306.596, 47848.00
1307.662, 48041.00
1308.728, 48189.00
1309.794, 48362.00
1310.860, 48450.00
1311.926, 48366.00
1312.991, 48468.00
1314.057, 48258.00
1315.122, 48225.00
1316.187, 48181.00
1317.252, 48478.00
1318.317, 48361.00
1319.381, 48548.00
1320.446, 48348.00
1321.510, 48719.00
1322.574, 48843.00
1323.638, 48625.00
1324.702, 48725.00
1325.766, 49006.00
1326.829, 48493.00
1327.892, 48787.00
1328.956, 48752.00
1330.019, 48782.00
1331.081, 48937.00
1332.144, 49064.00
1333.206, 48967.00
1334.269, 49266.00
1335.331, 49196.00
1336.393, 49026.00
1337.455, 49197.00
1338.516, 49285.00
1339.578, 49038.00
1340.639, 49256.00
1341.701, 49578.00
1342.762, 49287.00
1343.822, 49567.00
1344.883, 49538.00
1345.944, 49436.00
1347.004, 49329.00
1348.064, 49598.00
1349.124, 49696.00
1350.184, 49618.00
1351.244, 49663.00
1352.304, 49700.75
1353.363, 49722.00
1354.422, 49694.00
1355.481, 49947.00
1356.540, 49779.00
1357.599, 49919.00
1358.657, 49633.00
1359.716, 49831.00
1360.774, 50091.00
1361.832, 49934.00
1362.890, 50346.00
1363.948, 50213.00
1365.006, 50108.00
1366.063, 50076.00
1367.120, 50036.38
1368.178, 50119.00
1369.234, 50068.00
1370.291, 50191.00
1371.348, 50263.00
1372.404, 50297.00
1373.461, 50360.00
1374.517, 50648.00
1375.573, 50423.00
1376.629, 50663.00
1377.684, 50445.00
1378.740, 50659.00
1379.795, 50369.00
1380.850, 50588.00
1381.905, 50924.00
1382.960, 50905.00
1384.015, 50910.00
1385.070, 50891.00
1386.124, 51124.00
1387.178, 51071.00
1388.232, 51188.00
1389.286, 50955.00
1390.340, 51007.00
1391.393, 51025.00
1392.447, 51071.00
1393.500, 51459.00
1394.553, 51112.00
1395.606, 51461.00
1396.659, 51401.00
1397.711, 51319.00
1398.764, 51415.00
1399.816, 51349.00
1400.868, 51411.00
1401.920, 51621.00
1402.972, 51702.00
1404.023, 51709.00
1405.075, 51731.00
1406.126, 51918.00
1407.177, 51687.00
1408.228, 51577.00
1409.279, 51846.00
1410.330, 51960.00
1411.380, 51827.00
1412.431, 51793.00
1413.481, 52166.00
1414.531, 52076.00
1415.580, 52097.00
1416.630, 52054.00
1417.680, 52182.00
1418.729, 52193.00
1419.778, 52349.00
1420.827, 52163.00
1421.876, 52395.00
1422.925, 52364.00
1423.973, 52240.00
1425.022, 52079.00
1426.070, 52147.19
1427.118, 52464.00
1428.166, 52194.00
1429.214, 52743.00
1430.261, 52704.00
1431.309, 52854.00
1432.356, 52734.00
1433.403, 52727.00
1434.450, 52887.00
1435.497, 53043.00
1436.543, 53079.00
1437.590, 53226.00
1438.636, 53142.00
1439.682, 53117.00
1440.728, 52948.00
1441.774, 53223.00
1442.819, 53275.00
1443.865, 53206.00
1444.910, 53116.00
1445.955, 53447.00
1447.000, 53197.00
1448.045, 53862.00
1449.090, 53470.00
1450.134, 53544.00
1451.178, 53507.00
1452.223, 53648.00
1453.267, 53505.00
1454.310, 53821.00
1455.354, 53880.00
1456.398, 53856.00
1457.441, 53920.00
1458.484, 53908.00
1459.527, 53972.00
1460.570, 53755.00
1461.613, 53853.00
1462.655, 53655.00
1463.698, 53737.53
1464.740, 54120.00
1465.782, 53958.00
1466.824, 54027.00
1467.866, 54283.00
1468.907, 54281.00
1469.948, 54061.00
1470.990, 54750.00
1472.031, 54140.00
1473.072, 54162.00
1474.112, 54334.00
1475.153, 54635.00
1476.194, 54295.00
1477.234, 54578.00
1478.274, 54620.00
1479.314, 54672.00
1480.354, 54764.32
1481.393, 54527.00
1482.433, 54759.00
1483.472, 54860.00
1484.511, 54758.00
1485.550, 54997.00
1486.589, 55152.00
1487.628, 54953.00
1488.666, 54922.00
1489.704, 54917.00
1490.743, 54803.90
1491.781, 55051.00
1492.819, 54891.00
1493.856, 54812.00
1494.894, 55288.00
1495.931, 55103.00
1496.968, 55189.00
1498.005, 55728.00
1499.042, 55383.00
1500.079, 55008.00
1501.115, 55546.00
1502.152, 55382.00
1503.188, 55558.00
1504.224, 55536.00
1505.260, 55389.00
1506.296, 55779.00
1507.331, 55487.00
1508.367, 55749.00
1509.402, 55641.00
1510.437, 55785.00
1511.472, 55736.00
1512.507, 56124.00
1513.541, 55709.00
1514.576, 56021.00
1515.610, 55926.00
1516.644, 55950.00
1517.678, 56023.00
1518.712, 56183.00
1519.746, 56334.00
1520.779, 56307.00
1521.813, 56605.00
1522.846, 56446.00
1523.879, 56214.00
1524.912, 56318.00
1525.944, 56271.00
1526.977, 56328.00
1528.009, 56406.17
1529.041, 56720.00
1530.073, 56561.00
1531.105, 56679.00
1532.137, 56739.00
1533.168, 56418.00
1534.200, 56590.00
1535.231, 56598.00
1536.262, 56941.00
1537.293, 56913.00
1538.324, 56933.00
1539.354, 56624.00
1540.385, 56763.00
1541.415, 57118.00
1542.445, 56781.00
1543.475, 56827.00
1544.505, 56947.00
1545.534, 56812.00
1546.564, 57105.00
1547.593, 56856.00
1548.622, 57265.00
1549.651, 57143.00
1550.680, 57356.00
1551.708, 57274.00
1552.737, 57228.00
1553.765, 57391.00
1554.793, 57514.00
1555.821, 57558.00
1556.849, 57318.00
1557.877, 57538.00
1558.904, 57598.00
1559.932, 57326.00
1560.959, 57530.00
1561.986, 57684.00
1563.013, 57969.00
##END=



