##NAMES=Microcline
##RRUFFID=R050193
##IDEAL CHEMISTRY=KAlSi_3_O_8_
##LOCALITY=Devil's Head, Douglas County, Colorado, USA
##OWNER=RRUFF
##SOURCE=Dave Bunk Minerals
##DESCRIPTION=White to colorless heterogeneous mixture of K and Na feldspar in a cluster of crystals. Crystal structure determined, presented below. This sample is known as an intermediate microcline in the literature.
##STATUS=The identification of this mineral has been confirmed by X-ray diffraction and chemical analysis
##URL=rruff.info/R050193
##MEASURED CHEMISTRY=(K_0.929_Na_0.071_)(Al_1.005_Si_2.994_Fe_0.001_)O_7.993_F_0.007_  ; Light Band :  (Na_0.973_K_0.007_Ca_0.020_)(Al_1.020_Si_2.980_)O_8_ ; Dark Band
##PIN_ID=L00422
##ORIENTATION=Laser parallel to b* (0 1 0). Fiducial mark perpendicular to laser is parallel to c [0 0 1]
127.7630, 6537.000
128.9970, 6645.000
130.2300, 6598.000
131.4640, 6775.000
132.6970, 6895.000
133.9300, 7050.000
135.1630, 7534.000
136.3950, 7854.000
137.6280, 8264.000
138.8600, 8636.000
140.0920, 9005.000
141.3240, 9289.000
142.5560, 9597.000
143.7880, 10026.00
145.0190, 10631.00
146.2510, 11209.00
147.4820, 11599.00
148.7130, 12092.00
149.9440, 12544.00
151.1750, 13164.00
152.4050, 13480.00
153.6360, 13758.00
154.8660, 13945.00
156.0960, 13893.71
157.3260, 13871.00
158.5560, 13468.00
159.7850, 13019.00
161.0150, 12465.00
162.2440, 11913.00
163.4730, 11239.00
164.7020, 10748.00
165.9310, 10177.00
167.1590, 9651.000
168.3880, 9388.000
169.6160, 9238.000
170.8440, 9080.000
172.0720, 9119.000
173.3000, 9102.000
174.5280, 9132.000
175.7550, 9199.000
176.9820, 9276.000
178.2100, 9362.000
179.4370, 9339.000
180.6630, 9243.000
181.8900, 9255.000
183.1170, 9239.000
184.3430, 9093.000
185.5690, 9089.000
186.7950, 8921.000
188.0210, 8826.000
189.2470, 8605.000
190.4720, 8545.000
191.6970, 8303.000
192.9230, 8307.000
194.1480, 8270.000
195.3730, 8314.000
196.5970, 8329.000
197.8220, 8385.000
199.0460, 8383.000
200.2700, 8244.000
201.4940, 8224.000
202.7180, 8147.000
203.9420, 7891.000
205.1660, 7858.000
206.3890, 7844.000
207.6120, 7648.000
208.8350, 7652.000
210.0580, 7503.000
211.2810, 7517.000
212.5040, 7306.000
213.7260, 7231.000
214.9480, 7093.000
216.1700, 6835.000
217.3920, 6835.000
218.6140, 6845.000
219.8360, 6650.000
221.0570, 6582.000
222.2790, 6596.000
223.5000, 6632.000
224.7210, 6719.000
225.9410, 6635.000
227.1620, 6613.000
228.3820, 6756.000
229.6030, 6654.000
230.8230, 6626.000
232.0430, 6642.000
233.2630, 6671.000
234.4820, 6645.000
235.7020, 6676.000
236.9210, 6816.000
238.1400, 6815.000
239.3590, 6963.000
240.5780, 7043.000
241.7970, 7143.000
243.0150, 7242.000
244.2340, 7378.000
245.4520, 7586.000
246.6700, 7793.000
247.8880, 7995.183
249.1060, 8255.000
250.3230, 8496.000
251.5400, 8758.000
252.7580, 9120.000
253.9750, 9395.000
255.1920, 9664.000
256.4080, 9781.000
257.6250, 9792.000
258.8410, 10066.00
260.0580, 10110.00
261.2740, 9860.000
262.4900, 9713.000
263.7050, 9746.000
264.9210, 9570.000
266.1360, 9629.000
267.3520, 9598.000
268.5670, 9535.000
269.7820, 9736.000
270.9960, 9888.000
272.2110, 9829.000
273.4250, 10263.00
274.6400, 10555.00
275.8540, 11133.00
277.0680, 11504.00
278.2810, 12375.00
279.4950, 13034.00
280.7090, 13618.00
281.9220, 14161.00
283.1350, 14471.00
284.3480, 14635.00
285.5610, 14472.00
286.7730, 14315.00
287.9860, 13983.00
289.1980, 13494.00
290.4100, 12968.00
291.6220, 12310.00
292.8340, 11446.00
294.0460, 10879.00
295.2570, 10114.00
296.4690, 9521.000
297.6800, 8927.000
298.8910, 8508.000
300.1020, 8257.000
301.3120, 8069.000
302.5230, 7880.000
303.7330, 7775.000
304.9440, 7657.000
306.1540, 7572.000
307.3630, 7540.000
308.5730, 7650.000
309.7830, 7434.000
310.9920, 7424.000
312.2010, 7561.000
313.4100, 7478.000
314.6190, 7410.000
315.8280, 7558.000
317.0370, 7662.000
318.2450, 7708.000
319.4530, 7841.000
320.6610, 7886.000
321.8690, 8143.000
323.0770, 8155.000
324.2850, 8384.000
325.4920, 8677.000
326.6990, 8706.000
327.9060, 8881.000
329.1130, 8946.000
330.3200, 8848.000
331.5270, 8736.000
332.7330, 8402.000
333.9390, 8309.000
335.1450, 7985.000
336.3510, 7795.000
337.5570, 7761.000
338.7630, 7729.000
339.9680, 7704.000
341.1740, 7558.000
342.3790, 7478.000
343.5840, 7474.000
344.7890, 7461.000
345.9930, 7506.000
347.1980, 7559.000
348.4020, 7613.000
349.6060, 7637.497
350.8100, 7628.000
352.0140, 7626.000
353.2180, 7660.000
354.4210, 7650.170
355.6250, 7684.000
356.8280, 7643.000
358.0310, 7676.000
359.2340, 7638.000
360.4360, 7681.000
361.6390, 7662.000
362.8410, 7695.000
364.0430, 7630.000
365.2450, 7760.000
366.4470, 7749.000
367.6490, 7888.000
368.8510, 7934.000
370.0520, 7837.000
371.2530, 7749.000
372.4540, 7842.000
373.6550, 7774.000
374.8560, 7668.000
376.0560, 7678.000
377.2570, 7555.000
378.4570, 7680.000
379.6570, 7510.000
380.8570, 7540.000
382.0570, 7639.000
383.2560, 7578.000
384.4560, 7551.000
385.6550, 7511.000
386.8540, 7637.000
388.0530, 7640.000
389.2520, 7600.000
390.4510, 7534.000
391.6490, 7687.000
392.8470, 7768.000
394.0450, 7792.000
395.2430, 7825.000
396.4410, 7947.000
397.6390, 7933.000
398.8360, 8019.000
400.0340, 8171.000
401.2310, 8295.000
402.4280, 8318.000
403.6250, 8358.000
404.8210, 8368.480
406.0180, 8268.000
407.2140, 8283.000
408.4100, 8296.000
409.6060, 8152.000
410.8020, 8259.000
411.9980, 8049.000
413.1930, 8098.000
414.3890, 8095.000
415.5840, 7945.000
416.7790, 7960.000
417.9740, 7872.000
419.1680, 7908.000
420.3630, 7761.000
421.5570, 7802.000
422.7510, 7758.000
423.9450, 7824.000
425.1390, 7774.000
426.3330, 7862.000
427.5270, 7856.000
428.7200, 7899.000
429.9130, 7906.000
431.1060, 7899.000
432.2990, 7881.000
433.4920, 7911.319
434.6840, 7870.000
435.8770, 7992.000
437.0690, 8025.000
438.2610, 8126.000
439.4530, 8158.000
440.6450, 8232.000
441.8360, 8325.000
443.0280, 8515.000
444.2190, 8441.000
445.4100, 8548.000
446.6010, 8722.000
447.7920, 8962.000
448.9820, 9004.000
450.1730, 9303.000
451.3630, 9294.000
452.5530, 9361.000
453.7430, 9435.000
454.9330, 9314.000
456.1230, 9330.000
457.3120, 9386.000
458.5010, 9319.000
459.6910, 9198.000
460.8800, 9281.000
462.0680, 9478.000
463.2570, 9430.000
464.4460, 9808.000
465.6340, 9958.000
466.8220, 10373.00
468.0100, 10768.00
469.1980, 11322.00
470.3860, 11930.00
471.5730, 12495.00
472.7600, 13042.00
473.9480, 13230.00
475.1350, 13711.00
476.3210, 13897.00
477.5080, 13736.00
478.6950, 13425.00
479.8810, 13052.00
481.0670, 12865.00
482.2530, 12277.00
483.4390, 11763.00
484.6250, 11254.00
485.8100, 10898.00
486.9960, 10547.00
488.1810, 10143.00
489.3660, 10097.00
490.5510, 9977.000
491.7360, 9801.000
492.9200, 10022.00
494.1050, 10215.00
495.2890, 10623.00
496.4730, 10959.00
497.6570, 11541.00
498.8400, 12288.00
500.0240, 13246.00
501.2070, 14032.00
502.3910, 15100.00
503.5740, 16308.00
504.7570, 17529.00
505.9400, 18733.00
507.1220, 20095.00
508.3050, 20635.00
509.4870, 21233.00
510.6690, 21378.00
511.8510, 21334.00
513.0330, 20334.00
514.2140, 19162.00
515.3960, 17621.00
516.5770, 16213.00
517.7580, 14838.00
518.9390, 13640.00
520.1200, 12460.00
521.3010, 11760.00
522.4810, 11087.00
523.6610, 10713.00
524.8420, 10329.00
526.0220, 10011.00
527.2010, 9914.000
528.3810, 9765.000
529.5610, 9582.000
530.7400, 9633.000
531.9190, 9439.000
533.0980, 9348.000
534.2770, 9281.000
535.4560, 9094.000
536.6340, 9162.000
537.8120, 9150.000
538.9910, 9251.000
540.1690, 9098.000
541.3460, 9138.000
542.5240, 8963.000
543.7020, 8987.000
544.8790, 8978.000
546.0560, 9026.000
547.2330, 9012.147
548.4100, 8949.000
549.5870, 8989.000
550.7630, 8966.000
551.9400, 8922.000
553.1160, 8953.074
554.2920, 8989.000
555.4680, 8958.000
556.6440, 8993.000
557.8190, 8969.000
558.9950, 9008.000
560.1700, 9015.000
561.3450, 9021.000
562.5200, 9022.000
563.6950, 8990.000
564.8690, 8978.348
566.0440, 9146.000
567.2180, 8959.000
568.3920, 9085.000
569.5660, 9163.000
570.7400, 9107.000
571.9130, 9197.000
573.0870, 9259.000
574.2600, 9199.000
575.4330, 9244.000
576.6060, 9258.427
577.7790, 9299.000
578.9520, 9293.000
580.1240, 9304.000
581.2960, 9300.000
582.4690, 9392.000
583.6410, 9202.000
584.8120, 9369.000
585.9840, 9176.000
587.1560, 9310.000
588.3270, 9158.000
589.4980, 9124.000
590.6690, 9287.000
591.8400, 9141.000
593.0110, 9177.000
594.1810, 9049.000
595.3510, 9216.000
596.5220, 9304.000
597.6920, 9133.000
598.8610, 9175.000
600.0310, 9131.000
601.2010, 9151.000
602.3700, 9159.000
603.5390, 9179.000
604.7080, 9250.000
605.8770, 9196.000
607.0460, 9347.000
608.2140, 9225.000
609.3830, 9285.000
610.5510, 9360.000
611.7190, 9218.000
612.8870, 9406.000
614.0550, 9246.000
615.2220, 9407.000
616.3900, 9320.000
617.5570, 9389.000
618.7240, 9418.000
619.8910, 9343.000
621.0580, 9455.000
622.2240, 9518.000
623.3910, 9695.000
624.5570, 9798.000
625.7230, 9735.000
626.8890, 9842.000
628.0550, 9831.000
629.2200, 9790.000
630.3860, 9945.000
631.5510, 9797.000
632.7160, 9947.000
633.8810, 9821.000
635.0460, 9775.000
636.2100, 9752.000
637.3750, 9720.000
638.5390, 9706.000
639.7030, 9666.000
640.8670, 9894.000
642.0310, 9846.000
643.1950, 9852.000
644.3580, 9963.000
645.5210, 9902.000
646.6850, 10103.00
647.8480, 10057.00
649.0100, 10114.00
650.1730, 10138.00
651.3350, 10114.00
652.4980, 9998.000
653.6600, 10010.00
654.8220, 9922.000
655.9840, 9818.000
657.1450, 9839.000
658.3070, 9794.000
659.4680, 9757.000
660.6300, 9747.000
661.7910, 9741.000
662.9510, 9912.000
664.1120, 9727.000
665.2730, 9529.000
666.4330, 9763.000
667.5930, 9677.000
668.7530, 9738.000
669.9130, 9524.000
671.0730, 9582.000
672.2320, 9677.000
673.3920, 9614.000
674.5510, 9749.000
675.7100, 9719.000
676.8690, 9604.000
678.0280, 9692.000
679.1860, 9640.761
680.3450, 9704.000
681.5030, 9676.000
682.6610, 9744.000
683.8190, 9827.000
684.9770, 9786.000
686.1340, 9804.000
687.2920, 9726.000
688.4490, 9692.000
689.6060, 9819.000
690.7630, 9855.000
691.9200, 9805.000
693.0760, 9836.000
694.2330, 9673.000
695.3890, 9741.000
696.5450, 9795.000
697.7010, 9786.000
698.8570, 9886.000
700.0130, 9756.000
701.1680, 9831.000
702.3230, 9796.000
703.4780, 9883.000
704.6330, 9880.000
705.7880, 9931.000
706.9430, 9964.000
708.0970, 9879.000
709.2520, 9911.000
710.4060, 9831.000
711.5600, 9902.000
712.7140, 10025.00
713.8670, 9938.000
715.0210, 9894.000
716.1740, 9982.000
717.3270, 9962.000
718.4800, 9926.000
719.6330, 9963.000
720.7860, 10075.00
721.9380, 9992.000
723.0910, 10143.00
724.2430, 10062.00
725.3950, 10079.00
726.5470, 10110.00
727.6980, 10213.00
728.8500, 10011.00
730.0010, 10156.00
731.1530, 10186.00
732.3040, 10308.00
733.4550, 10095.00
734.6050, 10311.00
735.7560, 10199.00
736.9060, 10292.00
738.0560, 10450.00
739.2060, 10434.00
740.3560, 10584.00
741.5060, 10714.00
742.6560, 10667.00
743.8050, 10685.00
744.9540, 10630.00
746.1030, 10909.00
747.2520, 10960.00
748.4010, 10952.00
749.5500, 10899.00
750.6980, 10708.00
751.8460, 10857.00
752.9950, 10781.00
754.1420, 10879.00
755.2900, 10781.00
756.4380, 10765.00
757.5850, 10806.00
758.7330, 10858.00
759.8800, 10787.00
761.0270, 10821.00
762.1730, 10796.00
763.3200, 10912.00
764.4670, 10941.00
765.6130, 10956.00
766.7590, 10904.00
767.9050, 10930.00
769.0510, 10785.00
770.1960, 10729.00
771.3420, 10698.00
772.4870, 10686.00
773.6320, 10752.00
774.7770, 10711.00
775.9220, 10678.00
777.0670, 10724.00
778.2110, 10673.00
779.3560, 10588.00
780.5000, 10733.00
781.6440, 10634.00
782.7880, 10614.00
783.9320, 10781.00
785.0750, 10710.00
786.2180, 10666.00
787.3620, 10698.00
788.5050, 10788.00
789.6480, 10692.00
790.7900, 10565.00
791.9330, 10705.00
793.0750, 10743.00
794.2170, 10807.00
795.3590, 10732.00
796.5010, 10817.00
797.6430, 10800.00
798.7850, 10833.00
799.9260, 10839.00
801.0670, 10895.00
802.2080, 11040.00
803.3490, 11113.00
804.4900, 11019.00
805.6310, 11232.00
806.7710, 11406.00
807.9110, 11314.00
809.0510, 11583.00
810.1910, 11562.00
811.3310, 11804.00
812.4710, 11757.00
813.6100, 11802.00
814.7490, 11792.00
815.8880, 11686.00
817.0270, 11583.00
818.1660, 11449.00
819.3050, 11311.00
820.4430, 11177.00
821.5820, 11119.00
822.7200, 11226.00
823.8580, 10975.00
824.9950, 11034.00
826.1330, 11030.00
827.2710, 10843.00
828.4080, 10948.00
829.5450, 10885.00
830.6820, 10924.00
831.8190, 10909.00
832.9560, 10926.24
834.0920, 10931.73
835.2280, 10959.00
836.3650, 10959.00
837.5010, 10976.48
838.6360, 10981.00
839.7720, 11009.00
840.9080, 11004.71
842.0430, 11007.23
843.1780, 10992.00
844.3130, 10993.00
845.4480, 10964.00
846.5830, 10945.00
847.7170, 11165.00
848.8520, 11049.00
849.9860, 11175.00
851.1200, 11014.00
852.2540, 11193.00
853.3870, 11125.00
854.5210, 11283.00
855.6540, 11184.00
856.7880, 11179.00
857.9210, 11070.00
859.0540, 11128.00
860.1860, 11130.00
861.3190, 11232.00
862.4510, 11248.00
863.5840, 11248.25
864.7160, 11208.00
865.8480, 11249.00
866.9790, 11219.00
868.1110, 11267.00
869.2420, 11191.00
870.3740, 11304.00
871.5050, 11286.00
872.6360, 11225.00
873.7660, 11282.00
874.8970, 11368.00
876.0280, 11331.00
877.1580, 11260.00
878.2880, 11397.00
879.4180, 11350.00
880.5480, 11341.00
881.6770, 11342.00
882.8070, 11326.75
883.9360, 11317.92
885.0650, 11324.00
886.1940, 11344.00
887.3230, 11337.00
888.4520, 11461.00
889.5800, 11339.00
890.7090, 11558.00
891.8370, 11481.00
892.9650, 11500.00
894.0930, 11446.00
895.2200, 11493.00
896.3480, 11498.00
897.4750, 11570.00
898.6020, 11350.00
899.7290, 11603.00
900.8560, 11469.00
901.9830, 11634.00
903.1090, 11520.00
904.2360, 11489.00
905.3620, 11560.00
906.4880, 11526.00
907.6140, 11661.00
908.7400, 11537.00
909.8650, 11498.00
910.9900, 11554.00
912.1160, 11670.00
913.2410, 11577.00
914.3660, 11624.00
915.4900, 11675.00
916.6150, 11662.00
917.7390, 11751.00
918.8640, 11740.00
919.9880, 11864.00
921.1120, 11932.00
922.2350, 11870.00
923.3590, 11844.00
924.4820, 11841.00
925.6060, 11724.00
926.7290, 11827.00
927.8520, 11775.00
928.9740, 11954.00
930.0970, 11860.00
931.2190, 11893.00
932.3420, 11978.00
933.4640, 11900.00
934.5860, 12050.00
935.7080, 11782.00
936.8290, 11914.00
937.9510, 12025.00
939.0720, 11949.00
940.1930, 12005.00
941.3140, 11906.00
942.4350, 12079.00
943.5560, 11931.00
944.6760, 12165.00
945.7960, 12182.00
946.9170, 11981.00
948.0370, 11985.00
949.1560, 12051.00
950.2760, 12151.00
951.3960, 12103.00
952.5150, 12114.00
953.6340, 12316.00
954.7530, 12202.00
955.8720, 12235.00
956.9910, 12268.00
958.1090, 12132.00
959.2280, 12261.00
960.3460, 12208.00
961.4640, 12141.00
962.5820, 12278.00
963.6990, 12227.00
964.8170, 12203.00
965.9340, 12294.00
967.0510, 12335.00
968.1690, 12320.00
969.2850, 12351.00
970.4020, 12387.54
971.5190, 12530.00
972.6350, 12527.00
973.7510, 12522.00
974.8670, 12709.00
975.9830, 12644.00
977.0990, 12680.00
978.2150, 12547.00
979.3300, 12706.00
980.4450, 12650.00
981.5600, 12655.00
982.6750, 12616.00
983.7900, 12674.00
984.9050, 12741.00
986.0190, 12758.00
987.1340, 12664.00
988.2480, 12733.00
989.3620, 12794.00
990.4750, 12901.00
991.5890, 12879.00
992.7020, 12916.00
993.8160, 12960.00
994.9290, 13035.00
996.0420, 13076.89
997.1550, 13038.00
998.2670, 13157.00
999.3800, 13175.00
1000.492, 13146.00
1001.604, 13305.00
1002.716, 13281.00
1003.828, 13163.00
1004.940, 13261.00
1006.051, 13184.00
1007.163, 13128.00
1008.274, 13284.00
1009.385, 13271.00
1010.496, 13099.00
1011.606, 13197.00
1012.717, 13145.00
1013.827, 13209.00
1014.937, 13046.00
1016.047, 13063.00
1017.157, 13109.00
1018.267, 13284.00
1019.377, 13057.00
1020.486, 13201.00
1021.595, 13303.00
1022.704, 13317.00
1023.813, 13383.00
1024.922, 13334.00
1026.030, 13280.00
1027.139, 13344.00
1028.247, 13533.00
1029.355, 13638.00
1030.463, 13483.00
1031.571, 13633.00
1032.678, 13560.00
1033.786, 13656.00
1034.893, 13595.00
1036.000, 13601.00
1037.107, 13525.00
1038.214, 13501.60
1039.321, 13566.00
1040.427, 13432.00
1041.533, 13461.00
1042.639, 13433.00
1043.745, 13301.00
1044.851, 13526.00
1045.957, 13481.00
1047.062, 13483.00
1048.168, 13358.00
1049.273, 13359.00
1050.378, 13386.00
1051.482, 13312.00
1052.587, 13311.00
1053.692, 13251.00
1054.796, 13297.55
1055.900, 13218.00
1057.004, 13395.00
1058.108, 13432.00
1059.212, 13452.00
1060.315, 13444.00
1061.418, 13470.00
1062.522, 13437.00
1063.625, 13378.00
1064.728, 13370.00
1065.830, 13384.00
1066.933, 13332.00
1068.035, 13389.00
1069.137, 13407.00
1070.239, 13418.00
1071.341, 13386.00
1072.443, 13521.00
1073.545, 13473.00
1074.646, 13513.00
1075.747, 13594.00
1076.848, 13628.00
1077.949, 13476.00
1079.050, 13673.00
1080.150, 13514.00
1081.251, 13688.00
1082.351, 13694.00
1083.451, 13614.00
1084.551, 13753.00
1085.651, 13730.00
1086.750, 13777.00
1087.850, 13905.00
1088.949, 13898.00
1090.048, 14028.00
1091.147, 14027.00
1092.246, 14156.00
1093.345, 14288.00
1094.443, 14367.12
1095.541, 14504.00
1096.639, 14562.00
1097.737, 14661.00
1098.835, 14672.00
1099.933, 14618.00
1101.030, 14616.00
1102.128, 14513.00
1103.225, 14512.00
1104.322, 14470.00
1105.419, 14395.00
1106.515, 14349.00
1107.612, 14437.00
1108.708, 14653.00
1109.804, 14418.00
1110.900, 14299.00
1111.996, 14558.00
1113.092, 14650.00
1114.187, 14588.00
1115.283, 14664.00
1116.378, 14713.00
1117.473, 14670.00
1118.568, 14901.00
1119.662, 14836.00
1120.757, 14900.00
1121.851, 14893.00
1122.946, 14896.80
1124.040, 14917.00
1125.134, 14884.00
1126.227, 14898.00
1127.321, 14809.00
1128.414, 14808.00
1129.508, 14868.00
1130.601, 14764.00
1131.693, 14814.00
1132.786, 14764.00
1133.879, 14797.00
1134.971, 14770.00
1136.064, 14903.00
1137.156, 14846.00
1138.248, 14820.00
1139.339, 15057.00
1140.431, 14763.00
1141.522, 15028.00
1142.614, 14911.00
1143.705, 14786.00
1144.796, 14849.00
1145.887, 14673.00
1146.977, 14516.00
1148.068, 14544.00
1149.158, 14583.00
1150.248, 14636.00
1151.338, 14545.00
1152.428, 14426.00
1153.518, 14474.00
1154.607, 14569.00
1155.696, 14452.00
1156.785, 14498.00
1157.874, 14429.00
1158.963, 14395.00
1160.052, 14560.00
1161.141, 14552.00
1162.229, 14568.00
1163.317, 14619.18
1164.405, 14554.00
1165.493, 14608.00
1166.581, 14557.00
1167.668, 14480.00
1168.756, 14588.00
1169.843, 14353.00
1170.930, 14509.00
1172.017, 14466.00
1173.103, 14471.00
1174.190, 14438.00
1175.276, 14615.00
1176.363, 14574.00
1177.449, 14658.00
1178.535, 14656.00
1179.620, 14579.00
1180.706, 14651.00
1181.791, 14636.00
1182.877, 14694.00
1183.962, 14634.00
1185.047, 14729.00
1186.131, 14732.00
1187.216, 14645.00
1188.300, 14734.00
1189.385, 14654.00
1190.469, 14776.00
1191.553, 14768.00
1192.637, 14683.00
1193.720, 14818.00
1194.804, 14760.00
1195.887, 14710.00
1196.970, 14817.00
1198.053, 14919.00
1199.136, 14753.00
1200.219, 14766.00
1201.301, 14782.00
1202.383, 14753.00
1203.465, 14797.71
1204.547, 14821.00
1205.629, 14876.00
1206.711, 14900.00
1207.792, 14966.06
1208.874, 14999.00
1209.955, 14912.00
1211.036, 14876.00
1212.117, 14704.00
1213.198, 14863.00
1214.278, 14934.00
1215.359, 15162.00
1216.439, 15002.00
1217.519, 14880.00
1218.599, 15106.00
1219.678, 14968.00
1220.758, 15087.00
1221.837, 15110.00
1222.917, 14985.00
1223.996, 15103.00
1225.075, 15152.00
1226.153, 15072.00
1227.232, 15068.00
1228.310, 15044.00
1229.389, 15103.00
1230.467, 15190.00
1231.545, 15160.00
1232.622, 15175.00
1233.700, 15112.00
1234.777, 15272.00
1235.855, 15183.00
1236.932, 15212.00
1238.009, 15069.00
1239.086, 15272.00
1240.162, 15086.00
1241.239, 15239.00
1242.315, 15320.00
1243.391, 15318.00
1244.467, 15298.00
1245.543, 15240.00
1246.619, 15253.64
1247.694, 15246.38
1248.769, 15273.00
1249.844, 15326.00
1250.919, 15391.00
1251.994, 15406.41
1253.069, 15409.00
1254.144, 15451.00
1255.218, 15446.00
1256.292, 15459.00
1257.366, 15476.61
1258.440, 15465.41
1259.514, 15500.00
1260.587, 15480.00
1261.661, 15490.00
1262.734, 15558.00
1263.807, 15467.00
1264.880, 15634.00
1265.952, 15563.00
1267.025, 15726.00
1268.097, 15413.00
1269.170, 15799.00
1270.242, 15610.00
1271.314, 15656.00
1272.385, 15698.00
1273.457, 15716.00
1274.528, 15706.00
1275.600, 15745.00
1276.671, 15830.00
1277.742, 15779.00
1278.812, 15754.00
1279.883, 15630.00
1280.954, 15648.82
1282.024, 15869.00
1283.094, 15692.00
1284.164, 15790.00
1285.234, 15928.00
1286.303, 15858.00
1287.373, 15773.00
1288.442, 15908.00
1289.511, 15789.00
1290.580, 16012.00
1291.649, 15929.00
1292.718, 15965.00
1293.786, 16014.00
1294.855, 15930.00
1295.923, 15938.00
1296.991, 16012.00
1298.059, 16095.00
1299.126, 16136.00
1300.194, 15958.00
1301.261, 16190.00
1302.328, 16196.00
1303.395, 16005.00
1304.462, 16165.00
1305.529, 16198.00
1306.596, 16111.00
1307.662, 16159.00
1308.728, 16239.00
1309.794, 16226.00
1310.860, 16089.00
1311.926, 16234.00
1312.991, 16419.00
1314.057, 16207.00
1315.122, 16173.00
1316.187, 16133.00
1317.252, 16281.00
1318.317, 16291.00
1319.381, 16358.00
1320.446, 16394.00
1321.510, 16363.00
1322.574, 16345.00
1323.638, 16368.00
1324.702, 16434.00
1325.766, 16496.00
1326.829, 16434.00
1327.892, 16427.00
1328.956, 16486.00
1330.019, 16406.00
1331.081, 16567.00
1332.144, 16506.00
1333.206, 16395.00
1334.269, 16451.00
1335.331, 16523.00
1336.393, 16430.00
1337.455, 16495.00
1338.516, 16492.71
1339.578, 16502.00
1340.639, 16561.00
1341.701, 16566.31
1342.762, 16788.00
1343.822, 16620.00
1344.883, 16660.00
1345.944, 16687.00
1347.004, 16499.00
1348.064, 16668.00
1349.124, 16727.00
1350.184, 16629.00
1351.244, 16657.00
1352.304, 16654.00
1353.363, 16722.00
1354.422, 16730.00
1355.481, 16811.00
1356.540, 16775.00
1357.599, 16838.00
1358.657, 16889.00
1359.716, 16699.00
1360.774, 16853.00
1361.832, 16780.00
1362.890, 16851.00
1363.948, 16851.00
1365.006, 16894.00
1366.063, 16828.00
1367.120, 16898.00
1368.178, 16998.00
1369.234, 16977.00
1370.291, 17190.00
1371.348, 16866.00
1372.404, 17061.00
1373.461, 16869.00
1374.517, 16965.00
1375.573, 17081.00
1376.629, 17060.00
1377.684, 16946.00
1378.740, 17129.00
1379.795, 17327.00
1380.850, 17023.00
1381.905, 17087.00
1382.960, 17243.00
1384.015, 17100.00
1385.070, 17117.00
1386.124, 17334.00
1387.178, 17056.00
1388.232, 17135.00
1389.286, 17136.00
1390.340, 17300.00
1391.393, 17141.00
1392.447, 17357.00
1393.500, 17221.00
1394.553, 17293.00
1395.606, 17296.00
1396.659, 17324.00
1397.711, 17249.00
1398.764, 17263.00
1399.816, 17367.00
1400.868, 17119.00
1401.920, 17276.00
1402.972, 17519.00
1404.023, 17422.00
1405.075, 17389.00
1406.126, 17389.00
1407.177, 17526.00
1408.228, 17371.00
1409.279, 17405.00
1410.330, 17496.00
1411.380, 17442.00
1412.431, 17553.00
1413.481, 17339.00
1414.531, 17417.00
1415.580, 17551.00
1416.630, 17660.00
1417.680, 17548.00
1418.729, 17583.00
1419.778, 17596.00
1420.827, 17508.00
1421.876, 17599.00
1422.925, 17613.00
1423.973, 17507.00
1425.022, 17710.00
1426.070, 17727.00
1427.118, 17747.00
1428.166, 17694.00
1429.214, 17696.73
1430.261, 17793.00
1431.309, 17714.00
1432.356, 17645.00
1433.403, 17796.00
1434.450, 17868.00
1435.497, 17704.00
1436.543, 17819.00
1437.590, 17900.00
1438.636, 17874.00
1439.682, 17914.00
1440.728, 17884.00
1441.774, 17907.00
1442.819, 17948.00
1443.865, 17948.00
1444.910, 17917.00
1445.955, 17975.04
1447.000, 18050.00
1448.045, 18029.00
1449.090, 18091.00
1450.134, 18063.00
1451.178, 18038.00
1452.223, 18065.00
1453.267, 17960.00
1454.310, 18088.00
1455.354, 18116.00
1456.398, 18139.00
1457.441, 18099.00
1458.484, 18150.00
1459.527, 18028.00
1460.570, 18164.00
1461.613, 18226.00
1462.655, 18270.00
1463.698, 18099.00
1464.740, 18316.00
1465.782, 18038.00
1466.824, 18258.00
1467.866, 18266.00
1468.907, 18291.00
1469.948, 18302.00
1470.990, 18201.00
1472.031, 18315.00
1473.072, 18448.00
1474.112, 18472.00
1475.153, 18399.00
1476.194, 18471.00
1477.234, 18532.00
1478.274, 18340.00
1479.314, 18278.00
1480.354, 18435.00
1481.393, 18513.00
1482.433, 18353.00
1483.472, 18349.00
1484.511, 18643.00
1485.550, 18455.00
1486.589, 18511.00
1487.628, 18552.00
1488.666, 18585.00
1489.704, 18563.00
1490.743, 18696.00
1491.781, 18770.00
1492.819, 18694.00
1493.856, 18696.00
1494.894, 18647.00
1495.931, 18731.00
1496.968, 18646.00
1498.005, 18547.00
1499.042, 18645.00
1500.079, 18797.00
1501.115, 18783.00
1502.152, 18710.00
1503.188, 18692.00
1504.224, 18568.00
1505.260, 18720.00
1506.296, 18896.00
1507.331, 18746.00
1508.367, 18845.00
1509.402, 18800.32
1510.437, 18889.00
1511.472, 18740.00
1512.507, 18779.00
1513.541, 18832.00
1514.576, 18780.00
1515.610, 18820.00
1516.644, 18965.00
1517.678, 18719.00
1518.712, 19261.00
1519.746, 18890.00
1520.779, 18968.00
1521.813, 18999.00
1522.846, 18951.00
1523.879, 19045.00
1524.912, 19100.00
1525.944, 19015.00
1526.977, 19201.00
1528.009, 19142.00
1529.041, 19043.00
1530.073, 19134.00
1531.105, 19112.00
1532.137, 19208.00
1533.168, 19047.00
1534.200, 19259.00
1535.231, 19251.00
1536.262, 19102.00
1537.293, 19310.00
1538.324, 19225.00
1539.354, 19298.00
1540.385, 19214.00
1541.415, 19225.00
1542.445, 19454.00
1543.475, 19318.00
1544.505, 19440.00
1545.534, 19239.00
1546.564, 19390.00
1547.593, 19433.00
1548.622, 19417.00
1549.651, 19473.50
1550.680, 19480.00
1551.708, 19501.00
1552.737, 19513.00
1553.765, 19505.82
1554.793, 19498.37
1555.821, 19486.00
1556.849, 19451.00
1557.877, 19436.00
1558.904, 19397.00
1559.932, 19515.00
1560.959, 19681.00
1561.986, 19268.00
1563.013, 19570.00
##END=



