##NAMES=Microcline
##RRUFFID=R050193
##IDEAL CHEMISTRY=KAlSi_3_O_8_
##LOCALITY=Devil's Head, Douglas County, Colorado, USA
##OWNER=RRUFF
##SOURCE=Dave Bunk Minerals
##DESCRIPTION=White to colorless heterogeneous mixture of K and Na feldspar in a cluster of crystals. Crystal structure determined, presented below. This sample is known as an intermediate microcline in the literature.
##STATUS=The identification of this mineral has been confirmed by X-ray diffraction and chemical analysis
##URL=rruff.info/R050193
##MEASURED CHEMISTRY=(K_0.929_Na_0.071_)(Al_1.005_Si_2.994_Fe_0.001_)O_7.993_F_0.007_  ; Light Band :  (Na_0.973_K_0.007_Ca_0.020_)(Al_1.020_Si_2.980_)O_8_ ; Dark Band
##PIN_ID=L00422
##ORIENTATION=Laser parallel to b* (0 1 0). Fiducial mark perpendicular to laser is parallel to c [0 0 1]
130.2300, 5791.000
131.4640, 5821.000
132.6970, 5944.000
133.9300, 5946.000
135.1630, 6200.000
136.3950, 6311.000
137.6280, 6468.000
138.8600, 6738.000
140.0920, 6955.000
141.3240, 7160.000
142.5560, 7409.000
143.7880, 7536.000
145.0190, 7812.000
146.2510, 7916.000
147.4820, 8293.000
148.7130, 8580.000
149.9440, 8909.000
151.1750, 9158.000
152.4050, 9476.000
153.6360, 9719.000
154.8660, 9778.000
156.0960, 9847.000
157.3260, 9950.000
158.5560, 10062.00
159.7850, 10081.00
161.0150, 9986.000
162.2440, 9835.000
163.4730, 9541.000
164.7020, 9326.000
165.9310, 8949.000
167.1590, 8590.000
168.3880, 8401.000
169.6160, 8290.000
170.8440, 8191.000
172.0720, 8124.000
173.3000, 8072.000
174.5280, 8109.000
175.7550, 8232.000
176.9820, 8220.000
178.2100, 8301.000
179.4370, 8368.000
180.6630, 8404.000
181.8900, 8474.000
183.1170, 8508.000
184.3430, 8496.000
185.5690, 8380.000
186.7950, 8274.000
188.0210, 8293.000
189.2470, 8070.000
190.4720, 7946.000
191.6970, 7669.000
192.9230, 7489.000
194.1480, 7476.000
195.3730, 7443.000
196.5970, 7414.000
197.8220, 7451.000
199.0460, 7494.000
200.2700, 7493.000
201.4940, 7571.000
202.7180, 7515.000
203.9420, 7557.000
205.1660, 7564.511
206.3890, 7548.000
207.6120, 7567.000
208.8350, 7480.000
210.0580, 7448.000
211.2810, 7391.000
212.5040, 7159.000
213.7260, 7073.000
214.9480, 7082.000
216.1700, 6801.000
217.3920, 6700.000
218.6140, 6614.000
219.8360, 6652.000
221.0570, 6574.000
222.2790, 6564.000
223.5000, 6604.000
224.7210, 6556.000
225.9410, 6600.000
227.1620, 6618.000
228.3820, 6504.000
229.6030, 6597.000
230.8230, 6525.000
232.0430, 6474.000
233.2630, 6531.000
234.4820, 6582.000
235.7020, 6484.000
236.9210, 6590.000
238.1400, 6643.000
239.3590, 6758.000
240.5780, 6837.000
241.7970, 6790.000
243.0150, 6865.000
244.2340, 6913.000
245.4520, 6901.000
246.6700, 7107.000
247.8880, 7160.000
249.1060, 7294.000
250.3230, 7344.000
251.5400, 7399.000
252.7580, 7486.000
253.9750, 7437.856
255.1920, 7538.585
256.4080, 7609.287
257.6250, 7651.792
258.8410, 7571.972
260.0580, 7657.410
261.2740, 7681.064
262.4900, 7705.244
263.7050, 7822.976
264.9210, 7777.336
266.1360, 7899.999
267.3520, 7959.961
268.5670, 8053.232
269.7820, 8084.346
270.9960, 8138.764
272.2110, 8261.777
273.4250, 8351.719
274.6400, 8388.028
275.8540, 8502.229
277.0680, 8745.000
278.2810, 8887.000
279.4950, 9280.000
280.7090, 9707.000
281.9220, 10011.00
283.1350, 10293.32
284.3480, 10465.00
285.5610, 10689.00
286.7730, 10790.00
287.9860, 10840.00
289.1980, 10826.06
290.4100, 10703.64
291.6220, 10552.00
292.8340, 10209.00
294.0460, 9842.000
295.2570, 9312.000
296.4690, 8824.000
297.6800, 8455.000
298.8910, 8174.000
300.1020, 7895.000
301.3120, 7897.000
302.5230, 7765.000
303.7330, 7613.000
304.9440, 7504.000
306.1540, 7579.000
307.3630, 7400.000
308.5730, 7615.000
309.7830, 7406.000
310.9920, 7436.000
312.2010, 7503.000
313.4100, 7378.000
314.6190, 7373.000
315.8280, 7286.000
317.0370, 7493.000
318.2450, 7568.000
319.4530, 7588.000
320.6610, 7598.000
321.8690, 7628.000
323.0770, 7684.000
324.2850, 7788.000
325.4920, 7909.000
326.6990, 7877.000
327.9060, 7927.000
329.1130, 7997.000
330.3200, 7933.000
331.5270, 7919.000
332.7330, 7881.000
333.9390, 7610.000
335.1450, 7534.000
336.3510, 7548.000
337.5570, 7603.000
338.7630, 7379.000
339.9680, 7415.000
341.1740, 7420.000
342.3790, 7408.000
343.5840, 7441.000
344.7890, 7449.000
345.9930, 7452.019
347.1980, 7442.000
348.4020, 7461.000
349.6060, 7473.000
350.8100, 7476.000
352.0140, 7488.000
353.2180, 7569.000
354.4210, 7531.000
355.6250, 7537.000
356.8280, 7617.000
358.0310, 7575.000
359.2340, 7533.000
360.4360, 7450.000
361.6390, 7556.000
362.8410, 7533.000
364.0430, 7547.000
365.2450, 7734.000
366.4470, 7626.000
367.6490, 7685.000
368.8510, 7640.000
370.0520, 7630.031
371.2530, 7653.000
372.4540, 7642.000
373.6550, 7592.000
374.8560, 7626.000
376.0560, 7601.000
377.2570, 7650.000
378.4570, 7663.000
379.6570, 7495.000
380.8570, 7623.000
382.0570, 7703.000
383.2560, 7617.000
384.4560, 7720.000
385.6550, 7685.000
386.8540, 7625.000
388.0530, 7676.000
389.2520, 7709.000
390.4510, 7775.000
391.6490, 7842.000
392.8470, 7791.000
394.0450, 7853.000
395.2430, 7912.000
396.4410, 7985.000
397.6390, 8098.000
398.8360, 8206.000
400.0340, 8303.000
401.2310, 8341.545
402.4280, 8332.000
403.6250, 8411.000
404.8210, 8440.000
406.0180, 8521.000
407.2140, 8587.000
408.4100, 8597.000
409.6060, 8588.000
410.8020, 8495.000
411.9980, 8468.000
413.1930, 8285.000
414.3890, 8250.000
415.5840, 8169.000
416.7790, 8145.000
417.9740, 8105.000
419.1680, 8065.000
420.3630, 8039.000
421.5570, 8003.000
422.7510, 8112.000
423.9450, 7936.000
425.1390, 7868.000
426.3330, 7882.000
427.5270, 8003.000
428.7200, 7885.000
429.9130, 7961.000
431.1060, 8075.000
432.2990, 8054.000
433.4920, 8004.000
434.6840, 7997.000
435.8770, 8145.000
437.0690, 8221.000
438.2610, 8206.000
439.4530, 8274.484
440.6450, 8168.000
441.8360, 8264.000
443.0280, 8356.000
444.2190, 8293.000
445.4100, 8500.000
446.6010, 8564.000
447.7920, 8582.000
448.9820, 8767.000
450.1730, 8758.000
451.3630, 8768.000
452.5530, 8994.000
453.7430, 8871.000
454.9330, 8958.000
456.1230, 8995.000
457.3120, 8980.000
458.5010, 9083.000
459.6910, 9102.000
460.8800, 9143.000
462.0680, 9130.000
463.2570, 9162.000
464.4460, 9491.000
465.6340, 9733.000
466.8220, 9865.000
468.0100, 10221.00
469.1980, 10552.00
470.3860, 11005.00
471.5730, 11326.00
472.7600, 11712.00
473.9480, 12101.00
475.1350, 12386.00
476.3210, 12686.00
477.5080, 12886.00
478.6950, 12778.00
479.8810, 12662.00
481.0670, 12079.00
482.2530, 11663.00
483.4390, 11027.00
484.6250, 10655.00
485.8100, 10132.00
486.9960, 9954.000
488.1810, 9799.000
489.3660, 9704.000
490.5510, 9607.000
491.7360, 9641.000
492.9200, 9652.000
494.1050, 9812.000
495.2890, 10091.00
496.4730, 10582.00
497.6570, 10962.00
498.8400, 11555.00
500.0240, 12298.00
501.2070, 12967.00
502.3910, 13604.00
503.5740, 14447.00
504.7570, 15233.00
505.9400, 15905.00
507.1220, 16241.00
508.3050, 16268.00
509.4870, 16079.00
510.6690, 15677.00
511.8510, 15125.00
513.0330, 14308.00
514.2140, 13591.00
515.3960, 13053.00
516.5770, 12192.00
517.7580, 11701.00
518.9390, 11120.00
520.1200, 10633.00
521.3010, 10313.00
522.4810, 9947.000
523.6610, 9740.000
524.8420, 9570.353
526.0220, 9509.000
527.2010, 9399.000
528.3810, 9343.000
529.5610, 9328.000
530.7400, 9298.000
531.9190, 9279.398
533.0980, 9209.000
534.2770, 9233.000
535.4560, 9195.000
536.6340, 9117.000
537.8120, 9193.000
538.9910, 9076.000
540.1690, 9080.000
541.3460, 9020.000
542.5240, 8998.823
543.7020, 9031.000
544.8790, 8985.000
546.0560, 8995.000
547.2330, 8993.000
548.4100, 9037.000
549.5870, 9061.000
550.7630, 8989.000
551.9400, 9086.000
553.1160, 9003.000
554.2920, 8931.000
555.4680, 9133.000
556.6440, 9033.000
557.8190, 9080.000
558.9950, 9147.000
560.1700, 9103.000
561.3450, 9136.574
562.5200, 9140.000
563.6950, 9116.000
564.8690, 9107.000
566.0440, 9074.000
567.2180, 9086.035
568.3920, 9248.000
569.5660, 9163.000
570.7400, 9210.000
571.9130, 9370.000
573.0870, 9195.000
574.2600, 9260.000
575.4330, 9320.000
576.6060, 9435.000
577.7790, 9395.000
578.9520, 9342.000
580.1240, 9410.000
581.2960, 9268.000
582.4690, 9353.000
583.6410, 9356.000
584.8120, 9338.000
585.9840, 9190.000
587.1560, 9271.000
588.3270, 9296.000
589.4980, 9312.000
590.6690, 9368.000
591.8400, 9379.000
593.0110, 9309.000
594.1810, 9310.000
595.3510, 9337.000
596.5220, 9539.000
597.6920, 9292.000
598.8610, 9427.000
600.0310, 9447.000
601.2010, 9379.000
602.3700, 9537.000
603.5390, 9506.000
604.7080, 9433.000
605.8770, 9522.000
607.0460, 9510.000
608.2140, 9444.000
609.3830, 9519.000
610.5510, 9497.000
611.7190, 9516.000
612.8870, 9539.000
614.0550, 9509.000
615.2220, 9554.000
616.3900, 9609.000
617.5570, 9533.000
618.7240, 9573.000
619.8910, 9706.000
621.0580, 9644.000
622.2240, 9606.000
623.3910, 9679.000
624.5570, 9664.000
625.7230, 9773.000
626.8890, 9875.000
628.0550, 9733.000
629.2200, 9826.000
630.3860, 9827.000
631.5510, 9808.000
632.7160, 9827.000
633.8810, 9815.000
635.0460, 9894.000
636.2100, 9905.000
637.3750, 9924.000
638.5390, 9815.000
639.7030, 9943.000
640.8670, 9857.000
642.0310, 9972.000
643.1950, 9906.000
644.3580, 10120.00
645.5210, 10037.00
646.6850, 10060.00
647.8480, 9963.000
649.0100, 9960.000
650.1730, 10024.00
651.3350, 9947.000
652.4980, 10050.00
653.6600, 10055.00
654.8220, 9891.000
655.9840, 9885.000
657.1450, 9988.000
658.3070, 9932.000
659.4680, 9956.000
660.6300, 9963.000
661.7910, 9970.000
662.9510, 10018.00
664.1120, 10016.00
665.2730, 10021.00
666.4330, 10035.00
667.5930, 10019.00
668.7530, 9963.000
669.9130, 9976.000
671.0730, 9927.000
672.2320, 9909.000
673.3920, 9978.000
674.5510, 10029.00
675.7100, 9945.000
676.8690, 9977.000
678.0280, 9981.000
679.1860, 9980.000
680.3450, 10107.00
681.5030, 9925.000
682.6610, 10069.00
683.8190, 10082.00
684.9770, 10034.00
686.1340, 9980.000
687.2920, 10107.00
688.4490, 9919.000
689.6060, 9940.000
690.7630, 10088.00
691.9200, 10060.00
693.0760, 10005.00
694.2330, 10145.00
695.3890, 10000.00
696.5450, 10196.00
697.7010, 10044.00
698.8570, 10114.00
700.0130, 10201.00
701.1680, 10229.00
702.3230, 10171.00
703.4780, 10116.00
704.6330, 10176.00
705.7880, 10135.00
706.9430, 10144.00
708.0970, 10282.00
709.2520, 10292.00
710.4060, 10135.00
711.5600, 10321.00
712.7140, 10335.00
713.8670, 10124.00
715.0210, 10286.00
716.1740, 10281.00
717.3270, 10277.00
718.4800, 10354.00
719.6330, 10290.00
720.7860, 10465.00
721.9380, 10358.00
723.0910, 10526.00
724.2430, 10349.00
725.3950, 10411.00
726.5470, 10534.00
727.6980, 10415.00
728.8500, 10471.00
730.0010, 10498.00
731.1530, 10421.00
732.3040, 10593.00
733.4550, 10481.00
734.6050, 10578.00
735.7560, 10599.00
736.9060, 10663.00
738.0560, 10652.00
739.2060, 10724.00
740.3560, 10663.00
741.5060, 10673.00
742.6560, 10932.00
743.8050, 10787.00
744.9540, 10765.00
746.1030, 10967.00
747.2520, 10816.00
748.4010, 11009.00
749.5500, 11001.00
750.6980, 10858.00
751.8460, 10914.00
752.9950, 11025.00
754.1420, 10978.00
755.2900, 10938.00
756.4380, 11078.00
757.5850, 11081.00
758.7330, 10936.00
759.8800, 11143.00
761.0270, 11299.00
762.1730, 11351.00
763.3200, 11234.00
764.4670, 11359.00
765.6130, 11293.00
766.7590, 11191.00
767.9050, 11231.00
769.0510, 11292.00
770.1960, 11179.00
771.3420, 11174.00
772.4870, 11126.00
773.6320, 11115.00
774.7770, 11122.65
775.9220, 11097.00
777.0670, 11107.00
778.2110, 11092.00
779.3560, 10988.00
780.5000, 11104.00
781.6440, 11065.00
782.7880, 11124.00
783.9320, 11000.00
785.0750, 11038.00
786.2180, 11032.00
787.3620, 11099.00
788.5050, 11008.00
789.6480, 11083.00
790.7900, 11082.00
791.9330, 11020.00
793.0750, 11100.00
794.2170, 10928.00
795.3590, 10971.00
796.5010, 11177.00
797.6430, 11184.00
798.7850, 11066.00
799.9260, 11255.00
801.0670, 11188.00
802.2080, 11266.00
803.3490, 11343.00
804.4900, 11419.00
805.6310, 11446.00
806.7710, 11493.00
807.9110, 11611.00
809.0510, 11610.00
810.1910, 11845.00
811.3310, 11796.00
812.4710, 11926.00
813.6100, 11850.00
814.7490, 11798.00
815.8880, 11900.00
817.0270, 11851.00
818.1660, 11825.85
819.3050, 11705.00
820.4430, 11706.00
821.5820, 11512.00
822.7200, 11379.00
823.8580, 11415.00
824.9950, 11337.00
826.1330, 11419.00
827.2710, 11447.00
828.4080, 11351.00
829.5450, 11324.00
830.6820, 11505.00
831.8190, 11503.00
832.9560, 11451.00
834.0920, 11422.00
835.2280, 11480.00
836.3650, 11451.85
837.5010, 11414.00
838.6360, 11428.00
839.7720, 11530.00
840.9080, 11424.00
842.0430, 11510.00
843.1780, 11522.00
844.3130, 11684.00
845.4480, 11686.00
846.5830, 11434.00
847.7170, 11525.00
848.8520, 11488.00
849.9860, 11534.00
851.1200, 11575.00
852.2540, 11555.64
853.3870, 11687.00
854.5210, 11591.00
855.6540, 11528.00
856.7880, 11624.00
857.9210, 11747.00
859.0540, 11820.00
860.1860, 11790.00
861.3190, 11883.00
862.4510, 11696.00
863.5840, 11746.00
864.7160, 11628.00
865.8480, 11687.00
866.9790, 11726.00
868.1110, 11728.00
869.2420, 11759.00
870.3740, 11793.00
871.5050, 11730.00
872.6360, 11695.00
873.7660, 11848.00
874.8970, 11853.00
876.0280, 11954.00
877.1580, 11825.00
878.2880, 11926.00
879.4180, 11817.00
880.5480, 11883.00
881.6770, 11906.00
882.8070, 11981.00
883.9360, 12019.00
885.0650, 11941.00
886.1940, 11951.00
887.3230, 11936.67
888.4520, 11798.00
889.5800, 11965.00
890.7090, 11896.00
891.8370, 12019.00
892.9650, 11947.00
894.0930, 12178.00
895.2200, 12009.00
896.3480, 11899.00
897.4750, 12125.00
898.6020, 12070.00
899.7290, 12075.00
900.8560, 12250.00
901.9830, 12145.00
903.1090, 12233.00
904.2360, 12054.00
905.3620, 12113.00
906.4880, 12100.00
907.6140, 12125.00
908.7400, 12159.00
909.8650, 12301.00
910.9900, 12041.00
912.1160, 12154.00
913.2410, 12098.00
914.3660, 12347.00
915.4900, 12263.00
916.6150, 12345.00
917.7390, 12306.00
918.8640, 12292.71
919.9880, 12325.00
921.1120, 12280.00
922.2350, 12327.00
923.3590, 12362.00
924.4820, 12342.00
925.6060, 12363.92
926.7290, 12343.00
927.8520, 12363.00
928.9740, 12358.00
930.0970, 12373.00
931.2190, 12571.00
932.3420, 12377.00
933.4640, 12494.00
934.5860, 12314.00
935.7080, 12388.00
936.8290, 12360.00
937.9510, 12538.00
939.0720, 12518.00
940.1930, 12537.00
941.3140, 12389.00
942.4350, 12512.00
943.5560, 12505.00
944.6760, 12682.00
945.7960, 12684.00
946.9170, 12701.00
948.0370, 12669.00
949.1560, 12624.00
950.2760, 12570.00
951.3960, 12597.00
952.5150, 12544.00
953.6340, 12721.00
954.7530, 12866.00
955.8720, 12768.00
956.9910, 12717.00
958.1090, 12810.00
959.2280, 12648.00
960.3460, 12859.00
961.4640, 12595.00
962.5820, 12852.00
963.6990, 12814.00
964.8170, 12876.00
965.9340, 12835.00
967.0510, 13011.00
968.1690, 12983.00
969.2850, 13085.00
970.4020, 13003.00
971.5190, 13096.00
972.6350, 13015.00
973.7510, 13153.00
974.8670, 13072.00
975.9830, 13300.00
977.0990, 13162.00
978.2150, 13111.00
979.3300, 13158.00
980.4450, 13322.00
981.5600, 13139.00
982.6750, 13189.00
983.7900, 13091.00
984.9050, 13232.00
986.0190, 13091.00
987.1340, 13247.00
988.2480, 13367.00
989.3620, 13194.00
990.4750, 13479.00
991.5890, 13205.00
992.7020, 13205.00
993.8160, 13284.00
994.9290, 13428.00
996.0420, 13389.00
997.1550, 13434.00
998.2670, 13444.00
999.3800, 13378.00
1000.492, 13509.00
1001.604, 13490.00
1002.716, 13430.00
1003.828, 13431.00
1004.940, 13470.00
1006.051, 13500.00
1007.163, 13656.00
1008.274, 13550.00
1009.385, 13477.00
1010.496, 13666.00
1011.606, 13573.00
1012.717, 13737.00
1013.827, 13728.00
1014.937, 13601.00
1016.047, 13579.00
1017.157, 13657.00
1018.267, 13557.00
1019.377, 13714.00
1020.486, 13739.00
1021.595, 13694.00
1022.704, 13757.00
1023.813, 13627.00
1024.922, 13826.00
1026.030, 13800.00
1027.139, 13814.00
1028.247, 13953.00
1029.355, 13958.00
1030.463, 14104.00
1031.571, 14041.00
1032.678, 14001.00
1033.786, 13953.00
1034.893, 13903.00
1036.000, 13913.90
1037.107, 13885.77
1038.214, 13955.00
1039.321, 13869.00
1040.427, 13905.00
1041.533, 13879.00
1042.639, 14009.00
1043.745, 13925.00
1044.851, 13902.00
1045.957, 13972.00
1047.062, 13810.00
1048.168, 13900.26
1049.273, 13942.00
1050.378, 13976.00
1051.482, 13867.00
1052.587, 13892.00
1053.692, 14035.00
1054.796, 14016.00
1055.900, 13820.00
1057.004, 13943.00
1058.108, 13863.00
1059.212, 13823.00
1060.315, 13862.40
1061.418, 13945.00
1062.522, 13903.00
1063.625, 13974.00
1064.728, 14080.00
1065.830, 13960.00
1066.933, 14023.00
1068.035, 14072.00
1069.137, 14050.00
1070.239, 14084.00
1071.341, 14169.00
1072.443, 14110.00
1073.545, 14168.00
1074.646, 14152.00
1075.747, 14333.00
1076.848, 14245.00
1077.949, 14265.00
1079.050, 14202.00
1080.150, 14284.00
1081.251, 14246.00
1082.351, 14431.00
1083.451, 14375.00
1084.551, 14635.00
1085.651, 14366.00
1086.750, 14499.00
1087.850, 14573.00
1088.949, 14668.00
1090.048, 14858.00
1091.147, 14957.00
1092.246, 15088.57
1093.345, 15236.33
1094.443, 15289.00
1095.541, 15492.00
1096.639, 15505.00
1097.737, 15589.00
1098.835, 15500.00
1099.933, 15729.00
1101.030, 15524.00
1102.128, 15493.00
1103.225, 15605.00
1104.322, 15488.00
1105.419, 15509.00
1106.515, 15305.00
1107.612, 15333.00
1108.708, 15369.00
1109.804, 15255.00
1110.900, 15351.00
1111.996, 15364.00
1113.092, 15217.00
1114.187, 15464.00
1115.283, 15293.00
1116.378, 15438.00
1117.473, 15418.00
1118.568, 15447.00
1119.662, 15532.00
1120.757, 15348.00
1121.851, 15402.00
1122.946, 15665.00
1124.040, 15380.00
1125.134, 15407.00
1126.227, 15359.00
1127.321, 15294.00
1128.414, 15311.00
1129.508, 15207.00
1130.601, 15301.00
1131.693, 15130.00
1132.786, 15199.00
1133.879, 15163.00
1134.971, 15192.00
1136.064, 15187.00
1137.156, 15093.00
1138.248, 15239.00
1139.339, 15098.00
1140.431, 15283.00
1141.522, 15382.00
1142.614, 15322.00
1143.705, 15203.00
1144.796, 15130.00
1145.887, 15243.00
1146.977, 15121.00
1148.068, 15205.00
1149.158, 15282.00
1150.248, 15072.00
1151.338, 15029.00
1152.428, 15141.00
1153.518, 15271.00
1154.607, 15101.00
1155.696, 15206.00
1156.785, 15087.00
1157.874, 15283.00
1158.963, 15301.00
1160.052, 15181.00
1161.141, 15190.00
1162.229, 14992.00
1163.317, 15074.00
1164.405, 15235.00
1165.493, 15302.00
1166.581, 15219.00
1167.668, 15332.00
1168.756, 15270.00
1169.843, 15207.00
1170.930, 15371.00
1172.017, 15180.00
1173.103, 15177.00
1174.190, 15239.00
1175.276, 15205.00
1176.363, 15190.00
1177.449, 15318.00
1178.535, 15174.00
1179.620, 15349.00
1180.706, 15316.00
1181.791, 15318.00
1182.877, 15411.00
1183.962, 15424.00
1185.047, 15343.00
1186.131, 15378.00
1187.216, 15252.00
1188.300, 15459.00
1189.385, 15431.00
1190.469, 15583.00
1191.553, 15526.00
1192.637, 15377.00
1193.720, 15532.00
1194.804, 15536.00
1195.887, 15469.00
1196.970, 15601.00
1198.053, 15499.00
1199.136, 15583.00
1200.219, 15535.00
1201.301, 15593.00
1202.383, 15649.00
1203.465, 15574.00
1204.547, 15595.00
1205.629, 15660.00
1206.711, 15780.00
1207.792, 15669.00
1208.874, 15762.00
1209.955, 15734.00
1211.036, 15633.00
1212.117, 15752.00
1213.198, 15719.00
1214.278, 15762.00
1215.359, 15689.16
1216.439, 15784.36
1217.519, 15846.37
1218.599, 15876.97
1219.678, 15782.06
1220.758, 15849.21
1221.837, 15851.41
1222.917, 15850.96
1223.996, 15940.90
1225.075, 15864.24
1226.153, 15952.73
1227.232, 15975.31
1228.310, 16028.04
1229.389, 16015.45
1230.467, 16023.03
1231.545, 16095.96
1232.622, 16132.69
1233.700, 16026.00
1234.777, 16046.00
1235.855, 16140.00
1236.932, 16162.00
1238.009, 16226.00
1239.086, 16187.34
1240.162, 15994.00
1241.239, 16124.00
1242.315, 16077.00
1243.391, 16145.00
1244.467, 16201.00
1245.543, 16188.00
1246.619, 16165.00
1247.694, 16184.00
1248.769, 16239.00
1249.844, 16243.00
1250.919, 16167.00
1251.994, 16360.00
1253.069, 16164.00
1254.144, 16284.00
1255.218, 16187.00
1256.292, 16241.00
1257.366, 16251.00
1258.440, 16187.00
1259.514, 16408.00
1260.587, 16459.00
1261.661, 16377.00
1262.734, 16331.00
1263.807, 16263.00
1264.880, 16389.00
1265.952, 16533.00
1267.025, 16659.00
1268.097, 16453.00
1269.170, 16418.00
1270.242, 16468.00
1271.314, 16653.00
1272.385, 16407.00
1273.457, 16602.00
1274.528, 16570.00
1275.600, 16794.00
1276.671, 16595.00
1277.742, 16695.00
1278.812, 16704.00
1279.883, 16745.00
1280.954, 16772.00
1282.024, 16612.00
1283.094, 16738.00
1284.164, 16656.00
1285.234, 16755.00
1286.303, 16956.00
1287.373, 16731.00
1288.442, 16965.00
1289.511, 16837.00
1290.580, 16835.00
1291.649, 16952.00
1292.718, 16925.00
1293.786, 16848.00
1294.855, 16851.00
1295.923, 16964.00
1296.991, 17061.00
1298.059, 17087.00
1299.126, 17059.00
1300.194, 16956.00
1301.261, 17140.00
1302.328, 17023.00
1303.395, 16970.00
1304.462, 16966.00
1305.529, 17185.00
1306.596, 17080.00
1307.662, 17267.00
1308.728, 17150.00
1309.794, 17148.00
1310.860, 17211.00
1311.926, 17268.00
1312.991, 17305.00
1314.057, 17292.00
1315.122, 17176.00
1316.187, 17338.00
1317.252, 17230.00
1318.317, 17278.00
1319.381, 17399.00
1320.446, 17347.00
1321.510, 17338.00
1322.574, 17455.00
1323.638, 17320.00
1324.702, 17498.00
1325.766, 17540.00
1326.829, 17225.00
1327.892, 17582.00
1328.956, 17465.00
1330.019, 17449.00
1331.081, 17524.00
1332.144, 17357.00
1333.206, 17598.00
1334.269, 17496.00
1335.331, 17631.00
1336.393, 17560.00
1337.455, 17529.00
1338.516, 17496.00
1339.578, 17616.00
1340.639, 17697.00
1341.701, 17698.00
1342.762, 17626.00
1343.822, 17711.00
1344.883, 17452.00
1345.944, 17722.00
1347.004, 17583.00
1348.064, 17587.00
1349.124, 17809.00
1350.184, 17715.00
1351.244, 17806.00
1352.304, 17682.00
1353.363, 17699.00
1354.422, 17737.00
1355.481, 17675.00
1356.540, 17689.00
1357.599, 17731.00
1358.657, 17681.00
1359.716, 17732.00
1360.774, 17848.00
1361.832, 17624.00
1362.890, 17995.00
1363.948, 17882.00
1365.006, 17610.00
1366.063, 17892.00
1367.120, 17808.00
1368.178, 17915.00
1369.234, 17829.00
1370.291, 17723.00
1371.348, 18104.00
1372.404, 17926.00
1373.461, 17855.00
1374.517, 18038.00
1375.573, 17763.00
1376.629, 18025.00
1377.684, 17916.00
1378.740, 17823.00
1379.795, 17997.00
1380.850, 17984.00
1381.905, 18101.00
1382.960, 17978.00
1384.015, 18069.00
1385.070, 18061.00
1386.124, 18067.00
1387.178, 17994.00
1388.232, 18054.00
1389.286, 18113.00
1390.340, 18032.00
1391.393, 18185.00
1392.447, 18128.00
1393.500, 18154.00
1394.553, 18230.00
1395.606, 18152.00
1396.659, 18185.00
1397.711, 18166.00
1398.764, 18192.00
1399.816, 18263.00
1400.868, 18163.00
1401.920, 18273.00
1402.972, 18144.00
1404.023, 18493.00
1405.075, 18259.00
1406.126, 18382.00
1407.177, 18407.00
1408.228, 18406.00
1409.279, 18495.00
1410.330, 18489.00
1411.380, 18287.00
1412.431, 18460.00
1413.481, 18465.00
1414.531, 18346.00
1415.580, 18576.00
1416.630, 18486.00
1417.680, 18551.00
1418.729, 18664.00
1419.778, 18435.00
1420.827, 18403.00
1421.876, 18610.00
1422.925, 18512.00
1423.973, 18611.00
1425.022, 18499.00
1426.070, 18674.00
1427.118, 18490.00
1428.166, 18722.00
1429.214, 18758.00
1430.261, 18792.00
1431.309, 18889.00
1432.356, 18798.00
1433.403, 18862.00
1434.450, 18854.00
1435.497, 18814.00
1436.543, 18788.00
1437.590, 18764.88
1438.636, 18750.00
1439.682, 18719.00
1440.728, 18786.00
1441.774, 18786.00
1442.819, 18851.00
1443.865, 18996.00
1444.910, 18984.00
1445.955, 19062.00
1447.000, 19111.46
1448.045, 19066.00
1449.090, 19127.00
1450.134, 19125.00
1451.178, 18999.00
1452.223, 18993.00
1453.267, 19205.00
1454.310, 19026.00
1455.354, 19308.00
1456.398, 19022.00
1457.441, 19110.00
1458.484, 18996.00
1459.527, 19147.00
1460.570, 19130.00
1461.613, 19235.00
1462.655, 19231.00
1463.698, 19102.00
1464.740, 19076.00
1465.782, 19106.95
1466.824, 19224.00
1467.866, 19203.00
1468.907, 19279.00
1469.948, 19331.00
1470.990, 19306.34
1472.031, 19337.00
1473.072, 19277.00
1474.112, 19267.00
1475.153, 19249.47
1476.194, 19489.00
1477.234, 19314.00
1478.274, 19420.00
1479.314, 19509.00
1480.354, 19378.00
1481.393, 19580.00
1482.433, 19561.00
1483.472, 19508.00
1484.511, 19411.00
1485.550, 19594.00
1486.589, 19537.00
1487.628, 19547.00
1488.666, 19458.00
1489.704, 19645.00
1490.743, 19585.00
1491.781, 19371.00
1492.819, 19678.00
1493.856, 19596.00
1494.894, 19734.00
1495.931, 19687.00
1496.968, 19526.00
1498.005, 19543.00
1499.042, 19504.63
1500.079, 19604.00
1501.115, 19557.00
1502.152, 19624.00
1503.188, 19746.00
1504.224, 19626.00
1505.260, 19892.00
1506.296, 19659.00
1507.331, 19745.00
1508.367, 19756.00
1509.402, 19661.00
1510.437, 19839.00
1511.472, 19960.00
1512.507, 19850.00
1513.541, 19859.00
1514.576, 19793.00
1515.610, 19847.00
1516.644, 19692.00
1517.678, 19882.00
1518.712, 20080.00
1519.746, 19953.00
1520.779, 19969.00
1521.813, 19942.00
1522.846, 20038.00
1523.879, 20048.00
1524.912, 20099.00
1525.944, 19967.00
1526.977, 20157.00
1528.009, 20056.00
1529.041, 20122.00
1530.073, 20057.00
1531.105, 20182.00
1532.137, 20206.00
1533.168, 20121.00
1534.200, 20253.00
1535.231, 20123.00
1536.262, 20249.00
1537.293, 20170.00
1538.324, 20425.00
1539.354, 20238.00
1540.385, 20346.00
1541.415, 20324.00
1542.445, 20304.00
1543.475, 20248.00
1544.505, 20326.00
1545.534, 20283.00
1546.564, 20196.00
1547.593, 20253.00
1548.622, 20455.00
1549.651, 20300.00
1550.680, 20158.00
1551.708, 20502.00
1552.737, 20521.00
1553.765, 20549.00
1554.793, 20451.00
1555.821, 20556.00
1556.849, 20443.00
1557.877, 20670.00
1558.904, 20539.00
1559.932, 20567.00
1560.959, 20282.00
1561.986, 20397.00
1563.013, 20515.00
##END=



