##NAMES=Microcline
##RRUFFID=R050150
##IDEAL CHEMISTRY=KAlSi_3_O_8_
##LOCALITY=Crystal Peak area, Park/Teller Counties, Colorado, USA
##OWNER=RRUFF
##SOURCE=Dave Bunk Minerals
##DESCRIPTION=Pale blue prismatic crystals
##STATUS=The identification of this mineral has been confirmed by X-ray diffraction and chemical analysis
##URL=rruff.info/R050150
##MEASURED CHEMISTRY=(K_0.95_Na_0.05_)_Î£=1_Al_1.00_Si_3.00_O_8_
##PIN_ID=L01075
##ORIENTATION=Laser parallel to (0 1 1). Fiducial mark perpendicular to laser is parallel to a [1 0 0]
131.4920, 12508.00
132.7300, 12381.00
133.9690, 13146.00
135.2070, 14277.00
136.4450, 15999.00
137.6830, 17652.00
138.9210, 18786.00
140.1580, 19247.00
141.3950, 19006.00
142.6330, 18936.00
143.8690, 18966.00
145.1060, 19439.00
146.3430, 20539.00
147.5790, 21294.00
148.8150, 23098.00
150.0510, 25479.00
151.2870, 28697.00
152.5220, 32125.00
153.7580, 35986.00
154.9930, 38758.00
156.2280, 39910.00
157.4620, 39469.00
158.6970, 37244.00
159.9310, 34235.00
161.1660, 30690.00
162.4000, 27282.00
163.6330, 23787.00
164.8670, 20655.00
166.1000, 18147.00
167.3340, 16102.00
168.5670, 14734.00
169.8000, 13665.00
171.0320, 12980.00
172.2650, 12524.00
173.4970, 12376.00
174.7290, 12107.00
175.9610, 11992.00
177.1930, 12128.00
178.4240, 11998.00
179.6550, 11740.00
180.8870, 11640.00
182.1170, 11225.00
183.3480, 11083.00
184.5790, 10822.00
185.8090, 10452.00
187.0390, 10238.00
188.2690, 10226.00
189.4990, 10255.00
190.7290, 10317.08
191.9580, 10451.00
193.1870, 10719.00
194.4160, 11214.00
195.6450, 11645.00
196.8740, 11901.00
198.1020, 12076.00
199.3310, 12082.00
200.5590, 11642.00
201.7870, 11290.00
203.0140, 10895.00
204.2420, 10411.00
205.4690, 9906.000
206.6960, 9480.000
207.9230, 9362.000
209.1500, 9068.000
210.3760, 8897.000
211.6030, 8802.000
212.8290, 8777.000
214.0550, 8864.000
215.2810, 8688.000
216.5060, 8640.000
217.7320, 8710.000
218.9570, 8608.000
220.1820, 8794.000
221.4070, 8708.000
222.6320, 8676.000
223.8560, 8721.000
225.0800, 8853.000
226.3040, 8767.000
227.5280, 8826.000
228.7520, 8788.000
229.9760, 8902.000
231.1990, 8810.000
232.4220, 8839.000
233.6450, 8784.000
234.8680, 8981.000
236.0910, 8894.000
237.3130, 8993.000
238.5350, 8969.000
239.7570, 9053.548
240.9790, 9228.000
242.2010, 9313.000
243.4220, 9573.000
244.6430, 9847.000
245.8640, 10114.00
247.0850, 10509.00
248.3060, 11019.00
249.5270, 11568.00
250.7470, 12533.00
251.9670, 13619.00
253.1870, 15016.00
254.4070, 16295.00
255.6260, 17666.00
256.8460, 18405.00
258.0650, 18653.00
259.2840, 18704.00
260.5030, 18806.00
261.7220, 18549.00
262.9400, 18428.00
264.1580, 18178.00
265.3760, 17962.00
266.5940, 17672.00
267.8120, 17128.00
269.0290, 16622.00
270.2470, 16194.00
271.4640, 16141.00
272.6810, 16127.00
273.8980, 16650.00
275.1140, 17706.00
276.3310, 19329.00
277.5470, 21116.00
278.7630, 24004.00
279.9790, 27045.00
281.1940, 30407.00
282.4100, 33087.00
283.6250, 35448.00
284.8400, 35729.00
286.0550, 34514.00
287.2700, 32097.00
288.4850, 29082.00
289.6990, 25571.00
290.9130, 22297.00
292.1270, 19259.00
293.3410, 16819.00
294.5540, 15031.00
295.7680, 13839.00
296.9810, 13202.00
298.1940, 12347.00
299.4070, 12005.00
300.6200, 11551.00
301.8320, 11232.00
303.0450, 10949.00
304.2570, 10609.00
305.4690, 10375.00
306.6800, 10284.00
307.8920, 10043.00
309.1030, 10018.00
310.3150, 9813.000
311.5260, 9798.000
312.7360, 9653.000
313.9470, 9665.000
315.1580, 9645.000
316.3680, 9613.000
317.5780, 9579.000
318.7880, 9698.000
319.9980, 9772.000
321.2070, 9892.000
322.4170, 9980.000
323.6260, 10248.00
324.8350, 10356.00
326.0430, 10822.00
327.2520, 11393.00
328.4610, 11935.00
329.6690, 12249.00
330.8770, 12609.00
332.0850, 12406.00
333.2920, 12210.00
334.5000, 11845.00
335.7070, 11536.00
336.9140, 11056.00
338.1210, 10649.00
339.3280, 10474.00
340.5350, 10199.00
341.7410, 10103.00
342.9470, 9892.000
344.1540, 9954.000
345.3590, 9749.000
346.5650, 9679.000
347.7710, 9704.000
348.9760, 9914.000
350.1810, 9908.000
351.3860, 9987.000
352.5910, 10098.00
353.7950, 10223.00
355.0000, 10295.00
356.2040, 10330.00
357.4080, 10271.00
358.6120, 10217.00
359.8150, 10238.00
361.0190, 10211.00
362.2220, 10136.00
363.4250, 10161.00
364.6280, 10257.00
365.8310, 10158.00
367.0340, 10349.00
368.2360, 10468.00
369.4380, 10701.00
370.6400, 10735.00
371.8420, 10779.00
373.0440, 10729.00
374.2450, 10485.00
375.4470, 10409.00
376.6480, 10218.00
377.8490, 10082.00
379.0490, 9968.000
380.2500, 9830.000
381.4500, 9798.000
382.6510, 9665.000
383.8510, 9638.000
385.0500, 9655.000
386.2500, 9637.000
387.4500, 9748.000
388.6490, 9534.000
389.8480, 9663.000
391.0470, 9756.000
392.2460, 9700.000
393.4440, 9810.000
394.6430, 9881.000
395.8410, 9894.000
397.0390, 10043.00
398.2370, 10044.00
399.4340, 10250.00
400.6320, 10230.00
401.8290, 10416.00
403.0260, 10428.00
404.2230, 10301.00
405.4200, 10422.00
406.6170, 10291.00
407.8130, 10209.00
409.0090, 10173.00
410.2050, 10141.00
411.4010, 10090.63
412.5970, 10142.00
413.7920, 10035.00
414.9880, 10029.00
416.1830, 10036.00
417.3780, 9947.000
418.5730, 9915.000
419.7670, 9863.000
420.9620, 9788.000
422.1560, 9813.000
423.3500, 9781.000
424.5440, 9811.000
425.7380, 9888.000
426.9310, 9863.000
428.1240, 9889.000
429.3180, 10004.00
430.5110, 9930.000
431.7030, 10053.00
432.8960, 10130.00
434.0890, 10148.24
435.2810, 10294.00
436.4730, 10248.00
437.6650, 10458.00
438.8570, 10505.00
440.0480, 10680.00
441.2390, 10784.00
442.4310, 11013.00
443.6220, 11392.00
444.8120, 11876.00
446.0030, 12395.00
447.1940, 12988.00
448.3840, 13821.00
449.5740, 14559.00
450.7640, 15621.00
451.9540, 16523.00
453.1430, 17072.00
454.3330, 17052.00
455.5220, 16794.00
456.7110, 16166.00
457.9000, 15655.00
459.0890, 14876.00
460.2770, 14366.00
461.4650, 14081.00
462.6540, 13859.00
463.8420, 14083.00
465.0290, 14484.00
466.2170, 15285.00
467.4050, 16264.87
468.5920, 17333.00
469.7790, 19124.00
470.9660, 21047.00
472.1530, 23258.00
473.3390, 25340.00
474.5250, 26682.00
475.7120, 26535.00
476.8980, 26096.00
478.0840, 24955.00
479.2690, 23852.00
480.4550, 22468.00
481.6400, 21637.00
482.8250, 20688.00
484.0100, 19753.00
485.1950, 18648.00
486.3800, 17489.00
487.5640, 16463.00
488.7480, 15633.00
489.9320, 14851.00
491.1160, 14161.00
492.3000, 13755.00
493.4840, 13574.00
494.6670, 13484.00
495.8500, 13563.00
497.0330, 14113.00
498.2160, 14441.00
499.3990, 14972.00
500.5810, 16056.00
501.7630, 17262.00
502.9460, 18965.00
504.1280, 21255.00
505.3090, 24270.00
506.4910, 28052.00
507.6720, 32769.00
508.8540, 38473.00
510.0350, 44674.00
511.2160, 50025.00
512.3960, 53042.00
513.5770, 52902.00
514.7570, 50246.00
515.9380, 45805.00
517.1180, 40357.00
518.2970, 34940.00
519.4770, 29778.00
520.6570, 25576.00
521.8360, 22140.00
523.0150, 19928.00
524.1940, 18080.00
525.3730, 16680.00
526.5510, 15729.00
527.7300, 15046.00
528.9080, 14343.00
530.0860, 13955.00
531.2640, 13609.00
532.4420, 13335.00
533.6200, 12957.00
534.7970, 12724.00
535.9740, 12716.00
537.1510, 12591.00
538.3280, 12312.00
539.5050, 12302.00
540.6810, 12121.00
541.8580, 12056.00
543.0340, 11858.00
544.2100, 11870.00
545.3860, 11923.00
546.5610, 11874.00
547.7370, 11782.00
548.9120, 11745.00
550.0870, 11730.00
551.2620, 11844.00
552.4370, 11559.00
553.6120, 11663.00
554.7860, 11759.00
555.9600, 11607.00
557.1340, 11690.00
558.3080, 11727.00
559.4820, 11507.00
560.6560, 11562.00
561.8290, 11552.00
563.0020, 11422.00
564.1750, 11604.00
565.3480, 11671.00
566.5210, 11537.00
567.6930, 11545.00
568.8660, 11611.00
570.0380, 11523.00
571.2100, 11638.00
572.3820, 11705.00
573.5530, 11663.00
574.7250, 11682.00
575.8960, 11801.00
577.0670, 11776.00
578.2380, 12071.00
579.4090, 12026.00
580.5800, 12084.00
581.7500, 12233.00
582.9210, 12206.00
584.0910, 12195.00
585.2610, 12247.00
586.4300, 12119.00
587.6000, 11989.00
588.7690, 11932.00
589.9390, 11812.00
591.1080, 11697.00
592.2770, 11648.00
593.4450, 11668.00
594.6140, 11671.00
595.7820, 11618.00
596.9500, 11619.00
598.1190, 11641.00
599.2860, 11656.00
600.4540, 11639.00
601.6220, 11653.00
602.7890, 11674.99
603.9560, 11674.00
605.1230, 11728.00
606.2900, 11753.00
607.4570, 11774.00
608.6230, 11728.00
609.7890, 11739.93
610.9560, 11827.00
612.1220, 11709.00
613.2870, 11765.00
614.4530, 11755.00
615.6180, 12004.00
616.7840, 12096.00
617.9490, 12028.00
619.1140, 12150.00
620.2790, 12073.00
621.4430, 12336.00
622.6080, 12291.00
623.7720, 12308.00
624.9360, 12744.00
626.1000, 12806.00
627.2640, 12896.00
628.4270, 13028.00
629.5910, 12978.00
630.7540, 13050.00
631.9170, 12965.00
633.0800, 12866.00
634.2430, 13017.00
635.4050, 12923.00
636.5680, 12903.00
637.7300, 12955.00
638.8920, 12982.25
640.0540, 13079.24
641.2150, 13148.00
642.3770, 13319.00
643.5380, 13402.00
644.7000, 13529.00
645.8610, 13544.00
647.0210, 13555.00
648.1820, 13838.00
649.3430, 13967.00
650.5030, 13857.00
651.6630, 14101.00
652.8230, 14224.00
653.9830, 14168.00
655.1430, 14164.00
656.3020, 13977.00
657.4620, 13822.61
658.6210, 13710.00
659.7800, 13425.00
660.9390, 13340.00
662.0970, 13260.00
663.2560, 13034.00
664.4140, 12904.00
665.5720, 12761.00
666.7300, 12756.00
667.8880, 12663.00
669.0460, 12597.00
670.2030, 12543.00
671.3600, 12485.95
672.5180, 12427.65
673.6740, 12378.00
674.8310, 12338.00
675.9880, 12235.00
677.1440, 12233.88
678.3010, 12222.00
679.4570, 12266.00
680.6130, 12269.00
681.7690, 12250.00
682.9240, 12341.00
684.0800, 12431.00
685.2350, 12179.00
686.3900, 12302.00
687.5450, 12356.00
688.7000, 12193.00
689.8540, 12220.00
691.0090, 12418.00
692.1630, 12320.00
693.3170, 12303.00
694.4710, 12313.00
695.6250, 12218.00
696.7780, 12271.00
697.9320, 12415.00
699.0850, 12448.00
700.2380, 12347.00
701.3910, 12323.00
702.5440, 12411.00
703.6970, 12293.00
704.8490, 12508.00
706.0010, 12311.00
707.1530, 12360.00
708.3050, 12494.00
709.4570, 12478.00
710.6090, 12380.00
711.7600, 12533.00
712.9110, 12566.00
714.0620, 12406.00
715.2130, 12601.00
716.3640, 12565.00
717.5150, 12510.00
718.6650, 12506.00
719.8150, 12583.00
720.9650, 12475.00
722.1150, 12605.00
723.2650, 12591.00
724.4150, 12595.00
725.5640, 12578.00
726.7130, 12597.43
727.8630, 12618.86
729.0110, 12662.00
730.1600, 12704.37
731.3090, 12792.82
732.4570, 12883.00
733.6060, 12956.00
734.7540, 12999.00
735.9020, 13120.00
737.0490, 13216.00
738.1970, 13375.00
739.3440, 13504.00
740.4920, 13652.00
741.6390, 13847.83
742.7860, 14037.00
743.9320, 14275.00
745.0790, 14535.00
746.2250, 14806.00
747.3720, 15070.00
748.5180, 15211.00
749.6640, 15243.00
750.8100, 15215.00
751.9550, 15093.00
753.1010, 14893.88
754.2460, 14278.00
755.3910, 14314.00
756.5360, 13997.00
757.6810, 13642.00
758.8250, 13583.00
759.9700, 13710.00
761.1140, 13556.00
762.2580, 13606.00
763.4020, 13633.00
764.5460, 13701.00
765.6900, 13718.00
766.8330, 13759.00
767.9760, 13753.00
769.1200, 13678.00
770.2620, 13546.00
771.4050, 13599.00
772.5480, 13451.00
773.6900, 13368.00
774.8330, 13439.00
775.9750, 13351.00
777.1170, 13226.00
778.2590, 13270.00
779.4000, 13090.00
780.5420, 13264.00
781.6830, 13270.00
782.8240, 13208.00
783.9650, 13155.00
785.1060, 13308.00
786.2470, 13081.00
787.3870, 13237.00
788.5280, 13226.00
789.6680, 13125.00
790.8080, 13223.00
791.9480, 13305.00
793.0870, 13330.00
794.2270, 13327.00
795.3660, 13416.00
796.5060, 13376.00
797.6450, 13435.00
798.7830, 13559.00
799.9220, 13626.00
801.0610, 13582.00
802.1990, 13752.00
803.3370, 13861.00
804.4750, 14178.00
805.6130, 14312.00
806.7510, 14599.00
807.8890, 14967.00
809.0260, 15429.00
810.1630, 15811.00
811.3000, 16222.00
812.4370, 16501.00
813.5740, 16663.00
814.7110, 16361.00
815.8470, 15875.00
816.9830, 15414.00
818.1190, 14955.00
819.2550, 14638.23
820.3910, 14312.13
821.5270, 14101.00
822.6620, 13888.00
823.7970, 13715.00
824.9330, 13698.00
826.0670, 13620.00
827.2020, 13692.00
828.3370, 13550.00
829.4710, 13683.00
830.6060, 13726.00
831.7400, 13629.00
832.8740, 13578.00
834.0080, 13460.00
835.1410, 13613.00
836.2750, 13659.00
837.4080, 13638.00
838.5410, 13685.19
839.6740, 13621.00
840.8070, 13639.00
841.9400, 13683.00
843.0730, 13622.00
844.2050, 13512.00
845.3370, 13757.00
846.4690, 13472.00
847.6010, 13864.00
848.7330, 13526.00
849.8640, 13700.00
850.9960, 13698.00
852.1270, 13565.00
853.2580, 13771.00
854.3890, 13708.00
855.5200, 13575.00
856.6500, 13671.00
857.7810, 13617.00
858.9110, 13751.00
860.0410, 13735.00
861.1710, 13674.00
862.3010, 13591.00
863.4310, 13731.00
864.5600, 13608.00
865.6900, 13829.00
866.8190, 13608.00
867.9480, 13749.00
869.0770, 13765.00
870.2050, 13947.00
871.3340, 13777.00
872.4620, 13826.00
873.5900, 13809.00
874.7180, 13695.00
875.8460, 13754.00
876.9740, 13686.00
878.1010, 13777.00
879.2290, 13750.00
880.3560, 13759.00
881.4830, 13929.00
882.6100, 13821.00
883.7370, 13944.00
884.8630, 13920.00
885.9900, 14002.00
887.1160, 13878.00
888.2420, 14013.00
889.3680, 13978.00
890.4940, 13998.00
891.6200, 13868.00
892.7450, 14014.00
893.8700, 13985.00
894.9960, 13932.00
896.1210, 14110.00
897.2460, 13926.00
898.3700, 13997.00
899.4950, 14023.00
900.6190, 14125.00
901.7430, 14029.00
902.8670, 14044.00
903.9910, 14089.00
905.1150, 14091.00
906.2390, 14189.00
907.3620, 14052.00
908.4850, 14206.00
909.6080, 14093.00
910.7310, 13981.00
911.8540, 14220.00
912.9770, 14193.00
914.0990, 14174.00
915.2210, 14424.00
916.3440, 14292.00
917.4660, 14291.00
918.5870, 14321.00
919.7090, 14339.00
920.8310, 14413.00
921.9520, 14308.00
923.0730, 14422.00
924.1940, 14270.00
925.3150, 14295.00
926.4360, 14438.00
927.5560, 14523.00
928.6770, 14408.00
929.7970, 14606.00
930.9170, 14537.00
932.0370, 14620.00
933.1570, 14480.00
934.2760, 14489.15
935.3960, 14543.00
936.5150, 14454.00
937.6340, 14441.00
938.7530, 14487.00
939.8720, 14529.00
940.9910, 14514.00
942.1090, 14483.00
943.2280, 14635.00
944.3460, 14558.00
945.4640, 14587.00
946.5820, 14595.00
947.6990, 14488.00
948.8170, 14743.00
949.9340, 14699.00
951.0520, 14881.00
952.1690, 14721.00
953.2860, 14652.00
954.4030, 14797.00
955.5190, 14660.00
956.6360, 14781.00
957.7520, 14806.00
958.8680, 14814.00
959.9840, 14793.00
961.1000, 14845.00
962.2160, 14657.00
963.3310, 15010.00
964.4470, 14761.00
965.5620, 14818.00
966.6770, 14867.00
967.7920, 14800.00
968.9060, 14866.88
970.0210, 14877.00
971.1360, 14913.00
972.2500, 14949.00
973.3640, 14971.00
974.4780, 15051.00
975.5920, 15092.00
976.7050, 15162.00
977.8190, 15141.00
978.9320, 15261.00
980.0450, 15160.00
981.1580, 15113.00
982.2710, 15140.00
983.3840, 15179.98
984.4970, 15387.00
985.6090, 15437.00
986.7210, 15603.00
987.8330, 15875.00
988.9450, 15918.00
990.0570, 16032.00
991.1690, 16370.00
992.2800, 16353.00
993.3920, 16641.00
994.5030, 16647.00
995.6140, 16748.00
996.7250, 16880.00
997.8350, 16913.00
998.9460, 16983.00
1000.056, 17103.00
1001.167, 17219.00
1002.277, 17292.00
1003.387, 17153.00
1004.496, 17082.00
1005.606, 16913.00
1006.715, 16766.00
1007.825, 16647.00
1008.934, 16578.00
1010.043, 16417.00
1011.152, 16216.00
1012.260, 16274.00
1013.369, 15970.00
1014.477, 16030.00
1015.586, 15916.00
1016.694, 15967.00
1017.802, 15859.00
1018.909, 15882.00
1020.017, 15870.00
1021.124, 15914.00
1022.232, 15799.00
1023.339, 15968.00
1024.446, 15794.00
1025.553, 15939.00
1026.659, 15957.00
1027.766, 16048.00
1028.872, 16211.00
1029.979, 16059.00
1031.085, 16058.00
1032.191, 16299.00
1033.296, 16441.00
1034.402, 16430.00
1035.507, 16442.00
1036.613, 16789.00
1037.718, 16810.00
1038.823, 16730.00
1039.928, 16698.00
1041.032, 16658.00
1042.137, 16680.00
1043.241, 16442.00
1044.346, 16352.00
1045.450, 16200.00
1046.554, 16333.00
1047.657, 16144.00
1048.761, 16327.00
1049.864, 16102.00
1050.968, 16247.00
1052.071, 16261.00
1053.174, 16216.00
1054.277, 16115.00
1055.379, 16093.00
1056.482, 16118.00
1057.584, 15864.00
1058.687, 15934.00
1059.789, 15927.00
1060.891, 15818.00
1061.992, 15955.00
1063.094, 15958.00
1064.196, 16028.00
1065.297, 15861.00
1066.398, 16057.00
1067.499, 15823.00
1068.600, 15847.00
1069.701, 16026.00
1070.801, 15868.00
1071.902, 15846.00
1073.002, 16057.00
1074.102, 15915.00
1075.202, 16075.00
1076.302, 15933.00
1077.402, 15936.00
1078.501, 16029.00
1079.600, 15904.00
1080.700, 16123.00
1081.799, 16149.00
1082.898, 16177.00
1083.996, 16244.00
1085.095, 16258.44
1086.193, 16301.00
1087.292, 16306.00
1088.390, 16293.00
1089.488, 16296.00
1090.586, 16396.00
1091.683, 16282.00
1092.781, 16493.00
1093.878, 16467.00
1094.975, 16633.00
1096.073, 16525.00
1097.169, 16543.00
1098.266, 16629.00
1099.363, 16563.00
1100.459, 16761.00
1101.556, 16632.00
1102.652, 16821.00
1103.748, 16873.00
1104.844, 16682.00
1105.940, 16638.00
1107.035, 16810.00
1108.131, 17212.00
1109.226, 17210.00
1110.321, 17289.00
1111.416, 17364.00
1112.511, 17657.00
1113.605, 17750.00
1114.700, 18091.00
1115.794, 18579.00
1116.889, 18795.00
1117.983, 19427.00
1119.077, 20038.00
1120.170, 20477.00
1121.264, 20993.00
1122.357, 21362.00
1123.451, 21458.00
1124.544, 21267.00
1125.637, 20975.00
1126.730, 20705.00
1127.823, 20145.00
1128.915, 20073.00
1130.008, 20041.00
1131.100, 19943.00
1132.192, 20065.00
1133.284, 20191.00
1134.376, 20599.00
1135.467, 20952.00
1136.559, 20995.00
1137.650, 21170.00
1138.742, 20906.00
1139.833, 20666.00
1140.924, 20614.00
1142.014, 19958.00
1143.105, 19557.00
1144.195, 19214.00
1145.286, 18565.00
1146.376, 18437.00
1147.466, 18242.00
1148.556, 17839.00
1149.646, 17785.00
1150.735, 17672.00
1151.825, 17371.00
1152.914, 17247.00
1154.003, 17261.00
1155.092, 17180.00
1156.181, 17184.00
1157.270, 17186.00
1158.358, 17143.00
1159.447, 17159.00
1160.535, 17051.00
1161.623, 16997.00
1162.711, 16953.00
1163.799, 16890.00
1164.886, 16958.00
1165.974, 17067.00
1167.061, 16887.00
1168.148, 16910.00
1169.235, 16736.00
1170.322, 16925.00
1171.409, 16786.00
1172.496, 16823.00
1173.582, 16885.00
1174.669, 16792.00
1175.755, 17042.00
1176.841, 16948.00
1177.927, 16796.00
1179.012, 16841.00
1180.098, 16971.00
1181.183, 16877.00
1182.269, 16934.00
1183.354, 16969.00
1184.439, 16998.00
1185.524, 16933.00
1186.608, 16963.94
1187.693, 16968.49
1188.777, 16980.00
1189.862, 16970.00
1190.946, 17036.00
1192.030, 16969.00
1193.113, 16961.00
1194.197, 16960.00
1195.281, 16881.00
1196.364, 16929.00
1197.447, 16923.14
1198.530, 16917.63
1199.613, 16996.00
1200.696, 16962.00
1201.779, 17045.00
1202.861, 17125.00
1203.944, 16914.00
1205.026, 17121.00
1206.108, 16879.00
1207.190, 17100.00
1208.271, 17023.00
1209.353, 17178.00
1210.435, 17021.00
1211.516, 17116.00
1212.597, 17281.00
1213.678, 17007.00
1214.759, 17246.00
1215.840, 17261.00
1216.920, 17271.00
1218.001, 17292.00
1219.081, 17224.00
1220.161, 17188.00
1221.241, 17317.00
1222.321, 17140.00
1223.401, 17186.00
1224.480, 17320.00
1225.560, 17144.00
1226.639, 17209.00
1227.718, 17154.00
1228.797, 17268.00
1229.876, 17050.00
1230.955, 17469.00
1232.033, 17229.00
1233.112, 17233.00
1234.190, 17314.00
1235.268, 17154.00
1236.346, 17211.00
1237.424, 17354.00
1238.501, 17285.00
1239.579, 17341.00
1240.656, 17343.00
1241.733, 17399.00
1242.811, 17169.00
1243.888, 17152.00
1244.964, 17380.00
1246.041, 17462.00
1247.117, 17213.00
1248.194, 17326.00
1249.270, 17501.00
1250.346, 17240.00
1251.422, 17479.00
1252.498, 17318.00
1253.573, 17409.00
1254.649, 17497.00
1255.724, 17424.00
1256.800, 17601.00
1257.875, 17505.00
1258.950, 17589.00
1260.024, 17473.00
1261.099, 17486.40
1262.173, 17405.00
1263.248, 17452.00
1264.322, 17490.00
1265.396, 17444.00
1266.470, 17426.00
1267.544, 17426.00
1268.617, 17408.00
1269.691, 17438.72
1270.764, 17523.00
1271.837, 17515.00
1272.910, 17548.00
1273.983, 17604.00
1275.056, 17545.00
1276.129, 17634.00
1277.201, 17820.00
1278.273, 17679.00
1279.346, 17687.00
1280.418, 17590.00
1281.489, 17677.00
1282.561, 17670.00
1283.633, 17570.00
1284.704, 17652.00
1285.776, 17711.00
1286.847, 17705.00
1287.918, 17811.00
1288.989, 17716.00
1290.059, 17858.00
1291.130, 17613.00
1292.200, 17754.00
1293.271, 17685.00
1294.341, 17829.00
1295.411, 17771.00
1296.481, 17791.00
1297.551, 17768.00
1298.620, 17741.00
1299.690, 17730.00
1300.759, 17887.00
1301.828, 17754.00
1302.897, 17863.00
1303.966, 17840.00
1305.035, 18076.00
1306.103, 17791.00
1307.172, 17934.00
1308.240, 17910.00
1309.308, 17851.00
1310.376, 17965.00
1311.444, 17882.00
1312.512, 18026.00
1313.580, 18188.00
1314.647, 18119.00
1315.714, 18025.00
1316.781, 17938.00
1317.848, 17995.00
1318.915, 17930.00
1319.982, 18174.00
1321.049, 18051.00
1322.115, 18149.00
1323.181, 18070.00
1324.248, 18150.00
1325.314, 18080.00
1326.380, 18154.00
1327.445, 18284.00
1328.511, 18251.00
1329.576, 18273.97
1330.642, 18254.00
1331.707, 18194.00
1332.772, 18141.00
1333.837, 18066.00
1334.902, 18269.00
1335.966, 18325.00
1337.031, 18315.00
1338.095, 18214.00
1339.159, 18225.00
1340.223, 18211.00
1341.287, 18333.00
1342.351, 18249.00
1343.415, 18375.00
1344.478, 18224.00
1345.541, 18245.00
1346.605, 18523.00
1347.668, 18376.00
1348.731, 18341.00
1349.793, 18307.00
1350.856, 18319.00
1351.918, 18180.00
1352.981, 18468.00
1354.043, 18316.00
1355.105, 18442.00
1356.167, 18581.00
1357.229, 18401.00
1358.290, 18446.00
1359.352, 18369.00
1360.413, 18332.62
1361.475, 18395.00
1362.536, 18377.00
1363.597, 18428.00
1364.657, 18623.00
1365.718, 18397.00
1366.779, 18486.00
1367.839, 18378.00
1368.899, 18609.00
1369.959, 18524.00
1371.019, 18646.00
1372.079, 18637.44
1373.139, 18604.00
1374.198, 18553.00
1375.258, 18532.19
1376.317, 18559.00
1377.376, 18495.00
1378.435, 18424.00
1379.494, 18468.21
1380.553, 18473.25
1381.611, 18573.00
1382.670, 18626.00
1383.728, 18622.00
1384.786, 18785.00
1385.844, 18693.00
1386.902, 18711.00
1387.960, 18522.00
1389.017, 18890.00
1390.075, 18555.00
1391.132, 18501.00
1392.189, 18788.00
1393.246, 18647.00
1394.303, 18674.00
1395.360, 18747.00
1396.417, 18616.00
1397.473, 18664.00
1398.529, 18682.00
1399.585, 18656.00
1400.642, 18715.00
1401.697, 18796.00
1402.753, 18795.91
1403.809, 18739.00
1404.864, 18814.00
1405.920, 18855.00
1406.975, 18780.00
1408.030, 18918.00
1409.085, 18820.00
1410.140, 18871.00
1411.194, 19016.00
1412.249, 18701.00
1413.303, 19020.00
1414.358, 18929.00
1415.412, 18914.00
1416.466, 18796.00
1417.520, 18926.00
1418.573, 19053.00
1419.627, 18963.00
1420.680, 19077.00
1421.733, 19014.00
1422.787, 19050.00
1423.840, 18961.00
1424.892, 19124.00
1425.945, 19099.00
1426.998, 19119.00
1428.050, 18907.00
1429.103, 19069.00
1430.155, 18986.00
1431.207, 19187.00
1432.259, 19130.00
1433.310, 19082.00
1434.362, 19046.00
1435.414, 18944.00
1436.465, 19167.00
1437.516, 19268.00
1438.567, 19228.00
1439.618, 19023.00
1440.669, 19272.00
1441.720, 19192.00
1442.770, 19204.00
1443.820, 19254.00
1444.871, 19170.00
1445.921, 19224.00
1446.971, 19159.00
1448.021, 19079.00
1449.070, 19521.00
1450.120, 19245.00
1451.169, 19284.00
1452.219, 19002.00
1453.268, 19232.00
1454.317, 19400.00
1455.366, 19393.00
1456.414, 19343.00
1457.463, 19320.00
1458.511, 19398.00
1459.560, 19307.00
1460.608, 19352.00
1461.656, 19493.00
1462.704, 19512.00
1463.752, 19530.53
1464.799, 19588.00
1465.847, 19588.00
1466.894, 19561.38
1467.941, 19476.00
1468.988, 19439.00
1470.035, 19479.00
1471.082, 19358.00
1472.129, 19383.00
1473.175, 19552.00
1474.222, 19583.00
1475.268, 19586.00
1476.314, 19566.00
1477.360, 19469.00
1478.406, 19484.00
1479.452, 19483.00
1480.498, 19478.09
1481.543, 19557.00
1482.588, 19543.00
1483.633, 19511.00
1484.679, 19575.00
1485.723, 19481.00
1486.768, 19394.00
1487.813, 19404.00
1488.857, 19477.00
1489.902, 19536.00
1490.946, 19602.00
1491.990, 19642.41
1493.034, 19640.25
1494.078, 19688.00
1495.122, 19626.00
1496.165, 19584.00
1497.209, 19621.00
1498.252, 19503.00
1499.295, 19702.00
1500.338, 19447.00
1501.381, 19753.00
1502.424, 19606.00
1503.466, 19804.00
1504.509, 19705.00
1505.551, 19637.00
1506.593, 19673.00
1507.635, 19872.00
1508.677, 19558.00
1509.719, 19379.00
1510.761, 19898.00
1511.802, 19833.00
1512.844, 19851.00
1513.885, 19814.00
1514.926, 19777.00
1515.967, 19778.00
1517.008, 19842.00
1518.049, 19736.00
1519.089, 19785.00
1520.130, 19835.00
1521.170, 19961.00
1522.210, 20090.00
1523.250, 19906.00
1524.290, 19978.00
1525.330, 20082.00
1526.370, 19876.00
1527.409, 19949.00
1528.448, 19925.00
1529.488, 19995.00
1530.527, 19888.00
1531.566, 20043.00
1532.605, 19866.00
1533.643, 19763.00
1534.682, 20010.00
1535.720, 20072.00
1536.759, 19915.00
1537.797, 20004.00
1538.835, 20138.00
1539.873, 20129.00
1540.910, 19996.00
1541.948, 20087.00
1542.986, 19913.00
1544.023, 19936.00
1545.060, 20000.00
1546.097, 20174.00
1547.134, 19939.00
1548.171, 20164.00
1549.208, 20009.00
1550.244, 20243.00
1551.281, 20119.00
1552.317, 20194.00
1553.353, 20312.00
1554.389, 20288.00
1555.425, 20199.00
1556.461, 20188.00
1557.497, 20326.00
1558.532, 20096.00
1559.567, 20172.00
1560.603, 20292.00
1561.638, 20234.00
1562.673, 20188.00
1563.708, 20419.00
##END=



