##NAMES=Microcline
##RRUFFID=R050193
##IDEAL CHEMISTRY=KAlSi_3_O_8_
##LOCALITY=Devil's Head, Douglas County, Colorado, USA
##OWNER=RRUFF
##SOURCE=Dave Bunk Minerals
##DESCRIPTION=White to colorless heterogeneous mixture of K and Na feldspar in a cluster of crystals. Crystal structure determined, presented below. This sample is known as an intermediate microcline in the literature.
##STATUS=The identification of this mineral has been confirmed by X-ray diffraction and chemical analysis
##URL=rruff.info/R050193
##MEASURED CHEMISTRY=(K_0.929_Na_0.071_)(Al_1.005_Si_2.994_Fe_0.001_)O_7.993_F_0.007_  ; Light Band :  (Na_0.973_K_0.007_Ca_0.020_)(Al_1.020_Si_2.980_)O_8_ ; Dark Band
##PIN_ID=L00660
##ORIENTATION=Laser parallel to c* (0 0 1). Fiducial mark perpendicular to laser is parallel to a [1 0 0]
142.5560, 24445.00
143.7880, 25012.00
145.0190, 25218.00
146.2510, 25579.00
147.4820, 26016.00
148.7130, 26573.00
149.9440, 27071.24
151.1750, 27649.47
152.4050, 28282.00
153.6360, 28759.00
154.8660, 29483.00
156.0960, 29858.00
157.3260, 29678.00
158.5560, 29725.00
159.7850, 29398.00
161.0150, 29002.00
162.2440, 28239.00
163.4730, 27690.00
164.7020, 27099.00
165.9310, 26334.00
167.1590, 26047.00
168.3880, 25614.00
169.6160, 25288.00
170.8440, 25249.00
172.0720, 25168.00
173.3000, 24995.00
174.5280, 25155.00
175.7550, 25325.00
176.9820, 25102.00
178.2100, 25162.00
179.4370, 25032.00
180.6630, 24983.00
181.8900, 24853.00
183.1170, 24719.00
184.3430, 24489.00
185.5690, 24265.00
186.7950, 24260.00
188.0210, 24234.00
189.2470, 24186.00
190.4720, 24070.00
191.6970, 24062.00
192.9230, 24070.36
194.1480, 24401.00
195.3730, 24149.00
196.5970, 24518.00
197.8220, 24576.00
199.0460, 24475.00
200.2700, 24880.00
201.4940, 24492.00
202.7180, 24266.00
203.9420, 24191.00
205.1660, 23858.00
206.3890, 23894.00
207.6120, 23600.00
208.8350, 23653.00
210.0580, 23810.00
211.2810, 23774.00
212.5040, 23690.00
213.7260, 23614.00
214.9480, 23661.00
216.1700, 23523.00
217.3920, 23474.00
218.6140, 23467.00
219.8360, 23653.00
221.0570, 23559.00
222.2790, 23488.00
223.5000, 23814.00
224.7210, 23695.00
225.9410, 23642.00
227.1620, 23797.00
228.3820, 23724.00
229.6030, 23767.00
230.8230, 23907.00
232.0430, 23940.00
233.2630, 23920.00
234.4820, 23937.00
235.7020, 24060.00
236.9210, 24058.00
238.1400, 24312.00
239.3590, 24256.00
240.5780, 24443.00
241.7970, 24372.00
243.0150, 24846.00
244.2340, 24862.00
245.4520, 25073.00
246.6700, 25316.00
247.8880, 25571.00
249.1060, 25527.00
250.3230, 25921.00
251.5400, 26054.00
252.7580, 26550.00
253.9750, 26902.00
255.1920, 27105.00
256.4080, 27549.00
257.6250, 27791.00
258.8410, 28484.00
260.0580, 29026.00
261.2740, 29029.00
262.4900, 29163.00
263.7050, 29346.00
264.9210, 29723.00
266.1360, 29997.00
267.3520, 30206.00
268.5670, 30332.00
269.7820, 30624.00
270.9960, 30772.00
272.2110, 31089.04
273.4250, 31388.00
274.6400, 31819.00
275.8540, 32225.00
277.0680, 32780.00
278.2810, 33251.00
279.4950, 33720.00
280.7090, 33881.00
281.9220, 33931.68
283.1350, 34034.00
284.3480, 33519.00
285.5610, 32945.00
286.7730, 32317.00
287.9860, 31798.00
289.1980, 30791.00
290.4100, 30261.00
291.6220, 29411.00
292.8340, 28752.00
294.0460, 28367.00
295.2570, 27817.00
296.4690, 27544.00
297.6800, 27109.00
298.8910, 26854.00
300.1020, 26655.05
301.3120, 26573.00
302.5230, 26380.00
303.7330, 26383.00
304.9440, 26340.00
306.1540, 26279.00
307.3630, 26347.00
308.5730, 26172.00
309.7830, 26337.00
310.9920, 26246.00
312.2010, 26289.00
313.4100, 26414.00
314.6190, 26340.00
315.8280, 26431.00
317.0370, 26503.00
318.2450, 26557.00
319.4530, 26580.00
320.6610, 26755.00
321.8690, 26897.00
323.0770, 26893.00
324.2850, 27061.00
325.4920, 27021.00
326.6990, 27082.00
327.9060, 27298.00
329.1130, 27158.00
330.3200, 27182.00
331.5270, 27260.00
332.7330, 27033.00
333.9390, 27070.00
335.1450, 27089.00
336.3510, 26952.00
337.5570, 26991.00
338.7630, 26924.32
339.9680, 27033.00
341.1740, 26892.00
342.3790, 26897.00
343.5840, 27007.00
344.7890, 27068.00
345.9930, 27255.00
347.1980, 27254.00
348.4020, 27305.00
349.6060, 27035.00
350.8100, 27389.00
352.0140, 27479.00
353.2180, 27247.00
354.4210, 27373.00
355.6250, 27502.00
356.8280, 27415.00
358.0310, 27582.00
359.2340, 27530.00
360.4360, 27732.00
361.6390, 27545.00
362.8410, 27946.00
364.0430, 27783.00
365.2450, 27968.00
366.4470, 27939.00
367.6490, 27850.00
368.8510, 27730.00
370.0520, 27721.00
371.2530, 28044.00
372.4540, 28059.00
373.6550, 27789.00
374.8560, 28096.00
376.0560, 28020.00
377.2570, 27870.00
378.4570, 27791.00
379.6570, 27850.00
380.8570, 27537.00
382.0570, 28147.00
383.2560, 27907.00
384.4560, 28070.00
385.6550, 27854.00
386.8540, 28104.00
388.0530, 28201.00
389.2520, 28132.00
390.4510, 28348.00
391.6490, 28220.00
392.8470, 28390.00
394.0450, 28619.00
395.2430, 28640.00
396.4410, 28847.00
397.6390, 28955.08
398.8360, 29074.00
400.0340, 29171.00
401.2310, 29167.00
402.4280, 29219.00
403.6250, 29416.00
404.8210, 29559.00
406.0180, 29699.00
407.2140, 29518.00
408.4100, 29782.00
409.6060, 29601.00
410.8020, 29321.00
411.9980, 29224.00
413.1930, 29366.00
414.3890, 29173.00
415.5840, 29116.00
416.7790, 29156.00
417.9740, 29030.00
419.1680, 29044.00
420.3630, 28970.00
421.5570, 28984.00
422.7510, 29020.00
423.9450, 29141.00
425.1390, 29184.00
426.3330, 29218.00
427.5270, 29147.00
428.7200, 29326.00
429.9130, 29679.00
431.1060, 29270.00
432.2990, 29505.00
433.4920, 29827.00
434.6840, 29686.00
435.8770, 29658.00
437.0690, 30000.00
438.2610, 30134.00
439.4530, 30301.00
440.6450, 30715.00
441.8360, 31037.00
443.0280, 31211.00
444.2190, 31645.00
445.4100, 31944.00
446.6010, 32326.81
447.7920, 32662.00
448.9820, 33173.00
450.1730, 33621.00
451.3630, 34090.00
452.5530, 34236.00
453.7430, 34122.00
454.9330, 34591.00
456.1230, 34707.00
457.3120, 34252.00
458.5010, 33860.00
459.6910, 33609.00
460.8800, 33634.00
462.0680, 33486.00
463.2570, 33464.00
464.4460, 33711.00
465.6340, 34173.00
466.8220, 34591.00
468.0100, 35068.00
469.1980, 35681.00
470.3860, 36371.00
471.5730, 37250.00
472.7600, 37763.00
473.9480, 38473.00
475.1350, 38668.00
476.3210, 38630.00
477.5080, 38337.00
478.6950, 38166.00
479.8810, 37382.00
481.0670, 36741.00
482.2530, 36047.00
483.4390, 35525.00
484.6250, 34972.00
485.8100, 34436.00
486.9960, 34164.00
488.1810, 33938.23
489.3660, 33895.00
490.5510, 33878.00
491.7360, 33926.00
492.9200, 34134.00
494.1050, 33859.00
495.2890, 34197.00
496.4730, 34852.00
497.6570, 35250.00
498.8400, 36227.00
500.0240, 36873.00
501.2070, 38503.00
502.3910, 39898.00
503.5740, 42085.00
504.7570, 43901.00
505.9400, 46134.00
507.1220, 48110.00
508.3050, 49931.00
509.4870, 51979.00
510.6690, 53590.00
511.8510, 54759.00
513.0330, 54981.00
514.2140, 54262.00
515.3960, 52676.00
516.5770, 50243.00
517.7580, 46803.00
518.9390, 43912.00
520.1200, 41421.00
521.3010, 39865.00
522.4810, 38031.00
523.6610, 36976.00
524.8420, 36127.00
526.0220, 35385.00
527.2010, 34967.00
528.3810, 34407.00
529.5610, 34283.00
530.7400, 34027.00
531.9190, 33631.00
533.0980, 33764.00
534.2770, 33501.00
535.4560, 33194.00
536.6340, 33183.00
537.8120, 33157.00
538.9910, 32857.00
540.1690, 33195.00
541.3460, 32974.00
542.5240, 33072.00
543.7020, 32900.00
544.8790, 32972.00
546.0560, 32873.00
547.2330, 32830.00
548.4100, 32999.00
549.5870, 32688.00
550.7630, 32855.00
551.9400, 32888.00
553.1160, 32936.00
554.2920, 33019.05
555.4680, 32889.00
556.6440, 33071.00
557.8190, 32910.00
558.9950, 32814.00
560.1700, 33076.00
561.3450, 32852.00
562.5200, 32834.00
563.6950, 33020.00
564.8690, 33014.00
566.0440, 32928.00
567.2180, 32960.00
568.3920, 33148.00
569.5660, 33330.00
570.7400, 33162.00
571.9130, 33159.00
573.0870, 33242.00
574.2600, 33213.00
575.4330, 33416.00
576.6060, 33502.00
577.7790, 33498.00
578.9520, 33610.00
580.1240, 33529.00
581.2960, 33364.00
582.4690, 33761.00
583.6410, 33480.00
584.8120, 33368.00
585.9840, 33526.00
587.1560, 33519.00
588.3270, 33439.00
589.4980, 33393.00
590.6690, 33480.00
591.8400, 33397.38
593.0110, 33719.00
594.1810, 33348.00
595.3510, 33666.00
596.5220, 33679.00
597.6920, 33592.00
598.8610, 33744.00
600.0310, 33624.00
601.2010, 33661.00
602.3700, 33785.00
603.5390, 33785.00
604.7080, 33831.00
605.8770, 33863.09
607.0460, 34015.00
608.2140, 33844.00
609.3830, 33870.00
610.5510, 33770.00
611.7190, 34066.00
612.8870, 34220.00
614.0550, 34307.00
615.2220, 33954.00
616.3900, 34209.00
617.5570, 34109.00
618.7240, 34289.00
619.8910, 34091.00
621.0580, 34377.00
622.2240, 34301.00
623.3910, 34487.00
624.5570, 34532.00
625.7230, 34633.00
626.8890, 34586.00
628.0550, 34820.00
629.2200, 34718.00
630.3860, 34921.00
631.5510, 34926.00
632.7160, 34946.00
633.8810, 34831.00
635.0460, 34806.00
636.2100, 34681.00
637.3750, 34897.00
638.5390, 34844.00
639.7030, 34876.00
640.8670, 34984.00
642.0310, 34902.00
643.1950, 34863.00
644.3580, 35071.00
645.5210, 34954.00
646.6850, 35104.00
647.8480, 35139.00
649.0100, 35307.00
650.1730, 35173.00
651.3350, 35278.00
652.4980, 35208.00
653.6600, 35225.00
654.8220, 35415.00
655.9840, 35433.00
657.1450, 35277.00
658.3070, 35178.00
659.4680, 35308.00
660.6300, 35407.00
661.7910, 35457.00
662.9510, 35366.00
664.1120, 35207.00
665.2730, 35272.00
666.4330, 35232.00
667.5930, 35336.00
668.7530, 35142.00
669.9130, 35316.00
671.0730, 35228.00
672.2320, 35304.00
673.3920, 35262.00
674.5510, 35437.00
675.7100, 35288.00
676.8690, 35165.00
678.0280, 35506.00
679.1860, 35032.00
680.3450, 35314.00
681.5030, 35170.00
682.6610, 35536.00
683.8190, 35366.00
684.9770, 35587.00
686.1340, 35514.00
687.2920, 35452.00
688.4490, 35652.00
689.6060, 35522.00
690.7630, 35593.00
691.9200, 35662.00
693.0760, 35775.00
694.2330, 35693.00
695.3890, 35697.00
696.5450, 35682.00
697.7010, 35608.00
698.8570, 35751.00
700.0130, 35987.00
701.1680, 35759.00
702.3230, 35559.00
703.4780, 36275.00
704.6330, 35789.00
705.7880, 36042.00
706.9430, 36055.00
708.0970, 36169.00
709.2520, 36120.00
710.4060, 36118.00
711.5600, 36143.00
712.7140, 35954.00
713.8670, 36439.00
715.0210, 36210.00
716.1740, 36424.00
717.3270, 36366.00
718.4800, 36446.00
719.6330, 36432.00
720.7860, 36454.00
721.9380, 36548.00
723.0910, 36678.00
724.2430, 36430.00
725.3950, 36827.00
726.5470, 36798.00
727.6980, 36672.00
728.8500, 36891.00
730.0010, 36869.00
731.1530, 37126.00
732.3040, 37053.00
733.4550, 37147.00
734.6050, 37439.00
735.7560, 37371.00
736.9060, 37546.00
738.0560, 37592.00
739.2060, 37764.00
740.3560, 38241.00
741.5060, 38024.00
742.6560, 38444.00
743.8050, 38403.00
744.9540, 38480.00
746.1030, 38741.00
747.2520, 38666.00
748.4010, 38645.00
749.5500, 38607.00
750.6980, 38685.00
751.8460, 38850.00
752.9950, 38828.00
754.1420, 38462.00
755.2900, 38417.00
756.4380, 38645.00
757.5850, 38936.00
758.7330, 38527.00
759.8800, 38528.00
761.0270, 38834.00
762.1730, 38806.00
763.3200, 38738.00
764.4670, 38685.00
765.6130, 38671.00
766.7590, 38470.00
767.9050, 38268.00
769.0510, 38343.00
770.1960, 38295.00
771.3420, 38462.00
772.4870, 38160.00
773.6320, 38486.00
774.7770, 38154.00
775.9220, 38262.00
777.0670, 38201.00
778.2110, 38246.00
779.3560, 38235.00
780.5000, 38205.00
781.6440, 38338.00
782.7880, 38162.00
783.9320, 38144.00
785.0750, 38424.00
786.2180, 38419.00
787.3620, 38353.00
788.5050, 38358.00
789.6480, 38703.00
790.7900, 38609.00
791.9330, 38603.00
793.0750, 38966.00
794.2170, 39041.00
795.3590, 39073.00
796.5010, 39052.00
797.6430, 39101.00
798.7850, 39271.00
799.9260, 39208.00
801.0670, 39399.00
802.2080, 39191.00
803.3490, 39424.00
804.4900, 39474.00
805.6310, 39889.00
806.7710, 40085.00
807.9110, 40156.00
809.0510, 40621.00
810.1910, 40612.00
811.3310, 40677.00
812.4710, 40841.00
813.6100, 41012.00
814.7490, 40524.00
815.8880, 40315.00
817.0270, 40335.00
818.1660, 39471.00
819.3050, 39521.00
820.4430, 39384.00
821.5820, 39012.00
822.7200, 38781.00
823.8580, 38868.00
824.9950, 39055.00
826.1330, 38737.00
827.2710, 38702.00
828.4080, 38934.00
829.5450, 38812.00
830.6820, 38749.00
831.8190, 39040.00
832.9560, 38942.00
834.0920, 38750.00
835.2280, 39113.00
836.3650, 38950.00
837.5010, 38792.00
838.6360, 38793.00
839.7720, 39065.00
840.9080, 39073.00
842.0430, 39024.00
843.1780, 38919.00
844.3130, 38831.00
845.4480, 39137.00
846.5830, 38937.00
847.7170, 39162.00
848.8520, 39022.00
849.9860, 39149.00
851.1200, 39163.00
852.2540, 39319.00
853.3870, 39201.00
854.5210, 39276.00
855.6540, 39368.00
856.7880, 39172.00
857.9210, 39303.00
859.0540, 39194.00
860.1860, 39381.00
861.3190, 39425.00
862.4510, 39725.00
863.5840, 39480.00
864.7160, 39572.00
865.8480, 39741.00
866.9790, 39710.00
868.1110, 39908.00
869.2420, 39585.00
870.3740, 39646.00
871.5050, 39800.00
872.6360, 39627.00
873.7660, 39854.00
874.8970, 39678.00
876.0280, 39648.00
877.1580, 39816.00
878.2880, 39744.00
879.4180, 39647.00
880.5480, 39815.00
881.6770, 39666.00
882.8070, 39837.00
883.9360, 39883.00
885.0650, 40000.00
886.1940, 39906.00
887.3230, 39802.00
888.4520, 40129.00
889.5800, 39733.00
890.7090, 39930.00
891.8370, 39984.00
892.9650, 39957.00
894.0930, 40456.00
895.2200, 40321.00
896.3480, 40245.00
897.4750, 40342.00
898.6020, 40164.00
899.7290, 40272.00
900.8560, 40323.00
901.9830, 40424.00
903.1090, 40438.96
904.2360, 40461.00
905.3620, 40459.00
906.4880, 40440.00
907.6140, 40448.00
908.7400, 40295.00
909.8650, 40318.00
910.9900, 40361.00
912.1160, 40502.00
913.2410, 40674.00
914.3660, 40505.00
915.4900, 40609.00
916.6150, 40553.00
917.7390, 40581.00
918.8640, 40665.00
919.9880, 40740.00
921.1120, 40696.00
922.2350, 40746.00
923.3590, 40997.00
924.4820, 40679.00
925.6060, 40978.00
926.7290, 40864.00
927.8520, 40828.00
928.9740, 41020.00
930.0970, 40906.00
931.2190, 41018.00
932.3420, 41120.00
933.4640, 40809.00
934.5860, 41118.00
935.7080, 41015.00
936.8290, 41314.00
937.9510, 41132.00
939.0720, 41203.00
940.1930, 41223.00
941.3140, 41237.00
942.4350, 41096.00
943.5560, 41341.00
944.6760, 41558.00
945.7960, 41414.00
946.9170, 41394.00
948.0370, 41461.00
949.1560, 41648.00
950.2760, 41419.00
951.3960, 41604.00
952.5150, 41521.00
953.6340, 41686.00
954.7530, 41872.00
955.8720, 41785.00
956.9910, 41804.00
958.1090, 41603.00
959.2280, 41528.00
960.3460, 41634.00
961.4640, 41426.00
962.5820, 41604.00
963.6990, 41729.00
964.8170, 41892.00
965.9340, 41657.00
967.0510, 41783.00
968.1690, 41940.00
969.2850, 42145.00
970.4020, 42059.00
971.5190, 42469.00
972.6350, 42353.00
973.7510, 42769.00
974.8670, 42687.00
975.9830, 42427.00
977.0990, 42584.00
978.2150, 42506.00
979.3300, 42543.00
980.4450, 42829.00
981.5600, 42643.00
982.6750, 42714.00
983.7900, 42963.00
984.9050, 42751.00
986.0190, 42998.00
987.1340, 43120.00
988.2480, 43343.00
989.3620, 43258.00
990.4750, 43371.00
991.5890, 43455.00
992.7020, 43482.00
993.8160, 43575.00
994.9290, 43597.00
996.0420, 43639.71
997.1550, 43437.00
998.2670, 43728.00
999.3800, 43680.00
1000.492, 43769.00
1001.604, 43407.00
1002.716, 43319.00
1003.828, 43436.00
1004.940, 43533.00
1006.051, 43557.87
1007.163, 43521.00
1008.274, 43733.00
1009.385, 43701.00
1010.496, 43837.00
1011.606, 43587.00
1012.717, 43801.00
1013.827, 43741.00
1014.937, 43736.00
1016.047, 43729.00
1017.157, 43783.00
1018.267, 44002.66
1019.377, 44004.71
1020.486, 43999.93
1021.595, 43989.70
1022.704, 43897.09
1023.813, 43957.25
1024.922, 43984.54
1026.030, 44029.84
1027.139, 44169.36
1028.247, 44192.78
1029.355, 44049.00
1030.463, 44072.00
1031.571, 44206.00
1032.678, 44342.00
1033.786, 44380.00
1034.893, 44424.00
1036.000, 43897.00
1037.107, 44190.00
1038.214, 44153.00
1039.321, 44190.00
1040.427, 44371.00
1041.533, 44335.00
1042.639, 44385.00
1043.745, 44309.00
1044.851, 44388.00
1045.957, 44448.00
1047.062, 44456.00
1048.168, 44546.00
1049.273, 44484.00
1050.378, 44619.00
1051.482, 44670.00
1052.587, 44543.00
1053.692, 44401.00
1054.796, 44739.00
1055.900, 44522.00
1057.004, 44325.00
1058.108, 44996.00
1059.212, 44489.00
1060.315, 44727.00
1061.418, 44640.00
1062.522, 44711.00
1063.625, 44704.00
1064.728, 44729.00
1065.830, 44790.00
1066.933, 45024.00
1068.035, 44658.00
1069.137, 44989.00
1070.239, 45087.00
1071.341, 44861.00
1072.443, 44846.00
1073.545, 44940.00
1074.646, 45192.00
1075.747, 45027.00
1076.848, 44926.00
1077.949, 45333.00
1079.050, 45294.00
1080.150, 45408.00
1081.251, 45532.00
1082.351, 45415.00
1083.451, 45303.00
1084.551, 45372.00
1085.651, 45415.00
1086.750, 45772.00
1087.850, 45776.00
1088.949, 45783.00
1090.048, 45576.00
1091.147, 45972.00
1092.246, 46323.00
1093.345, 46329.00
1094.443, 46175.00
1095.541, 46274.00
1096.639, 46313.00
1097.737, 46541.00
1098.835, 46361.00
1099.933, 46496.00
1101.030, 46627.00
1102.128, 46465.00
1103.225, 46663.00
1104.322, 46470.00
1105.419, 46494.00
1106.515, 46912.00
1107.612, 46396.00
1108.708, 46695.00
1109.804, 46911.00
1110.900, 46615.00
1111.996, 46724.00
1113.092, 46978.00
1114.187, 47131.00
1115.283, 47179.02
1116.378, 47392.00
1117.473, 47270.00
1118.568, 47513.00
1119.662, 47630.00
1120.757, 47454.00
1121.851, 47967.00
1122.946, 47639.00
1124.040, 47620.00
1125.134, 47608.00
1126.227, 47630.00
1127.321, 47738.00
1128.414, 47807.00
1129.508, 47841.00
1130.601, 47773.00
1131.693, 47999.00
1132.786, 48032.00
1133.879, 47934.00
1134.971, 48202.00
1136.064, 47668.00
1137.156, 47996.00
1138.248, 47868.00
1139.339, 48090.00
1140.431, 48011.00
1141.522, 47880.00
1142.614, 47684.00
1143.705, 47941.00
1144.796, 47968.00
1145.887, 47877.00
1146.977, 47919.00
1148.068, 47969.00
1149.158, 47723.00
1150.248, 47778.00
1151.338, 47638.00
1152.428, 47730.00
1153.518, 47572.00
1154.607, 47583.00
1155.696, 47854.00
1156.785, 47567.00
1157.874, 47683.00
1158.963, 47746.00
1160.052, 47643.00
1161.141, 47375.00
1162.229, 47693.00
1163.317, 47622.00
1164.405, 47638.00
1165.493, 47972.00
1166.581, 47840.00
1167.668, 47541.00
1168.756, 47883.00
1169.843, 47777.00
1170.930, 47708.00
1172.017, 47892.00
1173.103, 47819.00
1174.190, 47887.00
1175.276, 47832.00
1176.363, 47854.00
1177.449, 48169.00
1178.535, 47880.00
1179.620, 47894.00
1180.706, 48004.00
1181.791, 48352.00
1182.877, 48243.00
1183.962, 47823.00
1185.047, 48251.00
1186.131, 48303.00
1187.216, 48101.00
1188.300, 48277.00
1189.385, 48278.00
1190.469, 48496.00
1191.553, 48353.00
1192.637, 48398.00
1193.720, 48346.00
1194.804, 48593.00
1195.887, 48360.00
1196.970, 48604.00
1198.053, 48505.00
1199.136, 48478.00
1200.219, 48584.00
1201.301, 48400.00
1202.383, 48836.00
1203.465, 48784.00
1204.547, 48950.00
1205.629, 48738.00
1206.711, 48594.00
1207.792, 48835.00
1208.874, 48693.00
1209.955, 49092.00
1211.036, 48918.00
1212.117, 48794.00
1213.198, 49028.00
1214.278, 49067.00
1215.359, 49254.00
1216.439, 49228.00
1217.519, 49211.00
1218.599, 49293.00
1219.678, 49387.00
1220.758, 49419.00
1221.837, 49382.00
1222.917, 49299.00
1223.996, 49319.39
1225.075, 49345.00
1226.153, 49337.00
1227.232, 49427.00
1228.310, 49535.00
1229.389, 49697.00
1230.467, 49692.00
1231.545, 49793.00
1232.622, 49912.00
1233.700, 49613.00
1234.777, 49747.00
1235.855, 49760.00
1236.932, 50084.00
1238.009, 50064.00
1239.086, 50175.95
1240.162, 49751.00
1241.239, 50168.00
1242.315, 49985.00
1243.391, 49680.00
1244.467, 49947.00
1245.543, 50122.00
1246.619, 49936.00
1247.694, 50084.00
1248.769, 50362.00
1249.844, 50139.00
1250.919, 49845.00
1251.994, 50120.00
1253.069, 50204.00
1254.144, 50167.00
1255.218, 50264.00
1256.292, 50586.00
1257.366, 50318.00
1258.440, 50554.00
1259.514, 50481.00
1260.587, 50582.00
1261.661, 50452.00
1262.734, 50438.00
1263.807, 50503.00
1264.880, 50482.14
1265.952, 50973.00
1267.025, 50551.00
1268.097, 50680.00
1269.170, 50671.00
1270.242, 51181.00
1271.314, 50743.00
1272.385, 50963.00
1273.457, 50754.00
1274.528, 51112.00
1275.600, 51180.00
1276.671, 50943.00
1277.742, 51291.00
1278.812, 51339.00
1279.883, 51092.00
1280.954, 51061.00
1282.024, 51293.00
1283.094, 51600.00
1284.164, 51507.00
1285.234, 51644.00
1286.303, 51652.86
1287.373, 51473.00
1288.442, 51610.00
1289.511, 51535.00
1290.580, 51531.00
1291.649, 51658.00
1292.718, 51517.00
1293.786, 51630.00
1294.855, 51780.00
1295.923, 51608.00
1296.991, 51757.00
1298.059, 51804.00
1299.126, 51860.00
1300.194, 51823.00
1301.261, 51757.00
1302.328, 51850.00
1303.395, 52009.00
1304.462, 52097.00
1305.529, 51959.00
1306.596, 52022.00
1307.662, 52034.00
1308.728, 52086.40
1309.794, 52181.02
1310.860, 52323.00
1311.926, 52315.00
1312.991, 52506.00
1314.057, 52426.00
1315.122, 52277.00
1316.187, 52776.00
1317.252, 52326.00
1318.317, 52563.00
1319.381, 52509.00
1320.446, 52459.00
1321.510, 52843.00
1322.574, 52764.00
1323.638, 52682.00
1324.702, 52802.00
1325.766, 52817.00
1326.829, 52801.00
1327.892, 53148.00
1328.956, 53095.00
1330.019, 52620.00
1331.081, 53019.00
1332.144, 53061.00
1333.206, 52939.00
1334.269, 53233.00
1335.331, 53504.00
1336.393, 52973.00
1337.455, 53263.00
1338.516, 53451.00
1339.578, 53202.00
1340.639, 53438.00
1341.701, 53226.00
1342.762, 53451.00
1343.822, 53691.00
1344.883, 53711.00
1345.944, 53686.00
1347.004, 53594.00
1348.064, 53750.00
1349.124, 53697.00
1350.184, 53466.00
1351.244, 53778.00
1352.304, 53647.00
1353.363, 53973.00
1354.422, 53972.00
1355.481, 54066.00
1356.540, 54219.00
1357.599, 53707.00
1358.657, 54078.00
1359.716, 53814.00
1360.774, 54291.00
1361.832, 53901.00
1362.890, 54148.00
1363.948, 54227.00
1365.006, 53967.00
1366.063, 54184.00
1367.120, 54196.00
1368.178, 54210.00
1369.234, 54146.00
1370.291, 54339.00
1371.348, 54330.00
1372.404, 54242.00
1373.461, 54548.00
1374.517, 54652.00
1375.573, 54628.00
1376.629, 54653.00
1377.684, 54605.00
1378.740, 54636.00
1379.795, 54584.00
1380.850, 54637.00
1381.905, 54701.01
1382.960, 54760.11
1384.015, 54825.00
1385.070, 54969.00
1386.124, 54916.00
1387.178, 55031.00
1388.232, 54968.00
1389.286, 55089.00
1390.340, 55304.00
1391.393, 55081.00
1392.447, 55195.00
1393.500, 54983.00
1394.553, 55093.00
1395.606, 55556.00
1396.659, 55603.00
1397.711, 55408.00
1398.764, 55156.00
1399.816, 55390.00
1400.868, 55446.00
1401.920, 55200.00
1402.972, 55540.00
1404.023, 55643.00
1405.075, 55895.00
1406.126, 55647.00
1407.177, 55891.00
1408.228, 55608.00
1409.279, 55564.00
1410.330, 55865.00
1411.380, 55901.00
1412.431, 55962.00
1413.481, 55985.00
1414.531, 56058.00
1415.580, 56090.00
1416.630, 56049.00
1417.680, 56096.48
1418.729, 56068.46
1419.778, 56138.00
1420.827, 56016.00
1421.876, 56077.00
1422.925, 56021.95
1423.973, 56314.00
1425.022, 56115.00
1426.070, 56492.00
1427.118, 56616.00
1428.166, 56317.00
1429.214, 56649.00
1430.261, 56420.00
1431.309, 56691.00
1432.356, 56891.00
1433.403, 56699.00
1434.450, 56714.00
1435.497, 56756.00
1436.543, 56664.00
1437.590, 56810.00
1438.636, 56972.00
1439.682, 56823.00
1440.728, 57030.00
1441.774, 57407.00
1442.819, 56720.00
1443.865, 57028.00
1444.910, 56785.00
1445.955, 57196.00
1447.000, 57030.00
1448.045, 56937.00
1449.090, 57322.00
1450.134, 57202.00
1451.178, 57387.00
1452.223, 57418.00
1453.267, 57406.00
1454.310, 57527.00
1455.354, 57518.01
1456.398, 57584.74
1457.441, 57626.99
1458.484, 57729.73
1459.527, 57805.32
1460.570, 57855.22
1461.613, 57802.52
1462.655, 57882.28
1463.698, 57908.97
1464.740, 57933.45
1465.782, 58031.86
1466.824, 57994.04
1467.866, 58091.27
1468.907, 58134.56
1469.948, 58202.52
1470.990, 58217.09
1472.031, 58248.12
1473.072, 58332.60
1474.112, 58387.45
1475.153, 58395.83
1476.194, 58465.36
1477.234, 58425.59
1478.274, 58395.00
1479.314, 58557.00
1480.354, 58673.58
1481.393, 58507.00
1482.433, 58869.00
1483.472, 58606.00
1484.511, 58458.00
1485.550, 58822.00
1486.589, 58499.00
1487.628, 58969.00
1488.666, 59023.00
1489.704, 58933.00
1490.743, 58949.00
1491.781, 59004.00
1492.819, 59082.00
1493.856, 59168.00
1494.894, 59215.33
1495.931, 59215.70
1496.968, 59270.00
1498.005, 59162.00
1499.042, 59061.00
1500.079, 59007.00
1501.115, 59157.00
1502.152, 59552.00
1503.188, 59590.00
1504.224, 59500.00
1505.260, 59294.00
1506.296, 59624.00
1507.331, 59333.00
1508.367, 59311.00
1509.402, 59505.00
1510.437, 59665.00
1511.472, 59686.00
1512.507, 60079.00
1513.541, 59627.00
1514.576, 59421.00
1515.610, 60120.00
1516.644, 59964.00
1517.678, 59712.00
1518.712, 59848.00
1519.746, 60040.00
1520.779, 59961.00
1521.813, 60213.00
1522.846, 60332.00
1523.879, 60212.00
1524.912, 60189.00
1525.944, 60279.00
1526.977, 60224.27
1528.009, 60166.00
1529.041, 60221.00
1530.073, 60181.00
1531.105, 60101.57
1532.137, 60127.00
1533.168, 60227.00
1534.200, 60292.00
1535.231, 60325.29
1536.262, 60524.00
1537.293, 60356.00
1538.324, 60612.00
1539.354, 60554.00
1540.385, 60358.00
1541.415, 60726.00
1542.445, 60521.00
1543.475, 60760.00
1544.505, 60654.00
1545.534, 60809.00
1546.564, 60712.00
1547.593, 60837.00
1548.622, 60892.00
1549.651, 60942.00
1550.680, 60983.00
1551.708, 61128.00
1552.737, 61113.00
1553.765, 61587.00
1554.793, 61309.00
1555.821, 61273.00
1556.849, 60988.00
1557.877, 61630.00
1558.904, 61005.00
1559.932, 61611.00
1560.959, 61687.00
1561.986, 61267.00
1563.013, 62022.00
##END=



