##NAMES=Microcline
##RRUFFID=R050193
##IDEAL CHEMISTRY=KAlSi_3_O_8_
##LOCALITY=Devil's Head, Douglas County, Colorado, USA
##OWNER=RRUFF
##SOURCE=Dave Bunk Minerals
##DESCRIPTION=White to colorless heterogeneous mixture of K and Na feldspar in a cluster of crystals. Crystal structure determined, presented below. This sample is known as an intermediate microcline in the literature.
##STATUS=The identification of this mineral has been confirmed by X-ray diffraction and chemical analysis
##URL=rruff.info/R050193
##MEASURED CHEMISTRY=(K_0.929_Na_0.071_)(Al_1.005_Si_2.994_Fe_0.001_)O_7.993_F_0.007_  ; Light Band :  (Na_0.973_K_0.007_Ca_0.020_)(Al_1.020_Si_2.980_)O_8_ ; Dark Band
##PIN_ID=L00422
##ORIENTATION=Laser parallel to b* (0 1 0). Fiducial mark perpendicular to laser is parallel to c [0 0 1]
127.7630, 15822.00
128.9970, 15959.00
130.2300, 16155.00
131.4640, 16286.00
132.6970, 16585.76
133.9300, 16793.00
135.1630, 17206.00
136.3950, 17562.00
137.6280, 17883.00
138.8600, 18733.00
140.0920, 19015.00
141.3240, 19635.00
142.5560, 20107.00
143.7880, 20721.00
145.0190, 21282.00
146.2510, 21723.00
147.4820, 22346.00
148.7130, 23022.00
149.9440, 23557.00
151.1750, 24058.00
152.4050, 24295.00
153.6360, 24341.00
154.8660, 24399.00
156.0960, 24269.00
157.3260, 23924.00
158.5560, 23582.00
159.7850, 23158.00
161.0150, 22751.00
162.2440, 22291.00
163.4730, 21708.00
164.7020, 21310.00
165.9310, 20770.00
167.1590, 20479.88
168.3880, 20427.00
169.6160, 20001.75
170.8440, 19856.65
172.0720, 19749.00
173.3000, 19588.00
174.5280, 19556.00
175.7550, 19614.00
176.9820, 19692.00
178.2100, 19707.00
179.4370, 19692.00
180.6630, 19582.00
181.8900, 19555.00
183.1170, 19419.00
184.3430, 19428.70
185.5690, 19451.00
186.7950, 19475.00
188.0210, 19405.00
189.2470, 19514.00
190.4720, 19104.00
191.6970, 19378.00
192.9230, 19233.00
194.1480, 19266.00
195.3730, 19396.00
196.5970, 19402.00
197.8220, 19507.00
199.0460, 19393.00
200.2700, 19510.00
201.4940, 19385.00
202.7180, 19446.00
203.9420, 19466.00
205.1660, 19585.00
206.3890, 19370.00
207.6120, 19453.00
208.8350, 19257.00
210.0580, 19240.00
211.2810, 19200.00
212.5040, 19130.00
213.7260, 19173.00
214.9480, 19125.00
216.1700, 19069.00
217.3920, 19076.79
218.6140, 19008.00
219.8360, 19023.00
221.0570, 19042.00
222.2790, 18982.00
223.5000, 19014.78
224.7210, 19004.00
225.9410, 19026.00
227.1620, 19042.00
228.3820, 19044.00
229.6030, 19183.00
230.8230, 19270.00
232.0430, 19320.00
233.2630, 19121.00
234.4820, 19115.00
235.7020, 19302.00
236.9210, 19419.00
238.1400, 19595.00
239.3590, 19460.00
240.5780, 19589.00
241.7970, 19651.00
243.0150, 19792.00
244.2340, 19990.00
245.4520, 20067.09
246.6700, 20199.00
247.8880, 20315.00
249.1060, 20524.00
250.3230, 20688.00
251.5400, 20865.42
252.7580, 21275.00
253.9750, 21281.00
255.1920, 21451.00
256.4080, 21743.00
257.6250, 22150.00
258.8410, 22422.00
260.0580, 22698.00
261.2740, 22511.00
262.4900, 22527.00
263.7050, 22719.00
264.9210, 22774.00
266.1360, 22982.00
267.3520, 23053.00
268.5670, 23243.00
269.7820, 23369.00
270.9960, 23285.00
272.2110, 23478.00
273.4250, 23820.00
274.6400, 24228.00
275.8540, 24606.00
277.0680, 24886.48
278.2810, 25056.00
279.4950, 25372.00
280.7090, 25719.00
281.9220, 25828.66
283.1350, 26151.00
284.3480, 25929.00
285.5610, 26043.00
286.7730, 26057.00
287.9860, 25466.00
289.1980, 25213.00
290.4100, 25074.00
291.6220, 24595.00
292.8340, 24024.00
294.0460, 23789.00
295.2570, 23337.00
296.4690, 22807.00
297.6800, 22508.00
298.8910, 22140.00
300.1020, 22025.00
301.3120, 21836.00
302.5230, 22007.00
303.7330, 21554.00
304.9440, 21460.00
306.1540, 21512.00
307.3630, 21286.00
308.5730, 21384.00
309.7830, 21474.00
310.9920, 21337.00
312.2010, 21611.00
313.4100, 21510.00
314.6190, 21318.00
315.8280, 21455.00
317.0370, 21366.00
318.2450, 21513.00
319.4530, 21524.00
320.6610, 21757.00
321.8690, 21711.00
323.0770, 21897.00
324.2850, 22010.00
325.4920, 22082.00
326.6990, 22155.00
327.9060, 22139.00
329.1130, 22102.00
330.3200, 22135.00
331.5270, 22119.00
332.7330, 22022.00
333.9390, 22090.00
335.1450, 21969.00
336.3510, 21971.00
337.5570, 21948.00
338.7630, 21620.00
339.9680, 21829.00
341.1740, 21809.00
342.3790, 21746.00
343.5840, 21896.00
344.7890, 21981.00
345.9930, 22017.00
347.1980, 21870.00
348.4020, 22068.00
349.6060, 22092.00
350.8100, 21965.00
352.0140, 22041.00
353.2180, 22165.00
354.4210, 22256.00
355.6250, 22244.00
356.8280, 22353.00
358.0310, 22337.00
359.2340, 22221.00
360.4360, 22610.00
361.6390, 22478.00
362.8410, 22523.00
364.0430, 22693.00
365.2450, 22460.00
366.4470, 22524.00
367.6490, 22805.00
368.8510, 22586.00
370.0520, 22705.00
371.2530, 22742.00
372.4540, 22636.00
373.6550, 22751.00
374.8560, 22667.00
376.0560, 22633.00
377.2570, 22612.00
378.4570, 22497.00
379.6570, 22725.00
380.8570, 22422.00
382.0570, 22552.00
383.2560, 22773.00
384.4560, 22715.00
385.6550, 22712.00
386.8540, 22767.00
388.0530, 22662.00
389.2520, 22663.00
390.4510, 22708.00
391.6490, 23077.00
392.8470, 22961.00
394.0450, 23132.00
395.2430, 23434.00
396.4410, 23494.00
397.6390, 23905.00
398.8360, 23766.00
400.0340, 23788.00
401.2310, 24002.00
402.4280, 23903.00
403.6250, 24286.00
404.8210, 24380.00
406.0180, 24537.00
407.2140, 24320.00
408.4100, 24375.00
409.6060, 24061.00
410.8020, 24086.00
411.9980, 23943.00
413.1930, 23970.00
414.3890, 23951.00
415.5840, 23796.00
416.7790, 23681.00
417.9740, 23640.57
419.1680, 23627.00
420.3630, 23535.00
421.5570, 23610.00
422.7510, 23584.00
423.9450, 23447.00
425.1390, 23362.00
426.3330, 23723.00
427.5270, 23564.00
428.7200, 23496.00
429.9130, 23694.00
431.1060, 23564.00
432.2990, 23977.00
433.4920, 23698.00
434.6840, 23801.00
435.8770, 24075.00
437.0690, 24099.00
438.2610, 24054.00
439.4530, 24282.00
440.6450, 24467.00
441.8360, 24601.00
443.0280, 24508.00
444.2190, 25020.00
445.4100, 24928.00
446.6010, 25164.00
447.7920, 25372.00
448.9820, 25765.00
450.1730, 25879.00
451.3630, 25993.00
452.5530, 26120.00
453.7430, 26168.00
454.9330, 26116.00
456.1230, 26347.00
457.3120, 26302.00
458.5010, 26330.00
459.6910, 26686.00
460.8800, 26414.00
462.0680, 26971.00
463.2570, 27265.00
464.4460, 27696.00
465.6340, 28290.00
466.8220, 29117.00
468.0100, 29781.00
469.1980, 30779.00
470.3860, 31871.00
471.5730, 32570.00
472.7600, 33728.00
473.9480, 34445.00
475.1350, 34770.00
476.3210, 35008.00
477.5080, 34532.00
478.6950, 33941.00
479.8810, 33247.00
481.0670, 32199.00
482.2530, 31052.00
483.4390, 30283.00
484.6250, 29479.00
485.8100, 28791.00
486.9960, 28389.00
488.1810, 27991.00
489.3660, 27698.00
490.5510, 27727.00
491.7360, 27587.00
492.9200, 27331.00
494.1050, 27430.00
495.2890, 27892.00
496.4730, 28606.00
497.6570, 28980.00
498.8400, 29832.00
500.0240, 30518.00
501.2070, 31797.00
502.3910, 33260.00
503.5740, 34908.00
504.7570, 36287.00
505.9400, 37759.00
507.1220, 39477.00
508.3050, 40241.00
509.4870, 41426.00
510.6690, 41800.00
511.8510, 42257.00
513.0330, 41425.00
514.2140, 40312.00
515.3960, 39215.00
516.5770, 37324.00
517.7580, 35163.00
518.9390, 33512.00
520.1200, 31917.00
521.3010, 30801.00
522.4810, 29937.00
523.6610, 29074.00
524.8420, 28658.00
526.0220, 28213.00
527.2010, 27934.00
528.3810, 27629.00
529.5610, 27508.64
530.7400, 27410.00
531.9190, 27364.00
533.0980, 27219.00
534.2770, 27063.00
535.4560, 27163.00
536.6340, 27019.00
537.8120, 26924.00
538.9910, 26952.00
540.1690, 26910.00
541.3460, 26971.00
542.5240, 27116.00
543.7020, 26814.00
544.8790, 26992.00
546.0560, 26842.00
547.2330, 26951.00
548.4100, 27056.00
549.5870, 26938.00
550.7630, 26863.00
551.9400, 26967.00
553.1160, 26943.00
554.2920, 26944.38
555.4680, 26934.00
556.6440, 26990.00
557.8190, 26878.00
558.9950, 26986.00
560.1700, 27062.00
561.3450, 27033.00
562.5200, 27198.00
563.6950, 27174.00
564.8690, 27140.00
566.0440, 27259.00
567.2180, 27242.00
568.3920, 27404.00
569.5660, 27360.00
570.7400, 27408.00
571.9130, 27182.00
573.0870, 27386.00
574.2600, 27362.00
575.4330, 27467.00
576.6060, 27451.00
577.7790, 27494.00
578.9520, 27554.00
580.1240, 27493.00
581.2960, 27690.00
582.4690, 27642.00
583.6410, 27827.00
584.8120, 27486.00
585.9840, 27649.00
587.1560, 27606.00
588.3270, 27443.00
589.4980, 27659.00
590.6690, 27824.00
591.8400, 27679.00
593.0110, 27655.00
594.1810, 27656.00
595.3510, 27800.00
596.5220, 27861.00
597.6920, 27652.00
598.8610, 27795.00
600.0310, 27770.00
601.2010, 27893.00
602.3700, 27989.00
603.5390, 27916.00
604.7080, 28089.00
605.8770, 28229.00
607.0460, 28187.00
608.2140, 28118.00
609.3830, 28197.00
610.5510, 28141.00
611.7190, 28270.00
612.8870, 28296.00
614.0550, 28223.00
615.2220, 28336.00
616.3900, 28374.00
617.5570, 28426.00
618.7240, 28560.00
619.8910, 28592.00
621.0580, 28642.00
622.2240, 28665.00
623.3910, 28620.00
624.5570, 28740.72
625.7230, 28740.00
626.8890, 28900.00
628.0550, 28975.00
629.2200, 28970.00
630.3860, 29064.00
631.5510, 29047.00
632.7160, 29068.69
633.8810, 29077.00
635.0460, 29060.00
636.2100, 29090.00
637.3750, 29050.00
638.5390, 28984.00
639.7030, 29235.00
640.8670, 29221.00
642.0310, 29446.00
643.1950, 29399.00
644.3580, 29320.00
645.5210, 29252.00
646.6850, 29405.00
647.8480, 29545.00
649.0100, 29365.00
650.1730, 29358.00
651.3350, 29633.00
652.4980, 29635.00
653.6600, 29706.00
654.8220, 29724.00
655.9840, 29619.00
657.1450, 29790.00
658.3070, 29601.00
659.4680, 29367.00
660.6300, 29520.00
661.7910, 29845.00
662.9510, 29681.00
664.1120, 29788.00
665.2730, 29616.00
666.4330, 29789.00
667.5930, 29548.00
668.7530, 29636.00
669.9130, 29667.00
671.0730, 29778.00
672.2320, 29758.00
673.3920, 29666.00
674.5510, 29700.00
675.7100, 29711.00
676.8690, 29877.00
678.0280, 29820.00
679.1860, 29877.00
680.3450, 29870.00
681.5030, 29981.00
682.6610, 29732.00
683.8190, 29910.00
684.9770, 29725.00
686.1340, 29991.00
687.2920, 30006.00
688.4490, 30060.00
689.6060, 30079.00
690.7630, 30289.00
691.9200, 30162.00
693.0760, 30277.00
694.2330, 30237.00
695.3890, 30212.00
696.5450, 30528.00
697.7010, 30096.00
698.8570, 30431.00
700.0130, 30299.00
701.1680, 30226.00
702.3230, 30428.00
703.4780, 30424.00
704.6330, 30529.00
705.7880, 30606.00
706.9430, 30540.00
708.0970, 30789.00
709.2520, 30733.00
710.4060, 30728.00
711.5600, 30839.00
712.7140, 30730.00
713.8670, 30778.00
715.0210, 31006.00
716.1740, 30932.00
717.3270, 30771.00
718.4800, 30929.00
719.6330, 31058.00
720.7860, 30917.00
721.9380, 31174.00
723.0910, 31223.00
724.2430, 31006.00
725.3950, 31272.00
726.5470, 31141.00
727.6980, 31212.00
728.8500, 31538.00
730.0010, 31515.00
731.1530, 31523.00
732.3040, 31395.00
733.4550, 31510.55
734.6050, 31688.00
735.7560, 31725.00
736.9060, 31714.00
738.0560, 31890.00
739.2060, 32005.00
740.3560, 31980.00
741.5060, 32206.00
742.6560, 32144.00
743.8050, 32342.00
744.9540, 32350.00
746.1030, 32421.00
747.2520, 32550.00
748.4010, 32708.00
749.5500, 32503.00
750.6980, 32706.00
751.8460, 32622.00
752.9950, 32609.00
754.1420, 32463.00
755.2900, 32604.00
756.4380, 32740.00
757.5850, 32507.00
758.7330, 32830.00
759.8800, 32773.00
761.0270, 32751.00
762.1730, 32901.00
763.3200, 32813.00
764.4670, 33001.00
765.6130, 33011.00
766.7590, 33001.00
767.9050, 32994.71
769.0510, 32868.00
770.1960, 32811.00
771.3420, 32840.00
772.4870, 32685.00
773.6320, 32721.69
774.7770, 32869.00
775.9220, 32729.00
777.0670, 32801.00
778.2110, 32834.00
779.3560, 32863.00
780.5000, 32811.00
781.6440, 32751.00
782.7880, 33016.00
783.9320, 32713.00
785.0750, 32840.00
786.2180, 32976.00
787.3620, 32919.00
788.5050, 32946.00
789.6480, 32941.00
790.7900, 33050.00
791.9330, 33029.00
793.0750, 33082.00
794.2170, 33228.00
795.3590, 33033.00
796.5010, 33120.00
797.6430, 33569.00
798.7850, 33389.00
799.9260, 33538.00
801.0670, 33583.00
802.2080, 33455.00
803.3490, 33599.00
804.4900, 33692.00
805.6310, 33810.00
806.7710, 33912.00
807.9110, 34006.57
809.0510, 34232.00
810.1910, 34152.00
811.3310, 34206.00
812.4710, 34184.00
813.6100, 34093.00
814.7490, 34129.37
815.8880, 34171.00
817.0270, 34090.00
818.1660, 34078.00
819.3050, 34004.00
820.4430, 34219.00
821.5820, 33900.00
822.7200, 34010.00
823.8580, 33957.00
824.9950, 34190.00
826.1330, 33958.00
827.2710, 33883.00
828.4080, 33961.00
829.5450, 34315.00
830.6820, 34158.00
831.8190, 34315.00
832.9560, 34045.00
834.0920, 34278.00
835.2280, 34107.00
836.3650, 34235.00
837.5010, 34252.00
838.6360, 34345.00
839.7720, 34369.00
840.9080, 34306.00
842.0430, 34378.00
843.1780, 34577.00
844.3130, 34376.00
845.4480, 34521.00
846.5830, 34750.00
847.7170, 34411.00
848.8520, 34547.00
849.9860, 34602.00
851.1200, 34482.00
852.2540, 34887.00
853.3870, 34733.00
854.5210, 34753.00
855.6540, 34956.00
856.7880, 34809.00
857.9210, 34658.00
859.0540, 34893.00
860.1860, 35132.00
861.3190, 35238.00
862.4510, 35076.00
863.5840, 34779.00
864.7160, 35100.00
865.8480, 35320.00
866.9790, 35110.00
868.1110, 35518.00
869.2420, 35332.00
870.3740, 35292.00
871.5050, 35431.00
872.6360, 35557.00
873.7660, 35343.00
874.8970, 35296.00
876.0280, 35362.00
877.1580, 35356.00
878.2880, 35374.00
879.4180, 35413.00
880.5480, 35488.00
881.6770, 35580.00
882.8070, 35704.00
883.9360, 35853.00
885.0650, 35620.00
886.1940, 35408.00
887.3230, 35879.00
888.4520, 35774.00
889.5800, 35878.00
890.7090, 36124.00
891.8370, 35967.00
892.9650, 35985.00
894.0930, 35762.00
895.2200, 36026.00
896.3480, 35885.00
897.4750, 35949.00
898.6020, 36179.00
899.7290, 36162.00
900.8560, 36232.00
901.9830, 36118.00
903.1090, 36354.00
904.2360, 36337.00
905.3620, 36119.00
906.4880, 36169.00
907.6140, 36380.00
908.7400, 36426.00
909.8650, 36499.00
910.9900, 36569.30
912.1160, 36548.00
913.2410, 36515.00
914.3660, 36733.00
915.4900, 36484.00
916.6150, 36556.00
917.7390, 36771.00
918.8640, 36876.00
919.9880, 36514.00
921.1120, 36901.00
922.2350, 36735.00
923.3590, 36888.00
924.4820, 37078.00
925.6060, 36601.00
926.7290, 37126.00
927.8520, 36973.00
928.9740, 37098.00
930.0970, 37450.00
931.2190, 37125.00
932.3420, 37432.00
933.4640, 37506.00
934.5860, 37180.00
935.7080, 37254.00
936.8290, 37487.00
937.9510, 37457.00
939.0720, 37328.00
940.1930, 37581.00
941.3140, 37719.00
942.4350, 37510.00
943.5560, 37604.00
944.6760, 37842.00
945.7960, 37774.00
946.9170, 37616.00
948.0370, 37995.00
949.1560, 37886.00
950.2760, 38015.00
951.3960, 37769.00
952.5150, 37903.00
953.6340, 38056.00
954.7530, 37948.00
955.8720, 37859.00
956.9910, 38049.00
958.1090, 38026.00
959.2280, 38181.00
960.3460, 38255.00
961.4640, 38310.42
962.5820, 38270.00
963.6990, 38350.00
964.8170, 38361.67
965.9340, 38316.00
967.0510, 38394.00
968.1690, 38376.00
969.2850, 38325.00
970.4020, 38531.00
971.5190, 38741.00
972.6350, 38648.00
973.7510, 38750.00
974.8670, 38951.00
975.9830, 39028.00
977.0990, 38963.00
978.2150, 39141.00
979.3300, 39162.00
980.4450, 39155.00
981.5600, 39015.00
982.6750, 38993.00
983.7900, 39131.00
984.9050, 39255.00
986.0190, 39442.00
987.1340, 39407.00
988.2480, 39404.00
989.3620, 39440.00
990.4750, 39373.00
991.5890, 39370.00
992.7020, 39624.00
993.8160, 39512.00
994.9290, 39436.00
996.0420, 39755.00
997.1550, 39759.00
998.2670, 40035.00
999.3800, 40106.00
1000.492, 40027.00
1001.604, 40244.00
1002.716, 40236.00
1003.828, 40069.00
1004.940, 40192.00
1006.051, 40336.00
1007.163, 40217.00
1008.274, 40299.00
1009.385, 40141.00
1010.496, 40233.00
1011.606, 40418.00
1012.717, 40306.00
1013.827, 40066.00
1014.937, 40310.00
1016.047, 40491.00
1017.157, 40191.00
1018.267, 40248.00
1019.377, 40260.00
1020.486, 40713.00
1021.595, 40336.00
1022.704, 40746.00
1023.813, 40706.00
1024.922, 40719.00
1026.030, 41068.00
1027.139, 40689.00
1028.247, 40960.00
1029.355, 41168.00
1030.463, 40988.00
1031.571, 41302.00
1032.678, 41285.00
1033.786, 41056.00
1034.893, 41463.00
1036.000, 41219.00
1037.107, 40957.00
1038.214, 41172.00
1039.321, 41421.00
1040.427, 41244.00
1041.533, 41267.00
1042.639, 41510.00
1043.745, 41188.00
1044.851, 41462.00
1045.957, 41360.00
1047.062, 41631.00
1048.168, 41469.00
1049.273, 41751.00
1050.378, 41758.00
1051.482, 41705.00
1052.587, 41765.00
1053.692, 41752.00
1054.796, 41768.98
1055.900, 41759.97
1057.004, 41828.00
1058.108, 41770.00
1059.212, 41824.00
1060.315, 41950.00
1061.418, 41765.00
1062.522, 41848.00
1063.625, 41739.00
1064.728, 41938.00
1065.830, 42095.00
1066.933, 41723.00
1068.035, 41880.00
1069.137, 41965.00
1070.239, 42014.00
1071.341, 42048.00
1072.443, 42170.00
1073.545, 42168.00
1074.646, 42220.00
1075.747, 42438.00
1076.848, 42413.00
1077.949, 42703.00
1079.050, 42437.00
1080.150, 42593.00
1081.251, 42666.00
1082.351, 42716.00
1083.451, 42838.00
1084.551, 42914.00
1085.651, 42651.00
1086.750, 43002.00
1087.850, 42817.00
1088.949, 43446.00
1090.048, 42977.00
1091.147, 43294.00
1092.246, 43618.00
1093.345, 43843.00
1094.443, 44166.00
1095.541, 44313.59
1096.639, 44079.00
1097.737, 44501.00
1098.835, 44478.00
1099.933, 44355.00
1101.030, 44654.00
1102.128, 44476.00
1103.225, 44549.00
1104.322, 44492.00
1105.419, 44409.00
1106.515, 44452.00
1107.612, 44573.00
1108.708, 44297.00
1109.804, 44592.00
1110.900, 44871.00
1111.996, 44769.00
1113.092, 45227.00
1114.187, 45185.00
1115.283, 45357.00
1116.378, 45729.00
1117.473, 45800.00
1118.568, 45928.00
1119.662, 46091.00
1120.757, 46309.00
1121.851, 46004.00
1122.946, 45987.00
1124.040, 46249.00
1125.134, 46197.00
1126.227, 46250.00
1127.321, 46238.00
1128.414, 45825.00
1129.508, 45927.00
1130.601, 45883.00
1131.693, 45836.00
1132.786, 45998.00
1133.879, 45876.00
1134.971, 45843.00
1136.064, 46015.00
1137.156, 45873.00
1138.248, 46076.00
1139.339, 45972.00
1140.431, 45898.00
1141.522, 45617.00
1142.614, 45675.00
1143.705, 45552.00
1144.796, 45692.00
1145.887, 45247.00
1146.977, 45575.00
1148.068, 45538.00
1149.158, 45765.00
1150.248, 45514.00
1151.338, 45453.00
1152.428, 45035.00
1153.518, 45398.00
1154.607, 45069.00
1155.696, 45444.00
1156.785, 45202.00
1157.874, 45192.00
1158.963, 45417.00
1160.052, 45450.00
1161.141, 45284.00
1162.229, 45309.00
1163.317, 45459.00
1164.405, 45226.00
1165.493, 45403.00
1166.581, 45563.00
1167.668, 45558.00
1168.756, 45787.00
1169.843, 45524.00
1170.930, 45457.00
1172.017, 45801.00
1173.103, 45453.00
1174.190, 45836.00
1175.276, 45477.00
1176.363, 45723.00
1177.449, 45882.00
1178.535, 45862.00
1179.620, 45929.00
1180.706, 45972.86
1181.791, 45962.11
1182.877, 46016.00
1183.962, 45992.00
1185.047, 45997.00
1186.131, 46077.00
1187.216, 46159.00
1188.300, 46367.00
1189.385, 46180.00
1190.469, 46091.00
1191.553, 46145.00
1192.637, 46458.00
1193.720, 46123.00
1194.804, 46240.00
1195.887, 46606.00
1196.970, 46176.00
1198.053, 46099.00
1199.136, 46270.00
1200.219, 46385.00
1201.301, 46819.00
1202.383, 46678.00
1203.465, 46523.00
1204.547, 46854.00
1205.629, 46749.00
1206.711, 46792.00
1207.792, 46616.00
1208.874, 46579.00
1209.955, 46661.00
1211.036, 47081.00
1212.117, 46901.00
1213.198, 47014.00
1214.278, 46750.00
1215.359, 47057.00
1216.439, 47047.00
1217.519, 47076.00
1218.599, 47084.00
1219.678, 47129.67
1220.758, 47159.82
1221.837, 47234.00
1222.917, 47258.00
1223.996, 47304.00
1225.075, 47393.00
1226.153, 47219.00
1227.232, 47501.00
1228.310, 47437.00
1229.389, 47705.00
1230.467, 47686.00
1231.545, 47640.00
1232.622, 47566.00
1233.700, 47682.00
1234.777, 47551.00
1235.855, 47773.00
1236.932, 47668.00
1238.009, 47781.00
1239.086, 47981.00
1240.162, 48123.00
1241.239, 48049.00
1242.315, 48209.00
1243.391, 47925.00
1244.467, 48088.00
1245.543, 47943.00
1246.619, 48299.00
1247.694, 47858.00
1248.769, 48003.00
1249.844, 47963.00
1250.919, 48132.00
1251.994, 48171.00
1253.069, 47862.00
1254.144, 48491.00
1255.218, 48181.00
1256.292, 48387.00
1257.366, 48603.00
1258.440, 48637.00
1259.514, 48482.00
1260.587, 48632.00
1261.661, 48272.00
1262.734, 48646.00
1263.807, 48669.00
1264.880, 48642.00
1265.952, 48976.00
1267.025, 48595.00
1268.097, 48737.00
1269.170, 48846.00
1270.242, 48953.00
1271.314, 48928.00
1272.385, 49153.00
1273.457, 48989.00
1274.528, 49068.00
1275.600, 49260.00
1276.671, 49158.00
1277.742, 49219.00
1278.812, 49290.00
1279.883, 49313.83
1280.954, 49384.85
1282.024, 49450.00
1283.094, 49502.00
1284.164, 49529.00
1285.234, 49592.00
1286.303, 49677.00
1287.373, 49694.00
1288.442, 49730.00
1289.511, 49848.00
1290.580, 49604.00
1291.649, 49765.00
1292.718, 49856.00
1293.786, 49725.00
1294.855, 49894.00
1295.923, 49761.00
1296.991, 49903.00
1298.059, 50137.00
1299.126, 49988.00
1300.194, 50052.00
1301.261, 50248.00
1302.328, 50257.00
1303.395, 50006.00
1304.462, 50340.00
1305.529, 50361.00
1306.596, 50669.00
1307.662, 50414.00
1308.728, 50498.00
1309.794, 50670.00
1310.860, 50757.00
1311.926, 50882.00
1312.991, 50749.00
1314.057, 50649.00
1315.122, 50812.00
1316.187, 50925.00
1317.252, 50921.00
1318.317, 50881.00
1319.381, 50851.00
1320.446, 51064.00
1321.510, 51310.00
1322.574, 51088.00
1323.638, 50957.00
1324.702, 51189.00
1325.766, 51559.00
1326.829, 51248.00
1327.892, 51384.00
1328.956, 51166.00
1330.019, 51524.00
1331.081, 51400.00
1332.144, 51314.00
1333.206, 51280.00
1334.269, 51545.00
1335.331, 51456.00
1336.393, 51855.00
1337.455, 51610.00
1338.516, 51952.00
1339.578, 51874.00
1340.639, 52127.00
1341.701, 51723.00
1342.762, 51655.00
1343.822, 52050.00
1344.883, 51691.00
1345.944, 51739.00
1347.004, 52062.00
1348.064, 51804.00
1349.124, 51971.00
1350.184, 52001.00
1351.244, 52015.00
1352.304, 52103.00
1353.363, 52337.00
1354.422, 52277.00
1355.481, 52086.00
1356.540, 52344.00
1357.599, 52099.00
1358.657, 52208.00
1359.716, 52172.00
1360.774, 52079.00
1361.832, 52342.00
1362.890, 52426.00
1363.948, 52683.00
1365.006, 52592.00
1366.063, 52533.00
1367.120, 52972.00
1368.178, 52766.00
1369.234, 52606.00
1370.291, 52964.00
1371.348, 52742.00
1372.404, 52704.00
1373.461, 52962.00
1374.517, 53130.00
1375.573, 53099.00
1376.629, 53093.00
1377.684, 53037.00
1378.740, 53275.00
1379.795, 53278.00
1380.850, 53350.00
1381.905, 53222.00
1382.960, 53290.00
1384.015, 53379.00
1385.070, 53362.00
1386.124, 53141.00
1387.178, 53135.00
1388.232, 53137.29
1389.286, 53211.82
1390.340, 53287.00
1391.393, 53472.00
1392.447, 53699.00
1393.500, 53709.00
1394.553, 53490.00
1395.606, 53729.00
1396.659, 53873.00
1397.711, 53618.00
1398.764, 53999.00
1399.816, 53992.00
1400.868, 53705.00
1401.920, 53839.00
1402.972, 54219.00
1404.023, 54276.00
1405.075, 54122.00
1406.126, 53917.00
1407.177, 54393.00
1408.228, 54083.00
1409.279, 54261.00
1410.330, 54154.00
1411.380, 54339.00
1412.431, 54632.00
1413.481, 54261.00
1414.531, 54429.00
1415.580, 54339.00
1416.630, 54571.00
1417.680, 54823.00
1418.729, 54436.00
1419.778, 54623.00
1420.827, 54155.00
1421.876, 54966.00
1422.925, 54968.00
1423.973, 54681.00
1425.022, 54589.00
1426.070, 54762.00
1427.118, 54860.00
1428.166, 54805.00
1429.214, 54922.00
1430.261, 55003.00
1431.309, 55077.00
1432.356, 55074.00
1433.403, 55115.00
1434.450, 55062.00
1435.497, 55558.00
1436.543, 55127.00
1437.590, 55685.00
1438.636, 55557.00
1439.682, 55206.00
1440.728, 55860.00
1441.774, 55660.00
1442.819, 55328.00
1443.865, 55842.00
1444.910, 55448.00
1445.955, 55817.00
1447.000, 55864.00
1448.045, 55601.00
1449.090, 55867.00
1450.134, 55850.00
1451.178, 55699.00
1452.223, 55898.00
1453.267, 56156.00
1454.310, 55945.00
1455.354, 56105.00
1456.398, 55852.00
1457.441, 56077.00
1458.484, 56255.00
1459.527, 56430.00
1460.570, 56290.00
1461.613, 56176.00
1462.655, 56221.00
1463.698, 56298.00
1464.740, 56295.00
1465.782, 56461.00
1466.824, 56254.00
1467.866, 56635.00
1468.907, 56763.00
1469.948, 56797.00
1470.990, 56480.00
1472.031, 56615.00
1473.072, 56466.00
1474.112, 56504.00
1475.153, 56831.00
1476.194, 56913.00
1477.234, 56925.00
1478.274, 57222.00
1479.314, 57053.00
1480.354, 57289.00
1481.393, 56723.00
1482.433, 57134.00
1483.472, 57092.00
1484.511, 57082.00
1485.550, 57270.00
1486.589, 56976.00
1487.628, 57321.00
1488.666, 57257.00
1489.704, 57113.00
1490.743, 57584.00
1491.781, 57528.00
1492.819, 57277.00
1493.856, 57338.00
1494.894, 57557.00
1495.931, 57727.00
1496.968, 57514.00
1498.005, 57686.00
1499.042, 57789.00
1500.079, 57359.00
1501.115, 57731.00
1502.152, 57658.00
1503.188, 57810.00
1504.224, 57856.00
1505.260, 57876.00
1506.296, 58177.00
1507.331, 57899.00
1508.367, 58028.00
1509.402, 57849.00
1510.437, 58098.00
1511.472, 58154.00
1512.507, 58336.00
1513.541, 58264.00
1514.576, 58335.61
1515.610, 58432.00
1516.644, 58305.00
1517.678, 58372.00
1518.712, 58272.00
1519.746, 58353.66
1520.779, 58404.00
1521.813, 58584.00
1522.846, 58536.00
1523.879, 58763.00
1524.912, 58773.00
1525.944, 58624.00
1526.977, 58924.00
1528.009, 59008.00
1529.041, 58892.00
1530.073, 58953.00
1531.105, 58794.00
1532.137, 58950.00
1533.168, 58874.00
1534.200, 58982.00
1535.231, 58713.00
1536.262, 58805.00
1537.293, 58797.89
1538.324, 59065.00
1539.354, 58837.00
1540.385, 59028.00
1541.415, 58999.00
1542.445, 59142.00
1543.475, 59343.00
1544.505, 59501.00
1545.534, 59349.00
1546.564, 59472.00
1547.593, 59522.00
1548.622, 59288.00
1549.651, 59721.00
1550.680, 59362.00
1551.708, 59726.00
1552.737, 59933.00
1553.765, 59459.00
1554.793, 59903.00
1555.821, 59784.00
1556.849, 59601.00
1557.877, 59913.00
1558.904, 59784.00
1559.932, 60141.00
1560.959, 60028.00
1561.986, 59983.00
1563.013, 60393.00
##END=



