##NAMES=Microcline
##RRUFFID=R050193
##IDEAL CHEMISTRY=KAlSi_3_O_8_
##LOCALITY=Devil's Head, Douglas County, Colorado, USA
##OWNER=RRUFF
##SOURCE=Dave Bunk Minerals
##DESCRIPTION=White to colorless heterogeneous mixture of K and Na feldspar in a cluster of crystals. Crystal structure determined, presented below. This sample is known as an intermediate microcline in the literature.
##STATUS=The identification of this mineral has been confirmed by X-ray diffraction and chemical analysis
##URL=rruff.info/R050193
##MEASURED CHEMISTRY=(K_0.929_Na_0.071_)(Al_1.005_Si_2.994_Fe_0.001_)O_7.993_F_0.007_  ; Light Band :  (Na_0.973_K_0.007_Ca_0.020_)(Al_1.020_Si_2.980_)O_8_ ; Dark Band
##PIN_ID=L01707
##ORIENTATION=Laser parallel to (-1 0 -1). Fiducial mark perpendicular to laser is parallel to b [0 1 0]
143.7880, 11751.00
145.0190, 11955.00
146.2510, 11970.00
147.4820, 12240.00
148.7130, 12332.00
149.9440, 12507.00
151.1750, 12641.00
152.4050, 12801.00
153.6360, 12744.00
154.8660, 12987.00
156.0960, 12839.00
157.3260, 12957.00
158.5560, 12835.00
159.7850, 13078.00
161.0150, 13040.00
162.2440, 13045.00
163.4730, 13040.00
164.7020, 12939.00
165.9310, 12948.00
167.1590, 12587.00
168.3880, 12580.00
169.6160, 12656.00
170.8440, 12579.00
172.0720, 12820.00
173.3000, 12778.00
174.5280, 12808.00
175.7550, 12859.00
176.9820, 12669.00
178.2100, 12831.00
179.4370, 13069.00
180.6630, 12965.00
181.8900, 13061.00
183.1170, 12923.00
184.3430, 13203.00
185.5690, 13168.00
186.7950, 13247.00
188.0210, 13198.00
189.2470, 13199.00
190.4720, 12965.00
191.6970, 13039.00
192.9230, 13014.00
194.1480, 12956.00
195.3730, 12986.00
196.5970, 13008.00
197.8220, 13157.00
199.0460, 12915.00
200.2700, 12827.00
201.4940, 13047.00
202.7180, 13003.00
203.9420, 13064.00
205.1660, 13181.00
206.3890, 13272.00
207.6120, 13251.00
208.8350, 13322.00
210.0580, 13405.00
211.2810, 13335.00
212.5040, 13259.00
213.7260, 13055.00
214.9480, 12975.00
216.1700, 12915.00
217.3920, 12868.00
218.6140, 12888.00
219.8360, 12871.00
221.0570, 12852.00
222.2790, 12822.00
223.5000, 12939.00
224.7210, 12961.00
225.9410, 12885.00
227.1620, 13049.00
228.3820, 12945.00
229.6030, 13036.00
230.8230, 12984.00
232.0430, 12798.00
233.2630, 12992.00
234.4820, 13184.00
235.7020, 13045.00
236.9210, 13195.00
238.1400, 13056.00
239.3590, 13159.00
240.5780, 13290.00
241.7970, 13247.00
243.0150, 13376.00
244.2340, 13229.00
245.4520, 13423.00
246.6700, 13565.00
247.8880, 13240.00
249.1060, 13713.00
250.3230, 13516.00
251.5400, 13528.00
252.7580, 13743.00
253.9750, 13650.00
255.1920, 13786.00
256.4080, 13862.00
257.6250, 14013.00
258.8410, 14107.00
260.0580, 14139.00
261.2740, 14094.00
262.4900, 14124.00
263.7050, 14323.00
264.9210, 14213.00
266.1360, 14281.00
267.3520, 14210.00
268.5670, 14323.00
269.7820, 14444.00
270.9960, 14478.00
272.2110, 14372.00
273.4250, 14413.00
274.6400, 14371.00
275.8540, 14499.00
277.0680, 14513.00
278.2810, 14517.00
279.4950, 14627.00
280.7090, 14792.00
281.9220, 14967.00
283.1350, 15121.00
284.3480, 15203.54
285.5610, 15217.00
286.7730, 15309.00
287.9860, 15409.00
289.1980, 15406.00
290.4100, 15500.00
291.6220, 15596.00
292.8340, 15305.00
294.0460, 15107.00
295.2570, 15037.00
296.4690, 14793.00
297.6800, 14627.00
298.8910, 14531.00
300.1020, 14455.00
301.3120, 14464.00
302.5230, 14385.00
303.7330, 14413.00
304.9440, 14289.00
306.1540, 14397.00
307.3630, 14443.00
308.5730, 14372.00
309.7830, 14438.00
310.9920, 14445.00
312.2010, 14401.00
313.4100, 14384.00
314.6190, 14478.00
315.8280, 14528.00
317.0370, 14545.00
318.2450, 14562.00
319.4530, 14499.00
320.6610, 14591.00
321.8690, 14705.00
323.0770, 14541.00
324.2850, 14723.00
325.4920, 14847.00
326.6990, 14865.00
327.9060, 14967.00
329.1130, 14870.00
330.3200, 14882.00
331.5270, 14905.00
332.7330, 14932.00
333.9390, 14894.00
335.1450, 14765.00
336.3510, 14694.00
337.5570, 14768.00
338.7630, 14852.00
339.9680, 14726.00
341.1740, 14846.00
342.3790, 14791.00
343.5840, 14927.00
344.7890, 14969.00
345.9930, 14942.00
347.1980, 14890.00
348.4020, 15030.00
349.6060, 15058.00
350.8100, 15044.00
352.0140, 14991.00
353.2180, 15137.00
354.4210, 15011.00
355.6250, 14953.00
356.8280, 15218.00
358.0310, 15151.00
359.2340, 15181.00
360.4360, 15051.00
361.6390, 15164.00
362.8410, 15004.00
364.0430, 15078.00
365.2450, 15221.00
366.4470, 15252.00
367.6490, 15249.00
368.8510, 15184.00
370.0520, 15228.00
371.2530, 15327.00
372.4540, 15342.00
373.6550, 15426.00
374.8560, 15395.69
376.0560, 15418.00
377.2570, 15335.00
378.4570, 15420.00
379.6570, 15435.00
380.8570, 15488.00
382.0570, 15391.00
383.2560, 15447.00
384.4560, 15400.00
385.6550, 15497.00
386.8540, 15620.00
388.0530, 15629.00
389.2520, 15535.00
390.4510, 15512.00
391.6490, 15528.00
392.8470, 15718.00
394.0450, 15675.00
395.2430, 15806.00
396.4410, 15826.00
397.6390, 15847.00
398.8360, 15960.00
400.0340, 15964.00
401.2310, 15993.00
402.4280, 16126.00
403.6250, 16138.00
404.8210, 16042.00
406.0180, 16187.00
407.2140, 16286.00
408.4100, 16243.00
409.6060, 16134.00
410.8020, 16071.00
411.9980, 16187.00
413.1930, 16321.00
414.3890, 16260.00
415.5840, 16290.00
416.7790, 16174.00
417.9740, 16230.00
419.1680, 16150.00
420.3630, 16066.00
421.5570, 16020.00
422.7510, 15987.29
423.9450, 15980.33
425.1390, 16022.00
426.3330, 16027.00
427.5270, 16178.00
428.7200, 16246.00
429.9130, 16332.00
431.1060, 16323.00
432.2990, 16229.00
433.4920, 16169.00
434.6840, 16348.00
435.8770, 16304.00
437.0690, 16407.00
438.2610, 16519.00
439.4530, 16498.00
440.6450, 16493.00
441.8360, 16660.00
443.0280, 16547.00
444.2190, 16794.00
445.4100, 16795.00
446.6010, 16677.00
447.7920, 16893.00
448.9820, 16943.00
450.1730, 17195.00
451.3630, 17175.00
452.5530, 17371.00
453.7430, 17477.00
454.9330, 17471.00
456.1230, 17402.00
457.3120, 17517.00
458.5010, 17435.00
459.6910, 17496.00
460.8800, 17404.00
462.0680, 17216.00
463.2570, 17409.00
464.4460, 17289.00
465.6340, 17439.00
466.8220, 17595.00
468.0100, 17729.00
469.1980, 17909.00
470.3860, 18082.00
471.5730, 18246.02
472.7600, 18440.39
473.9480, 18636.00
475.1350, 18850.00
476.3210, 19135.00
477.5080, 19405.00
478.6950, 19688.00
479.8810, 19381.00
481.0670, 19264.00
482.2530, 18888.00
483.4390, 18456.00
484.6250, 18361.00
485.8100, 17989.00
486.9960, 17977.00
488.1810, 17876.00
489.3660, 17906.00
490.5510, 17869.00
491.7360, 17923.00
492.9200, 17837.00
494.1050, 17859.00
495.2890, 18113.00
496.4730, 18281.00
497.6570, 18250.00
498.8400, 18664.00
500.0240, 18920.00
501.2070, 19066.00
502.3910, 19498.00
503.5740, 19937.00
504.7570, 20342.00
505.9400, 21132.00
507.1220, 21352.00
508.3050, 21628.00
509.4870, 21778.00
510.6690, 21611.00
511.8510, 21505.00
513.0330, 21330.00
514.2140, 20748.00
515.3960, 20481.00
516.5770, 19878.00
517.7580, 19470.00
518.9390, 19233.00
520.1200, 18909.00
521.3010, 18670.00
522.4810, 18414.00
523.6610, 18483.00
524.8420, 18352.00
526.0220, 18293.00
527.2010, 18270.00
528.3810, 18339.00
529.5610, 18197.00
530.7400, 18343.00
531.9190, 18135.00
533.0980, 18247.00
534.2770, 18213.00
535.4560, 18104.00
536.6340, 18170.00
537.8120, 17986.00
538.9910, 18156.00
540.1690, 18157.00
541.3460, 18146.00
542.5240, 18215.00
543.7020, 18218.00
544.8790, 18128.00
546.0560, 18300.00
547.2330, 18186.00
548.4100, 17996.00
549.5870, 18289.00
550.7630, 18282.00
551.9400, 18513.00
553.1160, 18433.00
554.2920, 18511.50
555.4680, 18513.00
556.6440, 18508.00
557.8190, 18445.00
558.9950, 18328.00
560.1700, 18347.00
561.3450, 18363.86
562.5200, 18490.00
563.6950, 18532.00
564.8690, 18517.00
566.0440, 18671.00
567.2180, 18678.00
568.3920, 18665.00
569.5660, 18597.00
570.7400, 18667.00
571.9130, 18682.55
573.0870, 18559.00
574.2600, 18773.00
575.4330, 18811.00
576.6060, 18796.00
577.7790, 18764.00
578.9520, 18796.00
580.1240, 18776.74
581.2960, 18889.00
582.4690, 18810.00
583.6410, 18784.00
584.8120, 18868.00
585.9840, 18830.71
587.1560, 18999.00
588.3270, 18831.00
589.4980, 18891.00
590.6690, 18811.00
591.8400, 18867.00
593.0110, 18911.00
594.1810, 19003.00
595.3510, 19059.00
596.5220, 19042.00
597.6920, 18968.00
598.8610, 19187.00
600.0310, 19099.00
601.2010, 19150.00
602.3700, 19198.00
603.5390, 19067.00
604.7080, 19175.00
605.8770, 19219.00
607.0460, 19174.00
608.2140, 19258.16
609.3830, 19061.00
610.5510, 19289.00
611.7190, 19328.00
612.8870, 19260.00
614.0550, 19403.00
615.2220, 19366.00
616.3900, 19349.00
617.5570, 19303.00
618.7240, 19490.00
619.8910, 19384.00
621.0580, 19505.00
622.2240, 19557.00
623.3910, 19545.00
624.5570, 19684.00
625.7230, 19546.00
626.8890, 19511.00
628.0550, 19546.00
629.2200, 19684.00
630.3860, 19541.00
631.5510, 19707.00
632.7160, 19576.00
633.8810, 19762.00
635.0460, 19695.00
636.2100, 19739.00
637.3750, 19915.00
638.5390, 19824.00
639.7030, 19820.00
640.8670, 19586.00
642.0310, 19811.00
643.1950, 19692.00
644.3580, 19856.00
645.5210, 19996.00
646.6850, 20001.00
647.8480, 20033.00
649.0100, 20150.00
650.1730, 20084.48
651.3350, 19989.00
652.4980, 20042.00
653.6600, 20064.00
654.8220, 20117.00
655.9840, 20215.00
657.1450, 20106.00
658.3070, 20031.00
659.4680, 20268.00
660.6300, 20166.00
661.7910, 20218.00
662.9510, 20104.00
664.1120, 20107.00
665.2730, 20104.00
666.4330, 20281.00
667.5930, 20284.00
668.7530, 20385.00
669.9130, 20202.00
671.0730, 20235.00
672.2320, 20217.00
673.3920, 20235.00
674.5510, 20233.90
675.7100, 20247.40
676.8690, 20304.00
678.0280, 20308.00
679.1860, 20358.72
680.3450, 20445.00
681.5030, 20396.00
682.6610, 20483.00
683.8190, 20446.00
684.9770, 20525.00
686.1340, 20724.00
687.2920, 20614.00
688.4490, 20709.00
689.6060, 20494.00
690.7630, 20566.00
691.9200, 20614.00
693.0760, 20910.00
694.2330, 20556.00
695.3890, 20753.00
696.5450, 20757.00
697.7010, 20788.00
698.8570, 20742.00
700.0130, 20677.00
701.1680, 20806.00
702.3230, 20748.00
703.4780, 20770.00
704.6330, 20889.00
705.7880, 20889.00
706.9430, 20899.00
708.0970, 20964.00
709.2520, 21085.00
710.4060, 20919.00
711.5600, 21157.00
712.7140, 21131.00
713.8670, 21087.00
715.0210, 21319.00
716.1740, 21129.00
717.3270, 21108.00
718.4800, 21184.00
719.6330, 21236.00
720.7860, 21198.00
721.9380, 21221.00
723.0910, 21169.00
724.2430, 21247.00
725.3950, 21419.00
726.5470, 21447.00
727.6980, 21521.00
728.8500, 21372.00
730.0010, 21445.00
731.1530, 21272.00
732.3040, 21439.00
733.4550, 21487.00
734.6050, 21598.00
735.7560, 21424.00
736.9060, 21696.00
738.0560, 21452.00
739.2060, 21494.00
740.3560, 21604.00
741.5060, 21709.00
742.6560, 21754.00
743.8050, 21772.00
744.9540, 21814.00
746.1030, 21827.74
747.2520, 21839.00
748.4010, 21876.00
749.5500, 21920.00
750.6980, 21994.00
751.8460, 22136.00
752.9950, 22035.00
754.1420, 22101.00
755.2900, 22042.00
756.4380, 22182.00
757.5850, 22251.00
758.7330, 22408.00
759.8800, 22346.00
761.0270, 22393.00
762.1730, 22513.00
763.3200, 22459.00
764.4670, 22575.00
765.6130, 22560.00
766.7590, 22446.00
767.9050, 22346.00
769.0510, 22328.98
770.1960, 22310.00
771.3420, 22305.00
772.4870, 22378.00
773.6320, 22463.00
774.7770, 22399.00
775.9220, 22262.00
777.0670, 22522.00
778.2110, 22499.00
779.3560, 22466.00
780.5000, 22571.00
781.6440, 22500.00
782.7880, 22562.00
783.9320, 22515.00
785.0750, 22422.00
786.2180, 22537.00
787.3620, 22664.00
788.5050, 22762.00
789.6480, 22449.00
790.7900, 22538.00
791.9330, 22532.00
793.0750, 22514.00
794.2170, 22611.00
795.3590, 22492.00
796.5010, 22608.00
797.6430, 22802.00
798.7850, 22669.00
799.9260, 22843.00
801.0670, 22706.00
802.2080, 22678.00
803.3490, 23054.00
804.4900, 22917.00
805.6310, 22982.00
806.7710, 23094.00
807.9110, 23113.00
809.0510, 23173.00
810.1910, 23298.00
811.3310, 23296.00
812.4710, 23401.00
813.6100, 23430.00
814.7490, 23472.00
815.8880, 23615.00
817.0270, 23525.00
818.1660, 23339.00
819.3050, 23565.00
820.4430, 23330.00
821.5820, 23503.00
822.7200, 23231.00
823.8580, 23380.00
824.9950, 23324.00
826.1330, 23383.00
827.2710, 23404.00
828.4080, 23386.00
829.5450, 23405.78
830.6820, 23386.87
831.8190, 23361.00
832.9560, 23393.00
834.0920, 23310.00
835.2280, 23398.00
836.3650, 23571.00
837.5010, 23580.00
838.6360, 23578.00
839.7720, 23465.00
840.9080, 23578.00
842.0430, 23588.00
843.1780, 23562.00
844.3130, 23533.00
845.4480, 23738.00
846.5830, 23418.00
847.7170, 23662.00
848.8520, 23432.00
849.9860, 23550.00
851.1200, 23533.00
852.2540, 23580.00
853.3870, 23678.00
854.5210, 23657.00
855.6540, 23772.00
856.7880, 23735.00
857.9210, 23732.00
859.0540, 23780.00
860.1860, 23809.00
861.3190, 23983.00
862.4510, 24031.00
863.5840, 23923.00
864.7160, 23806.00
865.8480, 23867.00
866.9790, 24184.00
868.1110, 23995.00
869.2420, 24195.00
870.3740, 24113.00
871.5050, 24292.00
872.6360, 24199.00
873.7660, 24350.00
874.8970, 24134.00
876.0280, 24302.00
877.1580, 24349.00
878.2880, 24308.00
879.4180, 24264.00
880.5480, 24239.00
881.6770, 24296.00
882.8070, 24316.00
883.9360, 24346.00
885.0650, 24153.00
886.1940, 24219.07
887.3230, 24410.00
888.4520, 24263.00
889.5800, 24378.00
890.7090, 24541.00
891.8370, 24564.00
892.9650, 24435.00
894.0930, 24265.00
895.2200, 24623.00
896.3480, 24566.00
897.4750, 24684.00
898.6020, 24648.00
899.7290, 24802.00
900.8560, 24589.00
901.9830, 24558.00
903.1090, 24490.00
904.2360, 24716.00
905.3620, 24922.00
906.4880, 24797.00
907.6140, 24772.00
908.7400, 24902.00
909.8650, 24944.00
910.9900, 24748.00
912.1160, 24828.00
913.2410, 24817.00
914.3660, 24992.00
915.4900, 24896.00
916.6150, 25064.00
917.7390, 24976.00
918.8640, 25091.00
919.9880, 24981.00
921.1120, 25137.00
922.2350, 25178.00
923.3590, 25237.00
924.4820, 25092.00
925.6060, 25173.00
926.7290, 25150.00
927.8520, 25366.00
928.9740, 25410.00
930.0970, 25345.00
931.2190, 25453.00
932.3420, 25454.00
933.4640, 25546.00
934.5860, 25347.00
935.7080, 25455.00
936.8290, 25493.00
937.9510, 25415.00
939.0720, 25582.00
940.1930, 25622.00
941.3140, 25620.00
942.4350, 25557.00
943.5560, 25768.00
944.6760, 25868.00
945.7960, 25721.00
946.9170, 25784.00
948.0370, 25709.00
949.1560, 25679.00
950.2760, 25884.00
951.3960, 25851.00
952.5150, 25792.00
953.6340, 25739.00
954.7530, 25877.00
955.8720, 25923.00
956.9910, 25930.00
958.1090, 25986.54
959.2280, 26000.86
960.3460, 26032.00
961.4640, 26017.00
962.5820, 26080.00
963.6990, 26038.00
964.8170, 26282.00
965.9340, 26055.00
967.0510, 26226.00
968.1690, 26073.00
969.2850, 26194.00
970.4020, 26346.00
971.5190, 26329.00
972.6350, 26437.00
973.7510, 26423.00
974.8670, 26602.00
975.9830, 26570.00
977.0990, 26622.83
978.2150, 26652.51
979.3300, 26668.00
980.4450, 26676.00
981.5600, 26695.00
982.6750, 26765.00
983.7900, 26433.00
984.9050, 26699.00
986.0190, 26800.00
987.1340, 26514.00
988.2480, 26884.00
989.3620, 26824.00
990.4750, 26846.00
991.5890, 26907.00
992.7020, 26924.00
993.8160, 26849.00
994.9290, 26907.06
996.0420, 26899.00
997.1550, 27001.00
998.2670, 27137.00
999.3800, 27333.00
1000.492, 27044.00
1001.604, 27146.00
1002.716, 27230.00
1003.828, 27377.00
1004.940, 27299.00
1006.051, 27380.00
1007.163, 27373.00
1008.274, 27267.00
1009.385, 27447.00
1010.496, 27171.00
1011.606, 27300.00
1012.717, 27295.00
1013.827, 27098.00
1014.937, 27495.00
1016.047, 27247.00
1017.157, 27410.00
1018.267, 27566.00
1019.377, 27560.00
1020.486, 27240.00
1021.595, 27821.00
1022.704, 27375.00
1023.813, 27485.00
1024.922, 27634.00
1026.030, 27548.00
1027.139, 27676.00
1028.247, 27840.00
1029.355, 27678.00
1030.463, 27675.00
1031.571, 27627.00
1032.678, 27668.00
1033.786, 27712.63
1034.893, 27708.98
1036.000, 27847.00
1037.107, 27842.00
1038.214, 27872.00
1039.321, 28131.00
1040.427, 27800.00
1041.533, 27938.00
1042.639, 28109.00
1043.745, 27977.00
1044.851, 27930.00
1045.957, 28131.00
1047.062, 28149.00
1048.168, 28249.00
1049.273, 28274.85
1050.378, 28187.00
1051.482, 28281.00
1052.587, 28117.00
1053.692, 28136.00
1054.796, 28173.05
1055.900, 28363.00
1057.004, 28290.00
1058.108, 28305.00
1059.212, 28422.00
1060.315, 28209.00
1061.418, 28318.00
1062.522, 28253.00
1063.625, 28252.00
1064.728, 28481.00
1065.830, 28366.00
1066.933, 28661.00
1068.035, 28469.00
1069.137, 28716.00
1070.239, 28643.00
1071.341, 28627.00
1072.443, 28794.00
1073.545, 28782.00
1074.646, 28854.00
1075.747, 28793.00
1076.848, 28818.00
1077.949, 28707.00
1079.050, 28986.00
1080.150, 28666.00
1081.251, 28894.00
1082.351, 29100.00
1083.451, 29010.00
1084.551, 29088.00
1085.651, 29091.00
1086.750, 29251.00
1087.850, 29232.00
1088.949, 29262.00
1090.048, 29448.00
1091.147, 29429.04
1092.246, 29421.00
1093.345, 29538.00
1094.443, 29560.00
1095.541, 29636.00
1096.639, 29767.00
1097.737, 29702.00
1098.835, 29726.00
1099.933, 29878.00
1101.030, 29784.00
1102.128, 29832.00
1103.225, 29817.00
1104.322, 29643.00
1105.419, 29824.00
1106.515, 29820.00
1107.612, 30002.00
1108.708, 29821.00
1109.804, 29755.00
1110.900, 29795.00
1111.996, 29839.00
1113.092, 29826.08
1114.187, 30002.00
1115.283, 29908.00
1116.378, 29822.00
1117.473, 29956.00
1118.568, 30186.00
1119.662, 30056.00
1120.757, 30183.00
1121.851, 30247.00
1122.946, 30330.00
1124.040, 30294.00
1125.134, 30036.00
1126.227, 30224.00
1127.321, 30466.00
1128.414, 30221.00
1129.508, 30388.00
1130.601, 30111.00
1131.693, 30381.00
1132.786, 30590.00
1133.879, 30336.00
1134.971, 30256.00
1136.064, 30567.00
1137.156, 30433.00
1138.248, 30541.00
1139.339, 30544.00
1140.431, 30359.00
1141.522, 30471.00
1142.614, 30439.00
1143.705, 30660.00
1144.796, 30758.00
1145.887, 30648.00
1146.977, 30638.00
1148.068, 30590.00
1149.158, 30514.00
1150.248, 30651.00
1151.338, 30826.00
1152.428, 30766.00
1153.518, 30964.00
1154.607, 30731.00
1155.696, 30673.00
1156.785, 31082.00
1157.874, 30917.00
1158.963, 30885.00
1160.052, 30907.00
1161.141, 30749.00
1162.229, 31009.00
1163.317, 30902.00
1164.405, 30983.00
1165.493, 30696.00
1166.581, 30901.00
1167.668, 31045.00
1168.756, 30917.00
1169.843, 31064.00
1170.930, 31014.00
1172.017, 31258.00
1173.103, 31260.00
1174.190, 31153.00
1175.276, 31343.00
1176.363, 31222.00
1177.449, 31381.00
1178.535, 31164.00
1179.620, 31300.00
1180.706, 31289.00
1181.791, 31406.00
1182.877, 31318.00
1183.962, 31500.00
1185.047, 31525.00
1186.131, 31618.00
1187.216, 31672.98
1188.300, 31578.00
1189.385, 31722.00
1190.469, 31658.00
1191.553, 31644.00
1192.637, 31651.00
1193.720, 31858.00
1194.804, 31672.00
1195.887, 31957.00
1196.970, 31726.00
1198.053, 31917.00
1199.136, 32006.00
1200.219, 32005.00
1201.301, 32019.37
1202.383, 31907.00
1203.465, 31932.00
1204.547, 31984.00
1205.629, 32030.00
1206.711, 31939.00
1207.792, 32155.00
1208.874, 32289.00
1209.955, 32184.00
1211.036, 32277.00
1212.117, 32349.00
1213.198, 32316.00
1214.278, 32349.00
1215.359, 32283.00
1216.439, 32278.40
1217.519, 32400.00
1218.599, 32286.00
1219.678, 32253.00
1220.758, 32375.00
1221.837, 32528.00
1222.917, 32595.00
1223.996, 32472.00
1225.075, 32626.00
1226.153, 32586.00
1227.232, 32701.00
1228.310, 32594.00
1229.389, 32791.00
1230.467, 32727.00
1231.545, 32922.00
1232.622, 32915.00
1233.700, 33066.00
1234.777, 33003.00
1235.855, 32750.00
1236.932, 33005.00
1238.009, 32808.00
1239.086, 32949.00
1240.162, 32896.00
1241.239, 33145.00
1242.315, 32942.00
1243.391, 32903.00
1244.467, 33056.00
1245.543, 33063.00
1246.619, 33003.00
1247.694, 33111.00
1248.769, 33093.46
1249.844, 33196.00
1250.919, 33175.00
1251.994, 33288.00
1253.069, 33392.00
1254.144, 33312.00
1255.218, 33341.00
1256.292, 33433.00
1257.366, 33507.00
1258.440, 33665.00
1259.514, 33671.39
1260.587, 33382.00
1261.661, 33699.00
1262.734, 33524.00
1263.807, 33482.00
1264.880, 33619.00
1265.952, 33705.00
1267.025, 33695.00
1268.097, 33609.00
1269.170, 33569.00
1270.242, 33709.00
1271.314, 33712.00
1272.385, 33881.00
1273.457, 33746.00
1274.528, 33933.00
1275.600, 33894.00
1276.671, 33801.00
1277.742, 33836.00
1278.812, 34056.00
1279.883, 34035.00
1280.954, 34099.00
1282.024, 33981.00
1283.094, 34071.46
1284.164, 34314.00
1285.234, 34193.00
1286.303, 34221.00
1287.373, 34305.00
1288.442, 34299.00
1289.511, 34350.24
1290.580, 34359.00
1291.649, 34396.00
1292.718, 34419.00
1293.786, 34400.00
1294.855, 34558.00
1295.923, 34559.00
1296.991, 34543.00
1298.059, 34662.00
1299.126, 34763.00
1300.194, 34524.00
1301.261, 34908.00
1302.328, 34674.00
1303.395, 34748.00
1304.462, 34645.00
1305.529, 34774.00
1306.596, 34962.00
1307.662, 34661.00
1308.728, 35095.00
1309.794, 34971.00
1310.860, 34969.00
1311.926, 34910.00
1312.991, 35029.00
1314.057, 34907.00
1315.122, 34944.00
1316.187, 35021.00
1317.252, 35019.95
1318.317, 35243.00
1319.381, 35163.00
1320.446, 35207.00
1321.510, 35318.00
1322.574, 35131.00
1323.638, 35464.00
1324.702, 35348.00
1325.766, 35315.00
1326.829, 35266.00
1327.892, 35450.00
1328.956, 35413.00
1330.019, 35389.00
1331.081, 35463.00
1332.144, 35366.00
1333.206, 35737.00
1334.269, 35851.00
1335.331, 35836.00
1336.393, 35750.00
1337.455, 35878.00
1338.516, 35686.00
1339.578, 35663.00
1340.639, 35972.00
1341.701, 36144.00
1342.762, 35831.00
1343.822, 35710.00
1344.883, 35775.00
1345.944, 35692.84
1347.004, 35863.00
1348.064, 35850.00
1349.124, 35977.00
1350.184, 36160.00
1351.244, 36132.00
1352.304, 35916.00
1353.363, 36436.00
1354.422, 36103.00
1355.481, 36393.00
1356.540, 36226.00
1357.599, 36104.00
1358.657, 36450.00
1359.716, 36385.00
1360.774, 36411.00
1361.832, 36391.00
1362.890, 36380.00
1363.948, 36677.00
1365.006, 36310.00
1366.063, 36608.00
1367.120, 36371.00
1368.178, 36411.00
1369.234, 36621.00
1370.291, 36847.00
1371.348, 36812.19
1372.404, 36666.00
1373.461, 36780.00
1374.517, 36757.00
1375.573, 36684.00
1376.629, 36960.00
1377.684, 36579.00
1378.740, 36823.00
1379.795, 36734.00
1380.850, 36978.00
1381.905, 36896.00
1382.960, 36971.00
1384.015, 37018.00
1385.070, 37009.00
1386.124, 37145.00
1387.178, 36913.00
1388.232, 37047.00
1389.286, 37303.00
1390.340, 37473.00
1391.393, 37174.00
1392.447, 37164.00
1393.500, 37140.00
1394.553, 37151.00
1395.606, 37239.00
1396.659, 37263.55
1397.711, 37300.00
1398.764, 37393.00
1399.816, 37431.00
1400.868, 37486.00
1401.920, 37345.00
1402.972, 37630.00
1404.023, 37151.00
1405.075, 37687.00
1406.126, 37418.00
1407.177, 37338.00
1408.228, 37607.00
1409.279, 37648.00
1410.330, 37753.00
1411.380, 37793.00
1412.431, 37747.00
1413.481, 37666.00
1414.531, 37765.00
1415.580, 37761.93
1416.630, 37729.00
1417.680, 37826.00
1418.729, 38068.00
1419.778, 37988.00
1420.827, 38111.00
1421.876, 38137.00
1422.925, 38142.00
1423.973, 38190.00
1425.022, 38262.00
1426.070, 38131.00
1427.118, 38344.00
1428.166, 38188.00
1429.214, 38366.00
1430.261, 38192.00
1431.309, 38382.00
1432.356, 38319.00
1433.403, 38454.00
1434.450, 38571.00
1435.497, 38676.00
1436.543, 38780.00
1437.590, 38458.00
1438.636, 38579.00
1439.682, 38643.00
1440.728, 38520.00
1441.774, 38807.00
1442.819, 38876.00
1443.865, 38641.00
1444.910, 38615.00
1445.955, 38826.00
1447.000, 39073.00
1448.045, 38712.00
1449.090, 38796.00
1450.134, 38882.00
1451.178, 38989.00
1452.223, 38998.00
1453.267, 39058.93
1454.310, 39062.48
1455.354, 39137.00
1456.398, 39170.48
1457.441, 39162.00
1458.484, 39246.00
1459.527, 39276.00
1460.570, 39284.00
1461.613, 39313.00
1462.655, 39283.00
1463.698, 39287.00
1464.740, 39362.38
1465.782, 39402.00
1466.824, 39474.00
1467.866, 39495.00
1468.907, 39435.00
1469.948, 39372.00
1470.990, 39376.00
1472.031, 39470.00
1473.072, 39579.00
1474.112, 39660.00
1475.153, 39747.56
1476.194, 39757.64
1477.234, 39800.00
1478.274, 39796.00
1479.314, 39587.00
1480.354, 39696.00
1481.393, 39887.00
1482.433, 39738.00
1483.472, 39943.00
1484.511, 40222.00
1485.550, 39968.00
1486.589, 39885.00
1487.628, 40005.00
1488.666, 40159.00
1489.704, 39900.00
1490.743, 39880.00
1491.781, 39937.00
1492.819, 40206.00
1493.856, 40108.00
1494.894, 40339.00
1495.931, 40422.00
1496.968, 40148.00
1498.005, 40273.00
1499.042, 40182.00
1500.079, 40495.00
1501.115, 40524.00
1502.152, 40345.00
1503.188, 40353.00
1504.224, 40461.00
1505.260, 40661.00
1506.296, 40672.00
1507.331, 40518.00
1508.367, 40617.00
1509.402, 40611.00
1510.437, 40944.00
1511.472, 40752.00
1512.507, 40933.00
1513.541, 40711.00
1514.576, 40687.00
1515.610, 40739.00
1516.644, 40759.00
1517.678, 40973.00
1518.712, 40989.50
1519.746, 41074.00
1520.779, 41085.00
1521.813, 41036.00
1522.846, 40947.00
1523.879, 41061.00
1524.912, 41116.00
1525.944, 41116.00
1526.977, 41199.38
1528.009, 41256.00
1529.041, 41272.00
1530.073, 41285.19
1531.105, 41273.00
1532.137, 41272.00
1533.168, 41188.00
1534.200, 41086.00
1535.231, 41042.00
1536.262, 41123.81
1537.293, 41112.09
1538.324, 41402.00
1539.354, 41268.00
1540.385, 41465.00
1541.415, 41639.00
1542.445, 41426.00
1543.475, 41576.00
1544.505, 41547.00
1545.534, 41417.00
1546.564, 41695.00
1547.593, 41445.00
1548.622, 41719.00
1549.651, 41618.00
1550.680, 41730.00
1551.708, 41568.00
1552.737, 41936.00
1553.765, 41984.00
1554.793, 41830.00
1555.821, 42031.00
1556.849, 41770.00
1557.877, 41790.00
1558.904, 41572.00
1559.932, 42002.00
1560.959, 42044.00
1561.986, 42259.00
1563.013, 42087.00
##END=



