##NAMES=Microcline
##RRUFFID=R050193
##IDEAL CHEMISTRY=KAlSi_3_O_8_
##LOCALITY=Devil's Head, Douglas County, Colorado, USA
##OWNER=RRUFF
##SOURCE=Dave Bunk Minerals
##DESCRIPTION=White to colorless heterogeneous mixture of K and Na feldspar in a cluster of crystals. Crystal structure determined, presented below. This sample is known as an intermediate microcline in the literature.
##STATUS=The identification of this mineral has been confirmed by X-ray diffraction and chemical analysis
##URL=rruff.info/R050193
##MEASURED CHEMISTRY=(K_0.929_Na_0.071_)(Al_1.005_Si_2.994_Fe_0.001_)O_7.993_F_0.007_  ; Light Band :  (Na_0.973_K_0.007_Ca_0.020_)(Al_1.020_Si_2.980_)O_8_ ; Dark Band
##PIN_ID=L01042
##ORIENTATION=Laser parallel to a* (1 0 0). Fiducial mark perpendicular to laser is parallel to -b [0 -1 0]
142.5560, 18616.00
143.7880, 18871.00
145.0190, 19058.00
146.2510, 19295.00
147.4820, 19435.00
148.7130, 19666.00
149.9440, 20016.00
151.1750, 20027.00
152.4050, 20248.00
153.6360, 20359.00
154.8660, 20182.00
156.0960, 20062.00
157.3260, 20187.00
158.5560, 20153.00
159.7850, 19904.00
161.0150, 19878.00
162.2440, 19953.00
163.4730, 20110.00
164.7020, 19948.00
165.9310, 20009.00
167.1590, 20067.00
168.3880, 20177.00
169.6160, 20246.63
170.8440, 20224.00
172.0720, 20396.00
173.3000, 20404.00
174.5280, 20409.00
175.7550, 20515.00
176.9820, 20565.00
178.2100, 20621.00
179.4370, 20567.00
180.6630, 20518.00
181.8900, 20508.00
183.1170, 20327.00
184.3430, 20424.00
185.5690, 20495.00
186.7950, 20289.00
188.0210, 20266.00
189.2470, 20626.00
190.4720, 20589.00
191.6970, 20699.00
192.9230, 20688.00
194.1480, 20672.00
195.3730, 20875.00
196.5970, 20808.00
197.8220, 20924.00
199.0460, 20878.00
200.2700, 20768.00
201.4940, 21036.00
202.7180, 21036.00
203.9420, 20917.00
205.1660, 20798.00
206.3890, 20928.00
207.6120, 20841.00
208.8350, 20977.00
210.0580, 20966.00
211.2810, 20984.00
212.5040, 21059.00
213.7260, 20989.00
214.9480, 20889.00
216.1700, 20977.00
217.3920, 21155.00
218.6140, 21023.00
219.8360, 21225.00
221.0570, 21193.00
222.2790, 21114.00
223.5000, 21278.00
224.7210, 21236.00
225.9410, 21381.00
227.1620, 21359.00
228.3820, 21371.00
229.6030, 21456.00
230.8230, 21384.00
232.0430, 21570.00
233.2630, 21539.00
234.4820, 21616.00
235.7020, 21706.00
236.9210, 21871.00
238.1400, 21572.00
239.3590, 21820.00
240.5780, 21761.00
241.7970, 21877.00
243.0150, 21893.00
244.2340, 21943.00
245.4520, 21955.00
246.6700, 22042.00
247.8880, 22149.00
249.1060, 22493.00
250.3230, 22329.00
251.5400, 22612.00
252.7580, 22560.00
253.9750, 23011.00
255.1920, 23142.00
256.4080, 23243.00
257.6250, 23371.00
258.8410, 23637.00
260.0580, 23800.00
261.2740, 24046.00
262.4900, 23768.00
263.7050, 23873.00
264.9210, 23991.00
266.1360, 23926.00
267.3520, 24199.00
268.5670, 24032.00
269.7820, 24280.00
270.9960, 24276.00
272.2110, 24197.00
273.4250, 24271.00
274.6400, 24411.00
275.8540, 24568.00
277.0680, 24629.00
278.2810, 24677.00
279.4950, 24803.00
280.7090, 24829.00
281.9220, 25011.00
283.1350, 24886.00
284.3480, 24910.00
285.5610, 24958.00
286.7730, 24711.00
287.9860, 24514.00
289.1980, 24350.00
290.4100, 24268.00
291.6220, 24215.00
292.8340, 24114.55
294.0460, 24030.55
295.2570, 23955.00
296.4690, 23870.00
297.6800, 23724.00
298.8910, 23706.00
300.1020, 23513.00
301.3120, 23610.00
302.5230, 23739.00
303.7330, 23713.00
304.9440, 23678.00
306.1540, 23774.00
307.3630, 23728.00
308.5730, 23574.00
309.7830, 23601.00
310.9920, 23769.00
312.2010, 23910.00
313.4100, 23899.00
314.6190, 23859.00
315.8280, 23768.00
317.0370, 23948.00
318.2450, 23936.00
319.4530, 23850.00
320.6610, 23998.00
321.8690, 23980.13
323.0770, 24020.60
324.2850, 24096.00
325.4920, 24132.00
326.6990, 24211.00
327.9060, 24322.00
329.1130, 24257.00
330.3200, 24260.00
331.5270, 24419.00
332.7330, 24293.00
333.9390, 24361.00
335.1450, 24375.00
336.3510, 24371.13
337.5570, 24424.00
338.7630, 24400.00
339.9680, 24546.00
341.1740, 24496.00
342.3790, 24472.00
343.5840, 24347.00
344.7890, 24382.00
345.9930, 24587.00
347.1980, 24516.00
348.4020, 24597.00
349.6060, 24729.00
350.8100, 24767.00
352.0140, 24679.00
353.2180, 24840.00
354.4210, 24760.00
355.6250, 24863.00
356.8280, 24901.00
358.0310, 25146.00
359.2340, 24949.00
360.4360, 25147.00
361.6390, 25330.00
362.8410, 25172.00
364.0430, 25132.00
365.2450, 25356.00
366.4470, 25244.00
367.6490, 25494.00
368.8510, 25281.00
370.0520, 25462.00
371.2530, 25392.00
372.4540, 25623.00
373.6550, 25554.00
374.8560, 25546.00
376.0560, 25426.00
377.2570, 25499.00
378.4570, 25535.00
379.6570, 25555.00
380.8570, 25440.00
382.0570, 25489.00
383.2560, 25504.00
384.4560, 25365.00
385.6550, 25474.00
386.8540, 25620.00
388.0530, 25500.00
389.2520, 25659.00
390.4510, 25667.00
391.6490, 25801.00
392.8470, 25876.00
394.0450, 26102.00
395.2430, 26052.00
396.4410, 26193.00
397.6390, 26166.00
398.8360, 26055.00
400.0340, 26166.00
401.2310, 26205.72
402.4280, 26281.21
403.6250, 26448.00
404.8210, 26476.00
406.0180, 26625.00
407.2140, 26634.00
408.4100, 26643.00
409.6060, 26611.00
410.8020, 26446.00
411.9980, 26624.00
413.1930, 26461.00
414.3890, 26575.00
415.5840, 26614.00
416.7790, 26369.00
417.9740, 26473.00
419.1680, 26543.00
420.3630, 26511.00
421.5570, 26384.00
422.7510, 26435.00
423.9450, 26490.00
425.1390, 26688.00
426.3330, 26694.00
427.5270, 26775.00
428.7200, 26813.00
429.9130, 26726.00
431.1060, 26568.00
432.2990, 26753.00
433.4920, 26793.00
434.6840, 26938.00
435.8770, 27062.00
437.0690, 27168.00
438.2610, 27272.09
439.4530, 27555.00
440.6450, 27468.00
441.8360, 27509.00
443.0280, 27646.00
444.2190, 27930.00
445.4100, 28231.00
446.6010, 28340.00
447.7920, 28498.00
448.9820, 28809.00
450.1730, 29136.00
451.3630, 29292.00
452.5530, 29540.00
453.7430, 29499.00
454.9330, 29379.00
456.1230, 29368.00
457.3120, 29282.00
458.5010, 29247.00
459.6910, 29425.00
460.8800, 29450.00
462.0680, 29410.00
463.2570, 29427.00
464.4460, 29910.00
465.6340, 29889.00
466.8220, 30354.00
468.0100, 31029.00
469.1980, 31338.00
470.3860, 31813.00
471.5730, 32386.00
472.7600, 32641.00
473.9480, 33057.00
475.1350, 32991.00
476.3210, 32994.00
477.5080, 32665.00
478.6950, 32286.00
479.8810, 31747.00
481.0670, 31162.00
482.2530, 30870.00
483.4390, 30481.00
484.6250, 30159.00
485.8100, 30093.00
486.9960, 29769.00
488.1810, 29590.00
489.3660, 29516.00
490.5510, 29620.00
491.7360, 29552.00
492.9200, 29583.00
494.1050, 29676.00
495.2890, 29509.00
496.4730, 29980.00
497.6570, 30301.00
498.8400, 30395.00
500.0240, 30900.00
501.2070, 31576.00
502.3910, 32222.00
503.5740, 33351.00
504.7570, 34359.00
505.9400, 35351.00
507.1220, 36361.00
508.3050, 37275.00
509.4870, 38334.00
510.6690, 39104.00
511.8510, 39339.00
513.0330, 39170.00
514.2140, 38743.00
515.3960, 37858.00
516.5770, 36627.00
517.7580, 35327.00
518.9390, 34185.00
520.1200, 33060.00
521.3010, 32331.72
522.4810, 31574.00
523.6610, 31278.00
524.8420, 30875.00
526.0220, 30752.00
527.2010, 30492.74
528.3810, 30294.00
529.5610, 30188.00
530.7400, 30105.00
531.9190, 30049.00
533.0980, 29943.00
534.2770, 29807.00
535.4560, 29834.00
536.6340, 29886.00
537.8120, 29554.00
538.9910, 29689.00
540.1690, 29839.00
541.3460, 29675.00
542.5240, 29825.00
543.7020, 29694.00
544.8790, 29803.00
546.0560, 29688.00
547.2330, 29662.00
548.4100, 29698.00
549.5870, 29737.67
550.7630, 29812.23
551.9400, 29938.00
553.1160, 29988.00
554.2920, 30082.00
555.4680, 30111.00
556.6440, 29875.00
557.8190, 29913.00
558.9950, 29993.00
560.1700, 29891.00
561.3450, 30156.00
562.5200, 30072.00
563.6950, 30191.00
564.8690, 30097.00
566.0440, 30133.00
567.2180, 30335.00
568.3920, 30159.00
569.5660, 30377.00
570.7400, 30290.00
571.9130, 30378.00
573.0870, 30461.00
574.2600, 30421.00
575.4330, 30250.00
576.6060, 30459.00
577.7790, 30324.00
578.9520, 30543.00
580.1240, 30497.00
581.2960, 30632.00
582.4690, 30574.00
583.6410, 30690.00
584.8120, 30428.00
585.9840, 30722.00
587.1560, 30421.00
588.3270, 30826.00
589.4980, 30586.00
590.6690, 30603.00
591.8400, 30748.00
593.0110, 30621.00
594.1810, 30738.00
595.3510, 30969.00
596.5220, 30988.00
597.6920, 31169.00
598.8610, 30813.00
600.0310, 30673.00
601.2010, 31335.00
602.3700, 30854.00
603.5390, 30896.00
604.7080, 31120.00
605.8770, 31171.00
607.0460, 31130.00
608.2140, 31141.00
609.3830, 31338.00
610.5510, 31216.00
611.7190, 31365.00
612.8870, 31293.00
614.0550, 31384.00
615.2220, 31380.00
616.3900, 31375.07
617.5570, 31139.00
618.7240, 31368.00
619.8910, 31545.00
621.0580, 31532.00
622.2240, 31799.00
623.3910, 31708.00
624.5570, 31527.00
625.7230, 31562.00
626.8890, 31858.00
628.0550, 31865.00
629.2200, 31719.00
630.3860, 31844.00
631.5510, 31811.00
632.7160, 31878.00
633.8810, 31874.00
635.0460, 31989.00
636.2100, 31897.00
637.3750, 32129.00
638.5390, 32005.00
639.7030, 32195.00
640.8670, 32121.00
642.0310, 32270.00
643.1950, 32375.00
644.3580, 32284.00
645.5210, 32344.00
646.6850, 32452.00
647.8480, 32428.00
649.0100, 32476.13
650.1730, 32426.00
651.3350, 32471.00
652.4980, 32522.00
653.6600, 32479.00
654.8220, 32410.00
655.9840, 32666.00
657.1450, 32697.00
658.3070, 32505.00
659.4680, 32664.00
660.6300, 32598.00
661.7910, 32656.00
662.9510, 32873.00
664.1120, 32670.00
665.2730, 32715.00
666.4330, 32528.00
667.5930, 32644.00
668.7530, 32752.00
669.9130, 32642.00
671.0730, 32912.00
672.2320, 32899.00
673.3920, 32916.00
674.5510, 32837.00
675.7100, 32683.00
676.8690, 32837.00
678.0280, 32855.00
679.1860, 32967.00
680.3450, 32875.00
681.5030, 32888.00
682.6610, 33143.00
683.8190, 33062.00
684.9770, 33171.00
686.1340, 33126.00
687.2920, 33045.00
688.4490, 33077.00
689.6060, 33158.00
690.7630, 33312.00
691.9200, 33319.00
693.0760, 33292.00
694.2330, 33518.00
695.3890, 33345.00
696.5450, 33248.00
697.7010, 33520.00
698.8570, 33546.00
700.0130, 33551.00
701.1680, 33543.00
702.3230, 33653.00
703.4780, 33508.00
704.6330, 33392.00
705.7880, 33602.00
706.9430, 33595.00
708.0970, 33660.00
709.2520, 33581.00
710.4060, 33944.00
711.5600, 33884.00
712.7140, 33881.00
713.8670, 33971.00
715.0210, 33765.00
716.1740, 33989.00
717.3270, 34002.00
718.4800, 33899.00
719.6330, 34193.00
720.7860, 33964.00
721.9380, 34104.00
723.0910, 34295.00
724.2430, 33997.00
725.3950, 34315.00
726.5470, 34170.00
727.6980, 34433.00
728.8500, 34252.00
730.0010, 34412.00
731.1530, 34598.00
732.3040, 34699.00
733.4550, 34640.00
734.6050, 34629.00
735.7560, 34912.00
736.9060, 34709.00
738.0560, 35246.00
739.2060, 35055.00
740.3560, 35318.00
741.5060, 35531.00
742.6560, 35260.00
743.8050, 35455.00
744.9540, 35498.00
746.1030, 35736.00
747.2520, 35558.00
748.4010, 35705.00
749.5500, 35689.00
750.6980, 35874.00
751.8460, 35713.00
752.9950, 35719.00
754.1420, 35525.00
755.2900, 35432.00
756.4380, 35507.00
757.5850, 35745.00
758.7330, 35743.00
759.8800, 35562.00
761.0270, 35888.00
762.1730, 35700.00
763.3200, 35780.00
764.4670, 35684.00
765.6130, 35791.00
766.7590, 35631.00
767.9050, 35733.00
769.0510, 35825.00
770.1960, 35608.00
771.3420, 35612.00
772.4870, 35750.00
773.6320, 35654.00
774.7770, 35600.00
775.9220, 35443.00
777.0670, 35606.00
778.2110, 35795.00
779.3560, 35868.00
780.5000, 35744.00
781.6440, 35882.00
782.7880, 35734.00
783.9320, 36011.00
785.0750, 35917.00
786.2180, 36200.00
787.3620, 36025.00
788.5050, 36054.00
789.6480, 35867.00
790.7900, 35955.00
791.9330, 36242.00
793.0750, 36362.00
794.2170, 36304.00
795.3590, 36310.00
796.5010, 36154.00
797.6430, 36346.00
798.7850, 36337.00
799.9260, 36623.00
801.0670, 36584.00
802.2080, 36356.00
803.3490, 36760.00
804.4900, 36661.00
805.6310, 36816.00
806.7710, 36843.00
807.9110, 36895.00
809.0510, 37204.00
810.1910, 37314.00
811.3310, 37205.00
812.4710, 37218.00
813.6100, 37139.00
814.7490, 37046.75
815.8880, 37081.00
817.0270, 36881.00
818.1660, 37115.00
819.3050, 37129.00
820.4430, 36838.00
821.5820, 36804.00
822.7200, 36703.00
823.8580, 36617.00
824.9950, 36927.00
826.1330, 36925.00
827.2710, 36895.00
828.4080, 37096.00
829.5450, 36922.00
830.6820, 36813.00
831.8190, 37356.00
832.9560, 37323.00
834.0920, 37214.00
835.2280, 36890.00
836.3650, 36961.00
837.5010, 36820.00
838.6360, 37098.00
839.7720, 37450.00
840.9080, 37361.00
842.0430, 37366.00
843.1780, 37501.00
844.3130, 37293.00
845.4480, 37351.00
846.5830, 37436.00
847.7170, 37492.00
848.8520, 37517.00
849.9860, 37662.00
851.1200, 37656.00
852.2540, 37642.00
853.3870, 37756.00
854.5210, 37548.00
855.6540, 37806.00
856.7880, 37616.00
857.9210, 37934.00
859.0540, 38078.00
860.1860, 38158.00
861.3190, 38030.00
862.4510, 37932.00
863.5840, 37970.00
864.7160, 38075.00
865.8480, 38095.00
866.9790, 38116.55
868.1110, 38155.00
869.2420, 38151.00
870.3740, 38261.00
871.5050, 38353.00
872.6360, 38310.00
873.7660, 38328.00
874.8970, 38311.00
876.0280, 38365.00
877.1580, 38302.00
878.2880, 38392.00
879.4180, 38355.00
880.5480, 38447.00
881.6770, 38343.00
882.8070, 38518.00
883.9360, 38251.00
885.0650, 38435.00
886.1940, 38448.00
887.3230, 38632.00
888.4520, 38708.00
889.5800, 38545.00
890.7090, 38714.00
891.8370, 38672.00
892.9650, 38664.82
894.0930, 38648.00
895.2200, 38749.00
896.3480, 38753.00
897.4750, 38821.43
898.6020, 38889.23
899.7290, 38961.00
900.8560, 38962.00
901.9830, 39035.00
903.1090, 38939.00
904.2360, 39029.39
905.3620, 39152.00
906.4880, 39132.00
907.6140, 39264.00
908.7400, 39310.00
909.8650, 39483.00
910.9900, 39024.00
912.1160, 39404.00
913.2410, 39201.00
914.3660, 39428.00
915.4900, 39540.00
916.6150, 39540.00
917.7390, 39676.00
918.8640, 39548.00
919.9880, 39678.00
921.1120, 39637.00
922.2350, 39514.00
923.3590, 39488.00
924.4820, 39639.00
925.6060, 39790.00
926.7290, 40004.00
927.8520, 39788.00
928.9740, 39619.00
930.0970, 39792.00
931.2190, 39908.00
932.3420, 40187.00
933.4640, 40123.00
934.5860, 40245.82
935.7080, 40161.00
936.8290, 40309.00
937.9510, 40063.00
939.0720, 40076.00
940.1930, 40231.00
941.3140, 40254.00
942.4350, 40307.00
943.5560, 40379.00
944.6760, 40445.00
945.7960, 40396.00
946.9170, 40344.00
948.0370, 40640.00
949.1560, 40423.00
950.2760, 40629.00
951.3960, 40339.00
952.5150, 40775.00
953.6340, 40652.00
954.7530, 40926.00
955.8720, 40857.00
956.9910, 40918.00
958.1090, 40506.00
959.2280, 40677.00
960.3460, 40834.00
961.4640, 40799.00
962.5820, 41008.00
963.6990, 41320.00
964.8170, 41276.00
965.9340, 41346.00
967.0510, 41269.00
968.1690, 41088.00
969.2850, 41177.00
970.4020, 41301.00
971.5190, 41283.00
972.6350, 41522.00
973.7510, 41408.00
974.8670, 41464.00
975.9830, 41521.00
977.0990, 41328.00
978.2150, 41582.00
979.3300, 41714.00
980.4450, 41564.00
981.5600, 41763.00
982.6750, 41866.00
983.7900, 42044.00
984.9050, 41823.00
986.0190, 41932.00
987.1340, 42068.00
988.2480, 41866.00
989.3620, 42105.00
990.4750, 42034.00
991.5890, 42405.00
992.7020, 41927.00
993.8160, 42086.00
994.9290, 42235.00
996.0420, 42334.00
997.1550, 42357.00
998.2670, 42408.00
999.3800, 42452.00
1000.492, 42482.61
1001.604, 42452.00
1002.716, 42523.00
1003.828, 42516.30
1004.940, 42540.59
1006.051, 42533.00
1007.163, 42604.00
1008.274, 42595.00
1009.385, 42659.00
1010.496, 42789.00
1011.606, 42749.00
1012.717, 42949.00
1013.827, 42778.00
1014.937, 42914.00
1016.047, 42835.00
1017.157, 42649.00
1018.267, 43033.00
1019.377, 42877.00
1020.486, 42931.00
1021.595, 43284.00
1022.704, 42976.00
1023.813, 43297.00
1024.922, 43498.00
1026.030, 43221.00
1027.139, 43191.00
1028.247, 43447.00
1029.355, 43417.00
1030.463, 43471.00
1031.571, 43567.00
1032.678, 43469.00
1033.786, 43480.00
1034.893, 43493.00
1036.000, 43489.00
1037.107, 43517.46
1038.214, 43722.00
1039.321, 43563.00
1040.427, 43600.00
1041.533, 43615.00
1042.639, 43473.00
1043.745, 43880.00
1044.851, 43875.00
1045.957, 43912.00
1047.062, 43832.00
1048.168, 44081.00
1049.273, 43762.00
1050.378, 44143.00
1051.482, 44175.00
1052.587, 44026.00
1053.692, 44287.00
1054.796, 44198.00
1055.900, 43968.00
1057.004, 44113.00
1058.108, 44277.00
1059.212, 44060.00
1060.315, 44126.00
1061.418, 44282.00
1062.522, 44398.00
1063.625, 44557.00
1064.728, 44676.00
1065.830, 44677.12
1066.933, 44591.00
1068.035, 44659.00
1069.137, 44511.00
1070.239, 44535.00
1071.341, 44689.00
1072.443, 44688.00
1073.545, 45057.00
1074.646, 44691.00
1075.747, 44843.00
1076.848, 45066.00
1077.949, 44752.00
1079.050, 44954.00
1080.150, 45017.00
1081.251, 45292.00
1082.351, 45045.00
1083.451, 45347.00
1084.551, 45109.00
1085.651, 45487.00
1086.750, 45313.00
1087.850, 45257.00
1088.949, 45667.00
1090.048, 45508.00
1091.147, 45481.00
1092.246, 45643.00
1093.345, 45874.00
1094.443, 46095.00
1095.541, 45979.00
1096.639, 46010.00
1097.737, 46206.00
1098.835, 45926.00
1099.933, 46117.00
1101.030, 46203.00
1102.128, 46110.00
1103.225, 46332.00
1104.322, 46043.00
1105.419, 46552.00
1106.515, 46552.00
1107.612, 46276.00
1108.708, 46529.00
1109.804, 46756.00
1110.900, 46849.00
1111.996, 47051.24
1113.092, 47023.00
1114.187, 47323.00
1115.283, 47245.00
1116.378, 47341.00
1117.473, 47873.00
1118.568, 47620.00
1119.662, 47949.00
1120.757, 48024.00
1121.851, 47905.00
1122.946, 48312.00
1124.040, 48052.00
1125.134, 47916.00
1126.227, 48015.00
1127.321, 48045.00
1128.414, 48171.00
1129.508, 47917.00
1130.601, 47801.00
1131.693, 47996.00
1132.786, 48009.00
1133.879, 48283.00
1134.971, 48173.00
1136.064, 48044.00
1137.156, 48032.00
1138.248, 48138.00
1139.339, 48077.00
1140.431, 47881.00
1141.522, 48027.00
1142.614, 47949.46
1143.705, 48023.00
1144.796, 48027.00
1145.887, 48054.00
1146.977, 48178.00
1148.068, 47977.00
1149.158, 48060.00
1150.248, 47749.00
1151.338, 48067.00
1152.428, 48070.00
1153.518, 48053.00
1154.607, 47951.00
1155.696, 47974.00
1156.785, 47904.00
1157.874, 47980.00
1158.963, 47805.00
1160.052, 47975.00
1161.141, 48033.00
1162.229, 47822.00
1163.317, 48119.00
1164.405, 48148.00
1165.493, 48240.00
1166.581, 48136.00
1167.668, 48329.00
1168.756, 48082.00
1169.843, 48389.00
1170.930, 48241.00
1172.017, 48465.00
1173.103, 48307.00
1174.190, 48354.00
1175.276, 48498.00
1176.363, 48585.00
1177.449, 48523.00
1178.535, 48757.00
1179.620, 48740.00
1180.706, 48668.00
1181.791, 48816.00
1182.877, 48721.00
1183.962, 48812.00
1185.047, 48729.00
1186.131, 49093.00
1187.216, 48850.00
1188.300, 49212.00
1189.385, 48900.00
1190.469, 49161.00
1191.553, 49235.00
1192.637, 49111.00
1193.720, 49266.00
1194.804, 49078.00
1195.887, 49332.00
1196.970, 49321.00
1198.053, 49106.00
1199.136, 49119.00
1200.219, 49358.00
1201.301, 49530.00
1202.383, 49502.00
1203.465, 49750.00
1204.547, 49492.00
1205.629, 49713.00
1206.711, 49734.00
1207.792, 49511.00
1208.874, 49773.00
1209.955, 49557.00
1211.036, 49990.00
1212.117, 49602.00
1213.198, 49905.00
1214.278, 49861.00
1215.359, 49816.00
1216.439, 50224.00
1217.519, 49980.00
1218.599, 49805.00
1219.678, 50008.00
1220.758, 49928.00
1221.837, 50024.40
1222.917, 50148.00
1223.996, 50287.00
1225.075, 50281.00
1226.153, 50519.00
1227.232, 50247.00
1228.310, 50583.00
1229.389, 50515.00
1230.467, 50564.00
1231.545, 50876.00
1232.622, 50578.00
1233.700, 50563.00
1234.777, 50748.00
1235.855, 51070.00
1236.932, 50918.00
1238.009, 50684.00
1239.086, 50731.00
1240.162, 51086.00
1241.239, 50995.00
1242.315, 51066.00
1243.391, 50904.00
1244.467, 50998.00
1245.543, 50836.00
1246.619, 51011.00
1247.694, 51278.00
1248.769, 51259.00
1249.844, 51439.79
1250.919, 51443.91
1251.994, 51564.00
1253.069, 51429.00
1254.144, 51332.00
1255.218, 51347.00
1256.292, 51709.00
1257.366, 51377.00
1258.440, 51776.00
1259.514, 51883.00
1260.587, 51667.00
1261.661, 51645.00
1262.734, 51761.00
1263.807, 51850.00
1264.880, 51689.00
1265.952, 51749.00
1267.025, 52042.00
1268.097, 51897.00
1269.170, 51638.00
1270.242, 52021.00
1271.314, 51810.00
1272.385, 52349.00
1273.457, 52372.00
1274.528, 52149.00
1275.600, 52498.00
1276.671, 52172.00
1277.742, 52271.00
1278.812, 52498.00
1279.883, 52244.00
1280.954, 52368.00
1282.024, 52684.00
1283.094, 52569.00
1284.164, 52757.00
1285.234, 52792.00
1286.303, 52528.00
1287.373, 52955.00
1288.442, 52660.00
1289.511, 52839.00
1290.580, 52917.00
1291.649, 52821.00
1292.718, 52992.12
1293.786, 52983.00
1294.855, 53068.00
1295.923, 53118.00
1296.991, 52952.00
1298.059, 52989.00
1299.126, 53208.00
1300.194, 53076.00
1301.261, 53599.00
1302.328, 53291.00
1303.395, 53182.00
1304.462, 53520.00
1305.529, 53520.00
1306.596, 53383.00
1307.662, 53819.00
1308.728, 53629.00
1309.794, 53727.00
1310.860, 54125.00
1311.926, 53873.00
1312.991, 53867.00
1314.057, 53818.00
1315.122, 53977.00
1316.187, 53982.70
1317.252, 54139.00
1318.317, 54144.00
1319.381, 54212.00
1320.446, 54315.00
1321.510, 54245.00
1322.574, 54136.00
1323.638, 54417.00
1324.702, 54510.00
1325.766, 54586.00
1326.829, 54338.00
1327.892, 54374.00
1328.956, 54497.00
1330.019, 54758.00
1331.081, 54489.00
1332.144, 54465.00
1333.206, 54650.00
1334.269, 54733.00
1335.331, 54849.00
1336.393, 54934.36
1337.455, 54987.24
1338.516, 55032.00
1339.578, 55057.00
1340.639, 55038.00
1341.701, 55026.00
1342.762, 55200.00
1343.822, 55227.00
1344.883, 55320.00
1345.944, 55203.00
1347.004, 55137.00
1348.064, 55334.00
1349.124, 55222.00
1350.184, 55320.00
1351.244, 55434.00
1352.304, 55339.00
1353.363, 55547.00
1354.422, 55659.00
1355.481, 55685.00
1356.540, 55766.00
1357.599, 55559.00
1358.657, 55357.00
1359.716, 55402.00
1360.774, 55812.00
1361.832, 55797.00
1362.890, 55974.00
1363.948, 56147.00
1365.006, 56003.00
1366.063, 56186.00
1367.120, 56123.00
1368.178, 56120.00
1369.234, 55953.00
1370.291, 56163.00
1371.348, 56204.00
1372.404, 56186.00
1373.461, 56283.00
1374.517, 56304.00
1375.573, 56419.00
1376.629, 56625.00
1377.684, 56370.00
1378.740, 56634.00
1379.795, 56511.00
1380.850, 56394.00
1381.905, 56646.00
1382.960, 56558.00
1384.015, 56699.00
1385.070, 56782.00
1386.124, 56695.00
1387.178, 56738.00
1388.232, 56961.00
1389.286, 57094.00
1390.340, 56830.00
1391.393, 57250.00
1392.447, 56873.00
1393.500, 57050.00
1394.553, 57063.00
1395.606, 57208.00
1396.659, 57397.00
1397.711, 57396.00
1398.764, 57347.00
1399.816, 57358.00
1400.868, 57207.00
1401.920, 57510.00
1402.972, 57419.00
1404.023, 57327.00
1405.075, 57161.00
1406.126, 57673.00
1407.177, 57490.00
1408.228, 57601.00
1409.279, 57859.00
1410.330, 57526.00
1411.380, 57862.00
1412.431, 57762.00
1413.481, 57858.00
1414.531, 57799.00
1415.580, 57763.00
1416.630, 58038.00
1417.680, 58044.00
1418.729, 58084.00
1419.778, 58234.00
1420.827, 57873.00
1421.876, 58165.00
1422.925, 58025.00
1423.973, 58082.00
1425.022, 58374.00
1426.070, 58768.00
1427.118, 58288.00
1428.166, 58291.00
1429.214, 58617.00
1430.261, 58360.00
1431.309, 58724.00
1432.356, 58635.00
1433.403, 58960.00
1434.450, 58658.00
1435.497, 58858.00
1436.543, 58781.00
1437.590, 59055.00
1438.636, 58867.00
1439.682, 58717.00
1440.728, 58768.00
1441.774, 58782.86
1442.819, 59165.00
1443.865, 58977.00
1444.910, 59303.00
1445.955, 59307.00
1447.000, 59462.00
1448.045, 59279.00
1449.090, 59384.00
1450.134, 59406.00
1451.178, 59630.00
1452.223, 59490.00
1453.267, 59489.00
1454.310, 59597.00
1455.354, 59598.00
1456.398, 59805.00
1457.441, 59872.00
1458.484, 59581.00
1459.527, 60003.00
1460.570, 59566.00
1461.613, 60089.00
1462.655, 59628.00
1463.698, 60004.00
1464.740, 60323.00
1465.782, 59712.00
1466.824, 59971.00
1467.866, 60183.00
1468.907, 60016.00
1469.948, 60274.00
1470.990, 60313.00
1472.031, 60321.00
1473.072, 60146.00
1474.112, 60360.00
1475.153, 60648.00
1476.194, 60451.00
1477.234, 60183.00
1478.274, 60997.00
1479.314, 60678.00
1480.354, 60636.00
1481.393, 60823.00
1482.433, 60567.00
1483.472, 60786.00
1484.511, 61073.00
1485.550, 60999.00
1486.589, 60749.00
1487.628, 60672.00
1488.666, 60952.00
1489.704, 61238.00
1490.743, 61167.00
1491.781, 60850.00
1492.819, 61373.00
1493.856, 60761.00
1494.894, 61118.00
1495.931, 61447.00
1496.968, 61336.00
1498.005, 61504.00
1499.042, 61297.00
1500.079, 61542.00
1501.115, 61587.00
1502.152, 61712.00
1503.188, 61602.00
1504.224, 61689.73
1505.260, 61712.00
1506.296, 61726.00
1507.331, 61661.00
1508.367, 61652.00
1509.402, 61712.00
1510.437, 61974.00
1511.472, 62061.00
1512.507, 62135.00
1513.541, 62259.00
1514.576, 62174.92
1515.610, 62212.00
1516.644, 62019.00
1517.678, 62105.00
1518.712, 62093.00
1519.746, 62224.00
1520.779, 62524.00
1521.813, 62502.00
1522.846, 62566.24
1523.879, 62480.00
1524.912, 62454.00
1525.944, 62495.00
1526.977, 62326.00
1528.009, 62403.00
1529.041, 62520.00
1530.073, 62695.00
1531.105, 62747.00
1532.137, 62705.00
1533.168, 62660.00
1534.200, 62918.00
1535.231, 62777.00
1536.262, 62589.00
1537.293, 62589.00
1538.324, 62783.00
1539.354, 62813.00
1540.385, 62820.00
1541.415, 62984.00
1542.445, 63027.00
1543.475, 63084.00
1544.505, 62913.00
1545.534, 63125.00
1546.564, 63236.00
1547.593, 62956.00
1548.622, 63258.00
1549.651, 63408.00
1550.680, 63324.00
1551.708, 63284.00
1552.737, 63322.00
1553.765, 63376.00
1554.793, 63544.00
1555.821, 63377.00
1556.849, 63622.00
1557.877, 63464.00
1558.904, 63574.00
1559.932, 63731.00
1560.959, 63547.00
1561.986, 63866.00
1563.013, 64063.00
##END=



