##NAMES=Microcline
##RRUFFID=R050150
##IDEAL CHEMISTRY=KAlSi_3_O_8_
##LOCALITY=Crystal Peak area, Park/Teller Counties, Colorado, USA
##OWNER=RRUFF
##SOURCE=Dave Bunk Minerals
##DESCRIPTION=Pale blue prismatic crystals
##STATUS=The identification of this mineral has been confirmed by X-ray diffraction and chemical analysis
##URL=rruff.info/R050150
##MEASURED CHEMISTRY=(K_0.95_Na_0.05_)_Î£=1_Al_1.00_Si_3.00_O_8_
##PIN_ID=L01538
##ORIENTATION=Laser parallel to c* (0 0 1). Fiducial mark perpendicular to laser is parallel to a [1 0 0]
131.4130, 13472.00
132.6530, 13363.00
133.8930, 13734.00
135.1330, 14624.00
136.3730, 16281.00
137.6120, 18052.00
138.8510, 19212.00
140.0900, 19539.00
141.3290, 19479.00
142.5680, 19164.00
143.8060, 19320.00
145.0440, 19578.00
146.2820, 20880.00
147.5200, 22126.00
148.7570, 23755.00
149.9950, 25841.00
151.2320, 28349.00
152.4690, 31497.00
153.7060, 34966.00
154.9420, 38060.00
156.1790, 40003.00
157.4150, 40463.00
158.6510, 38672.00
159.8870, 35278.00
161.1220, 31242.00
162.3570, 27024.00
163.5930, 23095.00
164.8280, 20067.00
166.0620, 17445.00
167.2970, 15548.00
168.5310, 14035.00
169.7650, 13059.00
170.9990, 12454.00
172.2330, 11861.00
173.4670, 11521.00
174.7000, 11274.00
175.9330, 10871.00
177.1660, 10894.00
178.3990, 10630.00
179.6310, 10569.00
180.8640, 10284.00
182.0960, 10114.00
183.3280, 9707.000
184.5600, 9564.000
185.7910, 9341.000
187.0220, 9184.000
188.2540, 9233.000
189.4840, 9314.000
190.7150, 9290.000
191.9460, 9393.000
193.1760, 9439.000
194.4060, 9715.000
195.6360, 10085.00
196.8660, 10102.00
198.0960, 10241.00
199.3250, 10262.00
200.5540, 10110.00
201.7830, 9776.000
203.0120, 9470.000
204.2400, 9082.000
205.4690, 8708.000
206.6970, 8466.463
207.9250, 8223.884
209.1530, 8037.000
210.3800, 7904.000
211.6080, 7829.000
212.8350, 7730.000
214.0620, 7697.588
215.2880, 7635.000
216.5150, 7689.000
217.7410, 7693.000
218.9680, 7743.000
220.1940, 7697.000
221.4190, 7758.000
222.6450, 7763.331
223.8700, 7792.000
225.0960, 7802.000
226.3210, 7751.000
227.5450, 7764.000
228.7700, 7773.000
229.9940, 7858.000
231.2190, 7848.000
232.4430, 7960.000
233.6660, 7850.000
234.8900, 8006.000
236.1140, 8078.000
237.3370, 8086.000
238.5600, 8193.000
239.7830, 8412.000
241.0050, 8498.000
242.2280, 8645.000
243.4500, 8992.000
244.6720, 9375.000
245.8940, 10004.00
247.1160, 10461.00
248.3370, 11276.00
249.5580, 12039.00
250.7790, 13091.00
252.0000, 14327.00
253.2210, 15533.00
254.4410, 17482.00
255.6620, 18811.00
256.8820, 19617.00
258.1020, 20066.00
259.3210, 19905.00
260.5410, 19841.00
261.7600, 19433.00
262.9790, 19398.00
264.1980, 19513.00
265.4170, 19267.00
266.6360, 18565.00
267.8540, 18090.00
269.0720, 17304.00
270.2900, 16983.00
271.5080, 16937.00
272.7260, 17407.00
273.9430, 18332.00
275.1600, 19770.00
276.3770, 22027.00
277.5940, 24063.00
278.8100, 26534.00
280.0270, 29250.00
281.2430, 32479.00
282.4590, 35087.00
283.6750, 36915.00
284.8910, 37193.00
286.1060, 34821.00
287.3210, 31904.00
288.5360, 27898.00
289.7510, 24305.00
290.9660, 20722.00
292.1800, 17767.00
293.3950, 15261.00
294.6090, 13692.00
295.8230, 12414.00
297.0360, 11826.00
298.2500, 11013.00
299.4630, 10624.00
300.6760, 10222.00
301.8890, 9978.000
303.1020, 9578.000
304.3150, 9446.000
305.5270, 9208.000
306.7390, 9119.000
307.9510, 8997.000
309.1630, 8725.000
310.3750, 8633.000
311.5860, 8627.000
312.7970, 8582.000
314.0080, 8446.000
315.2190, 8432.000
316.4300, 8504.000
317.6400, 8556.000
318.8510, 8658.821
320.0610, 8670.000
321.2710, 8888.000
322.4800, 9073.000
323.6900, 9135.000
324.8990, 9430.000
326.1080, 9894.000
327.3170, 10131.00
328.5260, 10596.00
329.7340, 10860.00
330.9430, 11235.00
332.1510, 11168.00
333.3590, 10954.00
334.5670, 10542.00
335.7740, 9966.000
336.9820, 9624.000
338.1890, 9218.000
339.3960, 8990.000
340.6030, 8814.000
341.8100, 8665.000
343.0160, 8584.600
344.2220, 8584.000
345.4280, 8551.000
346.6340, 8537.000
347.8400, 8626.000
349.0460, 8557.000
350.2510, 8630.000
351.4560, 8739.000
352.6610, 8824.000
353.8660, 8815.000
355.0700, 8855.089
356.2750, 8867.000
357.4790, 8867.000
358.6830, 8831.000
359.8870, 8896.000
361.0910, 8705.000
362.2940, 8687.000
363.4970, 8614.000
364.7000, 8678.000
365.9030, 8582.000
367.1060, 8594.713
368.3080, 8512.000
369.5110, 8578.000
370.7130, 8604.000
371.9150, 8594.000
373.1170, 8574.000
374.3180, 8535.478
375.5200, 8461.000
376.7210, 8412.000
377.9220, 8348.000
379.1230, 8269.000
380.3230, 8358.000
381.5240, 8344.000
382.7240, 8213.000
383.9240, 8127.000
385.1240, 8307.000
386.3240, 8165.000
387.5230, 8321.000
388.7230, 8238.000
389.9220, 8247.000
391.1210, 8421.000
392.3200, 8436.000
393.5180, 8373.000
394.7170, 8478.000
395.9150, 8480.000
397.1130, 8577.000
398.3110, 8792.000
399.5080, 8825.000
400.7060, 8918.000
401.9030, 9040.000
403.1000, 9016.000
404.2970, 9095.000
405.4940, 8945.000
406.6910, 8774.000
407.8870, 8693.000
409.0830, 8634.000
410.2790, 8666.000
411.4750, 8647.000
412.6710, 8638.000
413.8660, 8482.000
415.0610, 8582.000
416.2560, 8396.000
417.4510, 8495.000
418.6460, 8480.000
419.8410, 8526.000
421.0350, 8456.000
422.2290, 8511.000
423.4230, 8529.000
424.6170, 8631.000
425.8100, 8493.000
427.0040, 8571.000
428.1970, 8620.000
429.3900, 8803.000
430.5830, 8770.000
431.7760, 8623.000
432.9680, 8848.000
434.1610, 8767.000
435.3530, 9134.000
436.5450, 9035.000
437.7360, 9233.000
438.9280, 9301.000
440.1190, 9611.000
441.3110, 9772.000
442.5020, 10118.00
443.6930, 10666.00
444.8830, 11112.00
446.0740, 11785.00
447.2640, 12585.00
448.4540, 13406.00
449.6440, 14237.00
450.8340, 15312.00
452.0240, 16133.00
453.2130, 16633.00
454.4020, 16711.00
455.5910, 16063.00
456.7800, 15411.00
457.9690, 14821.00
459.1570, 14119.00
460.3460, 13583.00
461.5340, 13156.00
462.7220, 13414.00
463.9090, 13883.00
465.0970, 14625.00
466.2840, 15705.00
467.4720, 17029.00
468.6590, 18327.00
469.8460, 20099.00
471.0320, 21847.00
472.2190, 24108.00
473.4050, 25632.00
474.5910, 26899.00
475.7770, 27207.00
476.9630, 26064.00
478.1490, 24546.00
479.3340, 23015.00
480.5190, 21451.00
481.7040, 20515.00
482.8890, 19810.00
484.0740, 18850.00
485.2580, 17953.00
486.4430, 16653.00
487.6270, 15512.00
488.8110, 14473.00
489.9950, 13874.00
491.1780, 13183.00
492.3620, 12697.00
493.5450, 12764.00
494.7280, 12918.00
495.9110, 13024.00
497.0940, 13375.00
498.2760, 14029.00
499.4590, 14982.00
500.6410, 16436.00
501.8230, 18227.00
503.0050, 20678.00
504.1860, 24018.00
505.3680, 28006.00
506.5490, 31977.00
507.7300, 36848.00
508.9110, 41736.00
510.0920, 47125.00
511.2730, 52194.00
512.4530, 55381.00
513.6330, 54795.00
514.8130, 51264.00
515.9930, 45938.00
517.1730, 39843.00
518.3520, 33780.00
519.5320, 28319.00
520.7110, 24138.00
521.8900, 20941.00
523.0690, 18535.00
524.2470, 16880.00
525.4260, 15464.00
526.6040, 14449.00
527.7820, 13736.00
528.9600, 13210.00
530.1380, 12805.00
531.3150, 12453.00
532.4930, 12022.00
533.6700, 11709.00
534.8470, 11400.00
536.0240, 11314.00
537.2000, 11209.00
538.3770, 10997.00
539.5530, 10803.00
540.7290, 10951.00
541.9050, 10790.00
543.0810, 10656.00
544.2570, 10591.00
545.4320, 10485.00
546.6080, 10411.00
547.7830, 10361.00
548.9580, 10328.00
550.1320, 10464.00
551.3070, 10335.00
552.4810, 10073.00
553.6550, 10215.00
554.8300, 10227.00
556.0030, 10116.00
557.1770, 10379.00
558.3510, 10276.00
559.5240, 10165.00
560.6970, 10192.00
561.8700, 10202.00
563.0430, 10277.00
564.2160, 10151.00
565.3880, 10187.00
566.5600, 10252.00
567.7320, 10273.00
568.9040, 10344.00
570.0760, 10339.00
571.2480, 10314.00
572.4190, 10325.00
573.5900, 10400.00
574.7610, 10441.00
575.9320, 10594.00
577.1030, 10644.00
578.2740, 10825.00
579.4440, 10965.00
580.6140, 10902.00
581.7840, 11001.00
582.9540, 11026.00
584.1240, 11071.00
585.2930, 10893.00
586.4630, 10728.00
587.6320, 10504.00
588.8010, 10476.00
589.9700, 10267.00
591.1380, 10241.00
592.3070, 10215.00
593.4750, 10157.00
594.6430, 10014.00
595.8110, 10097.00
596.9790, 10084.00
598.1460, 10017.00
599.3140, 10123.00
600.4810, 10132.00
601.6480, 10138.00
602.8150, 10099.00
603.9820, 10004.00
605.1480, 10071.00
606.3150, 10022.00
607.4810, 10054.00
608.6470, 10186.00
609.8130, 10122.00
610.9790, 10291.00
612.1440, 10096.00
613.3100, 10337.00
614.4750, 10271.00
615.6400, 10281.00
616.8050, 10392.00
617.9690, 10344.00
619.1340, 10395.00
620.2980, 10551.00
621.4620, 10628.00
622.6260, 10821.00
623.7900, 11017.00
624.9540, 11040.00
626.1170, 11233.00
627.2810, 11388.00
628.4440, 11394.00
629.6070, 11415.00
630.7690, 11403.00
631.9320, 11483.00
633.0950, 11348.00
634.2570, 11189.00
635.4190, 11247.00
636.5810, 11369.00
637.7430, 11231.00
638.9040, 11403.00
640.0660, 11365.00
641.2270, 11619.00
642.3880, 11669.00
643.5490, 11883.00
644.7100, 11929.00
645.8700, 12102.00
647.0310, 12241.00
648.1910, 12358.00
649.3510, 12420.17
650.5110, 12663.00
651.6710, 12482.00
652.8300, 12478.00
653.9900, 12497.00
655.1490, 12280.00
656.3080, 11992.00
657.4670, 11942.00
658.6250, 11620.00
659.7840, 11597.00
660.9420, 11455.00
662.1010, 11234.00
663.2590, 11064.00
664.4170, 11056.00
665.5740, 10847.00
666.7320, 10810.00
667.8890, 10688.00
669.0460, 10665.00
670.2030, 10637.00
671.3600, 10525.00
672.5170, 10506.00
673.6740, 10511.00
674.8300, 10504.00
675.9860, 10486.00
677.1420, 10423.00
678.2980, 10462.03
679.4540, 10516.00
680.6090, 10516.00
681.7650, 10441.00
682.9200, 10464.00
684.0750, 10418.00
685.2300, 10319.00
686.3840, 10424.00
687.5390, 10489.00
688.6930, 10385.00
689.8470, 10491.00
691.0010, 10399.00
692.1550, 10470.00
693.3090, 10423.00
694.4620, 10585.00
695.6160, 10408.00
696.7690, 10530.00
697.9220, 10491.00
699.0750, 10417.00
700.2280, 10505.00
701.3800, 10581.00
702.5320, 10543.00
703.6850, 10469.00
704.8370, 10557.00
705.9880, 10577.00
707.1400, 10495.00
708.2920, 10613.00
709.4430, 10477.00
710.5940, 10565.00
711.7450, 10592.00
712.8960, 10533.00
714.0470, 10649.00
715.1970, 10724.00
716.3480, 10560.00
717.4980, 10614.00
718.6480, 10804.00
719.7980, 10716.00
720.9470, 10637.00
722.0970, 10618.00
723.2460, 10632.72
724.3960, 10746.00
725.5450, 10738.00
726.6940, 10810.00
727.8420, 10868.00
728.9910, 10885.00
730.1390, 10943.00
731.2870, 11038.00
732.4350, 11033.00
733.5830, 11171.00
734.7310, 11292.00
735.8790, 11302.00
737.0260, 11449.00
738.1730, 11644.00
739.3200, 11879.00
740.4670, 12078.00
741.6140, 12386.00
742.7610, 12688.00
743.9070, 13014.00
745.0530, 13394.00
746.1990, 13647.00
747.3450, 14075.00
748.4910, 14035.00
749.6370, 13990.00
750.7820, 13825.00
751.9270, 13548.00
753.0720, 13218.00
754.2170, 12795.00
755.3620, 12503.00
756.5070, 12307.00
757.6510, 12095.00
758.7950, 11938.00
759.9400, 11871.00
761.0840, 11915.00
762.2270, 11765.00
763.3710, 11883.00
764.5140, 11811.00
765.6580, 11895.00
766.8010, 11912.00
767.9440, 11947.00
769.0870, 11724.00
770.2290, 11700.00
771.3720, 11622.00
772.5140, 11643.00
773.6560, 11468.00
774.7990, 11471.00
775.9400, 11269.00
777.0820, 11306.00
778.2240, 11406.00
779.3650, 11196.00
780.5060, 11270.00
781.6470, 11359.00
782.7880, 11456.00
783.9290, 11332.00
785.0690, 11263.00
786.2100, 11369.00
787.3500, 11263.00
788.4900, 11365.00
789.6300, 11194.00
790.7700, 11418.00
791.9090, 11374.00
793.0490, 11516.00
794.1880, 11462.00
795.3270, 11400.00
796.4660, 11419.00
797.6050, 11502.00
798.7440, 11674.00
799.8820, 11649.00
801.0200, 11825.00
802.1590, 11933.00
803.2970, 12265.00
804.4340, 12240.00
805.5720, 12711.00
806.7100, 12915.00
807.8470, 13316.00
808.9840, 13716.00
810.1210, 14168.00
811.2580, 14389.00
812.3950, 14533.00
813.5310, 14480.00
814.6680, 14301.00
815.8040, 13761.00
816.9400, 13433.00
818.0760, 12983.00
819.2120, 12529.00
820.3470, 12171.00
821.4830, 11997.00
822.6180, 11919.00
823.7530, 11770.00
824.8880, 11648.00
826.0230, 11656.00
827.1580, 11642.00
828.2920, 11586.45
829.4270, 11544.00
830.5610, 11528.00
831.6950, 11556.00
832.8290, 11528.00
833.9620, 11560.62
835.0960, 11547.47
836.2290, 11535.65
837.3620, 11524.00
838.4950, 11503.00
839.6280, 11472.00
840.7610, 11445.00
841.8940, 11433.00
843.0260, 11452.06
844.1580, 11533.00
845.2910, 11506.00
846.4230, 11545.00
847.5540, 11552.00
848.6860, 11557.00
849.8170, 11554.00
850.9490, 11580.00
852.0800, 11483.00
853.2110, 11586.00
854.3420, 11572.00
855.4730, 11544.00
856.6030, 11607.00
857.7340, 11470.00
858.8640, 11532.00
859.9940, 11550.00
861.1240, 11494.00
862.2540, 11616.00
863.3830, 11518.00
864.5130, 11659.00
865.6420, 11572.00
866.7710, 11582.00
867.9000, 11600.00
869.0290, 11623.00
870.1570, 11640.00
871.2860, 11670.00
872.4140, 11658.00
873.5430, 11656.32
874.6710, 11638.00
875.7980, 11623.00
876.9260, 11626.00
878.0540, 11612.00
879.1810, 11721.00
880.3080, 11789.00
881.4360, 11610.00
882.5630, 11771.00
883.6890, 11695.00
884.8160, 11608.00
885.9420, 11717.00
887.0690, 11750.00
888.1950, 11721.00
889.3210, 11786.00
890.4470, 11836.00
891.5730, 11888.00
892.6980, 11897.28
893.8240, 11879.96
894.9490, 11867.00
896.0740, 11836.00
897.1990, 11754.00
898.3240, 11811.00
899.4480, 11784.00
900.5730, 11779.39
901.6970, 11939.00
902.8210, 11815.00
903.9450, 11855.00
905.0690, 11940.00
906.1930, 12085.00
907.3160, 11970.00
908.4400, 11958.00
909.5630, 11979.00
910.6860, 11827.00
911.8090, 12001.00
912.9320, 11984.00
914.0550, 12008.00
915.1770, 12007.00
916.2990, 12058.89
917.4210, 12164.00
918.5440, 12166.00
919.6650, 12301.00
920.7870, 12334.00
921.9090, 12139.00
923.0300, 12284.00
924.1510, 12210.00
925.2720, 12276.00
926.3930, 12086.00
927.5140, 12233.00
928.6350, 12164.00
929.7550, 12254.00
930.8760, 12252.00
931.9960, 12274.00
933.1160, 12140.00
934.2360, 12164.00
935.3550, 12171.57
936.4750, 12171.00
937.5940, 12254.00
938.7140, 12252.00
939.8330, 12330.00
940.9520, 12333.00
942.0710, 12333.87
943.1890, 12221.00
944.3080, 12347.00
945.4260, 12273.00
946.5440, 12345.00
947.6620, 12386.00
948.7800, 12363.00
949.8980, 12371.00
951.0160, 12383.00
952.1330, 12587.00
953.2500, 12475.00
954.3680, 12637.00
955.4850, 12646.00
956.6010, 12522.00
957.7180, 12702.00
958.8350, 12581.00
959.9510, 12694.00
961.0670, 12542.00
962.1830, 12672.00
963.2990, 12693.00
964.4150, 12717.00
965.5310, 12639.00
966.6460, 12734.00
967.7620, 12647.00
968.8770, 12823.00
969.9920, 12644.00
971.1070, 12766.00
972.2210, 12863.00
973.3360, 12832.00
974.4500, 12835.00
975.5650, 13026.00
976.6790, 12893.00
977.7930, 13035.00
978.9070, 13011.00
980.0200, 13175.00
981.1340, 13204.89
982.2470, 13358.07
983.3610, 13320.00
984.4740, 13634.00
985.5870, 13742.00
986.6990, 13760.00
987.8120, 13742.00
988.9250, 14175.00
990.0370, 14409.00
991.1490, 14655.00
992.2610, 14829.00
993.3730, 15032.00
994.4850, 15197.00
995.5960, 15320.00
996.7080, 15183.00
997.8190, 15146.00
998.9300, 15028.00
1000.041, 15068.00
1001.152, 15111.00
1002.263, 15028.00
1003.373, 14914.00
1004.484, 14894.00
1005.594, 14781.00
1006.704, 14349.00
1007.814, 14211.00
1008.924, 14076.00
1010.034, 14051.00
1011.143, 13756.00
1012.253, 13739.00
1013.362, 13629.00
1014.471, 13687.00
1015.580, 13626.00
1016.689, 13597.00
1017.797, 13506.00
1018.906, 13438.00
1020.014, 13621.00
1021.122, 13727.00
1022.230, 13707.45
1023.338, 13737.00
1024.446, 13700.00
1025.554, 13680.00
1026.661, 13615.00
1027.768, 14008.00
1028.875, 13897.00
1029.983, 14004.00
1031.089, 13956.00
1032.196, 14098.00
1033.303, 14156.00
1034.409, 14409.00
1035.515, 14438.00
1036.622, 14537.00
1037.728, 14612.00
1038.833, 14505.00
1039.939, 14514.00
1041.045, 14418.00
1042.150, 14351.91
1043.255, 14293.00
1044.360, 14176.00
1045.465, 14149.00
1046.570, 14013.00
1047.675, 13978.00
1048.779, 14002.00
1049.884, 14042.00
1050.988, 13990.00
1052.092, 13978.00
1053.196, 13891.00
1054.300, 13799.00
1055.404, 13719.00
1056.507, 13646.00
1057.610, 13541.00
1058.714, 13571.00
1059.817, 13590.00
1060.920, 13596.00
1062.022, 13543.00
1063.125, 13455.00
1064.228, 13506.00
1065.330, 13681.00
1066.432, 13444.00
1067.534, 13711.00
1068.636, 13471.00
1069.738, 13614.00
1070.840, 13678.00
1071.941, 13626.00
1073.042, 13704.00
1074.144, 13545.00
1075.245, 13777.00
1076.346, 13614.00
1077.446, 13720.00
1078.547, 13647.00
1079.647, 13823.00
1080.748, 13849.00
1081.848, 13754.00
1082.948, 13663.00
1084.048, 13827.00
1085.148, 13947.00
1086.247, 14034.00
1087.347, 13965.00
1088.446, 13946.00
1089.545, 13973.00
1090.644, 14098.00
1091.743, 14005.00
1092.842, 14232.00
1093.940, 14394.00
1095.039, 14270.00
1096.137, 14664.00
1097.235, 14217.00
1098.333, 14542.00
1099.431, 14558.00
1100.529, 14578.00
1101.627, 14577.00
1102.724, 14409.00
1103.822, 14455.00
1104.919, 14402.00
1106.016, 14572.00
1107.113, 14673.00
1108.209, 14580.00
1109.306, 14736.00
1110.402, 14865.00
1111.499, 14871.00
1112.595, 15269.00
1113.691, 15299.00
1114.787, 15664.00
1115.883, 16092.00
1116.978, 16617.00
1118.074, 17074.00
1119.169, 17425.00
1120.264, 17778.99
1121.359, 18049.87
1122.454, 18249.00
1123.549, 18359.00
1124.644, 18391.00
1125.738, 18221.00
1126.832, 17981.00
1127.927, 17835.00
1129.021, 17545.00
1130.115, 17706.00
1131.208, 17716.00
1132.302, 17800.00
1133.396, 18059.00
1134.489, 18261.00
1135.582, 18519.00
1136.675, 18644.00
1137.768, 18610.00
1138.861, 18515.00
1139.954, 18496.00
1141.046, 17848.00
1142.138, 17490.00
1143.231, 17163.00
1144.323, 16688.00
1145.415, 16309.00
1146.507, 15957.00
1147.598, 15693.00
1148.690, 15534.00
1149.781, 15333.00
1150.872, 15163.00
1151.964, 15076.00
1153.054, 14939.00
1154.145, 14904.00
1155.236, 14756.00
1156.327, 14910.00
1157.417, 14855.00
1158.507, 14574.00
1159.597, 14832.00
1160.687, 14555.00
1161.777, 14598.00
1162.867, 14511.00
1163.956, 14582.00
1165.046, 14572.48
1166.135, 14485.00
1167.224, 14587.00
1168.313, 14516.00
1169.402, 14481.00
1170.491, 14408.00
1171.580, 14388.85
1172.668, 14408.00
1173.756, 14427.00
1174.845, 14420.00
1175.933, 14604.00
1177.020, 14373.00
1178.108, 14393.00
1179.196, 14465.00
1180.283, 14325.00
1181.371, 14496.00
1182.458, 14395.00
1183.545, 14404.00
1184.632, 14481.00
1185.719, 14521.00
1186.805, 14388.00
1187.892, 14317.00
1188.978, 14421.00
1190.065, 14514.00
1191.151, 14550.00
1192.237, 14555.00
1193.323, 14473.00
1194.408, 14304.00
1195.494, 14389.00
1196.579, 14369.00
1197.664, 14456.00
1198.750, 14454.00
1199.835, 14425.00
1200.919, 14577.00
1202.004, 14745.00
1203.089, 14556.00
1204.173, 14372.00
1205.258, 14420.00
1206.342, 14622.00
1207.426, 14710.00
1208.510, 14707.00
1209.594, 14627.00
1210.677, 14681.00
1211.761, 14797.00
1212.844, 14583.00
1213.927, 14700.00
1215.010, 14618.00
1216.093, 14654.00
1217.176, 14606.00
1218.259, 14805.00
1219.341, 14714.00
1220.424, 14786.00
1221.506, 14661.00
1222.588, 14659.00
1223.670, 14678.00
1224.752, 14727.00
1225.834, 14900.00
1226.915, 14669.00
1227.997, 14624.00
1229.078, 14787.00
1230.159, 14659.00
1231.240, 14693.00
1232.321, 14873.00
1233.402, 14744.00
1234.483, 14842.00
1235.563, 14760.00
1236.644, 14706.00
1237.724, 14795.00
1238.804, 14912.00
1239.884, 14866.00
1240.964, 14813.00
1242.044, 14924.00
1243.123, 14867.00
1244.203, 14717.00
1245.282, 14868.00
1246.361, 14960.00
1247.440, 14800.00
1248.519, 14846.00
1249.598, 14909.00
1250.676, 14934.00
1251.755, 14850.00
1252.833, 14899.00
1253.911, 15054.00
1254.989, 15015.00
1256.067, 14865.00
1257.145, 14954.00
1258.223, 14805.00
1259.300, 14935.00
1260.378, 14908.00
1261.455, 15052.00
1262.532, 15102.00
1263.609, 15044.00
1264.686, 15021.00
1265.763, 15084.00
1266.840, 15044.00
1267.916, 15082.00
1268.992, 14979.00
1270.069, 15108.00
1271.145, 15211.00
1272.221, 15094.00
1273.296, 15107.00
1274.372, 15099.00
1275.448, 15136.00
1276.523, 15185.00
1277.598, 15236.00
1278.673, 15123.00
1279.749, 15250.00
1280.823, 15218.00
1281.898, 15101.00
1282.973, 15179.00
1284.047, 15163.00
1285.122, 15307.00
1286.196, 15096.00
1287.270, 15267.00
1288.344, 15305.00
1289.418, 15166.00
1290.491, 15282.00
1291.565, 15314.00
1292.638, 15367.00
1293.712, 15376.00
1294.785, 15308.00
1295.858, 15196.00
1296.931, 15450.00
1298.003, 15382.00
1299.076, 15456.00
1300.149, 15380.00
1301.221, 15277.00
1302.293, 15512.00
1303.365, 15357.00
1304.437, 15434.00
1305.509, 15408.00
1306.581, 15488.00
1307.652, 15392.00
1308.724, 15368.00
1309.795, 15337.00
1310.866, 15504.00
1311.937, 15564.00
1313.008, 15649.00
1314.079, 15647.86
1315.150, 15436.00
1316.220, 15537.00
1317.291, 15522.00
1318.361, 15382.00
1319.431, 15738.00
1320.501, 15654.00
1321.571, 15598.00
1322.641, 15661.00
1323.710, 15669.00
1324.780, 15561.00
1325.849, 15690.00
1326.918, 15598.00
1327.987, 15558.00
1329.056, 15784.00
1330.125, 15785.00
1331.194, 15701.00
1332.263, 15554.00
1333.331, 15720.00
1334.399, 15719.00
1335.467, 15703.00
1336.535, 15743.00
1337.603, 15687.00
1338.671, 15579.00
1339.739, 15824.00
1340.806, 15640.00
1341.874, 15927.00
1342.941, 15944.00
1344.008, 15866.00
1345.075, 15852.00
1346.142, 15946.00
1347.209, 15758.00
1348.275, 15802.00
1349.342, 15837.00
1350.408, 15720.00
1351.475, 15872.00
1352.541, 15910.00
1353.607, 16056.00
1354.673, 15804.00
1355.738, 16078.00
1356.804, 15830.00
1357.869, 15848.00
1358.935, 15902.00
1360.000, 15882.00
1361.065, 15860.00
1362.130, 15915.00
1363.195, 16011.00
1364.259, 15943.00
1365.324, 16062.00
1366.388, 15963.00
1367.453, 15971.00
1368.517, 16087.00
1369.581, 16096.00
1370.645, 16000.00
1371.709, 16090.00
1372.772, 16038.00
1373.836, 16137.00
1374.899, 16118.00
1375.963, 16262.00
1377.026, 16098.00
1378.089, 15903.00
1379.152, 16163.00
1380.214, 16206.00
1381.277, 15938.00
1382.340, 16226.00
1383.402, 16114.00
1384.464, 16003.00
1385.526, 16117.00
1386.588, 16291.00
1387.650, 16149.00
1388.712, 16238.00
1389.774, 16214.00
1390.835, 16186.00
1391.896, 16327.00
1392.958, 16225.00
1394.019, 16442.00
1395.080, 16301.00
1396.141, 16180.00
1397.201, 16251.00
1398.262, 16282.00
1399.323, 16181.00
1400.383, 16391.00
1401.443, 16315.00
1402.503, 16414.00
1403.563, 16424.00
1404.623, 16311.00
1405.683, 16380.00
1406.742, 16381.00
1407.802, 16286.00
1408.861, 16262.00
1409.920, 16427.00
1410.980, 16403.00
1412.039, 16505.00
1413.097, 16501.91
1414.156, 16531.00
1415.215, 16478.00
1416.273, 16558.00
1417.331, 16575.00
1418.390, 16594.00
1419.448, 16648.17
1420.506, 16401.00
1421.564, 16672.00
1422.621, 16491.00
1423.679, 16370.00
1424.736, 16403.00
1425.794, 16580.00
1426.851, 16682.00
1427.908, 16633.00
1428.965, 16426.00
1430.022, 16716.00
1431.079, 16606.00
1432.135, 16631.00
1433.192, 16624.00
1434.248, 16604.00
1435.304, 16663.00
1436.360, 16690.00
1437.416, 16699.26
1438.472, 16738.00
1439.528, 16746.00
1440.583, 16779.00
1441.639, 16829.00
1442.694, 16673.00
1443.749, 16792.00
1444.804, 16726.00
1445.859, 16635.00
1446.914, 16708.00
1447.969, 16651.00
1449.024, 16869.00
1450.078, 16512.00
1451.132, 16785.00
1452.187, 16993.00
1453.241, 16734.00
1454.295, 16834.00
1455.349, 16839.00
1456.402, 16814.00
1457.456, 16934.00
1458.509, 16971.00
1459.563, 17027.00
1460.616, 17050.00
1461.669, 17040.06
1462.722, 17001.00
1463.775, 16931.00
1464.828, 16985.00
1465.880, 16807.00
1466.933, 17016.00
1467.985, 17003.00
1469.037, 17053.00
1470.090, 17240.00
1471.142, 17078.00
1472.193, 17030.00
1473.245, 17089.00
1474.297, 16987.00
1475.348, 17177.00
1476.400, 17061.00
1477.451, 17041.00
1478.502, 16927.00
1479.553, 16990.00
1480.604, 17078.00
1481.655, 17082.00
1482.706, 17063.00
1483.756, 17104.03
1484.807, 17052.00
1485.857, 17117.00
1486.907, 17057.00
1487.957, 17046.00
1489.007, 17138.00
1490.057, 17095.00
1491.106, 17165.00
1492.156, 17238.00
1493.205, 17184.00
1494.255, 17259.00
1495.304, 17226.00
1496.353, 17159.00
1497.402, 17294.00
1498.451, 17429.00
1499.500, 17312.00
1500.548, 17249.00
1501.597, 17249.00
1502.645, 17261.00
1503.693, 17418.00
1504.741, 17237.00
1505.789, 17310.00
1506.837, 17103.00
1507.885, 17438.00
1508.932, 17409.00
1509.980, 17354.00
1511.027, 17406.00
1512.075, 17428.00
1513.122, 17282.00
1514.169, 17298.00
1515.216, 17461.00
1516.262, 17408.00
1517.309, 17500.00
1518.356, 17484.00
1519.402, 17404.00
1520.448, 17390.00
1521.495, 17531.00
1522.541, 17508.00
1523.587, 17577.00
1524.632, 17628.00
1525.678, 17570.00
1526.724, 17439.00
1527.769, 17417.00
1528.814, 17440.75
1529.860, 17548.00
1530.905, 17550.00
1531.950, 17522.00
1532.995, 17549.00
1534.039, 17581.72
1535.084, 17518.00
1536.128, 17675.00
1537.173, 17679.00
1538.217, 17704.00
1539.261, 17637.00
1540.305, 17646.00
1541.349, 17646.00
1542.393, 17745.00
1543.436, 17697.93
1544.480, 17737.10
1545.523, 17658.00
1546.567, 17727.00
1547.610, 17712.00
1548.653, 17638.00
1549.696, 17732.00
1550.739, 17697.00
1551.781, 17705.00
1552.824, 17788.00
1553.867, 17713.00
1554.909, 17915.00
1555.951, 17760.00
1556.993, 17940.00
1558.035, 17938.00
1559.077, 17917.00
1560.119, 17869.00
1561.161, 17787.00
1562.202, 17910.00
1563.243, 17750.00
1564.285, 17903.00
1565.326, 17990.00
##END=



