##NAMES=Microcline
##RRUFFID=R050150
##IDEAL CHEMISTRY=KAlSi_3_O_8_
##LOCALITY=Crystal Peak area, Park/Teller Counties, Colorado, USA
##OWNER=RRUFF
##SOURCE=Dave Bunk Minerals
##DESCRIPTION=Pale blue prismatic crystals
##STATUS=The identification of this mineral has been confirmed by X-ray diffraction and chemical analysis
##URL=rruff.info/R050150
##MEASURED CHEMISTRY=(K_0.95_Na_0.05_)_Î£=1_Al_1.00_Si_3.00_O_8_
##PIN_ID=L01075
##ORIENTATION=Laser parallel to (0 1 1). Fiducial mark perpendicular to laser is parallel to a [1 0 0]
131.4920, 9550.000
132.7300, 9097.000
133.9690, 8759.000
135.2070, 8610.000
136.4450, 8637.000
137.6830, 8831.000
138.9210, 9189.000
140.1580, 9652.000
141.3950, 10049.00
142.6330, 10598.00
143.8690, 11427.00
145.1060, 12631.00
146.3430, 13782.00
147.5790, 15049.00
148.8150, 15651.00
150.0510, 15642.00
151.2870, 14946.00
152.5220, 14061.00
153.7580, 12995.00
154.9930, 12044.00
156.2280, 11083.00
157.4620, 10239.00
158.6970, 9730.000
159.9310, 9415.000
161.1660, 8919.000
162.4000, 8706.000
163.6330, 8561.000
164.8670, 8511.000
166.1000, 8643.000
167.3340, 8789.000
168.5670, 9098.000
169.8000, 9634.000
171.0320, 10130.00
172.2650, 10770.00
173.4970, 11925.00
174.7290, 13292.00
175.9610, 14732.00
177.1930, 15860.00
178.4240, 15846.00
179.6550, 15348.00
180.8870, 14226.00
182.1170, 13010.00
183.3480, 11956.00
184.5790, 10811.00
185.8090, 10160.00
187.0390, 9611.000
188.2690, 9173.000
189.4990, 9003.000
190.7290, 9019.000
191.9580, 9007.000
193.1870, 9310.000
194.4160, 9707.000
195.6450, 10086.00
196.8740, 10408.00
198.1020, 10501.00
199.3310, 10533.00
200.5590, 10016.00
201.7870, 9599.000
203.0140, 9114.000
204.2420, 8600.000
205.4690, 8195.000
206.6960, 7775.000
207.9230, 7613.000
209.1500, 7527.000
210.3760, 7351.000
211.6030, 7355.000
212.8290, 7372.000
214.0550, 7322.000
215.2810, 7333.149
216.5060, 7238.000
217.7320, 7301.000
218.9570, 7254.000
220.1820, 7209.000
221.4070, 7228.000
222.6320, 7277.000
223.8560, 7319.000
225.0800, 7437.000
226.3040, 7268.000
227.5280, 7408.000
228.7520, 7349.000
229.9760, 7319.000
231.1990, 7300.000
232.4220, 7319.000
233.6450, 7450.000
234.8680, 7328.000
236.0910, 7490.000
237.3130, 7484.000
238.5350, 7508.000
239.7570, 7445.000
240.9790, 7529.000
242.2010, 7528.000
243.4220, 7620.000
244.6430, 7781.000
245.8640, 7916.000
247.0850, 8146.000
248.3060, 8554.000
249.5270, 8752.000
250.7470, 9132.000
251.9670, 9616.000
253.1870, 10471.00
254.4070, 11095.00
255.6260, 12032.00
256.8460, 12666.00
258.0650, 13284.00
259.2840, 13851.00
260.5030, 14572.00
261.7220, 15031.00
262.9400, 15492.00
264.1580, 16028.00
265.3760, 16115.00
266.5940, 15634.00
267.8120, 15221.00
269.0290, 14439.00
270.2470, 13511.00
271.4640, 12747.00
272.6810, 12099.00
273.8980, 11618.00
275.1140, 11444.00
276.3310, 11548.00
277.5470, 11790.00
278.7630, 12301.00
279.9790, 12812.00
281.1940, 13872.00
282.4100, 14541.00
283.6250, 15356.00
284.8400, 15685.00
286.0550, 15594.00
287.2700, 15009.00
288.4850, 14210.00
289.6990, 13455.00
290.9130, 12279.00
292.1270, 11672.00
293.3410, 11138.00
294.5540, 10564.00
295.7680, 10226.00
296.9810, 10071.00
298.1940, 9668.000
299.4070, 9448.000
300.6200, 9084.000
301.8320, 8804.000
303.0450, 8444.000
304.2570, 8336.000
305.4690, 8103.000
306.6800, 7984.000
307.8920, 7920.000
309.1030, 7750.000
310.3150, 7627.000
311.5260, 7632.000
312.7360, 7600.000
313.9470, 7518.000
315.1580, 7577.000
316.3680, 7493.000
317.5780, 7614.000
318.7880, 7662.000
319.9980, 7587.000
321.2070, 7705.000
322.4170, 7666.000
323.6260, 7680.000
324.8350, 7889.000
326.0430, 7928.000
327.2520, 8099.000
328.4610, 8140.000
329.6690, 8115.000
330.8770, 8388.000
332.0850, 8422.000
333.2920, 8260.000
334.5000, 8098.000
335.7070, 8176.000
336.9140, 8091.000
338.1210, 7939.000
339.3280, 7972.000
340.5350, 7873.000
341.7410, 7926.000
342.9470, 7818.000
344.1540, 7811.000
345.3590, 7931.000
346.5650, 7869.000
347.7710, 7918.000
348.9760, 8132.000
350.1810, 8053.000
351.3860, 8141.000
352.5910, 8224.000
353.7950, 8368.000
355.0000, 8442.000
356.2040, 8468.000
357.4080, 8541.000
358.6120, 8496.000
359.8150, 8465.000
361.0190, 8453.000
362.2220, 8315.000
363.4250, 8412.000
364.6280, 8242.000
365.8310, 8221.000
367.0340, 8290.000
368.2360, 8407.000
369.4380, 8493.000
370.6400, 8546.000
371.8420, 8535.000
373.0440, 8602.000
374.2450, 8423.000
375.4470, 8470.000
376.6480, 8260.000
377.8490, 8162.000
379.0490, 7969.000
380.2500, 7961.000
381.4500, 7930.000
382.6510, 7954.000
383.8510, 7961.000
385.0500, 7929.000
386.2500, 7950.000
387.4500, 7990.000
388.6490, 8014.000
389.8480, 8030.000
391.0470, 8269.000
392.2460, 8338.000
393.4440, 8571.000
394.6430, 8787.000
395.8410, 9026.000
397.0390, 9434.000
398.2370, 9916.000
399.4340, 10576.00
400.6320, 11192.00
401.8290, 11619.00
403.0260, 11988.00
404.2230, 11818.00
405.4200, 11413.00
406.6170, 10958.00
407.8130, 10656.00
409.0090, 10350.00
410.2050, 10445.00
411.4010, 10287.00
412.5970, 10128.00
413.7920, 9909.000
414.9880, 9591.000
416.1830, 9149.000
417.3780, 8877.000
418.5730, 8743.000
419.7670, 8381.000
420.9620, 8316.000
422.1560, 8288.000
423.3500, 8299.000
424.5440, 8273.000
425.7380, 8288.000
426.9310, 8290.000
428.1240, 8355.000
429.3180, 8369.000
430.5110, 8327.000
431.7030, 8512.000
432.8960, 8400.000
434.0890, 8521.000
435.2810, 8654.000
436.4730, 8773.000
437.6650, 8846.000
438.8570, 9107.000
440.0480, 9247.000
441.2390, 9602.000
442.4310, 10056.00
443.6220, 10444.00
444.8120, 11319.00
446.0030, 12042.00
447.1940, 12912.00
448.3840, 14041.00
449.5740, 15485.00
450.7640, 17015.00
451.9540, 18362.00
453.1430, 19153.00
454.3330, 19208.00
455.5220, 18725.00
456.7110, 17605.00
457.9000, 16428.00
459.0890, 15263.00
460.2770, 14660.00
461.4650, 14121.00
462.6540, 13923.00
463.8420, 14249.00
465.0290, 14911.00
466.2170, 16141.00
467.4050, 17610.00
468.5920, 19582.00
469.7790, 21609.00
470.9660, 24591.00
472.1530, 27344.00
473.3390, 30285.00
474.5250, 31941.00
475.7120, 32364.00
476.8980, 31514.00
478.0840, 29313.00
479.2690, 26414.00
480.4550, 23621.00
481.6400, 21351.00
482.8250, 19485.00
484.0100, 17974.00
485.1950, 16724.00
486.3800, 15434.00
487.5640, 14306.00
488.7480, 13399.00
489.9320, 12656.78
491.1160, 12174.00
492.3000, 11771.00
493.4840, 11635.00
494.6670, 11719.00
495.8500, 11716.00
497.0330, 12066.00
498.2160, 12457.00
499.3990, 13076.00
500.5810, 14130.00
501.7630, 15428.00
502.9460, 17395.00
504.1280, 19671.00
505.3090, 22860.00
506.4910, 26622.00
507.6720, 30713.00
508.8540, 36077.00
510.0350, 41659.00
511.2160, 47014.00
512.3960, 50367.00
513.5770, 50807.00
514.7570, 48575.00
515.9380, 44101.00
517.1180, 38536.00
518.2970, 32510.00
519.4770, 27413.00
520.6570, 23137.00
521.8360, 20069.00
523.0150, 17542.00
524.1940, 15862.00
525.3730, 14519.00
526.5510, 13776.00
527.7300, 12886.00
528.9080, 12279.00
530.0860, 11831.00
531.2640, 11354.00
532.4420, 11072.00
533.6200, 10870.00
534.7970, 10618.00
535.9740, 10563.00
537.1510, 10347.58
538.3280, 10077.00
539.5050, 10049.00
540.6810, 9892.000
541.8580, 9765.000
543.0340, 9777.000
544.2100, 9621.000
545.3860, 9704.000
546.5610, 9567.000
547.7370, 9469.000
548.9120, 9437.000
550.0870, 9316.000
551.2620, 9270.000
552.4370, 9475.000
553.6120, 9472.000
554.7860, 9443.000
555.9600, 9323.000
557.1340, 9376.000
558.3080, 9379.000
559.4820, 9231.000
560.6560, 9288.000
561.8290, 9412.000
563.0020, 9366.000
564.1750, 9193.000
565.3480, 9382.000
566.5210, 9196.000
567.6930, 9354.000
568.8660, 9197.000
570.0380, 9240.000
571.2100, 9251.000
572.3820, 9288.000
573.5530, 9282.000
574.7250, 9278.000
575.8960, 9370.000
577.0670, 9304.000
578.2380, 9392.000
579.4090, 9466.000
580.5800, 9598.000
581.7500, 9499.000
582.9210, 9507.000
584.0910, 9546.000
585.2610, 9540.000
586.4300, 9442.000
587.6000, 9403.000
588.7690, 9283.000
589.9390, 9287.000
591.1080, 9109.000
592.2770, 9201.000
593.4450, 9118.000
594.6140, 9158.000
595.7820, 9198.000
596.9500, 9072.000
598.1190, 9147.000
599.2860, 9234.000
600.4540, 9147.000
601.6220, 9057.000
602.7890, 9155.000
603.9560, 9239.000
605.1230, 9110.000
606.2900, 9112.000
607.4570, 9184.000
608.6230, 9251.000
609.7890, 9213.000
610.9560, 9142.000
612.1220, 9328.000
613.2870, 9404.000
614.4530, 9254.000
615.6180, 9285.000
616.7840, 9260.000
617.9490, 9357.000
619.1140, 9415.000
620.2790, 9457.000
621.4430, 9548.000
622.6080, 9600.376
623.7720, 9620.000
624.9360, 9728.000
626.1000, 9755.000
627.2640, 9804.000
628.4270, 9806.000
629.5910, 9833.000
630.7540, 9897.000
631.9170, 10022.00
633.0800, 10076.00
634.2430, 10169.00
635.4050, 10140.00
636.5680, 10194.00
637.7300, 10252.00
638.8920, 10425.00
640.0540, 10625.00
641.2150, 10729.00
642.3770, 10843.00
643.5380, 10952.00
644.7000, 11086.00
645.8610, 11118.00
647.0210, 11317.00
648.1820, 11394.00
649.3430, 11608.00
650.5030, 11674.00
651.6630, 11817.00
652.8230, 11848.00
653.9830, 11649.00
655.1430, 11574.00
656.3020, 11524.00
657.4620, 11380.00
658.6210, 11055.00
659.7800, 10935.00
660.9390, 10617.00
662.0970, 10661.00
663.2560, 10291.00
664.4140, 10153.00
665.5720, 10273.00
666.7300, 10036.00
667.8880, 10009.00
669.0460, 9856.000
670.2030, 9815.000
671.3600, 9772.000
672.5180, 9622.000
673.6740, 9573.000
674.8310, 9574.000
675.9880, 9561.000
677.1440, 9595.000
678.3010, 9471.000
679.4570, 9541.000
680.6130, 9540.000
681.7690, 9641.000
682.9240, 9555.000
684.0800, 9586.000
685.2350, 9551.000
686.3900, 9622.000
687.5450, 9607.000
688.7000, 9621.973
689.8540, 9523.000
691.0090, 9615.000
692.1630, 9546.000
693.3170, 9472.000
694.4710, 9453.000
695.6250, 9399.000
696.7780, 9470.000
697.9320, 9551.000
699.0850, 9550.000
700.2380, 9607.000
701.3910, 9529.000
702.5440, 9634.000
703.6970, 9784.000
704.8490, 9630.000
706.0010, 9738.000
707.1530, 9780.000
708.3050, 9735.000
709.4570, 9812.912
710.6090, 9961.000
711.7600, 9843.000
712.9110, 9902.000
714.0620, 9863.000
715.2130, 9953.000
716.3640, 9750.000
717.5150, 9796.000
718.6650, 9854.000
719.8150, 9750.000
720.9650, 10007.00
722.1150, 9822.000
723.2650, 10077.00
724.4150, 9839.000
725.5640, 9891.000
726.7130, 9982.000
727.8630, 9873.000
729.0110, 10046.00
730.1600, 10135.00
731.3090, 10187.00
732.4570, 10241.00
733.6060, 10319.00
734.7540, 10539.00
735.9020, 10762.00
737.0490, 10886.00
738.1970, 11090.00
739.3440, 11319.00
740.4920, 11659.27
741.6390, 12085.00
742.7860, 12512.00
743.9320, 13055.00
745.0790, 13635.00
746.2250, 14110.00
747.3720, 14605.00
748.5180, 14994.00
749.6640, 14938.00
750.8100, 14745.00
751.9550, 14275.00
753.1010, 13619.00
754.2460, 12918.00
755.3910, 12296.00
756.5360, 11953.00
757.6810, 11623.00
758.8250, 11291.00
759.9700, 11046.00
761.1140, 10899.00
762.2580, 10755.00
763.4020, 10604.00
764.5460, 10521.88
765.6900, 10335.00
766.8330, 10358.00
767.9760, 10376.00
769.1200, 10276.00
770.2620, 10254.00
771.4050, 10144.00
772.5480, 10071.00
773.6900, 10104.00
774.8330, 10069.00
775.9750, 10135.00
777.1170, 9967.000
778.2590, 9940.000
779.4000, 10085.00
780.5420, 9892.000
781.6830, 10037.00
782.8240, 10064.00
783.9650, 9912.000
785.1060, 10073.00
786.2470, 10064.00
787.3870, 9946.000
788.5280, 10006.00
789.6680, 10038.00
790.8080, 10110.00
791.9480, 10063.00
793.0870, 9987.000
794.2270, 10022.00
795.3660, 10005.19
796.5060, 10008.02
797.6450, 10083.00
798.7830, 10071.00
799.9220, 10179.00
801.0610, 10282.00
802.1990, 10240.00
803.3370, 10209.00
804.4750, 10455.00
805.6130, 10550.00
806.7510, 10693.00
807.8890, 10868.00
809.0260, 11094.00
810.1630, 11213.00
811.3000, 11487.00
812.4370, 11742.00
813.5740, 11635.00
814.7110, 11601.00
815.8470, 11336.00
816.9830, 11049.00
818.1190, 10860.00
819.2550, 10535.00
820.3910, 10536.00
821.5270, 10539.00
822.6620, 10304.00
823.7970, 10230.00
824.9330, 10357.00
826.0670, 10083.00
827.2020, 10149.00
828.3370, 10182.00
829.4710, 10158.00
830.6060, 10092.00
831.7400, 10136.00
832.8740, 10148.00
834.0080, 10160.00
835.1410, 10062.00
836.2750, 10080.00
837.4080, 10016.00
838.5410, 10091.00
839.6740, 10050.00
840.8070, 10030.00
841.9400, 10139.00
843.0730, 10129.75
844.2050, 10084.00
845.3370, 10207.00
846.4690, 10119.00
847.6010, 10111.00
848.7330, 10094.00
849.8640, 10012.00
850.9960, 10303.00
852.1270, 10175.00
853.2580, 10088.00
854.3890, 10212.00
855.5200, 10075.00
856.6500, 10257.00
857.7810, 10235.00
858.9110, 10088.00
860.0410, 10255.00
861.1710, 10147.00
862.3010, 10187.00
863.4310, 10017.00
864.5600, 10173.00
865.6900, 10295.00
866.8190, 10253.00
867.9480, 10155.00
869.0770, 10196.00
870.2050, 10241.00
871.3340, 10214.00
872.4620, 10311.00
873.5900, 10360.00
874.7180, 10191.00
875.8460, 10319.00
876.9740, 10262.00
878.1010, 10265.00
879.2290, 10178.00
880.3560, 10275.00
881.4830, 10129.00
882.6100, 10226.00
883.7370, 10376.00
884.8630, 10280.00
885.9900, 10161.00
887.1160, 10311.00
888.2420, 10373.00
889.3680, 10381.00
890.4940, 10335.00
891.6200, 10356.00
892.7450, 10286.00
893.8700, 10363.00
894.9960, 10269.00
896.1210, 10459.00
897.2460, 10290.00
898.3700, 10389.00
899.4950, 10231.00
900.6190, 10372.00
901.7430, 10293.00
902.8670, 10309.00
903.9910, 10407.00
905.1150, 10269.00
906.2390, 10492.00
907.3620, 10383.00
908.4850, 10480.00
909.6080, 10461.00
910.7310, 10463.00
911.8540, 10442.00
912.9770, 10451.00
914.0990, 10446.41
915.2210, 10404.00
916.3440, 10442.00
917.4660, 10498.00
918.5870, 10487.00
919.7090, 10421.00
920.8310, 10555.00
921.9520, 10667.00
923.0730, 10613.00
924.1940, 10617.00
925.3150, 10570.00
926.4360, 10537.00
927.5560, 10556.00
928.6770, 10572.00
929.7970, 10572.48
930.9170, 10589.50
932.0370, 10606.00
933.1570, 10614.00
934.2760, 10640.47
935.3960, 10662.00
936.5150, 10647.00
937.6340, 10691.00
938.7530, 10715.00
939.8720, 10667.00
940.9910, 10708.85
942.1090, 10632.00
943.2280, 10756.00
944.3460, 10704.00
945.4640, 10777.00
946.5820, 10740.00
947.6990, 10757.00
948.8170, 10697.00
949.9340, 10875.00
951.0520, 10871.00
952.1690, 10991.00
953.2860, 10839.00
954.4030, 10912.00
955.5190, 10760.00
956.6360, 10931.00
957.7520, 10768.00
958.8680, 10767.00
959.9840, 10837.00
961.1000, 10724.00
962.2160, 10762.00
963.3310, 11007.00
964.4470, 10906.00
965.5620, 10735.00
966.6770, 10981.00
967.7920, 10849.00
968.9060, 10918.00
970.0210, 10767.00
971.1360, 10917.00
972.2500, 10929.00
973.3640, 10848.00
974.4780, 10963.00
975.5920, 11114.00
976.7050, 11100.00
977.8190, 11174.00
978.9320, 11118.00
980.0450, 11212.00
981.1580, 11285.00
982.2710, 11239.00
983.3840, 11437.00
984.4970, 11417.00
985.6090, 11489.00
986.7210, 11747.00
987.8330, 11792.00
988.9450, 12136.00
990.0570, 12269.00
991.1690, 12598.00
992.2800, 12577.00
993.3920, 12890.00
994.5030, 12915.00
995.6140, 12751.00
996.7250, 12811.00
997.8350, 12566.00
998.9460, 12443.00
1000.056, 12492.00
1001.167, 12472.00
1002.277, 12367.00
1003.387, 12100.00
1004.496, 12104.00
1005.606, 11993.00
1006.715, 11910.00
1007.825, 11769.00
1008.934, 11584.00
1010.043, 11674.00
1011.152, 11697.00
1012.260, 11640.00
1013.369, 11489.00
1014.477, 11342.00
1015.586, 11588.00
1016.694, 11455.00
1017.802, 11507.00
1018.909, 11708.00
1020.017, 11662.00
1021.124, 11532.00
1022.232, 11696.00
1023.339, 11717.00
1024.446, 11775.00
1025.553, 11821.00
1026.659, 12003.00
1027.766, 11921.00
1028.872, 11900.00
1029.979, 11984.00
1031.085, 11873.00
1032.191, 11922.00
1033.296, 11794.00
1034.402, 11831.00
1035.507, 11932.00
1036.613, 11704.00
1037.718, 11850.00
1038.823, 11815.00
1039.928, 11960.00
1041.032, 11894.00
1042.137, 11755.00
1043.241, 11913.00
1044.346, 11851.00
1045.450, 12020.00
1046.554, 12139.00
1047.657, 12219.00
1048.761, 12277.00
1049.864, 12329.00
1050.968, 12293.00
1052.071, 12373.00
1053.174, 12289.87
1054.277, 12252.00
1055.379, 12104.00
1056.482, 12012.00
1057.584, 11843.00
1058.687, 11894.00
1059.789, 11743.00
1060.891, 11695.00
1061.992, 11523.00
1063.094, 11617.00
1064.196, 11463.00
1065.297, 11482.00
1066.398, 11323.00
1067.499, 11483.00
1068.600, 11484.00
1069.701, 11456.00
1070.801, 11448.00
1071.902, 11399.00
1073.002, 11500.00
1074.102, 11539.00
1075.202, 11523.00
1076.302, 11381.00
1077.402, 11547.00
1078.501, 11534.00
1079.600, 11509.00
1080.700, 11578.00
1081.799, 11597.03
1082.898, 11520.00
1083.996, 11682.00
1085.095, 11830.00
1086.193, 11825.00
1087.292, 11849.00
1088.390, 11888.00
1089.488, 12044.00
1090.586, 11993.00
1091.683, 11907.00
1092.781, 12189.00
1093.878, 12266.00
1094.975, 12277.00
1096.073, 12234.00
1097.169, 12328.00
1098.266, 12340.75
1099.363, 12464.00
1100.459, 12438.00
1101.556, 12597.00
1102.652, 12638.00
1103.748, 12549.00
1104.844, 12748.00
1105.940, 12556.00
1107.035, 12658.00
1108.131, 12659.00
1109.226, 12834.00
1110.321, 13137.00
1111.416, 13304.00
1112.511, 13595.00
1113.605, 13960.00
1114.700, 14178.00
1115.794, 14868.00
1116.889, 15253.00
1117.983, 16087.00
1119.077, 16829.00
1120.170, 17506.00
1121.264, 18110.00
1122.357, 18382.00
1123.451, 18547.00
1124.544, 18248.00
1125.637, 17839.00
1126.730, 17308.00
1127.823, 16845.00
1128.915, 16321.00
1130.008, 15957.00
1131.100, 15720.00
1132.192, 15516.00
1133.284, 15649.00
1134.376, 15559.00
1135.467, 15636.00
1136.559, 15694.00
1137.650, 15777.00
1138.742, 15677.00
1139.833, 15447.00
1140.924, 15077.00
1142.014, 14634.00
1143.105, 14288.00
1144.195, 13906.00
1145.286, 13537.00
1146.376, 13286.00
1147.466, 13156.00
1148.556, 12787.00
1149.646, 12800.00
1150.735, 12705.00
1151.825, 12541.00
1152.914, 12354.00
1154.003, 12271.00
1155.092, 12345.00
1156.181, 12137.00
1157.270, 12249.00
1158.358, 12130.00
1159.447, 12178.00
1160.535, 12095.00
1161.623, 11995.00
1162.711, 11997.00
1163.799, 11947.00
1164.886, 11877.00
1165.974, 11875.00
1167.061, 11970.00
1168.148, 12081.00
1169.235, 11982.00
1170.322, 11941.00
1171.409, 11797.00
1172.496, 11827.98
1173.582, 11847.00
1174.669, 11892.00
1175.755, 11821.00
1176.841, 11891.00
1177.927, 11856.00
1179.012, 11961.00
1180.098, 11861.00
1181.183, 11943.00
1182.269, 11924.00
1183.354, 11885.05
1184.439, 12008.00
1185.524, 11813.00
1186.608, 11826.00
1187.693, 11772.00
1188.777, 11992.00
1189.862, 11926.00
1190.946, 11972.00
1192.030, 12003.00
1193.113, 11911.00
1194.197, 11814.00
1195.281, 11859.00
1196.364, 12007.00
1197.447, 11913.00
1198.530, 11899.00
1199.613, 11833.00
1200.696, 11920.00
1201.779, 12071.00
1202.861, 11896.00
1203.944, 11903.00
1205.026, 12004.00
1206.108, 11944.00
1207.190, 11994.00
1208.271, 11902.00
1209.353, 11812.00
1210.435, 11866.00
1211.516, 12008.00
1212.597, 11979.00
1213.678, 11979.00
1214.759, 11966.00
1215.840, 11935.00
1216.920, 12010.00
1218.001, 11940.00
1219.081, 11931.00
1220.161, 11873.00
1221.241, 12014.00
1222.321, 12000.00
1223.401, 12109.00
1224.480, 11901.00
1225.560, 11898.00
1226.639, 12061.00
1227.718, 11928.00
1228.797, 12028.00
1229.876, 12054.00
1230.955, 11991.00
1232.033, 12054.00
1233.112, 12059.00
1234.190, 12045.00
1235.268, 12047.00
1236.346, 11980.00
1237.424, 11956.00
1238.501, 12101.00
1239.579, 11980.00
1240.656, 12089.00
1241.733, 11952.00
1242.811, 11917.00
1243.888, 11892.00
1244.964, 11927.00
1246.041, 11974.00
1247.117, 11961.00
1248.194, 12136.00
1249.270, 12002.00
1250.346, 12016.00
1251.422, 12017.00
1252.498, 12165.00
1253.573, 12017.00
1254.649, 12083.00
1255.724, 12103.00
1256.800, 11980.00
1257.875, 12205.00
1258.950, 12063.00
1260.024, 12081.00
1261.099, 12104.00
1262.173, 12118.00
1263.248, 12070.00
1264.322, 12012.00
1265.396, 12101.00
1266.470, 12046.00
1267.544, 12140.00
1268.617, 12060.00
1269.691, 12130.00
1270.764, 12018.00
1271.837, 12057.00
1272.910, 12101.00
1273.983, 12017.00
1275.056, 12098.00
1276.129, 12064.00
1277.201, 12150.00
1278.273, 12151.00
1279.346, 12196.00
1280.418, 12305.00
1281.489, 12032.00
1282.561, 12069.00
1283.633, 12220.00
1284.704, 12020.00
1285.776, 12133.00
1286.847, 12279.00
1287.918, 12185.00
1288.989, 12222.00
1290.059, 12185.00
1291.130, 12172.00
1292.200, 12234.00
1293.271, 12321.00
1294.341, 12249.00
1295.411, 12227.00
1296.481, 12290.00
1297.551, 12151.00
1298.620, 12170.00
1299.690, 12165.00
1300.759, 12421.00
1301.828, 12283.00
1302.897, 12200.00
1303.966, 12390.00
1305.035, 12222.00
1306.103, 12335.00
1307.172, 12369.00
1308.240, 12207.00
1309.308, 12295.00
1310.376, 12282.00
1311.444, 12284.00
1312.512, 12356.00
1313.580, 12383.00
1314.647, 12361.00
1315.714, 12305.00
1316.781, 12354.00
1317.848, 12544.00
1318.915, 12360.00
1319.982, 12517.00
1321.049, 12334.00
1322.115, 12320.00
1323.181, 12315.00
1324.248, 12371.00
1325.314, 12433.00
1326.380, 12412.00
1327.445, 12359.00
1328.511, 12553.00
1329.576, 12536.00
1330.642, 12409.00
1331.707, 12519.00
1332.772, 12434.00
1333.837, 12530.00
1334.902, 12544.00
1335.966, 12391.00
1337.031, 12421.00
1338.095, 12452.00
1339.159, 12600.00
1340.223, 12492.00
1341.287, 12572.00
1342.351, 12460.00
1343.415, 12508.00
1344.478, 12504.00
1345.541, 12455.00
1346.605, 12526.00
1347.668, 12517.00
1348.731, 12445.00
1349.793, 12550.00
1350.856, 12561.00
1351.918, 12631.00
1352.981, 12604.00
1354.043, 12449.00
1355.105, 12662.00
1356.167, 12506.00
1357.229, 12572.00
1358.290, 12735.00
1359.352, 12376.00
1360.413, 12591.00
1361.475, 12510.00
1362.536, 12650.00
1363.597, 12684.00
1364.657, 12472.00
1365.718, 12587.00
1366.779, 12487.00
1367.839, 12557.00
1368.899, 12569.00
1369.959, 12530.00
1371.019, 12589.00
1372.079, 12712.00
1373.139, 12621.00
1374.198, 12614.00
1375.258, 12445.00
1376.317, 12580.00
1377.376, 12624.00
1378.435, 12409.00
1379.494, 12634.00
1380.553, 12574.00
1381.611, 12638.00
1382.670, 12587.00
1383.728, 12696.00
1384.786, 12708.00
1385.844, 12700.00
1386.902, 12722.00
1387.960, 12632.00
1389.017, 12721.00
1390.075, 12626.00
1391.132, 12729.00
1392.189, 12617.00
1393.246, 12651.00
1394.303, 12754.00
1395.360, 12654.00
1396.417, 12639.00
1397.473, 12718.00
1398.529, 12578.00
1399.585, 12733.00
1400.642, 12663.00
1401.697, 12775.00
1402.753, 12671.00
1403.809, 12777.00
1404.864, 12689.00
1405.920, 12596.00
1406.975, 12741.00
1408.030, 12638.00
1409.085, 12782.00
1410.140, 12851.00
1411.194, 12694.00
1412.249, 12670.00
1413.303, 12656.00
1414.358, 12801.00
1415.412, 12817.00
1416.466, 12663.00
1417.520, 12811.00
1418.573, 12753.00
1419.627, 12856.00
1420.680, 12727.00
1421.733, 12944.00
1422.787, 12772.00
1423.840, 12786.00
1424.892, 12767.00
1425.945, 12819.00
1426.998, 12689.00
1428.050, 12807.00
1429.103, 12755.00
1430.155, 12945.00
1431.207, 12875.00
1432.259, 12892.00
1433.310, 12835.00
1434.362, 12816.00
1435.414, 12837.00
1436.465, 12817.95
1437.516, 12816.15
1438.567, 12828.00
1439.618, 12866.00
1440.669, 12859.00
1441.720, 12870.85
1442.770, 12942.00
1443.820, 12868.00
1444.871, 12929.00
1445.921, 12924.00
1446.971, 12910.00
1448.021, 13032.00
1449.070, 13098.00
1450.120, 12864.00
1451.169, 13112.00
1452.219, 12947.00
1453.268, 12851.00
1454.317, 13073.00
1455.366, 12980.00
1456.414, 13140.00
1457.463, 13019.00
1458.511, 12913.00
1459.560, 12931.00
1460.608, 12958.00
1461.656, 13035.00
1462.704, 12925.00
1463.752, 13037.00
1464.799, 12947.00
1465.847, 12838.00
1466.894, 13118.00
1467.941, 12881.00
1468.988, 13010.00
1470.035, 13106.00
1471.082, 13020.00
1472.129, 13061.00
1473.175, 13119.00
1474.222, 12944.00
1475.268, 13029.00
1476.314, 13086.00
1477.360, 13009.00
1478.406, 12944.00
1479.452, 13047.00
1480.498, 13083.00
1481.543, 13022.00
1482.588, 13223.00
1483.633, 13167.00
1484.679, 13116.00
1485.723, 13206.00
1486.768, 13247.00
1487.813, 13125.00
1488.857, 13195.00
1489.902, 13142.00
1490.946, 13021.00
1491.990, 13051.00
1493.034, 13161.00
1494.078, 13071.00
1495.122, 13035.00
1496.165, 13188.00
1497.209, 13071.00
1498.252, 13152.00
1499.295, 13311.00
1500.338, 13242.00
1501.381, 13240.00
1502.424, 13165.00
1503.466, 13141.00
1504.509, 13080.00
1505.551, 12927.00
1506.593, 12986.75
1507.635, 12968.00
1508.677, 13099.00
1509.719, 13024.00
1510.761, 13189.00
1511.802, 13102.00
1512.844, 13272.00
1513.885, 13167.00
1514.926, 13183.00
1515.967, 13230.00
1517.008, 13177.00
1518.049, 13207.00
1519.089, 13210.00
1520.130, 13239.00
1521.170, 13337.00
1522.210, 13136.00
1523.250, 13166.00
1524.290, 13284.00
1525.330, 13171.00
1526.370, 13230.00
1527.409, 13264.00
1528.448, 13342.00
1529.488, 13379.00
1530.527, 13243.00
1531.566, 13467.00
1532.605, 13178.00
1533.643, 13362.00
1534.682, 13347.00
1535.720, 13206.00
1536.759, 13324.00
1537.797, 13331.00
1538.835, 13284.00
1539.873, 13391.00
1540.910, 13420.00
1541.948, 13225.00
1542.986, 13295.00
1544.023, 13244.00
1545.060, 13393.00
1546.097, 13461.00
1547.134, 13441.35
1548.171, 13470.00
1549.208, 13421.00
1550.244, 13397.00
1551.281, 13360.00
1552.317, 13364.00
1553.353, 13343.00
1554.389, 13399.00
1555.425, 13323.00
1556.461, 13422.00
1557.497, 13413.00
1558.532, 13338.00
1559.567, 13412.00
1560.603, 13363.00
1561.638, 13379.00
1562.673, 13413.00
1563.708, 13374.00
##END=



