##NAMES=Microcline
##RRUFFID=R050150
##IDEAL CHEMISTRY=KAlSi_3_O_8_
##LOCALITY=Crystal Peak area, Park/Teller Counties, Colorado, USA
##OWNER=RRUFF
##SOURCE=Dave Bunk Minerals
##DESCRIPTION=Pale blue prismatic crystals
##STATUS=The identification of this mineral has been confirmed by X-ray diffraction and chemical analysis
##URL=rruff.info/R050150
##MEASURED CHEMISTRY=(K_0.95_Na_0.05_)_Î£=1_Al_1.00_Si_3.00_O_8_
##PIN_ID=L00945
##ORIENTATION=Laser parallel to a* (1 0 0). Fiducial mark perpendicular to laser is parallel to b [0 1 0]
137.6830, 9877.000
138.9210, 10179.00
140.1580, 10405.00
141.3950, 10740.00
142.6330, 11076.00
143.8690, 11419.00
145.1060, 11788.00
146.3430, 12379.00
147.5790, 13066.00
148.8150, 13965.00
150.0510, 14830.00
151.2870, 15280.00
152.5220, 15366.00
153.7580, 14917.00
154.9930, 13861.00
156.2280, 12816.00
157.4620, 11750.00
158.6970, 10964.00
159.9310, 10326.00
161.1660, 9989.000
162.4000, 9557.000
163.6330, 9406.000
164.8670, 9371.000
166.1000, 9296.000
167.3340, 9374.000
168.5670, 9378.000
169.8000, 9560.000
171.0320, 9697.000
172.2650, 9898.000
173.4970, 10078.17
174.7290, 10088.00
175.9610, 10463.00
177.1930, 10678.00
178.4240, 10864.00
179.6550, 11236.00
180.8870, 11387.00
182.1170, 11254.00
183.3480, 11039.00
184.5790, 10675.00
185.8090, 10384.00
187.0390, 10224.00
188.2690, 10057.75
189.4990, 9983.435
190.7290, 9954.000
191.9580, 9989.000
193.1870, 10057.00
194.4160, 10174.00
195.6450, 10359.00
196.8740, 10467.00
198.1020, 10729.00
199.3310, 11188.00
200.5590, 11247.00
201.7870, 11102.00
203.0140, 10874.00
204.2420, 10162.00
205.4690, 9800.000
206.6960, 9380.000
207.9230, 9148.000
209.1500, 9066.000
210.3760, 8897.000
211.6030, 8804.000
212.8290, 8802.000
214.0550, 8755.000
215.2810, 8784.000
216.5060, 8677.000
217.7320, 8724.000
218.9570, 8794.000
220.1820, 8814.000
221.4070, 8667.000
222.6320, 8678.000
223.8560, 8760.000
225.0800, 8726.000
226.3040, 8822.000
227.5280, 8803.000
228.7520, 8801.000
229.9760, 8724.000
231.1990, 8896.000
232.4220, 8795.000
233.6450, 8767.000
234.8680, 8935.000
236.0910, 8802.000
237.3130, 8949.000
238.5350, 8852.000
239.7570, 8888.000
240.9790, 8905.000
242.2010, 8996.000
243.4220, 8973.000
244.6430, 9004.000
245.8640, 9198.000
247.0850, 9441.000
248.3060, 9552.000
249.5270, 9791.000
250.7470, 10097.00
251.9670, 10463.00
253.1870, 10918.00
254.4070, 11332.00
255.6260, 11900.00
256.8460, 12590.00
258.0650, 13376.00
259.2840, 13958.00
260.5030, 14370.00
261.7220, 14318.00
262.9400, 14436.00
264.1580, 14484.00
265.3760, 14761.00
266.5940, 15079.00
267.8120, 15169.00
269.0290, 15051.00
270.2470, 14227.00
271.4640, 13941.00
272.6810, 13493.00
273.8980, 13194.00
275.1140, 13116.00
276.3310, 13179.00
277.5470, 13441.00
278.7630, 13696.00
279.9790, 14504.00
281.1940, 14976.00
282.4100, 15850.00
283.6250, 16719.00
284.8400, 17469.00
286.0550, 18307.00
287.2700, 18367.00
288.4850, 17942.00
289.6990, 17174.00
290.9130, 16074.00
292.1270, 14919.00
293.3410, 13820.00
294.5540, 13044.00
295.7680, 12633.00
296.9810, 12292.00
298.1940, 12052.00
299.4070, 11696.00
300.6200, 11345.00
301.8320, 11143.00
303.0450, 10915.00
304.2570, 10483.00
305.4690, 10151.00
306.6800, 9806.000
307.8920, 9590.000
309.1030, 9473.000
310.3150, 9207.000
311.5260, 9181.000
312.7360, 9151.000
313.9470, 9146.000
315.1580, 9052.000
316.3680, 8996.000
317.5780, 9053.000
318.7880, 9027.000
319.9980, 9146.000
321.2070, 9122.485
322.4170, 9061.000
323.6260, 9150.000
324.8350, 9097.000
326.0430, 9153.000
327.2520, 9286.000
328.4610, 9411.000
329.6690, 9356.000
330.8770, 9389.000
332.0850, 9489.000
333.2920, 9449.000
334.5000, 9351.000
335.7070, 9514.000
336.9140, 9523.000
338.1210, 9354.000
339.3280, 9534.000
340.5350, 9547.000
341.7410, 9626.000
342.9470, 9527.000
344.1540, 9678.000
345.3590, 9663.000
346.5650, 9570.000
347.7710, 9759.000
348.9760, 9729.000
350.1810, 9744.000
351.3860, 9905.000
352.5910, 9959.000
353.7950, 10073.00
355.0000, 10322.00
356.2040, 10398.00
357.4080, 10690.00
358.6120, 10597.00
359.8150, 10598.00
361.0190, 10409.00
362.2220, 10262.00
363.4250, 10181.00
364.6280, 10137.00
365.8310, 10103.00
367.0340, 10042.00
368.2360, 10102.11
369.4380, 10059.00
370.6400, 10241.00
371.8420, 10284.00
373.0440, 10369.00
374.2450, 10440.00
375.4470, 10356.00
376.6480, 10129.00
377.8490, 10025.00
379.0490, 9795.000
380.2500, 9725.000
381.4500, 9563.000
382.6510, 9745.000
383.8510, 9698.000
385.0500, 9625.000
386.2500, 9603.000
387.4500, 9640.000
388.6490, 9685.000
389.8480, 9822.000
391.0470, 9847.000
392.2460, 10109.00
393.4440, 10419.00
394.6430, 10840.00
395.8410, 11130.00
397.0390, 11466.00
398.2370, 11775.00
399.4340, 12407.00
400.6320, 13133.00
401.8290, 13976.00
403.0260, 14674.00
404.2230, 15383.00
405.4200, 15451.00
406.6170, 14812.00
407.8130, 13975.00
409.0090, 13003.00
410.2050, 12331.00
411.4010, 11965.00
412.5970, 11864.00
413.7920, 11690.00
414.9880, 11415.00
416.1830, 11026.00
417.3780, 10734.00
418.5730, 10499.00
419.7670, 10164.00
420.9620, 10088.00
422.1560, 9902.000
423.3500, 9961.000
424.5440, 9879.000
425.7380, 9970.000
426.9310, 9997.000
428.1240, 9873.000
429.3180, 9851.000
430.5110, 9858.000
431.7030, 10085.00
432.8960, 10125.00
434.0890, 10150.00
435.2810, 10220.00
436.4730, 10297.00
437.6650, 10523.00
438.8570, 10710.00
440.0480, 10650.00
441.2390, 10964.00
442.4310, 11124.00
443.6220, 11681.00
444.8120, 11946.00
446.0030, 12462.00
447.1940, 13100.00
448.3840, 13667.00
449.5740, 14278.00
450.7640, 15102.00
451.9540, 15915.00
453.1430, 16738.00
454.3330, 17595.00
455.5220, 17811.00
456.7110, 18074.00
457.9000, 17868.00
459.0890, 17318.00
460.2770, 16810.00
461.4650, 16682.00
462.6540, 17155.00
463.8420, 17724.00
465.0290, 19068.00
466.2170, 20774.00
467.4050, 23386.00
468.5920, 25971.00
469.7790, 28879.00
470.9660, 31756.00
472.1530, 35432.00
473.3390, 39566.00
474.5250, 43753.00
475.7120, 47055.00
476.8980, 48422.00
478.0840, 47310.00
479.2690, 43868.00
480.4550, 38879.00
481.6400, 33527.00
482.8250, 29438.00
484.0100, 26041.00
485.1950, 23724.00
486.3800, 22050.00
487.5640, 20203.00
488.7480, 18473.00
489.9320, 17065.00
491.1160, 15934.00
492.3000, 15192.00
493.4840, 14606.00
494.6670, 14367.34
495.8500, 14414.00
497.0330, 14634.00
498.2160, 15156.00
499.3990, 15850.00
500.5810, 16783.00
501.7630, 18310.00
502.9460, 20567.00
504.1280, 23459.00
505.3090, 26610.04
506.4910, 30823.00
507.6720, 34689.00
508.8540, 39697.00
510.0350, 45115.00
511.2160, 50484.00
512.3960, 56069.00
513.5770, 60398.00
514.7570, 61739.00
515.9380, 60177.00
517.1180, 54714.00
518.2970, 47769.00
519.4770, 39665.00
520.6570, 32889.00
521.8360, 27699.00
523.0150, 23686.00
524.1940, 21330.00
525.3730, 19148.00
526.5510, 17627.00
527.7300, 16517.00
528.9080, 15562.00
530.0860, 14813.00
531.2640, 14253.00
532.4420, 13722.00
533.6200, 13299.66
534.7970, 12920.00
535.9740, 12696.00
537.1510, 12532.00
538.3280, 12370.00
539.5050, 12184.00
540.6810, 12020.00
541.8580, 11841.00
543.0340, 11641.00
544.2100, 11562.00
545.3860, 11560.00
546.5610, 11373.00
547.7370, 11482.00
548.9120, 11417.00
550.0870, 11390.00
551.2620, 11241.00
552.4370, 11148.00
553.6120, 11145.00
554.7860, 11190.00
555.9600, 11137.00
557.1340, 11100.00
558.3080, 11116.00
559.4820, 11120.00
560.6560, 11051.00
561.8290, 10954.00
563.0020, 11071.00
564.1750, 11001.00
565.3480, 11091.00
566.5210, 10935.00
567.6930, 11124.00
568.8660, 11062.00
570.0380, 11096.00
571.2100, 11067.00
572.3820, 11023.00
573.5530, 11121.00
574.7250, 11100.00
575.8960, 11275.00
577.0670, 11168.00
578.2380, 11243.00
579.4090, 11230.00
580.5800, 11346.00
581.7500, 11375.00
582.9210, 11555.00
584.0910, 11512.00
585.2610, 11410.00
586.4300, 11400.00
587.6000, 11275.00
588.7690, 11323.00
589.9390, 11257.00
591.1080, 10951.00
592.2770, 10970.00
593.4450, 10961.00
594.6140, 10929.00
595.7820, 10945.00
596.9500, 10813.00
598.1190, 10877.00
599.2860, 10791.00
600.4540, 10926.00
601.6220, 10790.00
602.7890, 10881.00
603.9560, 11011.00
605.1230, 10875.00
606.2900, 10913.00
607.4570, 10877.00
608.6230, 10781.00
609.7890, 10968.00
610.9560, 10889.00
612.1220, 10969.00
613.2870, 10960.00
614.4530, 10976.94
615.6180, 11058.00
616.7840, 11031.00
617.9490, 11090.00
619.1140, 11111.00
620.2790, 11179.00
621.4430, 11107.00
622.6080, 11431.00
623.7720, 11465.00
624.9360, 11519.00
626.1000, 11397.00
627.2640, 11656.00
628.4270, 11700.00
629.5910, 11694.00
630.7540, 11965.00
631.9170, 11828.00
633.0800, 12125.00
634.2430, 11992.00
635.4050, 12066.00
636.5680, 11965.00
637.7300, 12054.00
638.8920, 12266.00
640.0540, 12327.00
641.2150, 12516.00
642.3770, 12426.00
643.5380, 12554.00
644.7000, 12726.00
645.8610, 12880.00
647.0210, 12829.00
648.1820, 13028.00
649.3430, 13047.00
650.5030, 13229.00
651.6630, 13269.00
652.8230, 13399.00
653.9830, 13382.00
655.1430, 13361.00
656.3020, 13314.00
657.4620, 13185.00
658.6210, 13046.00
659.7800, 12794.00
660.9390, 12646.00
662.0970, 12523.00
663.2560, 12385.00
664.4140, 12169.00
665.5720, 11990.00
666.7300, 11823.00
667.8880, 11744.00
669.0460, 11679.00
670.2030, 11533.00
671.3600, 11527.00
672.5180, 11343.00
673.6740, 11513.00
674.8310, 11299.00
675.9880, 11323.00
677.1440, 11320.00
678.3010, 11232.00
679.4570, 11277.51
680.6130, 11327.00
681.7690, 11295.00
682.9240, 11292.00
684.0800, 11289.00
685.2350, 11212.00
686.3900, 11197.00
687.5450, 11207.09
688.7000, 11371.00
689.8540, 11233.00
691.0090, 11224.00
692.1630, 11207.00
693.3170, 11068.00
694.4710, 11241.00
695.6250, 11355.00
696.7780, 11166.00
697.9320, 11350.00
699.0850, 11300.00
700.2380, 11488.00
701.3910, 11334.00
702.5440, 11406.00
703.6970, 11328.00
704.8490, 11379.39
706.0010, 11509.00
707.1530, 11562.00
708.3050, 11637.00
709.4570, 11826.00
710.6090, 11765.00
711.7600, 11850.00
712.9110, 11867.00
714.0620, 11828.00
715.2130, 11841.00
716.3640, 11641.00
717.5150, 11767.00
718.6650, 11715.00
719.8150, 11577.00
720.9650, 11610.00
722.1150, 11516.00
723.2650, 11571.00
724.4150, 11743.00
725.5640, 11862.00
726.7130, 11714.00
727.8630, 11726.00
729.0110, 11707.00
730.1600, 11729.58
731.3090, 11934.00
732.4570, 11924.00
733.6060, 11933.00
734.7540, 12160.00
735.9020, 12245.00
737.0490, 12336.00
738.1970, 12592.00
739.3440, 12907.00
740.4920, 13200.00
741.6390, 13351.00
742.7860, 13685.00
743.9320, 14008.00
745.0790, 14439.00
746.2250, 14884.00
747.3720, 15388.00
748.5180, 15397.00
749.6640, 15796.00
750.8100, 15939.00
751.9550, 15511.00
753.1010, 15238.00
754.2460, 14670.00
755.3910, 13987.00
756.5360, 13752.00
757.6810, 13135.00
758.8250, 12996.00
759.9700, 12793.00
761.1140, 12518.00
762.2580, 12242.00
763.4020, 12185.00
764.5460, 12073.00
765.6900, 12098.00
766.8330, 12039.02
767.9760, 12091.00
769.1200, 11980.00
770.2620, 11992.00
771.4050, 11924.00
772.5480, 11919.00
773.6900, 11917.00
774.8330, 11675.00
775.9750, 11761.00
777.1170, 11666.00
778.2590, 11587.00
779.4000, 11649.00
780.5420, 11657.00
781.6830, 11574.00
782.8240, 11612.00
783.9650, 11760.00
785.1060, 11696.00
786.2470, 11621.00
787.3870, 11490.00
788.5280, 11665.00
789.6680, 11543.00
790.8080, 11540.00
791.9480, 11671.00
793.0870, 11653.00
794.2270, 11704.00
795.3660, 11750.00
796.5060, 11796.00
797.6450, 11607.00
798.7830, 11805.00
799.9220, 11663.00
801.0610, 11667.00
802.1990, 11706.00
803.3370, 11733.00
804.4750, 11693.00
805.6130, 11753.00
806.7510, 11738.00
807.8890, 11759.00
809.0260, 11897.00
810.1630, 11805.00
811.3000, 11845.00
812.4370, 11769.00
813.5740, 11779.00
814.7110, 11761.00
815.8470, 11751.00
816.9830, 11820.00
818.1190, 11849.00
819.2550, 11929.00
820.3910, 11793.00
821.5270, 11795.00
822.6620, 11685.00
823.7970, 11869.00
824.9330, 11743.00
826.0670, 11731.00
827.2020, 11894.00
828.3370, 11819.00
829.4710, 11762.00
830.6060, 11746.00
831.7400, 11810.00
832.8740, 11799.00
834.0080, 11857.00
835.1410, 11822.00
836.2750, 11717.00
837.4080, 11821.00
838.5410, 11708.00
839.6740, 11857.00
840.8070, 11796.00
841.9400, 11936.00
843.0730, 11829.00
844.2050, 11875.00
845.3370, 11826.00
846.4690, 11854.00
847.6010, 11741.00
848.7330, 11884.00
849.8640, 11734.00
850.9960, 11945.00
852.1270, 11863.00
853.2580, 11945.00
854.3890, 12091.00
855.5200, 11816.00
856.6500, 11913.00
857.7810, 11904.00
858.9110, 11824.00
860.0410, 11865.00
861.1710, 11909.00
862.3010, 11942.00
863.4310, 11965.26
864.5600, 11980.00
865.6900, 11995.00
866.8190, 11999.00
867.9480, 12001.17
869.0770, 12029.00
870.2050, 12000.00
871.3340, 12011.00
872.4620, 12083.00
873.5900, 11932.00
874.7180, 11966.00
875.8460, 12077.00
876.9740, 11977.00
878.1010, 11991.00
879.2290, 12091.00
880.3560, 12036.00
881.4830, 12089.00
882.6100, 12000.00
883.7370, 12051.00
884.8630, 12009.00
885.9900, 12075.00
887.1160, 11994.00
888.2420, 12247.00
889.3680, 12080.00
890.4940, 12195.00
891.6200, 12062.00
892.7450, 12089.00
893.8700, 12047.00
894.9960, 12176.00
896.1210, 12154.00
897.2460, 12147.00
898.3700, 12149.00
899.4950, 12247.00
900.6190, 12228.00
901.7430, 12243.93
902.8670, 12134.00
903.9910, 12250.00
905.1150, 12237.00
906.2390, 12277.00
907.3620, 12105.00
908.4850, 12249.00
909.6080, 12208.00
910.7310, 12206.00
911.8540, 12271.00
912.9770, 12192.00
914.0990, 12274.00
915.2210, 12180.00
916.3440, 12366.00
917.4660, 12350.00
918.5870, 12219.00
919.7090, 12333.00
920.8310, 12407.00
921.9520, 12365.00
923.0730, 12355.00
924.1940, 12387.00
925.3150, 12592.00
926.4360, 12473.00
927.5560, 12534.00
928.6770, 12403.00
929.7970, 12489.00
930.9170, 12582.00
932.0370, 12588.00
933.1570, 12635.93
934.2760, 12472.00
935.3960, 12631.00
936.5150, 12525.00
937.6340, 12449.00
938.7530, 12611.00
939.8720, 12535.00
940.9910, 12607.00
942.1090, 12515.00
943.2280, 12641.00
944.3460, 12548.00
945.4640, 12582.00
946.5820, 12682.00
947.6990, 12681.00
948.8170, 12727.00
949.9340, 12766.00
951.0520, 12765.00
952.1690, 12721.00
953.2860, 12716.00
954.4030, 12756.00
955.5190, 12666.00
956.6360, 12778.00
957.7520, 12881.00
958.8680, 12666.00
959.9840, 12708.00
961.1000, 12833.00
962.2160, 12803.00
963.3310, 12699.00
964.4470, 12798.00
965.5620, 12766.00
966.6770, 12783.00
967.7920, 12761.00
968.9060, 12760.77
970.0210, 12859.00
971.1360, 12794.00
972.2500, 12877.00
973.3640, 12974.00
974.4780, 12914.00
975.5920, 12999.00
976.7050, 12899.00
977.8190, 12980.00
978.9320, 13136.00
980.0450, 13236.00
981.1580, 13239.00
982.2710, 13066.00
983.3840, 13185.00
984.4970, 13291.00
985.6090, 13469.00
986.7210, 13702.00
987.8330, 13760.00
988.9450, 13821.00
990.0570, 14230.00
991.1690, 14320.00
992.2800, 14612.00
993.3920, 14739.00
994.5030, 14838.00
995.6140, 14717.00
996.7250, 14598.00
997.8350, 14523.00
998.9460, 14358.00
1000.056, 14173.00
1001.167, 14126.00
1002.277, 13935.00
1003.387, 13829.00
1004.496, 13740.00
1005.606, 13734.00
1006.715, 13624.00
1007.825, 13547.00
1008.934, 13579.00
1010.043, 13534.00
1011.152, 13511.92
1012.260, 13425.00
1013.369, 13463.00
1014.477, 13453.00
1015.586, 13415.00
1016.694, 13516.00
1017.802, 13539.00
1018.909, 13479.00
1020.017, 13576.00
1021.124, 13664.00
1022.232, 13772.00
1023.339, 13861.00
1024.446, 14115.00
1025.553, 14030.00
1026.659, 14143.00
1027.766, 14313.00
1028.872, 14297.00
1029.979, 14170.00
1031.085, 14285.00
1032.191, 14321.00
1033.296, 14458.00
1034.402, 14373.00
1035.507, 14242.00
1036.613, 14350.00
1037.718, 14243.00
1038.823, 14357.00
1039.928, 14361.00
1041.032, 14429.00
1042.137, 14507.00
1043.241, 14534.00
1044.346, 14668.00
1045.450, 14840.00
1046.554, 14813.00
1047.657, 15163.00
1048.761, 15231.00
1049.864, 15508.00
1050.968, 15630.00
1052.071, 15653.00
1053.174, 15577.00
1054.277, 15432.00
1055.379, 15347.00
1056.482, 15111.00
1057.584, 14755.00
1058.687, 14666.00
1059.789, 14399.00
1060.891, 14117.00
1061.992, 14085.92
1063.094, 13962.08
1064.196, 13914.00
1065.297, 13919.00
1066.398, 13754.00
1067.499, 13696.00
1068.600, 13724.00
1069.701, 13753.00
1070.801, 13736.00
1071.902, 13652.00
1073.002, 13841.00
1074.102, 13835.00
1075.202, 13861.00
1076.302, 13781.00
1077.402, 13758.00
1078.501, 13848.00
1079.600, 13758.00
1080.700, 13938.00
1081.799, 13794.00
1082.898, 13951.00
1083.996, 14001.00
1085.095, 14023.00
1086.193, 14086.00
1087.292, 14093.00
1088.390, 14133.00
1089.488, 14176.00
1090.586, 14231.00
1091.683, 14223.00
1092.781, 14223.00
1093.878, 14320.00
1094.975, 14360.00
1096.073, 14423.94
1097.169, 14434.00
1098.266, 14612.00
1099.363, 14758.00
1100.459, 14957.00
1101.556, 14944.00
1102.652, 15008.00
1103.748, 15057.00
1104.844, 15169.00
1105.940, 15360.00
1107.035, 15486.00
1108.131, 15779.00
1109.226, 15919.00
1110.321, 16304.00
1111.416, 16774.00
1112.511, 17370.00
1113.605, 17761.00
1114.700, 18655.00
1115.794, 19662.00
1116.889, 20517.00
1117.983, 21959.00
1119.077, 23108.00
1120.170, 24349.00
1121.264, 25563.00
1122.357, 26439.00
1123.451, 26863.00
1124.544, 26849.00
1125.637, 26402.00
1126.730, 25592.00
1127.823, 24375.00
1128.915, 23303.00
1130.008, 22414.00
1131.100, 21738.00
1132.192, 21201.00
1133.284, 20942.00
1134.376, 20749.00
1135.467, 20845.00
1136.559, 20510.00
1137.650, 20591.00
1138.742, 20527.00
1139.833, 20373.00
1140.924, 19909.00
1142.014, 19367.00
1143.105, 18798.00
1144.195, 18115.00
1145.286, 17577.00
1146.376, 16997.00
1147.466, 16606.56
1148.556, 16196.00
1149.646, 16007.00
1150.735, 15774.00
1151.825, 15651.00
1152.914, 15463.00
1154.003, 15104.00
1155.092, 15067.00
1156.181, 14968.00
1157.270, 14827.00
1158.358, 14833.00
1159.447, 14723.49
1160.535, 14539.00
1161.623, 14642.00
1162.711, 14534.00
1163.799, 14594.00
1164.886, 14515.00
1165.974, 14472.00
1167.061, 14466.49
1168.148, 14540.00
1169.235, 14422.00
1170.322, 14386.00
1171.409, 14393.00
1172.496, 14275.00
1173.582, 14309.00
1174.669, 14278.00
1175.755, 14313.00
1176.841, 14503.00
1177.927, 14281.00
1179.012, 14223.00
1180.098, 14428.00
1181.183, 14343.00
1182.269, 14225.00
1183.354, 14253.00
1184.439, 14328.00
1185.524, 14314.00
1186.608, 14327.00
1187.693, 14111.00
1188.777, 14144.00
1189.862, 14285.00
1190.946, 14102.00
1192.030, 14260.00
1193.113, 14281.00
1194.197, 14121.00
1195.281, 14137.00
1196.364, 14175.00
1197.447, 14217.00
1198.530, 14362.00
1199.613, 14362.00
1200.696, 14280.00
1201.779, 14334.00
1202.861, 14165.00
1203.944, 14162.00
1205.026, 14092.00
1206.108, 14224.00
1207.190, 14192.00
1208.271, 14342.00
1209.353, 14328.15
1210.435, 14391.00
1211.516, 14294.64
1212.597, 14371.00
1213.678, 14284.00
1214.759, 14316.00
1215.840, 14254.00
1216.920, 14211.00
1218.001, 14261.54
1219.081, 14227.00
1220.161, 14309.00
1221.241, 14271.76
1222.321, 14379.00
1223.401, 14235.00
1224.480, 14253.00
1225.560, 14257.00
1226.639, 14205.00
1227.718, 14287.00
1228.797, 14206.00
1229.876, 14355.00
1230.955, 14303.00
1232.033, 14229.00
1233.112, 14342.00
1234.190, 14247.00
1235.268, 14354.00
1236.346, 14299.00
1237.424, 14444.00
1238.501, 14298.00
1239.579, 14475.00
1240.656, 14482.00
1241.733, 14338.00
1242.811, 14334.00
1243.888, 14366.00
1244.964, 14346.00
1246.041, 14371.00
1247.117, 14372.00
1248.194, 14311.00
1249.270, 14379.00
1250.346, 14156.00
1251.422, 14366.00
1252.498, 14257.00
1253.573, 14603.00
1254.649, 14407.00
1255.724, 14296.00
1256.800, 14429.00
1257.875, 14253.00
1258.950, 14409.00
1260.024, 14416.00
1261.099, 14366.00
1262.173, 14265.00
1263.248, 14289.00
1264.322, 14370.00
1265.396, 14516.00
1266.470, 14521.00
1267.544, 14475.00
1268.617, 14339.00
1269.691, 14572.00
1270.764, 14444.00
1271.837, 14634.00
1272.910, 14457.00
1273.983, 14564.00
1275.056, 14378.00
1276.129, 14530.00
1277.201, 14616.00
1278.273, 14563.00
1279.346, 14616.00
1280.418, 14648.00
1281.489, 14498.00
1282.561, 14488.00
1283.633, 14541.00
1284.704, 14501.00
1285.776, 14578.00
1286.847, 14587.00
1287.918, 14869.00
1288.989, 14763.82
1290.059, 14836.00
1291.130, 14687.00
1292.200, 14713.98
1293.271, 14672.47
1294.341, 14697.00
1295.411, 14620.00
1296.481, 14575.00
1297.551, 14592.00
1298.620, 14586.00
1299.690, 14641.00
1300.759, 14695.00
1301.828, 14519.00
1302.897, 14698.00
1303.966, 14827.00
1305.035, 14683.00
1306.103, 14814.00
1307.172, 14817.00
1308.240, 14744.00
1309.308, 14640.00
1310.376, 14913.00
1311.444, 14906.00
1312.512, 14854.00
1313.580, 14558.00
1314.647, 14710.00
1315.714, 14621.00
1316.781, 14685.00
1317.848, 14948.00
1318.915, 14821.00
1319.982, 14934.00
1321.049, 14758.00
1322.115, 14754.00
1323.181, 14992.00
1324.248, 14878.00
1325.314, 14827.00
1326.380, 14896.00
1327.445, 14908.00
1328.511, 14846.00
1329.576, 14942.00
1330.642, 14827.00
1331.707, 14855.00
1332.772, 14910.00
1333.837, 14849.00
1334.902, 14886.00
1335.966, 14868.71
1337.031, 14853.00
1338.095, 14884.00
1339.159, 14834.00
1340.223, 14932.00
1341.287, 14991.00
1342.351, 15043.00
1343.415, 14963.00
1344.478, 14923.00
1345.541, 15126.00
1346.605, 14946.00
1347.668, 15020.00
1348.731, 15073.00
1349.793, 14979.00
1350.856, 15019.00
1351.918, 15061.00
1352.981, 14934.00
1354.043, 14980.00
1355.105, 15063.00
1356.167, 15047.00
1357.229, 15074.00
1358.290, 15201.00
1359.352, 15094.00
1360.413, 14964.00
1361.475, 14930.00
1362.536, 15091.00
1363.597, 15012.00
1364.657, 14901.00
1365.718, 15092.00
1366.779, 15052.00
1367.839, 15143.00
1368.899, 15038.00
1369.959, 14925.00
1371.019, 15007.00
1372.079, 15188.00
1373.139, 15337.00
1374.198, 15160.00
1375.258, 15221.00
1376.317, 15232.00
1377.376, 15067.00
1378.435, 15168.00
1379.494, 15170.00
1380.553, 15154.00
1381.611, 15291.00
1382.670, 15074.00
1383.728, 15100.00
1384.786, 15298.00
1385.844, 15096.00
1386.902, 15057.00
1387.960, 15117.00
1389.017, 15158.00
1390.075, 15188.00
1391.132, 15206.00
1392.189, 15265.00
1393.246, 15186.00
1394.303, 15356.00
1395.360, 15232.00
1396.417, 15373.00
1397.473, 15266.00
1398.529, 15385.00
1399.585, 15385.00
1400.642, 15180.00
1401.697, 15209.00
1402.753, 15353.00
1403.809, 15216.00
1404.864, 15578.00
1405.920, 15325.00
1406.975, 15386.00
1408.030, 15279.00
1409.085, 15343.00
1410.140, 15476.00
1411.194, 15473.00
1412.249, 15456.91
1413.303, 15473.52
1414.358, 15355.00
1415.412, 15440.00
1416.466, 15450.00
1417.520, 15498.00
1418.573, 15375.00
1419.627, 15496.00
1420.680, 15373.00
1421.733, 15471.00
1422.787, 15520.00
1423.840, 15470.00
1424.892, 15505.00
1425.945, 15519.00
1426.998, 15471.96
1428.050, 15440.00
1429.103, 15451.00
1430.155, 15385.00
1431.207, 15485.00
1432.259, 15506.00
1433.310, 15589.00
1434.362, 15551.00
1435.414, 15595.01
1436.465, 15588.42
1437.516, 15601.00
1438.567, 15584.00
1439.618, 15533.00
1440.669, 15572.00
1441.720, 15591.00
1442.770, 15481.00
1443.820, 15611.00
1444.871, 15423.00
1445.921, 15612.00
1446.971, 15704.00
1448.021, 15636.00
1449.070, 15380.00
1450.120, 15559.00
1451.169, 15643.00
1452.219, 15536.00
1453.268, 15650.00
1454.317, 15635.94
1455.366, 15708.00
1456.414, 15625.00
1457.463, 15696.00
1458.511, 15604.00
1459.560, 15752.00
1460.608, 15876.00
1461.656, 15629.00
1462.704, 15711.00
1463.752, 15903.00
1464.799, 15740.00
1465.847, 15782.00
1466.894, 15694.00
1467.941, 15712.89
1468.988, 15846.00
1470.035, 15699.00
1471.082, 15827.00
1472.129, 15643.00
1473.175, 15697.00
1474.222, 15774.00
1475.268, 15896.00
1476.314, 15743.00
1477.360, 15780.00
1478.406, 15779.00
1479.452, 15723.00
1480.498, 15738.00
1481.543, 15835.00
1482.588, 15876.00
1483.633, 15952.00
1484.679, 15929.00
1485.723, 15830.00
1486.768, 15735.00
1487.813, 15864.00
1488.857, 15727.00
1489.902, 15717.00
1490.946, 15815.00
1491.990, 15917.00
1493.034, 16020.00
1494.078, 15905.00
1495.122, 15968.00
1496.165, 15838.00
1497.209, 15766.00
1498.252, 15897.00
1499.295, 15941.00
1500.338, 15938.00
1501.381, 16036.00
1502.424, 15867.00
1503.466, 15920.00
1504.509, 16068.00
1505.551, 16019.00
1506.593, 15888.00
1507.635, 15908.00
1508.677, 15794.00
1509.719, 15937.00
1510.761, 15903.00
1511.802, 15837.00
1512.844, 15987.00
1513.885, 15880.00
1514.926, 15803.00
1515.967, 16103.00
1517.008, 15914.00
1518.049, 15987.00
1519.089, 15915.00
1520.130, 15945.00
1521.170, 16011.00
1522.210, 16015.00
1523.250, 16100.00
1524.290, 16134.00
1525.330, 15981.00
1526.370, 16020.00
1527.409, 16076.00
1528.448, 16173.00
1529.488, 16031.00
1530.527, 16016.00
1531.566, 16162.00
1532.605, 16147.00
1533.643, 15985.00
1534.682, 16099.00
1535.720, 16328.00
1536.759, 16153.00
1537.797, 16010.00
1538.835, 16163.00
1539.873, 16034.00
1540.910, 16227.00
1541.948, 16137.00
1542.986, 16288.00
1544.023, 16176.00
1545.060, 16158.00
1546.097, 16272.00
1547.134, 16054.00
1548.171, 16293.00
1549.208, 16208.00
1550.244, 16264.00
1551.281, 16039.00
1552.317, 16125.00
1553.353, 16159.00
1554.389, 16382.00
1555.425, 16380.00
1556.461, 16048.00
1557.497, 16189.00
1558.532, 16141.00
1559.567, 16276.00
1560.603, 16194.00
1561.638, 16224.00
1562.673, 16143.00
1563.708, 16138.00
##END=



