##NAMES=Microcline
##RRUFFID=R050193
##IDEAL CHEMISTRY=KAlSi_3_O_8_
##LOCALITY=Devil's Head, Douglas County, Colorado, USA
##OWNER=RRUFF
##SOURCE=Dave Bunk Minerals
##DESCRIPTION=White to colorless heterogeneous mixture of K and Na feldspar in a cluster of crystals. Crystal structure determined, presented below. This sample is known as an intermediate microcline in the literature.
##STATUS=The identification of this mineral has been confirmed by X-ray diffraction and chemical analysis
##URL=rruff.info/R050193
##MEASURED CHEMISTRY=(K_0.929_Na_0.071_)(Al_1.005_Si_2.994_Fe_0.001_)O_7.993_F_0.007_  ; Light Band :  (Na_0.973_K_0.007_Ca_0.020_)(Al_1.020_Si_2.980_)O_8_ ; Dark Band
##PIN_ID=L00660
##ORIENTATION=Laser parallel to c* (0 0 1). Fiducial mark perpendicular to laser is parallel to a [1 0 0]
127.7630, 16693.00
128.9970, 16817.00
130.2300, 17133.00
131.4640, 17070.00
132.6970, 17326.00
133.9300, 17516.00
135.1630, 17863.00
136.3950, 18254.00
137.6280, 18401.00
138.8600, 18797.00
140.0920, 18861.00
141.3240, 19148.00
142.5560, 19465.00
143.7880, 19732.00
145.0190, 19769.00
146.2510, 20027.00
147.4820, 20220.00
148.7130, 20669.00
149.9440, 20985.00
151.1750, 21363.00
152.4050, 21768.00
153.6360, 21954.20
154.8660, 22019.00
156.0960, 22274.00
157.3260, 22266.00
158.5560, 22269.00
159.7850, 22098.00
161.0150, 21753.00
162.2440, 21599.00
163.4730, 21436.00
164.7020, 21195.00
165.9310, 21107.00
167.1590, 20968.00
168.3880, 20844.00
169.6160, 20851.00
170.8440, 21033.00
172.0720, 20838.00
173.3000, 20907.00
174.5280, 21180.00
175.7550, 21205.00
176.9820, 21350.00
178.2100, 21258.00
179.4370, 21131.00
180.6630, 21198.00
181.8900, 21145.00
183.1170, 20789.00
184.3430, 20884.00
185.5690, 20855.00
186.7950, 21006.00
188.0210, 20791.00
189.2470, 20905.00
190.4720, 21030.00
191.6970, 20874.00
192.9230, 21182.00
194.1480, 21039.00
195.3730, 21248.00
196.5970, 21251.00
197.8220, 21416.00
199.0460, 21551.00
200.2700, 21597.00
201.4940, 21669.00
202.7180, 21487.00
203.9420, 21238.00
205.1660, 21241.00
206.3890, 21317.00
207.6120, 21354.00
208.8350, 21350.94
210.0580, 21327.94
211.2810, 21317.00
212.5040, 21268.00
213.7260, 21188.00
214.9480, 21278.00
216.1700, 21376.00
217.3920, 21135.00
218.6140, 21226.00
219.8360, 21186.00
221.0570, 21473.00
222.2790, 21320.00
223.5000, 21391.00
224.7210, 21378.00
225.9410, 21586.00
227.1620, 21534.00
228.3820, 21725.00
229.6030, 21688.00
230.8230, 21759.00
232.0430, 21750.00
233.2630, 21936.00
234.4820, 21842.00
235.7020, 21971.00
236.9210, 21845.00
238.1400, 21914.00
239.3590, 21949.00
240.5780, 22073.00
241.7970, 22194.00
243.0150, 22142.00
244.2340, 22554.00
245.4520, 22347.00
246.6700, 22299.00
247.8880, 22297.00
249.1060, 22711.00
250.3230, 22580.00
251.5400, 22899.00
252.7580, 22866.00
253.9750, 22968.00
255.1920, 23243.00
256.4080, 23493.00
257.6250, 23624.00
258.8410, 23866.00
260.0580, 23954.00
261.2740, 23834.00
262.4900, 23941.00
263.7050, 23934.00
264.9210, 24170.00
266.1360, 24203.00
267.3520, 24204.00
268.5670, 24389.00
269.7820, 24377.00
270.9960, 24312.00
272.2110, 24564.00
273.4250, 24500.00
274.6400, 24866.00
275.8540, 24994.00
277.0680, 25196.00
278.2810, 25508.00
279.4950, 25802.00
280.7090, 25905.00
281.9220, 26078.00
283.1350, 26047.00
284.3480, 25849.00
285.5610, 25852.00
286.7730, 25770.00
287.9860, 25310.00
289.1980, 25069.00
290.4100, 24971.00
291.6220, 24818.00
292.8340, 24658.00
294.0460, 24503.00
295.2570, 24262.00
296.4690, 24128.00
297.6800, 24332.00
298.8910, 24095.00
300.1020, 24168.00
301.3120, 24163.00
302.5230, 24161.00
303.7330, 24043.00
304.9440, 23998.00
306.1540, 24170.00
307.3630, 24238.00
308.5730, 24109.00
309.7830, 24175.00
310.9920, 24093.00
312.2010, 24146.00
313.4100, 24101.00
314.6190, 24369.00
315.8280, 24343.00
317.0370, 24405.00
318.2450, 24321.00
319.4530, 24515.00
320.6610, 24368.00
321.8690, 24678.00
323.0770, 24552.00
324.2850, 24448.00
325.4920, 24911.00
326.6990, 24611.00
327.9060, 24873.00
329.1130, 24990.00
330.3200, 24776.00
331.5270, 24938.00
332.7330, 24704.00
333.9390, 24877.00
335.1450, 24922.00
336.3510, 25063.00
337.5570, 24874.00
338.7630, 24854.00
339.9680, 25092.00
341.1740, 24967.00
342.3790, 25019.00
343.5840, 24936.00
344.7890, 24882.00
345.9930, 24962.00
347.1980, 24997.00
348.4020, 25092.00
349.6060, 25164.00
350.8100, 25252.00
352.0140, 25331.00
353.2180, 25388.31
354.4210, 25418.00
355.6250, 25478.00
356.8280, 25374.00
358.0310, 25360.00
359.2340, 25440.00
360.4360, 25564.00
361.6390, 25437.00
362.8410, 25449.00
364.0430, 25475.00
365.2450, 25623.00
366.4470, 25603.00
367.6490, 25672.00
368.8510, 25739.91
370.0520, 25769.00
371.2530, 25820.00
372.4540, 25831.00
373.6550, 25799.00
374.8560, 25898.00
376.0560, 25739.00
377.2570, 25953.00
378.4570, 25906.00
379.6570, 26128.00
380.8570, 25904.00
382.0570, 25974.00
383.2560, 26148.00
384.4560, 25829.00
385.6550, 26378.00
386.8540, 26185.00
388.0530, 26170.00
389.2520, 26286.00
390.4510, 26222.00
391.6490, 26207.00
392.8470, 26362.00
394.0450, 26294.00
395.2430, 26330.00
396.4410, 26629.00
397.6390, 26733.00
398.8360, 26691.00
400.0340, 26761.00
401.2310, 26859.00
402.4280, 26821.00
403.6250, 26916.00
404.8210, 27080.00
406.0180, 26915.00
407.2140, 27071.00
408.4100, 26734.00
409.6060, 27058.00
410.8020, 26875.00
411.9980, 27059.00
413.1930, 27002.00
414.3890, 27053.00
415.5840, 27016.94
416.7790, 27136.00
417.9740, 26884.00
419.1680, 26967.00
420.3630, 26945.00
421.5570, 27094.00
422.7510, 27204.00
423.9450, 27333.00
425.1390, 27159.00
426.3330, 27286.00
427.5270, 27255.00
428.7200, 27254.00
429.9130, 27360.00
431.1060, 27031.00
432.2990, 27526.00
433.4920, 27270.00
434.6840, 27599.00
435.8770, 27568.00
437.0690, 27623.00
438.2610, 27705.00
439.4530, 27646.00
440.6450, 28079.00
441.8360, 27931.00
443.0280, 27914.00
444.2190, 28118.00
445.4100, 28025.00
446.6010, 28204.00
447.7920, 28360.00
448.9820, 28445.56
450.1730, 28714.00
451.3630, 28750.00
452.5530, 28924.00
453.7430, 29062.00
454.9330, 29137.00
456.1230, 28938.00
457.3120, 29236.00
458.5010, 29015.00
459.6910, 28931.00
460.8800, 29020.00
462.0680, 28937.00
463.2570, 28990.00
464.4460, 29100.00
465.6340, 29359.00
466.8220, 29553.00
468.0100, 29464.00
469.1980, 30004.00
470.3860, 30084.00
471.5730, 30288.00
472.7600, 30804.00
473.9480, 31059.00
475.1350, 31273.00
476.3210, 31179.00
477.5080, 30929.00
478.6950, 31205.00
479.8810, 30781.00
481.0670, 30358.00
482.2530, 30164.00
483.4390, 29982.06
484.6250, 29842.71
485.8100, 29924.00
486.9960, 29778.00
488.1810, 29902.00
489.3660, 29967.00
490.5510, 29643.00
491.7360, 29756.00
492.9200, 29873.00
494.1050, 30015.00
495.2890, 30085.00
496.4730, 30252.00
497.6570, 30456.56
498.8400, 30671.00
500.0240, 31005.00
501.2070, 31431.00
502.3910, 31895.83
503.5740, 32228.00
504.7570, 32926.00
505.9400, 33325.00
507.1220, 34015.00
508.3050, 34394.00
509.4870, 34938.00
510.6690, 35477.00
511.8510, 36078.00
513.0330, 36234.00
514.2140, 36121.00
515.3960, 35653.00
516.5770, 34730.00
517.7580, 33699.00
518.9390, 33094.00
520.1200, 32492.00
521.3010, 31713.00
522.4810, 31380.00
523.6610, 31237.00
524.8420, 30787.00
526.0220, 30728.00
527.2010, 30770.00
528.3810, 30495.00
529.5610, 30547.00
530.7400, 30501.00
531.9190, 30333.00
533.0980, 30611.00
534.2770, 30339.00
535.4560, 30441.00
536.6340, 30370.00
537.8120, 30350.00
538.9910, 30287.00
540.1690, 30474.00
541.3460, 30333.00
542.5240, 30379.00
543.7020, 30487.00
544.8790, 30290.00
546.0560, 30311.00
547.2330, 30477.00
548.4100, 30620.00
549.5870, 30554.00
550.7630, 30425.00
551.9400, 30630.00
553.1160, 30568.00
554.2920, 30459.00
555.4680, 30555.00
556.6440, 30270.00
557.8190, 30575.00
558.9950, 30396.00
560.1700, 30469.00
561.3450, 30832.00
562.5200, 30647.00
563.6950, 30907.00
564.8690, 30779.00
566.0440, 30888.00
567.2180, 30923.00
568.3920, 30749.00
569.5660, 30809.00
570.7400, 30875.00
571.9130, 30807.46
573.0870, 31061.00
574.2600, 30867.00
575.4330, 31065.00
576.6060, 31254.00
577.7790, 31087.00
578.9520, 31286.00
580.1240, 31248.00
581.2960, 31083.00
582.4690, 31271.00
583.6410, 31310.00
584.8120, 31210.00
585.9840, 31605.00
587.1560, 31370.00
588.3270, 31321.00
589.4980, 31488.00
590.6690, 31356.00
591.8400, 31569.00
593.0110, 31321.00
594.1810, 31562.00
595.3510, 31343.00
596.5220, 31375.00
597.6920, 31695.00
598.8610, 31396.00
600.0310, 31480.00
601.2010, 31809.00
602.3700, 31543.00
603.5390, 31520.00
604.7080, 31626.00
605.8770, 31752.00
607.0460, 31700.00
608.2140, 31632.00
609.3830, 31698.00
610.5510, 31810.00
611.7190, 31659.00
612.8870, 31758.00
614.0550, 32044.00
615.2220, 32093.00
616.3900, 31961.00
617.5570, 32145.00
618.7240, 31956.00
619.8910, 32212.00
621.0580, 32189.00
622.2240, 32138.00
623.3910, 32235.68
624.5570, 32179.00
625.7230, 32238.00
626.8890, 32200.00
628.0550, 32161.00
629.2200, 32214.00
630.3860, 32191.87
631.5510, 32544.00
632.7160, 32267.00
633.8810, 32451.00
635.0460, 32605.00
636.2100, 32497.00
637.3750, 32271.00
638.5390, 32573.00
639.7030, 32396.00
640.8670, 32540.00
642.0310, 32676.00
643.1950, 32535.00
644.3580, 32581.00
645.5210, 32595.00
646.6850, 32529.00
647.8480, 32834.00
649.0100, 32883.00
650.1730, 32810.00
651.3350, 32732.00
652.4980, 32912.00
653.6600, 32659.00
654.8220, 32850.00
655.9840, 33106.00
657.1450, 32806.00
658.3070, 32860.00
659.4680, 33208.00
660.6300, 32827.00
661.7910, 33071.00
662.9510, 33071.00
664.1120, 33004.00
665.2730, 33295.00
666.4330, 33027.00
667.5930, 32934.00
668.7530, 32995.00
669.9130, 33024.00
671.0730, 33122.00
672.2320, 33162.00
673.3920, 32968.00
674.5510, 33195.00
675.7100, 33057.00
676.8690, 33139.00
678.0280, 33212.00
679.1860, 33174.00
680.3450, 33475.00
681.5030, 33235.00
682.6610, 33363.00
683.8190, 33420.00
684.9770, 33335.00
686.1340, 33676.00
687.2920, 33135.00
688.4490, 33623.00
689.6060, 33392.00
690.7630, 33537.00
691.9200, 33523.00
693.0760, 33511.00
694.2330, 33408.00
695.3890, 33700.00
696.5450, 33916.00
697.7010, 33416.00
698.8570, 33714.00
700.0130, 33658.00
701.1680, 33405.00
702.3230, 33754.00
703.4780, 33786.00
704.6330, 33829.00
705.7880, 33855.00
706.9430, 33866.00
708.0970, 33816.00
709.2520, 33916.00
710.4060, 33886.00
711.5600, 33934.00
712.7140, 33981.00
713.8670, 33946.00
715.0210, 33913.00
716.1740, 33972.00
717.3270, 33988.00
718.4800, 34085.00
719.6330, 34014.00
720.7860, 34147.00
721.9380, 34293.00
723.0910, 34174.00
724.2430, 34230.00
725.3950, 34256.63
726.5470, 34295.00
727.6980, 34273.00
728.8500, 34302.00
730.0010, 34253.79
731.1530, 34530.00
732.3040, 34341.00
733.4550, 34493.00
734.6050, 34624.00
735.7560, 34581.00
736.9060, 34983.00
738.0560, 34453.00
739.2060, 34624.00
740.3560, 34860.00
741.5060, 34769.00
742.6560, 34888.00
743.8050, 34957.59
744.9540, 34941.00
746.1030, 35024.00
747.2520, 35186.00
748.4010, 35119.00
749.5500, 35162.00
750.6980, 35275.00
751.8460, 35158.00
752.9950, 35124.00
754.1420, 35174.00
755.2900, 35233.00
756.4380, 35211.00
757.5850, 35366.00
758.7330, 35188.00
759.8800, 35321.00
761.0270, 35966.00
762.1730, 35789.00
763.3200, 35878.00
764.4670, 35642.00
765.6130, 35348.00
766.7590, 35489.00
767.9050, 35295.00
769.0510, 35505.00
770.1960, 35367.00
771.3420, 35625.00
772.4870, 35350.00
773.6320, 35323.00
774.7770, 35599.00
775.9220, 35442.00
777.0670, 35301.00
778.2110, 35286.00
779.3560, 35289.00
780.5000, 35713.00
781.6440, 35574.00
782.7880, 35761.00
783.9320, 35632.00
785.0750, 35782.00
786.2180, 35569.00
787.3620, 35493.00
788.5050, 35677.00
789.6480, 35525.00
790.7900, 35627.00
791.9330, 35729.00
793.0750, 35797.00
794.2170, 35869.00
795.3590, 36180.00
796.5010, 36084.00
797.6430, 35875.00
798.7850, 35677.00
799.9260, 36090.00
801.0670, 35896.00
802.2080, 35815.00
803.3490, 36229.00
804.4900, 36159.00
805.6310, 36074.00
806.7710, 36325.00
807.9110, 36150.00
809.0510, 36240.00
810.1910, 36638.00
811.3310, 36877.00
812.4710, 36650.00
813.6100, 36838.00
814.7490, 36591.00
815.8880, 36598.00
817.0270, 36776.00
818.1660, 36452.00
819.3050, 36521.00
820.4430, 36473.00
821.5820, 36205.00
822.7200, 36092.00
823.8580, 36545.00
824.9950, 36252.00
826.1330, 36373.00
827.2710, 36388.00
828.4080, 36477.00
829.5450, 36519.44
830.6820, 36281.00
831.8190, 36615.00
832.9560, 36431.00
834.0920, 36502.00
835.2280, 36567.00
836.3650, 36510.00
837.5010, 36483.00
838.6360, 36565.00
839.7720, 36492.00
840.9080, 36592.00
842.0430, 36644.00
843.1780, 36842.00
844.3130, 36849.00
845.4480, 36832.00
846.5830, 36785.00
847.7170, 36813.00
848.8520, 36778.00
849.9860, 36790.00
851.1200, 36938.00
852.2540, 36917.00
853.3870, 37256.00
854.5210, 36976.00
855.6540, 37041.00
856.7880, 36842.00
857.9210, 37252.00
859.0540, 37059.00
860.1860, 37034.00
861.3190, 37123.00
862.4510, 37149.00
863.5840, 37343.00
864.7160, 37419.00
865.8480, 37514.00
866.9790, 37404.00
868.1110, 37321.00
869.2420, 37213.00
870.3740, 37433.00
871.5050, 37398.00
872.6360, 37212.00
873.7660, 37648.00
874.8970, 37444.00
876.0280, 37335.00
877.1580, 37381.00
878.2880, 37454.00
879.4180, 37463.80
880.5480, 37481.00
881.6770, 37571.00
882.8070, 37642.00
883.9360, 37639.00
885.0650, 37672.00
886.1940, 37751.00
887.3230, 37718.82
888.4520, 37825.00
889.5800, 37705.00
890.7090, 37750.00
891.8370, 37767.00
892.9650, 37773.00
894.0930, 37787.62
895.2200, 37831.00
896.3480, 37778.00
897.4750, 37843.00
898.6020, 37819.00
899.7290, 37886.00
900.8560, 37944.00
901.9830, 37906.00
903.1090, 37921.00
904.2360, 38105.00
905.3620, 37901.00
906.4880, 38063.00
907.6140, 37969.00
908.7400, 37961.00
909.8650, 38221.00
910.9900, 38215.00
912.1160, 38304.00
913.2410, 38385.11
914.3660, 38218.00
915.4900, 38422.00
916.6150, 38378.00
917.7390, 38303.00
918.8640, 38430.00
919.9880, 38195.00
921.1120, 38420.00
922.2350, 38337.00
923.3590, 38435.00
924.4820, 38663.00
925.6060, 38683.00
926.7290, 38699.62
927.8520, 38629.00
928.9740, 38622.00
930.0970, 38656.67
931.2190, 38453.00
932.3420, 38740.00
933.4640, 38744.00
934.5860, 38779.00
935.7080, 38454.00
936.8290, 38664.00
937.9510, 38938.00
939.0720, 38647.00
940.1930, 38798.00
941.3140, 38839.00
942.4350, 38756.00
943.5560, 39033.00
944.6760, 39237.00
945.7960, 38724.00
946.9170, 39304.00
948.0370, 38963.00
949.1560, 39111.00
950.2760, 39133.00
951.3960, 39307.00
952.5150, 39107.00
953.6340, 39346.00
954.7530, 39310.00
955.8720, 39045.00
956.9910, 39259.00
958.1090, 39286.00
959.2280, 39160.00
960.3460, 39234.00
961.4640, 39186.00
962.5820, 39248.00
963.6990, 39228.00
964.8170, 39382.00
965.9340, 39696.00
967.0510, 39662.00
968.1690, 39711.00
969.2850, 39559.00
970.4020, 39762.00
971.5190, 39731.00
972.6350, 39955.00
973.7510, 39888.00
974.8670, 39667.00
975.9830, 39722.00
977.0990, 39793.00
978.2150, 39961.00
979.3300, 40078.00
980.4450, 40026.00
981.5600, 39999.00
982.6750, 40072.00
983.7900, 39907.00
984.9050, 40022.11
986.0190, 40025.00
987.1340, 40129.00
988.2480, 40279.00
989.3620, 40287.00
990.4750, 40505.00
991.5890, 40403.00
992.7020, 40475.75
993.8160, 40238.00
994.9290, 40492.00
996.0420, 40411.00
997.1550, 40421.00
998.2670, 40405.00
999.3800, 40368.69
1000.492, 40423.00
1001.604, 40357.00
1002.716, 40319.00
1003.828, 40378.53
1004.940, 40422.48
1006.051, 40543.00
1007.163, 40643.00
1008.274, 40586.00
1009.385, 40728.00
1010.496, 40903.00
1011.606, 40541.00
1012.717, 40786.00
1013.827, 40661.00
1014.937, 40749.00
1016.047, 40781.00
1017.157, 40749.00
1018.267, 41089.00
1019.377, 40779.00
1020.486, 40949.00
1021.595, 41199.00
1022.704, 40901.00
1023.813, 40965.00
1024.922, 40816.00
1026.030, 41075.00
1027.139, 41236.00
1028.247, 41073.00
1029.355, 41478.00
1030.463, 41089.00
1031.571, 41256.00
1032.678, 41447.00
1033.786, 41601.00
1034.893, 41627.39
1036.000, 41593.00
1037.107, 41577.00
1038.214, 41548.00
1039.321, 41413.00
1040.427, 41304.00
1041.533, 41364.20
1042.639, 41300.79
1043.745, 41482.00
1044.851, 41392.00
1045.957, 41437.00
1047.062, 41622.00
1048.168, 41491.00
1049.273, 41406.00
1050.378, 41856.00
1051.482, 41593.00
1052.587, 41635.00
1053.692, 41517.00
1054.796, 41826.00
1055.900, 41599.00
1057.004, 41778.00
1058.108, 41873.00
1059.212, 41997.00
1060.315, 41927.00
1061.418, 42022.79
1062.522, 42015.00
1063.625, 42055.00
1064.728, 42048.00
1065.830, 42001.00
1066.933, 42033.00
1068.035, 42013.02
1069.137, 42161.00
1070.239, 42021.00
1071.341, 42177.00
1072.443, 42214.00
1073.545, 42179.00
1074.646, 42236.00
1075.747, 42173.00
1076.848, 42398.00
1077.949, 42504.00
1079.050, 42667.00
1080.150, 42626.00
1081.251, 42647.67
1082.351, 42429.00
1083.451, 42546.00
1084.551, 42682.00
1085.651, 42655.00
1086.750, 42907.00
1087.850, 42863.00
1088.949, 43055.00
1090.048, 43093.00
1091.147, 43030.84
1092.246, 42841.00
1093.345, 42940.00
1094.443, 42902.00
1095.541, 42976.00
1096.639, 43279.00
1097.737, 43184.00
1098.835, 43200.00
1099.933, 43422.00
1101.030, 43179.00
1102.128, 43135.00
1103.225, 43311.00
1104.322, 43340.00
1105.419, 43556.00
1106.515, 43446.00
1107.612, 43476.00
1108.708, 43701.00
1109.804, 43573.00
1110.900, 43491.00
1111.996, 43683.00
1113.092, 43629.00
1114.187, 43719.00
1115.283, 43811.00
1116.378, 43823.37
1117.473, 43893.24
1118.568, 43953.00
1119.662, 43949.00
1120.757, 44067.00
1121.851, 44057.00
1122.946, 44076.23
1124.040, 44021.00
1125.134, 44033.00
1126.227, 44204.00
1127.321, 44104.00
1128.414, 44304.00
1129.508, 44255.00
1130.601, 44140.00
1131.693, 44251.00
1132.786, 44224.00
1133.879, 44252.00
1134.971, 44619.00
1136.064, 44380.00
1137.156, 44379.00
1138.248, 44277.00
1139.339, 44590.00
1140.431, 44442.00
1141.522, 44688.00
1142.614, 44600.00
1143.705, 44597.00
1144.796, 44674.56
1145.887, 44638.45
1146.977, 44448.43
1148.068, 44667.83
1149.158, 44796.49
1150.248, 44839.30
1151.338, 44539.13
1152.428, 44681.85
1153.518, 44647.08
1154.607, 44605.02
1155.696, 44810.06
1156.785, 44559.77
1157.874, 44760.89
1158.963, 44781.81
1160.052, 44885.21
1161.141, 44810.02
1162.229, 44789.98
1163.317, 44948.58
1164.405, 45008.27
1165.493, 44912.51
1166.581, 45021.14
1167.668, 44764.58
1168.756, 44828.48
1169.843, 45030.62
1170.930, 44907.00
1172.017, 45108.00
1173.103, 44983.00
1174.190, 44926.00
1175.276, 45028.00
1176.363, 45060.00
1177.449, 45062.00
1178.535, 45157.00
1179.620, 45223.53
1180.706, 45234.56
1181.791, 45382.00
1182.877, 45291.00
1183.962, 45269.00
1185.047, 45325.00
1186.131, 45359.00
1187.216, 45308.00
1188.300, 45334.75
1189.385, 45334.00
1190.469, 45378.00
1191.553, 45346.00
1192.637, 45514.00
1193.720, 45644.00
1194.804, 45677.00
1195.887, 45766.36
1196.970, 45636.15
1198.053, 45784.09
1199.136, 45881.62
1200.219, 45931.46
1201.301, 45790.72
1202.383, 45896.04
1203.465, 45902.74
1204.547, 45905.40
1205.629, 46045.34
1206.711, 45932.32
1207.792, 46070.05
1208.874, 46107.71
1209.955, 46191.15
1211.036, 46175.38
1212.117, 46190.24
1213.198, 46304.36
1214.278, 46363.50
1215.359, 46336.30
1216.439, 46422.62
1217.519, 46306.07
1218.599, 46367.54
1219.678, 46505.80
1220.758, 46505.00
1221.837, 46499.00
1222.917, 46718.00
1223.996, 46799.00
1225.075, 46738.00
1226.153, 46686.00
1227.232, 46574.00
1228.310, 46736.00
1229.389, 46859.00
1230.467, 46725.00
1231.545, 46833.00
1232.622, 46574.00
1233.700, 46928.00
1234.777, 46581.00
1235.855, 46931.00
1236.932, 46672.00
1238.009, 46684.00
1239.086, 47169.00
1240.162, 46857.00
1241.239, 47136.00
1242.315, 46942.00
1243.391, 46849.00
1244.467, 47209.00
1245.543, 47210.00
1246.619, 46968.00
1247.694, 46804.00
1248.769, 47201.00
1249.844, 46991.00
1250.919, 47086.00
1251.994, 47167.00
1253.069, 47311.00
1254.144, 47078.00
1255.218, 47256.00
1256.292, 47336.00
1257.366, 47396.00
1258.440, 47654.00
1259.514, 47617.00
1260.587, 47816.00
1261.661, 47453.00
1262.734, 47728.00
1263.807, 47629.00
1264.880, 47915.00
1265.952, 47965.00
1267.025, 47959.00
1268.097, 47657.00
1269.170, 48048.00
1270.242, 47831.00
1271.314, 48013.00
1272.385, 47900.00
1273.457, 47878.00
1274.528, 48047.00
1275.600, 48079.00
1276.671, 48373.00
1277.742, 48012.00
1278.812, 48328.00
1279.883, 48108.00
1280.954, 48274.00
1282.024, 48319.00
1283.094, 48359.00
1284.164, 48232.00
1285.234, 48382.00
1286.303, 48368.00
1287.373, 48509.00
1288.442, 48570.00
1289.511, 48692.00
1290.580, 48448.00
1291.649, 48457.00
1292.718, 48724.00
1293.786, 48671.00
1294.855, 48851.00
1295.923, 49030.00
1296.991, 48789.00
1298.059, 48843.00
1299.126, 48699.00
1300.194, 48793.00
1301.261, 48706.00
1302.328, 49015.00
1303.395, 48898.00
1304.462, 49068.00
1305.529, 48778.00
1306.596, 48950.00
1307.662, 49318.00
1308.728, 49101.00
1309.794, 48926.00
1310.860, 49387.00
1311.926, 49470.00
1312.991, 49741.00
1314.057, 49364.00
1315.122, 49492.00
1316.187, 49159.00
1317.252, 49435.00
1318.317, 49883.00
1319.381, 49662.00
1320.446, 49882.00
1321.510, 49355.00
1322.574, 49779.00
1323.638, 49667.00
1324.702, 49671.00
1325.766, 49848.00
1326.829, 49971.00
1327.892, 49897.00
1328.956, 50093.00
1330.019, 49932.00
1331.081, 50194.00
1332.144, 50301.00
1333.206, 50079.00
1334.269, 50277.00
1335.331, 49942.00
1336.393, 50347.00
1337.455, 50436.00
1338.516, 50160.00
1339.578, 49852.00
1340.639, 50105.00
1341.701, 50326.00
1342.762, 50311.00
1343.822, 50381.00
1344.883, 50366.00
1345.944, 50255.00
1347.004, 50533.00
1348.064, 50434.00
1349.124, 50459.00
1350.184, 50746.00
1351.244, 50852.00
1352.304, 50573.00
1353.363, 51071.00
1354.422, 50831.00
1355.481, 50653.00
1356.540, 50808.00
1357.599, 50978.00
1358.657, 50908.00
1359.716, 50752.00
1360.774, 50817.00
1361.832, 50711.00
1362.890, 51109.00
1363.948, 51022.00
1365.006, 51229.00
1366.063, 51286.00
1367.120, 51141.00
1368.178, 51105.00
1369.234, 51202.00
1370.291, 51179.00
1371.348, 51180.00
1372.404, 51177.00
1373.461, 51382.00
1374.517, 51557.00
1375.573, 51319.00
1376.629, 51528.00
1377.684, 51796.00
1378.740, 51409.00
1379.795, 51726.00
1380.850, 51882.00
1381.905, 51490.00
1382.960, 51805.00
1384.015, 51685.00
1385.070, 52062.00
1386.124, 51997.00
1387.178, 52118.00
1388.232, 51893.00
1389.286, 51726.00
1390.340, 51882.00
1391.393, 52137.00
1392.447, 51833.00
1393.500, 52006.00
1394.553, 52393.00
1395.606, 51999.00
1396.659, 52433.00
1397.711, 51981.00
1398.764, 52194.00
1399.816, 52525.00
1400.868, 51963.00
1401.920, 52354.00
1402.972, 52104.00
1404.023, 52565.00
1405.075, 53305.00
1406.126, 52622.00
1407.177, 52491.00
1408.228, 52521.00
1409.279, 52948.00
1410.330, 52599.00
1411.380, 52639.00
1412.431, 52605.00
1413.481, 52921.00
1414.531, 52900.00
1415.580, 52810.00
1416.630, 52748.00
1417.680, 52853.00
1418.729, 52805.00
1419.778, 52804.00
1420.827, 52838.00
1421.876, 53071.00
1422.925, 52961.00
1423.973, 52805.00
1425.022, 53188.00
1426.070, 53156.00
1427.118, 53103.00
1428.166, 53419.00
1429.214, 53349.00
1430.261, 53061.00
1431.309, 53546.00
1432.356, 53337.00
1433.403, 53635.00
1434.450, 53616.00
1435.497, 53469.00
1436.543, 53535.00
1437.590, 53545.59
1438.636, 53730.00
1439.682, 53689.00
1440.728, 53826.00
1441.774, 53925.00
1442.819, 53863.00
1443.865, 54098.00
1444.910, 53724.00
1445.955, 54012.00
1447.000, 53940.00
1448.045, 53799.00
1449.090, 53901.00
1450.134, 54041.00
1451.178, 53816.00
1452.223, 54173.00
1453.267, 54146.00
1454.310, 54153.00
1455.354, 54530.00
1456.398, 54617.00
1457.441, 53959.00
1458.484, 54515.00
1459.527, 54513.00
1460.570, 54327.00
1461.613, 54671.00
1462.655, 54686.00
1463.698, 54606.00
1464.740, 54416.00
1465.782, 54471.00
1466.824, 54577.00
1467.866, 54786.00
1468.907, 55038.00
1469.948, 54753.00
1470.990, 54786.00
1472.031, 54968.00
1473.072, 55187.00
1474.112, 54955.00
1475.153, 55003.00
1476.194, 54720.00
1477.234, 55229.00
1478.274, 55254.00
1479.314, 55056.00
1480.354, 55067.00
1481.393, 55191.00
1482.433, 55150.00
1483.472, 55194.00
1484.511, 55176.00
1485.550, 55379.00
1486.589, 55555.00
1487.628, 55632.00
1488.666, 55456.00
1489.704, 55439.00
1490.743, 55291.00
1491.781, 55484.00
1492.819, 55573.00
1493.856, 55575.00
1494.894, 55663.00
1495.931, 55930.00
1496.968, 55894.00
1498.005, 55487.00
1499.042, 56039.00
1500.079, 55767.00
1501.115, 56079.00
1502.152, 55908.00
1503.188, 55998.00
1504.224, 55977.00
1505.260, 56118.00
1506.296, 56211.00
1507.331, 56484.00
1508.367, 56067.00
1509.402, 56282.00
1510.437, 56139.00
1511.472, 56282.00
1512.507, 56326.00
1513.541, 56398.00
1514.576, 56396.00
1515.610, 56359.00
1516.644, 56423.00
1517.678, 56314.00
1518.712, 56696.00
1519.746, 56617.00
1520.779, 56862.00
1521.813, 56571.00
1522.846, 56821.00
1523.879, 56789.00
1524.912, 56931.00
1525.944, 56810.00
1526.977, 56767.00
1528.009, 56889.00
1529.041, 56600.00
1530.073, 57106.00
1531.105, 56863.00
1532.137, 57111.00
1533.168, 57149.00
1534.200, 56975.00
1535.231, 57244.00
1536.262, 57077.00
1537.293, 57246.00
1538.324, 57462.00
1539.354, 57052.00
1540.385, 57355.00
1541.415, 57362.00
1542.445, 57758.00
1543.475, 57315.00
1544.505, 57649.00
1545.534, 57587.00
1546.564, 57554.00
1547.593, 57454.00
1548.622, 57466.35
1549.651, 57458.30
1550.680, 57519.00
1551.708, 57448.00
1552.737, 57568.00
1553.765, 57451.00
1554.793, 57645.00
1555.821, 57948.00
1556.849, 57465.00
1557.877, 58032.00
1558.904, 58130.00
1559.932, 57845.00
1560.959, 57800.00
1561.986, 57933.00
1563.013, 58316.00
##END=



