##NAMES=Microcline
##RRUFFID=R050150
##IDEAL CHEMISTRY=KAlSi_3_O_8_
##LOCALITY=Crystal Peak area, Park/Teller Counties, Colorado, USA
##OWNER=RRUFF
##SOURCE=Dave Bunk Minerals
##DESCRIPTION=Pale blue prismatic crystals
##STATUS=The identification of this mineral has been confirmed by X-ray diffraction and chemical analysis
##URL=rruff.info/R050150
##MEASURED CHEMISTRY=(K_0.95_Na_0.05_)_Î£=1_Al_1.00_Si_3.00_O_8_
##PIN_ID=L00941
##ORIENTATION=Laser parallel to (-1 0 -1). Fiducial mark perpendicular to laser is parallel to -b [0 -1 0]
137.6830, 9443.000
138.9210, 9902.000
140.1580, 10484.00
141.3950, 10996.00
142.6330, 11757.00
143.8690, 12617.00
145.1060, 13372.00
146.3430, 14444.00
147.5790, 15298.00
148.8150, 16422.00
150.0510, 17870.00
151.2870, 19925.00
152.5220, 21934.00
153.7580, 23425.00
154.9930, 24870.00
156.2280, 25708.00
157.4620, 26377.00
158.6970, 27096.00
159.9310, 28458.00
161.1660, 30096.00
162.4000, 31482.00
163.6330, 32497.00
164.8670, 32159.00
166.1000, 30736.00
167.3340, 28136.00
168.5670, 25709.00
169.8000, 23519.00
171.0320, 22364.00
172.2650, 21956.00
173.4970, 22059.00
174.7290, 22437.00
175.9610, 22836.00
177.1930, 23268.00
178.4240, 23677.00
179.6550, 23858.00
180.8870, 24521.00
182.1170, 24789.00
183.3480, 24936.00
184.5790, 25546.00
185.8090, 25878.00
187.0390, 26100.00
188.2690, 25667.00
189.4990, 24859.00
190.7290, 23434.00
191.9580, 21644.00
193.1870, 19892.00
194.4160, 18477.00
195.6450, 17383.00
196.8740, 16696.00
198.1020, 16519.00
199.3310, 16801.00
200.5590, 16997.00
201.7870, 17360.00
203.0140, 17269.00
204.2420, 17209.00
205.4690, 17061.00
206.6960, 17290.00
207.9230, 17982.00
209.1500, 18536.00
210.3760, 19261.00
211.6030, 19406.00
212.8290, 18768.00
214.0550, 17672.00
215.2810, 15989.00
216.5060, 13897.00
217.7320, 12254.00
218.9570, 11089.00
220.1820, 10281.00
221.4070, 9575.000
222.6320, 9175.000
223.8560, 8987.000
225.0800, 8650.000
226.3040, 8553.000
227.5280, 8378.000
228.7520, 8360.000
229.9760, 8318.000
231.1990, 8130.000
232.4220, 8078.000
233.6450, 7972.000
234.8680, 8077.000
236.0910, 8040.000
237.3130, 8040.000
238.5350, 8096.780
239.7570, 8086.000
240.9790, 8187.000
242.2010, 8277.000
243.4220, 8370.000
244.6430, 8473.000
245.8640, 8714.000
247.0850, 8734.000
248.3060, 8833.000
249.5270, 9091.000
250.7470, 9148.000
251.9670, 9347.000
253.1870, 9523.000
254.4070, 9699.000
255.6260, 9851.000
256.8460, 9889.000
258.0650, 10051.00
259.2840, 10104.53
260.5030, 10116.95
261.7220, 10193.00
262.9400, 10183.00
264.1580, 10139.00
265.3760, 10333.00
266.5940, 10296.00
267.8120, 10429.00
269.0290, 10685.00
270.2470, 10586.00
271.4640, 10951.00
272.6810, 11238.00
273.8980, 11670.00
275.1140, 12394.00
276.3310, 13060.00
277.5470, 14225.00
278.7630, 16197.00
279.9790, 18396.00
281.1940, 21274.00
282.4100, 24543.00
283.6250, 26821.00
284.8400, 28605.00
286.0550, 29887.00
287.2700, 31305.00
288.4850, 32898.00
289.6990, 34927.00
290.9130, 36766.00
292.1270, 38116.00
293.3410, 37698.00
294.5540, 35543.00
295.7680, 32005.00
296.9810, 27499.00
298.1940, 22876.00
299.4070, 19021.00
300.6200, 16588.00
301.8320, 14484.00
303.0450, 13289.00
304.2570, 12373.00
305.4690, 11782.00
306.6800, 11403.00
307.8920, 10969.00
309.1030, 10841.00
310.3150, 10593.00
311.5260, 10530.00
312.7360, 10434.00
313.9470, 10276.00
315.1580, 10405.00
316.3680, 10256.00
317.5780, 10207.00
318.7880, 10506.00
319.9980, 10760.00
321.2070, 11025.00
322.4170, 11121.00
323.6260, 11281.00
324.8350, 11480.00
326.0430, 11660.73
327.2520, 11721.00
328.4610, 12084.00
329.6690, 12391.00
330.8770, 12578.00
332.0850, 12378.00
333.2920, 11897.00
334.5000, 11381.00
335.7070, 10773.00
336.9140, 10317.00
338.1210, 9770.000
339.3280, 9510.000
340.5350, 9264.000
341.7410, 9270.000
342.9470, 9071.000
344.1540, 9165.000
345.3590, 9046.000
346.5650, 9170.000
347.7710, 9136.000
348.9760, 9120.000
350.1810, 9099.000
351.3860, 9054.000
352.5910, 9189.000
353.7950, 8906.000
355.0000, 8849.000
356.2040, 8918.000
357.4080, 8983.000
358.6120, 8906.000
359.8150, 8876.000
361.0190, 8798.000
362.2220, 8702.000
363.4250, 8759.000
364.6280, 8805.000
365.8310, 8850.000
367.0340, 8827.000
368.2360, 8913.000
369.4380, 8991.000
370.6400, 8835.000
371.8420, 8935.000
373.0440, 8953.000
374.2450, 9026.000
375.4470, 9065.000
376.6480, 8932.000
377.8490, 8743.000
379.0490, 8823.000
380.2500, 8780.000
381.4500, 8819.000
382.6510, 8800.789
383.8510, 8758.000
385.0500, 8759.000
386.2500, 8760.395
387.4500, 8710.000
388.6490, 8815.000
389.8480, 8842.000
391.0470, 8923.000
392.2460, 8903.000
393.4440, 9101.000
394.6430, 9100.000
395.8410, 9302.000
397.0390, 9516.000
398.2370, 9650.000
399.4340, 9879.000
400.6320, 10034.22
401.8290, 10454.00
403.0260, 10424.00
404.2230, 10520.00
405.4200, 10831.00
406.6170, 10864.00
407.8130, 11088.00
409.0090, 11339.00
410.2050, 11298.00
411.4010, 11202.00
412.5970, 10749.00
413.7920, 10262.00
414.9880, 9950.000
416.1830, 9634.000
417.3780, 9427.000
418.5730, 9313.000
419.7670, 9199.000
420.9620, 9129.000
422.1560, 9095.000
423.3500, 9054.281
424.5440, 9059.000
425.7380, 9061.000
426.9310, 9012.000
428.1240, 9065.000
429.3180, 9065.000
430.5110, 9141.000
431.7030, 9054.000
432.8960, 9112.000
434.0890, 9133.000
435.2810, 9163.000
436.4730, 9223.000
437.6650, 9312.000
438.8570, 9336.000
440.0480, 9417.000
441.2390, 9499.000
442.4310, 9559.000
443.6220, 9736.000
444.8120, 9864.000
446.0030, 10106.00
447.1940, 10353.00
448.3840, 10516.00
449.5740, 10945.00
450.7640, 11169.00
451.9540, 11419.00
453.1430, 11601.00
454.3330, 11845.00
455.5220, 12046.00
456.7110, 12276.00
457.9000, 12299.00
459.0890, 12452.00
460.2770, 12357.00
461.4650, 12408.00
462.6540, 12684.00
463.8420, 12926.00
465.0290, 13392.00
466.2170, 14690.00
467.4050, 15668.00
468.5920, 17122.00
469.7790, 19431.00
470.9660, 22288.00
472.1530, 25224.00
473.3390, 27506.00
474.5250, 29306.00
475.7120, 30710.00
476.8980, 32498.00
478.0840, 34644.00
479.2690, 36568.00
480.4550, 38123.00
481.6400, 38224.00
482.8250, 36313.00
484.0100, 32838.00
485.1950, 28450.00
486.3800, 24565.00
487.5640, 21325.00
488.7480, 18880.00
489.9320, 17515.00
491.1160, 16570.00
492.3000, 16513.00
493.4840, 16713.00
494.6670, 17398.00
495.8500, 18863.00
497.0330, 21231.00
498.2160, 24557.00
499.3990, 28659.00
500.5810, 32992.00
501.7630, 36613.00
502.9460, 39028.00
504.1280, 41758.00
505.3090, 45276.00
506.4910, 49171.00
507.6720, 53101.00
508.8540, 55870.00
510.0350, 56751.00
511.2160, 54181.00
512.3960, 49002.00
513.5770, 42635.00
514.7570, 36493.00
515.9380, 31065.00
517.1180, 26387.00
518.2970, 23184.00
519.4770, 20389.00
520.6570, 18401.00
521.8360, 16862.00
523.0150, 15644.00
524.1940, 14831.00
525.3730, 14183.00
526.5510, 13605.00
527.7300, 13275.00
528.9080, 12840.00
530.0860, 12586.00
531.2640, 12297.00
532.4420, 12023.00
533.6200, 11924.00
534.7970, 11717.00
535.9740, 11565.04
537.1510, 11482.00
538.3280, 11350.00
539.5050, 11390.00
540.6810, 11259.53
541.8580, 11243.00
543.0340, 11121.00
544.2100, 11058.00
545.3860, 11049.00
546.5610, 10927.00
547.7370, 10932.00
548.9120, 10909.00
550.0870, 10778.00
551.2620, 10965.00
552.4370, 10836.00
553.6120, 10927.00
554.7860, 10977.00
555.9600, 10791.00
557.1340, 10824.00
558.3080, 10787.00
559.4820, 10706.00
560.6560, 10832.00
561.8290, 10758.00
563.0020, 10885.00
564.1750, 10794.00
565.3480, 10867.00
566.5210, 11018.00
567.6930, 10918.00
568.8660, 11015.00
570.0380, 11081.00
571.2100, 11135.00
572.3820, 11402.00
573.5530, 11466.00
574.7250, 11631.00
575.8960, 11553.00
577.0670, 11726.00
578.2380, 11630.00
579.4090, 11734.00
580.5800, 11912.00
581.7500, 11896.00
582.9210, 11640.00
584.0910, 11549.00
585.2610, 11491.00
586.4300, 11157.00
587.6000, 10925.00
588.7690, 10863.00
589.9390, 10725.00
591.1080, 10657.00
592.2770, 10639.00
593.4450, 10536.00
594.6140, 10332.00
595.7820, 10553.00
596.9500, 10506.00
598.1190, 10399.00
599.2860, 10528.00
600.4540, 10608.00
601.6220, 10438.00
602.7890, 10513.00
603.9560, 10419.00
605.1230, 10359.00
606.2900, 10676.00
607.4570, 10411.00
608.6230, 10470.00
609.7890, 10361.00
610.9560, 10558.00
612.1220, 10567.00
613.2870, 10592.00
614.4530, 10514.00
615.6180, 10688.00
616.7840, 10617.00
617.9490, 10714.00
619.1140, 10811.00
620.2790, 10859.00
621.4430, 10940.53
622.6080, 10991.00
623.7720, 11030.00
624.9360, 11149.00
626.1000, 11127.00
627.2640, 11259.00
628.4270, 11349.00
629.5910, 11500.00
630.7540, 11494.00
631.9170, 11510.00
633.0800, 11756.00
634.2430, 11769.00
635.4050, 11771.00
636.5680, 11693.00
637.7300, 11593.00
638.8920, 11624.00
640.0540, 11721.00
641.2150, 11854.00
642.3770, 11850.00
643.5380, 12068.00
644.7000, 12123.00
645.8610, 12069.00
647.0210, 12204.00
648.1820, 12184.00
649.3430, 12073.00
650.5030, 12080.00
651.6630, 11859.00
652.8230, 11808.00
653.9830, 11778.00
655.1430, 11599.00
656.3020, 11472.00
657.4620, 11487.00
658.6210, 11269.00
659.7800, 11295.00
660.9390, 11127.00
662.0970, 11031.00
663.2560, 11004.00
664.4140, 10918.00
665.5720, 10874.88
666.7300, 10900.00
667.8880, 10783.00
669.0460, 10837.00
670.2030, 10791.00
671.3600, 10796.00
672.5180, 10916.00
673.6740, 10958.00
674.8310, 10887.00
675.9880, 10752.00
677.1440, 10839.00
678.3010, 10820.00
679.4570, 10866.00
680.6130, 10778.00
681.7690, 10762.00
682.9240, 10930.00
684.0800, 10831.00
685.2350, 10910.00
686.3900, 10887.00
687.5450, 10856.00
688.7000, 10857.00
689.8540, 10991.00
691.0090, 10993.00
692.1630, 10936.00
693.3170, 10931.00
694.4710, 10895.00
695.6250, 10852.00
696.7780, 10941.00
697.9320, 10833.00
699.0850, 10888.00
700.2380, 10852.00
701.3910, 10880.00
702.5440, 11031.00
703.6970, 11063.00
704.8490, 10902.00
706.0010, 11031.00
707.1530, 11000.00
708.3050, 11118.00
709.4570, 11140.00
710.6090, 11047.00
711.7600, 10994.00
712.9110, 10977.00
714.0620, 10992.00
715.2130, 10976.62
716.3640, 10989.00
717.5150, 10982.00
718.6650, 11096.00
719.8150, 11082.00
720.9650, 11160.00
722.1150, 11197.00
723.2650, 11079.00
724.4150, 11283.00
725.5640, 11108.00
726.7130, 11213.00
727.8630, 11336.00
729.0110, 11139.00
730.1600, 11192.00
731.3090, 11200.00
732.4570, 11287.00
733.6060, 11367.00
734.7540, 11379.76
735.9020, 11322.00
737.0490, 11412.00
738.1970, 11462.00
739.3440, 11433.00
740.4920, 11528.00
741.6390, 11565.91
742.7860, 11644.00
743.9320, 11721.00
745.0790, 11831.00
746.2250, 11962.00
747.3720, 12047.00
748.5180, 12142.00
749.6640, 12196.00
750.8100, 12079.00
751.9550, 12190.00
753.1010, 12114.00
754.2460, 12272.00
755.3910, 12413.00
756.5360, 12623.00
757.6810, 12806.00
758.8250, 12891.00
759.9700, 13052.00
761.1140, 13330.00
762.2580, 13280.00
763.4020, 13722.00
764.5460, 13806.00
765.6900, 13660.00
766.8330, 13827.00
767.9760, 13766.00
769.1200, 13537.00
770.2620, 13283.00
771.4050, 13193.00
772.5480, 13081.00
773.6900, 13166.00
774.8330, 13019.00
775.9750, 13175.00
777.1170, 13132.00
778.2590, 13082.00
779.4000, 12837.00
780.5420, 12578.00
781.6830, 12447.00
782.8240, 12295.00
783.9650, 12128.00
785.1060, 11977.00
786.2470, 11970.00
787.3870, 11948.00
788.5280, 11949.00
789.6680, 11919.00
790.8080, 11915.67
791.9480, 11915.72
793.0870, 11902.00
794.2270, 11921.00
795.3660, 11920.00
796.5060, 11919.00
797.6450, 11973.87
798.7830, 12077.00
799.9220, 12103.00
801.0610, 12229.00
802.1990, 12339.30
803.3370, 12557.00
804.4750, 12685.00
805.6130, 12921.00
806.7510, 13167.00
807.8890, 13756.00
809.0260, 14189.00
810.1630, 14529.00
811.3000, 14904.00
812.4370, 15388.00
813.5740, 15530.00
814.7110, 15810.00
815.8470, 15881.00
816.9830, 15790.45
818.1190, 15793.00
819.2550, 15280.00
820.3910, 14690.00
821.5270, 14029.00
822.6620, 13596.00
823.7970, 13131.00
824.9330, 12769.00
826.0670, 12827.00
827.2020, 12454.00
828.3370, 12543.00
829.4710, 12420.00
830.6060, 12449.00
831.7400, 12465.00
832.8740, 12287.00
834.0080, 12388.00
835.1410, 12273.00
836.2750, 12273.00
837.4080, 12351.00
838.5410, 12147.00
839.6740, 12202.00
840.8070, 12296.00
841.9400, 12209.00
843.0730, 12185.00
844.2050, 12074.00
845.3370, 12206.00
846.4690, 12187.00
847.6010, 12314.00
848.7330, 12130.00
849.8640, 12092.00
850.9960, 12147.00
852.1270, 12245.00
853.2580, 12121.00
854.3890, 12007.00
855.5200, 12136.00
856.6500, 12170.00
857.7810, 12126.00
858.9110, 12159.00
860.0410, 12157.00
861.1710, 12133.00
862.3010, 12032.00
863.4310, 12060.82
864.5600, 12210.00
865.6900, 12072.00
866.8190, 12203.00
867.9480, 12245.00
869.0770, 12198.00
870.2050, 12245.00
871.3340, 12128.00
872.4620, 12213.00
873.5900, 12195.00
874.7180, 12274.00
875.8460, 12194.00
876.9740, 12221.00
878.1010, 12218.00
879.2290, 12298.00
880.3560, 12289.00
881.4830, 12251.00
882.6100, 12208.00
883.7370, 12299.00
884.8630, 12327.00
885.9900, 12343.00
887.1160, 12199.00
888.2420, 12331.00
889.3680, 12379.00
890.4940, 12287.00
891.6200, 12476.00
892.7450, 12346.00
893.8700, 12475.00
894.9960, 12248.00
896.1210, 12410.00
897.2460, 12551.00
898.3700, 12545.00
899.4950, 12386.00
900.6190, 12587.00
901.7430, 12471.00
902.8670, 12526.00
903.9910, 12525.00
905.1150, 12651.00
906.2390, 12570.00
907.3620, 12574.00
908.4850, 12639.00
909.6080, 12622.00
910.7310, 12716.00
911.8540, 12769.00
912.9770, 12629.00
914.0990, 12647.00
915.2210, 12706.00
916.3440, 12721.00
917.4660, 12744.77
918.5870, 12755.45
919.7090, 12772.00
920.8310, 12713.00
921.9520, 12707.00
923.0730, 12732.16
924.1940, 12728.00
925.3150, 12781.00
926.4360, 12794.00
927.5560, 12792.00
928.6770, 12809.00
929.7970, 12763.00
930.9170, 12736.00
932.0370, 12701.00
933.1570, 12628.00
934.2760, 12685.88
935.3960, 12922.00
936.5150, 12787.00
937.6340, 12870.00
938.7530, 12913.00
939.8720, 12900.00
940.9910, 12943.00
942.1090, 12997.00
943.2280, 12979.00
944.3460, 13025.00
945.4640, 12875.00
946.5820, 13074.00
947.6990, 12816.00
948.8170, 12943.00
949.9340, 12987.00
951.0520, 13111.00
952.1690, 13074.00
953.2860, 13199.00
954.4030, 12976.00
955.5190, 13164.00
956.6360, 13073.00
957.7520, 13076.00
958.8680, 13196.00
959.9840, 13127.00
961.1000, 13203.00
962.2160, 13288.00
963.3310, 13329.00
964.4470, 13326.00
965.5620, 13338.00
966.6770, 13236.00
967.7920, 13503.00
968.9060, 13662.00
970.0210, 13646.00
971.1360, 13508.00
972.2500, 13638.00
973.3640, 13731.00
974.4780, 13766.00
975.5920, 13893.51
976.7050, 13939.40
977.8190, 14065.00
978.9320, 14046.00
980.0450, 14069.00
981.1580, 14081.00
982.2710, 13927.00
983.3840, 13882.00
984.4970, 13638.00
985.6090, 13681.00
986.7210, 13686.00
987.8330, 13772.00
988.9450, 13789.00
990.0570, 13812.00
991.1690, 13790.00
992.2800, 13826.54
993.3920, 13884.00
994.5030, 13903.00
995.6140, 13940.00
996.7250, 14042.00
997.8350, 13965.00
998.9460, 14005.00
1000.056, 14157.00
1001.167, 14122.00
1002.277, 14303.00
1003.387, 14388.00
1004.496, 14390.56
1005.606, 14312.00
1006.715, 14419.00
1007.825, 14499.00
1008.934, 14509.00
1010.043, 14597.00
1011.152, 14456.00
1012.260, 14442.00
1013.369, 14541.00
1014.477, 14430.00
1015.586, 14492.33
1016.694, 14401.00
1017.802, 14485.00
1018.909, 14478.00
1020.017, 14381.00
1021.124, 14390.00
1022.232, 14592.00
1023.339, 14527.00
1024.446, 14527.00
1025.553, 14819.00
1026.659, 14953.00
1027.766, 14980.00
1028.872, 15232.00
1029.979, 15482.00
1031.085, 15590.00
1032.191, 15650.34
1033.296, 15626.00
1034.402, 15527.00
1035.507, 15327.00
1036.613, 15058.00
1037.718, 14945.00
1038.823, 14709.00
1039.928, 14671.00
1041.032, 14688.00
1042.137, 14355.00
1043.241, 14360.00
1044.346, 14369.00
1045.450, 14340.00
1046.554, 14327.78
1047.657, 14305.18
1048.761, 14281.00
1049.864, 14256.00
1050.968, 14251.00
1052.071, 14244.00
1053.174, 14137.00
1054.277, 14155.00
1055.379, 14353.00
1056.482, 14227.00
1057.584, 14289.00
1058.687, 14182.00
1059.789, 14114.00
1060.891, 14200.00
1061.992, 14201.00
1063.094, 14288.00
1064.196, 14250.00
1065.297, 14310.00
1066.398, 14338.00
1067.499, 14316.00
1068.600, 14389.00
1069.701, 14357.00
1070.801, 14415.00
1071.902, 14514.00
1073.002, 14573.00
1074.102, 14707.00
1075.202, 14538.00
1076.302, 14781.00
1077.402, 14623.00
1078.501, 14991.00
1079.600, 14969.00
1080.700, 15006.00
1081.799, 15058.00
1082.898, 15359.00
1083.996, 15550.00
1085.095, 15790.00
1086.193, 16102.00
1087.292, 16394.40
1088.390, 16623.00
1089.488, 17204.00
1090.586, 17668.00
1091.683, 18352.00
1092.781, 19215.00
1093.878, 19980.00
1094.975, 20997.00
1096.073, 21465.00
1097.169, 22261.00
1098.266, 23035.00
1099.363, 23167.00
1100.459, 23026.00
1101.556, 22768.00
1102.652, 22426.00
1103.748, 21614.00
1104.844, 21092.00
1105.940, 20380.00
1107.035, 19917.00
1108.131, 19808.00
1109.226, 19490.00
1110.321, 19464.00
1111.416, 19340.00
1112.511, 19368.00
1113.605, 19432.00
1114.700, 19479.00
1115.794, 19441.00
1116.889, 19268.00
1117.983, 19159.00
1119.077, 18846.00
1120.170, 18727.00
1121.264, 18240.00
1122.357, 17980.00
1123.451, 17656.00
1124.544, 17418.00
1125.637, 17148.40
1126.730, 16786.00
1127.823, 16646.00
1128.915, 16368.00
1130.008, 16119.00
1131.100, 16043.00
1132.192, 15789.00
1133.284, 15843.00
1134.376, 15926.00
1135.467, 15732.00
1136.559, 15960.00
1137.650, 15723.00
1138.742, 15684.00
1139.833, 15863.00
1140.924, 15633.00
1142.014, 15535.00
1143.105, 15459.00
1144.195, 15323.71
1145.286, 15224.00
1146.376, 15182.00
1147.466, 15189.00
1148.556, 15199.00
1149.646, 15332.00
1150.735, 15185.00
1151.825, 15145.00
1152.914, 15121.00
1154.003, 14988.00
1155.092, 15127.00
1156.181, 15090.00
1157.270, 15074.00
1158.358, 14877.00
1159.447, 14966.00
1160.535, 14969.00
1161.623, 15104.00
1162.711, 15014.00
1163.799, 14959.00
1164.886, 14990.00
1165.974, 15007.00
1167.061, 14947.00
1168.148, 14867.00
1169.235, 14978.00
1170.322, 14945.00
1171.409, 15004.00
1172.496, 14720.00
1173.582, 14972.00
1174.669, 14993.00
1175.755, 14957.00
1176.841, 15177.00
1177.927, 15001.00
1179.012, 15010.00
1180.098, 14896.00
1181.183, 14879.54
1182.269, 15072.00
1183.354, 14917.00
1184.439, 14949.00
1185.524, 15066.00
1186.608, 14853.00
1187.693, 14891.00
1188.777, 14962.00
1189.862, 15134.00
1190.946, 15009.00
1192.030, 15048.00
1193.113, 14979.00
1194.197, 15113.00
1195.281, 15069.00
1196.364, 15167.00
1197.447, 15030.00
1198.530, 15096.00
1199.613, 15032.00
1200.696, 15182.00
1201.779, 15086.00
1202.861, 15231.00
1203.944, 15279.00
1205.026, 15072.00
1206.108, 15138.00
1207.190, 15242.00
1208.271, 15151.00
1209.353, 15264.00
1210.435, 15217.00
1211.516, 15077.00
1212.597, 15219.00
1213.678, 15244.00
1214.759, 15131.00
1215.840, 15216.00
1216.920, 15209.00
1218.001, 15322.00
1219.081, 15344.00
1220.161, 15250.00
1221.241, 15248.00
1222.321, 15262.00
1223.401, 15212.00
1224.480, 15216.00
1225.560, 15253.66
1226.639, 15212.00
1227.718, 15327.00
1228.797, 15378.00
1229.876, 15369.00
1230.955, 15315.00
1232.033, 15461.00
1233.112, 15469.00
1234.190, 15305.00
1235.268, 15394.00
1236.346, 15427.00
1237.424, 15318.00
1238.501, 15410.00
1239.579, 15491.00
1240.656, 15568.00
1241.733, 15348.00
1242.811, 15295.00
1243.888, 15404.00
1244.964, 15329.00
1246.041, 15404.00
1247.117, 15376.00
1248.194, 15544.00
1249.270, 15511.00
1250.346, 15560.00
1251.422, 15487.00
1252.498, 15470.00
1253.573, 15433.00
1254.649, 15485.00
1255.724, 15531.00
1256.800, 15677.00
1257.875, 15611.00
1258.950, 15528.00
1260.024, 15596.00
1261.099, 15510.00
1262.173, 15567.00
1263.248, 15559.00
1264.322, 15611.00
1265.396, 15675.00
1266.470, 15503.00
1267.544, 15759.00
1268.617, 15798.00
1269.691, 15623.00
1270.764, 15761.00
1271.837, 15655.00
1272.910, 15549.00
1273.983, 15778.00
1275.056, 15740.00
1276.129, 15686.00
1277.201, 15613.00
1278.273, 15814.00
1279.346, 15700.00
1280.418, 15678.00
1281.489, 15780.00
1282.561, 15654.00
1283.633, 15697.00
1284.704, 15880.00
1285.776, 15868.00
1286.847, 15899.00
1287.918, 15754.00
1288.989, 15844.00
1290.059, 15724.00
1291.130, 15832.00
1292.200, 15804.00
1293.271, 15774.00
1294.341, 15849.00
1295.411, 15847.00
1296.481, 15876.00
1297.551, 16097.00
1298.620, 15926.00
1299.690, 16062.00
1300.759, 15974.00
1301.828, 16041.00
1302.897, 16086.00
1303.966, 16044.00
1305.035, 15927.00
1306.103, 15919.00
1307.172, 15857.00
1308.240, 15957.00
1309.308, 16125.00
1310.376, 16060.00
1311.444, 16057.00
1312.512, 16150.00
1313.580, 16017.00
1314.647, 16041.00
1315.714, 16080.00
1316.781, 16015.00
1317.848, 16068.00
1318.915, 16019.00
1319.982, 16171.00
1321.049, 16128.00
1322.115, 16202.00
1323.181, 16116.00
1324.248, 16230.00
1325.314, 16215.00
1326.380, 16178.00
1327.445, 16156.00
1328.511, 16208.00
1329.576, 16342.00
1330.642, 16292.00
1331.707, 16301.00
1332.772, 16355.00
1333.837, 16325.00
1334.902, 16317.96
1335.966, 16320.00
1337.031, 16242.00
1338.095, 16301.00
1339.159, 16240.00
1340.223, 16276.82
1341.287, 16356.00
1342.351, 16323.00
1343.415, 16336.00
1344.478, 16305.00
1345.541, 16304.16
1346.605, 16344.46
1347.668, 16320.00
1348.731, 16400.00
1349.793, 16464.00
1350.856, 16416.00
1351.918, 16372.00
1352.981, 16525.00
1354.043, 16481.00
1355.105, 16482.00
1356.167, 16487.00
1357.229, 16541.00
1358.290, 16368.00
1359.352, 16467.00
1360.413, 16518.00
1361.475, 16436.00
1362.536, 16614.00
1363.597, 16611.00
1364.657, 16626.00
1365.718, 16746.00
1366.779, 16612.00
1367.839, 16535.00
1368.899, 16686.00
1369.959, 16614.00
1371.019, 16640.00
1372.079, 16672.00
1373.139, 16479.00
1374.198, 16782.00
1375.258, 16703.00
1376.317, 16420.00
1377.376, 16562.00
1378.435, 16477.00
1379.494, 16646.00
1380.553, 16675.00
1381.611, 16788.00
1382.670, 16655.00
1383.728, 16589.00
1384.786, 16751.00
1385.844, 16751.00
1386.902, 16561.00
1387.960, 16779.00
1389.017, 16787.00
1390.075, 16717.00
1391.132, 16910.00
1392.189, 16776.00
1393.246, 16803.00
1394.303, 16770.00
1395.360, 16923.00
1396.417, 16921.00
1397.473, 16827.00
1398.529, 16865.00
1399.585, 16820.00
1400.642, 16859.00
1401.697, 16834.00
1402.753, 16783.00
1403.809, 17005.00
1404.864, 16844.00
1405.920, 16956.00
1406.975, 16961.00
1408.030, 16933.00
1409.085, 16922.00
1410.140, 16895.00
1411.194, 16935.00
1412.249, 16967.00
1413.303, 17020.00
1414.358, 17088.00
1415.412, 16947.00
1416.466, 16933.00
1417.520, 17039.00
1418.573, 17010.00
1419.627, 17096.00
1420.680, 17120.00
1421.733, 16977.00
1422.787, 17071.00
1423.840, 17011.00
1424.892, 16997.56
1425.945, 17044.00
1426.998, 16983.00
1428.050, 17061.00
1429.103, 17051.00
1430.155, 17045.00
1431.207, 17116.14
1432.259, 17116.00
1433.310, 17247.00
1434.362, 17144.00
1435.414, 17247.00
1436.465, 17245.00
1437.516, 17342.00
1438.567, 17188.00
1439.618, 17073.00
1440.669, 17247.00
1441.720, 17269.00
1442.770, 17318.00
1443.820, 17207.00
1444.871, 17308.00
1445.921, 17203.00
1446.971, 17257.00
1448.021, 17319.00
1449.070, 17131.00
1450.120, 17253.00
1451.169, 17195.00
1452.219, 17294.00
1453.268, 17377.00
1454.317, 17361.00
1455.366, 17309.00
1456.414, 17422.00
1457.463, 17578.00
1458.511, 17715.00
1459.560, 17449.00
1460.608, 17572.00
1461.656, 17419.00
1462.704, 17413.00
1463.752, 17524.00
1464.799, 17569.00
1465.847, 17440.00
1466.894, 17478.00
1467.941, 17442.00
1468.988, 17556.00
1470.035, 17515.00
1471.082, 17558.00
1472.129, 17573.00
1473.175, 17561.00
1474.222, 17630.00
1475.268, 17732.00
1476.314, 17582.00
1477.360, 17491.00
1478.406, 17584.00
1479.452, 17487.00
1480.498, 17623.00
1481.543, 17642.00
1482.588, 17567.00
1483.633, 17647.00
1484.679, 17592.00
1485.723, 17703.00
1486.768, 17608.00
1487.813, 17651.00
1488.857, 17509.00
1489.902, 17644.00
1490.946, 17649.00
1491.990, 17770.00
1493.034, 17648.00
1494.078, 17535.00
1495.122, 17596.00
1496.165, 17785.00
1497.209, 17831.00
1498.252, 17865.00
1499.295, 17763.00
1500.338, 17783.00
1501.381, 17659.00
1502.424, 17812.00
1503.466, 17861.00
1504.509, 17729.00
1505.551, 17758.00
1506.593, 17850.00
1507.635, 17804.00
1508.677, 17832.00
1509.719, 17779.00
1510.761, 17725.00
1511.802, 17781.00
1512.844, 17799.00
1513.885, 17896.00
1514.926, 17897.00
1515.967, 17991.00
1517.008, 17963.00
1518.049, 18022.00
1519.089, 18029.93
1520.130, 18034.46
1521.170, 18058.00
1522.210, 18027.00
1523.250, 18081.00
1524.290, 18032.00
1525.330, 18124.00
1526.370, 17892.00
1527.409, 18066.00
1528.448, 18011.00
1529.488, 17845.00
1530.527, 18069.00
1531.566, 18123.00
1532.605, 17995.00
1533.643, 18145.00
1534.682, 18250.00
1535.720, 18039.00
1536.759, 18135.00
1537.797, 18303.00
1538.835, 17992.00
1539.873, 18258.00
1540.910, 18077.00
1541.948, 18163.00
1542.986, 18221.00
1544.023, 18342.00
1545.060, 18152.00
1546.097, 18003.00
1547.134, 18250.00
1548.171, 18042.00
1549.208, 18264.00
1550.244, 18351.00
1551.281, 18014.00
1552.317, 18391.00
1553.353, 18342.00
1554.389, 18611.00
1555.425, 18584.00
1556.461, 18424.00
1557.497, 18407.00
1558.532, 18358.05
1559.567, 18183.00
1560.603, 18314.00
1561.638, 18249.00
1562.673, 18242.00
1563.708, 18328.00
##END=



