##NAMES=Microcline
##RRUFFID=R050193
##IDEAL CHEMISTRY=KAlSi_3_O_8_
##LOCALITY=Devil's Head, Douglas County, Colorado, USA
##OWNER=RRUFF
##SOURCE=Dave Bunk Minerals
##DESCRIPTION=White to colorless heterogeneous mixture of K and Na feldspar in a cluster of crystals. Crystal structure determined, presented below. This sample is known as an intermediate microcline in the literature.
##STATUS=The identification of this mineral has been confirmed by X-ray diffraction and chemical analysis
##URL=rruff.info/R050193
##MEASURED CHEMISTRY=(K_0.929_Na_0.071_)(Al_1.005_Si_2.994_Fe_0.001_)O_7.993_F_0.007_  ; Light Band :  (Na_0.973_K_0.007_Ca_0.020_)(Al_1.020_Si_2.980_)O_8_ ; Dark Band
##PIN_ID=L00660
##ORIENTATION=Laser parallel to c* (0 0 1). Fiducial mark perpendicular to laser is parallel to a [1 0 0]
127.7630, 17845.00
128.9970, 18086.00
130.2300, 18387.00
131.4640, 18904.00
132.6970, 19527.47
133.9300, 19995.00
135.1630, 21236.00
136.3950, 22239.00
137.6280, 23499.00
138.8600, 24268.00
140.0920, 24965.00
141.3240, 25226.00
142.5560, 25351.00
143.7880, 25742.00
145.0190, 26022.00
146.2510, 26711.62
147.4820, 27379.00
148.7130, 28528.00
149.9440, 29593.00
151.1750, 31096.00
152.4050, 32647.00
153.6360, 34030.00
154.8660, 35526.00
156.0960, 36351.00
157.3260, 36322.00
158.5560, 36155.00
159.7850, 34621.00
161.0150, 32590.00
162.2440, 30688.00
163.4730, 28841.00
164.7020, 27267.00
165.9310, 25923.00
167.1590, 24566.00
168.3880, 23721.00
169.6160, 22662.00
170.8440, 22361.00
172.0720, 21906.00
173.3000, 21337.00
174.5280, 21311.00
175.7550, 21062.00
176.9820, 20922.00
178.2100, 20780.00
179.4370, 20583.00
180.6630, 20411.00
181.8900, 20049.00
183.1170, 20054.00
184.3430, 19875.00
185.5690, 19714.00
186.7950, 19718.00
188.0210, 19709.00
189.2470, 19646.91
190.4720, 19430.00
191.6970, 19565.00
192.9230, 19623.00
194.1480, 19500.00
195.3730, 19775.00
196.5970, 19682.00
197.8220, 19651.00
199.0460, 19640.00
200.2700, 19537.00
201.4940, 19492.55
202.7180, 19428.00
203.9420, 19288.00
205.1660, 19160.00
206.3890, 18941.00
207.6120, 18876.00
208.8350, 18831.24
210.0580, 18900.00
211.2810, 18873.00
212.5040, 18932.00
213.7260, 19030.00
214.9480, 19062.00
216.1700, 18929.00
217.3920, 19222.00
218.6140, 19084.00
219.8360, 18960.00
221.0570, 19094.00
222.2790, 19084.00
223.5000, 19194.00
224.7210, 19261.00
225.9410, 19297.35
227.1620, 19356.00
228.3820, 19391.00
229.6030, 19461.00
230.8230, 19491.00
232.0430, 19654.00
233.2630, 19564.00
234.4820, 19624.00
235.7020, 19860.00
236.9210, 19802.00
238.1400, 19975.00
239.3590, 19889.00
240.5780, 20174.00
241.7970, 20191.00
243.0150, 20231.00
244.2340, 20603.00
245.4520, 20427.00
246.6700, 20867.00
247.8880, 21173.00
249.1060, 21386.00
250.3230, 21893.00
251.5400, 22155.00
252.7580, 22674.00
253.9750, 23135.00
255.1920, 23511.00
256.4080, 23891.00
257.6250, 24298.00
258.8410, 24731.26
260.0580, 25091.58
261.2740, 25572.00
262.4900, 25872.00
263.7050, 26147.00
264.9210, 26602.00
266.1360, 27058.00
267.3520, 27183.00
268.5670, 27553.00
269.7820, 28087.00
270.9960, 28680.00
272.2110, 29594.00
273.4250, 30512.00
274.6400, 31571.00
275.8540, 32685.00
277.0680, 33946.00
278.2810, 34737.00
279.4950, 35343.00
280.7090, 35575.00
281.9220, 35426.00
283.1350, 34775.00
284.3480, 33629.00
285.5610, 32095.00
286.7730, 30678.00
287.9860, 29283.00
289.1980, 27958.00
290.4100, 26678.00
291.6220, 25676.00
292.8340, 24913.00
294.0460, 24526.00
295.2570, 23616.00
296.4690, 23265.00
297.6800, 22679.00
298.8910, 22541.00
300.1020, 22314.00
301.3120, 22275.00
302.5230, 22042.00
303.7330, 22044.00
304.9440, 21734.00
306.1540, 21742.00
307.3630, 21711.00
308.5730, 21581.00
309.7830, 21600.00
310.9920, 21776.00
312.2010, 21546.00
313.4100, 21478.00
314.6190, 21742.00
315.8280, 21572.00
317.0370, 21690.00
318.2450, 21593.00
319.4530, 21724.00
320.6610, 21926.00
321.8690, 21807.00
323.0770, 21852.00
324.2850, 22153.00
325.4920, 22107.00
326.6990, 22227.00
327.9060, 22370.00
329.1130, 22311.00
330.3200, 22481.00
331.5270, 22496.00
332.7330, 22397.00
333.9390, 22308.00
335.1450, 22431.00
336.3510, 22416.00
337.5570, 21992.00
338.7630, 22154.00
339.9680, 22124.00
341.1740, 22079.00
342.3790, 22235.00
343.5840, 22124.00
344.7890, 22070.00
345.9930, 22233.00
347.1980, 22126.00
348.4020, 22110.97
349.6060, 22171.00
350.8100, 22272.00
352.0140, 22427.12
353.2180, 22445.21
354.4210, 22515.00
355.6250, 22484.00
356.8280, 22518.00
358.0310, 22443.00
359.2340, 22484.80
360.4360, 22606.00
361.6390, 22466.00
362.8410, 22526.00
364.0430, 22376.00
365.2450, 22549.00
366.4470, 22487.00
367.6490, 22548.00
368.8510, 22539.95
370.0520, 22474.00
371.2530, 22515.00
372.4540, 22412.00
373.6550, 22486.00
374.8560, 22519.00
376.0560, 22422.00
377.2570, 22552.00
378.4570, 22295.00
379.6570, 22471.00
380.8570, 22488.00
382.0570, 22400.00
383.2560, 22457.00
384.4560, 22446.25
385.6550, 22460.00
386.8540, 22504.00
388.0530, 22501.00
389.2520, 22576.00
390.4510, 22484.00
391.6490, 22632.00
392.8470, 22769.00
394.0450, 22702.00
395.2430, 22798.00
396.4410, 22869.00
397.6390, 22961.00
398.8360, 22904.00
400.0340, 23027.00
401.2310, 23095.00
402.4280, 23245.00
403.6250, 23264.00
404.8210, 23354.98
406.0180, 23463.00
407.2140, 23392.00
408.4100, 23340.00
409.6060, 23161.00
410.8020, 23198.96
411.9980, 23210.00
413.1930, 23191.00
414.3890, 23226.00
415.5840, 23170.00
416.7790, 23102.00
417.9740, 23151.00
419.1680, 23106.51
420.3630, 23262.00
421.5570, 23121.00
422.7510, 23169.00
423.9450, 23221.00
425.1390, 23103.00
426.3330, 23127.00
427.5270, 23269.00
428.7200, 23393.00
429.9130, 23388.00
431.1060, 23543.49
432.2990, 23491.00
433.4920, 23718.00
434.6840, 23811.00
435.8770, 23818.00
437.0690, 23878.00
438.2610, 23996.00
439.4530, 24390.00
440.6450, 24546.00
441.8360, 24809.00
443.0280, 25075.00
444.2190, 25278.00
445.4100, 25577.00
446.6010, 25803.00
447.7920, 26053.00
448.9820, 26595.00
450.1730, 26559.00
451.3630, 27029.00
452.5530, 27165.00
453.7430, 27331.00
454.9330, 27302.00
456.1230, 27218.88
457.3120, 27017.00
458.5010, 26857.00
459.6910, 26747.00
460.8800, 26554.00
462.0680, 26974.00
463.2570, 26825.00
464.4460, 27744.00
465.6340, 27988.00
466.8220, 28838.00
468.0100, 29367.00
469.1980, 30591.00
470.3860, 31482.00
471.5730, 32396.00
472.7600, 33519.00
473.9480, 34303.00
475.1350, 34612.00
476.3210, 34312.00
477.5080, 33588.00
478.6950, 32610.00
479.8810, 31873.00
481.0670, 31224.00
482.2530, 30696.00
483.4390, 29962.00
484.6250, 29688.00
485.8100, 29172.00
486.9960, 28726.00
488.1810, 28530.00
489.3660, 28033.00
490.5510, 27963.00
491.7360, 28132.00
492.9200, 27898.00
494.1050, 28030.00
495.2890, 28238.00
496.4730, 28605.00
497.6570, 29071.00
498.8400, 29691.00
500.0240, 30754.00
501.2070, 32000.00
502.3910, 33661.00
503.5740, 35817.00
504.7570, 38014.00
505.9400, 40408.00
507.1220, 43635.00
508.3050, 46694.00
509.4870, 49696.00
510.6690, 52371.00
511.8510, 54147.00
513.0330, 53981.00
514.2140, 52138.00
515.3960, 49454.00
516.5770, 45328.00
517.7580, 41998.00
518.9390, 38660.00
520.1200, 35891.00
521.3010, 33865.00
522.4810, 31987.00
523.6610, 30938.00
524.8420, 30091.00
526.0220, 29247.00
527.2010, 28652.19
528.3810, 28164.13
529.5610, 27744.00
530.7400, 27538.00
531.9190, 27281.00
533.0980, 27133.00
534.2770, 26987.00
535.4560, 26847.00
536.6340, 26861.00
537.8120, 26753.00
538.9910, 26765.00
540.1690, 26704.76
541.3460, 26548.00
542.5240, 26560.00
543.7020, 26513.00
544.8790, 26347.00
546.0560, 26399.00
547.2330, 26413.00
548.4100, 26322.24
549.5870, 26399.00
550.7630, 26235.00
551.9400, 26201.00
553.1160, 26187.00
554.2920, 26299.00
555.4680, 26362.00
556.6440, 26367.79
557.8190, 26430.00
558.9950, 26387.00
560.1700, 26365.00
561.3450, 26343.00
562.5200, 26385.00
563.6950, 26394.12
564.8690, 26296.00
566.0440, 26474.00
567.2180, 26453.00
568.3920, 26501.70
569.5660, 26637.00
570.7400, 26518.00
571.9130, 26580.00
573.0870, 26698.00
574.2600, 26586.00
575.4330, 26764.00
576.6060, 26435.00
577.7790, 26662.00
578.9520, 26770.00
580.1240, 26722.00
581.2960, 26919.00
582.4690, 26894.00
583.6410, 26754.00
584.8120, 26709.00
585.9840, 26887.00
587.1560, 26952.00
588.3270, 26756.00
589.4980, 27060.00
590.6690, 26755.00
591.8400, 27020.00
593.0110, 26959.00
594.1810, 26800.00
595.3510, 26755.00
596.5220, 26930.00
597.6920, 26859.00
598.8610, 26847.00
600.0310, 26789.00
601.2010, 26750.00
602.3700, 27012.00
603.5390, 27006.00
604.7080, 27067.00
605.8770, 26989.00
607.0460, 27134.00
608.2140, 27308.00
609.3830, 27250.00
610.5510, 27383.00
611.7190, 27314.00
612.8870, 27355.00
614.0550, 27320.00
615.2220, 27370.00
616.3900, 27189.00
617.5570, 27295.00
618.7240, 27499.00
619.8910, 27789.00
621.0580, 27547.00
622.2240, 27653.00
623.3910, 27665.00
624.5570, 27949.00
625.7230, 28068.00
626.8890, 28079.00
628.0550, 28204.00
629.2200, 28231.01
630.3860, 28197.00
631.5510, 28229.00
632.7160, 28113.00
633.8810, 27944.00
635.0460, 28019.00
636.2100, 27960.00
637.3750, 28069.00
638.5390, 27921.00
639.7030, 27966.00
640.8670, 27950.00
642.0310, 27868.00
643.1950, 28037.00
644.3580, 27870.00
645.5210, 28139.00
646.6850, 28124.00
647.8480, 28172.00
649.0100, 28150.00
650.1730, 28248.00
651.3350, 28221.86
652.4980, 28226.21
653.6600, 28223.00
654.8220, 28230.00
655.9840, 28258.00
657.1450, 28329.00
658.3070, 28359.00
659.4680, 28107.00
660.6300, 28236.00
661.7910, 28224.00
662.9510, 28294.00
664.1120, 28295.00
665.2730, 28260.00
666.4330, 28274.00
667.5930, 28005.00
668.7530, 28216.00
669.9130, 28451.00
671.0730, 28095.00
672.2320, 28181.00
673.3920, 28096.00
674.5510, 27953.00
675.7100, 28092.00
676.8690, 28285.00
678.0280, 28168.00
679.1860, 28172.00
680.3450, 28227.00
681.5030, 28091.00
682.6610, 28337.00
683.8190, 28134.00
684.9770, 28204.00
686.1340, 28424.00
687.2920, 28304.00
688.4490, 28202.00
689.6060, 28199.00
690.7630, 28404.00
691.9200, 28301.00
693.0760, 28599.00
694.2330, 28551.00
695.3890, 28522.00
696.5450, 28337.00
697.7010, 28552.00
698.8570, 28560.00
700.0130, 28447.00
701.1680, 28755.00
702.3230, 28553.00
703.4780, 28749.00
704.6330, 28641.00
705.7880, 28753.00
706.9430, 28704.00
708.0970, 28737.00
709.2520, 28799.00
710.4060, 28704.00
711.5600, 28781.00
712.7140, 28906.00
713.8670, 29041.00
715.0210, 28918.00
716.1740, 29029.00
717.3270, 29313.00
718.4800, 29134.00
719.6330, 29177.00
720.7860, 29325.00
721.9380, 29209.00
723.0910, 29158.00
724.2430, 29025.00
725.3950, 29288.00
726.5470, 29452.00
727.6980, 29474.00
728.8500, 29455.00
730.0010, 29475.00
731.1530, 29675.00
732.3040, 29766.00
733.4550, 29673.00
734.6050, 29753.00
735.7560, 29732.00
736.9060, 30033.00
738.0560, 29928.00
739.2060, 30079.00
740.3560, 29914.00
741.5060, 30421.00
742.6560, 30183.00
743.8050, 30265.00
744.9540, 30538.00
746.1030, 30510.00
747.2520, 30582.00
748.4010, 30647.52
749.5500, 30628.66
750.6980, 30630.00
751.8460, 30661.00
752.9950, 30556.00
754.1420, 30630.00
755.2900, 30608.61
756.4380, 30479.00
757.5850, 30654.00
758.7330, 30610.00
759.8800, 30682.00
761.0270, 30686.00
762.1730, 30724.37
763.3200, 30524.00
764.4670, 30827.00
765.6130, 30755.00
766.7590, 30812.00
767.9050, 30983.00
769.0510, 30814.00
770.1960, 30831.00
771.3420, 30739.00
772.4870, 30760.00
773.6320, 30694.62
774.7770, 30662.08
775.9220, 30607.00
777.0670, 30603.00
778.2110, 30618.00
779.3560, 30610.00
780.5000, 30530.00
781.6440, 30519.00
782.7880, 30609.00
783.9320, 30442.00
785.0750, 30512.00
786.2180, 30480.00
787.3620, 30794.00
788.5050, 30656.00
789.6480, 30785.00
790.7900, 30679.00
791.9330, 30912.00
793.0750, 30847.00
794.2170, 31134.00
795.3590, 30873.00
796.5010, 31157.00
797.6430, 31081.00
798.7850, 30924.00
799.9260, 30968.00
801.0670, 31083.00
802.2080, 31289.00
803.3490, 31249.00
804.4900, 31605.00
805.6310, 31527.00
806.7710, 31586.00
807.9110, 32073.00
809.0510, 31921.00
810.1910, 32172.00
811.3310, 32189.00
812.4710, 32223.00
813.6100, 32319.00
814.7490, 32099.00
815.8880, 31813.00
817.0270, 31779.00
818.1660, 31497.00
819.3050, 31432.00
820.4430, 31333.00
821.5820, 31208.00
822.7200, 31333.00
823.8580, 30980.00
824.9950, 31244.00
826.1330, 31232.00
827.2710, 31122.00
828.4080, 31277.00
829.5450, 31087.00
830.6820, 30916.00
831.8190, 31222.00
832.9560, 31086.00
834.0920, 31105.00
835.2280, 31136.00
836.3650, 31327.00
837.5010, 31349.00
838.6360, 31367.03
839.7720, 31250.00
840.9080, 31267.00
842.0430, 31518.00
843.1780, 31332.00
844.3130, 31387.00
845.4480, 31360.00
846.5830, 31284.00
847.7170, 31292.00
848.8520, 31541.00
849.9860, 31644.00
851.1200, 31387.00
852.2540, 31650.00
853.3870, 31578.00
854.5210, 31519.00
855.6540, 31811.00
856.7880, 31700.00
857.9210, 31665.00
859.0540, 31781.00
860.1860, 31745.00
861.3190, 31704.00
862.4510, 31811.00
863.5840, 31633.00
864.7160, 31744.00
865.8480, 31931.00
866.9790, 31710.00
868.1110, 31968.00
869.2420, 31788.00
870.3740, 31736.00
871.5050, 31839.00
872.6360, 31804.00
873.7660, 31847.00
874.8970, 32064.00
876.0280, 31977.00
877.1580, 32004.00
878.2880, 31815.00
879.4180, 32175.00
880.5480, 32001.00
881.6770, 32114.00
882.8070, 32077.00
883.9360, 32046.00
885.0650, 32236.00
886.1940, 32185.00
887.3230, 32160.00
888.4520, 31945.00
889.5800, 32006.00
890.7090, 32084.00
891.8370, 32051.00
892.9650, 32310.00
894.0930, 32086.00
895.2200, 32262.00
896.3480, 32200.00
897.4750, 32196.14
898.6020, 32342.00
899.7290, 32269.00
900.8560, 32376.00
901.9830, 32496.00
903.1090, 32374.00
904.2360, 32501.00
905.3620, 32332.00
906.4880, 32429.00
907.6140, 32554.00
908.7400, 32461.00
909.8650, 32523.00
910.9900, 32687.00
912.1160, 32718.00
913.2410, 32639.00
914.3660, 32592.00
915.4900, 32517.00
916.6150, 32594.00
917.7390, 32786.00
918.8640, 32742.00
919.9880, 32813.00
921.1120, 32897.00
922.2350, 32847.00
923.3590, 33076.00
924.4820, 32903.00
925.6060, 32884.00
926.7290, 33118.00
927.8520, 33126.00
928.9740, 32784.00
930.0970, 32915.00
931.2190, 32839.62
932.3420, 32935.00
933.4640, 32985.00
934.5860, 33034.00
935.7080, 33128.14
936.8290, 33151.39
937.9510, 33282.00
939.0720, 33203.00
940.1930, 33234.84
941.3140, 33215.00
942.4350, 33325.00
943.5560, 33294.00
944.6760, 33377.00
945.7960, 33456.00
946.9170, 33702.00
948.0370, 33514.00
949.1560, 33867.00
950.2760, 33696.00
951.3960, 33984.00
952.5150, 33433.00
953.6340, 33572.00
954.7530, 33747.00
955.8720, 33815.00
956.9910, 33893.00
958.1090, 33907.05
959.2280, 33710.00
960.3460, 33827.00
961.4640, 33797.00
962.5820, 33691.00
963.6990, 33945.00
964.8170, 33986.00
965.9340, 33947.00
967.0510, 34121.00
968.1690, 33929.00
969.2850, 33889.00
970.4020, 34370.00
971.5190, 34253.00
972.6350, 34243.00
973.7510, 34207.00
974.8670, 34293.00
975.9830, 34419.00
977.0990, 34529.00
978.2150, 34371.00
979.3300, 34769.00
980.4450, 34619.00
981.5600, 34510.00
982.6750, 34626.00
983.7900, 34908.00
984.9050, 34879.00
986.0190, 34970.00
987.1340, 34784.00
988.2480, 35032.00
989.3620, 35079.00
990.4750, 35017.00
991.5890, 35214.00
992.7020, 35373.00
993.8160, 35292.00
994.9290, 35401.00
996.0420, 35432.00
997.1550, 35514.00
998.2670, 35655.00
999.3800, 35665.00
1000.492, 35754.92
1001.604, 35826.00
1002.716, 35813.00
1003.828, 35793.00
1004.940, 35706.00
1006.051, 35973.00
1007.163, 35712.00
1008.274, 35467.00
1009.385, 35692.00
1010.496, 35873.00
1011.606, 35757.00
1012.717, 35717.00
1013.827, 35742.00
1014.937, 35734.00
1016.047, 35810.00
1017.157, 35685.00
1018.267, 35633.00
1019.377, 35999.00
1020.486, 35898.00
1021.595, 35993.00
1022.704, 35995.00
1023.813, 35791.00
1024.922, 35829.00
1026.030, 35858.00
1027.139, 35945.00
1028.247, 35955.00
1029.355, 36032.89
1030.463, 36094.57
1031.571, 36182.00
1032.678, 36198.00
1033.786, 36298.00
1034.893, 36284.00
1036.000, 36263.00
1037.107, 36309.00
1038.214, 36167.00
1039.321, 36407.00
1040.427, 36171.00
1041.533, 36460.00
1042.639, 36102.00
1043.745, 36449.00
1044.851, 36128.00
1045.957, 36179.00
1047.062, 36307.00
1048.168, 36247.00
1049.273, 36172.00
1050.378, 36181.00
1051.482, 36326.00
1052.587, 36078.00
1053.692, 36332.00
1054.796, 36189.00
1055.900, 36238.00
1057.004, 36379.00
1058.108, 36429.00
1059.212, 36276.00
1060.315, 36410.00
1061.418, 36331.00
1062.522, 36427.00
1063.625, 36216.00
1064.728, 36379.00
1065.830, 36655.00
1066.933, 36421.00
1068.035, 36339.00
1069.137, 36686.00
1070.239, 36783.00
1071.341, 36488.00
1072.443, 36504.00
1073.545, 36737.00
1074.646, 36849.00
1075.747, 36529.00
1076.848, 36977.00
1077.949, 37076.00
1079.050, 36737.00
1080.150, 36995.00
1081.251, 37120.00
1082.351, 37037.00
1083.451, 37118.00
1084.551, 37126.00
1085.651, 37232.00
1086.750, 37242.89
1087.850, 37294.01
1088.949, 37303.00
1090.048, 37393.00
1091.147, 37458.00
1092.246, 37543.00
1093.345, 37660.00
1094.443, 37659.00
1095.541, 37714.00
1096.639, 37767.88
1097.737, 37966.00
1098.835, 37908.00
1099.933, 37734.00
1101.030, 37905.00
1102.128, 38110.00
1103.225, 37859.00
1104.322, 38142.00
1105.419, 38045.00
1106.515, 38239.00
1107.612, 38343.00
1108.708, 38248.00
1109.804, 38425.00
1110.900, 38380.00
1111.996, 38652.00
1113.092, 38584.00
1114.187, 38984.00
1115.283, 38805.00
1116.378, 39304.00
1117.473, 39252.00
1118.568, 39275.00
1119.662, 39837.00
1120.757, 40042.00
1121.851, 39961.00
1122.946, 39805.00
1124.040, 39783.00
1125.134, 39711.00
1126.227, 39724.96
1127.321, 39843.00
1128.414, 39828.00
1129.508, 39899.00
1130.601, 39982.00
1131.693, 39820.00
1132.786, 40062.00
1133.879, 40112.00
1134.971, 39885.00
1136.064, 40280.00
1137.156, 40164.00
1138.248, 40058.00
1139.339, 40182.00
1140.431, 40059.00
1141.522, 40220.00
1142.614, 40006.00
1143.705, 40025.00
1144.796, 39746.00
1145.887, 39781.00
1146.977, 39613.00
1148.068, 39555.00
1149.158, 39560.00
1150.248, 39278.00
1151.338, 39313.00
1152.428, 39310.00
1153.518, 39206.00
1154.607, 39092.00
1155.696, 39181.00
1156.785, 39002.00
1157.874, 39203.00
1158.963, 39285.00
1160.052, 39240.00
1161.141, 39209.00
1162.229, 39301.00
1163.317, 39192.00
1164.405, 39233.00
1165.493, 39225.00
1166.581, 39157.00
1167.668, 39199.00
1168.756, 39133.00
1169.843, 39281.00
1170.930, 39405.00
1172.017, 39412.00
1173.103, 39478.36
1174.190, 39479.71
1175.276, 39442.00
1176.363, 39442.00
1177.449, 39312.00
1178.535, 39273.00
1179.620, 39481.00
1180.706, 39511.00
1181.791, 39401.00
1182.877, 39282.00
1183.962, 39358.00
1185.047, 39359.00
1186.131, 39474.00
1187.216, 39646.00
1188.300, 39336.00
1189.385, 39506.00
1190.469, 39509.00
1191.553, 39813.00
1192.637, 39504.00
1193.720, 40003.00
1194.804, 39702.00
1195.887, 39527.00
1196.970, 39862.00
1198.053, 39763.00
1199.136, 39835.00
1200.219, 40072.00
1201.301, 39606.00
1202.383, 40049.00
1203.465, 39743.00
1204.547, 39819.00
1205.629, 40128.00
1206.711, 39969.00
1207.792, 39965.00
1208.874, 40185.00
1209.955, 40295.00
1211.036, 40059.00
1212.117, 40022.00
1213.198, 40180.00
1214.278, 40345.00
1215.359, 40314.00
1216.439, 40265.00
1217.519, 40068.00
1218.599, 40172.00
1219.678, 40313.00
1220.758, 40446.00
1221.837, 40299.00
1222.917, 40367.00
1223.996, 40435.00
1225.075, 40281.00
1226.153, 40442.00
1227.232, 40742.00
1228.310, 40468.00
1229.389, 40704.00
1230.467, 40494.00
1231.545, 40835.00
1232.622, 40800.00
1233.700, 40830.00
1234.777, 40901.00
1235.855, 40892.22
1236.932, 40921.18
1238.009, 40878.00
1239.086, 40958.00
1240.162, 40826.00
1241.239, 40878.00
1242.315, 40921.00
1243.391, 40796.00
1244.467, 40949.00
1245.543, 40938.00
1246.619, 41029.00
1247.694, 40691.00
1248.769, 40907.00
1249.844, 40960.00
1250.919, 41010.00
1251.994, 41323.00
1253.069, 41173.00
1254.144, 41219.00
1255.218, 41176.00
1256.292, 41488.00
1257.366, 41762.00
1258.440, 41525.00
1259.514, 41495.00
1260.587, 41591.00
1261.661, 41453.00
1262.734, 41508.00
1263.807, 41601.00
1264.880, 41497.00
1265.952, 41536.00
1267.025, 41518.00
1268.097, 41772.00
1269.170, 42016.00
1270.242, 41578.00
1271.314, 41867.00
1272.385, 41808.00
1273.457, 41574.00
1274.528, 41702.00
1275.600, 42005.00
1276.671, 41856.00
1277.742, 41918.00
1278.812, 41722.00
1279.883, 42023.00
1280.954, 41915.00
1282.024, 42196.00
1283.094, 42304.00
1284.164, 41972.00
1285.234, 42170.00
1286.303, 42390.00
1287.373, 42350.00
1288.442, 42178.00
1289.511, 42177.00
1290.580, 42190.00
1291.649, 42388.00
1292.718, 42274.00
1293.786, 42422.00
1294.855, 42449.00
1295.923, 42466.00
1296.991, 42490.00
1298.059, 42496.00
1299.126, 42568.00
1300.194, 42676.00
1301.261, 42650.85
1302.328, 42715.00
1303.395, 42654.00
1304.462, 42731.00
1305.529, 42755.00
1306.596, 42706.00
1307.662, 42807.00
1308.728, 42761.00
1309.794, 42853.00
1310.860, 43083.00
1311.926, 43116.00
1312.991, 43045.00
1314.057, 43318.00
1315.122, 43231.00
1316.187, 43287.00
1317.252, 43005.00
1318.317, 43173.00
1319.381, 43222.00
1320.446, 43398.00
1321.510, 43567.00
1322.574, 43505.00
1323.638, 43557.00
1324.702, 43599.24
1325.766, 43595.54
1326.829, 43606.00
1327.892, 43621.00
1328.956, 43550.00
1330.019, 43508.00
1331.081, 43733.00
1332.144, 43872.00
1333.206, 43869.00
1334.269, 43977.04
1335.331, 43900.00
1336.393, 43938.00
1337.455, 44071.00
1338.516, 43879.00
1339.578, 43579.00
1340.639, 43919.00
1341.701, 43888.00
1342.762, 44263.00
1343.822, 43848.00
1344.883, 43705.00
1345.944, 43974.00
1347.004, 44163.00
1348.064, 43858.00
1349.124, 44040.00
1350.184, 44118.00
1351.244, 44236.00
1352.304, 44200.00
1353.363, 44411.00
1354.422, 44262.00
1355.481, 44520.00
1356.540, 44324.00
1357.599, 44591.00
1358.657, 44497.00
1359.716, 44431.00
1360.774, 44238.00
1361.832, 44476.00
1362.890, 44228.00
1363.948, 44510.00
1365.006, 44497.00
1366.063, 44499.00
1367.120, 44845.00
1368.178, 44766.00
1369.234, 44570.00
1370.291, 44539.00
1371.348, 44787.00
1372.404, 44883.00
1373.461, 44971.00
1374.517, 44963.00
1375.573, 44963.00
1376.629, 44702.00
1377.684, 44958.00
1378.740, 45392.00
1379.795, 45269.00
1380.850, 44951.00
1381.905, 45185.00
1382.960, 45046.00
1384.015, 45512.00
1385.070, 45087.00
1386.124, 45249.00
1387.178, 45314.00
1388.232, 45154.00
1389.286, 45351.00
1390.340, 45398.00
1391.393, 45559.00
1392.447, 45520.00
1393.500, 45570.93
1394.553, 45475.00
1395.606, 45536.00
1396.659, 45532.00
1397.711, 45435.00
1398.764, 45708.00
1399.816, 45754.00
1400.868, 45771.00
1401.920, 45788.00
1402.972, 46005.00
1404.023, 45798.00
1405.075, 45825.00
1406.126, 46013.00
1407.177, 45857.00
1408.228, 45830.00
1409.279, 45888.00
1410.330, 45916.00
1411.380, 46131.00
1412.431, 45879.00
1413.481, 46227.00
1414.531, 46051.00
1415.580, 46286.00
1416.630, 46271.00
1417.680, 46424.00
1418.729, 46268.00
1419.778, 46432.00
1420.827, 46209.00
1421.876, 46392.00
1422.925, 46283.00
1423.973, 46324.00
1425.022, 46700.00
1426.070, 46387.00
1427.118, 46367.00
1428.166, 46697.00
1429.214, 46577.00
1430.261, 46579.00
1431.309, 46841.00
1432.356, 46465.00
1433.403, 46670.00
1434.450, 46807.00
1435.497, 46878.00
1436.543, 47025.00
1437.590, 46870.00
1438.636, 46874.00
1439.682, 46924.00
1440.728, 47106.00
1441.774, 47351.00
1442.819, 47081.00
1443.865, 47096.00
1444.910, 47317.00
1445.955, 47126.00
1447.000, 47386.00
1448.045, 47428.00
1449.090, 47266.00
1450.134, 47265.00
1451.178, 47324.00
1452.223, 47430.00
1453.267, 47384.00
1454.310, 47447.64
1455.354, 47539.00
1456.398, 47518.00
1457.441, 47548.00
1458.484, 47659.00
1459.527, 47362.00
1460.570, 47765.00
1461.613, 47550.00
1462.655, 47762.00
1463.698, 47967.00
1464.740, 47693.00
1465.782, 47862.00
1466.824, 47787.00
1467.866, 48004.00
1468.907, 48027.00
1469.948, 47760.00
1470.990, 48276.00
1472.031, 48067.00
1473.072, 48092.00
1474.112, 47904.00
1475.153, 47873.00
1476.194, 48061.00
1477.234, 48123.00
1478.274, 48086.00
1479.314, 47923.00
1480.354, 48242.00
1481.393, 48462.00
1482.433, 48604.00
1483.472, 48091.00
1484.511, 48626.00
1485.550, 48379.00
1486.589, 48531.00
1487.628, 48627.00
1488.666, 48690.00
1489.704, 48731.00
1490.743, 48605.00
1491.781, 48926.00
1492.819, 48928.00
1493.856, 48759.00
1494.894, 48929.00
1495.931, 49043.00
1496.968, 48956.00
1498.005, 48765.00
1499.042, 48943.00
1500.079, 49175.00
1501.115, 48927.00
1502.152, 48894.00
1503.188, 49392.00
1504.224, 49107.00
1505.260, 49085.00
1506.296, 49105.00
1507.331, 49195.00
1508.367, 49266.00
1509.402, 49084.00
1510.437, 49117.00
1511.472, 49082.00
1512.507, 49439.00
1513.541, 49482.00
1514.576, 49458.00
1515.610, 49467.00
1516.644, 49526.08
1517.678, 49430.00
1518.712, 49654.00
1519.746, 49547.00
1520.779, 49616.00
1521.813, 49458.00
1522.846, 49889.00
1523.879, 49784.00
1524.912, 49880.00
1525.944, 50004.00
1526.977, 49703.00
1528.009, 49960.00
1529.041, 49934.00
1530.073, 50060.00
1531.105, 50154.33
1532.137, 49964.00
1533.168, 50280.00
1534.200, 50260.00
1535.231, 50278.00
1536.262, 49983.00
1537.293, 50251.00
1538.324, 50247.00
1539.354, 50125.00
1540.385, 50192.00
1541.415, 50302.00
1542.445, 50428.00
1543.475, 50487.00
1544.505, 50131.00
1545.534, 50286.00
1546.564, 50467.00
1547.593, 50708.00
1548.622, 50377.00
1549.651, 50503.00
1550.680, 50913.00
1551.708, 50562.00
1552.737, 50430.00
1553.765, 50681.00
1554.793, 50566.00
1555.821, 50600.00
1556.849, 50508.00
1557.877, 50608.00
1558.904, 51070.00
1559.932, 50796.00
1560.959, 50780.00
1561.986, 50913.00
1563.013, 51133.00
##END=



