##NAMES=Microcline
##RRUFFID=R050193
##IDEAL CHEMISTRY=KAlSi_3_O_8_
##LOCALITY=Devil's Head, Douglas County, Colorado, USA
##OWNER=RRUFF
##SOURCE=Dave Bunk Minerals
##DESCRIPTION=White to colorless heterogeneous mixture of K and Na feldspar in a cluster of crystals. Crystal structure determined, presented below. This sample is known as an intermediate microcline in the literature.
##STATUS=The identification of this mineral has been confirmed by X-ray diffraction and chemical analysis
##URL=rruff.info/R050193
##MEASURED CHEMISTRY=(K_0.929_Na_0.071_)(Al_1.005_Si_2.994_Fe_0.001_)O_7.993_F_0.007_  ; Light Band :  (Na_0.973_K_0.007_Ca_0.020_)(Al_1.020_Si_2.980_)O_8_ ; Dark Band
##PIN_ID=L01042
##ORIENTATION=Laser parallel to a* (1 0 0). Fiducial mark perpendicular to laser is parallel to -b [0 -1 0]
142.5560, 15298.00
143.7880, 15412.00
145.0190, 15564.00
146.2510, 16069.00
147.4820, 16170.00
148.7130, 16439.00
149.9440, 16520.00
151.1750, 16658.00
152.4050, 16704.00
153.6360, 16645.00
154.8660, 16638.00
156.0960, 16627.00
157.3260, 16370.00
158.5560, 16331.00
159.7850, 16244.00
161.0150, 16205.00
162.2440, 16204.00
163.4730, 16090.00
164.7020, 16163.00
165.9310, 16017.00
167.1590, 15981.00
168.3880, 16025.00
169.6160, 16087.00
170.8440, 16109.00
172.0720, 16187.00
173.3000, 16234.00
174.5280, 16244.62
175.7550, 16339.00
176.9820, 16294.00
178.2100, 16260.00
179.4370, 16347.00
180.6630, 16213.00
181.8900, 16396.00
183.1170, 16301.00
184.3430, 16257.00
185.5690, 16225.00
186.7950, 16173.00
188.0210, 16377.00
189.2470, 16338.00
190.4720, 16321.00
191.6970, 16539.00
192.9230, 16501.00
194.1480, 16431.00
195.3730, 16721.00
196.5970, 16642.00
197.8220, 16658.00
199.0460, 16668.00
200.2700, 16683.00
201.4940, 16764.00
202.7180, 16813.00
203.9420, 16699.00
205.1660, 16624.00
206.3890, 16776.00
207.6120, 16570.00
208.8350, 16732.00
210.0580, 16735.00
211.2810, 16845.00
212.5040, 16838.04
213.7260, 16780.00
214.9480, 16843.00
216.1700, 16730.00
217.3920, 16828.00
218.6140, 16922.00
219.8360, 16737.00
221.0570, 16879.00
222.2790, 16921.00
223.5000, 16852.00
224.7210, 17205.00
225.9410, 17022.00
227.1620, 17136.00
228.3820, 16958.00
229.6030, 16990.00
230.8230, 17301.00
232.0430, 17110.00
233.2630, 17294.00
234.4820, 17110.00
235.7020, 17326.00
236.9210, 17290.00
238.1400, 17294.00
239.3590, 17278.00
240.5780, 17366.00
241.7970, 17519.00
243.0150, 17599.00
244.2340, 17457.00
245.4520, 17708.00
246.6700, 17729.00
247.8880, 17676.00
249.1060, 17966.00
250.3230, 17948.00
251.5400, 17993.00
252.7580, 18073.00
253.9750, 18129.00
255.1920, 18380.00
256.4080, 18384.00
257.6250, 18717.00
258.8410, 18785.00
260.0580, 19069.00
261.2740, 18787.00
262.4900, 19007.00
263.7050, 18827.00
264.9210, 19108.00
266.1360, 19114.00
267.3520, 19189.00
268.5670, 19063.00
269.7820, 19151.00
270.9960, 19315.00
272.2110, 19497.00
273.4250, 19442.00
274.6400, 19475.00
275.8540, 19631.00
277.0680, 19788.00
278.2810, 19901.00
279.4950, 19954.00
280.7090, 20195.00
281.9220, 20131.00
283.1350, 20140.00
284.3480, 20219.00
285.5610, 19987.00
286.7730, 20040.00
287.9860, 19922.00
289.1980, 19758.00
290.4100, 19578.00
291.6220, 19369.00
292.8340, 19256.00
294.0460, 19325.00
295.2570, 19036.00
296.4690, 19091.00
297.6800, 18976.00
298.8910, 18978.00
300.1020, 18992.00
301.3120, 19151.00
302.5230, 19008.00
303.7330, 19132.00
304.9440, 19052.00
306.1540, 19022.00
307.3630, 18950.00
308.5730, 19133.00
309.7830, 18894.00
310.9920, 19040.00
312.2010, 19094.00
313.4100, 19008.00
314.6190, 18968.00
315.8280, 19143.00
317.0370, 19160.00
318.2450, 19226.00
319.4530, 19384.00
320.6610, 19285.00
321.8690, 19356.00
323.0770, 19338.00
324.2850, 19320.00
325.4920, 19407.00
326.6990, 19487.00
327.9060, 19329.00
329.1130, 19385.00
330.3200, 19361.00
331.5270, 19451.00
332.7330, 19431.16
333.9390, 19461.00
335.1450, 19439.00
336.3510, 19460.00
337.5570, 19499.00
338.7630, 19627.00
339.9680, 19769.00
341.1740, 19768.57
342.3790, 19803.35
343.5840, 19779.00
344.7890, 19729.00
345.9930, 19673.00
347.1980, 19589.00
348.4020, 19727.00
349.6060, 19861.00
350.8100, 20022.00
352.0140, 19812.00
353.2180, 19906.00
354.4210, 19798.00
355.6250, 19985.00
356.8280, 19930.00
358.0310, 20105.00
359.2340, 19845.00
360.4360, 19951.00
361.6390, 20238.00
362.8410, 20102.00
364.0430, 20239.00
365.2450, 20360.00
366.4470, 20342.00
367.6490, 20468.00
368.8510, 20475.00
370.0520, 20526.56
371.2530, 20687.00
372.4540, 20605.00
373.6550, 20619.00
374.8560, 20626.00
376.0560, 20370.00
377.2570, 20565.00
378.4570, 20660.00
379.6570, 20301.00
380.8570, 20267.00
382.0570, 20356.00
383.2560, 20512.00
384.4560, 20443.00
385.6550, 20475.00
386.8540, 20670.00
388.0530, 20510.00
389.2520, 20520.00
390.4510, 20642.00
391.6490, 20585.00
392.8470, 20630.00
394.0450, 20894.00
395.2430, 21043.00
396.4410, 21032.00
397.6390, 20931.00
398.8360, 21077.00
400.0340, 20969.00
401.2310, 21235.00
402.4280, 21093.00
403.6250, 21261.00
404.8210, 21226.00
406.0180, 21356.00
407.2140, 21353.00
408.4100, 21223.00
409.6060, 21357.00
410.8020, 21297.00
411.9980, 21171.00
413.1930, 21250.00
414.3890, 21280.00
415.5840, 21279.00
416.7790, 21319.01
417.9740, 21048.00
419.1680, 21259.00
420.3630, 21228.00
421.5570, 21008.00
422.7510, 21208.00
423.9450, 21254.00
425.1390, 21237.00
426.3330, 21171.00
427.5270, 21381.00
428.7200, 21279.00
429.9130, 21285.00
431.1060, 21233.00
432.2990, 21278.38
433.4920, 21543.00
434.6840, 21467.00
435.8770, 21553.00
437.0690, 21775.00
438.2610, 21706.00
439.4530, 21937.00
440.6450, 21845.00
441.8360, 21821.00
443.0280, 21998.00
444.2190, 22382.00
445.4100, 22418.00
446.6010, 22771.00
447.7920, 22812.00
448.9820, 23153.00
450.1730, 23118.00
451.3630, 23186.00
452.5530, 23362.00
453.7430, 23399.00
454.9330, 23245.00
456.1230, 23378.00
457.3120, 23422.00
458.5010, 23395.00
459.6910, 23453.00
460.8800, 23572.00
462.0680, 23988.00
463.2570, 23986.00
464.4460, 24505.00
465.6340, 24874.00
466.8220, 25261.00
468.0100, 25893.00
469.1980, 26638.00
470.3860, 27121.00
471.5730, 28043.00
472.7600, 28304.00
473.9480, 28823.00
475.1350, 28545.00
476.3210, 28167.00
477.5080, 28122.00
478.6950, 27060.00
479.8810, 26480.00
481.0670, 25924.00
482.2530, 25390.00
483.4390, 25034.67
484.6250, 24643.63
485.8100, 24451.00
486.9960, 24171.00
488.1810, 23976.00
489.3660, 24019.00
490.5510, 23800.00
491.7360, 24049.00
492.9200, 23777.00
494.1050, 23847.00
495.2890, 24018.00
496.4730, 24074.00
497.6570, 24414.00
498.8400, 24648.00
500.0240, 25229.00
501.2070, 25781.00
502.3910, 26445.00
503.5740, 27357.00
504.7570, 28310.00
505.9400, 29261.00
507.1220, 29961.00
508.3050, 31045.00
509.4870, 31819.00
510.6690, 32610.00
511.8510, 32569.00
513.0330, 32312.00
514.2140, 31841.00
515.3960, 30774.00
516.5770, 29452.00
517.7580, 28563.00
518.9390, 27585.00
520.1200, 26560.00
521.3010, 25928.00
522.4810, 25335.00
523.6610, 25082.00
524.8420, 24752.00
526.0220, 24604.00
527.2010, 24327.00
528.3810, 24241.00
529.5610, 24264.00
530.7400, 24117.91
531.9190, 24147.00
533.0980, 24056.00
534.2770, 23885.00
535.4560, 23924.00
536.6340, 23956.00
537.8120, 23950.00
538.9910, 23958.00
540.1690, 23967.00
541.3460, 23976.84
542.5240, 23978.31
543.7020, 23996.00
544.8790, 23988.22
546.0560, 23978.73
547.2330, 23999.00
548.4100, 23937.00
549.5870, 23889.00
550.7630, 23818.00
551.9400, 23936.00
553.1160, 23817.00
554.2920, 23867.00
555.4680, 23798.00
556.6440, 23975.00
557.8190, 24063.00
558.9950, 23962.00
560.1700, 24141.00
561.3450, 24055.00
562.5200, 24237.00
563.6950, 24244.00
564.8690, 24021.00
566.0440, 24134.00
567.2180, 24270.00
568.3920, 24243.00
569.5660, 24286.00
570.7400, 24228.00
571.9130, 24314.00
573.0870, 24278.08
574.2600, 24346.00
575.4330, 24287.00
576.6060, 24269.00
577.7790, 24350.00
578.9520, 24501.00
580.1240, 24427.00
581.2960, 24545.61
582.4690, 24607.00
583.6410, 24587.00
584.8120, 24576.00
585.9840, 24602.46
587.1560, 24564.94
588.3270, 24610.00
589.4980, 24520.00
590.6690, 24495.00
591.8400, 24479.00
593.0110, 24599.00
594.1810, 24678.00
595.3510, 24873.00
596.5220, 24592.00
597.6920, 24703.00
598.8610, 24530.00
600.0310, 24708.00
601.2010, 24871.00
602.3700, 24938.00
603.5390, 24812.00
604.7080, 24859.00
605.8770, 24833.00
607.0460, 24781.00
608.2140, 24866.00
609.3830, 24856.00
610.5510, 24954.00
611.7190, 24857.00
612.8870, 24966.00
614.0550, 25146.00
615.2220, 25021.00
616.3900, 25084.00
617.5570, 25012.00
618.7240, 25115.00
619.8910, 25197.00
621.0580, 25441.00
622.2240, 25289.00
623.3910, 25340.00
624.5570, 25401.00
625.7230, 25358.00
626.8890, 25396.00
628.0550, 25456.00
629.2200, 25295.00
630.3860, 25523.00
631.5510, 25559.00
632.7160, 25450.00
633.8810, 25510.00
635.0460, 25450.00
636.2100, 25496.00
637.3750, 25466.00
638.5390, 25637.00
639.7030, 25537.00
640.8670, 25663.00
642.0310, 25916.00
643.1950, 25766.00
644.3580, 25771.00
645.5210, 26089.00
646.6850, 25872.00
647.8480, 25850.00
649.0100, 25982.00
650.1730, 25839.00
651.3350, 26065.00
652.4980, 25764.00
653.6600, 25950.00
654.8220, 26072.00
655.9840, 25940.00
657.1450, 26210.00
658.3070, 25895.00
659.4680, 26157.00
660.6300, 25857.00
661.7910, 26253.00
662.9510, 26257.89
664.1120, 26157.15
665.2730, 26400.00
666.4330, 26083.00
667.5930, 25935.00
668.7530, 26060.00
669.9130, 26144.00
671.0730, 26362.00
672.2320, 26216.00
673.3920, 26244.00
674.5510, 26130.00
675.7100, 26377.00
676.8690, 26248.00
678.0280, 26459.00
679.1860, 26086.00
680.3450, 26095.00
681.5030, 26000.00
682.6610, 26202.00
683.8190, 26347.00
684.9770, 26355.00
686.1340, 26471.25
687.2920, 26504.00
688.4490, 26560.00
689.6060, 26513.00
690.7630, 26556.00
691.9200, 26553.00
693.0760, 26417.00
694.2330, 26467.00
695.3890, 26448.00
696.5450, 26742.00
697.7010, 26686.00
698.8570, 26696.00
700.0130, 26522.00
701.1680, 26611.00
702.3230, 26841.00
703.4780, 27026.00
704.6330, 26677.00
705.7880, 27023.00
706.9430, 27056.00
708.0970, 26721.00
709.2520, 26963.00
710.4060, 27120.00
711.5600, 26996.00
712.7140, 27119.00
713.8670, 26927.00
715.0210, 27170.00
716.1740, 26830.00
717.3270, 27163.00
718.4800, 27246.00
719.6330, 26800.00
720.7860, 27176.00
721.9380, 27073.52
723.0910, 27406.00
724.2430, 27112.00
725.3950, 27385.00
726.5470, 27209.00
727.6980, 27315.00
728.8500, 27240.00
730.0010, 27483.00
731.1530, 27479.00
732.3040, 27509.00
733.4550, 27596.00
734.6050, 27476.00
735.7560, 27547.00
736.9060, 27515.00
738.0560, 27502.50
739.2060, 27942.00
740.3560, 27639.00
741.5060, 27821.00
742.6560, 28186.00
743.8050, 28019.00
744.9540, 28296.00
746.1030, 28269.00
747.2520, 28333.00
748.4010, 28387.33
749.5500, 28392.00
750.6980, 28352.00
751.8460, 28223.00
752.9950, 28132.00
754.1420, 28112.00
755.2900, 28321.00
756.4380, 28287.00
757.5850, 28492.00
758.7330, 28460.00
759.8800, 28500.00
761.0270, 28404.00
762.1730, 28299.00
763.3200, 28382.00
764.4670, 28321.00
765.6130, 28323.00
766.7590, 28311.00
767.9050, 28235.00
769.0510, 28355.00
770.1960, 28326.00
771.3420, 28177.00
772.4870, 28306.00
773.6320, 28256.00
774.7770, 28491.00
775.9220, 28374.00
777.0670, 28337.00
778.2110, 28311.00
779.3560, 28319.00
780.5000, 28468.00
781.6440, 28387.00
782.7880, 28530.00
783.9320, 28476.00
785.0750, 28436.00
786.2180, 28358.00
787.3620, 28669.00
788.5050, 28536.00
789.6480, 28784.00
790.7900, 28424.00
791.9330, 28678.00
793.0750, 28909.00
794.2170, 28771.00
795.3590, 28977.00
796.5010, 28686.00
797.6430, 28623.00
798.7850, 28726.00
799.9260, 28888.00
801.0670, 29122.00
802.2080, 28921.00
803.3490, 28829.00
804.4900, 28838.00
805.6310, 28941.00
806.7710, 29045.00
807.9110, 29006.00
809.0510, 29056.00
810.1910, 29066.00
811.3310, 29253.00
812.4710, 29155.00
813.6100, 29232.41
814.7490, 29140.00
815.8880, 29310.00
817.0270, 29200.00
818.1660, 29321.00
819.3050, 29186.00
820.4430, 29260.00
821.5820, 29304.00
822.7200, 29194.00
823.8580, 29116.00
824.9950, 29337.00
826.1330, 29387.00
827.2710, 29162.00
828.4080, 29355.00
829.5450, 29492.00
830.6820, 29530.00
831.8190, 29644.00
832.9560, 29434.00
834.0920, 29740.00
835.2280, 29746.00
836.3650, 29538.00
837.5010, 29611.00
838.6360, 29515.00
839.7720, 29602.00
840.9080, 29633.00
842.0430, 29656.00
843.1780, 29698.00
844.3130, 29739.59
845.4480, 29794.00
846.5830, 29813.00
847.7170, 29862.00
848.8520, 29849.00
849.9860, 29802.00
851.1200, 30003.00
852.2540, 29881.00
853.3870, 29970.00
854.5210, 30171.00
855.6540, 29994.00
856.7880, 30263.00
857.9210, 30298.00
859.0540, 30151.00
860.1860, 30073.00
861.3190, 30105.89
862.4510, 30213.00
863.5840, 30216.00
864.7160, 30250.00
865.8480, 30454.00
866.9790, 30289.00
868.1110, 30298.00
869.2420, 30596.00
870.3740, 30468.00
871.5050, 30355.00
872.6360, 30323.00
873.7660, 30338.85
874.8970, 30609.00
876.0280, 30477.00
877.1580, 30564.00
878.2880, 30643.00
879.4180, 30640.00
880.5480, 30670.00
881.6770, 30590.00
882.8070, 30710.00
883.9360, 30585.00
885.0650, 30611.00
886.1940, 30537.00
887.3230, 30539.00
888.4520, 30791.00
889.5800, 30887.00
890.7090, 30869.00
891.8370, 30736.00
892.9650, 30779.00
894.0930, 30794.00
895.2200, 30873.00
896.3480, 30819.00
897.4750, 30972.00
898.6020, 30781.00
899.7290, 30899.00
900.8560, 30985.00
901.9830, 31032.00
903.1090, 31060.37
904.2360, 31133.64
905.3620, 31028.00
906.4880, 31206.00
907.6140, 31153.00
908.7400, 31092.00
909.8650, 31421.00
910.9900, 31224.00
912.1160, 31313.00
913.2410, 31242.00
914.3660, 31555.00
915.4900, 31239.00
916.6150, 31440.00
917.7390, 31223.00
918.8640, 31507.00
919.9880, 31580.00
921.1120, 31422.00
922.2350, 31565.00
923.3590, 31574.00
924.4820, 31639.00
925.6060, 31628.00
926.7290, 31879.00
927.8520, 31470.00
928.9740, 31678.00
930.0970, 31472.00
931.2190, 31763.00
932.3420, 31734.00
933.4640, 31916.00
934.5860, 31770.00
935.7080, 31568.00
936.8290, 31864.00
937.9510, 31961.00
939.0720, 31853.00
940.1930, 32032.00
941.3140, 32135.00
942.4350, 32172.00
943.5560, 32243.00
944.6760, 32205.00
945.7960, 32197.00
946.9170, 32119.00
948.0370, 32291.00
949.1560, 32342.00
950.2760, 32291.00
951.3960, 32255.00
952.5150, 32505.00
953.6340, 32124.00
954.7530, 32334.00
955.8720, 32198.00
956.9910, 32359.00
958.1090, 32193.00
959.2280, 32423.00
960.3460, 32322.00
961.4640, 32492.00
962.5820, 32624.00
963.6990, 32537.00
964.8170, 32379.00
965.9340, 32555.00
967.0510, 32656.00
968.1690, 32696.00
969.2850, 32736.00
970.4020, 32840.00
971.5190, 32943.00
972.6350, 32837.00
973.7510, 32817.00
974.8670, 32881.00
975.9830, 32960.00
977.0990, 33059.00
978.2150, 32912.00
979.3300, 33193.00
980.4450, 33316.00
981.5600, 33039.00
982.6750, 33053.00
983.7900, 33090.00
984.9050, 33316.00
986.0190, 33198.00
987.1340, 33328.00
988.2480, 33191.00
989.3620, 33367.00
990.4750, 33442.00
991.5890, 33434.67
992.7020, 33627.00
993.8160, 33519.00
994.9290, 33630.00
996.0420, 33703.00
997.1550, 33614.00
998.2670, 33493.00
999.3800, 33801.00
1000.492, 33813.00
1001.604, 33531.00
1002.716, 33862.00
1003.828, 33820.00
1004.940, 33975.00
1006.051, 33762.00
1007.163, 33834.00
1008.274, 33809.00
1009.385, 33768.00
1010.496, 34085.00
1011.606, 33988.00
1012.717, 34171.00
1013.827, 34269.00
1014.937, 33993.00
1016.047, 34071.00
1017.157, 34164.00
1018.267, 34241.00
1019.377, 34033.00
1020.486, 34118.00
1021.595, 34105.00
1022.704, 34301.00
1023.813, 34224.00
1024.922, 34476.00
1026.030, 34473.00
1027.139, 34156.00
1028.247, 34497.00
1029.355, 34387.00
1030.463, 34565.00
1031.571, 34394.00
1032.678, 34591.00
1033.786, 34537.00
1034.893, 34530.00
1036.000, 34454.00
1037.107, 34706.00
1038.214, 34678.00
1039.321, 34725.00
1040.427, 34578.00
1041.533, 35082.00
1042.639, 34650.00
1043.745, 34817.00
1044.851, 34944.00
1045.957, 34691.00
1047.062, 34919.00
1048.168, 34919.00
1049.273, 35049.00
1050.378, 35081.00
1051.482, 35055.00
1052.587, 34945.00
1053.692, 35407.00
1054.796, 35264.00
1055.900, 35427.00
1057.004, 35208.00
1058.108, 35283.00
1059.212, 35339.00
1060.315, 35273.00
1061.418, 35268.00
1062.522, 35244.00
1063.625, 35328.00
1064.728, 35393.23
1065.830, 35417.31
1066.933, 35633.00
1068.035, 35441.00
1069.137, 35577.00
1070.239, 35452.00
1071.341, 35453.06
1072.443, 35505.97
1073.545, 35489.00
1074.646, 35606.00
1075.747, 35725.00
1076.848, 35846.02
1077.949, 35928.68
1079.050, 35884.00
1080.150, 36012.00
1081.251, 35870.00
1082.351, 35731.00
1083.451, 35759.00
1084.551, 35932.00
1085.651, 36003.00
1086.750, 36120.00
1087.850, 36127.00
1088.949, 36182.00
1090.048, 36107.00
1091.147, 36329.00
1092.246, 36383.00
1093.345, 36284.00
1094.443, 36245.00
1095.541, 36403.00
1096.639, 36408.00
1097.737, 36573.00
1098.835, 36610.00
1099.933, 36644.00
1101.030, 36742.44
1102.128, 36785.00
1103.225, 36861.00
1104.322, 36856.00
1105.419, 36896.00
1106.515, 36879.00
1107.612, 37159.00
1108.708, 37057.00
1109.804, 37388.00
1110.900, 37488.00
1111.996, 37531.00
1113.092, 37554.00
1114.187, 37678.00
1115.283, 38013.00
1116.378, 38192.00
1117.473, 38563.00
1118.568, 38690.03
1119.662, 38784.00
1120.757, 38971.00
1121.851, 39020.00
1122.946, 39157.00
1124.040, 39182.00
1125.134, 39140.00
1126.227, 38997.00
1127.321, 39066.00
1128.414, 38717.00
1129.508, 38609.00
1130.601, 38561.00
1131.693, 38540.00
1132.786, 38726.00
1133.879, 38864.00
1134.971, 38723.00
1136.064, 38570.00
1137.156, 38727.00
1138.248, 38418.00
1139.339, 38494.00
1140.431, 38703.00
1141.522, 38442.00
1142.614, 38586.00
1143.705, 38386.00
1144.796, 38738.00
1145.887, 38099.00
1146.977, 38574.00
1148.068, 38250.00
1149.158, 38520.00
1150.248, 38352.00
1151.338, 38210.00
1152.428, 38159.00
1153.518, 38032.00
1154.607, 38086.00
1155.696, 38188.00
1156.785, 38224.00
1157.874, 38081.00
1158.963, 38149.00
1160.052, 38011.00
1161.141, 38055.00
1162.229, 38119.00
1163.317, 38164.00
1164.405, 38190.00
1165.493, 38203.00
1166.581, 38198.46
1167.668, 38220.00
1168.756, 38163.00
1169.843, 38100.00
1170.930, 38086.31
1172.017, 38132.20
1173.103, 38258.00
1174.190, 38269.00
1175.276, 38485.00
1176.363, 38533.00
1177.449, 38933.00
1178.535, 38489.00
1179.620, 38357.00
1180.706, 38725.00
1181.791, 38525.00
1182.877, 38674.00
1183.962, 38749.00
1185.047, 38940.00
1186.131, 38904.00
1187.216, 38945.00
1188.300, 39047.00
1189.385, 38949.00
1190.469, 38748.00
1191.553, 39069.00
1192.637, 38737.00
1193.720, 38947.00
1194.804, 39303.00
1195.887, 39113.00
1196.970, 38628.00
1198.053, 39194.00
1199.136, 39037.00
1200.219, 39174.00
1201.301, 39154.00
1202.383, 39189.22
1203.465, 39238.00
1204.547, 39296.00
1205.629, 39294.00
1206.711, 39304.00
1207.792, 39412.00
1208.874, 39302.00
1209.955, 39264.00
1211.036, 39122.00
1212.117, 39600.00
1213.198, 39662.00
1214.278, 39547.00
1215.359, 39474.00
1216.439, 39607.00
1217.519, 39627.00
1218.599, 39691.00
1219.678, 39636.00
1220.758, 39741.67
1221.837, 39782.00
1222.917, 39902.00
1223.996, 39995.00
1225.075, 40070.00
1226.153, 40067.51
1227.232, 40297.00
1228.310, 40017.00
1229.389, 40022.00
1230.467, 40021.00
1231.545, 40297.00
1232.622, 40419.00
1233.700, 40213.00
1234.777, 40091.00
1235.855, 40076.00
1236.932, 40454.00
1238.009, 40294.00
1239.086, 40081.00
1240.162, 40369.00
1241.239, 40211.00
1242.315, 40332.00
1243.391, 40437.00
1244.467, 40250.00
1245.543, 40452.00
1246.619, 40263.00
1247.694, 40649.00
1248.769, 40531.00
1249.844, 40465.00
1250.919, 40789.00
1251.994, 40690.00
1253.069, 40781.00
1254.144, 40745.00
1255.218, 40757.00
1256.292, 40799.50
1257.366, 40786.38
1258.440, 40892.00
1259.514, 40850.00
1260.587, 40969.00
1261.661, 41099.00
1262.734, 41019.00
1263.807, 41055.00
1264.880, 41080.00
1265.952, 41217.00
1267.025, 41297.00
1268.097, 41274.00
1269.170, 41251.00
1270.242, 41273.00
1271.314, 41277.16
1272.385, 41302.00
1273.457, 41329.00
1274.528, 41496.00
1275.600, 41541.00
1276.671, 41809.00
1277.742, 41383.00
1278.812, 41595.00
1279.883, 41442.00
1280.954, 41523.00
1282.024, 41499.00
1283.094, 41548.98
1284.164, 41863.00
1285.234, 41695.00
1286.303, 41606.00
1287.373, 41612.00
1288.442, 41994.00
1289.511, 41906.00
1290.580, 42360.00
1291.649, 41958.00
1292.718, 42019.00
1293.786, 42152.00
1294.855, 42112.00
1295.923, 42161.00
1296.991, 42221.00
1298.059, 42272.00
1299.126, 42398.00
1300.194, 42482.00
1301.261, 42433.00
1302.328, 42513.70
1303.395, 42301.00
1304.462, 42464.00
1305.529, 42380.00
1306.596, 42167.00
1307.662, 42631.00
1308.728, 42738.00
1309.794, 42653.00
1310.860, 42442.00
1311.926, 42850.00
1312.991, 42577.00
1314.057, 42816.00
1315.122, 42908.00
1316.187, 43115.00
1317.252, 42953.00
1318.317, 42814.00
1319.381, 43002.00
1320.446, 42797.00
1321.510, 43168.00
1322.574, 43228.00
1323.638, 42994.00
1324.702, 43084.00
1325.766, 43305.00
1326.829, 43321.00
1327.892, 43357.47
1328.956, 43154.00
1330.019, 43317.00
1331.081, 43242.00
1332.144, 43212.00
1333.206, 43364.00
1334.269, 43326.00
1335.331, 43418.00
1336.393, 43552.00
1337.455, 43507.00
1338.516, 43551.00
1339.578, 43358.00
1340.639, 43409.00
1341.701, 43819.00
1342.762, 43663.00
1343.822, 43963.00
1344.883, 44027.00
1345.944, 43946.00
1347.004, 43755.00
1348.064, 43834.00
1349.124, 43747.00
1350.184, 43780.00
1351.244, 43837.00
1352.304, 44010.00
1353.363, 44293.00
1354.422, 44256.00
1355.481, 44232.00
1356.540, 44137.00
1357.599, 44180.46
1358.657, 44147.00
1359.716, 44264.00
1360.774, 44311.00
1361.832, 44404.30
1362.890, 44487.60
1363.948, 44408.00
1365.006, 44554.00
1366.063, 44452.00
1367.120, 44262.00
1368.178, 44426.00
1369.234, 44702.00
1370.291, 44318.00
1371.348, 44667.00
1372.404, 44601.00
1373.461, 44694.00
1374.517, 44923.00
1375.573, 44820.00
1376.629, 44681.00
1377.684, 45020.00
1378.740, 44616.00
1379.795, 44917.00
1380.850, 44699.00
1381.905, 45006.00
1382.960, 45032.00
1384.015, 44988.00
1385.070, 45057.00
1386.124, 45003.00
1387.178, 44991.00
1388.232, 45080.31
1389.286, 44891.00
1390.340, 45246.00
1391.393, 45264.00
1392.447, 45345.00
1393.500, 45168.00
1394.553, 45375.00
1395.606, 45361.57
1396.659, 45316.00
1397.711, 45500.00
1398.764, 45610.00
1399.816, 45708.04
1400.868, 45660.00
1401.920, 45758.00
1402.972, 45798.00
1404.023, 45793.00
1405.075, 45845.00
1406.126, 45890.00
1407.177, 45790.00
1408.228, 46037.00
1409.279, 45695.00
1410.330, 45916.00
1411.380, 45870.00
1412.431, 45865.00
1413.481, 45876.00
1414.531, 45960.00
1415.580, 46135.00
1416.630, 46079.59
1417.680, 46142.00
1418.729, 46007.00
1419.778, 46079.00
1420.827, 45959.00
1421.876, 46291.00
1422.925, 46291.00
1423.973, 46320.00
1425.022, 46485.00
1426.070, 46192.00
1427.118, 46545.00
1428.166, 46399.00
1429.214, 46436.00
1430.261, 46613.00
1431.309, 46613.00
1432.356, 46589.00
1433.403, 46969.00
1434.450, 46645.00
1435.497, 46812.00
1436.543, 46556.00
1437.590, 46655.00
1438.636, 46757.00
1439.682, 46551.00
1440.728, 47209.00
1441.774, 47124.00
1442.819, 47046.00
1443.865, 46870.00
1444.910, 47259.00
1445.955, 47187.00
1447.000, 47134.00
1448.045, 47152.00
1449.090, 47138.00
1450.134, 47202.00
1451.178, 47337.00
1452.223, 47425.00
1453.267, 47420.00
1454.310, 47270.00
1455.354, 47438.00
1456.398, 47365.00
1457.441, 47447.38
1458.484, 47440.00
1459.527, 47575.00
1460.570, 47654.00
1461.613, 47611.77
1462.655, 47864.00
1463.698, 47723.00
1464.740, 47883.00
1465.782, 47844.00
1466.824, 47833.00
1467.866, 47951.21
1468.907, 47756.00
1469.948, 48082.00
1470.990, 47932.00
1472.031, 47906.00
1473.072, 47854.00
1474.112, 47897.02
1475.153, 47973.00
1476.194, 48039.00
1477.234, 48224.00
1478.274, 48250.00
1479.314, 48521.00
1480.354, 48235.00
1481.393, 48284.00
1482.433, 48456.00
1483.472, 48376.00
1484.511, 48313.00
1485.550, 48579.00
1486.589, 48452.00
1487.628, 48356.00
1488.666, 48423.00
1489.704, 48725.00
1490.743, 48573.00
1491.781, 48727.00
1492.819, 48825.00
1493.856, 48819.00
1494.894, 48944.00
1495.931, 48893.00
1496.968, 48960.00
1498.005, 48845.00
1499.042, 48953.00
1500.079, 48983.00
1501.115, 49020.00
1502.152, 48736.00
1503.188, 49132.00
1504.224, 48827.00
1505.260, 49220.00
1506.296, 49182.00
1507.331, 49377.00
1508.367, 49254.00
1509.402, 49166.00
1510.437, 49266.00
1511.472, 49475.00
1512.507, 49558.00
1513.541, 49630.48
1514.576, 49317.00
1515.610, 49732.00
1516.644, 49448.00
1517.678, 49496.00
1518.712, 49433.00
1519.746, 49759.00
1520.779, 49636.00
1521.813, 49922.00
1522.846, 49750.00
1523.879, 49748.00
1524.912, 50022.00
1525.944, 49916.00
1526.977, 49736.00
1528.009, 50013.00
1529.041, 49915.00
1530.073, 49810.00
1531.105, 49920.00
1532.137, 49690.00
1533.168, 50094.00
1534.200, 50459.00
1535.231, 50258.00
1536.262, 50262.00
1537.293, 50123.00
1538.324, 50202.00
1539.354, 50280.00
1540.385, 50203.00
1541.415, 50475.00
1542.445, 50233.00
1543.475, 50537.00
1544.505, 50402.00
1545.534, 50595.00
1546.564, 50339.00
1547.593, 50615.00
1548.622, 50414.00
1549.651, 50571.00
1550.680, 50694.00
1551.708, 50646.00
1552.737, 50474.00
1553.765, 50716.00
1554.793, 50954.00
1555.821, 50844.00
1556.849, 51118.00
1557.877, 50824.00
1558.904, 50731.00
1559.932, 50531.00
1560.959, 50958.00
1561.986, 50889.00
1563.013, 51283.00
##END=



