##NAMES=Microcline
##RRUFFID=R050150
##IDEAL CHEMISTRY=KAlSi_3_O_8_
##LOCALITY=Crystal Peak area, Park/Teller Counties, Colorado, USA
##OWNER=RRUFF
##SOURCE=Dave Bunk Minerals
##DESCRIPTION=Pale blue prismatic crystals
##STATUS=The identification of this mineral has been confirmed by X-ray diffraction and chemical analysis
##URL=rruff.info/R050150
##MEASURED CHEMISTRY=(K_0.95_Na_0.05_)_Î£=1_Al_1.00_Si_3.00_O_8_
##PIN_ID=L01538
##ORIENTATION=Laser parallel to c* (0 0 1). Fiducial mark perpendicular to laser is parallel to a [1 0 0]
140.0900, 9968.000
141.3290, 10128.00
142.5680, 10078.00
143.8060, 10048.00
145.0440, 10465.00
146.2820, 10653.00
147.5200, 11228.00
148.7570, 11337.00
149.9950, 11517.00
151.2320, 11725.00
152.4690, 11961.00
153.7060, 11816.00
154.9420, 11875.00
156.1790, 11722.00
157.4150, 11744.00
158.6510, 11650.00
159.8870, 11272.00
161.1220, 11070.00
162.3570, 10917.00
163.5930, 10573.00
164.8280, 10406.00
166.0620, 10233.00
167.2970, 10281.00
168.5310, 10561.00
169.7650, 10664.00
170.9990, 11073.00
172.2330, 11482.00
173.4670, 12189.00
174.7000, 12964.00
175.9330, 13570.00
177.1660, 14071.00
178.3990, 14060.00
179.6310, 13572.00
180.8640, 13168.00
182.0960, 12559.00
183.3280, 11945.00
184.5600, 11405.00
185.7910, 10965.00
187.0220, 10819.00
188.2540, 10817.00
189.4840, 10904.00
190.7150, 10916.00
191.9460, 11307.00
193.1760, 11517.00
194.4060, 12107.00
195.6360, 12762.00
196.8660, 13226.00
198.0960, 13540.00
199.3250, 13499.00
200.5540, 12959.00
201.7830, 12414.00
203.0120, 11698.00
204.2400, 11108.00
205.4690, 10547.00
206.6970, 10136.00
207.9250, 9758.000
209.1530, 9656.000
210.3800, 9498.000
211.6080, 9272.000
212.8350, 9290.502
214.0620, 9295.000
215.2880, 9250.000
216.5150, 9202.000
217.7410, 9104.000
218.9680, 9146.000
220.1940, 9083.000
221.4190, 9229.000
222.6450, 9170.000
223.8700, 9220.000
225.0960, 9201.000
226.3210, 9294.000
227.5450, 9200.000
228.7700, 9109.000
229.9940, 9102.000
231.2190, 9235.000
232.4430, 9306.000
233.6660, 9304.000
234.8900, 9241.000
236.1140, 9337.000
237.3370, 9448.000
238.5600, 9434.000
239.7830, 9505.000
241.0050, 9539.000
242.2280, 9706.000
243.4500, 9905.000
244.6720, 9889.000
245.8940, 10261.00
247.1160, 10600.00
248.3370, 11114.00
249.5580, 11652.00
250.7790, 12191.00
252.0000, 12987.00
253.2210, 13826.00
254.4410, 15037.00
255.6620, 16218.00
256.8820, 17215.00
258.1020, 17830.00
259.3210, 18647.00
260.5410, 19378.00
261.7600, 20109.00
262.9790, 20533.00
264.1980, 21143.00
265.4170, 21233.00
266.6360, 20882.00
267.8540, 20328.00
269.0720, 19159.00
270.2900, 17948.00
271.5080, 16902.00
272.7260, 16096.00
273.9430, 15389.00
275.1600, 15098.00
276.3770, 15183.00
277.5940, 15390.00
278.8100, 16026.00
280.0270, 16423.00
281.2430, 17400.00
282.4590, 18183.00
283.6750, 18843.00
284.8910, 19026.00
286.1060, 18438.00
287.3210, 17585.00
288.5360, 16635.00
289.7510, 15262.00
290.9660, 14171.00
292.1800, 13224.00
293.3950, 12333.00
294.6090, 11660.00
295.8230, 11143.00
297.0360, 10696.00
298.2500, 10548.00
299.4630, 10258.00
300.6760, 10112.00
301.8890, 10003.00
303.1020, 9918.000
304.3150, 9893.000
305.5270, 9726.000
306.7390, 9783.000
307.9510, 9699.000
309.1630, 9599.000
310.3750, 9670.000
311.5860, 9592.000
312.7970, 9591.000
314.0080, 9573.000
315.2190, 9587.000
316.4300, 9607.064
317.6400, 9617.088
318.8510, 9680.000
320.0610, 9680.000
321.2710, 9737.000
322.4800, 9810.000
323.6900, 9862.318
324.8990, 9965.000
326.1080, 10026.00
327.3170, 10173.00
328.5260, 10283.00
329.7340, 10401.00
330.9430, 10524.00
332.1510, 10511.00
333.3590, 10380.00
334.5670, 10424.00
335.7740, 10351.00
336.9820, 10080.00
338.1890, 10137.00
339.3960, 9940.000
340.6030, 9874.000
341.8100, 9881.000
343.0160, 9879.000
344.2220, 9839.000
345.4280, 9744.000
346.6340, 9980.000
347.8400, 10040.00
349.0460, 9960.000
350.2510, 9944.000
351.4560, 10089.00
352.6610, 10116.00
353.8660, 10309.00
355.0700, 10440.00
356.2750, 10367.00
357.4790, 10385.00
358.6830, 10320.00
359.8870, 10336.00
361.0910, 10374.00
362.2940, 10464.00
363.4970, 10516.00
364.7000, 10604.00
365.9030, 10623.00
367.1060, 10784.00
368.3080, 11000.00
369.5110, 11078.00
370.7130, 11252.00
371.9150, 11293.00
373.1170, 11207.00
374.3180, 11186.00
375.5200, 11024.00
376.7210, 10919.00
377.9220, 10790.72
379.1230, 10677.18
380.3230, 10509.00
381.5240, 10479.00
382.7240, 10387.00
383.9240, 10311.00
385.1240, 10380.00
386.3240, 10353.00
387.5230, 10393.00
388.7230, 10383.00
389.9220, 10429.00
391.1210, 10576.00
392.3200, 10651.75
393.5180, 10734.00
394.7170, 10950.00
395.9150, 11166.00
397.1130, 11380.00
398.3110, 11534.00
399.5080, 11942.00
400.7060, 12291.00
401.9030, 12635.00
403.1000, 12855.00
404.2970, 12956.00
405.4940, 12920.00
406.6910, 12791.00
407.8870, 12757.00
409.0830, 12807.00
410.2790, 13073.00
411.4750, 13103.00
412.6710, 13138.00
413.8660, 12715.00
415.0610, 12436.00
416.2560, 11915.00
417.4510, 11507.00
418.6460, 11356.00
419.8410, 11117.00
421.0350, 10956.00
422.2290, 10963.00
423.4230, 10923.00
424.6170, 10867.00
425.8100, 10881.00
427.0040, 10872.00
428.1970, 10961.00
429.3900, 11109.00
430.5830, 11020.00
431.7760, 11272.00
432.9680, 11332.00
434.1610, 11403.00
435.3530, 11481.00
436.5450, 11610.00
437.7360, 11838.00
438.9280, 12258.00
440.1190, 12666.00
441.3110, 13190.00
442.5020, 13874.00
443.6930, 14799.00
444.8830, 16170.00
446.0740, 17652.00
447.2640, 19345.00
448.4540, 21129.00
449.6440, 23262.00
450.8340, 25509.00
452.0240, 27771.00
453.2130, 28751.00
454.4020, 28797.00
455.5910, 27673.00
456.7800, 25970.00
457.9690, 24118.00
459.1570, 21744.00
460.3460, 20092.00
461.5340, 18794.00
462.7220, 17831.00
463.9090, 17569.00
465.0970, 17545.00
466.2840, 18191.00
467.4720, 18959.00
468.6590, 20004.00
469.8460, 21292.00
471.0320, 23092.00
472.2190, 24754.00
473.4050, 26241.00
474.5910, 27195.00
475.7770, 27118.00
476.9630, 26601.00
478.1490, 25512.00
479.3340, 23910.00
480.5190, 22263.00
481.7040, 21182.00
482.8890, 19959.00
484.0740, 19436.00
485.2580, 18312.00
486.4430, 17510.00
487.6270, 16738.00
488.8110, 16067.00
489.9950, 15785.00
491.1780, 15334.00
492.3620, 15101.00
493.5450, 15072.00
494.7280, 15266.00
495.9110, 15482.00
497.0940, 16104.00
498.2760, 16614.00
499.4590, 17536.00
500.6410, 19155.00
501.8230, 20965.00
503.0050, 23777.00
504.1860, 27060.00
505.3680, 31370.00
506.5490, 35903.00
507.7300, 41494.00
508.9110, 47116.00
510.0920, 53700.00
511.2730, 58589.00
512.4530, 62442.00
513.6330, 62147.00
514.8130, 59063.00
515.9930, 53919.00
517.1730, 47276.00
518.3520, 40465.00
519.5320, 34415.00
520.7110, 29501.00
521.8900, 25594.00
523.0690, 22958.00
524.2470, 20503.00
525.4260, 19343.00
526.6040, 18160.00
527.7820, 17156.00
528.9600, 16523.00
530.1380, 15881.00
531.3150, 15343.00
532.4930, 15017.00
533.6700, 14771.00
534.8470, 14593.00
536.0240, 14297.00
537.2000, 13948.00
538.3770, 13817.00
539.5530, 13747.00
540.7290, 13547.00
541.9050, 13573.00
543.0810, 13411.00
544.2570, 13376.00
545.4320, 13183.00
546.6080, 13129.00
547.7830, 13045.00
548.9580, 13010.00
550.1320, 13003.00
551.3070, 12996.00
552.4810, 12855.00
553.6550, 12830.00
554.8300, 13008.00
556.0030, 12846.00
557.1770, 12904.00
558.3510, 12801.00
559.5240, 12977.00
560.6970, 12749.00
561.8700, 12851.00
563.0430, 12851.00
564.2160, 12984.00
565.3880, 12921.00
566.5600, 12930.23
567.7320, 12788.00
568.9040, 12836.00
570.0760, 12903.00
571.2480, 12811.00
572.4190, 12781.00
573.5900, 12824.00
574.7610, 12874.00
575.9320, 12847.90
577.1030, 12914.00
578.2740, 12875.00
579.4440, 12980.00
580.6140, 13095.00
581.7840, 12841.00
582.9540, 12949.00
584.1240, 12895.00
585.2930, 12831.00
586.4630, 12808.00
587.6320, 12622.00
588.8010, 12695.00
589.9700, 12666.00
591.1380, 12590.00
592.3070, 12671.00
593.4750, 12525.00
594.6430, 12648.00
595.8110, 12591.00
596.9790, 12766.00
598.1460, 12562.00
599.3140, 12471.00
600.4810, 12536.00
601.6480, 12590.00
602.8150, 12573.00
603.9820, 12579.00
605.1480, 12529.00
606.3150, 12590.00
607.4810, 12578.00
608.6470, 12598.00
609.8130, 12677.00
610.9790, 12671.00
612.1440, 12632.00
613.3100, 12682.00
614.4750, 12771.00
615.6400, 12656.00
616.8050, 12697.00
617.9690, 12833.00
619.1340, 12824.00
620.2980, 12812.00
621.4620, 12842.00
622.6260, 12941.00
623.7900, 12901.00
624.9540, 12979.00
626.1170, 13152.00
627.2810, 13241.00
628.4440, 13140.00
629.6070, 13259.00
630.7690, 13315.00
631.9320, 13322.00
633.0950, 13536.00
634.2570, 13537.00
635.4190, 13674.00
636.5810, 13765.00
637.7430, 13925.00
638.9040, 14032.00
640.0660, 14179.00
641.2270, 14303.00
642.3880, 14518.00
643.5490, 14820.00
644.7100, 14856.00
645.8700, 15275.00
647.0310, 15385.00
648.1910, 15434.00
649.3510, 15834.00
650.5110, 15787.00
651.6710, 15895.00
652.8300, 15858.00
653.9900, 15790.00
655.1490, 15525.00
656.3080, 15495.00
657.4670, 15025.00
658.6250, 14899.00
659.7840, 14677.00
660.9420, 14501.00
662.1010, 14365.00
663.2590, 14181.00
664.4170, 14006.00
665.5740, 13845.00
666.7320, 13836.00
667.8890, 13709.00
669.0460, 13598.00
670.2030, 13616.00
671.3600, 13324.00
672.5170, 13514.00
673.6740, 13319.00
674.8300, 13356.00
675.9860, 13342.00
677.1420, 13319.00
678.2980, 13290.00
679.4540, 13320.99
680.6090, 13269.00
681.7650, 13390.00
682.9200, 13344.00
684.0750, 13380.02
685.2300, 13390.00
686.3840, 13316.00
687.5390, 13231.00
688.6930, 13207.00
689.8470, 13161.00
691.0010, 13194.85
692.1550, 13260.00
693.3090, 13305.00
694.4620, 13322.68
695.6160, 13360.18
696.7690, 13342.00
697.9220, 13401.00
699.0750, 13393.00
700.2280, 13414.00
701.3800, 13477.00
702.5320, 13474.00
703.6850, 13510.00
704.8370, 13596.00
705.9880, 13496.00
707.1400, 13790.00
708.2920, 13719.00
709.4430, 13758.00
710.5940, 13659.00
711.7450, 13753.00
712.8960, 13743.00
714.0470, 13734.00
715.1970, 13823.00
716.3480, 13912.00
717.4980, 13788.00
718.6480, 13990.00
719.7980, 13882.00
720.9470, 13807.00
722.0970, 13819.00
723.2460, 14084.00
724.3960, 14126.00
725.5450, 14154.00
726.6940, 14184.00
727.8420, 14355.00
728.9910, 14376.00
730.1390, 14663.00
731.2870, 14692.00
732.4350, 14914.00
733.5830, 15254.00
734.7310, 15214.00
735.8790, 15653.00
737.0260, 15924.00
738.1730, 16463.00
739.3200, 17122.00
740.4670, 17732.00
741.6140, 18634.86
742.7610, 19326.00
743.9070, 20568.00
745.0530, 21636.00
746.1990, 22659.00
747.3450, 23624.00
748.4910, 23813.00
749.6370, 23682.00
750.7820, 22954.00
751.9270, 21842.00
753.0720, 21020.00
754.2170, 19874.00
755.3620, 19000.00
756.5070, 18156.00
757.6510, 17509.00
758.7950, 16945.00
759.9400, 16563.00
761.0840, 16262.00
762.2270, 15855.00
763.3710, 15836.00
764.5140, 15449.00
765.6580, 15441.00
766.8010, 15346.00
767.9440, 15232.00
769.0870, 15069.00
770.2290, 15143.00
771.3720, 15005.00
772.5140, 15106.00
773.6560, 14934.00
774.7990, 14914.00
775.9400, 14778.00
777.0820, 14847.00
778.2240, 14750.00
779.3650, 14722.00
780.5060, 14801.00
781.6470, 14746.00
782.7880, 14876.00
783.9290, 14827.00
785.0690, 14860.00
786.2100, 14968.00
787.3500, 15104.00
788.4900, 15134.00
789.6300, 15144.00
790.7700, 15048.00
791.9090, 15227.00
793.0490, 15340.00
794.1880, 15276.00
795.3270, 15393.00
796.4660, 15716.00
797.6050, 15761.00
798.7440, 15864.00
799.8820, 15877.00
801.0200, 16180.00
802.1590, 16658.00
803.2970, 17220.00
804.4340, 17820.00
805.5720, 18847.00
806.7100, 19765.00
807.8470, 20987.00
808.9840, 22078.00
810.1210, 23292.00
811.2580, 24238.00
812.3950, 25007.00
813.5310, 24905.00
814.6680, 24095.00
815.8040, 22868.00
816.9400, 21379.00
818.0760, 19744.00
819.2120, 18752.00
820.3470, 17675.00
821.4830, 16994.00
822.6180, 16463.00
823.7530, 16097.00
824.8880, 15909.00
826.0230, 15722.00
827.1580, 15582.00
828.2920, 15504.00
829.4270, 15397.00
830.5610, 15348.00
831.6950, 15264.02
832.8290, 15255.00
833.9620, 15151.00
835.0960, 15128.00
836.2290, 15130.00
837.3620, 15058.00
838.4950, 15089.00
839.6280, 15077.00
840.7610, 15131.00
841.8940, 14902.00
843.0260, 15109.00
844.1580, 14977.00
845.2910, 15017.00
846.4230, 15076.00
847.5540, 15036.00
848.6860, 14959.00
849.8170, 14993.00
850.9490, 15051.00
852.0800, 15099.00
853.2110, 15079.00
854.3420, 15065.00
855.4730, 15088.00
856.6030, 14937.00
857.7340, 15140.00
858.8640, 15166.00
859.9940, 15247.00
861.1240, 15061.00
862.2540, 15107.00
863.3830, 15113.00
864.5130, 15066.00
865.6420, 15233.00
866.7710, 15297.00
867.9000, 15079.00
869.0290, 15259.00
870.1570, 15300.00
871.2860, 15197.00
872.4140, 15192.00
873.5430, 15260.00
874.6710, 15211.00
875.7980, 15323.00
876.9260, 15296.00
878.0540, 15402.00
879.1810, 15168.00
880.3080, 15204.00
881.4360, 15243.00
882.5630, 15191.00
883.6890, 15372.00
884.8160, 15288.00
885.9420, 15407.00
887.0690, 15315.00
888.1950, 15484.00
889.3210, 15287.00
890.4470, 15455.00
891.5730, 15448.00
892.6980, 15413.00
893.8240, 15576.00
894.9490, 15377.00
896.0740, 15365.00
897.1990, 15348.00
898.3240, 15381.00
899.4480, 15399.00
900.5730, 15584.00
901.6970, 15414.00
902.8210, 15434.00
903.9450, 15652.00
905.0690, 15481.00
906.1930, 15553.00
907.3160, 15467.00
908.4400, 15684.00
909.5630, 15752.00
910.6860, 15533.00
911.8090, 15695.00
912.9320, 15564.00
914.0550, 15823.00
915.1770, 15648.00
916.2990, 15718.00
917.4210, 15583.00
918.5440, 15775.00
919.6650, 15710.00
920.7870, 15755.00
921.9090, 15834.00
923.0300, 15810.00
924.1510, 15711.00
925.2720, 15879.00
926.3930, 15763.00
927.5140, 15805.00
928.6350, 15792.00
929.7550, 15938.00
930.8760, 15777.00
931.9960, 15996.00
933.1160, 15924.00
934.2360, 16008.00
935.3550, 15906.00
936.4750, 15991.00
937.5940, 16018.25
938.7140, 16034.26
939.8330, 16061.00
940.9520, 16120.00
942.0710, 16125.67
943.1890, 16023.00
944.3080, 16168.00
945.4260, 16217.00
946.5440, 16252.04
947.6620, 15992.00
948.7800, 16275.00
949.8980, 16173.00
951.0160, 16087.00
952.1330, 16192.00
953.2500, 16149.27
954.3680, 16273.00
955.4850, 16249.00
956.6010, 16259.00
957.7180, 16354.00
958.8350, 16353.00
959.9510, 16439.00
961.0670, 16400.00
962.1830, 16418.00
963.2990, 16455.00
964.4150, 16452.00
965.5310, 16439.00
966.6460, 16473.27
967.7620, 16485.00
968.8770, 16516.00
969.9920, 16493.00
971.1070, 16508.00
972.2210, 16587.00
973.3360, 16565.00
974.4500, 16788.00
975.5650, 16741.00
976.6790, 16847.00
977.7930, 16947.75
978.9070, 16815.00
980.0200, 17087.00
981.1340, 17159.00
982.2470, 17157.00
983.3610, 17453.00
984.4740, 17497.00
985.5870, 17721.00
986.6990, 17851.00
987.8120, 18002.00
988.9250, 18319.00
990.0370, 18522.00
991.1490, 18780.00
992.2610, 18829.00
993.3730, 18928.17
994.4850, 18991.00
995.5960, 18905.00
996.7080, 18773.00
997.8190, 18613.00
998.9300, 18444.00
1000.041, 18116.00
1001.152, 18092.00
1002.263, 18049.00
1003.373, 17753.00
1004.484, 17795.00
1005.594, 17616.00
1006.704, 17474.00
1007.814, 17399.00
1008.924, 17415.00
1010.034, 17350.00
1011.143, 17506.00
1012.253, 17330.00
1013.362, 17422.00
1014.471, 17172.00
1015.580, 17328.00
1016.689, 17291.00
1017.797, 17367.00
1018.906, 17229.00
1020.014, 17270.00
1021.122, 17306.00
1022.230, 17246.30
1023.338, 17260.00
1024.446, 17287.00
1025.554, 17378.00
1026.661, 17557.00
1027.768, 17407.00
1028.875, 17314.00
1029.983, 17164.00
1031.089, 17436.00
1032.196, 17455.00
1033.303, 17566.00
1034.409, 17591.00
1035.515, 17506.00
1036.622, 17623.00
1037.728, 17729.00
1038.833, 17660.00
1039.939, 17574.00
1041.045, 17384.00
1042.150, 17684.00
1043.255, 17686.00
1044.360, 17398.00
1045.465, 17624.00
1046.570, 17414.00
1047.675, 17654.00
1048.779, 17560.00
1049.884, 17664.00
1050.988, 17368.00
1052.092, 17490.00
1053.196, 17607.00
1054.300, 17579.00
1055.404, 17709.00
1056.507, 17628.00
1057.610, 17627.00
1058.714, 17638.00
1059.817, 17659.00
1060.920, 17632.00
1062.022, 17673.00
1063.125, 17703.00
1064.228, 17731.00
1065.330, 17789.00
1066.432, 17817.00
1067.534, 17788.00
1068.636, 17617.00
1069.738, 17696.00
1070.840, 17721.00
1071.941, 17972.00
1073.042, 17734.00
1074.144, 17715.00
1075.245, 18008.00
1076.346, 17917.00
1077.446, 17996.00
1078.547, 17932.00
1079.647, 18083.00
1080.748, 18061.00
1081.848, 18002.00
1082.948, 18167.00
1084.048, 18256.00
1085.148, 18443.00
1086.247, 18488.22
1087.347, 18494.00
1088.446, 18635.00
1089.545, 18699.00
1090.644, 18871.00
1091.743, 18849.00
1092.842, 19224.00
1093.940, 19397.00
1095.039, 19581.00
1096.137, 19486.00
1097.235, 19526.00
1098.333, 19566.00
1099.431, 19588.00
1100.529, 19506.00
1101.627, 19456.00
1102.724, 19375.00
1103.822, 19047.00
1104.919, 19036.00
1106.016, 19017.00
1107.113, 19089.00
1108.209, 18792.00
1109.306, 18889.00
1110.402, 18827.00
1111.499, 18885.00
1112.595, 18861.00
1113.691, 18994.00
1114.787, 19238.00
1115.883, 19188.00
1116.978, 19439.00
1118.074, 19667.00
1119.169, 20039.00
1120.264, 20079.00
1121.359, 20159.00
1122.454, 20426.00
1123.549, 20365.00
1124.644, 20299.00
1125.738, 20084.00
1126.832, 20081.00
1127.927, 19971.00
1129.021, 20050.00
1130.115, 19986.00
1131.208, 19935.00
1132.302, 19952.00
1133.396, 20184.00
1134.489, 20337.00
1135.582, 20622.00
1136.675, 20702.00
1137.768, 20754.00
1138.861, 20639.00
1139.954, 20469.00
1141.046, 20382.00
1142.138, 20141.00
1143.231, 19939.00
1144.323, 19737.00
1145.415, 19589.99
1146.507, 19550.00
1147.598, 19355.00
1148.690, 19366.00
1149.781, 19301.00
1150.872, 19056.00
1151.964, 19211.00
1153.054, 19089.00
1154.145, 19010.00
1155.236, 18957.00
1156.327, 18925.00
1157.417, 18905.13
1158.507, 19025.00
1159.597, 18945.00
1160.687, 19064.00
1161.777, 19176.00
1162.867, 19198.00
1163.956, 19221.00
1165.046, 19186.44
1166.135, 19153.12
1167.224, 19067.00
1168.313, 19031.00
1169.402, 19024.00
1170.491, 18969.00
1171.580, 18960.00
1172.668, 19033.00
1173.756, 19041.00
1174.845, 19106.00
1175.933, 19002.00
1177.020, 18949.00
1178.108, 18900.00
1179.196, 19181.00
1180.283, 19141.00
1181.371, 19166.00
1182.458, 19061.00
1183.545, 19192.00
1184.632, 19094.00
1185.719, 19082.00
1186.805, 19101.00
1187.892, 19161.00
1188.978, 19207.00
1190.065, 19116.00
1191.151, 19056.00
1192.237, 19244.00
1193.323, 19312.00
1194.408, 19170.00
1195.494, 19149.00
1196.579, 19314.00
1197.664, 19271.00
1198.750, 19195.00
1199.835, 19156.00
1200.919, 19347.00
1202.004, 19317.00
1203.089, 19437.00
1204.173, 19335.00
1205.258, 19376.00
1206.342, 19447.00
1207.426, 19324.00
1208.510, 19294.00
1209.594, 19465.00
1210.677, 19352.00
1211.761, 19539.00
1212.844, 19420.00
1213.927, 19434.00
1215.010, 19409.00
1216.093, 19465.00
1217.176, 19570.00
1218.259, 19487.00
1219.341, 19620.00
1220.424, 19669.00
1221.506, 19594.00
1222.588, 19667.00
1223.670, 19621.43
1224.752, 19650.00
1225.834, 19574.00
1226.915, 19589.00
1227.997, 19589.00
1229.078, 19754.00
1230.159, 19626.00
1231.240, 19771.00
1232.321, 19640.00
1233.402, 19754.00
1234.483, 19841.00
1235.563, 19850.00
1236.644, 19767.00
1237.724, 19795.00
1238.804, 19879.00
1239.884, 19712.00
1240.964, 19784.00
1242.044, 19870.00
1243.123, 19955.00
1244.203, 19830.00
1245.282, 19733.00
1246.361, 19654.00
1247.440, 19754.00
1248.519, 19827.00
1249.598, 19750.00
1250.676, 19834.00
1251.755, 19912.00
1252.833, 20022.00
1253.911, 20077.00
1254.989, 20085.00
1256.067, 20014.00
1257.145, 20145.00
1258.223, 20041.00
1259.300, 20072.00
1260.378, 20735.00
1261.455, 20692.00
1262.532, 20953.00
1263.609, 20843.00
1264.686, 20670.00
1265.763, 20235.00
1266.840, 20088.00
1267.916, 20003.00
1268.992, 20188.00
1270.069, 20232.00
1271.145, 20151.00
1272.221, 20181.00
1273.296, 20161.00
1274.372, 20136.07
1275.448, 20247.00
1276.523, 20148.00
1277.598, 20208.00
1278.673, 20303.00
1279.749, 20432.00
1280.823, 20444.00
1281.898, 20393.00
1282.973, 20322.00
1284.047, 20526.00
1285.122, 20443.00
1286.196, 20232.00
1287.270, 20367.00
1288.344, 20522.00
1289.418, 20444.00
1290.491, 20452.00
1291.565, 20519.00
1292.638, 20364.00
1293.712, 20401.00
1294.785, 20633.00
1295.858, 20523.00
1296.931, 20573.00
1298.003, 20646.00
1299.076, 20659.00
1300.149, 20574.00
1301.221, 20598.00
1302.293, 20500.00
1303.365, 20705.00
1304.437, 20591.00
1305.509, 20753.00
1306.581, 20836.00
1307.652, 20643.00
1308.724, 20608.00
1309.795, 20674.00
1310.866, 20931.00
1311.937, 20573.00
1313.008, 20958.00
1314.079, 20822.00
1315.150, 20858.00
1316.220, 20832.00
1317.291, 20792.77
1318.361, 20911.00
1319.431, 20834.00
1320.501, 20922.00
1321.571, 21101.00
1322.641, 20982.00
1323.710, 20984.00
1324.780, 20991.00
1325.849, 21122.00
1326.918, 21126.00
1327.987, 21054.00
1329.056, 21046.00
1330.125, 21092.87
1331.194, 21127.78
1332.263, 21157.00
1333.331, 21226.00
1334.399, 21138.00
1335.467, 21032.00
1336.535, 21227.00
1337.603, 21132.00
1338.671, 21185.00
1339.739, 21229.00
1340.806, 21338.00
1341.874, 21225.00
1342.941, 21429.00
1344.008, 21312.00
1345.075, 21217.00
1346.142, 21237.00
1347.209, 21313.00
1348.275, 21321.00
1349.342, 21298.00
1350.408, 21558.00
1351.475, 21356.00
1352.541, 21245.00
1353.607, 21535.00
1354.673, 21570.00
1355.738, 21528.00
1356.804, 21404.00
1357.869, 21456.00
1358.935, 21362.00
1360.000, 21592.00
1361.065, 21545.00
1362.130, 21593.00
1363.195, 21562.00
1364.259, 21553.00
1365.324, 21519.00
1366.388, 21538.00
1367.453, 21607.00
1368.517, 21763.00
1369.581, 21569.00
1370.645, 21696.00
1371.709, 21544.00
1372.772, 21613.00
1373.836, 21470.00
1374.899, 21665.00
1375.963, 21851.00
1377.026, 21837.00
1378.089, 21813.00
1379.152, 21839.35
1380.214, 21773.00
1381.277, 21735.00
1382.340, 21756.00
1383.402, 21652.00
1384.464, 21765.00
1385.526, 21750.00
1386.588, 21879.00
1387.650, 21693.00
1388.712, 21947.00
1389.774, 22004.00
1390.835, 21843.00
1391.896, 22079.00
1392.958, 21999.00
1394.019, 21997.00
1395.080, 21928.00
1396.141, 22036.00
1397.201, 21858.00
1398.262, 22089.00
1399.323, 22017.00
1400.383, 22121.00
1401.443, 22121.00
1402.503, 22083.00
1403.563, 22082.00
1404.623, 22015.00
1405.683, 22087.00
1406.742, 22253.00
1407.802, 22179.00
1408.861, 22167.00
1409.920, 22106.00
1410.980, 22254.00
1412.039, 22134.00
1413.097, 22329.00
1414.156, 22232.00
1415.215, 22420.00
1416.273, 22289.00
1417.331, 22282.00
1418.390, 22329.00
1419.448, 22263.00
1420.506, 22194.00
1421.564, 22362.00
1422.621, 22276.00
1423.679, 22492.00
1424.736, 22433.00
1425.794, 22334.00
1426.851, 22461.00
1427.908, 22430.00
1428.965, 22506.00
1430.022, 22472.00
1431.079, 22541.00
1432.135, 22458.00
1433.192, 22645.00
1434.248, 22529.00
1435.304, 22502.00
1436.360, 22655.00
1437.416, 22680.00
1438.472, 22678.31
1439.528, 22673.00
1440.583, 22671.00
1441.639, 22714.00
1442.694, 22736.00
1443.749, 22618.00
1444.804, 22588.00
1445.859, 22932.00
1446.914, 22877.00
1447.969, 22856.00
1449.024, 22641.00
1450.078, 23006.00
1451.132, 22954.00
1452.187, 22987.00
1453.241, 22716.00
1454.295, 22776.00
1455.349, 22877.00
1456.402, 23095.00
1457.456, 22906.00
1458.509, 23068.00
1459.563, 22973.00
1460.616, 22865.00
1461.669, 22930.00
1462.722, 23033.00
1463.775, 23065.00
1464.828, 23274.00
1465.880, 23132.00
1466.933, 22937.00
1467.985, 22999.00
1469.037, 23157.00
1470.090, 23185.00
1471.142, 23048.00
1472.193, 23226.00
1473.245, 23097.00
1474.297, 23194.00
1475.348, 23035.00
1476.400, 23066.00
1477.451, 23067.00
1478.502, 23179.00
1479.553, 23163.00
1480.604, 23200.00
1481.655, 23350.00
1482.706, 23120.00
1483.756, 23315.00
1484.807, 23322.00
1485.857, 23212.00
1486.907, 23377.00
1487.957, 23240.00
1489.007, 23382.00
1490.057, 23466.00
1491.106, 23304.00
1492.156, 23235.00
1493.205, 23461.00
1494.255, 23400.00
1495.304, 23403.00
1496.353, 23387.00
1497.402, 23465.00
1498.451, 23447.00
1499.500, 23521.00
1500.548, 23552.00
1501.597, 23527.00
1502.645, 23562.57
1503.693, 23440.00
1504.741, 23505.00
1505.789, 23492.00
1506.837, 23334.00
1507.885, 23502.00
1508.932, 23772.00
1509.980, 23717.00
1511.027, 23717.00
1512.075, 23610.00
1513.122, 23620.00
1514.169, 23625.00
1515.216, 23769.00
1516.262, 23654.00
1517.309, 23766.00
1518.356, 23643.00
1519.402, 23967.00
1520.448, 23705.00
1521.495, 23812.00
1522.541, 23572.00
1523.587, 23764.00
1524.632, 23833.00
1525.678, 23703.00
1526.724, 24021.00
1527.769, 23843.00
1528.814, 23785.00
1529.860, 23928.00
1530.905, 23711.00
1531.950, 23952.00
1532.995, 24083.00
1534.039, 23740.00
1535.084, 24023.00
1536.128, 24030.00
1537.173, 24051.00
1538.217, 24128.02
1539.261, 24012.00
1540.305, 24095.00
1541.349, 24144.00
1542.393, 24065.00
1543.436, 24024.00
1544.480, 23973.00
1545.523, 23979.00
1546.567, 24179.00
1547.610, 24043.00
1548.653, 24343.00
1549.696, 24268.00
1550.739, 24228.00
1551.781, 24312.00
1552.824, 24346.00
1553.867, 24413.00
1554.909, 24527.00
1555.951, 24312.00
1556.993, 24377.00
1558.035, 24177.00
1559.077, 24238.00
1560.119, 24294.00
1561.161, 24180.00
1562.202, 24445.00
1563.243, 24147.00
1564.285, 24395.00
1565.326, 24390.00
##END=



