##NAMES=Microcline
##RRUFFID=R050193
##IDEAL CHEMISTRY=KAlSi_3_O_8_
##LOCALITY=Devil's Head, Douglas County, Colorado, USA
##OWNER=RRUFF
##SOURCE=Dave Bunk Minerals
##DESCRIPTION=White to colorless heterogeneous mixture of K and Na feldspar in a cluster of crystals. Crystal structure determined, presented below. This sample is known as an intermediate microcline in the literature.
##STATUS=The identification of this mineral has been confirmed by X-ray diffraction and chemical analysis
##URL=rruff.info/R050193
##MEASURED CHEMISTRY=(K_0.929_Na_0.071_)(Al_1.005_Si_2.994_Fe_0.001_)O_7.993_F_0.007_  ; Light Band :  (Na_0.973_K_0.007_Ca_0.020_)(Al_1.020_Si_2.980_)O_8_ ; Dark Band
##PIN_ID=L01707
##ORIENTATION=Laser parallel to (-1 0 -1). Fiducial mark perpendicular to laser is parallel to b [0 1 0]
122.8270, 11985.00
124.0610, 11993.00
125.2950, 11886.00
126.5290, 12085.00
127.7630, 12151.00
128.9970, 12260.00
130.2300, 12303.00
131.4640, 12720.00
132.6970, 12987.00
133.9300, 13727.00
135.1630, 14345.00
136.3950, 15196.00
137.6280, 16034.00
138.8600, 16795.00
140.0920, 17428.00
141.3240, 17917.00
142.5560, 18070.00
143.7880, 18518.00
145.0190, 18813.00
146.2510, 19722.00
147.4820, 20359.00
148.7130, 21426.00
149.9440, 22937.00
151.1750, 24083.00
152.4050, 25197.00
153.6360, 25878.00
154.8660, 26722.00
156.0960, 26630.00
157.3260, 26317.00
158.5560, 25510.00
159.7850, 24123.00
161.0150, 22806.00
162.2440, 21208.00
163.4730, 19619.00
164.7020, 18336.00
165.9310, 17161.00
167.1590, 15986.00
168.3880, 15232.00
169.6160, 14602.00
170.8440, 14351.00
172.0720, 13784.00
173.3000, 13368.00
174.5280, 13128.00
175.7550, 13030.00
176.9820, 12785.00
178.2100, 12805.00
179.4370, 12525.00
180.6630, 12540.00
181.8900, 12311.00
183.1170, 12287.00
184.3430, 12280.00
185.5690, 12228.00
186.7950, 12140.00
188.0210, 12010.00
189.2470, 12049.00
190.4720, 12007.00
191.6970, 12015.00
192.9230, 11979.85
194.1480, 11935.00
195.3730, 11906.00
196.5970, 11909.00
197.8220, 11901.00
199.0460, 11949.00
200.2700, 11924.00
201.4940, 11913.00
202.7180, 11899.00
203.9420, 11768.00
205.1660, 11740.00
206.3890, 11593.00
207.6120, 11689.00
208.8350, 11640.00
210.0580, 11701.00
211.2810, 11407.00
212.5040, 11530.00
213.7260, 11528.00
214.9480, 11402.00
216.1700, 11561.00
217.3920, 11485.00
218.6140, 11491.00
219.8360, 11459.00
221.0570, 11503.00
222.2790, 11487.00
223.5000, 11423.00
224.7210, 11544.00
225.9410, 11410.00
227.1620, 11571.00
228.3820, 11595.00
229.6030, 11575.00
230.8230, 11670.00
232.0430, 11731.00
233.2630, 11691.00
234.4820, 11725.00
235.7020, 11717.00
236.9210, 11817.00
238.1400, 11714.00
239.3590, 11841.00
240.5780, 11962.00
241.7970, 11954.00
243.0150, 12051.00
244.2340, 12122.00
245.4520, 12157.00
246.6700, 12343.00
247.8880, 12351.00
249.1060, 12618.00
250.3230, 12835.00
251.5400, 12881.00
252.7580, 13183.00
253.9750, 13480.00
255.1920, 13667.00
256.4080, 13957.00
257.6250, 14273.00
258.8410, 14721.00
260.0580, 14923.00
261.2740, 14999.00
262.4900, 15253.00
263.7050, 15804.00
264.9210, 15995.00
266.1360, 16353.00
267.3520, 16792.00
268.5670, 17180.00
269.7820, 17658.00
270.9960, 18419.00
272.2110, 18955.00
273.4250, 19721.00
274.6400, 20657.00
275.8540, 21341.00
277.0680, 22068.00
278.2810, 22695.00
279.4950, 22672.00
280.7090, 22641.00
281.9220, 22151.00
283.1350, 21660.00
284.3480, 20935.00
285.5610, 20006.00
286.7730, 19047.00
287.9860, 18053.00
289.1980, 17325.00
290.4100, 16636.00
291.6220, 15903.00
292.8340, 15407.00
294.0460, 14969.00
295.2570, 14629.00
296.4690, 14288.00
297.6800, 14070.00
298.8910, 13758.00
300.1020, 13564.00
301.3120, 13629.00
302.5230, 13528.00
303.7330, 13319.00
304.9440, 13298.00
306.1540, 13132.00
307.3630, 12999.00
308.5730, 13058.00
309.7830, 13079.00
310.9920, 13030.00
312.2010, 12819.00
313.4100, 12920.00
314.6190, 12807.00
315.8280, 12959.00
317.0370, 12761.00
318.2450, 12866.00
319.4530, 12914.00
320.6610, 12965.00
321.8690, 13028.00
323.0770, 13001.00
324.2850, 12968.00
325.4920, 13003.00
326.6990, 13028.00
327.9060, 13024.00
329.1130, 13201.00
330.3200, 13152.00
331.5270, 13127.00
332.7330, 13131.00
333.9390, 13039.00
335.1450, 13148.00
336.3510, 13348.00
337.5570, 13123.00
338.7630, 13182.00
339.9680, 13139.00
341.1740, 12979.00
342.3790, 13045.00
343.5840, 13115.00
344.7890, 13066.00
345.9930, 13130.00
347.1980, 13169.00
348.4020, 13187.00
349.6060, 13057.00
350.8100, 13186.00
352.0140, 13132.00
353.2180, 13120.00
354.4210, 13266.00
355.6250, 13268.00
356.8280, 13218.00
358.0310, 13412.00
359.2340, 13370.00
360.4360, 13459.00
361.6390, 13409.00
362.8410, 13521.00
364.0430, 13630.00
365.2450, 13742.00
366.4470, 13730.00
367.6490, 13739.00
368.8510, 13750.00
370.0520, 13741.00
371.2530, 13894.00
372.4540, 13738.00
373.6550, 13844.00
374.8560, 13660.00
376.0560, 13620.00
377.2570, 13605.00
378.4570, 13495.00
379.6570, 13470.00
380.8570, 13321.00
382.0570, 13355.00
383.2560, 13409.00
384.4560, 13257.00
385.6550, 13413.00
386.8540, 13435.00
388.0530, 13386.00
389.2520, 13473.00
390.4510, 13421.00
391.6490, 13585.00
392.8470, 13680.00
394.0450, 13545.00
395.2430, 13646.00
396.4410, 13611.00
397.6390, 13593.00
398.8360, 13664.24
400.0340, 13740.00
401.2310, 13822.00
402.4280, 13925.00
403.6250, 13929.72
404.8210, 13845.00
406.0180, 13939.00
407.2140, 13885.00
408.4100, 13884.00
409.6060, 13883.00
410.8020, 13918.00
411.9980, 13878.45
413.1930, 13837.00
414.3890, 13856.00
415.5840, 13743.00
416.7790, 13810.00
417.9740, 13620.00
419.1680, 13641.00
420.3630, 13732.00
421.5570, 13651.00
422.7510, 13727.00
423.9450, 13596.00
425.1390, 13686.00
426.3330, 13891.00
427.5270, 13835.00
428.7200, 13846.00
429.9130, 14017.00
431.1060, 14069.00
432.2990, 14053.00
433.4920, 14136.00
434.6840, 14294.00
435.8770, 14510.00
437.0690, 14483.00
438.2610, 14595.00
439.4530, 15023.00
440.6450, 15104.00
441.8360, 15362.00
443.0280, 15639.00
444.2190, 15835.00
445.4100, 16116.00
446.6010, 16649.00
447.7920, 16895.00
448.9820, 17345.00
450.1730, 17570.00
451.3630, 18056.00
452.5530, 17982.00
453.7430, 18149.00
454.9330, 17893.00
456.1230, 17987.00
457.3120, 17975.00
458.5010, 17959.00
459.6910, 18056.00
460.8800, 18178.00
462.0680, 18452.00
463.2570, 18819.00
464.4460, 19278.00
465.6340, 19859.00
466.8220, 20616.00
468.0100, 21448.00
469.1980, 22202.00
470.3860, 23097.00
471.5730, 24081.00
472.7600, 25156.00
473.9480, 25570.00
475.1350, 25840.00
476.3210, 25248.00
477.5080, 24608.00
478.6950, 23541.00
479.8810, 22598.00
481.0670, 21677.00
482.2530, 20888.57
483.4390, 20278.00
484.6250, 19567.00
485.8100, 19166.00
486.9960, 18783.00
488.1810, 18495.00
489.3660, 18263.26
490.5510, 18061.00
491.7360, 17992.00
492.9200, 17931.00
494.1050, 17958.00
495.2890, 18240.00
496.4730, 18547.00
497.6570, 19318.00
498.8400, 19532.00
500.0240, 21063.00
501.2070, 22233.00
502.3910, 23875.00
503.5740, 25793.00
504.7570, 28303.00
505.9400, 30733.00
507.1220, 33284.00
508.3050, 35924.00
509.4870, 38717.00
510.6690, 41113.00
511.8510, 41866.00
513.0330, 41215.00
514.2140, 39918.00
515.3960, 36989.00
516.5770, 33626.00
517.7580, 30434.00
518.9390, 27483.00
520.1200, 24998.00
521.3010, 22779.00
522.4810, 21574.00
523.6610, 20384.00
524.8420, 19396.00
526.0220, 18653.00
527.2010, 18320.00
528.3810, 17762.00
529.5610, 17445.00
530.7400, 17175.00
531.9190, 16875.00
533.0980, 16879.00
534.2770, 16523.00
535.4560, 16560.00
536.6340, 16438.00
537.8120, 16063.00
538.9910, 15997.00
540.1690, 16139.00
541.3460, 16128.00
542.5240, 15878.00
543.7020, 15993.00
544.8790, 15874.00
546.0560, 15793.00
547.2330, 15843.00
548.4100, 15814.00
549.5870, 15735.00
550.7630, 15997.00
551.9400, 15798.00
553.1160, 15822.00
554.2920, 15882.00
555.4680, 15775.00
556.6440, 15747.00
557.8190, 15771.00
558.9950, 15811.00
560.1700, 15844.00
561.3450, 15707.00
562.5200, 15719.00
563.6950, 15740.00
564.8690, 15853.00
566.0440, 15790.00
567.2180, 15709.00
568.3920, 15781.00
569.5660, 15791.00
570.7400, 15932.00
571.9130, 15989.00
573.0870, 16065.00
574.2600, 15933.00
575.4330, 15998.00
576.6060, 16012.00
577.7790, 15978.00
578.9520, 16135.00
580.1240, 16238.00
581.2960, 15932.00
582.4690, 16248.00
583.6410, 16084.00
584.8120, 16074.00
585.9840, 16181.00
587.1560, 15935.00
588.3270, 16106.00
589.4980, 16021.00
590.6690, 15891.00
591.8400, 16129.00
593.0110, 15905.00
594.1810, 16036.00
595.3510, 16178.00
596.5220, 16011.00
597.6920, 16055.00
598.8610, 15898.00
600.0310, 16141.00
601.2010, 15966.00
602.3700, 16171.00
603.5390, 16242.00
604.7080, 16123.00
605.8770, 16224.00
607.0460, 16117.00
608.2140, 16301.00
609.3830, 16273.00
610.5510, 16149.00
611.7190, 16187.00
612.8870, 16302.00
614.0550, 16492.00
615.2220, 16236.00
616.3900, 16409.00
617.5570, 16549.00
618.7240, 16408.00
619.8910, 16520.00
621.0580, 16477.00
622.2240, 16621.00
623.3910, 16663.00
624.5570, 16640.00
625.7230, 16775.00
626.8890, 16897.00
628.0550, 16894.00
629.2200, 16920.00
630.3860, 16784.00
631.5510, 16942.00
632.7160, 16786.00
633.8810, 16843.00
635.0460, 16878.00
636.2100, 16839.00
637.3750, 16813.00
638.5390, 16641.00
639.7030, 16645.00
640.8670, 16657.00
642.0310, 16827.00
643.1950, 16722.00
644.3580, 16746.00
645.5210, 16799.00
646.6850, 16761.00
647.8480, 16814.23
649.0100, 16860.03
650.1730, 16880.00
651.3350, 16952.00
652.4980, 17004.00
653.6600, 16990.00
654.8220, 17008.02
655.9840, 16899.00
657.1450, 16952.00
658.3070, 17013.00
659.4680, 16946.00
660.6300, 17057.00
661.7910, 16815.00
662.9510, 16825.00
664.1120, 16815.33
665.2730, 16966.00
666.4330, 16837.00
667.5930, 16865.00
668.7530, 16945.00
669.9130, 16830.00
671.0730, 16994.00
672.2320, 16870.00
673.3920, 17045.00
674.5510, 16733.00
675.7100, 16909.00
676.8690, 17071.00
678.0280, 16734.00
679.1860, 16932.00
680.3450, 16909.00
681.5030, 17101.00
682.6610, 17034.00
683.8190, 17021.00
684.9770, 16965.00
686.1340, 17057.00
687.2920, 17073.00
688.4490, 17060.00
689.6060, 17062.00
690.7630, 17095.00
691.9200, 17079.55
693.0760, 17033.00
694.2330, 17103.00
695.3890, 17173.00
696.5450, 17246.00
697.7010, 17162.00
698.8570, 17178.00
700.0130, 17276.00
701.1680, 16974.00
702.3230, 17216.00
703.4780, 17243.00
704.6330, 17272.00
705.7880, 17565.00
706.9430, 17295.00
708.0970, 17448.00
709.2520, 17383.00
710.4060, 17516.00
711.5600, 17477.00
712.7140, 17535.00
713.8670, 17490.00
715.0210, 17418.00
716.1740, 17540.00
717.3270, 17544.00
718.4800, 17638.00
719.6330, 17548.00
720.7860, 17610.00
721.9380, 17634.00
723.0910, 17763.00
724.2430, 17691.00
725.3950, 17766.00
726.5470, 17809.00
727.6980, 17774.00
728.8500, 17879.00
730.0010, 17741.00
731.1530, 17886.00
732.3040, 17996.00
733.4550, 18136.00
734.6050, 17941.00
735.7560, 18143.00
736.9060, 18133.00
738.0560, 18211.00
739.2060, 18308.00
740.3560, 18354.00
741.5060, 18317.00
742.6560, 18466.00
743.8050, 18462.00
744.9540, 18653.00
746.1030, 18601.00
747.2520, 18716.00
748.4010, 18718.00
749.5500, 18620.00
750.6980, 18663.00
751.8460, 18558.00
752.9950, 18695.00
754.1420, 18580.00
755.2900, 18763.00
756.4380, 18804.00
757.5850, 18856.00
758.7330, 18850.00
759.8800, 18870.00
761.0270, 18738.00
762.1730, 19007.00
763.3200, 18865.00
764.4670, 19008.00
765.6130, 19018.00
766.7590, 19019.00
767.9050, 19101.00
769.0510, 19072.00
770.1960, 19025.00
771.3420, 18946.00
772.4870, 18916.00
773.6320, 18888.36
774.7770, 18784.00
775.9220, 18806.00
777.0670, 18816.00
778.2110, 18659.00
779.3560, 18797.00
780.5000, 18662.00
781.6440, 18815.00
782.7880, 18633.00
783.9320, 18703.00
785.0750, 18604.00
786.2180, 18702.00
787.3620, 18605.00
788.5050, 18745.00
789.6480, 18823.00
790.7900, 18710.00
791.9330, 18816.00
793.0750, 18787.76
794.2170, 18807.00
795.3590, 18828.00
796.5010, 18830.00
797.6430, 18937.00
798.7850, 18821.00
799.9260, 19235.00
801.0670, 19254.00
802.2080, 19212.00
803.3490, 19456.00
804.4900, 19229.00
805.6310, 19487.00
806.7710, 19393.56
807.9110, 19557.21
809.0510, 19673.60
810.1910, 19743.63
811.3310, 19719.81
812.4710, 19747.31
813.6100, 19711.57
814.7490, 19704.00
815.8880, 19610.00
817.0270, 19632.00
818.1660, 19437.00
819.3050, 19341.00
820.4430, 19180.00
821.5820, 19133.26
822.7200, 19127.00
823.8580, 19082.00
824.9950, 18983.00
826.1330, 18977.00
827.2710, 19151.00
828.4080, 18951.00
829.5450, 19149.00
830.6820, 19113.00
831.8190, 19091.00
832.9560, 18925.00
834.0920, 19164.00
835.2280, 19044.00
836.3650, 19083.00
837.5010, 19062.00
838.6360, 19106.00
839.7720, 19163.00
840.9080, 19200.00
842.0430, 19048.00
843.1780, 19207.00
844.3130, 19172.00
845.4480, 19188.00
846.5830, 19347.00
847.7170, 19254.00
848.8520, 19307.00
849.9860, 19285.00
851.1200, 19321.00
852.2540, 19420.00
853.3870, 19276.00
854.5210, 19343.00
855.6540, 19394.00
856.7880, 19358.00
857.9210, 19512.00
859.0540, 19364.00
860.1860, 19346.00
861.3190, 19521.00
862.4510, 19436.00
863.5840, 19326.00
864.7160, 19497.00
865.8480, 19486.00
866.9790, 19611.00
868.1110, 19573.00
869.2420, 19669.00
870.3740, 19687.86
871.5050, 19645.00
872.6360, 19728.00
873.7660, 19658.00
874.8970, 19665.00
876.0280, 19732.00
877.1580, 19924.00
878.2880, 19657.00
879.4180, 19709.00
880.5480, 19911.00
881.6770, 19715.00
882.8070, 19722.00
883.9360, 19771.00
885.0650, 19773.00
886.1940, 19969.00
887.3230, 19910.00
888.4520, 19970.00
889.5800, 20123.00
890.7090, 19964.00
891.8370, 20051.00
892.9650, 20086.00
894.0930, 20108.00
895.2200, 19999.00
896.3480, 19945.00
897.4750, 19882.00
898.6020, 20169.00
899.7290, 20125.00
900.8560, 20204.00
901.9830, 20115.00
903.1090, 20216.00
904.2360, 20097.00
905.3620, 20113.00
906.4880, 20145.00
907.6140, 20200.00
908.7400, 20137.00
909.8650, 20319.00
910.9900, 20165.00
912.1160, 20373.00
913.2410, 20282.00
914.3660, 20235.00
915.4900, 20396.00
916.6150, 20296.00
917.7390, 20431.00
918.8640, 20452.00
919.9880, 20537.00
921.1120, 20522.45
922.2350, 20527.30
923.3590, 20444.00
924.4820, 20545.00
925.6060, 20492.00
926.7290, 20625.00
927.8520, 20657.00
928.9740, 20482.00
930.0970, 20598.00
931.2190, 20752.00
932.3420, 20484.00
933.4640, 20848.00
934.5860, 20780.00
935.7080, 20726.00
936.8290, 20734.00
937.9510, 20908.00
939.0720, 20762.00
940.1930, 20970.00
941.3140, 20792.00
942.4350, 20905.00
943.5560, 20717.00
944.6760, 20989.00
945.7960, 20736.00
946.9170, 21007.00
948.0370, 21089.00
949.1560, 21138.00
950.2760, 20984.00
951.3960, 20922.00
952.5150, 20901.00
953.6340, 21050.00
954.7530, 21183.00
955.8720, 21074.00
956.9910, 21152.00
958.1090, 20967.00
959.2280, 20894.00
960.3460, 21261.00
961.4640, 21258.00
962.5820, 21145.00
963.6990, 21231.00
964.8170, 21113.00
965.9340, 21199.00
967.0510, 21382.00
968.1690, 21462.00
969.2850, 21493.00
970.4020, 21347.00
971.5190, 21552.00
972.6350, 21445.00
973.7510, 21434.00
974.8670, 21412.00
975.9830, 21695.00
977.0990, 21606.00
978.2150, 21525.00
979.3300, 21692.00
980.4450, 21609.00
981.5600, 21577.00
982.6750, 21754.00
983.7900, 21977.00
984.9050, 21978.00
986.0190, 21981.00
987.1340, 21917.00
988.2480, 21908.00
989.3620, 21883.93
990.4750, 21892.00
991.5890, 21889.00
992.7020, 22031.00
993.8160, 22148.00
994.9290, 22147.00
996.0420, 22119.00
997.1550, 22008.00
998.2670, 22141.00
999.3800, 22200.00
1000.492, 22318.00
1001.604, 22376.00
1002.716, 22420.33
1003.828, 22296.00
1004.940, 22409.00
1006.051, 22394.00
1007.163, 22221.00
1008.274, 22473.00
1009.385, 22358.00
1010.496, 22350.00
1011.606, 22289.00
1012.717, 22367.00
1013.827, 22465.00
1014.937, 22389.00
1016.047, 22522.00
1017.157, 22398.00
1018.267, 22460.00
1019.377, 22496.00
1020.486, 22571.00
1021.595, 22475.00
1022.704, 22640.00
1023.813, 22468.00
1024.922, 22483.00
1026.030, 22781.00
1027.139, 22605.00
1028.247, 22783.00
1029.355, 22751.00
1030.463, 22729.00
1031.571, 22906.00
1032.678, 22684.00
1033.786, 22703.00
1034.893, 22723.00
1036.000, 22730.00
1037.107, 22689.00
1038.214, 22764.00
1039.321, 22747.00
1040.427, 22785.79
1041.533, 22839.00
1042.639, 22830.00
1043.745, 22923.00
1044.851, 22878.00
1045.957, 22931.58
1047.062, 22867.00
1048.168, 22973.00
1049.273, 23000.00
1050.378, 22974.00
1051.482, 22939.00
1052.587, 22968.00
1053.692, 23011.00
1054.796, 23024.00
1055.900, 22975.00
1057.004, 23270.00
1058.108, 22960.00
1059.212, 23172.00
1060.315, 22977.00
1061.418, 23132.00
1062.522, 23118.00
1063.625, 23225.00
1064.728, 23237.00
1065.830, 23226.94
1066.933, 23197.00
1068.035, 23173.00
1069.137, 23203.00
1070.239, 23149.00
1071.341, 23222.63
1072.443, 23534.00
1073.545, 23392.00
1074.646, 23430.00
1075.747, 23592.00
1076.848, 23524.00
1077.949, 23421.00
1079.050, 23511.00
1080.150, 23687.00
1081.251, 23798.00
1082.351, 23840.00
1083.451, 23827.00
1084.551, 23845.00
1085.651, 23909.00
1086.750, 23922.81
1087.850, 24032.00
1088.949, 24006.00
1090.048, 24288.00
1091.147, 24354.00
1092.246, 24193.00
1093.345, 24479.00
1094.443, 24426.00
1095.541, 24488.00
1096.639, 24555.00
1097.737, 24488.00
1098.835, 24678.00
1099.933, 24716.00
1101.030, 24626.00
1102.128, 24746.00
1103.225, 24845.00
1104.322, 24702.00
1105.419, 25051.00
1106.515, 25098.00
1107.612, 25206.00
1108.708, 25257.00
1109.804, 25443.00
1110.900, 25566.00
1111.996, 25549.00
1113.092, 25852.00
1114.187, 25958.01
1115.283, 26095.67
1116.378, 26389.00
1117.473, 26424.00
1118.568, 26721.00
1119.662, 26956.00
1120.757, 27011.00
1121.851, 27160.00
1122.946, 27145.00
1124.040, 27283.00
1125.134, 27267.00
1126.227, 27196.00
1127.321, 27034.00
1128.414, 27166.00
1129.508, 26934.00
1130.601, 27092.00
1131.693, 27081.00
1132.786, 26873.00
1133.879, 26892.00
1134.971, 26732.48
1136.064, 26716.93
1137.156, 26684.67
1138.248, 26636.54
1139.339, 26525.10
1140.431, 26495.43
1141.522, 26433.03
1142.614, 26369.22
1143.705, 26351.12
1144.796, 26248.89
1145.887, 26230.07
1146.977, 26178.00
1148.068, 26168.00
1149.158, 26099.00
1150.248, 25862.00
1151.338, 26078.00
1152.428, 26117.00
1153.518, 25760.00
1154.607, 25838.00
1155.696, 25572.00
1156.785, 25842.00
1157.874, 25653.00
1158.963, 25600.00
1160.052, 25414.00
1161.141, 25454.00
1162.229, 25417.00
1163.317, 25364.00
1164.405, 25673.00
1165.493, 25459.56
1166.581, 25550.00
1167.668, 25198.00
1168.756, 25611.00
1169.843, 25414.00
1170.930, 25234.00
1172.017, 25416.00
1173.103, 25464.00
1174.190, 25367.00
1175.276, 25480.00
1176.363, 25501.00
1177.449, 25410.00
1178.535, 25583.00
1179.620, 25468.00
1180.706, 25214.00
1181.791, 25397.00
1182.877, 25489.00
1183.962, 25458.00
1185.047, 25702.00
1186.131, 25597.00
1187.216, 25534.00
1188.300, 25610.00
1189.385, 25509.00
1190.469, 25369.00
1191.553, 25619.00
1192.637, 25787.00
1193.720, 25601.00
1194.804, 25563.00
1195.887, 25575.00
1196.970, 25529.00
1198.053, 25665.00
1199.136, 25614.00
1200.219, 25500.00
1201.301, 25707.00
1202.383, 25897.00
1203.465, 25528.00
1204.547, 25516.00
1205.629, 25889.00
1206.711, 25722.00
1207.792, 25877.00
1208.874, 25788.00
1209.955, 25869.00
1211.036, 25846.00
1212.117, 25962.00
1213.198, 26034.00
1214.278, 25994.00
1215.359, 25971.00
1216.439, 25882.00
1217.519, 26053.00
1218.599, 26061.00
1219.678, 25939.00
1220.758, 26119.00
1221.837, 26107.70
1222.917, 26216.78
1223.996, 26287.74
1225.075, 26322.65
1226.153, 26213.52
1227.232, 26290.38
1228.310, 26292.70
1229.389, 26291.97
1230.467, 26394.99
1231.545, 26306.81
1232.622, 26408.16
1233.700, 26433.86
1234.777, 26494.18
1235.855, 26479.52
1236.932, 26488.01
1238.009, 26571.51
1239.086, 26613.48
1240.162, 26590.15
1241.239, 26652.67
1242.315, 26561.82
1243.391, 26568.00
1244.467, 26612.00
1245.543, 26623.00
1246.619, 26440.00
1247.694, 26443.00
1248.769, 26598.00
1249.844, 26575.00
1250.919, 26759.00
1251.994, 26572.00
1253.069, 26583.00
1254.144, 26841.00
1255.218, 26660.00
1256.292, 26813.00
1257.366, 26904.00
1258.440, 26861.00
1259.514, 26580.00
1260.587, 26975.00
1261.661, 26661.00
1262.734, 26926.00
1263.807, 26824.00
1264.880, 26872.00
1265.952, 27020.00
1267.025, 26974.00
1268.097, 27147.00
1269.170, 26890.00
1270.242, 26745.00
1271.314, 27286.00
1272.385, 26877.00
1273.457, 27256.00
1274.528, 26852.00
1275.600, 27136.00
1276.671, 27134.00
1277.742, 27183.00
1278.812, 27323.00
1279.883, 27247.00
1280.954, 27216.00
1282.024, 27204.00
1283.094, 27409.00
1284.164, 27342.00
1285.234, 27405.00
1286.303, 27295.00
1287.373, 27419.00
1288.442, 27293.00
1289.511, 27227.00
1290.580, 27524.00
1291.649, 27641.00
1292.718, 27392.00
1293.786, 27736.00
1294.855, 27670.00
1295.923, 27670.00
1296.991, 27611.00
1298.059, 27600.00
1299.126, 27733.00
1300.194, 27929.00
1301.261, 27664.00
1302.328, 27801.00
1303.395, 27785.00
1304.462, 27708.00
1305.529, 27845.00
1306.596, 28004.00
1307.662, 28011.00
1308.728, 27907.00
1309.794, 28037.00
1310.860, 28234.00
1311.926, 28060.00
1312.991, 27923.00
1314.057, 28161.00
1315.122, 27995.00
1316.187, 28024.00
1317.252, 28263.00
1318.317, 27883.00
1319.381, 27919.00
1320.446, 28294.00
1321.510, 28176.00
1322.574, 28456.00
1323.638, 28222.00
1324.702, 28406.00
1325.766, 28135.00
1326.829, 28352.00
1327.892, 28373.00
1328.956, 28292.00
1330.019, 28411.00
1331.081, 28433.00
1332.144, 28409.00
1333.206, 28459.00
1334.269, 28449.00
1335.331, 28381.00
1336.393, 28561.00
1337.455, 28510.00
1338.516, 28689.00
1339.578, 28726.00
1340.639, 28533.00
1341.701, 28601.00
1342.762, 28530.00
1343.822, 28599.00
1344.883, 28781.00
1345.944, 28826.00
1347.004, 28861.83
1348.064, 28707.00
1349.124, 28814.00
1350.184, 28792.00
1351.244, 28645.00
1352.304, 28748.00
1353.363, 28776.00
1354.422, 28933.00
1355.481, 28809.00
1356.540, 28892.00
1357.599, 28992.00
1358.657, 28870.00
1359.716, 28865.00
1360.774, 29147.00
1361.832, 29082.00
1362.890, 29015.00
1363.948, 29077.00
1365.006, 29090.00
1366.063, 29274.00
1367.120, 29074.00
1368.178, 29050.00
1369.234, 29209.00
1370.291, 29304.00
1371.348, 29300.00
1372.404, 29147.00
1373.461, 29223.00
1374.517, 29217.00
1375.573, 29274.00
1376.629, 29217.00
1377.684, 29313.00
1378.740, 29333.44
1379.795, 29537.00
1380.850, 29450.00
1381.905, 29468.00
1382.960, 29564.00
1384.015, 29292.00
1385.070, 29520.00
1386.124, 29630.00
1387.178, 29402.00
1388.232, 29766.00
1389.286, 29647.00
1390.340, 29653.00
1391.393, 29591.00
1392.447, 29799.00
1393.500, 29850.00
1394.553, 29853.00
1395.606, 29914.44
1396.659, 29633.00
1397.711, 29884.00
1398.764, 29735.00
1399.816, 29674.00
1400.868, 29941.00
1401.920, 30005.00
1402.972, 29830.00
1404.023, 29892.00
1405.075, 29929.00
1406.126, 29826.00
1407.177, 29861.00
1408.228, 30082.00
1409.279, 29873.00
1410.330, 29999.00
1411.380, 30051.00
1412.431, 29878.00
1413.481, 30259.00
1414.531, 30344.00
1415.580, 30278.00
1416.630, 30067.00
1417.680, 29956.00
1418.729, 30115.00
1419.778, 30410.00
1420.827, 30207.00
1421.876, 30664.00
1422.925, 30437.00
1423.973, 30251.00
1425.022, 30437.00
1426.070, 30341.00
1427.118, 30559.00
1428.166, 30330.00
1429.214, 30492.00
1430.261, 30469.00
1431.309, 30460.47
1432.356, 30614.00
1433.403, 30521.00
1434.450, 30484.00
1435.497, 30502.00
1436.543, 30552.03
1437.590, 30616.14
1438.636, 30776.00
1439.682, 30793.00
1440.728, 30949.00
1441.774, 30992.00
1442.819, 30950.00
1443.865, 30788.00
1444.910, 30867.00
1445.955, 30927.00
1447.000, 31189.00
1448.045, 31187.00
1449.090, 31135.00
1450.134, 30959.00
1451.178, 31083.00
1452.223, 30938.00
1453.267, 31145.00
1454.310, 31159.00
1455.354, 30948.00
1456.398, 31276.00
1457.441, 31224.00
1458.484, 31143.00
1459.527, 31318.00
1460.570, 31243.00
1461.613, 31481.00
1462.655, 31137.00
1463.698, 31380.00
1464.740, 31231.00
1465.782, 31237.00
1466.824, 31432.00
1467.866, 31577.00
1468.907, 31324.00
1469.948, 31755.00
1470.990, 31459.00
1472.031, 31556.00
1473.072, 31685.00
1474.112, 31777.00
1475.153, 31771.80
1476.194, 31801.35
1477.234, 31686.00
1478.274, 31788.00
1479.314, 31680.00
1480.354, 31752.00
1481.393, 31571.00
1482.433, 31747.00
1483.472, 31745.00
1484.511, 31838.00
1485.550, 31780.00
1486.589, 31750.00
1487.628, 31773.57
1488.666, 31798.00
1489.704, 31708.00
1490.743, 31965.00
1491.781, 31840.00
1492.819, 31877.00
1493.856, 32062.00
1494.894, 32073.00
1495.931, 32156.00
1496.968, 32327.00
1498.005, 32338.00
1499.042, 32252.00
1500.079, 32323.00
1501.115, 32296.00
1502.152, 32113.00
1503.188, 32116.00
1504.224, 32190.00
1505.260, 32366.00
1506.296, 32543.00
1507.331, 32444.00
1508.367, 32468.00
1509.402, 32550.00
1510.437, 32402.00
1511.472, 32393.00
1512.507, 32396.00
1513.541, 32600.00
1514.576, 32457.00
1515.610, 32433.00
1516.644, 32351.00
1517.678, 32576.00
1518.712, 32411.00
1519.746, 32872.00
1520.779, 32507.00
1521.813, 32690.00
1522.846, 32555.00
1523.879, 32557.00
1524.912, 32460.00
1525.944, 32756.00
1526.977, 32662.00
1528.009, 32814.00
1529.041, 32925.00
1530.073, 32903.00
1531.105, 32904.00
1532.137, 32799.00
1533.168, 32872.00
1534.200, 32974.00
1535.231, 33177.00
1536.262, 33219.00
1537.293, 33085.00
1538.324, 33083.00
1539.354, 32948.00
1540.385, 32907.00
1541.415, 33213.00
1542.445, 33243.00
1543.475, 33037.00
1544.505, 32921.00
1545.534, 33263.00
1546.564, 33144.00
1547.593, 33299.00
1548.622, 33364.00
1549.651, 33122.00
1550.680, 33029.00
1551.708, 33248.00
1552.737, 33401.00
1553.765, 33326.00
1554.793, 33393.00
1555.821, 33309.00
1556.849, 33528.00
1557.877, 33326.00
1558.904, 33398.00
1559.932, 33564.00
1560.959, 33192.00
1561.986, 33360.00
1563.013, 33600.00
##END=



