##NAMES=Microcline
##RRUFFID=R050193
##IDEAL CHEMISTRY=KAlSi_3_O_8_
##LOCALITY=Devil's Head, Douglas County, Colorado, USA
##OWNER=RRUFF
##SOURCE=Dave Bunk Minerals
##DESCRIPTION=White to colorless heterogeneous mixture of K and Na feldspar in a cluster of crystals. Crystal structure determined, presented below. This sample is known as an intermediate microcline in the literature.
##STATUS=The identification of this mineral has been confirmed by X-ray diffraction and chemical analysis
##URL=rruff.info/R050193
##MEASURED CHEMISTRY=(K_0.929_Na_0.071_)(Al_1.005_Si_2.994_Fe_0.001_)O_7.993_F_0.007_  ; Light Band :  (Na_0.973_K_0.007_Ca_0.020_)(Al_1.020_Si_2.980_)O_8_ ; Dark Band
##PIN_ID=L01042
##ORIENTATION=Laser parallel to a* (1 0 0). Fiducial mark perpendicular to laser is parallel to -b [0 -1 0]
142.5560, 16085.00
143.7880, 16379.00
145.0190, 16316.00
146.2510, 16549.00
147.4820, 16788.00
148.7130, 17008.00
149.9440, 17280.00
151.1750, 17302.00
152.4050, 17470.00
153.6360, 17560.18
154.8660, 17481.00
156.0960, 17658.00
157.3260, 17601.00
158.5560, 17551.00
159.7850, 17532.00
161.0150, 17528.00
162.2440, 17437.00
163.4730, 17551.00
164.7020, 17681.00
165.9310, 17537.00
167.1590, 17697.00
168.3880, 17524.00
169.6160, 17686.00
170.8440, 17569.00
172.0720, 17616.00
173.3000, 17671.00
174.5280, 17792.00
175.7550, 17820.00
176.9820, 18095.00
178.2100, 17867.00
179.4370, 18091.00
180.6630, 17969.00
181.8900, 18094.00
183.1170, 17993.00
184.3430, 17994.00
185.5690, 18009.00
186.7950, 17928.00
188.0210, 18017.00
189.2470, 18012.00
190.4720, 18115.00
191.6970, 18071.00
192.9230, 18277.00
194.1480, 18171.00
195.3730, 18411.00
196.5970, 18402.00
197.8220, 18604.00
199.0460, 18478.00
200.2700, 18487.00
201.4940, 18348.00
202.7180, 18411.00
203.9420, 18410.00
205.1660, 18568.00
206.3890, 18388.00
207.6120, 18295.00
208.8350, 18556.00
210.0580, 18429.00
211.2810, 18504.00
212.5040, 18579.00
213.7260, 18621.00
214.9480, 18672.00
216.1700, 18502.00
217.3920, 18722.00
218.6140, 18492.00
219.8360, 18614.00
221.0570, 18788.00
222.2790, 18624.00
223.5000, 18756.00
224.7210, 18757.00
225.9410, 18800.00
227.1620, 18907.00
228.3820, 18631.00
229.6030, 19046.00
230.8230, 18942.00
232.0430, 18833.00
233.2630, 19015.00
234.4820, 18899.00
235.7020, 19104.00
236.9210, 19071.00
238.1400, 19088.00
239.3590, 19170.00
240.5780, 19256.00
241.7970, 19277.00
243.0150, 19390.00
244.2340, 19369.01
245.4520, 19403.00
246.6700, 19381.00
247.8880, 19494.00
249.1060, 19596.00
250.3230, 19659.62
251.5400, 19765.25
252.7580, 19858.00
253.9750, 19945.00
255.1920, 20047.00
256.4080, 20145.11
257.6250, 20391.00
258.8410, 20279.00
260.0580, 20447.00
261.2740, 20503.00
262.4900, 20344.00
263.7050, 20637.00
264.9210, 20580.00
266.1360, 20589.00
267.3520, 20471.00
268.5670, 20519.93
269.7820, 20610.00
270.9960, 20589.00
272.2110, 20662.00
273.4250, 20724.00
274.6400, 20806.00
275.8540, 20918.93
277.0680, 21001.48
278.2810, 21157.00
279.4950, 21167.00
280.7090, 21259.00
281.9220, 21264.00
283.1350, 21451.00
284.3480, 21344.00
285.5610, 21401.00
286.7730, 21187.00
287.9860, 21352.00
289.1980, 21123.00
290.4100, 21193.00
291.6220, 21055.00
292.8340, 21124.00
294.0460, 20980.00
295.2570, 20948.00
296.4690, 20896.00
297.6800, 20773.00
298.8910, 20772.22
300.1020, 20684.00
301.3120, 20732.00
302.5230, 20708.00
303.7330, 20718.62
304.9440, 20757.99
306.1540, 20851.00
307.3630, 20848.00
308.5730, 20876.00
309.7830, 20958.00
310.9920, 20933.00
312.2010, 21064.00
313.4100, 21130.00
314.6190, 21090.00
315.8280, 21188.07
317.0370, 21027.00
318.2450, 21278.00
319.4530, 21321.00
320.6610, 21382.00
321.8690, 21241.00
323.0770, 21370.00
324.2850, 21445.00
325.4920, 21254.00
326.6990, 21434.00
327.9060, 21290.00
329.1130, 21375.00
330.3200, 21492.00
331.5270, 21477.00
332.7330, 21479.00
333.9390, 21614.00
335.1450, 21618.00
336.3510, 21615.00
337.5570, 21452.00
338.7630, 21473.00
339.9680, 21658.00
341.1740, 21490.00
342.3790, 21575.00
343.5840, 21608.00
344.7890, 21598.61
345.9930, 21668.00
347.1980, 21712.00
348.4020, 21696.00
349.6060, 21803.00
350.8100, 21822.49
352.0140, 21956.00
353.2180, 21908.00
354.4210, 21936.00
355.6250, 21948.00
356.8280, 21899.00
358.0310, 22059.00
359.2340, 22036.00
360.4360, 22103.00
361.6390, 22072.00
362.8410, 22127.85
364.0430, 22078.00
365.2450, 22244.00
366.4470, 22287.00
367.6490, 22387.00
368.8510, 22514.00
370.0520, 22384.00
371.2530, 22588.00
372.4540, 22329.00
373.6550, 22556.00
374.8560, 22483.00
376.0560, 22538.00
377.2570, 22340.00
378.4570, 22386.00
379.6570, 22357.00
380.8570, 22504.00
382.0570, 22517.00
383.2560, 22619.00
384.4560, 22638.00
385.6550, 22540.00
386.8540, 22735.00
388.0530, 22534.00
389.2520, 22596.00
390.4510, 22669.00
391.6490, 22687.00
392.8470, 22723.00
394.0450, 22899.00
395.2430, 22765.00
396.4410, 23038.00
397.6390, 22884.00
398.8360, 23134.00
400.0340, 23284.00
401.2310, 23169.00
402.4280, 23190.00
403.6250, 23329.00
404.8210, 23241.00
406.0180, 23445.00
407.2140, 23327.00
408.4100, 23199.00
409.6060, 23349.00
410.8020, 23415.00
411.9980, 23298.00
413.1930, 23456.00
414.3890, 23372.00
415.5840, 23419.00
416.7790, 23395.00
417.9740, 23470.00
419.1680, 23193.00
420.3630, 23365.00
421.5570, 23334.00
422.7510, 23286.00
423.9450, 23487.00
425.1390, 23592.00
426.3330, 23398.00
427.5270, 23559.00
428.7200, 23554.00
429.9130, 23653.00
431.1060, 23443.00
432.2990, 23775.00
433.4920, 23501.00
434.6840, 23679.00
435.8770, 23869.00
437.0690, 23649.00
438.2610, 23792.00
439.4530, 23909.00
440.6450, 23986.00
441.8360, 23975.00
443.0280, 24125.00
444.2190, 24475.00
445.4100, 24404.00
446.6010, 24587.00
447.7920, 24614.00
448.9820, 24665.00
450.1730, 24975.00
451.3630, 25259.00
452.5530, 25159.00
453.7430, 25254.00
454.9330, 25381.00
456.1230, 25300.00
457.3120, 25117.00
458.5010, 24944.00
459.6910, 25006.00
460.8800, 25108.00
462.0680, 25027.00
463.2570, 25142.00
464.4460, 25125.00
465.6340, 25242.00
466.8220, 25397.25
468.0100, 25652.00
469.1980, 25769.00
470.3860, 26216.00
471.5730, 26438.00
472.7600, 26757.00
473.9480, 27268.00
475.1350, 27120.00
476.3210, 27341.00
477.5080, 27080.00
478.6950, 26882.00
479.8810, 26619.00
481.0670, 26307.00
482.2530, 26130.00
483.4390, 26014.00
484.6250, 25962.00
485.8100, 25754.00
486.9960, 25596.00
488.1810, 25579.00
489.3660, 25680.00
490.5510, 25703.00
491.7360, 25578.00
492.9200, 25527.00
494.1050, 25576.00
495.2890, 25595.72
496.4730, 25794.00
497.6570, 25885.00
498.8400, 25998.00
500.0240, 26377.00
501.2070, 26593.00
502.3910, 26813.00
503.5740, 27272.00
504.7570, 27572.17
505.9400, 27974.00
507.1220, 28534.00
508.3050, 28922.00
509.4870, 29748.00
510.6690, 30004.00
511.8510, 30411.00
513.0330, 30466.00
514.2140, 30285.00
515.3960, 29896.00
516.5770, 29002.00
517.7580, 28531.00
518.9390, 27846.00
520.1200, 27464.00
521.3010, 27208.00
522.4810, 26882.00
523.6610, 26920.00
524.8420, 26481.00
526.0220, 26587.00
527.2010, 26251.00
528.3810, 26469.00
529.5610, 26261.00
530.7400, 26261.00
531.9190, 26050.00
533.0980, 26192.00
534.2770, 26134.00
535.4560, 26275.00
536.6340, 26072.00
537.8120, 25897.00
538.9910, 26366.00
540.1690, 26344.00
541.3460, 26162.00
542.5240, 26267.00
543.7020, 26335.00
544.8790, 26228.00
546.0560, 26325.63
547.2330, 26360.00
548.4100, 26347.00
549.5870, 26272.00
550.7630, 26216.00
551.9400, 26312.00
553.1160, 26141.00
554.2920, 26469.00
555.4680, 26550.00
556.6440, 26506.00
557.8190, 26502.00
558.9950, 26653.00
560.1700, 26900.00
561.3450, 26501.00
562.5200, 26680.00
563.6950, 26574.00
564.8690, 26848.00
566.0440, 26505.00
567.2180, 26748.00
568.3920, 26461.00
569.5660, 26708.00
570.7400, 26885.00
571.9130, 26807.00
573.0870, 26800.00
574.2600, 26845.00
575.4330, 27045.00
576.6060, 26876.00
577.7790, 27056.00
578.9520, 26850.00
580.1240, 26984.00
581.2960, 27228.00
582.4690, 27118.00
583.6410, 26837.00
584.8120, 26876.00
585.9840, 27213.00
587.1560, 26993.00
588.3270, 27185.00
589.4980, 27030.00
590.6690, 27171.00
591.8400, 27008.00
593.0110, 27202.00
594.1810, 27132.00
595.3510, 27161.62
596.5220, 27483.00
597.6920, 27269.00
598.8610, 27316.00
600.0310, 27472.00
601.2010, 27280.00
602.3700, 27347.00
603.5390, 27473.00
604.7080, 27557.00
605.8770, 27470.00
607.0460, 27814.00
608.2140, 27713.00
609.3830, 27599.00
610.5510, 27607.00
611.7190, 27477.00
612.8870, 27554.00
614.0550, 27455.00
615.2220, 27660.00
616.3900, 27904.00
617.5570, 27675.00
618.7240, 27848.00
619.8910, 27811.00
621.0580, 28022.00
622.2240, 27784.00
623.3910, 27838.00
624.5570, 27999.00
625.7230, 28081.00
626.8890, 27887.00
628.0550, 27965.00
629.2200, 28024.00
630.3860, 28111.00
631.5510, 28117.00
632.7160, 28241.00
633.8810, 28244.00
635.0460, 28098.00
636.2100, 28274.00
637.3750, 27958.00
638.5390, 28267.00
639.7030, 28490.00
640.8670, 28276.00
642.0310, 28434.00
643.1950, 28420.00
644.3580, 28439.00
645.5210, 28485.00
646.6850, 28507.00
647.8480, 28597.00
649.0100, 28509.00
650.1730, 28371.00
651.3350, 28365.00
652.4980, 28367.04
653.6600, 28773.00
654.8220, 28492.00
655.9840, 28715.00
657.1450, 28837.00
658.3070, 28847.00
659.4680, 28874.00
660.6300, 28896.00
661.7910, 28818.00
662.9510, 28802.00
664.1120, 28882.00
665.2730, 28949.00
666.4330, 28965.00
667.5930, 28902.00
668.7530, 28965.00
669.9130, 28906.00
671.0730, 29047.00
672.2320, 28935.00
673.3920, 28994.00
674.5510, 28934.00
675.7100, 29004.00
676.8690, 29039.00
678.0280, 28910.00
679.1860, 28964.00
680.3450, 29311.00
681.5030, 29382.00
682.6610, 29325.00
683.8190, 29257.00
684.9770, 29296.00
686.1340, 29073.00
687.2920, 29208.00
688.4490, 29437.00
689.6060, 29555.00
690.7630, 29447.00
691.9200, 29421.00
693.0760, 29458.00
694.2330, 29506.00
695.3890, 29424.00
696.5450, 29597.00
697.7010, 29601.00
698.8570, 29551.00
700.0130, 29575.00
701.1680, 29512.00
702.3230, 29771.00
703.4780, 29736.00
704.6330, 29656.00
705.7880, 29850.00
706.9430, 29653.00
708.0970, 29752.00
709.2520, 29919.00
710.4060, 29872.00
711.5600, 29976.00
712.7140, 30021.00
713.8670, 30044.61
715.0210, 30104.98
716.1740, 30129.00
717.3270, 30132.00
718.4800, 30172.00
719.6330, 30095.00
720.7860, 30161.00
721.9380, 30114.00
723.0910, 30067.00
724.2430, 30163.00
725.3950, 30172.00
726.5470, 30193.62
727.6980, 30393.00
728.8500, 30253.00
730.0010, 30313.00
731.1530, 30354.00
732.3040, 30555.00
733.4550, 30518.00
734.6050, 30535.00
735.7560, 30542.00
736.9060, 30573.00
738.0560, 30584.00
739.2060, 30727.00
740.3560, 30823.00
741.5060, 30805.00
742.6560, 30871.00
743.8050, 31159.00
744.9540, 31056.00
746.1030, 31141.00
747.2520, 31297.00
748.4010, 31146.00
749.5500, 31283.00
750.6980, 31168.00
751.8460, 31359.00
752.9950, 31305.00
754.1420, 31411.00
755.2900, 31329.00
756.4380, 31313.00
757.5850, 31136.00
758.7330, 31153.00
759.8800, 31255.00
761.0270, 31452.00
762.1730, 31331.00
763.3200, 31366.00
764.4670, 31532.00
765.6130, 31335.00
766.7590, 31280.00
767.9050, 31391.00
769.0510, 31687.00
770.1960, 31341.00
771.3420, 31695.00
772.4870, 31507.00
773.6320, 31542.00
774.7770, 31351.00
775.9220, 31346.82
777.0670, 31508.00
778.2110, 31426.00
779.3560, 31549.00
780.5000, 31849.00
781.6440, 31717.00
782.7880, 31891.00
783.9320, 31709.00
785.0750, 31566.00
786.2180, 31777.00
787.3620, 31645.00
788.5050, 31939.00
789.6480, 32069.00
790.7900, 31883.00
791.9330, 31904.00
793.0750, 31803.00
794.2170, 31888.00
795.3590, 31872.00
796.5010, 31776.00
797.6430, 32226.00
798.7850, 32266.00
799.9260, 32135.00
801.0670, 32373.00
802.2080, 32370.00
803.3490, 32280.00
804.4900, 32227.00
805.6310, 32366.00
806.7710, 32397.00
807.9110, 32293.00
809.0510, 32558.00
810.1910, 32772.00
811.3310, 32422.00
812.4710, 32674.00
813.6100, 32917.00
814.7490, 32727.00
815.8880, 32889.00
817.0270, 32794.00
818.1660, 32642.00
819.3050, 32778.00
820.4430, 32623.00
821.5820, 32556.00
822.7200, 32585.00
823.8580, 32632.00
824.9950, 32697.00
826.1330, 32737.00
827.2710, 32601.00
828.4080, 32696.00
829.5450, 32876.00
830.6820, 32540.00
831.8190, 32960.00
832.9560, 32891.00
834.0920, 32815.00
835.2280, 32908.00
836.3650, 32653.00
837.5010, 32777.78
838.6360, 33044.00
839.7720, 32899.00
840.9080, 33148.00
842.0430, 33243.00
843.1780, 32928.00
844.3130, 32961.00
845.4480, 33265.00
846.5830, 33110.00
847.7170, 33021.00
848.8520, 33215.00
849.9860, 32961.00
851.1200, 33277.00
852.2540, 33209.00
853.3870, 33538.00
854.5210, 33595.00
855.6540, 33262.00
856.7880, 33227.00
857.9210, 33496.00
859.0540, 33453.00
860.1860, 33497.00
861.3190, 33862.00
862.4510, 33425.00
863.5840, 33661.00
864.7160, 33659.00
865.8480, 33895.00
866.9790, 33871.00
868.1110, 33833.00
869.2420, 34027.00
870.3740, 33859.00
871.5050, 33825.00
872.6360, 33923.00
873.7660, 34050.00
874.8970, 34000.00
876.0280, 33944.00
877.1580, 34027.00
878.2880, 34331.00
879.4180, 33895.00
880.5480, 33890.00
881.6770, 34132.00
882.8070, 33908.00
883.9360, 34024.00
885.0650, 34035.00
886.1940, 34188.00
887.3230, 34289.00
888.4520, 34276.00
889.5800, 34157.00
890.7090, 34354.00
891.8370, 34104.00
892.9650, 34571.00
894.0930, 34223.00
895.2200, 34289.00
896.3480, 34469.00
897.4750, 34429.00
898.6020, 34464.00
899.7290, 34481.00
900.8560, 34459.00
901.9830, 34534.00
903.1090, 34514.62
904.2360, 34725.00
905.3620, 34520.00
906.4880, 34528.00
907.6140, 34526.00
908.7400, 34713.00
909.8650, 34611.00
910.9900, 34597.00
912.1160, 34855.00
913.2410, 34655.00
914.3660, 34917.00
915.4900, 35004.00
916.6150, 35003.00
917.7390, 35016.00
918.8640, 35219.00
919.9880, 35018.00
921.1120, 35068.00
922.2350, 35171.00
923.3590, 35083.00
924.4820, 35232.00
925.6060, 35301.00
926.7290, 35274.00
927.8520, 35257.00
928.9740, 35308.00
930.0970, 35313.00
931.2190, 35309.00
932.3420, 35441.00
933.4640, 35442.00
934.5860, 35503.00
935.7080, 35563.00
936.8290, 35520.00
937.9510, 35616.00
939.0720, 35571.00
940.1930, 35654.00
941.3140, 35602.00
942.4350, 35677.00
943.5560, 35724.00
944.6760, 35753.82
945.7960, 35825.43
946.9170, 35844.00
948.0370, 35877.00
949.1560, 35873.00
950.2760, 35927.11
951.3960, 35979.21
952.5150, 35984.00
953.6340, 36007.00
954.7530, 35950.00
955.8720, 35949.07
956.9910, 35969.31
958.1090, 35935.00
959.2280, 36032.00
960.3460, 36123.00
961.4640, 36191.00
962.5820, 36353.00
963.6990, 36387.00
964.8170, 36446.00
965.9340, 36356.00
967.0510, 36250.00
968.1690, 36328.00
969.2850, 36374.96
970.4020, 36576.00
971.5190, 36603.00
972.6350, 36679.00
973.7510, 36724.00
974.8670, 36778.00
975.9830, 36760.00
977.0990, 36770.00
978.2150, 36788.00
979.3300, 36940.00
980.4450, 36761.00
981.5600, 36932.00
982.6750, 36863.00
983.7900, 37133.00
984.9050, 37148.00
986.0190, 37049.00
987.1340, 37160.00
988.2480, 37107.00
989.3620, 37210.00
990.4750, 37150.00
991.5890, 37290.00
992.7020, 37148.00
993.8160, 37213.00
994.9290, 37249.00
996.0420, 37583.00
997.1550, 37372.00
998.2670, 37544.00
999.3800, 37469.00
1000.492, 37569.00
1001.604, 37660.00
1002.716, 37557.00
1003.828, 37593.00
1004.940, 37691.00
1006.051, 37448.00
1007.163, 37731.00
1008.274, 37657.00
1009.385, 37696.00
1010.496, 37630.00
1011.606, 37841.00
1012.717, 37916.00
1013.827, 37767.00
1014.937, 37594.00
1016.047, 37755.00
1017.157, 37911.00
1018.267, 38006.00
1019.377, 38037.00
1020.486, 38096.00
1021.595, 38082.00
1022.704, 38155.00
1023.813, 38128.00
1024.922, 38254.00
1026.030, 38367.00
1027.139, 38558.00
1028.247, 38279.00
1029.355, 38315.00
1030.463, 38350.00
1031.571, 38142.00
1032.678, 38298.00
1033.786, 38392.00
1034.893, 38150.00
1036.000, 38714.00
1037.107, 38437.00
1038.214, 38667.00
1039.321, 38902.00
1040.427, 38619.00
1041.533, 38910.00
1042.639, 38810.00
1043.745, 38648.00
1044.851, 38820.00
1045.957, 38813.00
1047.062, 38909.00
1048.168, 38711.00
1049.273, 38987.00
1050.378, 38710.00
1051.482, 38784.00
1052.587, 39105.00
1053.692, 39377.00
1054.796, 39214.00
1055.900, 39057.00
1057.004, 39255.00
1058.108, 39366.00
1059.212, 39277.00
1060.315, 39419.00
1061.418, 39111.00
1062.522, 39266.00
1063.625, 39130.00
1064.728, 39632.00
1065.830, 39194.00
1066.933, 39370.00
1068.035, 39597.00
1069.137, 39419.00
1070.239, 39364.00
1071.341, 39458.00
1072.443, 39731.00
1073.545, 39684.00
1074.646, 39775.00
1075.747, 39745.00
1076.848, 39818.00
1077.949, 39723.00
1079.050, 39947.00
1080.150, 39741.00
1081.251, 39901.00
1082.351, 39952.00
1083.451, 39965.00
1084.551, 40032.00
1085.651, 39814.00
1086.750, 40054.00
1087.850, 40136.00
1088.949, 40080.00
1090.048, 40412.00
1091.147, 40084.00
1092.246, 40338.00
1093.345, 40486.00
1094.443, 40741.00
1095.541, 40431.00
1096.639, 40736.00
1097.737, 40618.00
1098.835, 40575.00
1099.933, 40646.00
1101.030, 41001.00
1102.128, 40820.00
1103.225, 41149.00
1104.322, 40995.00
1105.419, 40811.00
1106.515, 40957.00
1107.612, 40746.00
1108.708, 41023.00
1109.804, 41048.00
1110.900, 41378.00
1111.996, 41107.00
1113.092, 40955.00
1114.187, 41147.00
1115.283, 41213.00
1116.378, 41560.00
1117.473, 41751.00
1118.568, 41740.00
1119.662, 41629.00
1120.757, 42032.00
1121.851, 41785.00
1122.946, 41972.00
1124.040, 42082.00
1125.134, 41979.00
1126.227, 42100.00
1127.321, 41986.00
1128.414, 41957.00
1129.508, 42014.00
1130.601, 42000.36
1131.693, 42068.00
1132.786, 42118.00
1133.879, 42130.00
1134.971, 42230.00
1136.064, 42007.00
1137.156, 41937.00
1138.248, 42314.00
1139.339, 42066.00
1140.431, 42153.00
1141.522, 42370.00
1142.614, 41906.00
1143.705, 42259.00
1144.796, 42155.00
1145.887, 42290.00
1146.977, 42196.00
1148.068, 42405.00
1149.158, 42362.41
1150.248, 42154.00
1151.338, 42282.00
1152.428, 42344.00
1153.518, 42138.00
1154.607, 42063.00
1155.696, 42159.00
1156.785, 42222.00
1157.874, 42197.00
1158.963, 42212.00
1160.052, 42292.71
1161.141, 42346.00
1162.229, 42433.00
1163.317, 42563.00
1164.405, 42597.00
1165.493, 42699.46
1166.581, 42767.00
1167.668, 42797.00
1168.756, 42842.98
1169.843, 42678.00
1170.930, 42871.00
1172.017, 42876.00
1173.103, 42873.00
1174.190, 42623.00
1175.276, 42882.00
1176.363, 43082.00
1177.449, 42787.00
1178.535, 43301.00
1179.620, 43154.00
1180.706, 42839.00
1181.791, 43160.00
1182.877, 43099.00
1183.962, 43189.00
1185.047, 43072.00
1186.131, 43331.00
1187.216, 42959.00
1188.300, 43441.00
1189.385, 43457.00
1190.469, 43317.00
1191.553, 43128.00
1192.637, 43334.00
1193.720, 43404.00
1194.804, 43499.00
1195.887, 43540.00
1196.970, 43528.00
1198.053, 43819.00
1199.136, 43825.00
1200.219, 43519.00
1201.301, 43777.00
1202.383, 43768.00
1203.465, 43690.00
1204.547, 43705.00
1205.629, 43795.00
1206.711, 43670.00
1207.792, 44109.00
1208.874, 44034.00
1209.955, 44006.00
1211.036, 43751.00
1212.117, 44303.00
1213.198, 44027.00
1214.278, 44221.00
1215.359, 44248.00
1216.439, 44386.00
1217.519, 44289.00
1218.599, 44195.00
1219.678, 44351.00
1220.758, 44319.99
1221.837, 44350.36
1222.917, 44456.00
1223.996, 44463.00
1225.075, 44515.00
1226.153, 44692.00
1227.232, 44761.00
1228.310, 44571.00
1229.389, 44675.00
1230.467, 44841.00
1231.545, 44617.00
1232.622, 45121.00
1233.700, 44900.00
1234.777, 45064.00
1235.855, 44907.00
1236.932, 45082.00
1238.009, 45232.00
1239.086, 44833.00
1240.162, 44995.00
1241.239, 44935.00
1242.315, 44960.00
1243.391, 45075.00
1244.467, 45248.00
1245.543, 45259.00
1246.619, 45118.00
1247.694, 45289.00
1248.769, 45151.00
1249.844, 45237.00
1250.919, 45356.00
1251.994, 45224.00
1253.069, 45502.00
1254.144, 45303.00
1255.218, 45636.00
1256.292, 45847.00
1257.366, 45702.00
1258.440, 45505.00
1259.514, 45779.00
1260.587, 45655.00
1261.661, 45572.00
1262.734, 45579.00
1263.807, 45833.00
1264.880, 45902.00
1265.952, 46011.00
1267.025, 45861.00
1268.097, 45738.00
1269.170, 45960.00
1270.242, 45991.00
1271.314, 45822.00
1272.385, 45974.00
1273.457, 46021.00
1274.528, 46352.00
1275.600, 45977.00
1276.671, 46303.00
1277.742, 46338.00
1278.812, 46518.00
1279.883, 46581.00
1280.954, 46454.00
1282.024, 46283.00
1283.094, 46481.00
1284.164, 46487.00
1285.234, 46637.00
1286.303, 46534.00
1287.373, 46991.00
1288.442, 46526.00
1289.511, 47034.00
1290.580, 46881.00
1291.649, 46644.00
1292.718, 47103.00
1293.786, 46986.00
1294.855, 46861.00
1295.923, 47246.00
1296.991, 46920.00
1298.059, 46797.00
1299.126, 47437.00
1300.194, 47148.00
1301.261, 47060.00
1302.328, 47103.00
1303.395, 47301.00
1304.462, 47223.00
1305.529, 47410.00
1306.596, 47388.00
1307.662, 47428.91
1308.728, 47709.00
1309.794, 47515.00
1310.860, 47582.00
1311.926, 47669.00
1312.991, 47953.00
1314.057, 47929.00
1315.122, 47607.00
1316.187, 47934.00
1317.252, 47914.00
1318.317, 48050.00
1319.381, 47700.00
1320.446, 48074.00
1321.510, 47971.00
1322.574, 48012.00
1323.638, 48207.00
1324.702, 47931.00
1325.766, 48051.00
1326.829, 48049.00
1327.892, 48209.00
1328.956, 48290.00
1330.019, 48249.00
1331.081, 48584.00
1332.144, 48473.00
1333.206, 48588.00
1334.269, 48620.00
1335.331, 48481.00
1336.393, 48353.00
1337.455, 48526.00
1338.516, 48830.00
1339.578, 48628.00
1340.639, 48703.00
1341.701, 48832.00
1342.762, 48602.00
1343.822, 48495.00
1344.883, 48729.00
1345.944, 48512.00
1347.004, 49040.00
1348.064, 48741.00
1349.124, 49079.00
1350.184, 49139.00
1351.244, 49045.00
1352.304, 49269.00
1353.363, 49185.00
1354.422, 49285.00
1355.481, 49335.15
1356.540, 49364.00
1357.599, 49360.00
1358.657, 49415.00
1359.716, 49343.00
1360.774, 49383.00
1361.832, 49349.00
1362.890, 49316.00
1363.948, 49368.00
1365.006, 49543.00
1366.063, 49542.00
1367.120, 49509.00
1368.178, 49842.00
1369.234, 49594.00
1370.291, 49956.00
1371.348, 49744.00
1372.404, 49892.00
1373.461, 49634.00
1374.517, 49804.00
1375.573, 49942.00
1376.629, 49982.00
1377.684, 49899.00
1378.740, 49970.00
1379.795, 49934.00
1380.850, 49960.21
1381.905, 50166.00
1382.960, 50044.00
1384.015, 50231.00
1385.070, 50327.00
1386.124, 50067.00
1387.178, 50164.00
1388.232, 50384.00
1389.286, 50242.00
1390.340, 50661.00
1391.393, 50353.00
1392.447, 50615.00
1393.500, 50436.00
1394.553, 50764.00
1395.606, 50632.00
1396.659, 50473.00
1397.711, 50693.00
1398.764, 50917.00
1399.816, 51035.00
1400.868, 50930.00
1401.920, 50814.00
1402.972, 50898.00
1404.023, 50797.00
1405.075, 50774.00
1406.126, 51004.00
1407.177, 51072.00
1408.228, 51038.00
1409.279, 51344.00
1410.330, 50918.00
1411.380, 51126.00
1412.431, 50959.00
1413.481, 51365.00
1414.531, 50910.00
1415.580, 51505.00
1416.630, 51423.00
1417.680, 51258.00
1418.729, 51578.00
1419.778, 51696.00
1420.827, 51555.00
1421.876, 51475.00
1422.925, 51720.00
1423.973, 51976.00
1425.022, 51819.00
1426.070, 51886.00
1427.118, 51585.00
1428.166, 51779.00
1429.214, 52078.00
1430.261, 51756.00
1431.309, 51980.00
1432.356, 52056.00
1433.403, 52090.00
1434.450, 52084.00
1435.497, 52150.00
1436.543, 52311.00
1437.590, 52063.00
1438.636, 52456.00
1439.682, 52245.00
1440.728, 52486.00
1441.774, 52490.00
1442.819, 52404.00
1443.865, 52170.00
1444.910, 52559.00
1445.955, 52454.00
1447.000, 52492.00
1448.045, 52505.00
1449.090, 52606.00
1450.134, 52445.00
1451.178, 52744.00
1452.223, 52444.00
1453.267, 52635.00
1454.310, 52806.00
1455.354, 52782.00
1456.398, 52953.00
1457.441, 52985.00
1458.484, 52853.00
1459.527, 52904.00
1460.570, 53116.00
1461.613, 53141.00
1462.655, 52947.00
1463.698, 53165.00
1464.740, 53245.00
1465.782, 53557.00
1466.824, 53283.00
1467.866, 53222.00
1468.907, 53556.00
1469.948, 53156.00
1470.990, 53586.00
1472.031, 53579.00
1473.072, 53174.00
1474.112, 53286.00
1475.153, 53656.00
1476.194, 53594.00
1477.234, 53852.00
1478.274, 53932.00
1479.314, 53841.00
1480.354, 53790.00
1481.393, 53602.00
1482.433, 53649.00
1483.472, 53792.00
1484.511, 54093.00
1485.550, 54193.00
1486.589, 54064.00
1487.628, 53919.00
1488.666, 53850.00
1489.704, 54241.00
1490.743, 54165.00
1491.781, 54329.00
1492.819, 54226.00
1493.856, 54194.00
1494.894, 54403.00
1495.931, 54528.00
1496.968, 54375.00
1498.005, 54284.00
1499.042, 54617.00
1500.079, 54647.00
1501.115, 54705.00
1502.152, 54494.00
1503.188, 54809.00
1504.224, 54742.00
1505.260, 54920.00
1506.296, 54586.00
1507.331, 55103.00
1508.367, 54800.00
1509.402, 54696.00
1510.437, 54833.00
1511.472, 54813.00
1512.507, 55170.00
1513.541, 55087.00
1514.576, 55209.00
1515.610, 55166.00
1516.644, 55452.00
1517.678, 54880.00
1518.712, 55287.00
1519.746, 54872.00
1520.779, 55523.00
1521.813, 55049.00
1522.846, 54918.00
1523.879, 55508.00
1524.912, 55220.00
1525.944, 55438.00
1526.977, 55420.00
1528.009, 55739.00
1529.041, 55711.00
1530.073, 55516.00
1531.105, 55683.00
1532.137, 55665.00
1533.168, 55684.20
1534.200, 55665.00
1535.231, 55824.00
1536.262, 55777.00
1537.293, 55912.00
1538.324, 55907.00
1539.354, 55937.00
1540.385, 56289.00
1541.415, 56157.00
1542.445, 56238.00
1543.475, 56024.00
1544.505, 56139.00
1545.534, 56049.00
1546.564, 56161.00
1547.593, 55932.00
1548.622, 56367.00
1549.651, 56359.00
1550.680, 56218.00
1551.708, 56257.00
1552.737, 56280.00
1553.765, 56486.00
1554.793, 56296.00
1555.821, 56521.00
1556.849, 56366.00
1557.877, 56762.00
1558.904, 56589.00
1559.932, 56826.00
1560.959, 56703.00
1561.986, 56937.00
1563.013, 57291.00
##END=



