##NAMES=Mimetite
##RRUFFID=R060920
##IDEAL CHEMISTRY=Pb^2+^_5_(As^5+^O_4_)_3_Cl
##LOCALITY=Tsumeb mine, Tsumeb, Otavi District, Oshikoto, Namibia
##OWNER=RRUFF
##SOURCE=Marcus Origlieri
##DESCRIPTION=Yellow to brownish hexagonal prism, monoclinic polytype
##STATUS=The identification of this mineral has been made only by X-ray diffraction.
##URL=rruff.info/R060920
##PIN_ID=L01429
##ORIENTATION=Laser parallel to a* (1 0 0). Fiducial mark perpendicular to laser is parallel to c [0 0 1]
42.24800, 327.0000
43.49300, 324.0000
44.73800, 325.0000
45.98200, 330.0000
47.22600, 332.0000
48.47100, 342.0000
49.71500, 343.0000
50.95900, 340.0000
52.20200, 328.0000
53.44600, 337.0000
54.68900, 342.0000
55.93300, 330.0000
57.17600, 339.0000
58.41900, 333.0000
59.66100, 332.0000
60.90400, 332.0000
62.14600, 341.0000
63.38900, 349.0000
64.63100, 345.9330
65.87300, 344.0000
67.11500, 343.0000
68.35600, 345.0000
69.59800, 346.0000
70.83900, 356.0000
72.08000, 365.0000
73.32100, 368.0000
74.56200, 368.0000
75.80300, 396.0000
77.04300, 401.0000
78.28300, 416.0000
79.52300, 459.0000
80.76300, 518.0000
82.00300, 569.0000
83.24300, 690.0000
84.48300, 801.0000
85.72200, 941.0000
86.96100, 1154.000
88.20000, 1307.000
89.43900, 1496.000
90.67800, 1660.000
91.91600, 1894.000
93.15500, 2226.000
94.39300, 2554.000
95.63100, 3037.000
96.86900, 3558.000
98.10600, 4038.000
99.34400, 4425.000
100.5810, 4642.866
101.8190, 4876.000
103.0560, 4840.000
104.2930, 4803.000
105.5290, 4724.000
106.7660, 4525.000
108.0020, 4442.000
109.2390, 4272.000
110.4750, 4098.000
111.7110, 3947.000
112.9460, 3953.000
114.1820, 3780.000
115.4170, 3726.000
116.6530, 3627.000
117.8880, 3471.000
119.1230, 3438.000
120.3580, 3359.000
121.5920, 3230.000
122.8270, 3144.000
124.0610, 3145.000
125.2950, 3076.000
126.5290, 3010.000
127.7630, 3077.000
128.9970, 3080.000
130.2300, 3057.000
131.4640, 3058.000
132.6970, 2994.000
133.9300, 3070.000
135.1630, 3102.000
136.3950, 3046.000
137.6280, 3125.000
138.8600, 3182.000
140.0920, 3219.000
141.3240, 3208.000
142.5560, 3318.000
143.7880, 3302.000
145.0190, 3364.000
146.2510, 3317.000
147.4820, 3354.000
148.7130, 3403.000
149.9440, 3454.000
151.1750, 3428.000
152.4050, 3494.000
153.6360, 3492.000
154.8660, 3461.000
156.0960, 3480.000
157.3260, 3475.000
158.5560, 3525.000
159.7850, 3621.000
161.0150, 3656.000
162.2440, 3638.000
163.4730, 3691.000
164.7020, 3843.000
165.9310, 3775.000
167.1590, 3856.000
168.3880, 3875.000
169.6160, 3836.000
170.8440, 3821.000
172.0720, 3838.000
173.3000, 3818.000
174.5280, 3691.000
175.7550, 3723.000
176.9820, 3565.000
178.2100, 3562.000
179.4370, 3479.000
180.6630, 3324.000
181.8900, 3347.000
183.1170, 3319.000
184.3430, 3211.000
185.5690, 3127.000
186.7950, 3068.000
188.0210, 3027.000
189.2470, 2920.000
190.4720, 2832.000
191.6970, 2744.000
192.9230, 2721.000
194.1480, 2634.000
195.3730, 2569.000
196.5970, 2575.000
197.8220, 2458.000
199.0460, 2320.000
200.2700, 2359.000
201.4940, 2253.000
202.7180, 2157.000
203.9420, 2132.000
205.1660, 2069.000
206.3890, 2074.000
207.6120, 2019.000
208.8350, 1987.000
210.0580, 1926.000
211.2810, 1909.000
212.5040, 1887.000
213.7260, 1843.000
214.9480, 1812.865
216.1700, 1776.212
217.3920, 1737.000
218.6140, 1695.000
219.8360, 1670.000
221.0570, 1619.000
222.2790, 1612.000
223.5000, 1547.000
224.7210, 1541.000
225.9410, 1547.000
227.1620, 1551.000
228.3820, 1483.000
229.6030, 1455.000
230.8230, 1482.000
232.0430, 1415.000
233.2630, 1411.000
234.4820, 1438.000
235.7020, 1405.000
236.9210, 1387.000
238.1400, 1383.000
239.3590, 1352.000
240.5780, 1337.000
241.7970, 1322.000
243.0150, 1313.000
244.2340, 1296.539
245.4520, 1324.000
246.6700, 1272.000
247.8880, 1258.000
249.1060, 1255.000
250.3230, 1286.000
251.5400, 1274.000
252.7580, 1247.000
253.9750, 1292.000
255.1920, 1245.000
256.4080, 1251.000
257.6250, 1219.000
258.8410, 1255.000
260.0580, 1272.000
261.2740, 1244.000
262.4900, 1230.000
263.7050, 1250.000
264.9210, 1191.000
266.1360, 1207.000
267.3520, 1217.000
268.5670, 1173.000
269.7820, 1237.000
270.9960, 1194.000
272.2110, 1216.000
273.4250, 1173.000
274.6400, 1194.000
275.8540, 1222.000
277.0680, 1222.000
278.2810, 1245.000
279.4950, 1223.000
280.7090, 1234.000
281.9220, 1297.000
283.1350, 1262.000
284.3480, 1337.000
285.5610, 1326.000
286.7730, 1343.000
287.9860, 1401.000
289.1980, 1473.000
290.4100, 1505.000
291.6220, 1583.000
292.8340, 1653.000
294.0460, 1756.000
295.2570, 1944.000
296.4690, 2063.000
297.6800, 2231.000
298.8910, 2380.000
300.1020, 2538.000
301.3120, 2715.000
302.5230, 2821.264
303.7330, 2933.514
304.9440, 3013.000
306.1540, 3094.000
307.3630, 3128.000
308.5730, 3187.000
309.7830, 3238.000
310.9920, 3232.000
312.2010, 3267.000
313.4100, 3241.000
314.6190, 3233.000
315.8280, 3071.000
317.0370, 3018.000
318.2450, 2828.000
319.4530, 2724.000
320.6610, 2650.000
321.8690, 2643.000
323.0770, 2604.000
324.2850, 2634.000
325.4920, 2730.000
326.6990, 2829.000
327.9060, 2937.000
329.1130, 3114.000
330.3200, 3268.000
331.5270, 3381.000
332.7330, 3521.000
333.9390, 3660.000
335.1450, 3676.000
336.3510, 3789.000
337.5570, 3828.000
338.7630, 3770.000
339.9680, 3610.000
341.1740, 3663.000
342.3790, 3444.000
343.5840, 3360.000
344.7890, 3129.000
345.9930, 3029.000
347.1980, 2754.000
348.4020, 2644.000
349.6060, 2558.000
350.8100, 2450.000
352.0140, 2243.000
353.2180, 2093.000
354.4210, 2044.000
355.6250, 1916.000
356.8280, 1863.000
358.0310, 1881.000
359.2340, 1837.000
360.4360, 1876.000
361.6390, 1852.000
362.8410, 1940.000
364.0430, 1922.000
365.2450, 1973.000
366.4470, 1952.000
367.6490, 2116.000
368.8510, 2124.000
370.0520, 2152.000
371.2530, 2235.000
372.4540, 2207.000
373.6550, 2164.000
374.8560, 2006.000
376.0560, 1944.000
377.2570, 1884.000
378.4570, 1809.000
379.6570, 1735.000
380.8570, 1666.000
382.0570, 1648.189
383.2560, 1680.000
384.4560, 1649.000
385.6550, 1657.000
386.8540, 1697.000
388.0530, 1686.000
389.2520, 1699.000
390.4510, 1664.000
391.6490, 1619.000
392.8470, 1665.000
394.0450, 1673.000
395.2430, 1676.000
396.4410, 1707.000
397.6390, 1748.852
398.8360, 1827.000
400.0340, 1890.000
401.2310, 1954.000
402.4280, 2090.000
403.6250, 2195.000
404.8210, 2305.000
406.0180, 2435.000
407.2140, 2480.000
408.4100, 2553.000
409.6060, 2572.000
410.8020, 2564.000
411.9980, 2443.000
413.1930, 2388.000
414.3890, 2291.000
415.5840, 2286.000
416.7790, 2203.000
417.9740, 2261.000
419.1680, 2277.000
420.3630, 2243.000
421.5570, 2302.000
422.7510, 2331.000
423.9450, 2276.000
425.1390, 2231.000
426.3330, 2106.000
427.5270, 2020.000
428.7200, 1912.000
429.9130, 1767.000
431.1060, 1674.000
432.2990, 1596.000
433.4920, 1581.000
434.6840, 1456.000
435.8770, 1389.000
437.0690, 1419.000
438.2610, 1375.000
439.4530, 1355.000
440.6450, 1313.000
441.8360, 1281.000
443.0280, 1239.000
444.2190, 1208.000
445.4100, 1188.000
446.6010, 1182.000
447.7920, 1114.000
448.9820, 1115.000
450.1730, 1081.000
451.3630, 1068.000
452.5530, 1062.000
453.7430, 1041.000
454.9330, 1045.000
456.1230, 1031.000
457.3120, 1023.875
458.5010, 1030.000
459.6910, 1012.000
460.8800, 1005.000
462.0680, 1003.000
463.2570, 1030.000
464.4460, 1018.000
465.6340, 1025.000
466.8220, 994.0000
468.0100, 987.0000
469.1980, 947.0000
470.3860, 973.0000
471.5730, 971.0000
472.7600, 1000.000
473.9480, 988.0000
475.1350, 979.0000
476.3210, 965.0000
477.5080, 960.7531
478.6950, 951.8828
479.8810, 955.0000
481.0670, 938.0000
482.2530, 941.0000
483.4390, 932.0000
484.6250, 949.0000
485.8100, 942.0000
486.9960, 949.5266
488.1810, 924.0000
489.3660, 959.0000
490.5510, 967.0000
491.7360, 966.0000
492.9200, 918.0000
494.1050, 931.0000
495.2890, 919.0000
496.4730, 927.0000
497.6570, 907.0000
498.8400, 954.0000
500.0240, 916.0000
501.2070, 896.0000
502.3910, 975.0000
503.5740, 941.0000
504.7570, 932.0000
505.9400, 927.0000
507.1220, 891.0000
508.3050, 916.0000
509.4870, 903.0000
510.6690, 913.0000
511.8510, 914.0000
513.0330, 894.0000
514.2140, 910.0000
515.3960, 931.0000
516.5770, 928.0000
517.7580, 921.0000
518.9390, 911.0000
520.1200, 912.7509
521.3010, 904.5411
522.4810, 913.0000
523.6610, 903.0000
524.8420, 901.0000
526.0220, 917.0000
527.2010, 911.0000
528.3810, 923.0000
529.5610, 907.0000
530.7400, 933.0000
531.9190, 907.0000
533.0980, 905.0000
534.2770, 939.0000
535.4560, 905.0000
536.6340, 915.0000
537.8120, 887.0000
538.9910, 904.0000
540.1690, 907.0000
541.3460, 920.0000
542.5240, 883.0000
543.7020, 901.0000
544.8790, 926.0000
546.0560, 901.0000
547.2330, 937.0000
548.4100, 919.0000
549.5870, 895.0000
550.7630, 914.0000
551.9400, 876.0000
553.1160, 904.0000
554.2920, 901.0000
555.4680, 917.0000
556.6440, 898.0000
557.8190, 904.0000
558.9950, 904.2799
560.1700, 912.0000
561.3450, 908.0000
562.5200, 914.0000
563.6950, 923.0000
564.8690, 902.0000
566.0440, 927.0000
567.2180, 944.0000
568.3920, 930.0000
569.5660, 938.0000
570.7400, 932.0000
571.9130, 920.0000
573.0870, 926.1359
574.2600, 902.0000
575.4330, 915.0000
576.6060, 925.0000
577.7790, 893.0000
578.9520, 914.0000
580.1240, 914.0000
581.2960, 949.0000
582.4690, 916.0000
583.6410, 927.0000
584.8120, 937.0000
585.9840, 896.0000
587.1560, 934.0000
588.3270, 941.0000
589.4980, 921.0000
590.6690, 938.0000
591.8400, 925.0000
593.0110, 949.0000
594.1810, 938.0000
595.3510, 942.0000
596.5220, 956.0000
597.6920, 929.0000
598.8610, 998.0000
600.0310, 963.0000
601.2010, 966.0000
602.3700, 994.0000
603.5390, 950.0000
604.7080, 963.0000
605.8770, 998.0000
607.0460, 965.0000
608.2140, 1016.000
609.3830, 1009.000
610.5510, 977.0000
611.7190, 989.0000
612.8870, 1010.000
614.0550, 976.0000
615.2220, 1007.000
616.3900, 983.0000
617.5570, 1002.000
618.7240, 983.0000
619.8910, 978.0000
621.0580, 974.0000
622.2240, 981.0000
623.3910, 985.0000
624.5570, 972.0000
625.7230, 974.2168
626.8890, 977.0000
628.0550, 960.0000
629.2200, 953.0000
630.3860, 938.0000
631.5510, 995.0000
632.7160, 980.0000
633.8810, 955.0000
635.0460, 974.0000
636.2100, 945.0000
637.3750, 974.0000
638.5390, 940.0000
639.7030, 965.0000
640.8670, 967.0000
642.0310, 959.0000
643.1950, 954.0000
644.3580, 965.0000
645.5210, 990.0000
646.6850, 956.0000
647.8480, 974.0000
649.0100, 958.0000
650.1730, 981.0000
651.3350, 973.0000
652.4980, 984.0000
653.6600, 993.0000
654.8220, 1002.000
655.9840, 975.0000
657.1450, 954.0000
658.3070, 959.0000
659.4680, 971.0000
660.6300, 958.0000
661.7910, 960.8831
662.9510, 993.0000
664.1120, 960.0000
665.2730, 968.0000
666.4330, 989.0000
667.5930, 990.0000
668.7530, 1003.000
669.9130, 1010.485
671.0730, 1019.000
672.2320, 1016.000
673.3920, 1004.000
674.5510, 991.0000
675.7100, 979.0000
676.8690, 1001.000
678.0280, 1021.000
679.1860, 989.0000
680.3450, 1005.000
681.5030, 1000.000
682.6610, 1045.000
683.8190, 1032.000
684.9770, 1020.000
686.1340, 990.0000
687.2920, 1026.000
688.4490, 1043.000
689.6060, 1033.000
690.7630, 1045.000
691.9200, 1046.000
693.0760, 1051.000
694.2330, 1039.000
695.3890, 1069.000
696.5450, 1051.000
697.7010, 1075.000
698.8570, 1079.000
700.0130, 1067.000
701.1680, 1074.000
702.3230, 1094.000
703.4780, 1083.000
704.6330, 1099.000
705.7880, 1123.000
706.9430, 1136.000
708.0970, 1151.000
709.2520, 1165.766
710.4060, 1182.000
711.5600, 1187.471
712.7140, 1197.503
713.8670, 1203.000
715.0210, 1209.000
716.1740, 1200.000
717.3270, 1195.000
718.4800, 1202.000
719.6330, 1199.000
720.7860, 1227.000
721.9380, 1265.000
723.0910, 1204.000
724.2430, 1250.000
725.3950, 1300.000
726.5470, 1248.000
727.6980, 1300.000
728.8500, 1305.000
730.0010, 1283.000
731.1530, 1325.000
732.3040, 1343.000
733.4550, 1373.000
734.6050, 1386.000
735.7560, 1391.000
736.9060, 1416.527
738.0560, 1460.000
739.2060, 1456.000
740.3560, 1509.000
741.5060, 1537.000
742.6560, 1602.000
743.8050, 1634.000
744.9540, 1659.000
746.1030, 1667.000
747.2520, 1724.000
748.4010, 1789.032
749.5500, 1870.462
750.6980, 1986.000
751.8460, 2101.000
752.9950, 2261.000
754.1420, 2430.000
755.2900, 2618.000
756.4380, 2945.000
757.5850, 3248.000
758.7330, 3600.000
759.8800, 3863.000
761.0270, 4308.000
762.1730, 4781.000
763.3200, 5109.000
764.4670, 5316.000
765.6130, 5523.000
766.7590, 5447.000
767.9050, 5195.000
769.0510, 4900.000
770.1960, 4686.000
771.3420, 4443.858
772.4870, 4242.000
773.6320, 4054.000
774.7770, 3969.000
775.9220, 3892.000
777.0670, 4002.000
778.2110, 4036.000
779.3560, 4276.000
780.5000, 4399.000
781.6440, 4726.000
782.7880, 4973.000
783.9320, 5389.000
785.0750, 5537.000
786.2180, 5823.000
787.3620, 5984.000
788.5050, 6093.000
789.6480, 6205.000
790.7900, 6371.000
791.9330, 6529.000
793.0750, 6839.000
794.2170, 7456.000
795.3590, 8336.000
796.5010, 9720.000
797.6430, 11495.00
798.7850, 13611.00
799.9260, 16152.00
801.0670, 19629.00
802.2080, 23852.00
803.3490, 28426.00
804.4900, 32799.00
805.6310, 35600.00
806.7710, 36424.00
807.9110, 35836.00
809.0510, 34735.00
810.1910, 34011.00
811.3310, 33976.00
812.4710, 33989.00
813.6100, 34198.00
814.7490, 33025.00
815.8880, 30426.00
817.0270, 27001.00
818.1660, 23008.00
819.3050, 19263.00
820.4430, 15656.00
821.5820, 13127.00
822.7200, 10885.00
823.8580, 9296.000
824.9950, 7984.000
826.1330, 7049.000
827.2710, 6341.000
828.4080, 5677.000
829.5450, 5182.000
830.6820, 4849.000
831.8190, 4475.000
832.9560, 4226.000
834.0920, 4002.000
835.2280, 3791.000
836.3650, 3557.000
837.5010, 3495.000
838.6360, 3303.000
839.7720, 3145.000
840.9080, 3088.000
842.0430, 2913.000
843.1780, 2849.000
844.3130, 2778.000
845.4480, 2767.000
846.5830, 2616.000
847.7170, 2583.000
848.8520, 2475.000
849.9860, 2419.000
851.1200, 2340.000
852.2540, 2310.000
853.3870, 2233.000
854.5210, 2177.000
855.6540, 2113.000
856.7880, 2070.855
857.9210, 2061.000
859.0540, 2005.000
860.1860, 1960.000
861.3190, 1941.000
862.4510, 1867.000
863.5840, 1816.000
864.7160, 1824.000
865.8480, 1818.000
866.9790, 1815.000
868.1110, 1793.000
869.2420, 1736.000
870.3740, 1758.000
871.5050, 1702.000
872.6360, 1695.000
873.7660, 1640.000
874.8970, 1639.000
876.0280, 1658.000
877.1580, 1592.000
878.2880, 1640.000
879.4180, 1573.000
880.5480, 1594.000
881.6770, 1618.000
882.8070, 1576.000
883.9360, 1561.000
885.0650, 1559.000
886.1940, 1517.000
887.3230, 1550.000
888.4520, 1496.000
889.5800, 1514.000
890.7090, 1446.000
891.8370, 1506.000
892.9650, 1464.000
894.0930, 1431.000
895.2200, 1420.000
896.3480, 1420.000
897.4750, 1399.000
898.6020, 1401.000
899.7290, 1378.000
900.8560, 1384.000
901.9830, 1361.000
903.1090, 1362.754
904.2360, 1343.337
905.3620, 1357.000
906.4880, 1308.000
907.6140, 1288.000
908.7400, 1278.000
909.8650, 1300.000
910.9900, 1280.000
912.1160, 1295.000
913.2410, 1315.000
914.3660, 1283.000
915.4900, 1325.000
916.6150, 1294.000
917.7390, 1324.000
918.8640, 1286.000
919.9880, 1270.000
921.1120, 1323.000
922.2350, 1315.000
923.3590, 1258.000
924.4820, 1277.000
925.6060, 1246.000
926.7290, 1259.000
927.8520, 1218.000
928.9740, 1205.000
930.0970, 1201.000
931.2190, 1180.443
932.3420, 1179.000
933.4640, 1173.000
934.5860, 1163.548
935.7080, 1158.469
936.8290, 1158.000
937.9510, 1151.000
939.0720, 1161.000
940.1930, 1176.000
941.3140, 1167.000
942.4350, 1231.000
943.5560, 1177.000
944.6760, 1188.000
945.7960, 1192.000
946.9170, 1152.000
948.0370, 1166.000
949.1560, 1138.000
950.2760, 1160.000
951.3960, 1164.000
952.5150, 1172.000
953.6340, 1175.000
954.7530, 1177.352
955.8720, 1162.000
956.9910, 1174.000
958.1090, 1171.000
959.2280, 1157.000
960.3460, 1167.000
961.4640, 1162.000
962.5820, 1137.000
963.6990, 1146.987
964.8170, 1136.000
965.9340, 1152.000
967.0510, 1158.000
968.1690, 1174.000
969.2850, 1163.000
970.4020, 1146.000
971.5190, 1167.000
972.6350, 1167.000
973.7510, 1178.000
974.8670, 1164.000
975.9830, 1128.000
977.0990, 1122.000
978.2150, 1181.000
979.3300, 1141.000
980.4450, 1193.000
981.5600, 1137.000
982.6750, 1142.000
983.7900, 1181.000
984.9050, 1158.000
986.0190, 1138.000
987.1340, 1150.000
988.2480, 1165.000
989.3620, 1138.000
990.4750, 1177.000
991.5890, 1111.000
992.7020, 1140.000
993.8160, 1180.000
994.9290, 1117.000
996.0420, 1148.000
997.1550, 1112.000
998.2670, 1149.000
999.3800, 1106.000
1000.492, 1103.000
1001.604, 1138.000
1002.716, 1180.000
1003.828, 1153.000
1004.940, 1122.000
1006.051, 1142.000
1007.163, 1141.000
1008.274, 1095.000
1009.385, 1158.000
1010.496, 1146.000
1011.606, 1135.000
1012.717, 1133.000
1013.827, 1120.000
1014.937, 1125.478
1016.047, 1121.000
1017.157, 1136.000
1018.267, 1143.000
1019.377, 1148.000
1020.486, 1178.000
1021.595, 1101.000
1022.704, 1099.000
1023.813, 1124.000
1024.922, 1130.000
1026.030, 1117.000
1027.139, 1119.000
1028.247, 1094.000
1029.355, 1092.000
1030.463, 1152.000
1031.571, 1089.000
1032.678, 1158.000
1033.786, 1133.000
1034.893, 1105.000
1036.000, 1099.000
1037.107, 1119.000
1038.214, 1126.000
1039.321, 1114.000
1040.427, 1118.000
1041.533, 1097.000
1042.639, 1082.000
1043.745, 1119.000
1044.851, 1100.000
1045.957, 1115.000
1047.062, 1087.000
1048.168, 1133.000
1049.273, 1094.000
1050.378, 1124.000
1051.482, 1118.000
1052.587, 1120.000
1053.692, 1115.000
1054.796, 1125.000
1055.900, 1112.000
1057.004, 1125.000
1058.108, 1121.959
1059.212, 1127.376
1060.315, 1123.000
1061.418, 1135.000
1062.522, 1138.000
1063.625, 1127.000
1064.728, 1125.000
1065.830, 1156.000
1066.933, 1142.000
1068.035, 1132.000
1069.137, 1084.000
1070.239, 1140.000
1071.341, 1121.000
1072.443, 1163.000
1073.545, 1145.000
1074.646, 1085.000
1075.747, 1106.000
1076.848, 1121.000
1077.949, 1117.000
1079.050, 1115.000
1080.150, 1123.250
1081.251, 1113.000
1082.351, 1128.000
1083.451, 1126.000
1084.551, 1120.000
1085.651, 1129.000
1086.750, 1105.000
1087.850, 1111.000
1088.949, 1124.000
1090.048, 1147.000
1091.147, 1134.000
1092.246, 1115.000
1093.345, 1116.000
1094.443, 1141.000
1095.541, 1131.000
1096.639, 1150.000
1097.737, 1160.000
1098.835, 1123.000
1099.933, 1150.000
1101.030, 1127.000
1102.128, 1180.000
1103.225, 1169.000
1104.322, 1137.000
1105.419, 1118.000
1106.515, 1142.000
1107.612, 1154.000
1108.708, 1119.000
1109.804, 1180.000
1110.900, 1146.000
1111.996, 1178.000
1113.092, 1136.000
1114.187, 1128.000
1115.283, 1159.000
1116.378, 1164.000
1117.473, 1197.000
1118.568, 1174.000
1119.662, 1170.000
1120.757, 1170.000
1121.851, 1174.000
1122.946, 1150.000
1124.040, 1168.000
1125.134, 1171.000
1126.227, 1187.000
1127.321, 1144.000
1128.414, 1193.000
1129.508, 1149.000
1130.601, 1160.000
1131.693, 1143.000
1132.786, 1183.000
1133.879, 1176.000
1134.971, 1181.000
1136.064, 1147.000
1137.156, 1196.000
1138.248, 1150.000
1139.339, 1165.000
1140.431, 1193.000
1141.522, 1157.000
1142.614, 1160.000
1143.705, 1140.000
1144.796, 1198.000
1145.887, 1154.000
1146.977, 1151.000
1148.068, 1194.000
1149.158, 1186.000
1150.248, 1168.000
1151.338, 1164.000
1152.428, 1185.000
1153.518, 1184.000
1154.607, 1178.000
1155.696, 1197.000
1156.785, 1178.000
1157.874, 1200.000
1158.963, 1194.627
1160.052, 1189.000
1161.141, 1193.000
1162.229, 1173.000
1163.317, 1172.000
1164.405, 1218.000
1165.493, 1176.000
1166.581, 1198.000
1167.668, 1170.000
1168.756, 1186.000
1169.843, 1172.000
1170.930, 1204.000
1172.017, 1223.000
1173.103, 1189.000
1174.190, 1184.000
1175.276, 1198.000
1176.363, 1199.000
1177.449, 1212.000
1178.535, 1229.000
1179.620, 1228.000
1180.706, 1242.000
1181.791, 1205.000
1182.877, 1219.000
1183.962, 1227.000
1185.047, 1198.000
1186.131, 1212.000
1187.216, 1221.000
1188.300, 1179.000
1189.385, 1232.000
1190.469, 1219.000
1191.553, 1226.000
1192.637, 1206.000
1193.720, 1222.000
1194.804, 1243.000
1195.887, 1253.000
1196.970, 1253.284
1198.053, 1231.000
1199.136, 1235.000
1200.219, 1242.000
1201.301, 1215.000
1202.383, 1253.000
1203.465, 1244.000
1204.547, 1236.000
1205.629, 1266.000
1206.711, 1226.000
1207.792, 1216.000
1208.874, 1255.000
1209.955, 1221.000
1211.036, 1245.000
1212.117, 1262.000
1213.198, 1232.000
1214.278, 1253.000
1215.359, 1283.000
1216.439, 1263.000
1217.519, 1251.000
1218.599, 1297.000
1219.678, 1244.000
1220.758, 1268.000
1221.837, 1231.000
1222.917, 1240.000
1223.996, 1245.000
1225.075, 1233.000
1226.153, 1258.000
1227.232, 1273.000
1228.310, 1218.000
1229.389, 1230.000
1230.467, 1256.000
1231.545, 1218.000
1232.622, 1215.000
1233.700, 1254.000
1234.777, 1263.000
1235.855, 1239.000
1236.932, 1281.000
1238.009, 1245.000
1239.086, 1238.000
1240.162, 1256.000
1241.239, 1269.000
1242.315, 1238.000
1243.391, 1261.000
1244.467, 1263.000
1245.543, 1261.000
1246.619, 1267.000
1247.694, 1233.000
1248.769, 1276.000
1249.844, 1229.000
1250.919, 1284.000
1251.994, 1259.000
1253.069, 1234.000
1254.144, 1273.000
1255.218, 1310.000
1256.292, 1255.000
1257.366, 1262.000
1258.440, 1249.000
1259.514, 1285.000
1260.587, 1218.000
1261.661, 1282.000
1262.734, 1237.000
1263.807, 1254.000
1264.880, 1261.000
1265.952, 1248.000
1267.025, 1255.000
1268.097, 1258.000
1269.170, 1288.000
1270.242, 1248.000
1271.314, 1245.000
1272.385, 1224.000
1273.457, 1277.000
1274.528, 1239.000
1275.600, 1244.000
1276.671, 1252.276
1277.742, 1241.000
1278.812, 1253.000
1279.883, 1251.000
1280.954, 1254.000
1282.024, 1227.000
1283.094, 1240.000
1284.164, 1229.000
1285.234, 1237.000
1286.303, 1241.000
1287.373, 1232.000
1288.442, 1291.000
1289.511, 1210.000
1290.580, 1291.000
1291.649, 1255.000
1292.718, 1262.000
1293.786, 1276.000
1294.855, 1262.000
1295.923, 1240.000
1296.991, 1247.000
1298.059, 1237.000
1299.126, 1237.428
1300.194, 1267.000
1301.261, 1261.000
1302.328, 1234.000
1303.395, 1281.000
1304.462, 1295.000
1305.529, 1263.000
1306.596, 1270.000
1307.662, 1236.000
1308.728, 1250.000
1309.794, 1227.000
1310.860, 1279.000
1311.926, 1266.000
1312.991, 1242.000
1314.057, 1277.000
1315.122, 1246.000
1316.187, 1243.000
1317.252, 1243.000
1318.317, 1217.000
1319.381, 1282.000
1320.446, 1287.000
1321.510, 1293.000
1322.574, 1287.000
1323.638, 1263.000
1324.702, 1280.000
1325.766, 1299.000
1326.829, 1251.000
1327.892, 1267.000
1328.956, 1294.000
1330.019, 1275.000
1331.081, 1246.000
1332.144, 1261.000
1333.206, 1274.000
1334.269, 1252.000
1335.331, 1244.000
1336.393, 1295.000
1337.455, 1241.000
1338.516, 1245.000
1339.578, 1259.000
1340.639, 1302.000
1341.701, 1280.000
1342.762, 1275.000
1343.822, 1324.000
1344.883, 1263.000
1345.944, 1278.000
1347.004, 1273.000
1348.064, 1284.000
1349.124, 1261.000
1350.184, 1277.000
1351.244, 1279.000
1352.304, 1267.726
1353.363, 1244.000
1354.422, 1263.000
1355.481, 1255.000
1356.540, 1272.000
1357.599, 1281.000
1358.657, 1268.000
1359.716, 1278.000
1360.774, 1271.000
1361.832, 1282.000
1362.890, 1273.000
1363.948, 1290.000
1365.006, 1302.000
1366.063, 1304.000
1367.120, 1307.000
1368.178, 1267.000
1369.234, 1332.000
1370.291, 1251.000
1371.348, 1274.000
1372.404, 1260.000
1373.461, 1316.000
1374.517, 1319.000
1375.573, 1269.000
1376.629, 1266.000
1377.684, 1313.000
1378.740, 1305.000
1379.795, 1329.000
1380.850, 1279.000
1381.905, 1257.000
1382.960, 1280.000
1384.015, 1296.000
1385.070, 1281.000
1386.124, 1304.000
1387.178, 1289.000
1388.232, 1273.000
1389.286, 1308.000
1390.340, 1281.000
1391.393, 1314.000
1392.447, 1337.000
1393.500, 1306.000
1394.553, 1278.000
1395.606, 1269.000
1396.659, 1321.000
1397.711, 1266.000
1398.764, 1303.000
1399.816, 1298.000
1400.868, 1315.000
1401.920, 1315.000
1402.972, 1321.000
1404.023, 1337.000
1405.075, 1305.000
1406.126, 1290.000
1407.177, 1321.000
1408.228, 1300.000
1409.279, 1325.000
1410.330, 1284.000
1411.380, 1300.000
1412.431, 1299.000
1413.481, 1322.000
1414.531, 1340.000
1415.580, 1354.000
1416.630, 1314.000
1417.680, 1332.000
1418.729, 1282.000
1419.778, 1275.000
1420.827, 1349.000
1421.876, 1339.000
1422.925, 1349.000
1423.973, 1283.000
1425.022, 1302.000
1426.070, 1323.000
1427.118, 1332.000
1428.166, 1313.000
1429.214, 1293.000
1430.261, 1321.000
1431.309, 1297.000
1432.356, 1348.000
1433.403, 1295.000
1434.450, 1302.000
1435.497, 1309.000
1436.543, 1304.000
1437.590, 1309.703
1438.636, 1315.170
1439.682, 1316.000
1440.728, 1318.000
1441.774, 1330.000
1442.819, 1309.000
1443.865, 1349.000
1444.910, 1327.000
1445.955, 1364.000
1447.000, 1315.000
1448.045, 1352.000
1449.090, 1330.000
1450.134, 1349.000
1451.178, 1332.000
1452.223, 1287.000
1453.267, 1339.000
1454.310, 1338.000
1455.354, 1327.000
1456.398, 1369.000
1457.441, 1341.000
1458.484, 1343.000
1459.527, 1359.000
1460.570, 1323.000
1461.613, 1392.000
1462.655, 1315.000
1463.698, 1343.000
1464.740, 1361.000
1465.782, 1341.000
1466.824, 1345.000
1467.866, 1357.000
1468.907, 1279.000
1469.948, 1360.000
1470.990, 1324.000
1472.031, 1359.000
1473.072, 1382.000
1474.112, 1386.000
1475.153, 1343.000
1476.194, 1375.000
1477.234, 1323.000
1478.274, 1345.000
1479.314, 1351.000
1480.354, 1325.000
1481.393, 1375.000
1482.433, 1315.000
1483.472, 1345.000
1484.511, 1317.000
1485.550, 1395.000
1486.589, 1375.000
1487.628, 1386.000
1488.666, 1381.000
1489.704, 1361.000
1490.743, 1347.000
1491.781, 1369.000
1492.819, 1373.000
1493.856, 1348.000
1494.894, 1355.000
1495.931, 1354.000
1496.968, 1322.000
1498.005, 1346.000
1499.042, 1348.000
1500.079, 1365.000
1501.115, 1385.000
1502.152, 1351.000
1503.188, 1371.000
1504.224, 1371.000
1505.260, 1363.000
1506.296, 1367.000
1507.331, 1372.000
1508.367, 1380.000
1509.402, 1347.000
1510.437, 1401.000
1511.472, 1405.000
1512.507, 1357.000
1513.541, 1355.000
1514.576, 1379.000
1515.610, 1376.000
1516.644, 1378.000
1517.678, 1382.000
1518.712, 1379.000
1519.746, 1377.000
1520.779, 1379.000
1521.813, 1386.000
1522.846, 1394.000
1523.879, 1413.000
1524.912, 1413.121
1525.944, 1399.000
1526.977, 1410.000
1528.009, 1394.000
1529.041, 1369.000
1530.073, 1387.000
1531.105, 1338.000
1532.137, 1383.000
1533.168, 1384.000
1534.200, 1356.000
1535.231, 1418.000
1536.262, 1376.000
1537.293, 1403.000
1538.324, 1380.000
1539.354, 1427.000
1540.385, 1385.000
1541.415, 1409.000
1542.445, 1389.000
1543.475, 1371.000
1544.505, 1429.000
1545.534, 1406.000
1546.564, 1428.000
1547.593, 1394.000
1548.622, 1388.000
1549.651, 1422.000
1550.680, 1375.000
1551.708, 1390.000
1552.737, 1421.000
1553.765, 1412.000
1554.793, 1391.000
1555.821, 1402.000
1556.849, 1419.000
1557.877, 1398.000
1558.904, 1416.000
1559.932, 1400.000
1560.959, 1405.000
1561.986, 1426.000
1563.013, 1457.000
##END=



