##NAMES=Mimetite
##RRUFFID=R060920
##IDEAL CHEMISTRY=Pb^2+^_5_(As^5+^O_4_)_3_Cl
##LOCALITY=Tsumeb mine, Tsumeb, Otavi District, Oshikoto, Namibia
##OWNER=RRUFF
##SOURCE=Marcus Origlieri
##DESCRIPTION=Yellow to brownish hexagonal prism, monoclinic polytype
##STATUS=The identification of this mineral has been made only by X-ray diffraction.
##URL=rruff.info/R060920
##PIN_ID=L01165
##ORIENTATION=Laser parallel to -c* (0 0 -1). Fiducial mark perpendicular to laser is parallel to b [0 1 0]
42.24800, 441.0000
43.49300, 441.0000
44.73800, 432.0000
45.98200, 454.0000
47.22600, 432.0000
48.47100, 436.0000
49.71500, 433.0000
50.95900, 434.0000
52.20200, 430.0000
53.44600, 433.0000
54.68900, 426.0000
55.93300, 443.0000
57.17600, 432.0000
58.41900, 435.0000
59.66100, 450.0000
60.90400, 441.0000
62.14600, 418.0000
63.38900, 429.0000
64.63100, 441.0000
65.87300, 432.0000
67.11500, 449.0000
68.35600, 453.0000
69.59800, 458.0000
70.83900, 467.0000
72.08000, 470.0000
73.32100, 474.0000
74.56200, 502.0000
75.80300, 532.0000
77.04300, 544.0000
78.28300, 585.0000
79.52300, 665.0000
80.76300, 728.0000
82.00300, 826.0000
83.24300, 1010.000
84.48300, 1226.000
85.72200, 1425.000
86.96100, 1651.000
88.20000, 1964.000
89.43900, 2337.000
90.67800, 2713.000
91.91600, 3177.000
93.15500, 3686.000
94.39300, 4408.000
95.63100, 5080.000
96.86900, 5786.000
98.10600, 6415.000
99.34400, 6877.000
100.5810, 7260.000
101.8190, 7612.000
103.0560, 7676.000
104.2930, 7852.000
105.5290, 7996.000
106.7660, 8066.000
108.0020, 8370.000
109.2390, 8451.000
110.4750, 8476.000
111.7110, 8380.000
112.9460, 8393.000
114.1820, 8539.000
115.4170, 8781.000
116.6530, 8704.000
117.8880, 8737.000
119.1230, 8743.000
120.3580, 8863.000
121.5920, 8817.000
122.8270, 8985.000
124.0610, 8947.000
125.2950, 8929.000
126.5290, 9028.000
127.7630, 9096.000
128.9970, 9273.000
130.2300, 9266.000
131.4640, 9459.000
132.6970, 9583.000
133.9300, 9670.000
135.1630, 9758.000
136.3950, 9904.000
137.6280, 10039.00
138.8600, 10267.00
140.0920, 10386.00
141.3240, 10437.00
142.5560, 10469.00
143.7880, 10582.00
145.0190, 10493.00
146.2510, 10597.00
147.4820, 10395.00
148.7130, 10413.00
149.9440, 10419.00
151.1750, 10451.00
152.4050, 10436.00
153.6360, 10387.00
154.8660, 10284.00
156.0960, 10494.00
157.3260, 10422.00
158.5560, 10475.00
159.7850, 10308.00
161.0150, 10437.00
162.2440, 10475.00
163.4730, 10499.00
164.7020, 10313.00
165.9310, 10449.00
167.1590, 10372.00
168.3880, 10534.00
169.6160, 10549.00
170.8440, 10690.00
172.0720, 10550.00
173.3000, 10546.00
174.5280, 10624.00
175.7550, 10495.00
176.9820, 10630.00
178.2100, 10456.00
179.4370, 10581.00
180.6630, 10516.00
181.8900, 10449.00
183.1170, 10376.00
184.3430, 10387.00
185.5690, 10442.00
186.7950, 10338.00
188.0210, 10200.00
189.2470, 10170.00
190.4720, 10236.00
191.6970, 10095.00
192.9230, 10183.00
194.1480, 10089.00
195.3730, 10046.00
196.5970, 10059.00
197.8220, 9888.000
199.0460, 9747.000
200.2700, 9863.000
201.4940, 9626.000
202.7180, 9683.000
203.9420, 9580.000
205.1660, 9548.000
206.3890, 9457.000
207.6120, 9340.000
208.8350, 9335.000
210.0580, 9379.000
211.2810, 9236.000
212.5040, 9300.000
213.7260, 9190.000
214.9480, 9270.000
216.1700, 9228.000
217.3920, 9178.000
218.6140, 9184.000
219.8360, 9119.000
221.0570, 9163.000
222.2790, 9070.000
223.5000, 9001.000
224.7210, 9076.000
225.9410, 8839.000
227.1620, 9022.000
228.3820, 8916.000
229.6030, 8978.000
230.8230, 8864.000
232.0430, 9005.000
233.2630, 8950.000
234.4820, 8912.000
235.7020, 8806.000
236.9210, 8865.000
238.1400, 8847.000
239.3590, 8848.000
240.5780, 8801.000
241.7970, 8797.161
243.0150, 8797.000
244.2340, 8777.000
245.4520, 8727.000
246.6700, 8738.859
247.8880, 8828.000
249.1060, 8779.000
250.3230, 8812.000
251.5400, 8830.000
252.7580, 8746.000
253.9750, 8734.000
255.1920, 8694.000
256.4080, 8860.000
257.6250, 8837.000
258.8410, 8858.000
260.0580, 8867.000
261.2740, 8876.000
262.4900, 8875.000
263.7050, 8847.000
264.9210, 8873.000
266.1360, 8764.000
267.3520, 8752.000
268.5670, 8874.000
269.7820, 8975.000
270.9960, 9018.000
272.2110, 8988.000
273.4250, 8966.000
274.6400, 9001.000
275.8540, 8922.000
277.0680, 8893.000
278.2810, 8955.000
279.4950, 8921.000
280.7090, 9077.000
281.9220, 9069.000
283.1350, 9016.000
284.3480, 9011.000
285.5610, 9167.000
286.7730, 9258.000
287.9860, 9232.000
289.1980, 9307.000
290.4100, 9295.000
291.6220, 9443.000
292.8340, 9503.000
294.0460, 9506.000
295.2570, 9632.000
296.4690, 9900.000
297.6800, 9975.000
298.8910, 10111.00
300.1020, 10436.00
301.3120, 10496.00
302.5230, 10611.00
303.7330, 10737.00
304.9440, 10825.00
306.1540, 10950.00
307.3630, 11031.67
308.5730, 11143.00
309.7830, 11152.00
310.9920, 11245.00
312.2010, 11213.00
313.4100, 11121.00
314.6190, 11104.00
315.8280, 11001.00
317.0370, 10978.00
318.2450, 10918.00
319.4530, 10852.24
320.6610, 10730.00
321.8690, 10739.00
323.0770, 10703.00
324.2850, 10655.00
325.4920, 10785.00
326.6990, 10639.00
327.9060, 10895.00
329.1130, 10943.00
330.3200, 11074.00
331.5270, 11279.00
332.7330, 11290.00
333.9390, 11358.00
335.1450, 11320.00
336.3510, 11363.00
337.5570, 11376.00
338.7630, 11327.00
339.9680, 11343.00
341.1740, 11389.00
342.3790, 11364.00
343.5840, 11133.00
344.7890, 11174.00
345.9930, 10995.00
347.1980, 10846.00
348.4020, 10784.00
349.6060, 10622.00
350.8100, 10517.00
352.0140, 10485.00
353.2180, 10433.00
354.4210, 10465.00
355.6250, 10391.00
356.8280, 10383.00
358.0310, 10367.00
359.2340, 10365.00
360.4360, 10508.00
361.6390, 10750.00
362.8410, 10856.00
364.0430, 10934.00
365.2450, 10886.00
366.4470, 11153.00
367.6490, 11148.00
368.8510, 11293.00
370.0520, 11376.00
371.2530, 11234.00
372.4540, 11328.00
373.6550, 11289.00
374.8560, 11037.00
376.0560, 10976.00
377.2570, 10835.00
378.4570, 10670.00
379.6570, 10582.00
380.8570, 10391.00
382.0570, 10383.00
383.2560, 10277.00
384.4560, 10251.00
385.6550, 10421.00
386.8540, 10319.00
388.0530, 10477.00
389.2520, 10493.00
390.4510, 10414.00
391.6490, 10500.00
392.8470, 10369.00
394.0450, 10445.00
395.2430, 10438.00
396.4410, 10499.00
397.6390, 10466.00
398.8360, 10433.00
400.0340, 10504.00
401.2310, 10551.00
402.4280, 10707.00
403.6250, 10651.00
404.8210, 10713.00
406.0180, 10758.00
407.2140, 10720.00
408.4100, 10944.00
409.6060, 10975.00
410.8020, 11039.00
411.9980, 11063.00
413.1930, 11143.00
414.3890, 11198.00
415.5840, 11294.00
416.7790, 11234.00
417.9740, 11437.00
419.1680, 11537.00
420.3630, 11494.00
421.5570, 11541.00
422.7510, 11261.00
423.9450, 11281.00
425.1390, 11126.00
426.3330, 11070.00
427.5270, 10928.00
428.7200, 10893.00
429.9130, 10751.00
431.1060, 10856.00
432.2990, 10635.00
433.4920, 10484.00
434.6840, 10693.00
435.8770, 10401.00
437.0690, 10472.00
438.2610, 10366.00
439.4530, 10378.00
440.6450, 10315.00
441.8360, 10461.00
443.0280, 10314.00
444.2190, 10366.00
445.4100, 10134.00
446.6010, 10331.00
447.7920, 10285.00
448.9820, 10281.00
450.1730, 10309.00
451.3630, 10299.00
452.5530, 10260.00
453.7430, 10196.00
454.9330, 10239.00
456.1230, 10295.00
457.3120, 10262.00
458.5010, 10217.00
459.6910, 10238.00
460.8800, 10193.00
462.0680, 10150.00
463.2570, 10235.00
464.4460, 10205.00
465.6340, 10252.00
466.8220, 10240.00
468.0100, 10238.00
469.1980, 10203.00
470.3860, 10263.00
471.5730, 10297.00
472.7600, 10342.00
473.9480, 10332.00
475.1350, 10290.00
476.3210, 10319.00
477.5080, 10222.00
478.6950, 10251.00
479.8810, 10333.00
481.0670, 10247.00
482.2530, 10189.00
483.4390, 10313.00
484.6250, 10331.00
485.8100, 10339.00
486.9960, 10334.00
488.1810, 10381.00
489.3660, 10376.00
490.5510, 10326.00
491.7360, 10392.00
492.9200, 10368.00
494.1050, 10451.00
495.2890, 10376.00
496.4730, 10540.00
497.6570, 10499.00
498.8400, 10555.00
500.0240, 10504.00
501.2070, 10604.00
502.3910, 10547.00
503.5740, 10627.00
504.7570, 10538.00
505.9400, 10500.00
507.1220, 10502.00
508.3050, 10607.00
509.4870, 10562.00
510.6690, 10651.00
511.8510, 10639.00
513.0330, 10638.00
514.2140, 10732.00
515.3960, 10585.00
516.5770, 10608.00
517.7580, 10657.00
518.9390, 10636.00
520.1200, 10681.08
521.3010, 10692.86
522.4810, 10714.00
523.6610, 10767.00
524.8420, 10739.00
526.0220, 10760.37
527.2010, 10794.00
528.3810, 10758.00
529.5610, 10741.00
530.7400, 10742.00
531.9190, 10728.00
533.0980, 10859.00
534.2770, 10847.00
535.4560, 10715.00
536.6340, 10891.00
537.8120, 10706.00
538.9910, 10983.00
540.1690, 10946.00
541.3460, 10825.00
542.5240, 10938.00
543.7020, 10794.00
544.8790, 10912.00
546.0560, 10907.00
547.2330, 10844.00
548.4100, 10894.00
549.5870, 11021.00
550.7630, 10963.00
551.9400, 11014.00
553.1160, 10988.00
554.2920, 10940.00
555.4680, 11132.00
556.6440, 11092.00
557.8190, 11060.00
558.9950, 11008.00
560.1700, 11178.00
561.3450, 11021.00
562.5200, 11105.00
563.6950, 11144.00
564.8690, 11096.00
566.0440, 11164.00
567.2180, 11147.00
568.3920, 11278.00
569.5660, 11238.00
570.7400, 11389.00
571.9130, 11131.00
573.0870, 11324.00
574.2600, 11108.00
575.4330, 11325.00
576.6060, 11362.00
577.7790, 11361.00
578.9520, 11390.00
580.1240, 11325.00
581.2960, 11343.00
582.4690, 11281.00
583.6410, 11305.00
584.8120, 11400.00
585.9840, 11364.00
587.1560, 11470.00
588.3270, 11436.00
589.4980, 11358.00
590.6690, 11415.00
591.8400, 11503.00
593.0110, 11540.00
594.1810, 11599.00
595.3510, 11606.00
596.5220, 11486.00
597.6920, 11499.00
598.8610, 11574.00
600.0310, 11608.00
601.2010, 11686.00
602.3700, 11717.00
603.5390, 11692.00
604.7080, 11870.00
605.8770, 11664.00
607.0460, 11733.00
608.2140, 11909.00
609.3830, 11855.00
610.5510, 11849.00
611.7190, 11735.00
612.8870, 11876.00
614.0550, 11771.00
615.2220, 11761.00
616.3900, 11924.00
617.5570, 11922.00
618.7240, 11997.00
619.8910, 11801.00
621.0580, 11761.00
622.2240, 11842.00
623.3910, 11928.00
624.5570, 11918.00
625.7230, 11782.00
626.8890, 11964.00
628.0550, 11947.00
629.2200, 11859.00
630.3860, 12024.00
631.5510, 11949.00
632.7160, 12017.00
633.8810, 12043.00
635.0460, 12015.00
636.2100, 12057.76
637.3750, 12016.00
638.5390, 12073.00
639.7030, 12058.59
640.8670, 12050.00
642.0310, 12113.00
643.1950, 12004.00
644.3580, 12066.00
645.5210, 12176.00
646.6850, 12007.00
647.8480, 12228.00
649.0100, 12265.00
650.1730, 12095.00
651.3350, 12034.00
652.4980, 12169.00
653.6600, 12095.00
654.8220, 12083.00
655.9840, 12195.00
657.1450, 12162.00
658.3070, 12177.00
659.4680, 12230.00
660.6300, 12218.00
661.7910, 12186.00
662.9510, 12202.00
664.1120, 12181.00
665.2730, 12054.00
666.4330, 12191.00
667.5930, 12259.00
668.7530, 12452.00
669.9130, 12250.00
671.0730, 12385.00
672.2320, 12368.00
673.3920, 12302.00
674.5510, 12504.00
675.7100, 12325.00
676.8690, 12253.00
678.0280, 12391.00
679.1860, 12241.00
680.3450, 12513.00
681.5030, 12450.00
682.6610, 12549.00
683.8190, 12590.00
684.9770, 12554.00
686.1340, 12582.00
687.2920, 12435.00
688.4490, 12513.00
689.6060, 12437.00
690.7630, 12585.00
691.9200, 12538.00
693.0760, 12412.00
694.2330, 12570.00
695.3890, 12694.00
696.5450, 12723.00
697.7010, 12595.00
698.8570, 12652.00
700.0130, 12675.00
701.1680, 12818.00
702.3230, 12748.00
703.4780, 12755.00
704.6330, 12755.00
705.7880, 12811.00
706.9430, 12935.00
708.0970, 12900.00
709.2520, 13091.00
710.4060, 12940.00
711.5600, 12923.00
712.7140, 13060.00
713.8670, 12819.00
715.0210, 13109.00
716.1740, 13016.00
717.3270, 13064.00
718.4800, 13167.00
719.6330, 13092.00
720.7860, 13006.00
721.9380, 13206.00
723.0910, 13077.00
724.2430, 13297.00
725.3950, 13317.00
726.5470, 13251.00
727.6980, 13353.00
728.8500, 13342.00
730.0010, 13421.00
731.1530, 13455.00
732.3040, 13460.00
733.4550, 13487.69
734.6050, 13491.00
735.7560, 13529.00
736.9060, 13517.00
738.0560, 13620.00
739.2060, 13592.00
740.3560, 13708.00
741.5060, 13766.00
742.6560, 13893.00
743.8050, 13902.00
744.9540, 14024.00
746.1030, 14104.00
747.2520, 14165.00
748.4010, 14288.39
749.5500, 14408.00
750.6980, 14498.00
751.8460, 14621.00
752.9950, 14714.00
754.1420, 15055.00
755.2900, 15560.00
756.4380, 15909.00
757.5850, 16165.00
758.7330, 16675.00
759.8800, 17046.00
761.0270, 17844.00
762.1730, 18243.00
763.3200, 18675.00
764.4670, 19069.00
765.6130, 19077.00
766.7590, 19135.00
767.9050, 19020.00
769.0510, 18725.00
770.1960, 18495.00
771.3420, 18378.00
772.4870, 18217.00
773.6320, 18178.00
774.7770, 18082.00
775.9220, 18146.58
777.0670, 18212.89
778.2110, 18384.00
779.3560, 18558.00
780.5000, 18775.00
781.6440, 19149.00
782.7880, 19435.00
783.9320, 19606.00
785.0750, 20175.00
786.2180, 20221.00
787.3620, 20482.00
788.5050, 20880.00
789.6480, 20836.00
790.7900, 21243.00
791.9330, 21279.00
793.0750, 21770.00
794.2170, 22680.00
795.3590, 24148.96
796.5010, 26049.92
797.6430, 28407.00
798.7850, 31301.00
799.9260, 34497.00
801.0670, 38274.00
802.2080, 41913.00
803.3490, 45501.00
804.4900, 48552.00
805.6310, 51432.00
806.7710, 52802.00
807.9110, 52647.00
809.0510, 51250.00
810.1910, 49053.00
811.3310, 46271.00
812.4710, 43420.00
813.6100, 40969.00
814.7490, 38562.00
815.8880, 35876.00
817.0270, 32821.00
818.1660, 30031.00
819.3050, 27438.00
820.4430, 25244.00
821.5820, 23294.00
822.7200, 21851.00
823.8580, 20582.00
824.9950, 19647.00
826.1330, 18961.00
827.2710, 18427.00
828.4080, 18023.00
829.5450, 17754.00
830.6820, 17397.00
831.8190, 17252.00
832.9560, 16974.00
834.0920, 16819.00
835.2280, 16684.00
836.3650, 16432.00
837.5010, 16300.00
838.6360, 16169.00
839.7720, 16290.00
840.9080, 16053.00
842.0430, 15954.00
843.1780, 16022.00
844.3130, 15863.00
845.4480, 15933.00
846.5830, 15763.00
847.7170, 15747.00
848.8520, 15666.00
849.9860, 15672.00
851.1200, 15693.00
852.2540, 15573.00
853.3870, 15550.00
854.5210, 15521.00
855.6540, 15468.68
856.7880, 15454.78
857.9210, 15441.00
859.0540, 15369.00
860.1860, 15403.00
861.3190, 15278.00
862.4510, 15301.00
863.5840, 15212.00
864.7160, 15363.00
865.8480, 15307.00
866.9790, 15273.00
868.1110, 15209.00
869.2420, 15360.00
870.3740, 15238.00
871.5050, 15310.00
872.6360, 15214.00
873.7660, 15274.00
874.8970, 15235.25
876.0280, 15271.00
877.1580, 15206.00
878.2880, 15245.00
879.4180, 15301.00
880.5480, 15223.00
881.6770, 15296.00
882.8070, 15202.00
883.9360, 15258.00
885.0650, 15269.00
886.1940, 15331.00
887.3230, 15281.00
888.4520, 15280.85
889.5800, 15136.00
890.7090, 15208.00
891.8370, 15121.00
892.9650, 15063.00
894.0930, 15156.00
895.2200, 15269.00
896.3480, 15106.00
897.4750, 15238.00
898.6020, 15232.00
899.7290, 15213.00
900.8560, 15369.00
901.9830, 15187.00
903.1090, 15237.00
904.2360, 15247.00
905.3620, 15422.00
906.4880, 15374.88
907.6140, 15276.00
908.7400, 15296.00
909.8650, 15266.00
910.9900, 15084.00
912.1160, 15432.00
913.2410, 15430.00
914.3660, 15342.00
915.4900, 15467.00
916.6150, 15387.00
917.7390, 15457.00
918.8640, 15429.00
919.9880, 15491.00
921.1120, 15530.00
922.2350, 15507.00
923.3590, 15491.00
924.4820, 15466.74
925.6060, 15410.00
926.7290, 15377.00
927.8520, 15300.00
928.9740, 15242.00
930.0970, 15220.00
931.2190, 15232.04
932.3420, 15247.56
933.4640, 15326.00
934.5860, 15338.00
935.7080, 15410.00
936.8290, 15459.00
937.9510, 15421.00
939.0720, 15389.00
940.1930, 15452.00
941.3140, 15435.57
942.4350, 15322.00
943.5560, 15470.00
944.6760, 15484.00
945.7960, 15477.00
946.9170, 15647.00
948.0370, 15560.00
949.1560, 15457.00
950.2760, 15650.00
951.3960, 15419.00
952.5150, 15586.00
953.6340, 15675.00
954.7530, 15501.00
955.8720, 15619.00
956.9910, 15479.00
958.1090, 15644.00
959.2280, 15384.00
960.3460, 15697.00
961.4640, 15687.00
962.5820, 15617.00
963.6990, 15749.00
964.8170, 15643.00
965.9340, 15834.00
967.0510, 15694.00
968.1690, 15835.00
969.2850, 15712.00
970.4020, 15840.00
971.5190, 15814.00
972.6350, 15850.00
973.7510, 15888.00
974.8670, 15701.00
975.9830, 15840.00
977.0990, 15785.00
978.2150, 15771.00
979.3300, 15908.00
980.4450, 15890.00
981.5600, 16029.00
982.6750, 15962.00
983.7900, 15859.00
984.9050, 15957.00
986.0190, 16020.00
987.1340, 16086.00
988.2480, 15931.00
989.3620, 16073.00
990.4750, 15947.00
991.5890, 15799.00
992.7020, 16022.00
993.8160, 16111.00
994.9290, 16003.00
996.0420, 15982.00
997.1550, 16066.00
998.2670, 16056.00
999.3800, 16054.00
1000.492, 16105.00
1001.604, 16132.00
1002.716, 16120.00
1003.828, 16179.00
1004.940, 15978.00
1006.051, 16120.00
1007.163, 16144.00
1008.274, 16144.00
1009.385, 16336.00
1010.496, 16337.00
1011.606, 16166.00
1012.717, 16298.00
1013.827, 16176.00
1014.937, 16186.00
1016.047, 16315.00
1017.157, 16374.00
1018.267, 16393.00
1019.377, 16356.00
1020.486, 16307.00
1021.595, 16406.00
1022.704, 16520.00
1023.813, 16343.00
1024.922, 16432.00
1026.030, 16507.00
1027.139, 16454.00
1028.247, 16345.00
1029.355, 16338.00
1030.463, 16403.00
1031.571, 16480.00
1032.678, 16565.00
1033.786, 16596.74
1034.893, 16631.29
1036.000, 16635.00
1037.107, 16611.00
1038.214, 16566.00
1039.321, 16600.00
1040.427, 16582.00
1041.533, 16630.00
1042.639, 16607.00
1043.745, 16578.00
1044.851, 16565.00
1045.957, 16605.26
1047.062, 16736.00
1048.168, 16660.00
1049.273, 16822.00
1050.378, 16749.00
1051.482, 16889.00
1052.587, 16844.00
1053.692, 16825.00
1054.796, 16715.00
1055.900, 16864.00
1057.004, 16887.00
1058.108, 16980.00
1059.212, 16988.00
1060.315, 16829.00
1061.418, 16969.00
1062.522, 16905.00
1063.625, 16894.00
1064.728, 17112.00
1065.830, 17008.00
1066.933, 16817.00
1068.035, 17006.00
1069.137, 16935.00
1070.239, 16968.00
1071.341, 16893.00
1072.443, 16952.00
1073.545, 16998.00
1074.646, 16986.00
1075.747, 17133.00
1076.848, 17156.00
1077.949, 16868.00
1079.050, 17055.00
1080.150, 17102.00
1081.251, 17414.00
1082.351, 17478.00
1083.451, 17306.00
1084.551, 17391.00
1085.651, 17470.00
1086.750, 17417.00
1087.850, 17512.00
1088.949, 17484.00
1090.048, 17265.00
1091.147, 17298.00
1092.246, 17241.00
1093.345, 17273.00
1094.443, 17378.00
1095.541, 17399.00
1096.639, 17265.00
1097.737, 17387.00
1098.835, 17274.00
1099.933, 17425.00
1101.030, 17348.00
1102.128, 17483.00
1103.225, 17376.00
1104.322, 17391.00
1105.419, 17445.00
1106.515, 17362.00
1107.612, 17374.00
1108.708, 17390.00
1109.804, 17469.00
1110.900, 17322.00
1111.996, 17659.00
1113.092, 17599.00
1114.187, 17380.00
1115.283, 17586.00
1116.378, 17697.00
1117.473, 17830.00
1118.568, 17670.00
1119.662, 17772.00
1120.757, 17654.00
1121.851, 17752.00
1122.946, 17734.00
1124.040, 17743.00
1125.134, 17761.00
1126.227, 17746.00
1127.321, 17703.00
1128.414, 17809.00
1129.508, 17712.00
1130.601, 17849.00
1131.693, 17828.00
1132.786, 17728.00
1133.879, 17752.00
1134.971, 17759.00
1136.064, 17827.00
1137.156, 17986.00
1138.248, 17837.00
1139.339, 17831.00
1140.431, 18031.00
1141.522, 18013.00
1142.614, 17993.00
1143.705, 17998.00
1144.796, 18065.00
1145.887, 17902.00
1146.977, 17977.00
1148.068, 17855.00
1149.158, 18016.00
1150.248, 17981.00
1151.338, 18041.00
1152.428, 18083.00
1153.518, 17984.00
1154.607, 18123.00
1155.696, 18222.00
1156.785, 18112.00
1157.874, 18150.00
1158.963, 18148.00
1160.052, 18151.00
1161.141, 18037.00
1162.229, 18166.00
1163.317, 18271.00
1164.405, 18214.00
1165.493, 18410.00
1166.581, 18166.00
1167.668, 18340.00
1168.756, 18231.00
1169.843, 18397.00
1170.930, 18381.00
1172.017, 18512.00
1173.103, 18294.00
1174.190, 18184.00
1175.276, 18425.00
1176.363, 18365.00
1177.449, 18349.00
1178.535, 18613.00
1179.620, 18415.00
1180.706, 18656.00
1181.791, 18517.00
1182.877, 18492.00
1183.962, 18450.00
1185.047, 18417.12
1186.131, 18430.00
1187.216, 18461.00
1188.300, 18564.00
1189.385, 18698.00
1190.469, 18838.00
1191.553, 18616.00
1192.637, 18677.00
1193.720, 18535.00
1194.804, 18771.00
1195.887, 18687.00
1196.970, 18781.00
1198.053, 18700.00
1199.136, 18681.00
1200.219, 18627.00
1201.301, 18757.00
1202.383, 18865.00
1203.465, 18836.00
1204.547, 18900.66
1205.629, 18820.00
1206.711, 18860.00
1207.792, 18830.00
1208.874, 18715.00
1209.955, 19021.00
1211.036, 18725.00
1212.117, 18949.00
1213.198, 18891.00
1214.278, 18761.00
1215.359, 18987.00
1216.439, 18831.00
1217.519, 18755.00
1218.599, 19115.00
1219.678, 18871.00
1220.758, 19022.00
1221.837, 19058.00
1222.917, 19029.00
1223.996, 19171.00
1225.075, 19012.00
1226.153, 19112.00
1227.232, 18933.00
1228.310, 19210.00
1229.389, 19087.00
1230.467, 19131.00
1231.545, 19197.00
1232.622, 19223.00
1233.700, 19184.00
1234.777, 19379.00
1235.855, 19135.00
1236.932, 19278.00
1238.009, 19499.00
1239.086, 19218.00
1240.162, 19285.00
1241.239, 19104.00
1242.315, 19304.00
1243.391, 19283.00
1244.467, 19335.00
1245.543, 19349.00
1246.619, 19334.36
1247.694, 19521.00
1248.769, 19340.00
1249.844, 19319.00
1250.919, 19388.00
1251.994, 19226.00
1253.069, 19281.00
1254.144, 19429.00
1255.218, 19502.00
1256.292, 19540.00
1257.366, 19608.66
1258.440, 19616.59
1259.514, 19605.00
1260.587, 19610.00
1261.661, 19608.13
1262.734, 19594.46
1263.807, 19560.00
1264.880, 19593.00
1265.952, 19473.00
1267.025, 19516.00
1268.097, 19499.00
1269.170, 19618.00
1270.242, 19515.00
1271.314, 19650.00
1272.385, 19674.00
1273.457, 19760.00
1274.528, 19690.00
1275.600, 19851.00
1276.671, 19788.50
1277.742, 19675.00
1278.812, 19753.00
1279.883, 19661.00
1280.954, 19682.00
1282.024, 19969.00
1283.094, 19858.00
1284.164, 19853.00
1285.234, 19851.00
1286.303, 19827.00
1287.373, 19856.00
1288.442, 19860.36
1289.511, 19913.00
1290.580, 19887.00
1291.649, 19995.00
1292.718, 19986.12
1293.786, 20039.00
1294.855, 20088.00
1295.923, 20088.00
1296.991, 20097.00
1298.059, 20206.00
1299.126, 20165.00
1300.194, 20116.00
1301.261, 20159.00
1302.328, 20330.00
1303.395, 20425.00
1304.462, 20240.00
1305.529, 20162.00
1306.596, 20096.00
1307.662, 20176.00
1308.728, 20190.00
1309.794, 20299.00
1310.860, 20215.00
1311.926, 20129.00
1312.991, 20247.00
1314.057, 20340.00
1315.122, 20343.00
1316.187, 20211.00
1317.252, 20402.00
1318.317, 20217.00
1319.381, 20302.00
1320.446, 20259.00
1321.510, 20430.00
1322.574, 20478.00
1323.638, 20392.00
1324.702, 20396.00
1325.766, 20488.00
1326.829, 20487.00
1327.892, 20545.00
1328.956, 20420.00
1330.019, 20499.00
1331.081, 20550.00
1332.144, 20610.00
1333.206, 20492.00
1334.269, 20609.00
1335.331, 20464.00
1336.393, 20584.00
1337.455, 20610.00
1338.516, 20684.00
1339.578, 20585.00
1340.639, 20565.00
1341.701, 20600.00
1342.762, 20692.00
1343.822, 20636.00
1344.883, 20687.00
1345.944, 20689.00
1347.004, 20490.00
1348.064, 20715.00
1349.124, 20582.00
1350.184, 20724.00
1351.244, 20797.00
1352.304, 20749.00
1353.363, 20863.00
1354.422, 20943.00
1355.481, 20729.00
1356.540, 20880.00
1357.599, 20842.00
1358.657, 20837.00
1359.716, 20883.00
1360.774, 20898.00
1361.832, 20823.00
1362.890, 20883.00
1363.948, 20899.77
1365.006, 20927.00
1366.063, 21015.00
1367.120, 21024.00
1368.178, 21118.00
1369.234, 21134.00
1370.291, 21014.00
1371.348, 20848.00
1372.404, 20864.00
1373.461, 21134.00
1374.517, 20991.00
1375.573, 21171.00
1376.629, 21102.00
1377.684, 20917.00
1378.740, 20969.00
1379.795, 21155.00
1380.850, 21128.00
1381.905, 21180.00
1382.960, 21145.00
1384.015, 21169.00
1385.070, 21038.00
1386.124, 21175.00
1387.178, 21112.00
1388.232, 21326.00
1389.286, 21190.00
1390.340, 21216.00
1391.393, 21204.00
1392.447, 21419.00
1393.500, 21246.00
1394.553, 21328.00
1395.606, 21335.00
1396.659, 21278.00
1397.711, 21401.00
1398.764, 21278.00
1399.816, 21231.00
1400.868, 21253.00
1401.920, 21256.00
1402.972, 21399.00
1404.023, 21272.00
1405.075, 21583.00
1406.126, 21353.00
1407.177, 21504.00
1408.228, 21359.00
1409.279, 21540.00
1410.330, 21438.00
1411.380, 21406.00
1412.431, 21349.00
1413.481, 21476.00
1414.531, 21579.00
1415.580, 21612.00
1416.630, 21703.00
1417.680, 21455.00
1418.729, 21634.00
1419.778, 21713.00
1420.827, 21562.00
1421.876, 21760.00
1422.925, 21657.00
1423.973, 21634.00
1425.022, 21822.00
1426.070, 21758.00
1427.118, 21718.00
1428.166, 22030.00
1429.214, 21773.00
1430.261, 21720.00
1431.309, 22083.00
1432.356, 22138.00
1433.403, 22211.00
1434.450, 22220.00
1435.497, 22110.00
1436.543, 22159.00
1437.590, 22262.00
1438.636, 22053.00
1439.682, 22365.00
1440.728, 22239.00
1441.774, 22096.00
1442.819, 22243.00
1443.865, 22423.00
1444.910, 22290.00
1445.955, 22283.00
1447.000, 22421.00
1448.045, 22151.00
1449.090, 22388.00
1450.134, 22108.00
1451.178, 22334.00
1452.223, 22303.00
1453.267, 22449.00
1454.310, 22284.00
1455.354, 22350.00
1456.398, 22167.00
1457.441, 22203.41
1458.484, 22320.00
1459.527, 22251.00
1460.570, 22273.00
1461.613, 22324.00
1462.655, 22252.00
1463.698, 22290.14
1464.740, 22358.00
1465.782, 22304.00
1466.824, 22415.00
1467.866, 22458.00
1468.907, 22399.00
1469.948, 22296.00
1470.990, 22319.00
1472.031, 22401.00
1473.072, 22587.00
1474.112, 22304.00
1475.153, 22474.00
1476.194, 22411.00
1477.234, 22485.00
1478.274, 22500.00
1479.314, 22450.00
1480.354, 22555.00
1481.393, 22389.00
1482.433, 22409.00
1483.472, 22679.00
1484.511, 22414.00
1485.550, 22536.00
1486.589, 22542.00
1487.628, 22347.00
1488.666, 22591.00
1489.704, 22481.00
1490.743, 22635.00
1491.781, 22579.00
1492.819, 22534.00
1493.856, 22653.00
1494.894, 22701.00
1495.931, 22873.00
1496.968, 22731.00
1498.005, 22815.75
1499.042, 22594.00
1500.079, 22837.00
1501.115, 22847.00
1502.152, 22909.00
1503.188, 22786.00
1504.224, 22934.00
1505.260, 22892.00
1506.296, 22709.00
1507.331, 22894.00
1508.367, 22781.00
1509.402, 22750.00
1510.437, 23016.00
1511.472, 22775.00
1512.507, 23035.00
1513.541, 22723.00
1514.576, 23117.00
1515.610, 22950.00
1516.644, 22983.00
1517.678, 22953.00
1518.712, 22833.00
1519.746, 23109.00
1520.779, 23090.00
1521.813, 22957.00
1522.846, 23256.00
1523.879, 23146.00
1524.912, 23208.00
1525.944, 23381.00
1526.977, 23187.00
1528.009, 23054.00
1529.041, 23254.00
1530.073, 23115.00
1531.105, 23133.00
1532.137, 23129.00
1533.168, 23264.00
1534.200, 23252.52
1535.231, 23246.00
1536.262, 23299.00
1537.293, 23188.00
1538.324, 23163.00
1539.354, 23183.00
1540.385, 23092.00
1541.415, 23004.00
1542.445, 23079.01
1543.475, 23035.68
1544.505, 23178.00
1545.534, 23168.00
1546.564, 23166.00
1547.593, 23412.00
1548.622, 23229.00
1549.651, 23248.00
1550.680, 23452.00
1551.708, 23524.00
1552.737, 23412.00
1553.765, 23374.00
1554.793, 23409.00
1555.821, 23596.00
1556.849, 23423.00
1557.877, 23458.00
1558.904, 23269.00
1559.932, 23340.00
1560.959, 23429.00
1561.986, 23477.00
1563.013, 23536.00
##END=



