##NAMES=Mimetite
##RRUFFID=R060920
##IDEAL CHEMISTRY=Pb^2+^_5_(As^5+^O_4_)_3_Cl
##LOCALITY=Tsumeb mine, Tsumeb, Otavi District, Oshikoto, Namibia
##OWNER=RRUFF
##SOURCE=Marcus Origlieri
##DESCRIPTION=Yellow to brownish hexagonal prism, monoclinic polytype
##STATUS=The identification of this mineral has been made only by X-ray diffraction.
##URL=rruff.info/R060920
##PIN_ID=L01429
##ORIENTATION=Laser parallel to a* (1 0 0). Fiducial mark perpendicular to laser is parallel to c [0 0 1]
42.24800, 340.0000
43.49300, 340.0000
44.73800, 325.0000
45.98200, 330.0000
47.22600, 332.0000
48.47100, 336.0000
49.71500, 340.0000
50.95900, 337.0000
52.20200, 324.0000
53.44600, 329.0000
54.68900, 336.0000
55.93300, 327.0000
57.17600, 344.0000
58.41900, 335.0000
59.66100, 338.0000
60.90400, 343.0000
62.14600, 331.0000
63.38900, 333.0000
64.63100, 337.0000
65.87300, 335.0000
67.11500, 337.0000
68.35600, 343.0000
69.59800, 344.1612
70.83900, 355.0000
72.08000, 351.0000
73.32100, 349.0000
74.56200, 350.0000
75.80300, 358.0998
77.04300, 379.0000
78.28300, 389.0000
79.52300, 402.0000
80.76300, 436.0000
82.00300, 499.0000
83.24300, 532.0000
84.48300, 596.0000
85.72200, 676.0000
86.96100, 817.0000
88.20000, 897.0000
89.43900, 1051.000
90.67800, 1175.000
91.91600, 1287.000
93.15500, 1480.000
94.39300, 1662.000
95.63100, 1889.000
96.86900, 2232.000
98.10600, 2549.000
99.34400, 2966.000
100.5810, 3203.000
101.8190, 3453.000
103.0560, 3518.000
104.2930, 3544.000
105.5290, 3475.000
106.7660, 3516.000
108.0020, 3432.000
109.2390, 3350.000
110.4750, 3319.000
111.7110, 3209.000
112.9460, 3182.000
114.1820, 3118.000
115.4170, 3057.000
116.6530, 2974.000
117.8880, 2904.000
119.1230, 2840.000
120.3580, 2781.000
121.5920, 2737.000
122.8270, 2692.000
124.0610, 2662.000
125.2950, 2615.000
126.5290, 2569.000
127.7630, 2511.000
128.9970, 2520.000
130.2300, 2474.000
131.4640, 2543.000
132.6970, 2561.000
133.9300, 2523.000
135.1630, 2500.000
136.3950, 2589.000
137.6280, 2611.000
138.8600, 2708.000
140.0920, 2720.000
141.3240, 2677.000
142.5560, 2744.000
143.7880, 2801.000
145.0190, 2805.000
146.2510, 2908.000
147.4820, 2889.000
148.7130, 3006.000
149.9440, 2967.000
151.1750, 3086.000
152.4050, 3111.000
153.6360, 3127.000
154.8660, 3152.000
156.0960, 3185.000
157.3260, 3224.000
158.5560, 3237.000
159.7850, 3312.000
161.0150, 3375.000
162.2440, 3398.000
163.4730, 3506.000
164.7020, 3501.000
165.9310, 3573.000
167.1590, 3615.000
168.3880, 3672.000
169.6160, 3673.364
170.8440, 3661.000
172.0720, 3649.000
173.3000, 3654.000
174.5280, 3626.000
175.7550, 3578.000
176.9820, 3517.000
178.2100, 3415.000
179.4370, 3303.000
180.6630, 3274.000
181.8900, 3310.000
183.1170, 3216.000
184.3430, 3017.000
185.5690, 2997.000
186.7950, 2811.000
188.0210, 2795.000
189.2470, 2651.000
190.4720, 2562.000
191.6970, 2500.000
192.9230, 2403.000
194.1480, 2312.000
195.3730, 2236.000
196.5970, 2156.000
197.8220, 2079.000
199.0460, 2014.000
200.2700, 1938.000
201.4940, 1888.000
202.7180, 1807.000
203.9420, 1798.000
205.1660, 1730.000
206.3890, 1675.000
207.6120, 1671.000
208.8350, 1631.000
210.0580, 1574.000
211.2810, 1546.000
212.5040, 1522.000
213.7260, 1476.000
214.9480, 1494.000
216.1700, 1452.000
217.3920, 1461.000
218.6140, 1371.000
219.8360, 1372.000
221.0570, 1330.000
222.2790, 1299.000
223.5000, 1320.000
224.7210, 1303.000
225.9410, 1268.000
227.1620, 1214.000
228.3820, 1222.000
229.6030, 1210.000
230.8230, 1196.000
232.0430, 1170.000
233.2630, 1182.000
234.4820, 1138.000
235.7020, 1136.000
236.9210, 1168.000
238.1400, 1132.000
239.3590, 1124.000
240.5780, 1103.000
241.7970, 1130.000
243.0150, 1137.000
244.2340, 1097.000
245.4520, 1097.000
246.6700, 1077.000
247.8880, 1083.000
249.1060, 1075.000
250.3230, 1070.000
251.5400, 1055.000
252.7580, 1054.000
253.9750, 1054.000
255.1920, 1026.000
256.4080, 1042.081
257.6250, 1037.000
258.8410, 1057.000
260.0580, 1056.000
261.2740, 1060.000
262.4900, 1064.761
263.7050, 1063.405
264.9210, 1067.000
266.1360, 1062.000
267.3520, 1066.000
268.5670, 1063.000
269.7820, 1069.000
270.9960, 1063.000
272.2110, 1075.000
273.4250, 1107.000
274.6400, 1122.000
275.8540, 1112.000
277.0680, 1127.000
278.2810, 1111.000
279.4950, 1127.000
280.7090, 1167.000
281.9220, 1146.000
283.1350, 1207.000
284.3480, 1173.000
285.5610, 1241.000
286.7730, 1289.000
287.9860, 1358.000
289.1980, 1352.000
290.4100, 1475.000
291.6220, 1546.000
292.8340, 1660.000
294.0460, 1763.000
295.2570, 1946.000
296.4690, 2094.000
297.6800, 2208.000
298.8910, 2442.000
300.1020, 2686.000
301.3120, 2864.000
302.5230, 3176.000
303.7330, 3317.000
304.9440, 3419.000
306.1540, 3459.000
307.3630, 3610.000
308.5730, 3700.000
309.7830, 3751.000
310.9920, 3874.000
312.2010, 4009.000
313.4100, 4073.000
314.6190, 3937.000
315.8280, 3902.000
317.0370, 3745.000
318.2450, 3463.000
319.4530, 3340.000
320.6610, 3152.000
321.8690, 3045.000
323.0770, 3043.000
324.2850, 3084.000
325.4920, 3057.000
326.6990, 3233.000
327.9060, 3296.000
329.1130, 3518.000
330.3200, 3674.000
331.5270, 3888.000
332.7330, 4015.000
333.9390, 4143.000
335.1450, 4334.000
336.3510, 4392.000
337.5570, 4464.000
338.7630, 4405.000
339.9680, 4315.000
341.1740, 4205.000
342.3790, 4059.000
343.5840, 3868.000
344.7890, 3689.000
345.9930, 3415.000
347.1980, 3280.000
348.4020, 3037.000
349.6060, 2834.000
350.8100, 2676.000
352.0140, 2495.000
353.2180, 2271.000
354.4210, 2089.000
355.6250, 1999.000
356.8280, 1913.000
358.0310, 1829.000
359.2340, 1761.000
360.4360, 1679.000
361.6390, 1629.000
362.8410, 1665.000
364.0430, 1625.000
365.2450, 1625.000
366.4470, 1633.000
367.6490, 1616.000
368.8510, 1635.000
370.0520, 1635.000
371.2530, 1603.000
372.4540, 1666.000
373.6550, 1650.000
374.8560, 1637.000
376.0560, 1601.000
377.2570, 1593.270
378.4570, 1558.000
379.6570, 1568.000
380.8570, 1510.000
382.0570, 1502.000
383.2560, 1556.000
384.4560, 1573.000
385.6550, 1549.000
386.8540, 1617.000
388.0530, 1630.000
389.2520, 1616.000
390.4510, 1586.000
391.6490, 1637.000
392.8470, 1556.000
394.0450, 1661.000
395.2430, 1671.000
396.4410, 1659.000
397.6390, 1792.000
398.8360, 1875.000
400.0340, 1939.000
401.2310, 2006.000
402.4280, 2195.000
403.6250, 2360.000
404.8210, 2441.000
406.0180, 2620.000
407.2140, 2741.000
408.4100, 2824.000
409.6060, 2836.000
410.8020, 2733.000
411.9980, 2649.000
413.1930, 2521.000
414.3890, 2374.000
415.5840, 2256.000
416.7790, 2183.000
417.9740, 2070.599
419.1680, 1972.000
420.3630, 1923.000
421.5570, 1876.000
422.7510, 1855.000
423.9450, 1808.000
425.1390, 1821.000
426.3330, 1789.000
427.5270, 1756.000
428.7200, 1624.000
429.9130, 1540.000
431.1060, 1480.000
432.2990, 1441.000
433.4920, 1403.000
434.6840, 1368.000
435.8770, 1329.239
437.0690, 1299.543
438.2610, 1256.000
439.4530, 1233.000
440.6450, 1201.000
441.8360, 1151.000
443.0280, 1121.000
444.2190, 1090.000
445.4100, 1079.000
446.6010, 1042.000
447.7920, 1032.000
448.9820, 1046.000
450.1730, 956.0000
451.3630, 984.0000
452.5530, 949.0000
453.7430, 945.0000
454.9330, 918.0000
456.1230, 911.0310
457.3120, 910.0000
458.5010, 899.0000
459.6910, 895.0000
460.8800, 887.0000
462.0680, 888.0000
463.2570, 900.0000
464.4460, 869.0000
465.6340, 881.0000
466.8220, 852.0000
468.0100, 860.0000
469.1980, 871.0000
470.3860, 831.0000
471.5730, 850.0000
472.7600, 839.0000
473.9480, 854.0000
475.1350, 830.0000
476.3210, 809.0000
477.5080, 824.0000
478.6950, 851.0000
479.8810, 803.0000
481.0670, 835.0000
482.2530, 816.0000
483.4390, 795.0000
484.6250, 833.0000
485.8100, 816.0000
486.9960, 816.0000
488.1810, 822.0000
489.3660, 839.0000
490.5510, 799.0000
491.7360, 780.0000
492.9200, 813.0000
494.1050, 787.0000
495.2890, 800.0000
496.4730, 824.0000
497.6570, 762.0000
498.8400, 803.0000
500.0240, 806.0000
501.2070, 805.0000
502.3910, 796.0000
503.5740, 814.0000
504.7570, 811.0000
505.9400, 808.0000
507.1220, 783.0000
508.3050, 796.0000
509.4870, 809.0000
510.6690, 764.0000
511.8510, 772.0000
513.0330, 799.0000
514.2140, 786.0000
515.3960, 805.0000
516.5770, 775.0000
517.7580, 785.0000
518.9390, 794.0000
520.1200, 745.0000
521.3010, 804.0000
522.4810, 765.0000
523.6610, 799.0000
524.8420, 788.0000
526.0220, 768.0000
527.2010, 815.0000
528.3810, 781.0000
529.5610, 804.0000
530.7400, 746.0000
531.9190, 791.0000
533.0980, 739.0000
534.2770, 775.0000
535.4560, 786.0000
536.6340, 755.0000
537.8120, 783.0000
538.9910, 787.0000
540.1690, 766.0000
541.3460, 776.0000
542.5240, 763.0000
543.7020, 761.4697
544.8790, 774.0000
546.0560, 765.0000
547.2330, 760.0000
548.4100, 774.0000
549.5870, 791.0000
550.7630, 790.0000
551.9400, 795.0000
553.1160, 779.0000
554.2920, 795.0000
555.4680, 761.0000
556.6440, 768.0000
557.8190, 796.0000
558.9950, 789.0000
560.1700, 766.0000
561.3450, 803.0000
562.5200, 759.0000
563.6950, 777.0000
564.8690, 787.0000
566.0440, 785.0000
567.2180, 805.0000
568.3920, 803.0000
569.5660, 808.0000
570.7400, 807.0000
571.9130, 811.0000
573.0870, 803.0000
574.2600, 782.0000
575.4330, 795.0000
576.6060, 773.0000
577.7790, 778.0000
578.9520, 792.0000
580.1240, 775.0000
581.2960, 786.0000
582.4690, 789.0000
583.6410, 823.0000
584.8120, 785.0000
585.9840, 802.0000
587.1560, 786.0000
588.3270, 794.0000
589.4980, 808.0000
590.6690, 812.0000
591.8400, 800.0000
593.0110, 816.0840
594.1810, 802.0000
595.3510, 823.0000
596.5220, 814.0000
597.6920, 795.0000
598.8610, 824.0000
600.0310, 806.0000
601.2010, 853.0000
602.3700, 817.0000
603.5390, 863.0000
604.7080, 856.0000
605.8770, 831.0000
607.0460, 823.0000
608.2140, 811.0000
609.3830, 832.0000
610.5510, 804.0000
611.7190, 840.0000
612.8870, 825.0000
614.0550, 853.0000
615.2220, 833.0000
616.3900, 847.0000
617.5570, 839.0000
618.7240, 856.0000
619.8910, 833.0000
621.0580, 870.0000
622.2240, 814.0000
623.3910, 842.0000
624.5570, 845.0000
625.7230, 827.0000
626.8890, 825.0000
628.0550, 867.0000
629.2200, 823.0000
630.3860, 840.0000
631.5510, 806.0000
632.7160, 836.0000
633.8810, 811.0000
635.0460, 810.0000
636.2100, 836.0000
637.3750, 823.0000
638.5390, 813.0000
639.7030, 807.0000
640.8670, 846.0000
642.0310, 839.0000
643.1950, 820.0000
644.3580, 844.0000
645.5210, 797.0000
646.6850, 830.0000
647.8480, 854.0000
649.0100, 834.0000
650.1730, 857.0000
651.3350, 823.0000
652.4980, 832.0000
653.6600, 841.0000
654.8220, 809.0000
655.9840, 815.0000
657.1450, 847.0000
658.3070, 876.0000
659.4680, 826.0000
660.6300, 851.0000
661.7910, 862.0000
662.9510, 837.0000
664.1120, 858.0000
665.2730, 824.0000
666.4330, 841.0000
667.5930, 856.0000
668.7530, 826.0000
669.9130, 864.0000
671.0730, 861.0000
672.2320, 845.0000
673.3920, 868.0000
674.5510, 855.0000
675.7100, 869.0000
676.8690, 857.0000
678.0280, 864.0000
679.1860, 866.0000
680.3450, 865.0000
681.5030, 851.0000
682.6610, 870.0000
683.8190, 855.0000
684.9770, 858.0000
686.1340, 880.0000
687.2920, 858.0000
688.4490, 878.0000
689.6060, 913.0000
690.7630, 870.0000
691.9200, 898.0000
693.0760, 906.0000
694.2330, 877.0000
695.3890, 904.0000
696.5450, 892.0000
697.7010, 904.0000
698.8570, 929.0000
700.0130, 900.0000
701.1680, 935.0000
702.3230, 935.0000
703.4780, 919.0000
704.6330, 957.0000
705.7880, 926.0000
706.9430, 948.0000
708.0970, 956.0000
709.2520, 932.0000
710.4060, 981.0000
711.5600, 950.0000
712.7140, 979.0000
713.8670, 975.0000
715.0210, 1022.000
716.1740, 983.0000
717.3270, 992.0000
718.4800, 985.0000
719.6330, 1004.000
720.7860, 1008.000
721.9380, 1023.000
723.0910, 1028.000
724.2430, 1014.000
725.3950, 1065.000
726.5470, 1050.000
727.6980, 1081.000
728.8500, 1061.000
730.0010, 1110.000
731.1530, 1092.000
732.3040, 1126.000
733.4550, 1129.000
734.6050, 1131.000
735.7560, 1175.000
736.9060, 1164.000
738.0560, 1148.000
739.2060, 1155.000
740.3560, 1207.000
741.5060, 1246.000
742.6560, 1261.000
743.8050, 1296.254
744.9540, 1314.000
746.1030, 1337.000
747.2520, 1391.000
748.4010, 1409.000
749.5500, 1450.000
750.6980, 1530.000
751.8460, 1541.000
752.9950, 1673.000
754.1420, 1742.000
755.2900, 1839.000
756.4380, 1948.000
757.5850, 2165.000
758.7330, 2303.000
759.8800, 2500.000
761.0270, 2680.000
762.1730, 2938.000
763.3200, 3152.000
764.4670, 3275.000
765.6130, 3429.000
766.7590, 3410.000
767.9050, 3325.000
769.0510, 3202.000
770.1960, 3135.000
771.3420, 2970.000
772.4870, 2937.000
773.6320, 2832.000
774.7770, 2750.000
775.9220, 2849.000
777.0670, 2905.000
778.2110, 2984.000
779.3560, 3067.000
780.5000, 3272.000
781.6440, 3542.000
782.7880, 3639.000
783.9320, 3921.000
785.0750, 4073.000
786.2180, 4268.000
787.3620, 4284.000
788.5050, 4306.000
789.6480, 4333.000
790.7900, 4353.000
791.9330, 4483.000
793.0750, 4679.000
794.2170, 4962.000
795.3590, 5515.000
796.5010, 6246.000
797.6430, 7212.000
798.7850, 8662.000
799.9260, 10341.00
801.0670, 12602.00
802.2080, 15389.00
803.3490, 18953.00
804.4900, 22794.00
805.6310, 26102.00
806.7710, 28721.00
807.9110, 29891.00
809.0510, 30536.00
810.1910, 31409.00
811.3310, 32253.00
812.4710, 33501.00
813.6100, 34105.00
814.7490, 34161.00
815.8880, 32659.00
817.0270, 29902.00
818.1660, 26064.00
819.3050, 22020.00
820.4430, 18174.00
821.5820, 14952.00
822.7200, 12322.00
823.8580, 10440.00
824.9950, 8820.000
826.1330, 7621.000
827.2710, 6833.000
828.4080, 6029.000
829.5450, 5502.000
830.6820, 5034.000
831.8190, 4615.000
832.9560, 4340.000
834.0920, 4104.000
835.2280, 3807.000
836.3650, 3596.000
837.5010, 3358.000
838.6360, 3294.000
839.7720, 3097.000
840.9080, 2970.000
842.0430, 2870.000
843.1780, 2695.000
844.3130, 2696.000
845.4480, 2592.000
846.5830, 2504.000
847.7170, 2442.000
848.8520, 2345.000
849.9860, 2266.000
851.1200, 2252.000
852.2540, 2139.000
853.3870, 2152.000
854.5210, 1971.000
855.6540, 1955.000
856.7880, 1922.000
857.9210, 1872.000
859.0540, 1834.000
860.1860, 1764.000
861.3190, 1762.000
862.4510, 1730.000
863.5840, 1653.000
864.7160, 1661.000
865.8480, 1612.000
866.9790, 1608.000
868.1110, 1525.000
869.2420, 1552.000
870.3740, 1520.000
871.5050, 1496.000
872.6360, 1497.000
873.7660, 1476.000
874.8970, 1445.000
876.0280, 1395.000
877.1580, 1395.000
878.2880, 1377.000
879.4180, 1389.000
880.5480, 1346.000
881.6770, 1375.000
882.8070, 1325.000
883.9360, 1325.000
885.0650, 1347.000
886.1940, 1312.000
887.3230, 1306.000
888.4520, 1356.000
889.5800, 1281.000
890.7090, 1272.000
891.8370, 1221.000
892.9650, 1217.000
894.0930, 1249.000
895.2200, 1252.000
896.3480, 1231.000
897.4750, 1228.000
898.6020, 1205.000
899.7290, 1191.861
900.8560, 1181.268
901.9830, 1158.000
903.1090, 1162.000
904.2360, 1142.000
905.3620, 1142.000
906.4880, 1135.000
907.6140, 1134.000
908.7400, 1138.060
909.8650, 1107.000
910.9900, 1140.000
912.1160, 1119.000
913.2410, 1099.000
914.3660, 1057.000
915.4900, 1130.000
916.6150, 1105.000
917.7390, 1148.000
918.8640, 1159.000
919.9880, 1170.000
921.1120, 1155.000
922.2350, 1165.000
923.3590, 1136.000
924.4820, 1080.000
925.6060, 1104.000
926.7290, 1045.000
927.8520, 1036.000
928.9740, 1056.000
930.0970, 1082.000
931.2190, 1046.000
932.3420, 1071.000
933.4640, 1063.000
934.5860, 1012.000
935.7080, 1048.000
936.8290, 997.0000
937.9510, 1020.000
939.0720, 1020.000
940.1930, 1012.000
941.3140, 993.0000
942.4350, 1054.000
943.5560, 1029.000
944.6760, 1050.000
945.7960, 1022.000
946.9170, 1045.000
948.0370, 1021.000
949.1560, 1044.000
950.2760, 1021.000
951.3960, 1052.000
952.5150, 1037.000
953.6340, 1067.000
954.7530, 1030.000
955.8720, 1044.000
956.9910, 1038.000
958.1090, 1034.000
959.2280, 1027.000
960.3460, 1038.000
961.4640, 1023.000
962.5820, 1012.000
963.6990, 1040.000
964.8170, 1003.000
965.9340, 1024.000
967.0510, 1055.000
968.1690, 1004.000
969.2850, 1009.000
970.4020, 1025.000
971.5190, 985.0000
972.6350, 974.0000
973.7510, 1043.000
974.8670, 981.0000
975.9830, 1027.000
977.0990, 979.0000
978.2150, 1008.000
979.3300, 994.0000
980.4450, 1057.000
981.5600, 987.0000
982.6750, 998.0000
983.7900, 1011.000
984.9050, 997.0000
986.0190, 999.0000
987.1340, 1037.000
988.2480, 1015.000
989.3620, 982.0000
990.4750, 1026.000
991.5890, 981.0000
992.7020, 996.0000
993.8160, 1026.000
994.9290, 1013.000
996.0420, 1006.000
997.1550, 1025.000
998.2670, 1018.000
999.3800, 981.0000
1000.492, 1023.000
1001.604, 1012.000
1002.716, 1036.000
1003.828, 1039.000
1004.940, 1000.000
1006.051, 991.0000
1007.163, 1009.000
1008.274, 1004.000
1009.385, 1000.000
1010.496, 981.0000
1011.606, 970.0000
1012.717, 980.0000
1013.827, 970.0000
1014.937, 1008.000
1016.047, 994.0000
1017.157, 1009.000
1018.267, 999.0000
1019.377, 980.0000
1020.486, 965.0000
1021.595, 966.0000
1022.704, 957.1945
1023.813, 960.1131
1024.922, 964.0000
1026.030, 972.0000
1027.139, 994.0000
1028.247, 1006.000
1029.355, 1003.636
1030.463, 1006.549
1031.571, 992.0000
1032.678, 994.0000
1033.786, 983.0000
1034.893, 979.0000
1036.000, 984.0000
1037.107, 992.0000
1038.214, 954.0000
1039.321, 1005.000
1040.427, 964.0000
1041.533, 957.0000
1042.639, 975.0000
1043.745, 951.0000
1044.851, 974.0000
1045.957, 969.0000
1047.062, 984.0000
1048.168, 962.0000
1049.273, 971.0000
1050.378, 930.0000
1051.482, 942.0000
1052.587, 956.0000
1053.692, 981.0000
1054.796, 978.6582
1055.900, 977.0000
1057.004, 983.0000
1058.108, 947.0000
1059.212, 954.0000
1060.315, 949.0000
1061.418, 967.0000
1062.522, 985.0000
1063.625, 940.0000
1064.728, 958.0000
1065.830, 954.0000
1066.933, 998.0000
1068.035, 972.0000
1069.137, 980.0000
1070.239, 947.0000
1071.341, 960.0000
1072.443, 964.0000
1073.545, 954.0000
1074.646, 966.0000
1075.747, 955.0000
1076.848, 958.0000
1077.949, 974.0000
1079.050, 969.0000
1080.150, 978.0000
1081.251, 978.0000
1082.351, 974.0000
1083.451, 980.0000
1084.551, 969.0000
1085.651, 947.0000
1086.750, 971.0000
1087.850, 951.0000
1088.949, 965.0000
1090.048, 971.0000
1091.147, 997.0000
1092.246, 972.0000
1093.345, 985.0000
1094.443, 975.0000
1095.541, 989.0000
1096.639, 1006.000
1097.737, 990.0000
1098.835, 966.0000
1099.933, 976.0000
1101.030, 938.0000
1102.128, 996.0000
1103.225, 953.0000
1104.322, 987.0000
1105.419, 975.0000
1106.515, 981.0000
1107.612, 1006.000
1108.708, 1005.545
1109.804, 995.0000
1110.900, 1022.000
1111.996, 997.0000
1113.092, 987.0000
1114.187, 1018.000
1115.283, 1034.000
1116.378, 1015.000
1117.473, 1027.170
1118.568, 996.0000
1119.662, 1014.000
1120.757, 1019.000
1121.851, 1012.000
1122.946, 1014.000
1124.040, 1016.000
1125.134, 1046.000
1126.227, 1037.302
1127.321, 1041.560
1128.414, 1031.000
1129.508, 1031.000
1130.601, 1013.000
1131.693, 1001.000
1132.786, 1029.000
1133.879, 1007.000
1134.971, 984.0000
1136.064, 1020.000
1137.156, 1007.000
1138.248, 1011.000
1139.339, 1052.000
1140.431, 999.0000
1141.522, 1010.000
1142.614, 1040.000
1143.705, 985.0000
1144.796, 1007.000
1145.887, 1012.000
1146.977, 984.0000
1148.068, 1033.000
1149.158, 985.0000
1150.248, 1003.000
1151.338, 1059.000
1152.428, 1045.000
1153.518, 1037.000
1154.607, 1043.000
1155.696, 1031.000
1156.785, 1040.000
1157.874, 1049.000
1158.963, 1017.000
1160.052, 1044.000
1161.141, 1034.000
1162.229, 1023.000
1163.317, 1058.000
1164.405, 1042.000
1165.493, 1040.000
1166.581, 1043.000
1167.668, 1033.965
1168.756, 1036.000
1169.843, 1030.000
1170.930, 1037.000
1172.017, 1042.000
1173.103, 1068.000
1174.190, 1052.000
1175.276, 1016.000
1176.363, 1063.000
1177.449, 1034.000
1178.535, 1047.000
1179.620, 1021.000
1180.706, 1056.000
1181.791, 1045.000
1182.877, 1064.000
1183.962, 1027.000
1185.047, 1038.000
1186.131, 1042.000
1187.216, 1056.000
1188.300, 1053.000
1189.385, 1065.000
1190.469, 1079.000
1191.553, 1050.000
1192.637, 1050.000
1193.720, 1057.000
1194.804, 1050.000
1195.887, 1031.000
1196.970, 1033.000
1198.053, 1091.000
1199.136, 1100.000
1200.219, 1066.000
1201.301, 1082.000
1202.383, 1059.000
1203.465, 1097.000
1204.547, 1045.000
1205.629, 1076.000
1206.711, 1067.000
1207.792, 1074.000
1208.874, 1071.000
1209.955, 1068.000
1211.036, 1071.352
1212.117, 1075.000
1213.198, 1077.000
1214.278, 1085.000
1215.359, 1097.000
1216.439, 1053.000
1217.519, 1067.000
1218.599, 1055.000
1219.678, 1076.000
1220.758, 1053.000
1221.837, 1059.000
1222.917, 1070.000
1223.996, 1064.000
1225.075, 1068.000
1226.153, 1110.000
1227.232, 1060.000
1228.310, 1112.000
1229.389, 1105.000
1230.467, 1083.000
1231.545, 1081.000
1232.622, 1073.000
1233.700, 1065.000
1234.777, 1056.000
1235.855, 1086.000
1236.932, 1051.000
1238.009, 1113.000
1239.086, 1075.000
1240.162, 1093.000
1241.239, 1073.000
1242.315, 1072.000
1243.391, 1077.000
1244.467, 1081.000
1245.543, 1064.000
1246.619, 1073.000
1247.694, 1060.000
1248.769, 1084.000
1249.844, 1105.000
1250.919, 1061.000
1251.994, 1094.000
1253.069, 1060.000
1254.144, 1092.000
1255.218, 1091.000
1256.292, 1099.000
1257.366, 1053.000
1258.440, 1083.000
1259.514, 1074.000
1260.587, 1115.000
1261.661, 1086.000
1262.734, 1104.000
1263.807, 1070.000
1264.880, 1081.000
1265.952, 1102.000
1267.025, 1104.000
1268.097, 1109.929
1269.170, 1094.000
1270.242, 1098.000
1271.314, 1109.000
1272.385, 1077.000
1273.457, 1080.000
1274.528, 1071.000
1275.600, 1069.915
1276.671, 1078.000
1277.742, 1076.000
1278.812, 1070.000
1279.883, 1061.000
1280.954, 1079.000
1282.024, 1083.000
1283.094, 1093.000
1284.164, 1082.000
1285.234, 1094.581
1286.303, 1092.229
1287.373, 1105.000
1288.442, 1089.000
1289.511, 1084.000
1290.580, 1073.000
1291.649, 1077.000
1292.718, 1068.000
1293.786, 1072.000
1294.855, 1060.000
1295.923, 1080.000
1296.991, 1055.000
1298.059, 1049.000
1299.126, 1079.000
1300.194, 1072.000
1301.261, 1065.000
1302.328, 1063.000
1303.395, 1086.000
1304.462, 1077.000
1305.529, 1080.000
1306.596, 1089.000
1307.662, 1054.000
1308.728, 1061.000
1309.794, 1058.000
1310.860, 1052.988
1311.926, 1061.674
1312.991, 1066.000
1314.057, 1067.000
1315.122, 1085.000
1316.187, 1074.000
1317.252, 1084.000
1318.317, 1074.000
1319.381, 1067.000
1320.446, 1120.000
1321.510, 1076.000
1322.574, 1096.000
1323.638, 1083.000
1324.702, 1056.000
1325.766, 1104.000
1326.829, 1095.000
1327.892, 1109.000
1328.956, 1076.000
1330.019, 1082.000
1331.081, 1098.000
1332.144, 1122.000
1333.206, 1113.612
1334.269, 1085.000
1335.331, 1106.000
1336.393, 1088.000
1337.455, 1089.000
1338.516, 1095.000
1339.578, 1089.000
1340.639, 1097.819
1341.701, 1101.000
1342.762, 1107.631
1343.822, 1107.092
1344.883, 1105.000
1345.944, 1095.000
1347.004, 1094.000
1348.064, 1084.000
1349.124, 1086.030
1350.184, 1088.061
1351.244, 1086.000
1352.304, 1100.000
1353.363, 1092.000
1354.422, 1101.000
1355.481, 1096.000
1356.540, 1093.000
1357.599, 1091.148
1358.657, 1090.000
1359.716, 1079.000
1360.774, 1086.000
1361.832, 1078.000
1362.890, 1099.000
1363.948, 1114.000
1365.006, 1123.000
1366.063, 1049.000
1367.120, 1110.000
1368.178, 1079.000
1369.234, 1119.000
1370.291, 1099.000
1371.348, 1110.000
1372.404, 1107.000
1373.461, 1134.000
1374.517, 1101.000
1375.573, 1123.000
1376.629, 1121.000
1377.684, 1107.000
1378.740, 1110.340
1379.795, 1101.000
1380.850, 1105.000
1381.905, 1085.000
1382.960, 1106.000
1384.015, 1099.000
1385.070, 1067.000
1386.124, 1139.000
1387.178, 1122.000
1388.232, 1122.000
1389.286, 1083.000
1390.340, 1110.000
1391.393, 1125.000
1392.447, 1097.000
1393.500, 1129.000
1394.553, 1154.000
1395.606, 1129.000
1396.659, 1134.000
1397.711, 1104.000
1398.764, 1105.000
1399.816, 1115.000
1400.868, 1142.000
1401.920, 1074.000
1402.972, 1118.000
1404.023, 1117.000
1405.075, 1158.000
1406.126, 1166.000
1407.177, 1160.258
1408.228, 1160.752
1409.279, 1140.000
1410.330, 1133.000
1411.380, 1122.000
1412.431, 1120.000
1413.481, 1127.000
1414.531, 1145.000
1415.580, 1121.000
1416.630, 1084.000
1417.680, 1146.000
1418.729, 1112.000
1419.778, 1124.000
1420.827, 1145.000
1421.876, 1126.000
1422.925, 1104.000
1423.973, 1151.000
1425.022, 1105.000
1426.070, 1172.000
1427.118, 1136.000
1428.166, 1163.000
1429.214, 1103.000
1430.261, 1144.000
1431.309, 1134.000
1432.356, 1133.000
1433.403, 1176.000
1434.450, 1133.000
1435.497, 1126.000
1436.543, 1173.000
1437.590, 1132.000
1438.636, 1159.000
1439.682, 1153.000
1440.728, 1165.000
1441.774, 1175.000
1442.819, 1152.000
1443.865, 1154.000
1444.910, 1186.000
1445.955, 1172.000
1447.000, 1182.831
1448.045, 1185.348
1449.090, 1180.000
1450.134, 1173.000
1451.178, 1160.000
1452.223, 1160.298
1453.267, 1152.801
1454.310, 1159.000
1455.354, 1155.000
1456.398, 1158.000
1457.441, 1181.000
1458.484, 1139.000
1459.527, 1162.000
1460.570, 1155.000
1461.613, 1121.000
1462.655, 1122.000
1463.698, 1121.012
1464.740, 1123.714
1465.782, 1136.000
1466.824, 1155.000
1467.866, 1165.000
1468.907, 1188.000
1469.948, 1146.000
1470.990, 1149.000
1472.031, 1170.000
1473.072, 1202.000
1474.112, 1150.000
1475.153, 1144.000
1476.194, 1180.000
1477.234, 1137.000
1478.274, 1154.000
1479.314, 1180.000
1480.354, 1166.000
1481.393, 1174.000
1482.433, 1169.000
1483.472, 1169.000
1484.511, 1140.000
1485.550, 1119.000
1486.589, 1163.000
1487.628, 1127.000
1488.666, 1158.000
1489.704, 1204.000
1490.743, 1142.000
1491.781, 1192.000
1492.819, 1169.000
1493.856, 1155.000
1494.894, 1213.000
1495.931, 1127.000
1496.968, 1195.000
1498.005, 1176.000
1499.042, 1167.000
1500.079, 1163.000
1501.115, 1175.000
1502.152, 1208.000
1503.188, 1189.000
1504.224, 1189.000
1505.260, 1183.000
1506.296, 1170.321
1507.331, 1191.000
1508.367, 1160.000
1509.402, 1170.000
1510.437, 1188.000
1511.472, 1222.000
1512.507, 1184.000
1513.541, 1178.000
1514.576, 1162.000
1515.610, 1161.418
1516.644, 1161.390
1517.678, 1181.000
1518.712, 1171.000
1519.746, 1191.000
1520.779, 1199.000
1521.813, 1203.000
1522.846, 1209.000
1523.879, 1206.100
1524.912, 1210.719
1525.944, 1202.000
1526.977, 1211.000
1528.009, 1220.000
1529.041, 1213.563
1530.073, 1213.000
1531.105, 1196.000
1532.137, 1207.000
1533.168, 1204.000
1534.200, 1221.000
1535.231, 1215.000
1536.262, 1188.000
1537.293, 1176.000
1538.324, 1180.000
1539.354, 1200.000
1540.385, 1195.000
1541.415, 1197.261
1542.445, 1210.000
1543.475, 1192.000
1544.505, 1214.000
1545.534, 1219.000
1546.564, 1214.000
1547.593, 1197.000
1548.622, 1197.000
1549.651, 1242.000
1550.680, 1227.000
1551.708, 1227.000
1552.737, 1186.000
1553.765, 1202.000
1554.793, 1242.000
1555.821, 1208.000
1556.849, 1230.000
1557.877, 1230.000
1558.904, 1195.000
1559.932, 1224.000
1560.959, 1214.000
1561.986, 1213.000
1563.013, 1308.000
##END=



