##NAMES=Mimetite
##RRUFFID=R050527
##IDEAL CHEMISTRY=Pb^2+^_5_(As^5+^O_4_)_3_Cl
##LOCALITY=Tsumeb mine, Tsumeb, Otavi District, Oshikoto, Namibia
##OWNER=RRUFF
##SOURCE=University of Arizona Mineral Museum
##DESCRIPTION=Yellow hexagonal prisms, monoclinic polytype
##STATUS=The identification of this mineral has been confirmed by X-ray diffraction and chemical analysis
##URL=rruff.info/R050527
##MEASURED CHEMISTRY=Pb_5.00_(As_1.00_O_4_)_3_Cl_1.00_
##PIN_ID=M01947
##ORIENTATION=Laser parallel to -c* (0 0 -1). Fiducial mark perpendicular to laser is parallel to a [1 0 0]
61.07900, 653.0000
62.32000, 686.0000
63.56100, 701.0000
64.80100, 762.0000
66.04100, 785.0000
67.28100, 870.0000
68.52100, 954.0000
69.76100, 1081.000
71.00100, 1155.000
72.24000, 1250.000
73.47900, 1426.000
74.71800, 1605.000
75.95700, 1828.000
77.19600, 2050.000
78.43500, 2402.000
79.67300, 2826.000
80.91200, 3222.000
82.15000, 3514.000
83.38800, 3811.000
84.62600, 4138.000
85.86300, 4711.000
87.10100, 5214.000
88.33800, 5848.000
89.57500, 6313.000
90.81200, 6742.000
92.04900, 6968.000
93.28600, 7265.000
94.52300, 7148.000
95.75900, 7294.000
96.99500, 7350.000
98.23100, 7679.000
99.46700, 8273.000
100.7030, 8585.000
101.9390, 8580.000
103.1740, 8741.000
104.4090, 8258.000
105.6440, 7819.000
106.8790, 7112.000
108.1140, 6565.000
109.3490, 6047.000
110.5830, 5563.000
111.8180, 5233.000
113.0520, 4943.000
114.2860, 4634.000
115.5200, 4466.000
116.7530, 4271.000
117.9870, 4178.000
119.2200, 4086.000
120.4530, 3929.000
121.6860, 3811.000
122.9190, 3414.000
124.1520, 3420.000
125.3850, 3233.000
126.6170, 3180.000
127.8490, 3053.000
129.0810, 2949.000
130.3130, 2955.000
131.5450, 2879.000
132.7770, 2817.000
134.0080, 2771.000
135.2390, 2808.000
136.4710, 2774.000
137.7020, 2761.000
138.9320, 2845.000
140.1630, 2874.000
141.3930, 2880.000
142.6240, 2980.000
143.8540, 2949.000
145.0840, 2995.000
146.3140, 2969.000
147.5440, 3021.000
148.7730, 2998.000
150.0020, 3002.000
151.2320, 3050.000
152.4610, 2995.000
153.6900, 2988.000
154.9180, 2868.000
156.1470, 2919.000
157.3750, 2844.000
158.6040, 2803.000
159.8320, 2838.000
161.0600, 2800.000
162.2870, 2710.000
163.5150, 2724.000
164.7420, 2735.000
165.9700, 2758.000
167.1970, 2763.000
168.4240, 2787.000
169.6510, 2750.000
170.8770, 2715.000
172.1040, 2797.000
173.3300, 2799.000
174.5560, 2748.000
175.7820, 2689.000
177.0080, 2636.000
178.2340, 2654.000
179.4590, 2644.000
180.6850, 2594.000
181.9100, 2577.000
183.1350, 2556.000
184.3600, 2499.000
185.5850, 2469.000
186.8090, 2523.000
188.0340, 2523.000
189.2580, 2482.000
190.4820, 2433.000
191.7060, 2443.000
192.9300, 2432.000
194.1530, 2358.000
195.3770, 2285.000
196.6000, 2249.000
197.8230, 2272.000
199.0460, 2271.000
200.2690, 2188.000
201.4910, 2181.000
202.7140, 2102.000
203.9360, 2041.000
205.1580, 2040.000
206.3800, 2004.000
207.6020, 1943.000
208.8240, 1931.000
210.0450, 1839.000
211.2670, 1899.000
212.4880, 1780.000
213.7090, 1796.000
214.9300, 1750.000
216.1510, 1734.000
217.3710, 1677.000
218.5920, 1648.000
219.8120, 1678.000
221.0320, 1607.000
222.2520, 1608.000
223.4720, 1559.000
224.6910, 1567.000
225.9110, 1467.000
227.1300, 1468.000
228.3490, 1401.000
229.5680, 1434.000
230.7870, 1427.000
232.0050, 1384.000
233.2240, 1402.000
234.4420, 1364.000
235.6600, 1382.000
236.8780, 1364.000
238.0960, 1303.000
239.3140, 1322.000
240.5310, 1321.000
241.7490, 1303.000
242.9660, 1289.000
244.1830, 1231.000
245.4000, 1246.000
246.6160, 1219.000
247.8330, 1243.000
249.0490, 1215.000
250.2660, 1235.000
251.4820, 1191.000
252.6980, 1177.000
253.9130, 1193.000
255.1290, 1182.000
256.3440, 1164.000
257.5600, 1175.000
258.7750, 1122.000
259.9900, 1139.000
261.2040, 1128.000
262.4190, 1115.000
263.6330, 1120.000
264.8480, 1126.000
266.0620, 1137.000
267.2760, 1076.000
268.4900, 1079.000
269.7030, 1076.000
270.9170, 1080.000
272.1300, 1071.000
273.3430, 1074.000
274.5560, 1063.000
275.7690, 1106.000
276.9820, 1057.000
278.1940, 1038.000
279.4070, 1056.000
280.6190, 1107.000
281.8310, 1091.000
283.0430, 1049.000
284.2550, 1064.000
285.4660, 1036.000
286.6770, 1061.000
287.8890, 1084.000
289.1000, 1103.000
290.3110, 1075.000
291.5210, 1099.000
292.7320, 1090.000
293.9420, 1149.000
295.1530, 1124.000
296.3630, 1152.000
297.5730, 1204.000
298.7830, 1276.000
299.9920, 1324.000
301.2020, 1369.000
302.4110, 1471.000
303.6200, 1539.000
304.8290, 1560.000
306.0380, 1664.000
307.2470, 1728.000
308.4550, 1759.000
309.6630, 1805.000
310.8720, 1811.000
312.0800, 1821.000
313.2880, 1875.000
314.4950, 1908.000
315.7030, 1953.000
316.9100, 1869.000
318.1170, 1824.000
319.3240, 1806.000
320.5310, 1771.000
321.7380, 1766.000
322.9450, 1776.000
324.1510, 1713.000
325.3570, 1779.000
326.5630, 1749.000
327.7690, 1723.000
328.9750, 1763.000
330.1810, 1828.000
331.3860, 1874.000
332.5910, 1908.000
333.7960, 1968.735
335.0010, 2029.000
336.2060, 2065.000
337.4110, 2125.000
338.6150, 2158.000
339.8200, 2173.000
341.0240, 2190.190
342.2280, 2190.000
343.4320, 2177.000
344.6350, 2127.000
345.8390, 2090.000
347.0420, 2047.000
348.2450, 2001.000
349.4480, 1928.045
350.6510, 1865.000
351.8540, 1772.000
353.0560, 1706.000
354.2590, 1637.000
355.4610, 1582.000
356.6630, 1528.000
357.8650, 1516.015
359.0670, 1472.000
360.2680, 1534.000
361.4700, 1545.000
362.6710, 1600.000
363.8720, 1611.000
365.0730, 1734.000
366.2740, 1814.000
367.4740, 1990.000
368.6750, 2166.000
369.8750, 2347.000
371.0750, 2488.000
372.2750, 2600.000
373.4750, 2595.000
374.6740, 2599.000
375.8740, 2420.000
377.0730, 2236.000
378.2720, 1979.000
379.4710, 1931.000
380.6700, 1793.000
381.8690, 1603.000
383.0670, 1571.000
384.2660, 1524.000
385.4640, 1458.000
386.6620, 1417.000
387.8600, 1356.000
389.0570, 1369.000
390.2550, 1336.000
391.4520, 1333.000
392.6490, 1317.000
393.8460, 1290.000
395.0430, 1297.000
396.2400, 1237.000
397.4370, 1239.000
398.6330, 1240.000
399.8290, 1251.000
401.0250, 1258.000
402.2210, 1257.000
403.4170, 1288.000
404.6130, 1291.891
405.8080, 1298.000
407.0030, 1316.000
408.1980, 1317.000
409.3930, 1321.000
410.5880, 1389.000
411.7830, 1425.000
412.9770, 1425.000
414.1720, 1469.000
415.3660, 1551.000
416.5600, 1529.000
417.7530, 1603.000
418.9470, 1702.000
420.1410, 1778.000
421.3340, 1845.000
422.5270, 1892.000
423.7200, 1947.000
424.9130, 1919.000
426.1060, 1896.000
427.2980, 1869.000
428.4900, 1777.000
429.6830, 1651.000
430.8750, 1607.000
432.0670, 1491.000
433.2580, 1388.000
434.4500, 1299.000
435.6410, 1255.000
436.8320, 1251.000
438.0240, 1163.000
439.2140, 1113.000
440.4050, 1103.000
441.5960, 1056.000
442.7860, 1056.000
443.9760, 1039.000
445.1670, 1000.000
446.3560, 968.0000
447.5460, 954.0000
448.7360, 985.0000
449.9250, 958.0000
451.1150, 947.0000
452.3040, 942.0000
453.4930, 920.0000
454.6810, 909.9769
455.8700, 897.1279
457.0590, 890.0000
458.2470, 872.0000
459.4350, 883.0000
460.6230, 874.0000
461.8110, 890.0000
462.9980, 846.0000
464.1860, 867.0000
465.3730, 839.0000
466.5600, 843.0000
467.7470, 851.0000
468.9340, 847.0000
470.1210, 846.1142
471.3080, 816.0000
472.4940, 834.0000
473.6800, 818.0000
474.8660, 807.0000
476.0520, 847.0000
477.2380, 840.0000
478.4230, 864.0000
479.6090, 818.0000
480.7940, 845.0000
481.9790, 822.0000
483.1640, 819.0000
484.3490, 825.0000
485.5330, 806.0000
486.7180, 827.0000
487.9020, 837.0000
489.0860, 802.0000
490.2700, 823.0000
491.4540, 807.0000
492.6370, 834.0000
493.8210, 816.0000
495.0040, 819.0000
496.1870, 815.0000
497.3700, 811.0000
498.5530, 813.0762
499.7360, 809.0000
500.9180, 815.0000
502.1000, 810.5333
503.2830, 813.0000
504.4650, 815.0000
505.6460, 812.0000
506.8280, 824.0000
508.0100, 786.0000
509.1910, 805.0000
510.3720, 791.0000
511.5530, 822.0000
512.7340, 830.0000
513.9150, 818.0000
515.0950, 833.0000
516.2760, 830.0288
517.4560, 825.1345
518.6360, 825.0000
519.8160, 811.0000
520.9950, 811.5994
522.1750, 813.1147
523.3540, 806.0000
524.5340, 810.0000
525.7130, 808.0000
526.8920, 781.0000
528.0700, 822.0000
529.2490, 803.0000
530.4270, 795.0000
531.6060, 767.0000
532.7840, 774.4903
533.9620, 767.0000
535.1390, 790.0000
536.3170, 790.0000
537.4940, 806.0000
538.6720, 807.0000
539.8490, 777.0000
541.0260, 798.0000
542.2030, 790.0000
543.3790, 770.0000
544.5560, 788.0000
545.7320, 784.0000
546.9080, 791.0000
548.0840, 793.0000
549.2600, 799.0000
550.4360, 789.0000
551.6110, 801.0000
552.7860, 797.0000
553.9620, 811.0000
555.1370, 783.0000
556.3110, 795.0000
557.4860, 809.0000
558.6610, 775.0000
559.8350, 801.0000
561.0090, 771.0000
562.1830, 787.0000
563.3570, 800.0000
564.5310, 795.0000
565.7040, 803.0000
566.8780, 794.0000
568.0510, 777.0000
569.2240, 797.0000
570.3970, 789.0000
571.5700, 801.0000
572.7420, 816.0000
573.9150, 824.0000
575.0870, 795.0000
576.2590, 796.0000
577.4310, 803.0000
578.6030, 831.0000
579.7740, 805.0000
580.9460, 799.0000
582.1170, 780.0000
583.2880, 803.0000
584.4590, 786.0026
585.6300, 790.0344
586.8010, 783.0000
587.9710, 792.0000
589.1410, 809.0000
590.3110, 812.0000
591.4810, 820.5115
592.6510, 817.0000
593.8210, 832.0000
594.9900, 822.0000
596.1600, 830.0000
597.3290, 811.0000
598.4980, 834.0000
599.6670, 860.0000
600.8350, 835.0000
602.0040, 820.0000
603.1720, 871.0000
604.3400, 843.0000
605.5080, 850.0000
606.6760, 842.0000
607.8440, 857.0000
609.0120, 845.0000
610.1790, 862.0000
611.3460, 861.0000
612.5130, 866.0000
613.6800, 865.0000
614.8470, 855.0000
616.0130, 859.0000
617.1800, 859.0000
618.3460, 833.0000
619.5120, 848.0000
620.6780, 840.0000
621.8440, 866.0000
623.0090, 883.0000
624.1750, 858.0000
625.3400, 868.0000
626.5050, 881.0000
627.6700, 843.0000
628.8350, 862.0000
629.9990, 845.0000
631.1640, 818.0000
632.3280, 845.0000
633.4920, 855.0000
634.6560, 859.0000
635.8200, 817.0000
636.9840, 854.0000
638.1470, 829.0000
639.3100, 847.0000
640.4730, 822.0000
641.6360, 813.0000
642.7990, 823.0000
643.9620, 832.0000
645.1240, 861.0000
646.2870, 838.0000
647.4490, 853.0000
648.6110, 856.0000
649.7730, 830.0000
650.9340, 839.0000
652.0960, 841.0000
653.2570, 845.0000
654.4180, 850.0000
655.5790, 834.0000
656.7400, 845.0000
657.9010, 835.0000
659.0620, 822.0000
660.2220, 876.0000
661.3820, 824.0000
662.5420, 853.0000
663.7020, 814.0000
664.8620, 868.0000
666.0210, 823.0000
667.1810, 865.0000
668.3400, 842.0000
669.4990, 844.0000
670.6580, 859.0000
671.8170, 853.0000
672.9750, 841.0000
674.1340, 846.0000
675.2920, 841.0000
676.4500, 861.0000
677.6080, 840.0000
678.7660, 851.0000
679.9230, 833.0000
681.0810, 855.0000
682.2380, 881.0000
683.3950, 868.0000
684.5520, 876.0000
685.7090, 891.0000
686.8660, 886.7437
688.0220, 880.0000
689.1780, 887.0000
690.3340, 897.0000
691.4900, 882.0000
692.6460, 883.0000
693.8020, 905.0000
694.9570, 884.0000
696.1130, 893.0000
697.2680, 924.0000
698.4230, 923.0000
699.5780, 896.0000
700.7320, 921.0000
701.8870, 903.0000
703.0410, 914.0000
704.1950, 933.0000
705.3490, 949.0000
706.5030, 930.0000
707.6570, 953.0000
708.8110, 964.0000
709.9640, 979.0000
711.1170, 960.0000
712.2700, 986.0000
713.4230, 973.0000
714.5760, 958.0000
715.7280, 994.0000
716.8810, 983.0000
718.0330, 1006.000
719.1850, 1026.000
720.3370, 1032.000
721.4890, 1048.000
722.6400, 1069.000
723.7920, 1048.000
724.9430, 1077.000
726.0940, 1084.000
727.2450, 1095.000
728.3960, 1075.000
729.5460, 1101.000
730.6970, 1164.000
731.8470, 1129.000
732.9970, 1161.000
734.1470, 1153.000
735.2970, 1160.000
736.4460, 1224.000
737.5960, 1223.000
738.7450, 1241.000
739.8940, 1289.000
741.0430, 1266.000
742.1920, 1327.000
743.3410, 1347.000
744.4890, 1393.000
745.6370, 1368.000
746.7850, 1396.000
747.9330, 1407.000
749.0810, 1511.000
750.2290, 1562.000
751.3760, 1628.000
752.5240, 1699.000
753.6710, 1830.000
754.8180, 1871.000
755.9650, 1991.000
757.1110, 2184.000
758.2580, 2374.000
759.4040, 2661.000
760.5510, 2957.000
761.6970, 3282.000
762.8420, 3725.000
763.9880, 4107.000
765.1340, 4524.000
766.2790, 4917.000
767.4240, 4973.000
768.5690, 5103.000
769.7140, 4945.000
770.8590, 4867.000
772.0030, 4651.000
773.1480, 4531.000
774.2920, 4271.000
775.4360, 4093.000
776.5800, 4012.000
777.7240, 3909.000
778.8670, 3844.000
780.0110, 3875.000
781.1540, 4084.000
782.2970, 4281.000
783.4400, 4413.000
784.5830, 4693.000
785.7250, 4932.000
786.8680, 5286.000
788.0100, 5463.000
789.1520, 5610.000
790.2940, 5708.000
791.4360, 5626.000
792.5780, 5660.000
793.7190, 5825.000
794.8600, 5993.000
796.0010, 6344.000
797.1420, 6904.000
798.2830, 7451.000
799.4240, 8280.000
800.5640, 9392.000
801.7050, 10734.00
802.8450, 12825.00
803.9850, 15586.00
805.1250, 19516.00
806.2640, 23854.00
807.4040, 27411.00
808.5430, 29288.00
809.6820, 29060.00
810.8210, 27913.00
811.9600, 26264.00
813.0990, 24219.00
814.2370, 22958.00
815.3760, 21492.00
816.5140, 19522.00
817.6520, 17436.00
818.7900, 15073.00
819.9270, 12730.00
821.0650, 10639.00
822.2020, 8792.000
823.3390, 7279.000
824.4760, 6346.000
825.6130, 5464.000
826.7500, 4990.000
827.8870, 4370.000
829.0230, 3935.000
830.1590, 3688.000
831.2950, 3430.000
832.4310, 3217.000
833.5670, 2987.000
834.7030, 2856.000
835.8380, 2729.000
836.9730, 2582.000
838.1080, 2503.000
839.2430, 2411.000
840.3780, 2286.000
841.5130, 2241.000
842.6470, 2194.000
843.7810, 2175.000
844.9150, 2097.000
846.0490, 2036.000
847.1830, 1968.000
848.3170, 1937.000
849.4500, 1883.000
850.5830, 1889.000
851.7160, 1807.000
852.8490, 1787.000
853.9820, 1752.000
855.1150, 1711.000
856.2470, 1721.000
857.3800, 1654.000
858.5120, 1572.000
859.6440, 1616.000
860.7760, 1518.000
861.9070, 1586.000
863.0390, 1534.000
864.1700, 1466.000
865.3010, 1474.000
866.4320, 1478.000
867.5630, 1450.000
868.6940, 1449.000
869.8240, 1434.000
870.9540, 1399.000
872.0850, 1392.869
873.2150, 1328.000
874.3450, 1362.000
875.4740, 1326.000
876.6040, 1316.000
877.7330, 1325.000
878.8620, 1312.000
879.9910, 1337.000
881.1200, 1243.000
882.2490, 1241.000
883.3770, 1240.000
884.5060, 1282.000
885.6340, 1228.000
886.7620, 1283.000
887.8900, 1248.000
889.0180, 1254.000
890.1450, 1223.000
891.2730, 1223.000
892.4000, 1206.000
893.5270, 1190.000
894.6540, 1174.000
895.7810, 1175.000
896.9070, 1175.000
898.0340, 1176.000
899.1600, 1161.000
900.2860, 1110.000
901.4120, 1115.000
902.5380, 1085.000
903.6630, 1081.000
904.7890, 1102.000
905.9140, 1088.000
907.0390, 1086.000
908.1640, 1059.000
909.2890, 1056.000
910.4130, 1038.000
911.5380, 1038.000
912.6620, 1031.295
913.7860, 1052.000
914.9100, 1034.000
916.0340, 1023.000
917.1580, 1045.000
918.2810, 1045.000
919.4040, 1094.000
920.5280, 1041.000
921.6510, 1095.000
922.7730, 1080.000
923.8960, 1060.000
925.0180, 1045.000
926.1410, 1023.383
927.2630, 1043.000
928.3850, 988.0000
929.5070, 952.0000
930.6280, 950.0000
931.7500, 964.0000
932.8710, 941.0000
933.9920, 972.0000
935.1130, 939.0000
936.2340, 957.0000
937.3550, 972.0000
938.4760, 951.0000
939.5960, 906.0000
940.7160, 928.0000
941.8360, 932.0000
942.9560, 923.0000
944.0760, 944.0000
945.1950, 910.0000
946.3150, 937.0000
947.4340, 915.0000
948.5530, 901.0000
949.6720, 885.0000
950.7900, 922.0000
951.9090, 931.0000
953.0270, 951.0000
954.1460, 932.0000
955.2640, 931.0000
956.3820, 910.0000
957.4990, 938.0000
958.6170, 943.0000
959.7340, 928.0000
960.8520, 930.0000
961.9690, 908.0000
963.0860, 904.0000
964.2020, 929.0000
965.3190, 915.0000
966.4350, 950.0000
967.5520, 936.0000
968.6680, 899.0000
969.7840, 959.0000
970.8990, 922.0000
972.0150, 896.0000
973.1310, 909.0000
974.2460, 931.0000
975.3610, 883.0000
976.4760, 895.0000
977.5910, 876.0000
978.7050, 885.0000
979.8200, 894.0000
980.9340, 878.0000
982.0480, 905.0000
983.1620, 875.0000
984.2760, 924.0000
985.3900, 926.0000
986.5030, 906.0000
987.6160, 910.0000
988.7300, 908.0000
989.8430, 905.0000
990.9550, 890.0000
992.0680, 918.0000
993.1810, 895.0000
994.2930, 916.0000
995.4050, 897.0000
996.5170, 917.0000
997.6290, 911.0000
998.7410, 900.0000
999.8520, 921.0000
1000.964, 927.0000
1002.075, 913.0000
1003.186, 964.0000
1004.297, 933.0000
1005.407, 928.0000
1006.518, 940.0000
1007.628, 951.0000
1008.738, 902.0000
1009.848, 896.0000
1010.958, 864.0000
1012.068, 884.0000
1013.178, 906.0000
1014.287, 862.0000
1015.396, 882.0000
1016.505, 916.0000
1017.614, 907.0000
1018.723, 903.0000
1019.831, 898.0000
1020.940, 913.0000
1022.048, 907.0000
1023.156, 916.0000
1024.264, 909.0000
1025.372, 911.8609
1026.479, 902.0000
1027.587, 915.0000
1028.694, 903.0000
1029.801, 905.1979
1030.908, 865.0000
1032.015, 889.0000
1033.121, 874.0000
1034.228, 874.0000
1035.334, 876.7643
1036.440, 889.0000
1037.546, 892.2542
1038.652, 891.0000
1039.758, 906.0000
1040.863, 912.0000
1041.968, 915.0000
1043.074, 907.0000
1044.178, 889.0000
1045.283, 907.0000
1046.388, 918.0000
1047.492, 896.0000
1048.597, 883.0000
1049.701, 901.0000
1050.805, 880.0000
1051.909, 889.0000
1053.012, 907.0000
1054.116, 895.0000
1055.219, 905.0000
1056.322, 885.0000
1057.425, 907.0000
1058.528, 875.0000
1059.631, 884.0000
1060.733, 903.0000
1061.836, 886.0000
1062.938, 901.0000
1064.040, 898.0000
1065.142, 875.0000
1066.243, 920.0000
1067.345, 920.0000
1068.446, 897.0000
1069.547, 921.0000
1070.648, 893.0000
1071.749, 896.0000
1072.850, 884.0000
1073.951, 897.0000
1075.051, 883.0000
1076.151, 920.0000
1077.251, 905.0000
1078.351, 916.0000
1079.451, 914.0000
1080.550, 907.0000
1081.650, 920.0000
1082.749, 876.0000
1083.848, 938.0000
1084.947, 915.0000
1086.046, 931.0000
1087.144, 900.0000
1088.243, 933.0000
1089.341, 940.0000
1090.439, 915.0000
1091.537, 881.0000
1092.635, 883.0000
1093.732, 878.0226
1094.830, 893.0000
1095.927, 894.0000
1097.024, 908.0000
1098.121, 912.0000
1099.218, 911.2096
1100.314, 907.0000
1101.411, 900.0000
1102.507, 897.0000
1103.603, 876.0000
1104.699, 891.0000
1105.795, 933.0000
1106.890, 913.0000
1107.986, 920.0000
1109.081, 894.0000
1110.176, 898.0000
1111.271, 911.0000
1112.366, 909.0000
1113.461, 917.6264
1114.555, 912.0000
1115.649, 926.0000
1116.744, 926.0000
1117.838, 924.0000
1118.931, 907.0000
1120.025, 933.0000
1121.119, 899.0000
1122.212, 908.0000
1123.305, 925.0000
1124.398, 933.0000
1125.491, 945.0000
1126.584, 923.0000
1127.676, 919.0000
1128.768, 896.0000
1129.861, 933.0000
1130.953, 934.0000
1132.044, 931.0000
1133.136, 915.0000
1134.228, 915.0000
1135.319, 895.0000
1136.410, 902.2665
1137.501, 934.0000
1138.592, 912.0000
1139.683, 924.0000
1140.773, 924.0000
1141.864, 928.0000
1142.954, 939.0000
1144.044, 926.0000
1145.134, 914.0000
1146.224, 934.0000
1147.313, 951.0000
1148.402, 918.0000
1149.492, 948.0000
1150.581, 919.0000
1151.670, 937.0000
1152.758, 938.0000
1153.847, 959.0000
1154.935, 946.0000
1156.024, 928.0000
1157.112, 962.0000
1158.200, 914.0000
1159.287, 921.0000
1160.375, 962.0000
1161.462, 916.0000
1162.550, 975.0000
1163.637, 933.0000
1164.724, 955.0000
1165.810, 971.0000
1166.897, 940.0000
1167.983, 939.0000
1169.070, 923.0000
1170.156, 964.0000
1171.242, 950.0000
1172.327, 936.0000
1173.413, 942.0000
1174.499, 915.0000
1175.584, 921.4579
1176.669, 945.0000
1177.754, 927.0000
1178.839, 946.0000
1179.923, 958.0000
1181.008, 979.0000
1182.092, 950.0000
1183.176, 955.0000
1184.260, 965.0000
1185.344, 972.0000
1186.428, 928.0000
1187.511, 986.0000
1188.595, 946.0000
1189.678, 924.0000
1190.761, 965.0000
1191.843, 956.0000
1192.926, 942.0000
1194.009, 928.0000
1195.091, 940.0000
1196.173, 972.0000
1197.255, 946.0000
1198.337, 957.0000
1199.419, 991.0000
1200.500, 944.0000
1201.582, 962.0000
1202.663, 976.0000
1203.744, 984.0000
1204.825, 988.4752
1205.905, 958.0000
1206.986, 977.0000
1208.066, 966.0000
1209.146, 936.0000
1210.226, 957.0000
1211.306, 974.0000
1212.386, 966.0000
1213.466, 976.0000
1214.545, 972.0000
1215.624, 971.0000
1216.703, 972.0000
1217.782, 961.0000
1218.861, 973.0000
1219.939, 1003.000
1221.018, 986.0000
1222.096, 975.0000
1223.174, 999.0000
1224.252, 973.0000
1225.330, 948.0000
1226.407, 971.0000
1227.485, 946.0000
1228.562, 989.0000
1229.639, 976.0000
1230.716, 971.0000
1231.793, 991.0000
1232.869, 991.0000
1233.946, 970.0000
1235.022, 999.0000
1236.098, 989.0000
1237.174, 1016.000
1238.250, 978.0000
1239.325, 1006.000
1240.401, 1018.000
1241.476, 983.0000
1242.551, 1004.000
1243.626, 954.0000
1244.701, 934.0000
1245.776, 939.0000
1246.850, 995.0000
1247.924, 1009.000
1248.999, 989.0000
1250.073, 986.0000
1251.146, 1019.000
1252.220, 1013.000
1253.293, 1005.000
1254.367, 1003.000
1255.440, 965.0000
1256.513, 966.0000
1257.586, 1012.000
1258.658, 984.0000
1259.731, 1028.000
1260.803, 1022.000
1261.875, 1031.000
1262.947, 996.0000
1264.019, 1002.000
1265.091, 1010.000
1266.162, 977.0000
1267.234, 989.0000
1268.305, 1015.000
1269.376, 990.0000
1270.447, 993.0000
1271.517, 1010.000
1272.588, 1001.000
1273.658, 1023.000
1274.729, 1015.874
1275.799, 995.0000
1276.868, 1009.000
1277.938, 1001.000
1279.008, 1000.000
1280.077, 1001.631
1281.146, 1010.000
1282.215, 1004.000
1283.284, 986.0000
1284.353, 999.0000
1285.421, 986.0000
1286.490, 986.0000
1287.558, 983.0000
1288.626, 1017.000
1289.694, 1025.000
1290.762, 975.0000
1291.829, 958.0000
1292.897, 994.0000
1293.964, 988.0000
1295.031, 986.0000
1296.098, 961.0000
1297.165, 996.0000
1298.231, 981.0000
1299.298, 966.0000
1300.364, 1011.000
1301.430, 983.0000
1302.496, 964.0000
1303.562, 972.0000
1304.627, 964.0000
1305.693, 997.0000
1306.758, 1006.000
1307.823, 999.0000
1308.888, 993.0000
1309.953, 994.9501
1311.018, 1000.000
1312.082, 989.0000
1313.146, 995.0000
1314.210, 988.0000
1315.274, 994.0000
1316.338, 967.0000
1317.402, 974.0000
1318.465, 994.0000
1319.529, 1016.000
1320.592, 975.0000
1321.655, 981.0000
1322.718, 1022.000
1323.780, 964.0000
1324.843, 991.0000
1325.905, 992.0000
1326.967, 979.0000
1328.029, 971.0000
1329.091, 988.0000
1330.153, 975.0000
1331.214, 980.0000
1332.275, 966.0000
1333.337, 982.0000
1334.398, 977.0000
1335.458, 997.0000
1336.519, 967.0000
1337.580, 1019.000
1338.640, 1006.000
1339.700, 981.0000
1340.760, 973.0000
1341.820, 961.7665
1342.880, 952.6634
1343.939, 945.0000
1344.999, 955.0000
1346.058, 943.0000
1347.117, 969.0000
1348.176, 995.0000
1349.235, 961.0000
1350.293, 979.0000
1351.351, 1010.000
1352.410, 966.0000
1353.468, 949.0000
1354.526, 987.0000
1355.583, 965.0000
1356.641, 969.0000
1357.698, 1012.000
1358.756, 987.0000
1359.813, 1004.000
1360.869, 964.0000
1361.926, 986.0000
1362.983, 970.0000
1364.039, 981.0000
1365.095, 967.0000
1366.152, 965.0000
1367.207, 971.3909
1368.263, 958.0000
1369.319, 979.0000
1370.374, 980.0000
1371.430, 978.0000
1372.485, 980.0000
1373.540, 990.0000
1374.594, 995.0000
1375.649, 992.0000
1376.703, 993.3993
1377.758, 975.0000
1378.812, 991.0000
1379.866, 994.0000
1380.920, 1004.000
1381.973, 990.0000
1383.027, 991.0000
1384.080, 961.0000
1385.133, 985.0000
1386.186, 996.0000
1387.239, 966.0000
1388.291, 984.0000
1389.344, 1006.000
1390.396, 968.0000
1391.448, 995.0000
1392.500, 985.0000
1393.552, 983.0000
1394.604, 1035.000
1395.655, 982.0000
1396.707, 986.0000
1397.758, 958.0000
1398.809, 982.0000
1399.860, 1000.000
1400.910, 1015.000
1401.961, 996.0000
1403.011, 1018.000
1404.061, 970.0000
1405.111, 997.0000
1406.161, 972.0000
1407.211, 993.0000
1408.260, 1021.000
1409.310, 993.0000
1410.359, 982.0000
1411.408, 994.0000
1412.457, 1019.000
1413.506, 989.0000
1414.554, 977.0000
1415.603, 1015.000
1416.651, 972.0000
1417.699, 1000.000
1418.747, 1011.000
1419.794, 987.0000
1420.842, 981.0000
1421.889, 978.0000
1422.937, 1009.000
1423.984, 1016.000
1425.031, 987.0000
1426.077, 1008.000
1427.124, 978.0000
1428.170, 1025.000
1429.217, 1007.000
1430.263, 986.0000
1431.309, 1014.000
1432.354, 1019.000
1433.400, 1025.000
1434.445, 1021.000
1435.491, 1007.000
1436.536, 1013.389
1437.581, 1009.028
1438.625, 1015.000
1439.670, 1017.000
1440.714, 1018.495
1441.759, 1035.000
1442.803, 1035.000
1443.847, 1040.000
1444.890, 1060.000
1445.934, 1058.115
1446.978, 1056.000
1448.021, 1067.000
1449.064, 1079.000
1450.107, 1084.000
1451.150, 1066.000
1452.192, 1062.000
1453.235, 1071.000
1454.277, 1055.000
1455.319, 1076.000
1456.361, 1072.000
1457.403, 1096.000
1458.445, 1083.000
1459.486, 1063.000
1460.528, 1084.000
1461.569, 1063.000
1462.610, 1048.000
1463.651, 1073.000
1464.691, 1062.000
1465.732, 1035.000
1466.772, 1048.000
1467.812, 1049.000
1468.852, 1024.000
1469.892, 1017.000
1470.932, 1030.000
1471.971, 988.0000
1473.011, 1027.000
1474.050, 1035.000
1475.089, 1030.000
1476.128, 1008.000
1477.166, 1022.000
1478.205, 997.0000
1479.243, 1042.000
1480.282, 1017.000
1481.320, 1034.000
1482.357, 1049.000
1483.395, 1022.000
1484.433, 1046.000
1485.470, 1021.000
1486.507, 982.0000
1487.544, 1032.000
1488.581, 1017.000
1489.618, 1009.000
1490.655, 1000.000
1491.691, 978.0000
1492.727, 1005.000
1493.763, 1029.000
1494.799, 1029.000
1495.835, 1038.000
1496.871, 1030.000
1497.906, 997.0000
1498.941, 1002.000
1499.976, 998.0000
1501.011, 988.0000
1502.046, 993.2654
1503.081, 1011.000
1504.115, 987.0000
1505.149, 1021.000
1506.183, 1002.000
1507.217, 998.0000
1508.251, 1018.000
1509.285, 1002.000
1510.318, 1065.000
1511.352, 1045.000
1512.385, 970.0000
1513.418, 1023.000
1514.450, 1005.000
1515.483, 1025.000
1516.516, 1039.000
1517.548, 1034.000
1518.580, 1030.000
1519.612, 1010.000
1520.644, 1027.000
1521.675, 993.0000
1522.707, 1019.000
1523.738, 1010.000
1524.769, 1032.000
1525.800, 1015.000
1526.831, 1028.000
1527.862, 1042.000
1528.892, 1054.000
1529.923, 1049.241
1530.953, 1025.000
1531.983, 1031.000
1533.013, 1034.000
1534.042, 1019.000
1535.072, 1038.000
1536.101, 1013.000
1537.131, 1025.000
1538.160, 1028.000
1539.188, 1023.142
1540.217, 1028.000
1541.246, 1024.000
1542.274, 1042.000
1543.302, 1037.000
1544.330, 1044.000
1545.358, 1005.000
1546.386, 1041.000
1547.413, 1035.000
1548.441, 1021.000
1549.468, 1059.000
1550.495, 1047.000
1551.522, 1041.000
1552.549, 1038.000
1553.575, 1052.000
1554.602, 1066.000
1555.628, 1054.000
1556.654, 1039.000
1557.680, 1045.000
1558.706, 1051.000
1559.731, 1031.000
1560.757, 1044.000
1561.782, 1032.000
1562.807, 1056.000
1563.832, 1006.000
1564.857, 1062.000
1565.881, 1110.000
1566.906, 1048.000
1567.930, 1056.000
1568.954, 1046.000
1569.978, 1059.000
1571.002, 1039.000
1572.025, 1056.000
1573.049, 1065.000
1574.072, 1045.000
1575.095, 1057.000
1576.118, 1084.000
1577.141, 1123.000
##END=



