##NAMES=Mimetite
##RRUFFID=R060920
##IDEAL CHEMISTRY=Pb^2+^_5_(As^5+^O_4_)_3_Cl
##LOCALITY=Tsumeb mine, Tsumeb, Otavi District, Oshikoto, Namibia
##OWNER=RRUFF
##SOURCE=Marcus Origlieri
##DESCRIPTION=Yellow to brownish hexagonal prism, monoclinic polytype
##STATUS=The identification of this mineral has been made only by X-ray diffraction.
##URL=rruff.info/R060920
##PIN_ID=L01165
##ORIENTATION=Laser parallel to -c* (0 0 -1). Fiducial mark perpendicular to laser is parallel to b [0 1 0]
42.24800, 404.0000
43.49300, 414.0000
44.73800, 401.0000
45.98200, 413.0000
47.22600, 411.0000
48.47100, 399.0000
49.71500, 425.0000
50.95900, 412.0000
52.20200, 409.0000
53.44600, 412.0000
54.68900, 404.0000
55.93300, 404.0000
57.17600, 399.0000
58.41900, 412.0000
59.66100, 416.0000
60.90400, 410.0000
62.14600, 408.0000
63.38900, 410.0000
64.63100, 407.0000
65.87300, 417.0000
67.11500, 420.0000
68.35600, 424.0000
69.59800, 431.0000
70.83900, 439.0000
72.08000, 441.0000
73.32100, 453.0000
74.56200, 477.0000
75.80300, 487.0000
77.04300, 527.0000
78.28300, 573.0000
79.52300, 624.0000
80.76300, 704.0000
82.00300, 835.0000
83.24300, 1003.000
84.48300, 1163.000
85.72200, 1442.000
86.96100, 1682.000
88.20000, 2017.000
89.43900, 2360.000
90.67800, 2760.000
91.91600, 3182.000
93.15500, 3770.000
94.39300, 4640.000
95.63100, 5305.000
96.86900, 6111.000
98.10600, 6737.000
99.34400, 7168.000
100.5810, 7582.000
101.8190, 7755.000
103.0560, 7939.000
104.2930, 8053.000
105.5290, 8136.000
106.7660, 8154.000
108.0020, 8173.000
109.2390, 8241.000
110.4750, 8133.000
111.7110, 8072.000
112.9460, 8032.000
114.1820, 8205.000
115.4170, 8133.000
116.6530, 8137.000
117.8880, 8123.000
119.1230, 8078.000
120.3580, 8098.000
121.5920, 8071.000
122.8270, 7965.000
124.0610, 7978.000
125.2950, 7931.000
126.5290, 7974.000
127.7630, 8034.000
128.9970, 8050.000
130.2300, 8246.000
131.4640, 8107.000
132.6970, 8352.000
133.9300, 8405.000
135.1630, 8473.000
136.3950, 8569.000
137.6280, 8647.000
138.8600, 8730.057
140.0920, 8798.762
141.3240, 8891.000
142.5560, 8904.000
143.7880, 8962.957
145.0190, 8969.000
146.2510, 9086.000
147.4820, 9087.000
148.7130, 9139.000
149.9440, 8998.000
151.1750, 8904.000
152.4050, 8954.000
153.6360, 8942.000
154.8660, 8926.000
156.0960, 8899.000
157.3260, 8918.000
158.5560, 8854.000
159.7850, 8862.000
161.0150, 8870.000
162.2440, 8925.000
163.4730, 9063.000
164.7020, 8925.000
165.9310, 9113.000
167.1590, 8987.000
168.3880, 9042.000
169.6160, 9139.000
170.8440, 9121.000
172.0720, 9069.000
173.3000, 9055.000
174.5280, 9040.000
175.7550, 9023.000
176.9820, 8989.905
178.2100, 8944.000
179.4370, 8869.000
180.6630, 8859.000
181.8900, 8815.874
183.1170, 8760.000
184.3430, 8770.000
185.5690, 8689.000
186.7950, 8669.000
188.0210, 8632.000
189.2470, 8583.000
190.4720, 8527.000
191.6970, 8485.000
192.9230, 8314.000
194.1480, 8361.000
195.3730, 8328.000
196.5970, 8130.000
197.8220, 8165.000
199.0460, 8030.000
200.2700, 8034.000
201.4940, 7907.000
202.7180, 7690.000
203.9420, 7603.000
205.1660, 7577.000
206.3890, 7594.000
207.6120, 7490.000
208.8350, 7485.000
210.0580, 7400.000
211.2810, 7436.000
212.5040, 7322.000
213.7260, 7281.000
214.9480, 7280.000
216.1700, 7184.000
217.3920, 7061.000
218.6140, 7123.000
219.8360, 7107.000
221.0570, 6939.000
222.2790, 6926.000
223.5000, 6896.000
224.7210, 6939.000
225.9410, 6823.000
227.1620, 6953.000
228.3820, 6770.000
229.6030, 6749.000
230.8230, 6734.000
232.0430, 6709.000
233.2630, 6759.000
234.4820, 6660.000
235.7020, 6664.000
236.9210, 6571.000
238.1400, 6555.000
239.3590, 6687.000
240.5780, 6641.000
241.7970, 6704.000
243.0150, 6662.000
244.2340, 6661.099
245.4520, 6548.000
246.6700, 6616.000
247.8880, 6567.000
249.1060, 6494.000
250.3230, 6489.000
251.5400, 6435.000
252.7580, 6532.000
253.9750, 6487.000
255.1920, 6571.000
256.4080, 6498.000
257.6250, 6455.000
258.8410, 6576.000
260.0580, 6495.000
261.2740, 6534.000
262.4900, 6493.000
263.7050, 6613.000
264.9210, 6532.000
266.1360, 6589.000
267.3520, 6600.166
268.5670, 6467.000
269.7820, 6596.000
270.9960, 6574.000
272.2110, 6531.000
273.4250, 6501.000
274.6400, 6548.000
275.8540, 6424.000
277.0680, 6511.000
278.2810, 6574.000
279.4950, 6560.000
280.7090, 6516.000
281.9220, 6477.000
283.1350, 6580.000
284.3480, 6664.000
285.5610, 6696.000
286.7730, 6622.000
287.9860, 6716.000
289.1980, 6821.000
290.4100, 6899.000
291.6220, 7005.000
292.8340, 7155.000
294.0460, 7201.000
295.2570, 7386.000
296.4690, 7442.000
297.6800, 7593.000
298.8910, 7862.000
300.1020, 7993.000
301.3120, 8136.000
302.5230, 8249.000
303.7330, 8362.000
304.9440, 8340.000
306.1540, 8667.000
307.3630, 8652.000
308.5730, 8697.000
309.7830, 8625.000
310.9920, 8670.000
312.2010, 8608.000
313.4100, 8637.000
314.6190, 8553.000
315.8280, 8433.000
317.0370, 8482.000
318.2450, 8285.000
319.4530, 8323.000
320.6610, 8206.000
321.8690, 8295.000
323.0770, 8271.000
324.2850, 8342.000
325.4920, 8366.000
326.6990, 8447.000
327.9060, 8600.000
329.1130, 8587.000
330.3200, 8847.000
331.5270, 8729.000
332.7330, 8899.000
333.9390, 8965.000
335.1450, 9165.000
336.3510, 9115.000
337.5570, 9243.000
338.7630, 9174.000
339.9680, 9188.000
341.1740, 9176.000
342.3790, 8973.000
343.5840, 8918.000
344.7890, 8741.000
345.9930, 8625.000
347.1980, 8479.000
348.4020, 8358.432
349.6060, 8258.000
350.8100, 8152.000
352.0140, 8028.000
353.2180, 7961.000
354.4210, 7896.000
355.6250, 8013.000
356.8280, 7956.000
358.0310, 8215.000
359.2340, 8084.000
360.4360, 8264.000
361.6390, 8386.000
362.8410, 8496.000
364.0430, 8770.000
365.2450, 8808.000
366.4470, 8988.000
367.6490, 9209.000
368.8510, 9167.000
370.0520, 9206.000
371.2530, 9300.000
372.4540, 9173.000
373.6550, 9055.000
374.8560, 8914.000
376.0560, 8729.000
377.2570, 8313.000
378.4570, 8182.000
379.6570, 7946.000
380.8570, 7887.000
382.0570, 7966.000
383.2560, 7714.000
384.4560, 7771.000
385.6550, 7685.000
386.8540, 7694.000
388.0530, 7674.000
389.2520, 7619.000
390.4510, 7626.000
391.6490, 7636.000
392.8470, 7631.798
394.0450, 7682.000
395.2430, 7664.000
396.4410, 7712.443
397.6390, 7731.000
398.8360, 7751.000
400.0340, 7792.000
401.2310, 7781.000
402.4280, 7819.000
403.6250, 7876.000
404.8210, 7949.000
406.0180, 7957.000
407.2140, 8046.000
408.4100, 8124.000
409.6060, 8284.000
410.8020, 8358.000
411.9980, 8465.000
413.1930, 8493.000
414.3890, 8604.000
415.5840, 8674.000
416.7790, 8842.000
417.9740, 8861.000
419.1680, 8969.000
420.3630, 9041.000
421.5570, 9013.000
422.7510, 8972.000
423.9450, 8933.002
425.1390, 8757.000
426.3330, 8684.000
427.5270, 8527.000
428.7200, 8199.000
429.9130, 8111.000
431.1060, 7978.000
432.2990, 7847.000
433.4920, 7784.000
434.6840, 7687.000
435.8770, 7568.000
437.0690, 7623.000
438.2610, 7576.000
439.4530, 7488.000
440.6450, 7482.000
441.8360, 7508.000
443.0280, 7365.000
444.2190, 7396.000
445.4100, 7423.000
446.6010, 7280.000
447.7920, 7294.000
448.9820, 7358.000
450.1730, 7317.000
451.3630, 7345.000
452.5530, 7352.000
453.7430, 7295.000
454.9330, 7230.000
456.1230, 7321.000
457.3120, 7254.000
458.5010, 7292.000
459.6910, 7155.000
460.8800, 7161.000
462.0680, 7233.000
463.2570, 7260.000
464.4460, 7266.983
465.6340, 7309.000
466.8220, 7268.000
468.0100, 7250.000
469.1980, 7233.239
470.3860, 7250.058
471.5730, 7217.000
472.7600, 7302.000
473.9480, 7302.000
475.1350, 7311.000
476.3210, 7308.000
477.5080, 7326.000
478.6950, 7329.214
479.8810, 7332.000
481.0670, 7348.000
482.2530, 7269.000
483.4390, 7278.000
484.6250, 7302.000
485.8100, 7371.000
486.9960, 7351.000
488.1810, 7271.000
489.3660, 7420.000
490.5510, 7467.000
491.7360, 7296.000
492.9200, 7445.000
494.1050, 7349.000
495.2890, 7425.000
496.4730, 7531.000
497.6570, 7389.000
498.8400, 7394.000
500.0240, 7522.000
501.2070, 7423.000
502.3910, 7416.000
503.5740, 7423.000
504.7570, 7433.000
505.9400, 7430.000
507.1220, 7397.000
508.3050, 7482.000
509.4870, 7527.000
510.6690, 7393.000
511.8510, 7564.000
513.0330, 7485.000
514.2140, 7423.000
515.3960, 7576.000
516.5770, 7522.000
517.7580, 7540.000
518.9390, 7582.000
520.1200, 7559.863
521.3010, 7659.000
522.4810, 7596.000
523.6610, 7564.000
524.8420, 7632.000
526.0220, 7497.000
527.2010, 7604.000
528.3810, 7619.000
529.5610, 7575.000
530.7400, 7660.000
531.9190, 7738.000
533.0980, 7598.000
534.2770, 7627.000
535.4560, 7654.000
536.6340, 7655.000
537.8120, 7664.402
538.9910, 7647.000
540.1690, 7645.000
541.3460, 7654.792
542.5240, 7693.000
543.7020, 7689.000
544.8790, 7681.000
546.0560, 7727.000
547.2330, 7603.000
548.4100, 7722.000
549.5870, 7647.000
550.7630, 7708.000
551.9400, 7793.000
553.1160, 7679.000
554.2920, 7790.000
555.4680, 7698.000
556.6440, 7757.000
557.8190, 7752.000
558.9950, 7740.000
560.1700, 7778.000
561.3450, 7816.000
562.5200, 7834.000
563.6950, 7865.000
564.8690, 7868.000
566.0440, 7890.000
567.2180, 7878.000
568.3920, 7852.000
569.5660, 7910.000
570.7400, 7868.000
571.9130, 7911.000
573.0870, 7962.000
574.2600, 7872.000
575.4330, 7956.000
576.6060, 7970.000
577.7790, 7979.000
578.9520, 7933.000
580.1240, 8033.000
581.2960, 8006.000
582.4690, 8017.000
583.6410, 8058.000
584.8120, 7989.000
585.9840, 8015.042
587.1560, 8019.000
588.3270, 7995.000
589.4980, 8058.000
590.6690, 8039.000
591.8400, 7982.000
593.0110, 7979.000
594.1810, 8017.000
595.3510, 8167.000
596.5220, 8175.000
597.6920, 8182.000
598.8610, 8076.000
600.0310, 8187.000
601.2010, 8175.000
602.3700, 8238.000
603.5390, 8172.000
604.7080, 8200.000
605.8770, 8255.000
607.0460, 8223.980
608.2140, 8273.000
609.3830, 8270.000
610.5510, 8280.000
611.7190, 8275.975
612.8870, 8282.694
614.0550, 8258.000
615.2220, 8301.000
616.3900, 8330.000
617.5570, 8357.000
618.7240, 8232.000
619.8910, 8440.000
621.0580, 8309.000
622.2240, 8271.000
623.3910, 8354.000
624.5570, 8395.000
625.7230, 8309.000
626.8890, 8364.000
628.0550, 8363.000
629.2200, 8348.000
630.3860, 8376.577
631.5510, 8377.257
632.7160, 8400.000
633.8810, 8390.000
635.0460, 8414.000
636.2100, 8388.000
637.3750, 8545.000
638.5390, 8365.000
639.7030, 8353.000
640.8670, 8483.000
642.0310, 8327.000
643.1950, 8361.000
644.3580, 8471.000
645.5210, 8442.000
646.6850, 8452.000
647.8480, 8426.000
649.0100, 8425.515
650.1730, 8515.000
651.3350, 8445.000
652.4980, 8424.000
653.6600, 8483.000
654.8220, 8612.000
655.9840, 8536.000
657.1450, 8574.000
658.3070, 8579.000
659.4680, 8461.000
660.6300, 8480.000
661.7910, 8555.000
662.9510, 8515.000
664.1120, 8559.000
665.2730, 8599.000
666.4330, 8533.000
667.5930, 8542.000
668.7530, 8624.000
669.9130, 8637.000
671.0730, 8632.000
672.2320, 8581.000
673.3920, 8623.000
674.5510, 8746.000
675.7100, 8731.000
676.8690, 8785.000
678.0280, 8651.000
679.1860, 8823.000
680.3450, 8646.000
681.5030, 8771.000
682.6610, 8761.000
683.8190, 8691.000
684.9770, 8695.000
686.1340, 8672.000
687.2920, 8777.000
688.4490, 8793.000
689.6060, 8803.000
690.7630, 8809.000
691.9200, 8817.000
693.0760, 8820.000
694.2330, 8889.000
695.3890, 8939.000
696.5450, 8902.000
697.7010, 9119.000
698.8570, 8960.000
700.0130, 8894.000
701.1680, 9063.000
702.3230, 9023.000
703.4780, 9047.000
704.6330, 8980.000
705.7880, 9030.000
706.9430, 9104.000
708.0970, 9194.000
709.2520, 9132.000
710.4060, 9151.000
711.5600, 9173.000
712.7140, 9189.000
713.8670, 9216.514
715.0210, 9212.000
716.1740, 9279.000
717.3270, 9289.000
718.4800, 9337.000
719.6330, 9417.000
720.7860, 9358.000
721.9380, 9366.000
723.0910, 9443.000
724.2430, 9464.000
725.3950, 9381.000
726.5470, 9566.000
727.6980, 9539.000
728.8500, 9662.000
730.0010, 9657.000
731.1530, 9605.000
732.3040, 9681.000
733.4550, 9687.000
734.6050, 9743.000
735.7560, 9819.000
736.9060, 9903.000
738.0560, 10068.00
739.2060, 10017.00
740.3560, 10019.00
741.5060, 10171.00
742.6560, 10159.00
743.8050, 10165.00
744.9540, 10242.00
746.1030, 10436.00
747.2520, 10371.00
748.4010, 10697.00
749.5500, 10798.00
750.6980, 11013.00
751.8460, 11267.00
752.9950, 11444.00
754.1420, 11915.00
755.2900, 12292.00
756.4380, 12780.00
757.5850, 13374.00
758.7330, 13959.00
759.8800, 14723.00
761.0270, 15224.00
762.1730, 15601.00
763.3200, 16400.00
764.4670, 16701.00
765.6130, 16974.00
766.7590, 17031.00
767.9050, 16899.00
769.0510, 16551.00
770.1960, 16266.00
771.3420, 16075.00
772.4870, 15828.00
773.6320, 15741.00
774.7770, 15568.00
775.9220, 15428.00
777.0670, 15685.00
778.2110, 15919.00
779.3560, 16243.00
780.5000, 16824.00
781.6440, 17289.00
782.7880, 18009.00
783.9320, 18406.00
785.0750, 18735.00
786.2180, 19153.00
787.3620, 19560.00
788.5050, 19652.00
789.6480, 19774.00
790.7900, 20153.00
791.9330, 20582.00
793.0750, 21202.00
794.2170, 22354.00
795.3590, 24145.00
796.5010, 26550.00
797.6430, 29844.00
798.7850, 34020.00
799.9260, 38495.00
801.0670, 42869.00
802.2080, 46498.00
803.3490, 51068.00
804.4900, 55084.00
805.6310, 57850.00
806.7710, 59381.00
807.9110, 58668.00
809.0510, 56897.00
810.1910, 53594.00
811.3310, 50410.00
812.4710, 47547.00
813.6100, 44230.00
814.7490, 41001.00
815.8880, 38020.00
817.0270, 34283.00
818.1660, 30573.00
819.3050, 27128.00
820.4430, 24296.00
821.5820, 21638.00
822.7200, 19672.00
823.8580, 18166.00
824.9950, 17010.00
826.1330, 16205.00
827.2710, 15595.00
828.4080, 14859.00
829.5450, 14316.00
830.6820, 13962.00
831.8190, 13619.00
832.9560, 13495.00
834.0920, 13198.00
835.2280, 12992.00
836.3650, 12828.00
837.5010, 12688.00
838.6360, 12507.68
839.7720, 12474.00
840.9080, 12240.00
842.0430, 12210.00
843.1780, 12197.00
844.3130, 12067.00
845.4480, 12071.00
846.5830, 11979.34
847.7170, 11910.27
848.8520, 11799.00
849.9860, 11769.00
851.1200, 11623.00
852.2540, 11539.00
853.3870, 11554.00
854.5210, 11457.00
855.6540, 11228.00
856.7880, 11359.00
857.9210, 11198.00
859.0540, 11242.00
860.1860, 11273.00
861.3190, 11268.00
862.4510, 11164.00
863.5840, 11136.00
864.7160, 11020.00
865.8480, 11095.00
866.9790, 10974.00
868.1110, 11161.00
869.2420, 11033.00
870.3740, 11083.00
871.5050, 10926.00
872.6360, 10916.00
873.7660, 11029.00
874.8970, 11000.00
876.0280, 11009.00
877.1580, 10898.00
878.2880, 10847.00
879.4180, 10925.00
880.5480, 10849.00
881.6770, 10943.00
882.8070, 10880.00
883.9360, 10876.00
885.0650, 10908.00
886.1940, 10911.00
887.3230, 10920.63
888.4520, 10933.77
889.5800, 10930.00
890.7090, 10936.00
891.8370, 10926.00
892.9650, 10899.60
894.0930, 10693.00
895.2200, 10791.00
896.3480, 10773.00
897.4750, 10699.00
898.6020, 10822.00
899.7290, 10601.00
900.8560, 10613.00
901.9830, 10797.00
903.1090, 10755.00
904.2360, 10754.00
905.3620, 10757.00
906.4880, 10685.00
907.6140, 10748.00
908.7400, 10785.00
909.8650, 10760.59
910.9900, 10694.00
912.1160, 10765.00
913.2410, 10788.00
914.3660, 10802.00
915.4900, 10831.46
916.6150, 10859.00
917.7390, 10838.00
918.8640, 10816.00
919.9880, 10783.58
921.1120, 10788.13
922.2350, 10775.19
923.3590, 10805.00
924.4820, 10766.00
925.6060, 10791.00
926.7290, 10770.00
927.8520, 10703.00
928.9740, 10747.00
930.0970, 10741.00
931.2190, 10648.00
932.3420, 10836.00
933.4640, 10718.00
934.5860, 10711.00
935.7080, 10722.00
936.8290, 10724.00
937.9510, 10780.00
939.0720, 10810.00
940.1930, 10845.00
941.3140, 10752.00
942.4350, 10832.00
943.5560, 10756.00
944.6760, 10797.00
945.7960, 10683.00
946.9170, 10712.00
948.0370, 10804.00
949.1560, 10799.00
950.2760, 10850.00
951.3960, 10875.00
952.5150, 10817.00
953.6340, 10750.00
954.7530, 10844.00
955.8720, 10706.00
956.9910, 10763.00
958.1090, 10867.00
959.2280, 10678.00
960.3460, 10856.00
961.4640, 10806.00
962.5820, 10956.00
963.6990, 10903.00
964.8170, 10824.00
965.9340, 11044.00
967.0510, 10883.00
968.1690, 10992.00
969.2850, 10880.00
970.4020, 10977.00
971.5190, 10979.00
972.6350, 10906.00
973.7510, 10939.00
974.8670, 10987.00
975.9830, 11038.00
977.0990, 10963.00
978.2150, 10880.00
979.3300, 10971.00
980.4450, 10970.00
981.5600, 11031.00
982.6750, 11112.00
983.7900, 11095.00
984.9050, 11132.34
986.0190, 11134.88
987.1340, 11115.00
988.2480, 11097.00
989.3620, 11040.00
990.4750, 10968.00
991.5890, 11125.00
992.7020, 11050.00
993.8160, 11029.00
994.9290, 11092.00
996.0420, 11050.00
997.1550, 11098.00
998.2670, 11208.00
999.3800, 11001.00
1000.492, 11272.00
1001.604, 11135.00
1002.716, 11237.00
1003.828, 11146.00
1004.940, 11130.00
1006.051, 11227.00
1007.163, 11150.00
1008.274, 11127.00
1009.385, 11063.00
1010.496, 11199.00
1011.606, 11185.00
1012.717, 11215.00
1013.827, 11160.00
1014.937, 11309.00
1016.047, 11324.00
1017.157, 11160.00
1018.267, 11212.00
1019.377, 11322.00
1020.486, 11278.00
1021.595, 11324.00
1022.704, 11245.00
1023.813, 11329.00
1024.922, 11226.00
1026.030, 11371.00
1027.139, 11303.00
1028.247, 11379.00
1029.355, 11374.00
1030.463, 11288.00
1031.571, 11349.00
1032.678, 11419.00
1033.786, 11389.00
1034.893, 11378.00
1036.000, 11382.00
1037.107, 11377.95
1038.214, 11299.00
1039.321, 11418.00
1040.427, 11421.00
1041.533, 11489.00
1042.639, 11348.00
1043.745, 11370.00
1044.851, 11456.00
1045.957, 11412.00
1047.062, 11508.00
1048.168, 11485.94
1049.273, 11397.00
1050.378, 11458.00
1051.482, 11382.00
1052.587, 11349.00
1053.692, 11486.00
1054.796, 11543.00
1055.900, 11521.00
1057.004, 11549.00
1058.108, 11565.00
1059.212, 11564.00
1060.315, 11615.00
1061.418, 11624.00
1062.522, 11516.00
1063.625, 11605.00
1064.728, 11571.00
1065.830, 11638.00
1066.933, 11469.00
1068.035, 11607.00
1069.137, 11559.00
1070.239, 11620.00
1071.341, 11604.00
1072.443, 11734.00
1073.545, 11693.00
1074.646, 11666.00
1075.747, 11561.00
1076.848, 11665.00
1077.949, 11716.00
1079.050, 11645.00
1080.150, 11647.00
1081.251, 11832.00
1082.351, 11746.00
1083.451, 11867.00
1084.551, 11861.00
1085.651, 11734.00
1086.750, 11754.00
1087.850, 11814.00
1088.949, 11704.00
1090.048, 11916.00
1091.147, 11923.00
1092.246, 11697.00
1093.345, 11804.00
1094.443, 11734.00
1095.541, 11817.00
1096.639, 11883.00
1097.737, 11989.00
1098.835, 11819.00
1099.933, 11943.00
1101.030, 11863.00
1102.128, 12009.00
1103.225, 11777.00
1104.322, 11830.00
1105.419, 12044.00
1106.515, 11926.00
1107.612, 11852.00
1108.708, 11919.00
1109.804, 11904.00
1110.900, 11913.00
1111.996, 11956.00
1113.092, 12018.00
1114.187, 12149.00
1115.283, 11997.00
1116.378, 12160.00
1117.473, 12008.00
1118.568, 12057.00
1119.662, 11997.00
1120.757, 12071.00
1121.851, 12219.00
1122.946, 12177.00
1124.040, 12199.00
1125.134, 12145.00
1126.227, 12121.00
1127.321, 12088.00
1128.414, 12104.00
1129.508, 12185.00
1130.601, 12114.00
1131.693, 12238.00
1132.786, 12257.00
1133.879, 12193.00
1134.971, 12096.00
1136.064, 12176.00
1137.156, 12163.00
1138.248, 12107.00
1139.339, 12320.00
1140.431, 12140.00
1141.522, 12260.00
1142.614, 12285.00
1143.705, 12338.00
1144.796, 12145.00
1145.887, 12252.00
1146.977, 12255.00
1148.068, 12164.00
1149.158, 12252.00
1150.248, 12337.00
1151.338, 12388.00
1152.428, 12383.00
1153.518, 12454.00
1154.607, 12456.00
1155.696, 12271.00
1156.785, 12393.00
1157.874, 12413.00
1158.963, 12377.00
1160.052, 12499.00
1161.141, 12471.00
1162.229, 12529.00
1163.317, 12276.00
1164.405, 12464.00
1165.493, 12419.00
1166.581, 12396.00
1167.668, 12622.00
1168.756, 12395.00
1169.843, 12479.00
1170.930, 12597.00
1172.017, 12568.00
1173.103, 12598.00
1174.190, 12589.00
1175.276, 12571.00
1176.363, 12572.38
1177.449, 12473.00
1178.535, 12528.00
1179.620, 12524.00
1180.706, 12466.00
1181.791, 12636.00
1182.877, 12599.00
1183.962, 12676.00
1185.047, 12593.00
1186.131, 12687.00
1187.216, 12590.00
1188.300, 12594.00
1189.385, 12816.00
1190.469, 12649.00
1191.553, 12733.00
1192.637, 12673.00
1193.720, 12791.00
1194.804, 12559.00
1195.887, 12754.00
1196.970, 12601.00
1198.053, 12760.00
1199.136, 12722.00
1200.219, 12724.00
1201.301, 12702.00
1202.383, 12905.00
1203.465, 12717.00
1204.547, 12775.00
1205.629, 12837.00
1206.711, 12678.00
1207.792, 12780.00
1208.874, 12941.00
1209.955, 12809.00
1211.036, 12865.00
1212.117, 12823.00
1213.198, 12875.00
1214.278, 12899.00
1215.359, 12988.00
1216.439, 12820.00
1217.519, 12837.00
1218.599, 12863.00
1219.678, 12915.00
1220.758, 13008.00
1221.837, 12968.00
1222.917, 12960.00
1223.996, 13094.00
1225.075, 12876.00
1226.153, 13023.00
1227.232, 12812.00
1228.310, 13067.00
1229.389, 12976.00
1230.467, 12907.00
1231.545, 12862.00
1232.622, 12877.89
1233.700, 13020.00
1234.777, 12983.00
1235.855, 13072.00
1236.932, 13170.00
1238.009, 13033.00
1239.086, 13033.00
1240.162, 13085.00
1241.239, 13178.00
1242.315, 13174.17
1243.391, 13205.82
1244.467, 13219.00
1245.543, 13183.00
1246.619, 13204.00
1247.694, 13138.00
1248.769, 13075.00
1249.844, 13225.00
1250.919, 13111.00
1251.994, 13036.00
1253.069, 13254.00
1254.144, 13181.00
1255.218, 13203.00
1256.292, 13214.00
1257.366, 13211.09
1258.440, 13217.37
1259.514, 13249.00
1260.587, 13177.00
1261.661, 13177.00
1262.734, 13084.00
1263.807, 13315.00
1264.880, 13349.00
1265.952, 13255.00
1267.025, 13210.00
1268.097, 13230.00
1269.170, 13267.00
1270.242, 13309.00
1271.314, 13356.00
1272.385, 13174.00
1273.457, 13182.00
1274.528, 13220.00
1275.600, 13484.00
1276.671, 13417.00
1277.742, 13358.00
1278.812, 13411.00
1279.883, 13376.00
1280.954, 13214.00
1282.024, 13466.00
1283.094, 13313.00
1284.164, 13449.00
1285.234, 13329.00
1286.303, 13529.00
1287.373, 13311.00
1288.442, 13435.00
1289.511, 13303.00
1290.580, 13411.00
1291.649, 13568.00
1292.718, 13338.00
1293.786, 13509.00
1294.855, 13469.00
1295.923, 13475.00
1296.991, 13560.00
1298.059, 13630.00
1299.126, 13662.00
1300.194, 13656.00
1301.261, 13421.00
1302.328, 13626.00
1303.395, 13534.00
1304.462, 13566.00
1305.529, 13723.00
1306.596, 13610.00
1307.662, 13615.00
1308.728, 13649.00
1309.794, 13684.00
1310.860, 13622.00
1311.926, 13549.00
1312.991, 13684.00
1314.057, 13623.00
1315.122, 13650.00
1316.187, 13625.00
1317.252, 13659.00
1318.317, 13619.00
1319.381, 13645.00
1320.446, 13588.00
1321.510, 13580.00
1322.574, 13856.00
1323.638, 13791.00
1324.702, 13827.00
1325.766, 13791.00
1326.829, 13674.00
1327.892, 13627.00
1328.956, 13746.00
1330.019, 13679.00
1331.081, 13831.00
1332.144, 13900.00
1333.206, 13918.00
1334.269, 13758.00
1335.331, 13854.00
1336.393, 13750.00
1337.455, 13841.00
1338.516, 13827.00
1339.578, 13720.00
1340.639, 13898.00
1341.701, 13948.00
1342.762, 13881.00
1343.822, 13955.00
1344.883, 13867.00
1345.944, 13946.00
1347.004, 13969.00
1348.064, 13970.00
1349.124, 14021.39
1350.184, 13910.00
1351.244, 14063.00
1352.304, 14109.00
1353.363, 14099.72
1354.422, 14014.00
1355.481, 14067.00
1356.540, 14006.00
1357.599, 13989.00
1358.657, 14055.00
1359.716, 14073.00
1360.774, 14009.00
1361.832, 14013.00
1362.890, 14182.00
1363.948, 13991.00
1365.006, 13910.00
1366.063, 14112.00
1367.120, 14178.00
1368.178, 14069.00
1369.234, 14025.00
1370.291, 14003.00
1371.348, 14106.00
1372.404, 13934.00
1373.461, 14090.00
1374.517, 13976.00
1375.573, 14279.00
1376.629, 14116.00
1377.684, 14051.00
1378.740, 14131.00
1379.795, 14121.00
1380.850, 14189.00
1381.905, 14236.00
1382.960, 14402.00
1384.015, 14134.00
1385.070, 14263.00
1386.124, 14128.00
1387.178, 14151.00
1388.232, 14286.00
1389.286, 14229.00
1390.340, 14107.00
1391.393, 14187.00
1392.447, 14256.00
1393.500, 14242.00
1394.553, 14358.00
1395.606, 14321.00
1396.659, 14393.00
1397.711, 14189.00
1398.764, 14391.00
1399.816, 14300.00
1400.868, 14355.00
1401.920, 14344.00
1402.972, 14340.41
1404.023, 14321.00
1405.075, 14406.00
1406.126, 14399.66
1407.177, 14362.00
1408.228, 14438.00
1409.279, 14541.00
1410.330, 14525.72
1411.380, 14535.00
1412.431, 14480.00
1413.481, 14432.00
1414.531, 14420.00
1415.580, 14371.00
1416.630, 14377.00
1417.680, 14491.00
1418.729, 14544.00
1419.778, 14580.00
1420.827, 14469.00
1421.876, 14515.00
1422.925, 14574.00
1423.973, 14465.00
1425.022, 14563.00
1426.070, 14671.00
1427.118, 14585.00
1428.166, 14738.00
1429.214, 14705.83
1430.261, 14711.00
1431.309, 14668.00
1432.356, 14716.00
1433.403, 14627.00
1434.450, 14676.00
1435.497, 14582.00
1436.543, 14742.00
1437.590, 14739.00
1438.636, 14645.00
1439.682, 14656.00
1440.728, 14599.00
1441.774, 14859.00
1442.819, 14693.00
1443.865, 14769.00
1444.910, 14805.00
1445.955, 14750.00
1447.000, 14731.00
1448.045, 14874.00
1449.090, 14927.00
1450.134, 14808.00
1451.178, 14866.00
1452.223, 14851.00
1453.267, 14821.00
1454.310, 14825.00
1455.354, 14826.00
1456.398, 14668.00
1457.441, 14840.00
1458.484, 14970.00
1459.527, 14611.00
1460.570, 14631.00
1461.613, 14827.00
1462.655, 14866.00
1463.698, 14917.00
1464.740, 14927.00
1465.782, 14929.00
1466.824, 14972.14
1467.866, 14967.76
1468.907, 14998.00
1469.948, 14984.00
1470.990, 14990.19
1472.031, 14922.00
1473.072, 14971.00
1474.112, 14987.00
1475.153, 14945.00
1476.194, 15054.00
1477.234, 14988.00
1478.274, 14981.00
1479.314, 14991.07
1480.354, 15089.00
1481.393, 14965.00
1482.433, 14983.00
1483.472, 14989.00
1484.511, 15152.00
1485.550, 15085.00
1486.589, 15088.00
1487.628, 15195.00
1488.666, 15028.00
1489.704, 15070.00
1490.743, 15162.00
1491.781, 15002.00
1492.819, 15027.00
1493.856, 15117.00
1494.894, 15135.00
1495.931, 15175.36
1496.968, 15237.00
1498.005, 15201.00
1499.042, 15194.00
1500.079, 15134.00
1501.115, 15138.00
1502.152, 15189.00
1503.188, 15325.00
1504.224, 15268.00
1505.260, 15303.00
1506.296, 15394.00
1507.331, 15415.00
1508.367, 15372.00
1509.402, 15424.00
1510.437, 15468.00
1511.472, 15285.00
1512.507, 15327.00
1513.541, 15310.00
1514.576, 15453.00
1515.610, 15248.00
1516.644, 15442.00
1517.678, 15445.00
1518.712, 15348.00
1519.746, 15439.00
1520.779, 15572.00
1521.813, 15329.00
1522.846, 15486.00
1523.879, 15384.00
1524.912, 15481.00
1525.944, 15462.00
1526.977, 15529.00
1528.009, 15647.00
1529.041, 15441.00
1530.073, 15327.00
1531.105, 15470.00
1532.137, 15496.00
1533.168, 15505.00
1534.200, 15460.00
1535.231, 15547.00
1536.262, 15429.00
1537.293, 15541.00
1538.324, 15405.00
1539.354, 15321.00
1540.385, 15406.00
1541.415, 15424.00
1542.445, 15638.00
1543.475, 15281.00
1544.505, 15556.00
1545.534, 15580.00
1546.564, 15455.00
1547.593, 15712.00
1548.622, 15496.00
1549.651, 15529.00
1550.680, 15688.00
1551.708, 15644.00
1552.737, 15667.62
1553.765, 15604.00
1554.793, 15629.00
1555.821, 15507.00
1556.849, 15511.00
1557.877, 15496.00
1558.904, 15497.00
1559.932, 15779.00
1560.959, 15725.00
1561.986, 15469.00
1563.013, 15843.00
##END=



