##NAMES=Montebrasite
##RRUFFID=R060890
##IDEAL CHEMISTRY=LiAlPO_4_(OH)
##LOCALITY=Mount Marie, Paris, Maine, USA
##OWNER=RRUFF
##SOURCE=Bob Jenkins
##DESCRIPTION=Colorless massive
##STATUS=The identification of this mineral is confirmed by single-crystal X-ray diffraction and chemical analysis.
##URL=rruff.info/R060890
##MEASURED CHEMISTRY=Li_1.00_Al_1.00_(P_1.00_O_4_)(OH)_0.63_F_0.37_)_Î£=1_ ; Li not measured but estimated by stoichiometry
##PIN_ID=M01677
##ORIENTATION=Laser parallel to b* (0 1 0). Fiducial mark perpendicular to laser is parallel to c [0 0 1]
90.67800, 19658.00
91.91600, 19763.00
93.15500, 19706.00
94.39300, 19895.00
95.63100, 20066.00
96.86900, 19725.00
98.10600, 19955.00
99.34400, 20046.00
100.5810, 20124.00
101.8190, 19999.00
103.0560, 20129.00
104.2930, 20127.00
105.5290, 20207.80
106.7660, 20373.00
108.0020, 20453.00
109.2390, 20618.00
110.4750, 20796.00
111.7110, 20621.00
112.9460, 20765.00
114.1820, 20869.00
115.4170, 20950.00
116.6530, 21057.00
117.8880, 21149.43
119.1230, 21191.00
120.3580, 21384.00
121.5920, 21431.00
122.8270, 21636.00
124.0610, 21672.00
125.2950, 21665.00
126.5290, 21864.00
127.7630, 21957.00
128.9970, 21854.00
130.2300, 22010.00
131.4640, 22424.00
132.6970, 21900.00
133.9300, 22037.00
135.1630, 22142.00
136.3950, 21878.00
137.6280, 22047.00
138.8600, 21917.00
140.0920, 21885.00
141.3240, 21987.00
142.5560, 22155.00
143.7880, 22076.00
145.0190, 22074.00
146.2510, 22138.00
147.4820, 22193.00
148.7130, 22398.00
149.9440, 22233.00
151.1750, 22677.00
152.4050, 22625.00
153.6360, 22890.00
154.8660, 22906.00
156.0960, 23093.00
157.3260, 23292.00
158.5560, 23289.00
159.7850, 23549.00
161.0150, 23744.00
162.2440, 24038.00
163.4730, 24356.00
164.7020, 24303.00
165.9310, 24393.00
167.1590, 24288.00
168.3880, 24418.00
169.6160, 24422.00
170.8440, 24534.00
172.0720, 24278.00
173.3000, 24224.00
174.5280, 24000.00
175.7550, 24039.00
176.9820, 23966.00
178.2100, 24032.00
179.4370, 24042.00
180.6630, 23986.00
181.8900, 23924.00
183.1170, 24034.00
184.3430, 24008.00
185.5690, 23813.00
186.7950, 23957.00
188.0210, 23828.00
189.2470, 23982.00
190.4720, 23804.00
191.6970, 23839.00
192.9230, 23812.00
194.1480, 23723.00
195.3730, 23838.00
196.5970, 23638.00
197.8220, 23721.00
199.0460, 23683.00
200.2700, 23755.00
201.4940, 23630.00
202.7180, 23882.00
203.9420, 23669.00
205.1660, 23630.00
206.3890, 23640.00
207.6120, 23947.00
208.8350, 23775.00
210.0580, 23975.00
211.2810, 24061.00
212.5040, 24161.00
213.7260, 24052.00
214.9480, 23908.00
216.1700, 24040.00
217.3920, 24214.00
218.6140, 24141.00
219.8360, 24377.00
221.0570, 24293.00
222.2790, 24236.00
223.5000, 24049.00
224.7210, 24420.00
225.9410, 24277.00
227.1620, 24274.00
228.3820, 24575.00
229.6030, 24318.00
230.8230, 24267.00
232.0430, 24512.00
233.2630, 24583.00
234.4820, 24439.00
235.7020, 24416.00
236.9210, 24570.00
238.1400, 24566.00
239.3590, 24546.00
240.5780, 24811.00
241.7970, 24891.00
243.0150, 24823.00
244.2340, 24731.00
245.4520, 24812.00
246.6700, 24625.00
247.8880, 24903.00
249.1060, 25152.00
250.3230, 24883.00
251.5400, 25221.00
252.7580, 25336.00
253.9750, 25314.00
255.1920, 25195.00
256.4080, 25303.00
257.6250, 25344.00
258.8410, 25303.00
260.0580, 25368.00
261.2740, 25611.00
262.4900, 25984.00
263.7050, 25905.00
264.9210, 26229.00
266.1360, 26162.00
267.3520, 26328.00
268.5670, 26401.00
269.7820, 26329.00
270.9960, 26765.00
272.2110, 26641.00
273.4250, 26763.00
274.6400, 26577.00
275.8540, 26743.00
277.0680, 26770.00
278.2810, 26736.00
279.4950, 26646.00
280.7090, 26933.00
281.9220, 26791.00
283.1350, 26786.00
284.3480, 27027.00
285.5610, 27300.00
286.7730, 27600.00
287.9860, 27711.00
289.1980, 28321.00
290.4100, 28642.00
291.6220, 29281.96
292.8340, 30215.00
294.0460, 30731.00
295.2570, 31552.00
296.4690, 32378.00
297.6800, 32724.00
298.8910, 33279.00
300.1020, 33794.00
301.3120, 34216.00
302.5230, 34034.00
303.7330, 33879.00
304.9440, 33243.00
306.1540, 32432.00
307.3630, 31745.00
308.5730, 31139.58
309.7830, 30391.00
310.9920, 29986.00
312.2010, 29659.00
313.4100, 29169.00
314.6190, 29012.00
315.8280, 28723.00
317.0370, 28644.00
318.2450, 28423.00
319.4530, 28237.00
320.6610, 27968.00
321.8690, 27978.00
323.0770, 27865.00
324.2850, 27769.00
325.4920, 27557.00
326.6990, 27710.00
327.9060, 27344.00
329.1130, 27502.00
330.3200, 27370.00
331.5270, 27428.00
332.7330, 27548.00
333.9390, 27370.00
335.1450, 27419.00
336.3510, 27456.00
337.5570, 27396.00
338.7630, 27550.00
339.9680, 27510.00
341.1740, 27509.00
342.3790, 27601.00
343.5840, 27646.00
344.7890, 27441.00
345.9930, 27718.00
347.1980, 27583.00
348.4020, 27815.00
349.6060, 27661.00
350.8100, 27549.00
352.0140, 27658.00
353.2180, 27624.00
354.4210, 27890.00
355.6250, 27665.00
356.8280, 27627.00
358.0310, 27943.00
359.2340, 27999.00
360.4360, 27882.00
361.6390, 27931.00
362.8410, 28031.00
364.0430, 28052.00
365.2450, 28173.00
366.4470, 28225.00
367.6490, 28254.16
368.8510, 28036.00
370.0520, 28310.00
371.2530, 28289.00
372.4540, 28324.00
373.6550, 28576.00
374.8560, 28439.00
376.0560, 28583.00
377.2570, 28612.00
378.4570, 28380.00
379.6570, 28498.00
380.8570, 28506.00
382.0570, 28346.00
383.2560, 28372.00
384.4560, 28544.00
385.6550, 28362.00
386.8540, 28576.00
388.0530, 28434.00
389.2520, 28656.00
390.4510, 28675.00
391.6490, 28432.00
392.8470, 28748.00
394.0450, 28878.00
395.2430, 28908.00
396.4410, 28964.00
397.6390, 28690.00
398.8360, 28963.00
400.0340, 29033.00
401.2310, 29019.00
402.4280, 29233.00
403.6250, 29051.00
404.8210, 29209.00
406.0180, 29207.00
407.2140, 29429.00
408.4100, 29408.00
409.6060, 29422.00
410.8020, 29633.00
411.9980, 29909.00
413.1930, 30554.00
414.3890, 30912.00
415.5840, 31550.00
416.7790, 31885.00
417.9740, 33105.00
419.1680, 33842.00
420.3630, 34329.00
421.5570, 34822.00
422.7510, 35628.00
423.9450, 35806.00
425.1390, 36291.00
426.3330, 36104.00
427.5270, 35746.00
428.7200, 34508.00
429.9130, 33568.00
431.1060, 32468.00
432.2990, 31535.00
433.4920, 31116.00
434.6840, 30943.00
435.8770, 30715.00
437.0690, 30349.00
438.2610, 30091.00
439.4530, 30354.00
440.6450, 30157.00
441.8360, 30179.00
443.0280, 30215.00
444.2190, 30184.00
445.4100, 30279.00
446.6010, 30237.66
447.7920, 30137.00
448.9820, 30224.00
450.1730, 30224.00
451.3630, 30268.00
452.5530, 30223.00
453.7430, 30428.00
454.9330, 30324.00
456.1230, 30405.00
457.3120, 30601.00
458.5010, 30331.00
459.6910, 30869.00
460.8800, 30642.00
462.0680, 30523.00
463.2570, 30629.00
464.4460, 30780.00
465.6340, 31060.00
466.8220, 30947.00
468.0100, 31096.00
469.1980, 31122.00
470.3860, 31321.00
471.5730, 31391.00
472.7600, 31492.00
473.9480, 31685.00
475.1350, 31932.00
476.3210, 32081.00
477.5080, 32177.00
478.6950, 32341.99
479.8810, 32425.82
481.0670, 32536.00
482.2530, 32568.00
483.4390, 32582.00
484.6250, 32565.00
485.8100, 32753.00
486.9960, 32676.00
488.1810, 32824.00
489.3660, 32612.00
490.5510, 33027.00
491.7360, 32853.00
492.9200, 32759.00
494.1050, 32481.00
495.2890, 32561.00
496.4730, 32482.10
497.6570, 32370.00
498.8400, 32475.00
500.0240, 32380.00
501.2070, 32277.00
502.3910, 32191.00
503.5740, 32124.00
504.7570, 32211.00
505.9400, 32059.00
507.1220, 32220.00
508.3050, 31839.00
509.4870, 32093.00
510.6690, 31737.00
511.8510, 31981.00
513.0330, 31965.00
514.2140, 31982.00
515.3960, 31775.00
516.5770, 31914.00
517.7580, 31947.00
518.9390, 31849.00
520.1200, 31956.00
521.3010, 31675.00
522.4810, 31752.00
523.6610, 31854.00
524.8420, 31593.00
526.0220, 31938.00
527.2010, 31970.00
528.3810, 31839.00
529.5610, 31748.00
530.7400, 32038.00
531.9190, 32055.00
533.0980, 31897.00
534.2770, 31916.00
535.4560, 31818.00
536.6340, 32159.00
537.8120, 31994.00
538.9910, 32184.00
540.1690, 32329.00
541.3460, 32409.00
542.5240, 32198.00
543.7020, 32177.00
544.8790, 32253.00
546.0560, 32151.00
547.2330, 32362.00
548.4100, 32548.00
549.5870, 32516.00
550.7630, 32220.00
551.9400, 32529.00
553.1160, 32347.00
554.2920, 32560.00
555.4680, 32524.00
556.6440, 32318.00
557.8190, 32739.00
558.9950, 32642.00
560.1700, 32864.00
561.3450, 32707.00
562.5200, 32794.86
563.6950, 32822.00
564.8690, 32824.00
566.0440, 32866.00
567.2180, 32785.00
568.3920, 32725.00
569.5660, 32771.00
570.7400, 32907.00
571.9130, 33104.00
573.0870, 32970.00
574.2600, 33005.00
575.4330, 33068.00
576.6060, 32868.00
577.7790, 33081.00
578.9520, 33279.00
580.1240, 33139.00
581.2960, 33138.00
582.4690, 33411.00
583.6410, 33467.00
584.8120, 33272.00
585.9840, 33342.00
587.1560, 33319.00
588.3270, 33374.00
589.4980, 33650.00
590.6690, 33764.00
591.8400, 33538.00
593.0110, 33745.00
594.1810, 33695.00
595.3510, 33991.00
596.5220, 33927.00
597.6920, 34056.00
598.8610, 34252.00
600.0310, 34143.00
601.2010, 34086.00
602.3700, 34460.00
603.5390, 34296.00
604.7080, 34460.00
605.8770, 34211.00
607.0460, 34437.00
608.2140, 34058.00
609.3830, 34157.00
610.5510, 34090.00
611.7190, 34286.00
612.8870, 34220.00
614.0550, 34165.00
615.2220, 34325.00
616.3900, 34375.00
617.5570, 34575.00
618.7240, 34733.00
619.8910, 34544.00
621.0580, 34801.00
622.2240, 35026.00
623.3910, 34972.00
624.5570, 35220.00
625.7230, 35304.00
626.8890, 35448.00
628.0550, 35427.00
629.2200, 35700.00
630.3860, 35987.00
631.5510, 36101.00
632.7160, 36416.00
633.8810, 36802.00
635.0460, 37184.00
636.2100, 37588.00
637.3750, 38502.00
638.5390, 39065.00
639.7030, 39700.00
640.8670, 40029.00
642.0310, 40954.00
643.1950, 41261.00
644.3580, 41741.00
645.5210, 41995.00
646.6850, 41905.00
647.8480, 41265.00
649.0100, 40476.00
650.1730, 39231.00
651.3350, 38327.00
652.4980, 37416.00
653.6600, 36770.66
654.8220, 36615.00
655.9840, 36033.00
657.1450, 35740.00
658.3070, 35957.00
659.4680, 35803.00
660.6300, 35704.00
661.7910, 35577.00
662.9510, 35571.00
664.1120, 35506.00
665.2730, 35203.00
666.4330, 35396.00
667.5930, 35481.00
668.7530, 35266.00
669.9130, 35359.00
671.0730, 35175.00
672.2320, 35501.00
673.3920, 35285.00
674.5510, 35184.00
675.7100, 35398.00
676.8690, 35441.00
678.0280, 35228.00
679.1860, 35390.00
680.3450, 35289.00
681.5030, 35613.00
682.6610, 35473.00
683.8190, 35641.00
684.9770, 35406.00
686.1340, 35818.00
687.2920, 35621.00
688.4490, 35697.00
689.6060, 35482.00
690.7630, 35533.74
691.9200, 35555.00
693.0760, 35590.00
694.2330, 35675.00
695.3890, 35691.00
696.5450, 35965.00
697.7010, 35800.00
698.8570, 35738.00
700.0130, 35575.00
701.1680, 35854.00
702.3230, 35902.00
703.4780, 35710.00
704.6330, 36028.00
705.7880, 35995.00
706.9430, 36099.00
708.0970, 35761.00
709.2520, 35832.00
710.4060, 35968.00
711.5600, 36017.00
712.7140, 36009.00
713.8670, 36102.00
715.0210, 36077.51
716.1740, 36051.00
717.3270, 36015.00
718.4800, 36043.00
719.6330, 35916.00
720.7860, 36074.00
721.9380, 35970.00
723.0910, 36385.00
724.2430, 36338.00
725.3950, 36209.00
726.5470, 36479.00
727.6980, 36259.00
728.8500, 36513.00
730.0010, 36373.00
731.1530, 36348.00
732.3040, 36229.00
733.4550, 36218.28
734.6050, 36258.47
735.7560, 36259.00
736.9060, 36426.00
738.0560, 36571.00
739.2060, 36724.00
740.3560, 36737.37
741.5060, 36867.00
742.6560, 36725.00
743.8050, 36847.00
744.9540, 36858.00
746.1030, 37059.00
747.2520, 36962.00
748.4010, 37008.19
749.5500, 36779.00
750.6980, 37020.00
751.8460, 36902.00
752.9950, 37012.00
754.1420, 36985.00
755.2900, 36806.00
756.4380, 36980.00
757.5850, 36961.00
758.7330, 37153.00
759.8800, 36992.00
761.0270, 36907.00
762.1730, 37240.00
763.3200, 37107.00
764.4670, 37358.00
765.6130, 37076.00
766.7590, 37410.00
767.9050, 37183.00
769.0510, 37276.00
770.1960, 37299.00
771.3420, 37197.00
772.4870, 37506.00
773.6320, 37462.00
774.7770, 37582.00
775.9220, 37475.00
777.0670, 37425.00
778.2110, 37666.00
779.3560, 37427.00
780.5000, 37613.00
781.6440, 37549.00
782.7880, 37799.00
783.9320, 37896.00
785.0750, 37916.00
786.2180, 37767.00
787.3620, 37915.00
788.5050, 38065.00
789.6480, 37833.00
790.7900, 38151.00
791.9330, 37732.00
793.0750, 38115.00
794.2170, 38221.00
795.3590, 38201.00
796.5010, 38432.00
797.6430, 38377.00
798.7850, 38593.00
799.9260, 38576.00
801.0670, 38601.00
802.2080, 38787.00
803.3490, 38846.00
804.4900, 38614.00
805.6310, 38827.00
806.7710, 38694.00
807.9110, 38789.00
809.0510, 38762.00
810.1910, 38854.00
811.3310, 38916.00
812.4710, 38779.00
813.6100, 38963.00
814.7490, 38663.00
815.8880, 38813.00
817.0270, 38998.00
818.1660, 39054.00
819.3050, 38873.00
820.4430, 38810.00
821.5820, 38617.00
822.7200, 38709.00
823.8580, 38829.00
824.9950, 38814.00
826.1330, 38990.00
827.2710, 38936.00
828.4080, 38887.00
829.5450, 38911.00
830.6820, 38963.00
831.8190, 38870.00
832.9560, 38993.00
834.0920, 39029.00
835.2280, 38886.00
836.3650, 39011.00
837.5010, 38736.00
838.6360, 38975.00
839.7720, 38843.00
840.9080, 38695.00
842.0430, 38950.00
843.1780, 38835.00
844.3130, 38943.00
845.4480, 39048.00
846.5830, 38843.00
847.7170, 38902.00
848.8520, 38818.00
849.9860, 38868.92
851.1200, 39053.00
852.2540, 39020.00
853.3870, 39057.00
854.5210, 39088.00
855.6540, 39064.00
856.7880, 39358.00
857.9210, 38884.00
859.0540, 39169.00
860.1860, 39105.00
861.3190, 39406.00
862.4510, 39308.00
863.5840, 39226.00
864.7160, 39251.00
865.8480, 39218.00
866.9790, 39630.00
868.1110, 39349.00
869.2420, 39547.00
870.3740, 39321.00
871.5050, 39436.00
872.6360, 39627.00
873.7660, 39582.00
874.8970, 39673.15
876.0280, 39622.00
877.1580, 39702.00
878.2880, 39735.00
879.4180, 39741.78
880.5480, 39725.00
881.6770, 39617.00
882.8070, 39794.00
883.9360, 39700.00
885.0650, 40041.00
886.1940, 39733.00
887.3230, 39822.00
888.4520, 39736.00
889.5800, 39736.00
890.7090, 39774.00
891.8370, 40142.00
892.9650, 39809.00
894.0930, 40090.00
895.2200, 39799.00
896.3480, 39721.00
897.4750, 39906.00
898.6020, 39806.18
899.7290, 40016.00
900.8560, 39967.00
901.9830, 39983.00
903.1090, 40122.00
904.2360, 40016.00
905.3620, 40046.00
906.4880, 40261.00
907.6140, 40456.00
908.7400, 40225.00
909.8650, 40296.00
910.9900, 40044.00
912.1160, 40394.00
913.2410, 40308.00
914.3660, 40232.00
915.4900, 40192.00
916.6150, 40447.00
917.7390, 40604.00
918.8640, 40346.00
919.9880, 40593.00
921.1120, 40139.00
922.2350, 40664.00
923.3590, 40343.00
924.4820, 40628.00
925.6060, 40647.00
926.7290, 40771.00
927.8520, 40595.00
928.9740, 40554.00
930.0970, 41095.00
931.2190, 40870.00
932.3420, 40864.00
933.4640, 40612.00
934.5860, 40826.00
935.7080, 40715.00
936.8290, 40810.00
937.9510, 40859.00
939.0720, 40735.00
940.1930, 40916.00
941.3140, 40636.00
942.4350, 40820.00
943.5560, 41017.00
944.6760, 41305.00
945.7960, 41312.00
946.9170, 41340.00
948.0370, 41106.00
949.1560, 41142.00
950.2760, 41214.00
951.3960, 41124.00
952.5150, 41292.00
953.6340, 41417.00
954.7530, 41303.00
955.8720, 41156.00
956.9910, 41403.00
958.1090, 41373.00
959.2280, 41543.00
960.3460, 41577.60
961.4640, 41596.00
962.5820, 41622.00
963.6990, 41771.00
964.8170, 41794.00
965.9340, 41798.74
967.0510, 41912.00
968.1690, 41804.00
969.2850, 41657.00
970.4020, 41742.00
971.5190, 41747.00
972.6350, 41729.19
973.7510, 41758.68
974.8670, 41794.00
975.9830, 41909.00
977.0990, 42016.00
978.2150, 42025.35
979.3300, 42416.00
980.4450, 42181.00
981.5600, 42446.00
982.6750, 42794.00
983.7900, 42691.00
984.9050, 42978.00
986.0190, 42907.00
987.1340, 43089.00
988.2480, 43377.00
989.3620, 43381.00
990.4750, 43676.00
991.5890, 43953.00
992.7020, 44081.00
993.8160, 44708.00
994.9290, 45088.00
996.0420, 45707.00
997.1550, 45989.00
998.2670, 46335.00
999.3800, 46905.00
1000.492, 47687.00
1001.604, 48241.00
1002.716, 48900.00
1003.828, 49547.00
1004.940, 49985.00
1006.051, 50555.71
1007.163, 51314.00
1008.274, 51472.00
1009.385, 51636.00
1010.496, 51975.00
1011.606, 51684.00
1012.717, 51497.00
1013.827, 50635.00
1014.937, 49953.00
1016.047, 49182.00
1017.157, 48911.00
1018.267, 48066.00
1019.377, 47432.00
1020.486, 47198.00
1021.595, 46584.00
1022.704, 46295.00
1023.813, 45940.00
1024.922, 45640.00
1026.030, 45378.00
1027.139, 45360.00
1028.247, 45481.00
1029.355, 45329.00
1030.463, 45430.00
1031.571, 45621.00
1032.678, 45657.00
1033.786, 45762.00
1034.893, 45914.00
1036.000, 46035.65
1037.107, 46306.00
1038.214, 46455.00
1039.321, 46565.00
1040.427, 46965.00
1041.533, 46982.00
1042.639, 47617.00
1043.745, 47358.00
1044.851, 47646.00
1045.957, 47977.00
1047.062, 47847.00
1048.168, 48267.00
1049.273, 48531.00
1050.378, 48793.00
1051.482, 49027.00
1052.587, 49384.69
1053.692, 49799.00
1054.796, 50203.00
1055.900, 50694.00
1057.004, 51330.00
1058.108, 52113.00
1059.212, 52544.00
1060.315, 52649.00
1061.418, 53386.00
1062.522, 52873.00
1063.625, 52549.00
1064.728, 52045.00
1065.830, 51058.00
1066.933, 49970.00
1068.035, 49270.00
1069.137, 47988.00
1070.239, 47479.00
1071.341, 46901.00
1072.443, 46628.00
1073.545, 46023.00
1074.646, 45931.00
1075.747, 45368.00
1076.848, 45317.00
1077.949, 44936.00
1079.050, 44964.00
1080.150, 44853.00
1081.251, 44734.00
1082.351, 44794.00
1083.451, 44456.00
1084.551, 44663.00
1085.651, 44367.00
1086.750, 44381.00
1087.850, 44620.00
1088.949, 44542.00
1090.048, 44688.00
1091.147, 44380.00
1092.246, 44431.00
1093.345, 44450.00
1094.443, 44324.00
1095.541, 44326.00
1096.639, 44266.00
1097.737, 44426.00
1098.835, 44491.00
1099.933, 44720.00
1101.030, 44694.00
1102.128, 44553.00
1103.225, 44889.00
1104.322, 44753.00
1105.419, 44832.00
1106.515, 44932.00
1107.612, 44925.69
1108.708, 45005.42
1109.804, 45069.00
1110.900, 45078.00
1111.996, 45185.00
1113.092, 45189.88
1114.187, 45240.36
1115.283, 45346.00
1116.378, 45309.00
1117.473, 45270.00
1118.568, 45281.00
1119.662, 45100.00
1120.757, 45205.00
1121.851, 45660.00
1122.946, 45715.00
1124.040, 45585.00
1125.134, 45303.00
1126.227, 45296.00
1127.321, 45390.00
1128.414, 45426.00
1129.508, 45246.00
1130.601, 45221.00
1131.693, 45452.00
1132.786, 45215.00
1133.879, 45348.00
1134.971, 45394.00
1136.064, 45130.00
1137.156, 44990.00
1138.248, 45131.00
1139.339, 45001.00
1140.431, 45219.00
1141.522, 45273.00
1142.614, 44930.00
1143.705, 45110.00
1144.796, 45182.00
1145.887, 45016.00
1146.977, 45126.00
1148.068, 45088.00
1149.158, 45185.00
1150.248, 45296.00
1151.338, 45140.00
1152.428, 45269.00
1153.518, 45152.00
1154.607, 45133.00
1155.696, 45333.00
1156.785, 45419.00
1157.874, 45353.85
1158.963, 45330.00
1160.052, 45285.00
1161.141, 45290.00
1162.229, 45405.00
1163.317, 45416.00
1164.405, 45301.00
1165.493, 45412.00
1166.581, 45270.00
1167.668, 44958.00
1168.756, 45396.00
1169.843, 45587.00
1170.930, 45208.00
1172.017, 45242.00
1173.103, 45481.00
1174.190, 45482.00
1175.276, 45626.00
1176.363, 45779.00
1177.449, 45742.01
1178.535, 45713.00
1179.620, 45730.00
1180.706, 45682.00
1181.791, 45685.00
1182.877, 45653.00
1183.962, 45985.00
1185.047, 46085.00
1186.131, 46075.00
1187.216, 45909.00
1188.300, 45878.00
1189.385, 45885.00
1190.469, 45855.23
1191.553, 46133.00
1192.637, 46000.00
1193.720, 46051.00
1194.804, 46309.00
1195.887, 46137.00
1196.970, 46214.00
1198.053, 46513.00
1199.136, 46061.00
1200.219, 46675.00
1201.301, 46446.00
1202.383, 46552.00
1203.465, 46445.00
1204.547, 46422.00
1205.629, 46288.00
1206.711, 46296.00
1207.792, 46495.00
1208.874, 46580.00
1209.955, 46609.00
1211.036, 46649.03
1212.117, 46587.00
1213.198, 46532.00
1214.278, 46481.00
1215.359, 46434.01
1216.439, 46517.00
1217.519, 46409.00
1218.599, 46457.00
1219.678, 46579.00
1220.758, 46567.00
1221.837, 46336.00
1222.917, 46533.00
1223.996, 46323.00
1225.075, 46731.00
1226.153, 46541.00
1227.232, 46586.00
1228.310, 46471.00
1229.389, 46482.00
1230.467, 46423.00
1231.545, 46449.00
1232.622, 46509.00
1233.700, 46360.00
1234.777, 46403.00
1235.855, 46538.00
1236.932, 46668.00
1238.009, 46724.00
1239.086, 46606.00
1240.162, 46675.00
1241.239, 46596.00
1242.315, 46934.00
1243.391, 46792.00
1244.467, 47029.00
1245.543, 47017.00
1246.619, 46801.00
1247.694, 46961.00
1248.769, 46844.00
1249.844, 46894.00
1250.919, 47076.00
1251.994, 46639.00
1253.069, 47251.00
1254.144, 46693.00
1255.218, 47011.00
1256.292, 46926.00
1257.366, 46944.00
1258.440, 47259.00
1259.514, 47067.00
1260.587, 47239.00
1261.661, 46970.00
1262.734, 46963.82
1263.807, 46941.00
1264.880, 46962.00
1265.952, 47064.00
1267.025, 47031.13
1268.097, 47202.00
1269.170, 47035.00
1270.242, 47239.00
1271.314, 47245.00
1272.385, 47236.00
1273.457, 47237.00
1274.528, 47293.00
1275.600, 47191.00
1276.671, 47190.63
1277.742, 47306.00
1278.812, 47159.00
1279.883, 47403.00
1280.954, 47548.00
1282.024, 47378.00
1283.094, 47343.00
1284.164, 47504.00
1285.234, 47182.00
1286.303, 47383.00
1287.373, 47539.00
1288.442, 47534.00
1289.511, 47416.00
1290.580, 47368.00
1291.649, 47438.00
1292.718, 47527.00
1293.786, 47540.00
1294.855, 47468.00
1295.923, 47726.00
1296.991, 47842.00
1298.059, 48004.00
1299.126, 47976.58
1300.194, 47583.00
1301.261, 47739.00
1302.328, 47659.00
1303.395, 47356.00
1304.462, 47656.00
1305.529, 47857.00
1306.596, 47979.00
1307.662, 48126.00
1308.728, 48040.00
1309.794, 48070.00
1310.860, 48027.00
1311.926, 48065.00
1312.991, 47989.00
1314.057, 48303.00
1315.122, 47844.00
1316.187, 48210.00
1317.252, 48079.00
1318.317, 48344.00
1319.381, 48234.00
1320.446, 48305.00
1321.510, 48176.00
1322.574, 48306.00
1323.638, 48272.46
1324.702, 48280.00
1325.766, 48323.00
1326.829, 48374.00
1327.892, 48478.00
1328.956, 48276.00
1330.019, 48157.00
1331.081, 48386.00
1332.144, 48200.00
1333.206, 48125.00
1334.269, 48350.00
1335.331, 48440.00
1336.393, 48417.00
1337.455, 48496.00
1338.516, 48347.00
1339.578, 48579.00
1340.639, 48583.00
1341.701, 48265.00
1342.762, 48458.00
1343.822, 48912.00
1344.883, 48625.00
1345.944, 48872.00
1347.004, 48451.00
1348.064, 48768.00
1349.124, 48738.00
1350.184, 48862.00
1351.244, 48191.00
1352.304, 48995.00
1353.363, 48682.00
1354.422, 49107.00
1355.481, 48894.00
1356.540, 48556.00
1357.599, 48732.00
1358.657, 48734.00
1359.716, 48883.00
1360.774, 48752.00
1361.832, 48921.00
1362.890, 48995.00
1363.948, 48859.00
1365.006, 48820.00
1366.063, 48811.00
1367.120, 48993.00
1368.178, 49116.00
1369.234, 49003.00
1370.291, 49291.00
1371.348, 49335.00
1372.404, 49280.00
1373.461, 49286.00
1374.517, 49271.00
1375.573, 49174.00
1376.629, 49402.00
1377.684, 49265.00
1378.740, 49244.00
1379.795, 49037.00
1380.850, 49297.00
1381.905, 49258.00
1382.960, 49329.00
1384.015, 49523.00
1385.070, 49334.00
1386.124, 49442.00
1387.178, 49447.00
1388.232, 49394.00
1389.286, 49299.00
1390.340, 49485.00
1391.393, 49549.00
1392.447, 49445.00
1393.500, 49452.00
1394.553, 49395.00
1395.606, 49487.00
1396.659, 49434.00
1397.711, 49234.00
1398.764, 49115.00
1399.816, 49182.02
1400.868, 49461.00
1401.920, 49311.00
1402.972, 49685.00
1404.023, 49700.00
1405.075, 49663.00
1406.126, 49668.00
1407.177, 49828.00
1408.228, 49591.00
1409.279, 49827.00
1410.330, 49715.00
1411.380, 49902.00
1412.431, 49573.00
1413.481, 49909.00
1414.531, 49489.00
1415.580, 49879.00
1416.630, 49776.00
1417.680, 49909.00
1418.729, 50027.00
1419.778, 49484.00
1420.827, 50009.00
1421.876, 49588.00
1422.925, 50173.00
1423.973, 49790.00
1425.022, 50242.00
1426.070, 50270.00
1427.118, 50206.00
1428.166, 50006.00
1429.214, 49935.00
1430.261, 50044.00
1431.309, 50080.00
1432.356, 49950.00
1433.403, 50054.00
1434.450, 49759.00
1435.497, 50025.00
1436.543, 50320.00
1437.590, 50152.00
1438.636, 50400.00
1439.682, 50183.00
1440.728, 50252.00
1441.774, 50387.00
1442.819, 50251.00
1443.865, 50442.00
1444.910, 50598.00
1445.955, 50548.60
1447.000, 50501.00
1448.045, 50545.00
1449.090, 50728.00
1450.134, 50663.00
1451.178, 50622.00
1452.223, 50689.00
1453.267, 50506.00
1454.310, 50651.00
1455.354, 50805.00
1456.398, 50612.00
1457.441, 50660.00
1458.484, 50793.00
1459.527, 50614.00
1460.570, 50723.00
1461.613, 50719.00
1462.655, 50636.00
1463.698, 50845.00
1464.740, 51078.00
1465.782, 50781.00
1466.824, 50604.00
1467.866, 50719.00
1468.907, 50856.00
1469.948, 50837.00
1470.990, 51014.00
1472.031, 50802.00
1473.072, 51330.00
1474.112, 51040.00
1475.153, 50967.00
1476.194, 51261.00
1477.234, 51102.00
1478.274, 51016.00
1479.314, 50731.00
1480.354, 51091.00
1481.393, 51040.00
1482.433, 51007.00
1483.472, 51193.00
1484.511, 51061.00
1485.550, 51364.00
1486.589, 51275.00
1487.628, 51174.00
1488.666, 51335.00
1489.704, 51296.00
1490.743, 51378.00
1491.781, 51372.00
1492.819, 51427.00
1493.856, 51562.00
1494.894, 51666.00
1495.931, 51640.00
1496.968, 51605.00
1498.005, 51422.00
1499.042, 51393.00
1500.079, 51450.00
1501.115, 51462.00
1502.152, 51502.00
1503.188, 51549.92
1504.224, 51614.00
1505.260, 51654.00
1506.296, 51607.00
1507.331, 51669.00
1508.367, 51606.00
1509.402, 51838.00
1510.437, 51538.00
1511.472, 51321.00
1512.507, 51636.00
1513.541, 51505.00
1514.576, 51815.00
1515.610, 51675.00
1516.644, 51523.00
1517.678, 51661.00
1518.712, 51550.00
1519.746, 51931.00
1520.779, 51699.00
1521.813, 52145.00
1522.846, 52013.00
1523.879, 51577.00
1524.912, 51983.00
1525.944, 52134.00
1526.977, 51860.00
1528.009, 52082.00
1529.041, 51964.00
1530.073, 52273.00
1531.105, 51818.00
1532.137, 51992.00
1533.168, 52160.00
1534.200, 52234.00
1535.231, 52150.00
1536.262, 52224.00
1537.293, 52229.00
1538.324, 52361.00
1539.354, 52173.00
1540.385, 52516.00
1541.415, 52278.00
1542.445, 52185.00
1543.475, 52286.00
1544.505, 52107.00
1545.534, 52247.00
1546.564, 52188.00
1547.593, 52309.00
1548.622, 52118.00
1549.651, 52309.00
1550.680, 52380.00
1551.708, 52241.00
1552.737, 52462.95
1553.765, 52419.00
1554.793, 52691.00
1555.821, 52317.00
1556.849, 52349.00
1557.877, 52395.00
1558.904, 52469.00
1559.932, 52432.00
1560.959, 52447.00
1561.986, 52446.00
1563.013, 52618.00
1564.039, 52693.00
1565.066, 52442.00
1566.092, 53014.00
1567.119, 52844.00
1568.145, 52695.00
1569.170, 52836.00
1570.196, 52282.00
1571.222, 52705.00
1572.247, 52799.00
1573.272, 52576.00
##END=



