##NAMES=Montebrasite
##RRUFFID=R060890
##IDEAL CHEMISTRY=LiAlPO_4_(OH)
##LOCALITY=Mount Marie, Paris, Maine, USA
##OWNER=RRUFF
##SOURCE=Bob Jenkins
##DESCRIPTION=Colorless massive
##STATUS=The identification of this mineral is confirmed by single-crystal X-ray diffraction and chemical analysis.
##URL=rruff.info/R060890
##MEASURED CHEMISTRY=Li_1.00_Al_1.00_(P_1.00_O_4_)(OH)_0.63_F_0.37_)_Î£=1_ ; Li not measured but estimated by stoichiometry
##PIN_ID=M01307
##ORIENTATION=Laser parallel to -c* (0 0 -1). Fiducial mark perpendicular to laser is parallel to a [1 0 0]
90.67800, 10912.00
91.91600, 11114.00
93.15500, 11112.00
94.39300, 11103.00
95.63100, 11384.00
96.86900, 11181.00
98.10600, 11220.00
99.34400, 11449.00
100.5810, 11537.00
101.8190, 11611.00
103.0560, 11684.00
104.2930, 11722.00
105.5290, 12132.00
106.7660, 12739.00
108.0020, 13084.00
109.2390, 13037.00
110.4750, 12709.00
111.7110, 12981.00
112.9460, 13106.00
114.1820, 13631.00
115.4170, 13931.00
116.6530, 14082.00
117.8880, 14377.00
119.1230, 14316.00
120.3580, 14597.00
121.5920, 14970.00
122.8270, 15383.00
124.0610, 15914.35
125.2950, 16578.00
126.5290, 17175.00
127.7630, 17788.00
128.9970, 18563.00
130.2300, 18729.00
131.4640, 18753.00
132.6970, 18099.00
133.9300, 17184.00
135.1630, 16402.00
136.3950, 15556.00
137.6280, 14849.32
138.8600, 13941.00
140.0920, 13601.00
141.3240, 13221.00
142.5560, 12846.00
143.7880, 12767.00
145.0190, 12698.00
146.2510, 12551.00
147.4820, 12612.00
148.7130, 12585.00
149.9440, 12513.00
151.1750, 12580.00
152.4050, 12856.00
153.6360, 12817.00
154.8660, 12890.00
156.0960, 13020.00
157.3260, 12860.00
158.5560, 13158.00
159.7850, 13046.00
161.0150, 13237.00
162.2440, 13066.00
163.4730, 13111.00
164.7020, 12958.00
165.9310, 12858.00
167.1590, 12703.00
168.3880, 12544.84
169.6160, 12466.00
170.8440, 12230.00
172.0720, 12231.00
173.3000, 12134.00
174.5280, 11937.00
175.7550, 11955.00
176.9820, 11965.00
178.2100, 11933.00
179.4370, 11819.00
180.6630, 11889.00
181.8900, 11882.00
183.1170, 11820.00
184.3430, 11881.00
185.5690, 11971.00
186.7950, 11983.00
188.0210, 12054.00
189.2470, 12090.00
190.4720, 12166.85
191.6970, 12335.00
192.9230, 12363.00
194.1480, 12376.00
195.3730, 12527.00
196.5970, 12405.00
197.8220, 12351.00
199.0460, 12573.00
200.2700, 12687.00
201.4940, 12498.00
202.7180, 12122.00
203.9420, 12041.00
205.1660, 11766.00
206.3890, 11743.00
207.6120, 11543.00
208.8350, 11684.00
210.0580, 11501.00
211.2810, 11500.00
212.5040, 11540.00
213.7260, 11622.00
214.9480, 11553.00
216.1700, 11606.60
217.3920, 11574.00
218.6140, 11588.00
219.8360, 11513.00
221.0570, 11422.00
222.2790, 11480.00
223.5000, 11374.00
224.7210, 11478.00
225.9410, 11390.00
227.1620, 11449.00
228.3820, 11389.00
229.6030, 11456.00
230.8230, 11480.00
232.0430, 11397.00
233.2630, 11418.00
234.4820, 11474.00
235.7020, 11569.00
236.9210, 11403.00
238.1400, 11543.00
239.3590, 11539.00
240.5780, 11544.00
241.7970, 11642.00
243.0150, 11602.00
244.2340, 11663.91
245.4520, 11688.48
246.6700, 11754.00
247.8880, 11693.00
249.1060, 11763.00
250.3230, 11674.00
251.5400, 11885.00
252.7580, 11837.00
253.9750, 11850.00
255.1920, 12069.00
256.4080, 12171.00
257.6250, 12200.00
258.8410, 12275.00
260.0580, 12449.00
261.2740, 12598.00
262.4900, 12702.00
263.7050, 12932.00
264.9210, 13085.00
266.1360, 13174.00
267.3520, 13452.00
268.5670, 13583.00
269.7820, 13709.00
270.9960, 13865.00
272.2110, 14003.00
273.4250, 14082.00
274.6400, 14053.00
275.8540, 13881.00
277.0680, 14054.00
278.2810, 13910.00
279.4950, 13926.00
280.7090, 13858.00
281.9220, 13785.00
283.1350, 14160.00
284.3480, 14221.00
285.5610, 14464.00
286.7730, 14839.00
287.9860, 15229.00
289.1980, 15879.00
290.4100, 16456.00
291.6220, 17342.00
292.8340, 18357.00
294.0460, 19645.00
295.2570, 21116.00
296.4690, 22726.00
297.6800, 24656.00
298.8910, 26577.00
300.1020, 28068.00
301.3120, 29542.00
302.5230, 29558.00
303.7330, 28587.00
304.9440, 26776.00
306.1540, 24839.00
307.3630, 23274.00
308.5730, 21474.00
309.7830, 20022.00
310.9920, 19160.00
312.2010, 17996.00
313.4100, 17518.00
314.6190, 16948.00
315.8280, 16312.00
317.0370, 15977.00
318.2450, 15735.00
319.4530, 15277.00
320.6610, 15312.00
321.8690, 15220.00
323.0770, 15056.00
324.2850, 14920.00
325.4920, 14746.00
326.6990, 14703.00
327.9060, 14604.00
329.1130, 14300.00
330.3200, 14307.00
331.5270, 13972.00
332.7330, 13877.00
333.9390, 13609.00
335.1450, 13792.00
336.3510, 13524.00
337.5570, 13554.00
338.7630, 13377.00
339.9680, 13290.05
341.1740, 13284.00
342.3790, 13143.00
343.5840, 13254.00
344.7890, 13220.00
345.9930, 13196.00
347.1980, 13196.00
348.4020, 13124.00
349.6060, 13199.00
350.8100, 13068.00
352.0140, 13168.00
353.2180, 13055.00
354.4210, 13123.00
355.6250, 13273.00
356.8280, 13241.00
358.0310, 13234.00
359.2340, 13272.73
360.4360, 13072.00
361.6390, 13213.00
362.8410, 13219.00
364.0430, 13078.00
365.2450, 13216.00
366.4470, 13248.00
367.6490, 13341.00
368.8510, 13365.03
370.0520, 13408.54
371.2530, 13379.00
372.4540, 13414.00
373.6550, 13409.00
374.8560, 13283.00
376.0560, 13282.00
377.2570, 13317.00
378.4570, 13308.00
379.6570, 13387.00
380.8570, 13444.00
382.0570, 13377.00
383.2560, 13426.00
384.4560, 13319.00
385.6550, 13489.00
386.8540, 13458.00
388.0530, 13478.00
389.2520, 13417.00
390.4510, 13467.00
391.6490, 13375.00
392.8470, 13420.00
394.0450, 13470.00
395.2430, 13607.00
396.4410, 13619.00
397.6390, 13553.00
398.8360, 13608.00
400.0340, 13542.00
401.2310, 13599.00
402.4280, 13630.00
403.6250, 13490.00
404.8210, 13612.00
406.0180, 13552.00
407.2140, 13711.00
408.4100, 13801.98
409.6060, 13848.88
410.8020, 14030.00
411.9980, 14071.00
413.1930, 14107.00
414.3890, 14345.00
415.5840, 14652.00
416.7790, 15141.00
417.9740, 15698.00
419.1680, 16161.00
420.3630, 16802.00
421.5570, 17590.00
422.7510, 18132.00
423.9450, 19109.00
425.1390, 19696.00
426.3330, 19506.00
427.5270, 18872.00
428.7200, 17859.00
429.9130, 16814.00
431.1060, 15943.00
432.2990, 15308.00
433.4920, 14907.00
434.6840, 14497.00
435.8770, 14544.00
437.0690, 14336.00
438.2610, 14239.00
439.4530, 14174.00
440.6450, 14154.00
441.8360, 14058.00
443.0280, 14234.00
444.2190, 14122.00
445.4100, 14211.00
446.6010, 14116.00
447.7920, 14203.00
448.9820, 14185.00
450.1730, 14294.00
451.3630, 14318.00
452.5530, 14434.00
453.7430, 14450.00
454.9330, 14590.00
456.1230, 14713.00
457.3120, 14871.00
458.5010, 14946.00
459.6910, 15195.00
460.8800, 15257.00
462.0680, 15521.00
463.2570, 15672.00
464.4460, 15622.00
465.6340, 15718.00
466.8220, 15848.00
468.0100, 15998.00
469.1980, 16164.00
470.3860, 16313.00
471.5730, 16408.00
472.7600, 16641.00
473.9480, 16871.00
475.1350, 17299.00
476.3210, 17692.00
477.5080, 18131.00
478.6950, 18360.00
479.8810, 18793.00
481.0670, 18903.00
482.2530, 18883.00
483.4390, 19068.00
484.6250, 19018.00
485.8100, 18858.71
486.9960, 18525.00
488.1810, 18335.00
489.3660, 18051.00
490.5510, 17611.00
491.7360, 17610.00
492.9200, 17347.00
494.1050, 17219.00
495.2890, 16864.00
496.4730, 16711.98
497.6570, 16563.00
498.8400, 16327.00
500.0240, 16190.00
501.2070, 16009.00
502.3910, 15717.00
503.5740, 15719.00
504.7570, 15554.00
505.9400, 15232.00
507.1220, 15355.00
508.3050, 14926.00
509.4870, 15042.00
510.6690, 14950.00
511.8510, 14737.00
513.0330, 14761.00
514.2140, 14727.00
515.3960, 14776.00
516.5770, 14614.00
517.7580, 14628.00
518.9390, 14587.00
520.1200, 14524.00
521.3010, 14459.00
522.4810, 14590.00
523.6610, 14484.00
524.8420, 14501.00
526.0220, 14441.00
527.2010, 14449.00
528.3810, 14473.00
529.5610, 14315.00
530.7400, 14450.00
531.9190, 14441.00
533.0980, 14320.00
534.2770, 14437.00
535.4560, 14548.00
536.6340, 14396.00
537.8120, 14322.00
538.9910, 14258.00
540.1690, 14431.00
541.3460, 14423.00
542.5240, 14472.00
543.7020, 14472.00
544.8790, 14388.00
546.0560, 14451.00
547.2330, 14422.00
548.4100, 14572.00
549.5870, 14665.00
550.7630, 14591.00
551.9400, 14632.00
553.1160, 14602.74
554.2920, 14693.00
555.4680, 14589.00
556.6440, 14542.00
557.8190, 14662.00
558.9950, 14668.00
560.1700, 14653.00
561.3450, 14685.00
562.5200, 14740.00
563.6950, 14733.00
564.8690, 14706.00
566.0440, 14787.00
567.2180, 14828.00
568.3920, 14742.00
569.5660, 14716.00
570.7400, 14756.63
571.9130, 14820.00
573.0870, 14837.00
574.2600, 14935.00
575.4330, 14996.00
576.6060, 14801.00
577.7790, 14769.00
578.9520, 14962.00
580.1240, 14960.00
581.2960, 15035.00
582.4690, 14942.00
583.6410, 15091.00
584.8120, 15155.00
585.9840, 15241.00
587.1560, 15224.00
588.3270, 15229.00
589.4980, 15198.00
590.6690, 15391.00
591.8400, 15410.00
593.0110, 15668.00
594.1810, 15892.00
595.3510, 16093.00
596.5220, 16346.00
597.6920, 16494.00
598.8610, 16746.00
600.0310, 16938.00
601.2010, 17059.00
602.3700, 17324.00
603.5390, 17417.00
604.7080, 17272.00
605.8770, 16947.00
607.0460, 16883.00
608.2140, 16876.00
609.3830, 16668.00
610.5510, 16775.00
611.7190, 16619.00
612.8870, 16572.00
614.0550, 16627.00
615.2220, 16863.00
616.3900, 16896.00
617.5570, 17094.00
618.7240, 17257.00
619.8910, 17562.00
621.0580, 17704.00
622.2240, 17961.00
623.3910, 18387.00
624.5570, 18767.87
625.7230, 19482.00
626.8890, 19811.00
628.0550, 20499.00
629.2200, 21140.00
630.3860, 22110.00
631.5510, 22928.00
632.7160, 23705.00
633.8810, 24633.00
635.0460, 25496.00
636.2100, 27187.00
637.3750, 29073.00
638.5390, 31682.00
639.7030, 35372.00
640.8670, 39423.00
642.0310, 44351.00
643.1950, 50588.00
644.3580, 56147.00
645.5210, 59641.00
646.6850, 60540.00
647.8480, 57366.00
649.0100, 51360.00
650.1730, 43884.00
651.3350, 37645.00
652.4980, 32655.00
653.6600, 28621.00
654.8220, 25782.00
655.9840, 23614.00
657.1450, 22062.00
658.3070, 20875.00
659.4680, 19703.00
660.6300, 19072.00
661.7910, 18614.00
662.9510, 18138.00
664.1120, 17863.00
665.2730, 17381.00
666.4330, 17112.00
667.5930, 17054.00
668.7530, 16856.00
669.9130, 16540.00
671.0730, 16535.00
672.2320, 16358.00
673.3920, 16278.00
674.5510, 16352.00
675.7100, 16234.00
676.8690, 16197.00
678.0280, 16113.00
679.1860, 16025.20
680.3450, 16026.00
681.5030, 15883.00
682.6610, 15825.00
683.8190, 15814.00
684.9770, 15799.00
686.1340, 15778.05
687.2920, 15710.00
688.4490, 15754.00
689.6060, 15784.00
690.7630, 15758.00
691.9200, 15814.00
693.0760, 15676.00
694.2330, 15635.00
695.3890, 15587.00
696.5450, 15634.00
697.7010, 15633.00
698.8570, 15461.00
700.0130, 15597.00
701.1680, 15608.00
702.3230, 15529.00
703.4780, 15673.00
704.6330, 15780.00
705.7880, 15619.00
706.9430, 15579.00
708.0970, 15615.00
709.2520, 15542.59
710.4060, 15547.00
711.5600, 15518.00
712.7140, 15563.00
713.8670, 15537.00
715.0210, 15697.00
716.1740, 15771.00
717.3270, 15659.00
718.4800, 15736.00
719.6330, 15708.00
720.7860, 15865.00
721.9380, 15777.00
723.0910, 15655.00
724.2430, 15714.00
725.3950, 15648.00
726.5470, 15720.00
727.6980, 15865.00
728.8500, 15745.00
730.0010, 15786.00
731.1530, 15850.00
732.3040, 15769.00
733.4550, 15828.41
734.6050, 15851.00
735.7560, 15816.00
736.9060, 15779.00
738.0560, 15687.00
739.2060, 15752.00
740.3560, 15745.39
741.5060, 15955.00
742.6560, 15846.00
743.8050, 15873.00
744.9540, 15949.00
746.1030, 15744.00
747.2520, 15927.00
748.4010, 15998.00
749.5500, 15854.00
750.6980, 15823.00
751.8460, 15889.00
752.9950, 15934.00
754.1420, 15869.00
755.2900, 15885.00
756.4380, 15937.00
757.5850, 15948.00
758.7330, 16026.00
759.8800, 16032.00
761.0270, 15978.00
762.1730, 15973.00
763.3200, 16020.00
764.4670, 15932.00
765.6130, 15972.00
766.7590, 16075.00
767.9050, 16065.00
769.0510, 16146.00
770.1960, 16090.00
771.3420, 15980.00
772.4870, 16211.00
773.6320, 16238.00
774.7770, 16177.00
775.9220, 16136.00
777.0670, 16231.00
778.2110, 16342.00
779.3560, 16354.00
780.5000, 16184.00
781.6440, 16405.00
782.7880, 16386.00
783.9320, 16222.00
785.0750, 16403.00
786.2180, 16466.00
787.3620, 16351.00
788.5050, 16421.00
789.6480, 16372.00
790.7900, 16731.00
791.9330, 16774.00
793.0750, 16807.00
794.2170, 16869.00
795.3590, 16900.11
796.5010, 16902.00
797.6430, 16977.00
798.7850, 17049.00
799.9260, 17091.00
801.0670, 17403.00
802.2080, 17191.00
803.3490, 17634.00
804.4900, 17909.00
805.6310, 17467.00
806.7710, 17457.00
807.9110, 17345.00
809.0510, 17473.00
810.1910, 17486.00
811.3310, 17279.00
812.4710, 17437.00
813.6100, 17375.00
814.7490, 17368.00
815.8880, 17440.00
817.0270, 17393.00
818.1660, 17363.00
819.3050, 17346.00
820.4430, 17389.00
821.5820, 17163.00
822.7200, 17098.00
823.8580, 17151.00
824.9950, 16992.74
826.1330, 17006.00
827.2710, 16917.00
828.4080, 16863.00
829.5450, 16976.00
830.6820, 16955.00
831.8190, 16953.00
832.9560, 16889.00
834.0920, 16885.00
835.2280, 16885.00
836.3650, 16866.00
837.5010, 16833.00
838.6360, 16769.00
839.7720, 16789.00
840.9080, 16907.00
842.0430, 16727.00
843.1780, 16850.00
844.3130, 16871.00
845.4480, 16853.00
846.5830, 16910.00
847.7170, 16766.00
848.8520, 16903.00
849.9860, 16916.00
851.1200, 16833.00
852.2540, 16726.00
853.3870, 16877.00
854.5210, 16800.00
855.6540, 17021.00
856.7880, 16882.00
857.9210, 16821.00
859.0540, 16880.00
860.1860, 16745.00
861.3190, 17037.00
862.4510, 16858.00
863.5840, 16987.00
864.7160, 16801.00
865.8480, 17070.00
866.9790, 16856.00
868.1110, 17129.00
869.2420, 16857.00
870.3740, 17033.00
871.5050, 17004.00
872.6360, 17069.00
873.7660, 16989.00
874.8970, 16997.00
876.0280, 16903.00
877.1580, 17076.00
878.2880, 17151.00
879.4180, 17111.00
880.5480, 17137.00
881.6770, 17061.00
882.8070, 17071.00
883.9360, 17049.00
885.0650, 17229.00
886.1940, 17023.00
887.3230, 17201.00
888.4520, 17264.00
889.5800, 17202.00
890.7090, 17194.00
891.8370, 17079.00
892.9650, 17254.00
894.0930, 17234.00
895.2200, 17303.00
896.3480, 17177.00
897.4750, 17388.00
898.6020, 17441.00
899.7290, 17302.00
900.8560, 17247.00
901.9830, 17257.00
903.1090, 17135.00
904.2360, 17237.00
905.3620, 17185.00
906.4880, 17451.00
907.6140, 17340.00
908.7400, 17367.00
909.8650, 17460.00
910.9900, 17456.00
912.1160, 17553.00
913.2410, 17447.00
914.3660, 17380.00
915.4900, 17446.00
916.6150, 17381.00
917.7390, 17492.00
918.8640, 17506.00
919.9880, 17602.00
921.1120, 17472.00
922.2350, 17470.00
923.3590, 17618.00
924.4820, 17675.00
925.6060, 17797.00
926.7290, 17629.00
927.8520, 17552.00
928.9740, 17785.00
930.0970, 17733.00
931.2190, 17846.00
932.3420, 17745.00
933.4640, 17773.00
934.5860, 17860.00
935.7080, 17844.00
936.8290, 17844.00
937.9510, 17778.00
939.0720, 17849.00
940.1930, 17777.00
941.3140, 17754.00
942.4350, 17996.00
943.5560, 17871.00
944.6760, 17970.00
945.7960, 17818.00
946.9170, 17880.00
948.0370, 17910.00
949.1560, 18115.00
950.2760, 17905.00
951.3960, 18289.00
952.5150, 18100.00
953.6340, 18114.00
954.7530, 18250.00
955.8720, 18329.00
956.9910, 18275.00
958.1090, 18319.00
959.2280, 18375.00
960.3460, 18448.00
961.4640, 18340.00
962.5820, 18460.00
963.6990, 18677.00
964.8170, 18472.00
965.9340, 18699.00
967.0510, 18698.00
968.1690, 18651.00
969.2850, 18800.00
970.4020, 18898.00
971.5190, 18901.00
972.6350, 18907.00
973.7510, 18805.00
974.8670, 19164.00
975.9830, 19200.00
977.0990, 19394.00
978.2150, 19354.00
979.3300, 19692.00
980.4450, 19671.00
981.5600, 19885.00
982.6750, 19838.00
983.7900, 19984.00
984.9050, 20383.00
986.0190, 20560.00
987.1340, 20785.00
988.2480, 21119.00
989.3620, 21391.00
990.4750, 21619.00
991.5890, 22149.00
992.7020, 22710.00
993.8160, 23300.00
994.9290, 24057.00
996.0420, 24990.00
997.1550, 25655.00
998.2670, 26783.00
999.3800, 27497.00
1000.492, 28832.00
1001.604, 30064.00
1002.716, 31407.00
1003.828, 32991.00
1004.940, 34584.00
1006.051, 36052.00
1007.163, 37405.00
1008.274, 38796.00
1009.385, 39574.00
1010.496, 40043.00
1011.606, 40133.00
1012.717, 39736.00
1013.827, 38751.00
1014.937, 37851.00
1016.047, 36445.00
1017.157, 34932.00
1018.267, 33771.00
1019.377, 32593.00
1020.486, 31329.00
1021.595, 30284.00
1022.704, 29396.00
1023.813, 28715.09
1024.922, 28237.00
1026.030, 27930.00
1027.139, 27846.00
1028.247, 27965.00
1029.355, 27976.00
1030.463, 28262.00
1031.571, 28798.00
1032.678, 29654.00
1033.786, 30448.00
1034.893, 31498.00
1036.000, 32707.00
1037.107, 33455.00
1038.214, 34790.00
1039.321, 35755.00
1040.427, 36946.00
1041.533, 37639.00
1042.639, 38334.00
1043.745, 38931.00
1044.851, 39658.00
1045.957, 40163.00
1047.062, 40129.00
1048.168, 39973.00
1049.273, 39852.00
1050.378, 40112.00
1051.482, 39754.00
1052.587, 40003.00
1053.692, 40082.00
1054.796, 40590.00
1055.900, 41343.00
1057.004, 42318.00
1058.108, 43581.00
1059.212, 44612.00
1060.315, 45579.00
1061.418, 46301.00
1062.522, 45930.00
1063.625, 45462.00
1064.728, 43256.00
1065.830, 40638.00
1066.933, 38185.00
1068.035, 35248.00
1069.137, 32858.00
1070.239, 30633.00
1071.341, 28987.00
1072.443, 27304.00
1073.545, 26162.94
1074.646, 25388.00
1075.747, 24564.00
1076.848, 24001.00
1077.949, 23651.00
1079.050, 23390.00
1080.150, 22879.00
1081.251, 22817.00
1082.351, 22373.00
1083.451, 21993.00
1084.551, 21857.00
1085.651, 21652.00
1086.750, 21597.00
1087.850, 21375.00
1088.949, 21257.00
1090.048, 21219.00
1091.147, 21083.00
1092.246, 21048.83
1093.345, 20884.00
1094.443, 20954.00
1095.541, 20996.00
1096.639, 20938.04
1097.737, 20843.00
1098.835, 21022.00
1099.933, 20955.00
1101.030, 20971.00
1102.128, 21104.00
1103.225, 21175.00
1104.322, 21135.00
1105.419, 21460.00
1106.515, 21329.00
1107.612, 21532.00
1108.708, 21724.00
1109.804, 21769.00
1110.900, 21949.00
1111.996, 22116.00
1113.092, 22292.00
1114.187, 22370.00
1115.283, 22529.00
1116.378, 22562.00
1117.473, 22652.00
1118.568, 22716.00
1119.662, 22774.00
1120.757, 22781.00
1121.851, 22755.98
1122.946, 22528.00
1124.040, 22635.00
1125.134, 22473.00
1126.227, 22386.00
1127.321, 22394.00
1128.414, 22190.32
1129.508, 21939.00
1130.601, 21958.00
1131.693, 21939.00
1132.786, 22015.00
1133.879, 21796.00
1134.971, 21812.00
1136.064, 21722.00
1137.156, 21690.00
1138.248, 21513.11
1139.339, 21374.86
1140.431, 21110.00
1141.522, 21059.00
1142.614, 20871.00
1143.705, 20833.00
1144.796, 20898.00
1145.887, 20700.00
1146.977, 20498.00
1148.068, 20632.00
1149.158, 20469.00
1150.248, 20504.00
1151.338, 20445.00
1152.428, 20526.00
1153.518, 20646.00
1154.607, 20523.00
1155.696, 20512.00
1156.785, 20433.00
1157.874, 20395.00
1158.963, 20476.00
1160.052, 20421.38
1161.141, 20696.00
1162.229, 20454.00
1163.317, 20385.00
1164.405, 20461.00
1165.493, 20676.00
1166.581, 20536.00
1167.668, 20571.00
1168.756, 20707.00
1169.843, 20727.00
1170.930, 20626.00
1172.017, 20682.00
1173.103, 20686.00
1174.190, 20774.00
1175.276, 21028.00
1176.363, 20988.00
1177.449, 20965.00
1178.535, 20808.00
1179.620, 21053.00
1180.706, 21030.00
1181.791, 21042.00
1182.877, 21154.00
1183.962, 21181.00
1185.047, 21245.00
1186.131, 21362.00
1187.216, 21251.00
1188.300, 21441.00
1189.385, 21484.40
1190.469, 21760.00
1191.553, 21706.00
1192.637, 21719.00
1193.720, 21876.00
1194.804, 21857.00
1195.887, 21780.00
1196.970, 21605.00
1198.053, 21697.00
1199.136, 21810.00
1200.219, 21622.00
1201.301, 21571.00
1202.383, 21444.00
1203.465, 21404.65
1204.547, 21367.90
1205.629, 21389.00
1206.711, 21313.00
1207.792, 21354.00
1208.874, 21292.00
1209.955, 21267.00
1211.036, 21295.69
1212.117, 21114.95
1213.198, 21255.00
1214.278, 20980.00
1215.359, 20764.00
1216.439, 21124.00
1217.519, 20883.00
1218.599, 20826.00
1219.678, 20804.00
1220.758, 20868.00
1221.837, 20670.00
1222.917, 20873.00
1223.996, 20720.00
1225.075, 20517.00
1226.153, 20615.90
1227.232, 20644.00
1228.310, 20563.00
1229.389, 20668.00
1230.467, 20565.00
1231.545, 20587.00
1232.622, 20649.00
1233.700, 20699.00
1234.777, 20664.00
1235.855, 20571.00
1236.932, 20555.00
1238.009, 20560.00
1239.086, 20542.00
1240.162, 20504.00
1241.239, 20604.00
1242.315, 20779.00
1243.391, 20537.00
1244.467, 20818.00
1245.543, 20553.00
1246.619, 20448.00
1247.694, 20670.00
1248.769, 20725.00
1249.844, 20588.00
1250.919, 20735.00
1251.994, 20841.00
1253.069, 20709.00
1254.144, 20721.00
1255.218, 20836.00
1256.292, 20586.00
1257.366, 20909.00
1258.440, 20468.00
1259.514, 20964.00
1260.587, 20617.00
1261.661, 20925.00
1262.734, 20512.00
1263.807, 20839.00
1264.880, 20699.00
1265.952, 20773.00
1267.025, 20753.00
1268.097, 20789.00
1269.170, 20923.00
1270.242, 20767.00
1271.314, 20906.00
1272.385, 20858.00
1273.457, 20981.00
1274.528, 21083.00
1275.600, 20882.00
1276.671, 20961.00
1277.742, 20972.00
1278.812, 20772.00
1279.883, 20814.00
1280.954, 21095.00
1282.024, 21063.00
1283.094, 21076.00
1284.164, 21047.00
1285.234, 21105.00
1286.303, 21124.00
1287.373, 21027.00
1288.442, 20957.00
1289.511, 21153.00
1290.580, 21147.00
1291.649, 21216.00
1292.718, 21189.00
1293.786, 21240.00
1294.855, 21099.00
1295.923, 21187.00
1296.991, 21131.00
1298.059, 21283.00
1299.126, 21189.00
1300.194, 21415.00
1301.261, 21222.00
1302.328, 21327.00
1303.395, 21426.00
1304.462, 21260.00
1305.529, 21359.00
1306.596, 21269.00
1307.662, 21279.00
1308.728, 21415.00
1309.794, 21367.00
1310.860, 21214.00
1311.926, 21326.00
1312.991, 21400.00
1314.057, 21301.00
1315.122, 21338.00
1316.187, 21486.00
1317.252, 21354.00
1318.317, 21360.00
1319.381, 21476.00
1320.446, 21475.00
1321.510, 21490.77
1322.574, 21482.60
1323.638, 21522.00
1324.702, 21440.00
1325.766, 21531.00
1326.829, 21609.00
1327.892, 21517.00
1328.956, 21610.00
1330.019, 21488.00
1331.081, 21634.00
1332.144, 21795.00
1333.206, 21652.00
1334.269, 21704.00
1335.331, 21618.00
1336.393, 21752.00
1337.455, 21731.00
1338.516, 21616.00
1339.578, 21716.00
1340.639, 21766.00
1341.701, 21746.00
1342.762, 21791.00
1343.822, 21801.00
1344.883, 21667.00
1345.944, 21805.00
1347.004, 21606.00
1348.064, 21786.00
1349.124, 21597.00
1350.184, 21819.00
1351.244, 21892.00
1352.304, 21868.00
1353.363, 21983.20
1354.422, 21877.00
1355.481, 22042.00
1356.540, 21917.00
1357.599, 21909.00
1358.657, 21934.00
1359.716, 21997.00
1360.774, 22017.00
1361.832, 22010.00
1362.890, 21988.00
1363.948, 21849.00
1365.006, 21738.00
1366.063, 22215.00
1367.120, 22101.00
1368.178, 22128.00
1369.234, 22084.00
1370.291, 22093.00
1371.348, 21949.00
1372.404, 22094.00
1373.461, 22164.00
1374.517, 21926.00
1375.573, 22235.00
1376.629, 22212.00
1377.684, 22117.00
1378.740, 22361.00
1379.795, 22154.00
1380.850, 22243.00
1381.905, 22253.00
1382.960, 22253.00
1384.015, 22313.88
1385.070, 22364.00
1386.124, 22385.00
1387.178, 22390.23
1388.232, 22376.30
1389.286, 22339.00
1390.340, 22312.00
1391.393, 22335.28
1392.447, 22211.00
1393.500, 22427.00
1394.553, 22446.00
1395.606, 22572.00
1396.659, 22493.00
1397.711, 22392.00
1398.764, 22442.00
1399.816, 22339.00
1400.868, 22349.00
1401.920, 22398.00
1402.972, 22541.00
1404.023, 22522.00
1405.075, 22590.84
1406.126, 22740.00
1407.177, 22608.00
1408.228, 22613.00
1409.279, 22524.00
1410.330, 22698.00
1411.380, 22516.00
1412.431, 22575.00
1413.481, 22530.00
1414.531, 22444.00
1415.580, 22707.00
1416.630, 22709.00
1417.680, 22782.00
1418.729, 22659.00
1419.778, 22731.00
1420.827, 22535.00
1421.876, 22672.00
1422.925, 22620.00
1423.973, 22868.00
1425.022, 22768.00
1426.070, 22727.00
1427.118, 22905.00
1428.166, 22894.00
1429.214, 22767.00
1430.261, 22903.00
1431.309, 22710.00
1432.356, 22833.00
1433.403, 22845.00
1434.450, 22858.00
1435.497, 22993.00
1436.543, 22975.00
1437.590, 22809.00
1438.636, 23004.00
1439.682, 22904.00
1440.728, 23235.00
1441.774, 23001.00
1442.819, 22847.00
1443.865, 23020.00
1444.910, 22995.00
1445.955, 23062.00
1447.000, 22983.00
1448.045, 23005.00
1449.090, 23239.00
1450.134, 23100.00
1451.178, 23043.00
1452.223, 23346.00
1453.267, 23380.00
1454.310, 23201.00
1455.354, 23159.00
1456.398, 23315.00
1457.441, 23274.00
1458.484, 23170.00
1459.527, 23275.00
1460.570, 23328.00
1461.613, 23187.00
1462.655, 23389.00
1463.698, 23268.00
1464.740, 23078.00
1465.782, 23393.00
1466.824, 23289.00
1467.866, 23358.00
1468.907, 23365.00
1469.948, 23375.00
1470.990, 23328.00
1472.031, 23579.00
1473.072, 23484.00
1474.112, 23572.00
1475.153, 23473.00
1476.194, 23491.00
1477.234, 23638.00
1478.274, 23697.00
1479.314, 23539.00
1480.354, 23629.00
1481.393, 23490.00
1482.433, 23634.00
1483.472, 23665.00
1484.511, 23628.00
1485.550, 23687.00
1486.589, 23743.00
1487.628, 23671.00
1488.666, 23588.00
1489.704, 23695.00
1490.743, 23666.00
1491.781, 23633.00
1492.819, 23808.00
1493.856, 23720.00
1494.894, 23804.00
1495.931, 23825.00
1496.968, 23856.00
1498.005, 23813.00
1499.042, 23835.00
1500.079, 23830.89
1501.115, 23828.41
1502.152, 23843.00
1503.188, 23866.00
1504.224, 23899.00
1505.260, 23973.00
1506.296, 23997.00
1507.331, 23867.00
1508.367, 24054.00
1509.402, 23854.00
1510.437, 24063.00
1511.472, 23815.00
1512.507, 24042.00
1513.541, 24052.00
1514.576, 24037.00
1515.610, 24037.00
1516.644, 23965.00
1517.678, 24060.00
1518.712, 24057.00
1519.746, 24132.00
1520.779, 24091.00
1521.813, 24192.00
1522.846, 24265.00
1523.879, 24094.00
1524.912, 24269.00
1525.944, 24149.00
1526.977, 24168.00
1528.009, 24232.00
1529.041, 24177.00
1530.073, 24338.00
1531.105, 24258.00
1532.137, 24470.00
1533.168, 24304.00
1534.200, 24407.00
1535.231, 24441.00
1536.262, 24375.00
1537.293, 24416.00
1538.324, 24364.00
1539.354, 24380.00
1540.385, 24394.14
1541.415, 24400.73
1542.445, 24437.00
1543.475, 24433.00
1544.505, 24473.00
1545.534, 24442.00
1546.564, 24454.00
1547.593, 24532.00
1548.622, 24682.00
1549.651, 24573.00
1550.680, 24467.00
1551.708, 24570.00
1552.737, 24258.00
1553.765, 24619.00
1554.793, 24735.00
1555.821, 24783.00
1556.849, 24723.00
1557.877, 24678.00
1558.904, 24517.00
1559.932, 24627.00
1560.959, 24871.00
1561.986, 24702.47
1563.013, 24786.00
1564.039, 24640.00
1565.066, 24725.00
1566.092, 24846.00
1567.119, 24805.00
1568.145, 24772.00
1569.170, 24675.00
1570.196, 24764.00
1571.222, 24749.00
1572.247, 24715.00
1573.272, 25347.00
1574.297, 24918.00
1575.322, 24949.00
1576.347, 25093.00
##END=



