##NAMES=Montebrasite
##RRUFFID=R060890
##IDEAL CHEMISTRY=LiAlPO_4_(OH)
##LOCALITY=Mount Marie, Paris, Maine, USA
##OWNER=RRUFF
##SOURCE=Bob Jenkins
##DESCRIPTION=Colorless massive
##STATUS=The identification of this mineral is confirmed by single-crystal X-ray diffraction and chemical analysis.
##URL=rruff.info/R060890
##MEASURED CHEMISTRY=Li_1.00_Al_1.00_(P_1.00_O_4_)(OH)_0.63_F_0.37_)_Î£=1_ ; Li not measured but estimated by stoichiometry
##PIN_ID=M01084
##ORIENTATION=Laser parallel to -a* (-1 0 0). Fiducial mark perpendicular to laser is parallel to b [0 1 0]
90.67800, 12710.00
91.91600, 12880.00
93.15500, 13018.00
94.39300, 12952.00
95.63100, 13051.00
96.86900, 13021.00
98.10600, 13022.00
99.34400, 13049.00
100.5810, 13128.00
101.8190, 12957.00
103.0560, 13167.00
104.2930, 13173.00
105.5290, 13282.00
106.7660, 13424.00
108.0020, 13710.00
109.2390, 13473.00
110.4750, 13647.00
111.7110, 13848.00
112.9460, 13763.00
114.1820, 14166.00
115.4170, 14307.00
116.6530, 14539.00
117.8880, 14761.00
119.1230, 15065.00
120.3580, 15478.00
121.5920, 15888.00
122.8270, 16621.00
124.0610, 17032.00
125.2950, 17463.00
126.5290, 17702.00
127.7630, 18155.00
128.9970, 18643.00
130.2300, 18751.00
131.4640, 18791.00
132.6970, 18469.00
133.9300, 17710.00
135.1630, 17140.00
136.3950, 16452.00
137.6280, 15944.00
138.8600, 15422.00
140.0920, 15135.00
141.3240, 14764.00
142.5560, 14517.00
143.7880, 14382.00
145.0190, 14162.00
146.2510, 14177.00
147.4820, 14075.00
148.7130, 14146.00
149.9440, 14081.00
151.1750, 13952.00
152.4050, 13972.00
153.6360, 13911.00
154.8660, 14027.00
156.0960, 14027.00
157.3260, 14105.00
158.5560, 13992.00
159.7850, 14395.00
161.0150, 14255.00
162.2440, 14581.00
163.4730, 14597.00
164.7020, 14721.00
165.9310, 14884.00
167.1590, 14838.00
168.3880, 14908.00
169.6160, 14960.00
170.8440, 14931.00
172.0720, 14869.00
173.3000, 14796.00
174.5280, 14867.00
175.7550, 14729.00
176.9820, 14875.00
178.2100, 14692.00
179.4370, 14601.00
180.6630, 14460.00
181.8900, 14635.00
183.1170, 14550.00
184.3430, 14689.00
185.5690, 14744.00
186.7950, 14582.00
188.0210, 14659.00
189.2470, 14478.00
190.4720, 14475.00
191.6970, 14597.00
192.9230, 14529.00
194.1480, 14650.00
195.3730, 14666.00
196.5970, 14627.00
197.8220, 14758.00
199.0460, 14615.00
200.2700, 14690.00
201.4940, 14840.00
202.7180, 14694.00
203.9420, 14579.00
205.1660, 14498.00
206.3890, 14642.00
207.6120, 14553.00
208.8350, 14531.00
210.0580, 14459.00
211.2810, 14685.00
212.5040, 14747.00
213.7260, 14508.00
214.9480, 14590.00
216.1700, 14570.00
217.3920, 14713.00
218.6140, 14673.00
219.8360, 14689.00
221.0570, 14731.00
222.2790, 14800.00
223.5000, 14780.00
224.7210, 14685.00
225.9410, 14822.00
227.1620, 14865.00
228.3820, 14824.00
229.6030, 14845.00
230.8230, 14870.00
232.0430, 14852.00
233.2630, 14754.00
234.4820, 15050.00
235.7020, 15025.00
236.9210, 15015.00
238.1400, 15076.00
239.3590, 15107.00
240.5780, 15084.00
241.7970, 15065.00
243.0150, 15002.00
244.2340, 14965.00
245.4520, 15130.00
246.6700, 15363.00
247.8880, 15309.00
249.1060, 15252.00
250.3230, 15333.00
251.5400, 15163.00
252.7580, 15315.00
253.9750, 15363.00
255.1920, 15423.00
256.4080, 15424.00
257.6250, 15632.00
258.8410, 15562.00
260.0580, 15671.00
261.2740, 15766.00
262.4900, 15854.00
263.7050, 15978.00
264.9210, 15972.00
266.1360, 16337.00
267.3520, 16157.00
268.5670, 16474.00
269.7820, 16729.00
270.9960, 16847.00
272.2110, 16879.00
273.4250, 17066.00
274.6400, 17255.00
275.8540, 17524.00
277.0680, 17517.00
278.2810, 17784.00
279.4950, 18248.00
280.7090, 18464.00
281.9220, 18835.00
283.1350, 19248.00
284.3480, 19815.00
285.5610, 20186.00
286.7730, 21046.00
287.9860, 22061.00
289.1980, 23323.00
290.4100, 24627.00
291.6220, 26232.00
292.8340, 28140.00
294.0460, 29693.00
295.2570, 31932.00
296.4690, 33819.00
297.6800, 36019.00
298.8910, 38199.00
300.1020, 40288.00
301.3120, 41129.00
302.5230, 40832.00
303.7330, 40042.00
304.9440, 38306.00
306.1540, 36212.00
307.3630, 34523.00
308.5730, 33161.00
309.7830, 31722.00
310.9920, 30308.00
312.2010, 29192.00
313.4100, 27837.00
314.6190, 26748.00
315.8280, 25025.00
317.0370, 24387.00
318.2450, 23590.00
319.4530, 22893.00
320.6610, 22083.00
321.8690, 22007.00
323.0770, 21457.00
324.2850, 21427.00
325.4920, 21211.00
326.6990, 20915.00
327.9060, 20835.00
329.1130, 20444.00
330.3200, 20206.00
331.5270, 19876.00
332.7330, 19763.00
333.9390, 19578.00
335.1450, 19585.00
336.3510, 19325.00
337.5570, 19043.00
338.7630, 19046.00
339.9680, 18894.00
341.1740, 18874.00
342.3790, 18914.00
343.5840, 18735.00
344.7890, 18860.00
345.9930, 18828.23
347.1980, 18919.21
348.4020, 18972.90
349.6060, 18991.32
350.8100, 18868.78
352.0140, 18928.25
353.2180, 18914.78
354.4210, 19135.00
355.6250, 19074.00
356.8280, 19239.00
358.0310, 19267.00
359.2340, 19471.00
360.4360, 19544.00
361.6390, 19579.00
362.8410, 19622.00
364.0430, 19588.00
365.2450, 19715.00
366.4470, 19773.00
367.6490, 19870.00
368.8510, 19822.00
370.0520, 19905.00
371.2530, 20058.00
372.4540, 19960.00
373.6550, 19799.00
374.8560, 19653.00
376.0560, 19829.00
377.2570, 19551.00
378.4570, 19460.00
379.6570, 19312.00
380.8570, 19383.00
382.0570, 19071.00
383.2560, 19011.00
384.4560, 19103.00
385.6550, 18707.00
386.8540, 18743.00
388.0530, 18809.00
389.2520, 18715.00
390.4510, 18732.00
391.6490, 18791.00
392.8470, 18583.00
394.0450, 18518.00
395.2430, 18561.00
396.4410, 18661.00
397.6390, 18584.00
398.8360, 18624.00
400.0340, 18476.00
401.2310, 18380.00
402.4280, 18279.00
403.6250, 18519.00
404.8210, 18250.00
406.0180, 18292.00
407.2140, 18580.00
408.4100, 18372.00
409.6060, 18444.00
410.8020, 18545.00
411.9980, 18480.00
413.1930, 18354.00
414.3890, 18328.00
415.5840, 18420.00
416.7790, 18523.00
417.9740, 18326.00
419.1680, 18547.00
420.3630, 18728.00
421.5570, 18933.00
422.7510, 18962.00
423.9450, 19033.00
425.1390, 19254.00
426.3330, 19371.00
427.5270, 19353.00
428.7200, 19182.00
429.9130, 19007.00
431.1060, 18957.00
432.2990, 18945.00
433.4920, 18810.00
434.6840, 18625.00
435.8770, 18743.00
437.0690, 18738.00
438.2610, 18847.00
439.4530, 18686.00
440.6450, 18754.00
441.8360, 18912.00
443.0280, 18633.00
444.2190, 18768.00
445.4100, 18748.00
446.6010, 18643.00
447.7920, 18951.00
448.9820, 19000.00
450.1730, 18730.00
451.3630, 18797.00
452.5530, 18852.00
453.7430, 18732.00
454.9330, 18852.00
456.1230, 18915.00
457.3120, 18824.00
458.5010, 18898.00
459.6910, 18908.00
460.8800, 18881.00
462.0680, 18784.00
463.2570, 18958.00
464.4460, 18906.00
465.6340, 19027.00
466.8220, 18925.00
468.0100, 19062.00
469.1980, 19116.00
470.3860, 19289.00
471.5730, 19111.00
472.7600, 19223.00
473.9480, 19353.00
475.1350, 19207.00
476.3210, 19243.00
477.5080, 19341.00
478.6950, 19599.00
479.8810, 19456.00
481.0670, 19441.00
482.2530, 19617.00
483.4390, 19657.00
484.6250, 19641.00
485.8100, 19499.00
486.9960, 19815.00
488.1810, 19974.00
489.3660, 19904.00
490.5510, 19976.00
491.7360, 19950.00
492.9200, 20269.00
494.1050, 20026.00
495.2890, 20179.00
496.4730, 20125.00
497.6570, 20110.00
498.8400, 20362.00
500.0240, 20121.00
501.2070, 20181.00
502.3910, 19939.00
503.5740, 20025.00
504.7570, 20058.00
505.9400, 19756.00
507.1220, 20075.00
508.3050, 19841.00
509.4870, 19874.00
510.6690, 19779.00
511.8510, 19886.00
513.0330, 19933.00
514.2140, 19768.00
515.3960, 19822.00
516.5770, 19724.00
517.7580, 19744.00
518.9390, 19767.00
520.1200, 19681.00
521.3010, 19875.00
522.4810, 19808.00
523.6610, 19784.00
524.8420, 19805.00
526.0220, 19819.00
527.2010, 19877.00
528.3810, 19670.00
529.5610, 19655.00
530.7400, 19870.00
531.9190, 19743.00
533.0980, 19839.00
534.2770, 19865.00
535.4560, 19727.00
536.6340, 20178.00
537.8120, 19757.00
538.9910, 19927.00
540.1690, 19855.00
541.3460, 20011.00
542.5240, 20049.00
543.7020, 20046.00
544.8790, 20045.00
546.0560, 20105.00
547.2330, 19890.00
548.4100, 20050.00
549.5870, 20133.00
550.7630, 20202.00
551.9400, 20232.00
553.1160, 20052.00
554.2920, 20365.00
555.4680, 20208.00
556.6440, 20127.00
557.8190, 20295.00
558.9950, 20271.00
560.1700, 20279.00
561.3450, 20333.00
562.5200, 20376.00
563.6950, 20415.00
564.8690, 20343.00
566.0440, 20348.00
567.2180, 20409.00
568.3920, 20269.00
569.5660, 20652.00
570.7400, 20480.00
571.9130, 20508.00
573.0870, 20536.00
574.2600, 20532.00
575.4330, 20751.00
576.6060, 20711.00
577.7790, 20596.00
578.9520, 20689.00
580.1240, 20625.00
581.2960, 20738.00
582.4690, 20649.00
583.6410, 21063.00
584.8120, 20806.00
585.9840, 21088.00
587.1560, 20980.00
588.3270, 21113.00
589.4980, 21094.00
590.6690, 21299.00
591.8400, 21235.00
593.0110, 21579.00
594.1810, 21812.00
595.3510, 22003.00
596.5220, 22097.00
597.6920, 22368.00
598.8610, 22622.00
600.0310, 22657.00
601.2010, 22922.00
602.3700, 23122.00
603.5390, 22864.00
604.7080, 22708.00
605.8770, 22609.00
607.0460, 22403.00
608.2140, 22208.00
609.3830, 22236.00
610.5510, 22311.00
611.7190, 22265.00
612.8870, 22299.00
614.0550, 22345.00
615.2220, 22240.00
616.3900, 22545.00
617.5570, 22860.00
618.7240, 23032.00
619.8910, 23080.00
621.0580, 23321.00
622.2240, 23573.00
623.3910, 23777.00
624.5570, 24337.00
625.7230, 24791.00
626.8890, 25156.00
628.0550, 25472.00
629.2200, 26082.00
630.3860, 26555.00
631.5510, 26820.00
632.7160, 27385.00
633.8810, 27785.00
635.0460, 28280.00
636.2100, 29016.00
637.3750, 29723.00
638.5390, 31388.00
639.7030, 32366.00
640.8670, 34603.00
642.0310, 36226.00
643.1950, 38171.00
644.3580, 40131.00
645.5210, 41244.00
646.6850, 40631.00
647.8480, 38721.00
649.0100, 36074.00
650.1730, 33382.00
651.3350, 31096.00
652.4980, 29024.00
653.6600, 27667.00
654.8220, 26491.00
655.9840, 25626.00
657.1450, 25003.00
658.3070, 24486.00
659.4680, 24041.00
660.6300, 23870.00
661.7910, 23628.00
662.9510, 23352.00
664.1120, 23285.00
665.2730, 23053.00
666.4330, 22975.00
667.5930, 22829.00
668.7530, 22787.00
669.9130, 22638.00
671.0730, 22732.00
672.2320, 22561.00
673.3920, 22388.00
674.5510, 22486.00
675.7100, 22557.00
676.8690, 22546.00
678.0280, 22455.00
679.1860, 22593.00
680.3450, 22537.00
681.5030, 22490.00
682.6610, 22569.00
683.8190, 22524.00
684.9770, 22399.00
686.1340, 22428.00
687.2920, 22469.00
688.4490, 22367.00
689.6060, 22386.00
690.7630, 22391.00
691.9200, 22452.00
693.0760, 22448.00
694.2330, 22611.00
695.3890, 22356.00
696.5450, 22459.00
697.7010, 22496.00
698.8570, 22524.00
700.0130, 22535.00
701.1680, 22455.00
702.3230, 22630.00
703.4780, 22685.00
704.6330, 22511.00
705.7880, 22549.00
706.9430, 22844.00
708.0970, 22678.00
709.2520, 22596.00
710.4060, 22433.00
711.5600, 22702.00
712.7140, 22586.00
713.8670, 22603.00
715.0210, 22665.00
716.1740, 22664.00
717.3270, 22825.00
718.4800, 22741.00
719.6330, 22864.00
720.7860, 22714.00
721.9380, 22674.00
723.0910, 22846.00
724.2430, 22872.00
725.3950, 22744.00
726.5470, 22901.00
727.6980, 22977.00
728.8500, 22988.00
730.0010, 22942.00
731.1530, 22927.00
732.3040, 22801.00
733.4550, 23216.00
734.6050, 23224.00
735.7560, 23183.00
736.9060, 23232.00
738.0560, 23243.00
739.2060, 23113.00
740.3560, 22961.00
741.5060, 23242.00
742.6560, 23097.00
743.8050, 23278.00
744.9540, 23135.00
746.1030, 23187.00
747.2520, 23276.00
748.4010, 23376.00
749.5500, 23348.00
750.6980, 23338.00
751.8460, 23486.00
752.9950, 23503.00
754.1420, 23441.00
755.2900, 23618.00
756.4380, 23355.00
757.5850, 23469.00
758.7330, 23589.00
759.8800, 23382.00
761.0270, 23748.00
762.1730, 23767.00
763.3200, 23677.00
764.4670, 23799.00
765.6130, 23765.00
766.7590, 23701.00
767.9050, 23920.00
769.0510, 23781.00
770.1960, 23786.00
771.3420, 23923.00
772.4870, 24004.00
773.6320, 23990.00
774.7770, 23962.00
775.9220, 23821.00
777.0670, 23907.00
778.2110, 24134.00
779.3560, 23865.00
780.5000, 24157.00
781.6440, 24252.00
782.7880, 24108.00
783.9320, 24548.00
785.0750, 24356.00
786.2180, 24661.00
787.3620, 24561.00
788.5050, 24736.00
789.6480, 24898.00
790.7900, 25193.00
791.9330, 25055.00
793.0750, 25355.00
794.2170, 25377.00
795.3590, 25403.00
796.5010, 25815.00
797.6430, 25945.00
798.7850, 25846.00
799.9260, 26257.00
801.0670, 26153.00
802.2080, 26370.00
803.3490, 26523.00
804.4900, 26433.00
805.6310, 26475.00
806.7710, 26686.00
807.9110, 26582.00
809.0510, 26586.00
810.1910, 26456.00
811.3310, 26429.00
812.4710, 26620.00
813.6100, 26536.00
814.7490, 26537.00
815.8880, 26350.00
817.0270, 26260.00
818.1660, 26123.00
819.3050, 26337.00
820.4430, 26345.00
821.5820, 26202.00
822.7200, 26147.00
823.8580, 26055.00
824.9950, 26079.00
826.1330, 25819.00
827.2710, 25767.00
828.4080, 25520.00
829.5450, 25573.00
830.6820, 25790.00
831.8190, 25449.00
832.9560, 25769.00
834.0920, 25348.00
835.2280, 25469.00
836.3650, 25349.00
837.5010, 25233.00
838.6360, 25221.00
839.7720, 25367.00
840.9080, 25311.00
842.0430, 25358.00
843.1780, 25256.00
844.3130, 25289.00
845.4480, 25151.00
846.5830, 25401.00
847.7170, 25382.00
848.8520, 25270.00
849.9860, 25193.00
851.1200, 25302.00
852.2540, 25575.00
853.3870, 25474.00
854.5210, 25477.00
855.6540, 25371.00
856.7880, 25426.00
857.9210, 25347.00
859.0540, 25606.00
860.1860, 25731.00
861.3190, 25639.00
862.4510, 25680.00
863.5840, 25581.00
864.7160, 25768.00
865.8480, 25722.00
866.9790, 25606.00
868.1110, 25791.00
869.2420, 25580.00
870.3740, 25588.00
871.5050, 25637.00
872.6360, 25612.00
873.7660, 25722.00
874.8970, 25851.00
876.0280, 25559.00
877.1580, 25867.00
878.2880, 25542.00
879.4180, 25867.00
880.5480, 25740.00
881.6770, 25802.00
882.8070, 25864.00
883.9360, 25917.00
885.0650, 25668.00
886.1940, 25730.00
887.3230, 25905.00
888.4520, 26067.00
889.5800, 25715.00
890.7090, 25970.00
891.8370, 26067.00
892.9650, 26043.00
894.0930, 25865.00
895.2200, 25942.00
896.3480, 25911.00
897.4750, 26027.00
898.6020, 25922.00
899.7290, 26076.00
900.8560, 26180.00
901.9830, 26062.00
903.1090, 26114.00
904.2360, 26087.00
905.3620, 26203.00
906.4880, 26289.00
907.6140, 26266.00
908.7400, 26128.00
909.8650, 26361.00
910.9900, 26275.00
912.1160, 26302.00
913.2410, 26395.00
914.3660, 26299.00
915.4900, 26358.00
916.6150, 26300.00
917.7390, 26340.00
918.8640, 26428.00
919.9880, 26432.00
921.1120, 26593.00
922.2350, 26411.00
923.3590, 26516.00
924.4820, 26742.00
925.6060, 26620.00
926.7290, 26510.00
927.8520, 26600.00
928.9740, 26600.00
930.0970, 26721.00
931.2190, 26860.00
932.3420, 26637.00
933.4640, 26766.00
934.5860, 26610.00
935.7080, 26793.00
936.8290, 26861.00
937.9510, 26792.00
939.0720, 26884.00
940.1930, 26844.00
941.3140, 26988.00
942.4350, 26910.00
943.5560, 26974.00
944.6760, 27210.00
945.7960, 27064.00
946.9170, 27091.00
948.0370, 27003.00
949.1560, 26997.00
950.2760, 27329.00
951.3960, 27159.00
952.5150, 27224.00
953.6340, 27321.00
954.7530, 27294.00
955.8720, 27485.00
956.9910, 27460.00
958.1090, 27651.00
959.2280, 27602.00
960.3460, 27559.00
961.4640, 27751.00
962.5820, 27760.00
963.6990, 27697.00
964.8170, 27994.00
965.9340, 27912.00
967.0510, 28171.00
968.1690, 27823.00
969.2850, 28362.00
970.4020, 28121.00
971.5190, 28200.00
972.6350, 28234.00
973.7510, 28296.00
974.8670, 28458.00
975.9830, 28495.00
977.0990, 28634.00
978.2150, 28727.00
979.3300, 29001.00
980.4450, 29028.00
981.5600, 29065.00
982.6750, 29871.00
983.7900, 29889.00
984.9050, 30281.00
986.0190, 30436.00
987.1340, 30973.00
988.2480, 31450.00
989.3620, 31753.00
990.4750, 32507.00
991.5890, 33243.00
992.7020, 34350.00
993.8160, 35248.00
994.9290, 36182.00
996.0420, 37672.00
997.1550, 38901.00
998.2670, 40461.00
999.3800, 42312.00
1000.492, 43730.00
1001.604, 45820.00
1002.716, 48011.00
1003.828, 49752.00
1004.940, 51835.00
1006.051, 53179.00
1007.163, 54412.00
1008.274, 56200.00
1009.385, 56465.00
1010.496, 56689.00
1011.606, 55947.00
1012.717, 54818.00
1013.827, 53411.00
1014.937, 51305.00
1016.047, 49632.00
1017.157, 47524.00
1018.267, 45036.00
1019.377, 43544.00
1020.486, 41774.00
1021.595, 40348.00
1022.704, 39137.00
1023.813, 37860.00
1024.922, 37062.00
1026.030, 36241.00
1027.139, 35598.00
1028.247, 35234.00
1029.355, 35013.00
1030.463, 34642.00
1031.571, 34750.00
1032.678, 34893.00
1033.786, 35118.00
1034.893, 35470.00
1036.000, 36366.00
1037.107, 35859.00
1038.214, 36370.00
1039.321, 36986.00
1040.427, 36900.00
1041.533, 37359.00
1042.639, 37911.00
1043.745, 38114.00
1044.851, 38780.00
1045.957, 39286.00
1047.062, 39531.00
1048.168, 40192.00
1049.273, 40529.00
1050.378, 41370.00
1051.482, 41877.00
1052.587, 42860.00
1053.692, 43881.00
1054.796, 45326.00
1055.900, 46951.00
1057.004, 48335.00
1058.108, 49977.00
1059.212, 51450.00
1060.315, 52382.00
1061.418, 53260.00
1062.522, 53078.00
1063.625, 52208.00
1064.728, 50434.00
1065.830, 47778.00
1066.933, 45731.00
1068.035, 42824.00
1069.137, 40274.00
1070.239, 38597.00
1071.341, 36738.00
1072.443, 35767.00
1073.545, 34832.00
1074.646, 33823.00
1075.747, 33021.00
1076.848, 32722.00
1077.949, 32232.00
1079.050, 31533.00
1080.150, 31427.00
1081.251, 31240.00
1082.351, 30970.00
1083.451, 30896.00
1084.551, 30753.00
1085.651, 30564.00
1086.750, 30472.00
1087.850, 30202.00
1088.949, 29907.54
1090.048, 29948.46
1091.147, 29952.10
1092.246, 29920.45
1093.345, 29747.86
1094.443, 29757.32
1095.541, 29693.83
1096.639, 30044.00
1097.737, 29891.00
1098.835, 29845.00
1099.933, 29998.00
1101.030, 29977.00
1102.128, 29809.00
1103.225, 29842.00
1104.322, 29973.00
1105.419, 30135.00
1106.515, 30237.00
1107.612, 30078.00
1108.708, 30492.00
1109.804, 30346.00
1110.900, 30314.00
1111.996, 30553.00
1113.092, 30358.00
1114.187, 30455.00
1115.283, 30617.00
1116.378, 30538.00
1117.473, 30531.00
1118.568, 30692.00
1119.662, 30645.00
1120.757, 30583.00
1121.851, 30715.00
1122.946, 30701.00
1124.040, 30642.00
1125.134, 30783.00
1126.227, 30485.00
1127.321, 30510.00
1128.414, 30618.00
1129.508, 30670.00
1130.601, 30496.00
1131.693, 30453.00
1132.786, 30391.00
1133.879, 30322.00
1134.971, 30305.00
1136.064, 30366.00
1137.156, 30045.00
1138.248, 30374.00
1139.339, 30276.00
1140.431, 30044.00
1141.522, 30020.00
1142.614, 29952.00
1143.705, 30139.00
1144.796, 29934.00
1145.887, 29968.00
1146.977, 30202.00
1148.068, 30170.00
1149.158, 30081.00
1150.248, 30101.00
1151.338, 30085.00
1152.428, 30004.00
1153.518, 30204.00
1154.607, 30052.00
1155.696, 29898.00
1156.785, 30082.00
1157.874, 30061.00
1158.963, 29949.00
1160.052, 30098.00
1161.141, 30266.00
1162.229, 30200.00
1163.317, 30446.00
1164.405, 30257.00
1165.493, 30099.00
1166.581, 30309.00
1167.668, 30083.00
1168.756, 30030.00
1169.843, 30289.00
1170.930, 30198.00
1172.017, 30329.00
1173.103, 30126.00
1174.190, 30374.00
1175.276, 30147.00
1176.363, 30208.00
1177.449, 30305.00
1178.535, 30258.00
1179.620, 30462.00
1180.706, 30261.00
1181.791, 30518.00
1182.877, 30436.00
1183.962, 30420.00
1185.047, 30398.00
1186.131, 30599.00
1187.216, 30411.00
1188.300, 30413.00
1189.385, 30427.00
1190.469, 30625.00
1191.553, 30515.00
1192.637, 30571.00
1193.720, 30473.00
1194.804, 30759.00
1195.887, 30963.00
1196.970, 30464.00
1198.053, 30773.00
1199.136, 30949.00
1200.219, 30815.00
1201.301, 30707.00
1202.383, 30944.00
1203.465, 30826.00
1204.547, 30838.00
1205.629, 30803.00
1206.711, 30900.00
1207.792, 30894.00
1208.874, 30936.00
1209.955, 30694.00
1211.036, 30952.00
1212.117, 30966.00
1213.198, 30896.00
1214.278, 30890.00
1215.359, 31060.00
1216.439, 31133.00
1217.519, 30943.00
1218.599, 31007.00
1219.678, 30886.00
1220.758, 30990.00
1221.837, 31180.00
1222.917, 31069.00
1223.996, 31008.00
1225.075, 31157.00
1226.153, 31215.00
1227.232, 31317.00
1228.310, 31341.00
1229.389, 31222.00
1230.467, 31306.00
1231.545, 31358.00
1232.622, 31309.00
1233.700, 31312.00
1234.777, 31119.00
1235.855, 31243.00
1236.932, 31206.00
1238.009, 31422.00
1239.086, 31242.00
1240.162, 31386.00
1241.239, 31449.00
1242.315, 31552.00
1243.391, 31493.00
1244.467, 31529.00
1245.543, 31603.00
1246.619, 31452.00
1247.694, 31321.00
1248.769, 31412.00
1249.844, 31501.00
1250.919, 31560.00
1251.994, 31498.00
1253.069, 31539.00
1254.144, 31470.00
1255.218, 31764.00
1256.292, 31521.00
1257.366, 31514.00
1258.440, 31715.00
1259.514, 31643.00
1260.587, 31609.00
1261.661, 31776.00
1262.734, 31553.00
1263.807, 31597.00
1264.880, 31768.00
1265.952, 31949.00
1267.025, 31761.00
1268.097, 31920.00
1269.170, 31998.00
1270.242, 31760.00
1271.314, 31997.00
1272.385, 31906.00
1273.457, 31817.00
1274.528, 31934.00
1275.600, 32126.00
1276.671, 32116.00
1277.742, 32058.00
1278.812, 32126.00
1279.883, 32096.00
1280.954, 32143.00
1282.024, 32027.00
1283.094, 32205.00
1284.164, 32107.00
1285.234, 31887.00
1286.303, 32086.00
1287.373, 31962.00
1288.442, 32068.00
1289.511, 32294.00
1290.580, 32026.00
1291.649, 32199.00
1292.718, 32069.00
1293.786, 32408.00
1294.855, 32230.00
1295.923, 32069.00
1296.991, 32328.00
1298.059, 32205.00
1299.126, 32246.00
1300.194, 32192.00
1301.261, 32114.00
1302.328, 32246.00
1303.395, 32210.00
1304.462, 32440.00
1305.529, 32407.00
1306.596, 32483.00
1307.662, 32706.00
1308.728, 32414.00
1309.794, 32495.00
1310.860, 32374.00
1311.926, 32688.00
1312.991, 32430.00
1314.057, 32564.00
1315.122, 32589.00
1316.187, 32508.00
1317.252, 32850.00
1318.317, 32699.00
1319.381, 32434.00
1320.446, 32753.00
1321.510, 32863.00
1322.574, 32667.00
1323.638, 32913.00
1324.702, 32902.00
1325.766, 32956.00
1326.829, 32912.00
1327.892, 32826.00
1328.956, 32959.00
1330.019, 32901.00
1331.081, 32873.00
1332.144, 32993.00
1333.206, 32879.00
1334.269, 32956.00
1335.331, 32812.00
1336.393, 32881.00
1337.455, 32929.00
1338.516, 32906.00
1339.578, 33095.00
1340.639, 32673.00
1341.701, 32673.00
1342.762, 32942.00
1343.822, 32943.00
1344.883, 32954.00
1345.944, 33034.00
1347.004, 32827.00
1348.064, 33049.00
1349.124, 33029.00
1350.184, 33040.00
1351.244, 32966.00
1352.304, 33137.00
1353.363, 33055.00
1354.422, 33075.00
1355.481, 33039.00
1356.540, 33000.00
1357.599, 33057.00
1358.657, 33188.00
1359.716, 32913.00
1360.774, 33348.00
1361.832, 33148.00
1362.890, 33132.00
1363.948, 32981.00
1365.006, 33293.00
1366.063, 33255.00
1367.120, 33236.00
1368.178, 33452.00
1369.234, 33220.00
1370.291, 33110.00
1371.348, 33382.00
1372.404, 33177.00
1373.461, 33249.00
1374.517, 33237.00
1375.573, 33330.00
1376.629, 33606.00
1377.684, 33456.00
1378.740, 33273.00
1379.795, 33423.00
1380.850, 33567.00
1381.905, 33455.00
1382.960, 33337.00
1384.015, 33651.00
1385.070, 33563.00
1386.124, 33548.00
1387.178, 33536.00
1388.232, 33484.00
1389.286, 33647.00
1390.340, 33507.00
1391.393, 33348.00
1392.447, 33286.00
1393.500, 33562.00
1394.553, 33595.00
1395.606, 33704.00
1396.659, 33596.00
1397.711, 33431.00
1398.764, 33497.00
1399.816, 33775.00
1400.868, 33539.00
1401.920, 33795.00
1402.972, 33754.00
1404.023, 33644.00
1405.075, 33961.00
1406.126, 33730.00
1407.177, 34081.00
1408.228, 33618.00
1409.279, 33563.00
1410.330, 33762.00
1411.380, 33914.00
1412.431, 33961.00
1413.481, 33756.00
1414.531, 33887.00
1415.580, 33899.00
1416.630, 33848.00
1417.680, 33766.00
1418.729, 33924.00
1419.778, 33791.00
1420.827, 33712.00
1421.876, 34100.00
1422.925, 33857.00
1423.973, 34184.00
1425.022, 34046.00
1426.070, 34131.00
1427.118, 34327.00
1428.166, 34199.00
1429.214, 34139.00
1430.261, 34143.00
1431.309, 34180.00
1432.356, 34041.00
1433.403, 34411.00
1434.450, 34051.00
1435.497, 34155.00
1436.543, 34258.00
1437.590, 34495.00
1438.636, 34512.00
1439.682, 34502.00
1440.728, 34439.00
1441.774, 34784.00
1442.819, 34737.00
1443.865, 34843.00
1444.910, 35056.00
1445.955, 34880.00
1447.000, 34817.00
1448.045, 34890.00
1449.090, 34997.00
1450.134, 34951.00
1451.178, 34940.54
1452.223, 35027.17
1453.267, 35076.52
1454.310, 35090.60
1455.354, 34963.72
1456.398, 35018.85
1457.441, 35001.04
1458.484, 34980.24
1459.527, 35060.98
1460.570, 34954.61
1461.613, 35033.75
1462.655, 35038.82
1463.698, 35077.80
1464.740, 35043.38
1465.782, 35031.63
1466.824, 35093.30
1467.866, 35114.31
1468.907, 35071.45
1469.948, 35112.57
1470.990, 35003.63
1472.031, 35026.38
1473.072, 35105.94
1474.112, 35066.76
1475.153, 35109.23
1476.194, 35120.61
1477.234, 34990.66
1478.274, 35106.48
1479.314, 35116.02
1480.354, 35016.42
1481.393, 35002.00
1482.433, 35281.00
1483.472, 35125.00
1484.511, 35063.00
1485.550, 35095.00
1486.589, 34993.00
1487.628, 34865.00
1488.666, 35034.00
1489.704, 34852.00
1490.743, 35279.00
1491.781, 35068.00
1492.819, 35301.00
1493.856, 35262.00
1494.894, 35117.00
1495.931, 35099.00
1496.968, 35369.00
1498.005, 35168.00
1499.042, 35028.00
1500.079, 35074.00
1501.115, 35272.00
1502.152, 35198.00
1503.188, 35361.00
1504.224, 35029.00
1505.260, 35437.00
1506.296, 35323.00
1507.331, 35321.00
1508.367, 35433.00
1509.402, 35605.00
1510.437, 35224.00
1511.472, 35210.00
1512.507, 35485.00
1513.541, 35556.00
1514.576, 35514.00
1515.610, 35316.00
1516.644, 35383.00
1517.678, 35613.00
1518.712, 35500.00
1519.746, 35460.86
1520.779, 35566.88
1521.813, 35635.62
1522.846, 35669.07
1523.879, 35561.57
1524.912, 35636.07
1525.944, 35637.62
1526.977, 35636.20
1528.009, 35736.30
1529.041, 35649.29
1530.073, 35747.77
1531.105, 35772.21
1532.137, 35830.55
1533.168, 35815.47
1534.200, 35909.00
1535.231, 36090.00
1536.262, 35810.00
1537.293, 35644.00
1538.324, 35819.00
1539.354, 35719.00
1540.385, 35952.00
1541.415, 36396.00
1542.445, 36077.00
1543.475, 35767.00
1544.505, 35589.00
1545.534, 35773.00
1546.564, 35984.00
1547.593, 35770.00
1548.622, 35991.00
1549.651, 35907.00
1550.680, 36125.00
1551.708, 35842.00
1552.737, 35666.00
1553.765, 35680.00
1554.793, 36037.00
1555.821, 35966.00
1556.849, 36150.00
1557.877, 36186.00
1558.904, 36088.00
1559.932, 36242.00
1560.959, 35862.00
1561.986, 36134.00
1563.013, 35764.00
1564.039, 35892.00
1565.066, 36258.00
1566.092, 36070.00
1567.119, 35939.00
1568.145, 35927.00
1569.170, 36020.00
1570.196, 36137.00
1571.222, 36210.00
1572.247, 36202.00
1573.272, 36120.00
1574.297, 36249.00
1575.322, 36139.00
1576.347, 36242.00
##END=



