##NAMES=Montebrasite
##RRUFFID=R060890
##IDEAL CHEMISTRY=LiAlPO_4_(OH)
##LOCALITY=Mount Marie, Paris, Maine, USA
##OWNER=RRUFF
##SOURCE=Bob Jenkins
##DESCRIPTION=Colorless massive
##STATUS=The identification of this mineral is confirmed by single-crystal X-ray diffraction and chemical analysis.
##URL=rruff.info/R060890
##MEASURED CHEMISTRY=Li_1.00_Al_1.00_(P_1.00_O_4_)(OH)_0.63_F_0.37_)_Î£=1_ ; Li not measured but estimated by stoichiometry
##PIN_ID=M01084
##ORIENTATION=Laser parallel to -a* (-1 0 0). Fiducial mark perpendicular to laser is parallel to b [0 1 0]
90.67800, 17572.00
91.91600, 17817.00
93.15500, 17614.00
94.39300, 17639.00
95.63100, 17824.00
96.86900, 17508.00
98.10600, 17527.00
99.34400, 17681.00
100.5810, 17691.00
101.8190, 17615.00
103.0560, 17565.00
104.2930, 17410.00
105.5290, 17774.00
106.7660, 18043.00
108.0020, 18240.00
109.2390, 17866.00
110.4750, 17907.00
111.7110, 18020.00
112.9460, 18030.00
114.1820, 18560.00
115.4170, 18710.00
116.6530, 18770.00
117.8880, 19170.00
119.1230, 19347.00
120.3580, 19614.00
121.5920, 19943.00
122.8270, 20454.00
124.0610, 20909.00
125.2950, 21180.00
126.5290, 21499.00
127.7630, 21923.00
128.9970, 22279.00
130.2300, 22572.00
131.4640, 22326.00
132.6970, 21925.00
133.9300, 21612.00
135.1630, 20807.00
136.3950, 20126.00
137.6280, 19525.00
138.8600, 19070.00
140.0920, 18820.00
141.3240, 18346.00
142.5560, 18256.00
143.7880, 18021.00
145.0190, 17978.00
146.2510, 17846.00
147.4820, 17733.00
148.7130, 17698.00
149.9440, 17845.00
151.1750, 17701.00
152.4050, 17892.00
153.6360, 17974.00
154.8660, 17927.00
156.0960, 17921.00
157.3260, 18117.00
158.5560, 18217.00
159.7850, 18265.00
161.0150, 18255.00
162.2440, 18327.69
163.4730, 18390.00
164.7020, 18412.00
165.9310, 18365.00
167.1590, 18422.00
168.3880, 18291.00
169.6160, 18300.83
170.8440, 18433.00
172.0720, 18235.00
173.3000, 18192.00
174.5280, 18150.00
175.7550, 18239.00
176.9820, 18215.00
178.2100, 18199.00
179.4370, 18345.00
180.6630, 18189.00
181.8900, 18274.00
183.1170, 18218.00
184.3430, 18190.00
185.5690, 18282.00
186.7950, 18180.00
188.0210, 18273.00
189.2470, 18421.00
190.4720, 18433.00
191.6970, 18457.96
192.9230, 18293.00
194.1480, 18376.00
195.3730, 18314.00
196.5970, 18191.00
197.8220, 18340.00
199.0460, 18277.00
200.2700, 18375.00
201.4940, 18161.00
202.7180, 18252.00
203.9420, 18035.00
205.1660, 17935.00
206.3890, 17737.00
207.6120, 17770.00
208.8350, 18014.00
210.0580, 17975.00
211.2810, 18107.00
212.5040, 17955.00
213.7260, 17939.00
214.9480, 17966.00
216.1700, 17947.00
217.3920, 18094.00
218.6140, 17922.00
219.8360, 18057.00
221.0570, 18225.00
222.2790, 18049.00
223.5000, 18189.00
224.7210, 18264.00
225.9410, 18236.00
227.1620, 18264.00
228.3820, 18222.00
229.6030, 18172.00
230.8230, 18249.68
232.0430, 18410.00
233.2630, 18400.00
234.4820, 18312.00
235.7020, 18411.00
236.9210, 18216.21
238.1400, 18316.12
239.3590, 18390.89
240.5780, 18441.85
241.7970, 18397.75
243.0150, 18476.37
244.2340, 18505.83
245.4520, 18533.24
246.6700, 18629.15
247.8880, 18664.00
249.1060, 18727.00
250.3230, 18749.00
251.5400, 18877.00
252.7580, 18970.00
253.9750, 18981.81
255.1920, 19043.70
256.4080, 18981.00
257.6250, 19115.00
258.8410, 19039.00
260.0580, 19150.00
261.2740, 19306.00
262.4900, 19281.75
263.7050, 19456.66
264.9210, 19606.52
266.1360, 19732.48
267.3520, 19763.46
268.5670, 19917.11
269.7820, 20021.57
270.9960, 20023.00
272.2110, 20152.00
273.4250, 20464.00
274.6400, 20398.00
275.8540, 20537.00
277.0680, 20400.00
278.2810, 20519.00
279.4950, 20846.00
280.7090, 20847.00
281.9220, 21100.00
283.1350, 21332.00
284.3480, 21571.00
285.5610, 21890.00
286.7730, 22443.00
287.9860, 22821.00
289.1980, 23702.00
290.4100, 24361.00
291.6220, 25509.00
292.8340, 26732.00
294.0460, 27647.00
295.2570, 28993.00
296.4690, 30023.00
297.6800, 31152.00
298.8910, 32499.00
300.1020, 33608.00
301.3120, 34573.00
302.5230, 34953.00
303.7330, 34348.00
304.9440, 33390.00
306.1540, 32089.00
307.3630, 30665.00
308.5730, 29411.00
309.7830, 28576.00
310.9920, 27891.00
312.2010, 26984.00
313.4100, 26574.00
314.6190, 25758.00
315.8280, 25354.00
317.0370, 25163.00
318.2450, 24579.00
319.4530, 24417.00
320.6610, 24065.00
321.8690, 23795.00
323.0770, 23372.00
324.2850, 23182.00
325.4920, 23081.00
326.6990, 22530.00
327.9060, 22517.00
329.1130, 22215.00
330.3200, 21972.00
331.5270, 21788.00
332.7330, 21654.19
333.9390, 21678.00
335.1450, 21544.00
336.3510, 21505.59
337.5570, 21554.00
338.7630, 21357.00
339.9680, 21343.00
341.1740, 21286.00
342.3790, 21184.88
343.5840, 21287.00
344.7890, 21126.00
345.9930, 21229.00
347.1980, 21375.00
348.4020, 21301.00
349.6060, 21444.00
350.8100, 21268.00
352.0140, 21247.00
353.2180, 21385.00
354.4210, 21314.00
355.6250, 21235.00
356.8280, 21467.00
358.0310, 21445.00
359.2340, 21524.00
360.4360, 21562.00
361.6390, 21689.00
362.8410, 21687.00
364.0430, 21645.00
365.2450, 21743.00
366.4470, 21912.00
367.6490, 22081.00
368.8510, 21929.00
370.0520, 21894.00
371.2530, 21914.00
372.4540, 21875.00
373.6550, 21965.00
374.8560, 21945.00
376.0560, 21903.00
377.2570, 21835.00
378.4570, 21921.00
379.6570, 21851.21
380.8570, 21964.00
382.0570, 21783.00
383.2560, 21729.00
384.4560, 21639.00
385.6550, 21709.00
386.8540, 21728.00
388.0530, 21764.00
389.2520, 21705.00
390.4510, 21631.00
391.6490, 21765.00
392.8470, 21539.00
394.0450, 21898.00
395.2430, 21792.00
396.4410, 21740.00
397.6390, 21951.00
398.8360, 21834.00
400.0340, 21909.00
401.2310, 21518.00
402.4280, 21821.00
403.6250, 21589.00
404.8210, 21822.00
406.0180, 21881.00
407.2140, 22086.00
408.4100, 22075.00
409.6060, 22024.00
410.8020, 22313.00
411.9980, 22338.00
413.1930, 22522.00
414.3890, 23249.00
415.5840, 23486.00
416.7790, 23981.00
417.9740, 24848.00
419.1680, 25491.00
420.3630, 26175.00
421.5570, 26936.00
422.7510, 27848.00
423.9450, 29264.00
425.1390, 30300.00
426.3330, 30784.00
427.5270, 30060.00
428.7200, 28373.00
429.9130, 27010.00
431.1060, 25647.00
432.2990, 24724.00
433.4920, 24131.00
434.6840, 23615.00
435.8770, 23254.00
437.0690, 23079.00
438.2610, 23009.00
439.4530, 22995.00
440.6450, 22781.00
441.8360, 22868.00
443.0280, 22693.00
444.2190, 22685.00
445.4100, 22558.00
446.6010, 22676.00
447.7920, 22455.00
448.9820, 22747.00
450.1730, 22649.00
451.3630, 22745.00
452.5530, 22705.00
453.7430, 22590.00
454.9330, 22450.00
456.1230, 22651.00
457.3120, 22844.00
458.5010, 22633.00
459.6910, 22764.00
460.8800, 22791.00
462.0680, 22897.00
463.2570, 22974.00
464.4460, 22857.00
465.6340, 22996.00
466.8220, 23002.00
468.0100, 23019.00
469.1980, 23138.00
470.3860, 23173.00
471.5730, 23399.00
472.7600, 23445.00
473.9480, 23536.00
475.1350, 23514.00
476.3210, 23763.00
477.5080, 23680.00
478.6950, 23950.00
479.8810, 23871.00
481.0670, 24086.00
482.2530, 24261.00
483.4390, 24275.00
484.6250, 24146.00
485.8100, 24261.00
486.9960, 24244.00
488.1810, 24512.00
489.3660, 24281.00
490.5510, 24559.00
491.7360, 24416.00
492.9200, 24356.00
494.1050, 24478.00
495.2890, 24335.00
496.4730, 24404.00
497.6570, 24307.00
498.8400, 24226.00
500.0240, 24292.00
501.2070, 24181.00
502.3910, 23987.00
503.5740, 24184.00
504.7570, 24104.00
505.9400, 23780.00
507.1220, 23947.00
508.3050, 24077.00
509.4870, 23838.00
510.6690, 23924.00
511.8510, 23963.00
513.0330, 23876.00
514.2140, 23847.00
515.3960, 23743.00
516.5770, 23707.00
517.7580, 23687.00
518.9390, 23659.00
520.1200, 23793.00
521.3010, 23970.00
522.4810, 24048.00
523.6610, 23899.00
524.8420, 23851.00
526.0220, 24001.00
527.2010, 24026.00
528.3810, 24026.22
529.5610, 23943.00
530.7400, 24018.00
531.9190, 24008.00
533.0980, 23981.00
534.2770, 24089.00
535.4560, 24106.00
536.6340, 24219.00
537.8120, 24149.00
538.9910, 24248.00
540.1690, 24237.00
541.3460, 24211.00
542.5240, 24148.00
543.7020, 24394.00
544.8790, 24296.00
546.0560, 24454.00
547.2330, 24350.00
548.4100, 24311.00
549.5870, 24380.00
550.7630, 24440.00
551.9400, 24674.00
553.1160, 24603.00
554.2920, 24624.00
555.4680, 24478.00
556.6440, 24585.00
557.8190, 24577.00
558.9950, 24541.00
560.1700, 24555.00
561.3450, 24697.00
562.5200, 24779.00
563.6950, 24826.00
564.8690, 24854.00
566.0440, 24823.00
567.2180, 24789.00
568.3920, 24692.00
569.5660, 24737.00
570.7400, 24725.64
571.9130, 24804.00
573.0870, 24895.00
574.2600, 25004.00
575.4330, 25025.05
576.6060, 25252.00
577.7790, 25095.00
578.9520, 25297.00
580.1240, 25398.00
581.2960, 25328.00
582.4690, 25368.00
583.6410, 25595.00
584.8120, 25802.00
585.9840, 25657.00
587.1560, 25713.00
588.3270, 26068.00
589.4980, 26128.00
590.6690, 26466.00
591.8400, 26584.00
593.0110, 26745.00
594.1810, 27113.00
595.3510, 27333.00
596.5220, 27753.00
597.6920, 28278.00
598.8610, 28275.00
600.0310, 28322.00
601.2010, 28786.00
602.3700, 29223.00
603.5390, 29173.00
604.7080, 28872.00
605.8770, 28523.00
607.0460, 28077.00
608.2140, 27879.00
609.3830, 27553.00
610.5510, 27435.00
611.7190, 27083.00
612.8870, 27391.00
614.0550, 27630.00
615.2220, 27575.00
616.3900, 27646.00
617.5570, 27871.00
618.7240, 27813.00
619.8910, 28236.00
621.0580, 28619.00
622.2240, 28850.00
623.3910, 29269.00
624.5570, 30084.00
625.7230, 30353.00
626.8890, 31011.00
628.0550, 31534.00
629.2200, 31759.00
630.3860, 32133.00
631.5510, 32637.00
632.7160, 32933.00
633.8810, 33043.00
635.0460, 33002.00
636.2100, 33323.00
637.3750, 33574.00
638.5390, 34185.00
639.7030, 34757.00
640.8670, 35893.00
642.0310, 36654.00
643.1950, 37747.00
644.3580, 38634.00
645.5210, 39425.00
646.6850, 39506.00
647.8480, 38727.00
649.0100, 36876.00
650.1730, 35064.00
651.3350, 33422.00
652.4980, 32264.00
653.6600, 31095.00
654.8220, 30261.00
655.9840, 29630.00
657.1450, 29273.00
658.3070, 28665.00
659.4680, 28302.00
660.6300, 28331.00
661.7910, 28178.00
662.9510, 27815.00
664.1120, 27859.00
665.2730, 27404.00
666.4330, 27541.00
667.5930, 27709.00
668.7530, 27463.00
669.9130, 27476.00
671.0730, 27414.00
672.2320, 27349.00
673.3920, 27558.00
674.5510, 27342.00
675.7100, 27460.00
676.8690, 27412.00
678.0280, 27565.00
679.1860, 27434.00
680.3450, 27545.00
681.5030, 27402.00
682.6610, 27481.00
683.8190, 27553.00
684.9770, 27376.00
686.1340, 27422.00
687.2920, 27366.00
688.4490, 27507.00
689.6060, 27599.00
690.7630, 27459.00
691.9200, 27482.00
693.0760, 27783.00
694.2330, 27744.00
695.3890, 27613.00
696.5450, 27675.00
697.7010, 27550.00
698.8570, 27620.00
700.0130, 27742.00
701.1680, 27591.00
702.3230, 27651.00
703.4780, 27880.00
704.6330, 27525.00
705.7880, 27821.00
706.9430, 27759.00
708.0970, 27953.00
709.2520, 27894.00
710.4060, 27789.00
711.5600, 27819.00
712.7140, 27823.00
713.8670, 28031.00
715.0210, 28057.00
716.1740, 28044.00
717.3270, 28031.00
718.4800, 28096.00
719.6330, 28042.00
720.7860, 27986.00
721.9380, 28164.00
723.0910, 28242.00
724.2430, 28252.00
725.3950, 28411.00
726.5470, 28044.00
727.6980, 28296.00
728.8500, 28447.00
730.0010, 28315.00
731.1530, 28555.00
732.3040, 28397.00
733.4550, 28485.00
734.6050, 28505.00
735.7560, 28555.00
736.9060, 28619.96
738.0560, 28710.00
739.2060, 28737.00
740.3560, 28725.00
741.5060, 28775.00
742.6560, 28643.00
743.8050, 28835.00
744.9540, 28706.00
746.1030, 28706.00
747.2520, 29047.00
748.4010, 28899.00
749.5500, 28961.00
750.6980, 29138.00
751.8460, 28926.00
752.9950, 29066.00
754.1420, 29110.00
755.2900, 29161.00
756.4380, 29143.00
757.5850, 29044.00
758.7330, 29212.00
759.8800, 29185.00
761.0270, 29457.00
762.1730, 29329.00
763.3200, 29444.00
764.4670, 29519.00
765.6130, 29390.00
766.7590, 29714.00
767.9050, 29352.00
769.0510, 29646.00
770.1960, 29436.00
771.3420, 29626.00
772.4870, 29676.00
773.6320, 29462.00
774.7770, 29600.00
775.9220, 29628.00
777.0670, 29823.00
778.2110, 29703.00
779.3560, 29900.00
780.5000, 29948.00
781.6440, 30002.00
782.7880, 30237.00
783.9320, 30043.00
785.0750, 30209.00
786.2180, 30670.00
787.3620, 30509.00
788.5050, 30602.00
789.6480, 30509.00
790.7900, 30893.00
791.9330, 30827.00
793.0750, 31270.00
794.2170, 31013.00
795.3590, 31205.00
796.5010, 31315.00
797.6430, 31506.00
798.7850, 31476.00
799.9260, 31426.00
801.0670, 31808.00
802.2080, 31786.00
803.3490, 32032.00
804.4900, 32043.00
805.6310, 31995.00
806.7710, 32192.00
807.9110, 32229.00
809.0510, 32057.00
810.1910, 32154.00
811.3310, 32135.00
812.4710, 32257.00
813.6100, 32288.00
814.7490, 32174.00
815.8880, 32259.00
817.0270, 32230.00
818.1660, 32073.00
819.3050, 32174.00
820.4430, 32058.00
821.5820, 31988.00
822.7200, 32301.00
823.8580, 32096.00
824.9950, 32190.00
826.1330, 31994.00
827.2710, 32101.00
828.4080, 31801.00
829.5450, 31872.00
830.6820, 31767.00
831.8190, 31683.00
832.9560, 31885.00
834.0920, 31711.00
835.2280, 31785.00
836.3650, 31586.00
837.5010, 31596.00
838.6360, 31740.00
839.7720, 31674.00
840.9080, 31720.00
842.0430, 31715.00
843.1780, 31911.00
844.3130, 31801.00
845.4480, 31863.00
846.5830, 32120.00
847.7170, 31932.00
848.8520, 31873.00
849.9860, 31951.00
851.1200, 31827.00
852.2540, 31840.00
853.3870, 32244.00
854.5210, 32309.00
855.6540, 32206.00
856.7880, 32104.00
857.9210, 32393.00
859.0540, 32366.00
860.1860, 32483.00
861.3190, 32492.00
862.4510, 32572.00
863.5840, 32355.00
864.7160, 32589.00
865.8480, 32242.00
866.9790, 32244.00
868.1110, 32802.00
869.2420, 32267.00
870.3740, 32543.00
871.5050, 32535.00
872.6360, 32586.00
873.7660, 32732.00
874.8970, 32663.00
876.0280, 32397.00
877.1580, 32493.00
878.2880, 32486.00
879.4180, 32569.00
880.5480, 32659.35
881.6770, 32581.00
882.8070, 32852.00
883.9360, 32889.00
885.0650, 32957.00
886.1940, 32926.00
887.3230, 32829.00
888.4520, 33064.00
889.5800, 32775.00
890.7090, 32839.00
891.8370, 32873.00
892.9650, 33141.00
894.0930, 33153.00
895.2200, 32965.00
896.3480, 32998.00
897.4750, 32948.00
898.6020, 32994.89
899.7290, 33071.00
900.8560, 33231.00
901.9830, 33260.00
903.1090, 33291.15
904.2360, 33238.00
905.3620, 33293.00
906.4880, 33286.00
907.6140, 33315.00
908.7400, 33602.00
909.8650, 33393.00
910.9900, 33329.00
912.1160, 33692.00
913.2410, 33506.00
914.3660, 33469.00
915.4900, 33498.00
916.6150, 33268.00
917.7390, 33744.00
918.8640, 33495.00
919.9880, 33620.00
921.1120, 33557.00
922.2350, 33632.00
923.3590, 33427.00
924.4820, 33844.00
925.6060, 33649.00
926.7290, 33727.00
927.8520, 33843.00
928.9740, 33954.00
930.0970, 33910.00
931.2190, 33710.00
932.3420, 33886.00
933.4640, 33886.13
934.5860, 34017.00
935.7080, 34090.00
936.8290, 34129.00
937.9510, 34179.00
939.0720, 34261.00
940.1930, 34252.00
941.3140, 34162.00
942.4350, 34135.00
943.5560, 34480.00
944.6760, 34234.00
945.7960, 34488.00
946.9170, 34599.00
948.0370, 34432.00
949.1560, 34612.00
950.2760, 34641.00
951.3960, 34586.00
952.5150, 34642.00
953.6340, 34526.00
954.7530, 34755.00
955.8720, 34910.00
956.9910, 34617.00
958.1090, 35020.00
959.2280, 35238.00
960.3460, 35021.00
961.4640, 35017.00
962.5820, 34971.00
963.6990, 35058.20
964.8170, 35466.00
965.9340, 35277.00
967.0510, 35532.00
968.1690, 35458.00
969.2850, 35600.00
970.4020, 35093.00
971.5190, 35398.00
972.6350, 35347.00
973.7510, 35129.00
974.8670, 35514.00
975.9830, 35811.00
977.0990, 35940.00
978.2150, 35955.00
979.3300, 35859.00
980.4450, 36295.00
981.5600, 36372.00
982.6750, 36700.00
983.7900, 36766.00
984.9050, 37047.00
986.0190, 37267.00
987.1340, 37365.00
988.2480, 37907.00
989.3620, 38164.00
990.4750, 38706.00
991.5890, 39022.00
992.7020, 39813.00
993.8160, 40205.00
994.9290, 41016.00
996.0420, 42116.00
997.1550, 42719.00
998.2670, 43765.00
999.3800, 45004.00
1000.492, 46462.00
1001.604, 47672.00
1002.716, 48978.00
1003.828, 50156.00
1004.940, 51374.00
1006.051, 52604.00
1007.163, 53048.00
1008.274, 53930.00
1009.385, 54628.00
1010.496, 54351.00
1011.606, 54365.00
1012.717, 53549.00
1013.827, 52936.00
1014.937, 51604.00
1016.047, 50592.00
1017.157, 49179.00
1018.267, 48136.00
1019.377, 46980.00
1020.486, 45921.00
1021.595, 44812.00
1022.704, 44461.00
1023.813, 43246.00
1024.922, 43147.00
1026.030, 42640.00
1027.139, 42619.00
1028.247, 42459.00
1029.355, 42415.00
1030.463, 42469.00
1031.571, 42598.48
1032.678, 42850.54
1033.786, 43146.00
1034.893, 43519.00
1036.000, 44008.00
1037.107, 44340.00
1038.214, 44886.00
1039.321, 45222.00
1040.427, 45983.00
1041.533, 46016.00
1042.639, 46340.00
1043.745, 47151.00
1044.851, 48009.00
1045.957, 47515.00
1047.062, 47405.00
1048.168, 47897.00
1049.273, 48145.00
1050.378, 48254.00
1051.482, 48505.00
1052.587, 49139.00
1053.692, 49640.00
1054.796, 49987.00
1055.900, 50958.00
1057.004, 51808.00
1058.108, 53008.00
1059.212, 54056.00
1060.315, 54435.00
1061.418, 55022.00
1062.522, 54812.00
1063.625, 54428.00
1064.728, 52938.00
1065.830, 51481.00
1066.933, 49556.00
1068.035, 47947.00
1069.137, 46473.00
1070.239, 44956.00
1071.341, 43742.00
1072.443, 42916.00
1073.545, 42106.00
1074.646, 41757.00
1075.747, 41008.00
1076.848, 40705.00
1077.949, 40698.00
1079.050, 40293.00
1080.150, 40134.00
1081.251, 39880.00
1082.351, 39760.00
1083.451, 39586.00
1084.551, 39796.00
1085.651, 39375.00
1086.750, 39513.00
1087.850, 39455.00
1088.949, 39208.00
1090.048, 39246.00
1091.147, 39251.00
1092.246, 38890.00
1093.345, 39173.00
1094.443, 39054.00
1095.541, 39117.00
1096.639, 38928.00
1097.737, 38898.00
1098.835, 39145.00
1099.933, 39052.00
1101.030, 39186.00
1102.128, 39023.00
1103.225, 39227.00
1104.322, 39148.00
1105.419, 39490.00
1106.515, 39406.00
1107.612, 39201.00
1108.708, 39361.00
1109.804, 39471.00
1110.900, 39450.00
1111.996, 39643.00
1113.092, 39436.00
1114.187, 39775.00
1115.283, 39803.00
1116.378, 39776.00
1117.473, 39918.00
1118.568, 39886.81
1119.662, 39872.00
1120.757, 39901.00
1121.851, 39926.00
1122.946, 39911.00
1124.040, 39964.95
1125.134, 39834.00
1126.227, 39993.00
1127.321, 40030.00
1128.414, 39926.00
1129.508, 39994.00
1130.601, 39920.00
1131.693, 39882.00
1132.786, 39926.00
1133.879, 39617.00
1134.971, 39859.00
1136.064, 39670.00
1137.156, 39777.00
1138.248, 39766.00
1139.339, 39755.00
1140.431, 39379.00
1141.522, 39360.00
1142.614, 39541.00
1143.705, 39606.00
1144.796, 39767.00
1145.887, 39591.00
1146.977, 39620.00
1148.068, 39730.00
1149.158, 39619.00
1150.248, 39837.00
1151.338, 39574.00
1152.428, 39886.00
1153.518, 39795.00
1154.607, 39968.00
1155.696, 39744.00
1156.785, 39724.00
1157.874, 39824.00
1158.963, 39775.84
1160.052, 40084.00
1161.141, 39875.00
1162.229, 40043.00
1163.317, 40054.00
1164.405, 39972.00
1165.493, 40107.00
1166.581, 40139.00
1167.668, 39726.00
1168.756, 40067.00
1169.843, 40243.00
1170.930, 40037.00
1172.017, 40450.00
1173.103, 40159.00
1174.190, 40291.00
1175.276, 40250.00
1176.363, 40321.00
1177.449, 40521.00
1178.535, 40229.00
1179.620, 40467.00
1180.706, 40227.00
1181.791, 40464.00
1182.877, 40510.00
1183.962, 40572.00
1185.047, 40641.00
1186.131, 40711.00
1187.216, 40543.00
1188.300, 40596.00
1189.385, 40937.00
1190.469, 40662.00
1191.553, 40994.00
1192.637, 40637.00
1193.720, 40425.00
1194.804, 40791.00
1195.887, 40981.00
1196.970, 41134.00
1198.053, 41260.31
1199.136, 41424.76
1200.219, 41508.11
1201.301, 41647.00
1202.383, 41665.00
1203.465, 41626.00
1204.547, 41673.95
1205.629, 41136.00
1206.711, 41482.00
1207.792, 41281.00
1208.874, 41054.00
1209.955, 41178.00
1211.036, 41290.00
1212.117, 41473.00
1213.198, 41577.00
1214.278, 41505.00
1215.359, 41504.00
1216.439, 41493.00
1217.519, 41391.00
1218.599, 41406.00
1219.678, 41738.00
1220.758, 41493.00
1221.837, 41738.00
1222.917, 41337.00
1223.996, 41712.00
1225.075, 41286.00
1226.153, 41668.00
1227.232, 41660.00
1228.310, 41637.00
1229.389, 41822.00
1230.467, 41811.00
1231.545, 41972.00
1232.622, 42113.00
1233.700, 41969.00
1234.777, 41927.00
1235.855, 41958.00
1236.932, 42109.00
1238.009, 41984.00
1239.086, 42112.00
1240.162, 42213.00
1241.239, 42278.00
1242.315, 42342.00
1243.391, 42467.00
1244.467, 42185.00
1245.543, 42167.00
1246.619, 42398.00
1247.694, 42363.00
1248.769, 42460.00
1249.844, 42451.00
1250.919, 42451.00
1251.994, 42487.00
1253.069, 42562.00
1254.144, 42537.00
1255.218, 42798.00
1256.292, 42440.00
1257.366, 42490.00
1258.440, 42797.00
1259.514, 42490.00
1260.587, 42785.00
1261.661, 42606.00
1262.734, 42929.00
1263.807, 42895.00
1264.880, 42760.00
1265.952, 43136.00
1267.025, 43076.00
1268.097, 43064.00
1269.170, 43371.00
1270.242, 43226.00
1271.314, 43120.00
1272.385, 42819.00
1273.457, 43213.00
1274.528, 43408.00
1275.600, 43541.00
1276.671, 43413.00
1277.742, 43542.00
1278.812, 43460.00
1279.883, 43533.00
1280.954, 43179.00
1282.024, 43367.00
1283.094, 43433.00
1284.164, 43309.00
1285.234, 43685.00
1286.303, 43463.00
1287.373, 43760.00
1288.442, 43427.00
1289.511, 43702.00
1290.580, 43495.00
1291.649, 43695.00
1292.718, 43612.00
1293.786, 43511.00
1294.855, 44083.00
1295.923, 43741.00
1296.991, 43614.00
1298.059, 43997.00
1299.126, 43640.00
1300.194, 43785.00
1301.261, 43667.00
1302.328, 43579.00
1303.395, 43945.00
1304.462, 43745.00
1305.529, 44162.00
1306.596, 43806.00
1307.662, 44255.00
1308.728, 44428.00
1309.794, 44312.00
1310.860, 44466.00
1311.926, 44423.00
1312.991, 44468.00
1314.057, 44485.00
1315.122, 44586.00
1316.187, 44209.00
1317.252, 44449.00
1318.317, 44598.00
1319.381, 44390.00
1320.446, 44744.00
1321.510, 44364.00
1322.574, 44617.00
1323.638, 44942.00
1324.702, 44851.00
1325.766, 44976.39
1326.829, 44919.75
1327.892, 44913.00
1328.956, 44751.00
1330.019, 44700.00
1331.081, 44734.00
1332.144, 44454.00
1333.206, 44539.00
1334.269, 44798.00
1335.331, 44680.00
1336.393, 44914.00
1337.455, 44526.00
1338.516, 44354.00
1339.578, 44807.00
1340.639, 44655.00
1341.701, 44708.00
1342.762, 44914.00
1343.822, 44813.00
1344.883, 44649.00
1345.944, 45071.00
1347.004, 45113.00
1348.064, 45004.00
1349.124, 45247.00
1350.184, 44997.00
1351.244, 45103.00
1352.304, 45150.00
1353.363, 45008.00
1354.422, 45474.00
1355.481, 44948.00
1356.540, 45283.00
1357.599, 45175.00
1358.657, 45004.00
1359.716, 45105.00
1360.774, 45156.00
1361.832, 45121.00
1362.890, 45319.00
1363.948, 45196.00
1365.006, 45151.00
1366.063, 45374.00
1367.120, 45239.00
1368.178, 45260.00
1369.234, 45567.00
1370.291, 45570.00
1371.348, 45520.00
1372.404, 45447.00
1373.461, 45475.00
1374.517, 45688.00
1375.573, 45842.00
1376.629, 45575.00
1377.684, 45372.00
1378.740, 45728.00
1379.795, 45939.00
1380.850, 45841.00
1381.905, 45793.00
1382.960, 45862.00
1384.015, 45836.73
1385.070, 45869.93
1386.124, 45912.00
1387.178, 45940.00
1388.232, 45977.00
1389.286, 46022.00
1390.340, 45792.00
1391.393, 46123.00
1392.447, 45993.00
1393.500, 45823.00
1394.553, 46253.00
1395.606, 45826.00
1396.659, 46081.00
1397.711, 45999.00
1398.764, 46222.00
1399.816, 45965.00
1400.868, 46015.00
1401.920, 46332.00
1402.972, 46175.00
1404.023, 45875.00
1405.075, 46247.00
1406.126, 46325.00
1407.177, 45981.00
1408.228, 46255.00
1409.279, 46344.00
1410.330, 46264.00
1411.380, 46256.00
1412.431, 46463.00
1413.481, 46281.00
1414.531, 46620.00
1415.580, 46533.00
1416.630, 46588.00
1417.680, 46864.00
1418.729, 46595.00
1419.778, 46536.00
1420.827, 46362.00
1421.876, 46563.00
1422.925, 46498.00
1423.973, 46516.00
1425.022, 47040.00
1426.070, 46917.00
1427.118, 46909.00
1428.166, 46965.00
1429.214, 46902.00
1430.261, 46955.00
1431.309, 47190.00
1432.356, 47348.00
1433.403, 47325.00
1434.450, 47293.00
1435.497, 47443.00
1436.543, 47641.00
1437.590, 47715.00
1438.636, 47925.00
1439.682, 47864.00
1440.728, 48296.00
1441.774, 48308.37
1442.819, 48311.20
1443.865, 48502.00
1444.910, 48341.00
1445.955, 48342.00
1447.000, 48606.00
1448.045, 48688.00
1449.090, 48820.00
1450.134, 48769.00
1451.178, 48952.00
1452.223, 48845.00
1453.267, 48926.00
1454.310, 48978.55
1455.354, 48932.57
1456.398, 49060.00
1457.441, 48921.00
1458.484, 48925.00
1459.527, 48938.00
1460.570, 48902.00
1461.613, 48849.00
1462.655, 48726.00
1463.698, 48522.00
1464.740, 48521.00
1465.782, 48385.00
1466.824, 48354.55
1467.866, 48665.00
1468.907, 48340.00
1469.948, 48407.00
1470.990, 48446.00
1472.031, 48245.00
1473.072, 48625.00
1474.112, 48196.00
1475.153, 48459.00
1476.194, 48130.00
1477.234, 48639.00
1478.274, 48496.00
1479.314, 48437.00
1480.354, 49012.00
1481.393, 48524.00
1482.433, 48694.00
1483.472, 48631.00
1484.511, 48632.00
1485.550, 48835.00
1486.589, 48468.00
1487.628, 48415.00
1488.666, 48690.00
1489.704, 48481.00
1490.743, 48532.00
1491.781, 48290.00
1492.819, 48457.00
1493.856, 48829.00
1494.894, 48612.00
1495.931, 48891.00
1496.968, 48565.00
1498.005, 48709.00
1499.042, 48907.00
1500.079, 48810.00
1501.115, 48589.00
1502.152, 48484.00
1503.188, 48731.00
1504.224, 48753.00
1505.260, 48841.00
1506.296, 48649.00
1507.331, 48623.00
1508.367, 48940.00
1509.402, 49096.00
1510.437, 49106.00
1511.472, 49151.00
1512.507, 49018.00
1513.541, 48620.00
1514.576, 48978.00
1515.610, 48877.00
1516.644, 49207.00
1517.678, 49444.00
1518.712, 49137.00
1519.746, 49528.00
1520.779, 49221.00
1521.813, 49325.00
1522.846, 49206.00
1523.879, 49287.00
1524.912, 49264.00
1525.944, 49431.00
1526.977, 49500.00
1528.009, 49364.00
1529.041, 49517.00
1530.073, 49632.00
1531.105, 49581.00
1532.137, 49772.00
1533.168, 49524.00
1534.200, 49749.00
1535.231, 49861.00
1536.262, 49704.00
1537.293, 49935.00
1538.324, 50040.00
1539.354, 49573.00
1540.385, 49779.00
1541.415, 49857.00
1542.445, 49579.00
1543.475, 49868.00
1544.505, 49920.00
1545.534, 50063.00
1546.564, 50051.00
1547.593, 49936.00
1548.622, 50116.00
1549.651, 50236.00
1550.680, 49806.00
1551.708, 50209.00
1552.737, 49815.00
1553.765, 50021.00
1554.793, 50196.00
1555.821, 50018.00
1556.849, 50174.00
1557.877, 50226.00
1558.904, 49921.00
1559.932, 50250.00
1560.959, 50284.00
1561.986, 49921.00
1563.013, 49983.00
1564.039, 50093.00
1565.066, 50174.00
1566.092, 50106.00
1567.119, 50139.00
1568.145, 50149.89
1569.170, 50228.00
1570.196, 50149.00
1571.222, 50326.00
1572.247, 50301.00
1573.272, 50479.00
1574.297, 50613.00
1575.322, 50657.00
1576.347, 50798.00
##END=



