##NAMES=Montebrasite
##RRUFFID=R060890
##IDEAL CHEMISTRY=LiAlPO_4_(OH)
##LOCALITY=Mount Marie, Paris, Maine, USA
##OWNER=RRUFF
##SOURCE=Bob Jenkins
##DESCRIPTION=Colorless massive
##STATUS=The identification of this mineral is confirmed by single-crystal X-ray diffraction and chemical analysis.
##URL=rruff.info/R060890
##MEASURED CHEMISTRY=Li_1.00_Al_1.00_(P_1.00_O_4_)(OH)_0.63_F_0.37_)_Î£=1_ ; Li not measured but estimated by stoichiometry
##PIN_ID=M01503
##ORIENTATION=Laser parallel to (-1 0 -1). Fiducial mark perpendicular to laser is parallel to b [0 1 0]
90.67800, 10770.00
91.91600, 11168.00
93.15500, 10965.00
94.39300, 11012.00
95.63100, 10953.00
96.86900, 10849.00
98.10600, 10914.00
99.34400, 10972.00
100.5810, 10964.00
101.8190, 10985.00
103.0560, 11085.56
104.2930, 11019.00
105.5290, 11281.00
106.7660, 11445.00
108.0020, 11525.09
109.2390, 11635.00
110.4750, 11620.00
111.7110, 11583.00
112.9460, 11517.00
114.1820, 11730.00
115.4170, 11981.00
116.6530, 12017.00
117.8880, 12074.00
119.1230, 12152.00
120.3580, 12314.00
121.5920, 12537.00
122.8270, 12979.00
124.0610, 13276.00
125.2950, 13345.00
126.5290, 13509.00
127.7630, 13730.00
128.9970, 14241.00
130.2300, 14563.00
131.4640, 14508.00
132.6970, 14369.00
133.9300, 14144.00
135.1630, 13874.00
136.3950, 13400.00
137.6280, 12909.00
138.8600, 12875.00
140.0920, 12611.00
141.3240, 12568.00
142.5560, 12125.00
143.7880, 12069.00
145.0190, 12046.00
146.2510, 12007.00
147.4820, 12017.00
148.7130, 11976.00
149.9440, 12057.00
151.1750, 11982.00
152.4050, 12166.00
153.6360, 12090.00
154.8660, 12205.00
156.0960, 12287.00
157.3260, 12216.00
158.5560, 12117.00
159.7850, 12200.00
161.0150, 12318.00
162.2440, 12368.00
163.4730, 12370.00
164.7020, 12320.00
165.9310, 12321.00
167.1590, 12147.00
168.3880, 12066.00
169.6160, 12017.00
170.8440, 11926.00
172.0720, 11918.00
173.3000, 11908.00
174.5280, 11877.00
175.7550, 11819.00
176.9820, 11819.00
178.2100, 11943.00
179.4370, 11700.00
180.6630, 11670.00
181.8900, 11859.00
183.1170, 11729.00
184.3430, 11992.00
185.5690, 11963.00
186.7950, 11940.00
188.0210, 11935.00
189.2470, 12014.00
190.4720, 12052.00
191.6970, 12062.00
192.9230, 11980.00
194.1480, 12122.00
195.3730, 12014.00
196.5970, 11909.00
197.8220, 12025.00
199.0460, 12056.00
200.2700, 11819.00
201.4940, 11896.00
202.7180, 11502.00
203.9420, 11306.00
205.1660, 11316.00
206.3890, 11284.00
207.6120, 11258.00
208.8350, 11245.83
210.0580, 11200.00
211.2810, 11224.00
212.5040, 11229.00
213.7260, 11265.35
214.9480, 11295.41
216.1700, 11303.00
217.3920, 11397.00
218.6140, 11419.00
219.8360, 11521.00
221.0570, 11489.00
222.2790, 11479.00
223.5000, 11439.00
224.7210, 11400.00
225.9410, 11539.00
227.1620, 11410.00
228.3820, 11275.00
229.6030, 11532.00
230.8230, 11445.00
232.0430, 11393.00
233.2630, 11533.00
234.4820, 11430.00
235.7020, 11376.00
236.9210, 11432.00
238.1400, 11384.00
239.3590, 11399.00
240.5780, 11471.00
241.7970, 11429.00
243.0150, 11306.00
244.2340, 11238.00
245.4520, 11301.00
246.6700, 11381.00
247.8880, 11386.00
249.1060, 11347.00
250.3230, 11357.00
251.5400, 11381.00
252.7580, 11516.00
253.9750, 11596.00
255.1920, 11518.00
256.4080, 11620.00
257.6250, 11831.00
258.8410, 11924.00
260.0580, 11860.00
261.2740, 12105.00
262.4900, 12277.00
263.7050, 12420.00
264.9210, 12783.00
266.1360, 12864.00
267.3520, 13200.00
268.5670, 13235.00
269.7820, 13426.00
270.9960, 13748.00
272.2110, 13768.00
273.4250, 13808.00
274.6400, 13800.00
275.8540, 13861.00
277.0680, 13795.00
278.2810, 13837.00
279.4950, 13844.00
280.7090, 13799.00
281.9220, 13860.00
283.1350, 13970.00
284.3480, 14076.00
285.5610, 14594.00
286.7730, 15116.00
287.9860, 15763.00
289.1980, 16648.00
290.4100, 17848.00
291.6220, 19074.00
292.8340, 20688.00
294.0460, 22521.00
295.2570, 24386.00
296.4690, 26229.00
297.6800, 28382.00
298.8910, 30603.00
300.1020, 32574.00
301.3120, 34002.00
302.5230, 33965.00
303.7330, 32889.00
304.9440, 31042.00
306.1540, 28748.00
307.3630, 26952.00
308.5730, 24903.00
309.7830, 23530.00
310.9920, 22469.00
312.2010, 21468.00
313.4100, 20575.00
314.6190, 19790.00
315.8280, 18939.00
317.0370, 18087.00
318.2450, 17338.00
319.4530, 16877.00
320.6610, 16186.00
321.8690, 15771.00
323.0770, 15194.00
324.2850, 14897.00
325.4920, 14664.00
326.6990, 14365.00
327.9060, 14121.00
329.1130, 14041.00
330.3200, 13782.00
331.5270, 13675.00
332.7330, 13521.00
333.9390, 13469.00
335.1450, 13212.00
336.3510, 13281.00
337.5570, 13104.00
338.7630, 13037.00
339.9680, 13037.00
341.1740, 13031.00
342.3790, 12988.00
343.5840, 12922.46
344.7890, 12938.00
345.9930, 12760.00
347.1980, 12647.00
348.4020, 12596.00
349.6060, 12780.00
350.8100, 12736.00
352.0140, 12701.00
353.2180, 12674.00
354.4210, 12764.00
355.6250, 12845.00
356.8280, 12778.00
358.0310, 12738.00
359.2340, 12694.00
360.4360, 12814.00
361.6390, 12853.00
362.8410, 12873.00
364.0430, 12960.00
365.2450, 12999.00
366.4470, 12939.00
367.6490, 12957.00
368.8510, 13033.00
370.0520, 13035.00
371.2530, 13157.00
372.4540, 13086.00
373.6550, 13014.00
374.8560, 13076.00
376.0560, 13123.00
377.2570, 13057.00
378.4570, 13032.00
379.6570, 12998.00
380.8570, 12897.00
382.0570, 12869.00
383.2560, 12856.46
384.4560, 12880.00
385.6550, 12862.00
386.8540, 12826.00
388.0530, 12823.00
389.2520, 12822.00
390.4510, 12834.00
391.6490, 12919.00
392.8470, 12868.00
394.0450, 12823.00
395.2430, 12918.00
396.4410, 12729.00
397.6390, 12778.00
398.8360, 12748.00
400.0340, 12689.00
401.2310, 12731.00
402.4280, 12712.41
403.6250, 12712.00
404.8210, 12776.00
406.0180, 12743.00
407.2140, 12846.00
408.4100, 12945.00
409.6060, 13185.00
410.8020, 13132.00
411.9980, 13317.00
413.1930, 13289.00
414.3890, 13622.00
415.5840, 14028.00
416.7790, 14460.00
417.9740, 14911.48
419.1680, 15460.00
420.3630, 15919.00
421.5570, 16510.00
422.7510, 17076.00
423.9450, 17968.00
425.1390, 18429.00
426.3330, 18561.00
427.5270, 18218.00
428.7200, 17167.00
429.9130, 16100.00
431.1060, 15186.00
432.2990, 14495.00
433.4920, 14053.00
434.6840, 13891.00
435.8770, 13662.00
437.0690, 13397.00
438.2610, 13209.00
439.4530, 13159.00
440.6450, 13286.00
441.8360, 13171.00
443.0280, 13198.00
444.2190, 13162.00
445.4100, 13035.00
446.6010, 13100.00
447.7920, 13117.00
448.9820, 13148.00
450.1730, 13179.00
451.3630, 13237.59
452.5530, 13352.00
453.7430, 13392.00
454.9330, 13447.00
456.1230, 13568.00
457.3120, 13304.00
458.5010, 13608.00
459.6910, 13627.00
460.8800, 13823.00
462.0680, 14055.00
463.2570, 14163.00
464.4460, 14311.00
465.6340, 14517.00
466.8220, 14608.00
468.0100, 14956.00
469.1980, 15163.00
470.3860, 15659.00
471.5730, 15923.00
472.7600, 16372.00
473.9480, 16908.00
475.1350, 17424.00
476.3210, 17846.36
477.5080, 18364.00
478.6950, 18686.00
479.8810, 18914.00
481.0670, 19275.00
482.2530, 19431.00
483.4390, 19558.00
484.6250, 19466.00
485.8100, 19361.00
486.9960, 19132.00
488.1810, 19051.00
489.3660, 18678.00
490.5510, 18353.00
491.7360, 18213.00
492.9200, 18156.00
494.1050, 17934.00
495.2890, 17393.00
496.4730, 17315.00
497.6570, 16914.00
498.8400, 16677.00
500.0240, 16433.00
501.2070, 16274.00
502.3910, 15918.00
503.5740, 15690.00
504.7570, 15431.00
505.9400, 15171.00
507.1220, 14974.82
508.3050, 14780.00
509.4870, 14622.00
510.6690, 14364.00
511.8510, 14279.00
513.0330, 14263.00
514.2140, 14280.00
515.3960, 13967.00
516.5770, 14027.00
517.7580, 13825.00
518.9390, 13835.00
520.1200, 13841.00
521.3010, 13615.00
522.4810, 13705.00
523.6610, 13769.00
524.8420, 13578.00
526.0220, 13689.00
527.2010, 13601.00
528.3810, 13616.00
529.5610, 13634.00
530.7400, 13599.00
531.9190, 13538.00
533.0980, 13722.00
534.2770, 13579.00
535.4560, 13454.00
536.6340, 13587.00
537.8120, 13572.00
538.9910, 13735.00
540.1690, 13615.00
541.3460, 13723.00
542.5240, 13675.00
543.7020, 13784.00
544.8790, 13778.00
546.0560, 13855.00
547.2330, 13869.00
548.4100, 13757.00
549.5870, 13751.00
550.7630, 13770.00
551.9400, 13840.00
553.1160, 13690.00
554.2920, 13893.00
555.4680, 13824.00
556.6440, 14026.00
557.8190, 13841.00
558.9950, 13954.00
560.1700, 14002.00
561.3450, 13916.00
562.5200, 13928.00
563.6950, 13943.52
564.8690, 14003.00
566.0440, 13984.00
567.2180, 14059.00
568.3920, 14085.00
569.5660, 14163.00
570.7400, 14002.00
571.9130, 14038.00
573.0870, 14238.00
574.2600, 14095.00
575.4330, 14239.00
576.6060, 14338.00
577.7790, 14316.00
578.9520, 14286.00
580.1240, 14299.00
581.2960, 14463.00
582.4690, 14625.00
583.6410, 14651.00
584.8120, 14679.00
585.9840, 14664.00
587.1560, 14760.00
588.3270, 14941.00
589.4980, 14992.00
590.6690, 15171.00
591.8400, 15349.00
593.0110, 15633.00
594.1810, 15861.67
595.3510, 16240.00
596.5220, 16453.00
597.6920, 16970.00
598.8610, 17379.00
600.0310, 17566.00
601.2010, 18147.00
602.3700, 18498.00
603.5390, 18280.00
604.7080, 18081.00
605.8770, 17698.00
607.0460, 17139.00
608.2140, 16877.00
609.3830, 16726.00
610.5510, 16474.00
611.7190, 16528.00
612.8870, 16299.00
614.0550, 16536.00
615.2220, 16631.00
616.3900, 16712.00
617.5570, 16660.00
618.7240, 17199.00
619.8910, 17347.00
621.0580, 17685.00
622.2240, 18165.54
623.3910, 18761.00
624.5570, 19235.00
625.7230, 19917.00
626.8890, 20547.00
628.0550, 21356.00
629.2200, 22142.00
630.3860, 23012.00
631.5510, 24100.00
632.7160, 24886.00
633.8810, 25718.00
635.0460, 27166.00
636.2100, 28725.00
637.3750, 31101.00
638.5390, 34067.00
639.7030, 37539.00
640.8670, 41422.00
642.0310, 45322.00
643.1950, 49969.00
644.3580, 53898.00
645.5210, 56024.00
646.6850, 56067.00
647.8480, 52098.00
649.0100, 46930.00
650.1730, 40352.00
651.3350, 35039.00
652.4980, 30336.00
653.6600, 26792.00
654.8220, 24305.00
655.9840, 22376.00
657.1450, 21026.00
658.3070, 19905.00
659.4680, 19120.00
660.6300, 18526.00
661.7910, 17906.00
662.9510, 17579.00
664.1120, 17162.00
665.2730, 17035.00
666.4330, 16735.00
667.5930, 16354.00
668.7530, 16380.00
669.9130, 16300.00
671.0730, 16125.00
672.2320, 15834.00
673.3920, 15859.00
674.5510, 15770.00
675.7100, 15659.00
676.8690, 15698.00
678.0280, 15683.00
679.1860, 15597.00
680.3450, 15655.00
681.5030, 15577.00
682.6610, 15633.00
683.8190, 15513.00
684.9770, 15468.00
686.1340, 15384.00
687.2920, 15378.00
688.4490, 15467.00
689.6060, 15513.00
690.7630, 15433.00
691.9200, 15467.00
693.0760, 15402.00
694.2330, 15342.00
695.3890, 15549.00
696.5450, 15467.00
697.7010, 15489.00
698.8570, 15610.00
700.0130, 15555.00
701.1680, 15537.00
702.3230, 15594.00
703.4780, 15220.00
704.6330, 15437.00
705.7880, 15292.00
706.9430, 15420.00
708.0970, 15680.00
709.2520, 15494.00
710.4060, 15477.00
711.5600, 15570.00
712.7140, 15535.00
713.8670, 15590.00
715.0210, 15551.00
716.1740, 15502.00
717.3270, 15648.00
718.4800, 15526.00
719.6330, 15429.00
720.7860, 15432.00
721.9380, 15608.00
723.0910, 15694.00
724.2430, 15571.00
725.3950, 15618.00
726.5470, 15632.00
727.6980, 15689.00
728.8500, 15657.00
730.0010, 15627.00
731.1530, 15820.00
732.3040, 15809.00
733.4550, 15827.00
734.6050, 15903.00
735.7560, 15911.84
736.9060, 15902.00
738.0560, 15970.00
739.2060, 15957.00
740.3560, 15940.00
741.5060, 15913.00
742.6560, 15870.00
743.8050, 15792.00
744.9540, 16060.00
746.1030, 15908.00
747.2520, 16099.00
748.4010, 15938.00
749.5500, 16020.00
750.6980, 16012.00
751.8460, 16127.00
752.9950, 16062.00
754.1420, 16158.00
755.2900, 16118.00
756.4380, 16187.00
757.5850, 16125.00
758.7330, 16310.00
759.8800, 16160.00
761.0270, 16223.00
762.1730, 16219.00
763.3200, 16186.55
764.4670, 16369.00
765.6130, 16203.00
766.7590, 16249.00
767.9050, 16289.00
769.0510, 16458.00
770.1960, 16296.00
771.3420, 16414.00
772.4870, 16406.00
773.6320, 16351.00
774.7770, 16507.00
775.9220, 16464.00
777.0670, 16515.00
778.2110, 16538.00
779.3560, 16599.00
780.5000, 16625.68
781.6440, 16555.00
782.7880, 16646.00
783.9320, 16712.00
785.0750, 16632.00
786.2180, 16706.00
787.3620, 16747.00
788.5050, 16742.00
789.6480, 16692.00
790.7900, 16846.00
791.9330, 16855.00
793.0750, 17047.00
794.2170, 17199.00
795.3590, 17101.00
796.5010, 17186.00
797.6430, 17181.00
798.7850, 17214.61
799.9260, 17365.00
801.0670, 17298.00
802.2080, 17406.00
803.3490, 17396.00
804.4900, 17570.00
805.6310, 17547.00
806.7710, 17526.00
807.9110, 17456.00
809.0510, 17498.00
810.1910, 17519.39
811.3310, 17561.00
812.4710, 17600.00
813.6100, 17680.00
814.7490, 17646.00
815.8880, 17785.00
817.0270, 17673.00
818.1660, 17619.00
819.3050, 17831.00
820.4430, 17611.00
821.5820, 17482.00
822.7200, 17517.00
823.8580, 17535.00
824.9950, 17647.00
826.1330, 17633.03
827.2710, 17529.00
828.4080, 17610.00
829.5450, 17614.00
830.6820, 17505.00
831.8190, 17574.00
832.9560, 17544.12
834.0920, 17499.00
835.2280, 17517.00
836.3650, 17471.00
837.5010, 17359.00
838.6360, 17512.00
839.7720, 17699.00
840.9080, 17486.00
842.0430, 17532.00
843.1780, 17586.00
844.3130, 17577.00
845.4480, 17501.00
846.5830, 17507.00
847.7170, 17651.00
848.8520, 17442.00
849.9860, 17590.00
851.1200, 17481.00
852.2540, 17798.00
853.3870, 17762.00
854.5210, 17670.00
855.6540, 17848.00
856.7880, 17724.00
857.9210, 17877.00
859.0540, 17998.00
860.1860, 17894.00
861.3190, 17784.00
862.4510, 17917.00
863.5840, 17853.00
864.7160, 17947.00
865.8480, 17964.82
866.9790, 18084.00
868.1110, 18012.00
869.2420, 18060.00
870.3740, 18097.00
871.5050, 18155.00
872.6360, 18185.00
873.7660, 17975.00
874.8970, 18339.00
876.0280, 18028.00
877.1580, 18280.00
878.2880, 18198.00
879.4180, 18226.00
880.5480, 18221.00
881.6770, 18394.00
882.8070, 18484.00
883.9360, 18339.00
885.0650, 18477.00
886.1940, 18289.00
887.3230, 18419.00
888.4520, 18407.00
889.5800, 18468.00
890.7090, 18580.00
891.8370, 18437.00
892.9650, 18563.00
894.0930, 18453.00
895.2200, 18536.00
896.3480, 18565.00
897.4750, 18647.00
898.6020, 18723.00
899.7290, 18577.00
900.8560, 18689.00
901.9830, 18761.00
903.1090, 18639.00
904.2360, 18752.00
905.3620, 18609.00
906.4880, 18649.00
907.6140, 18752.00
908.7400, 18870.00
909.8650, 18955.00
910.9900, 18947.00
912.1160, 18980.79
913.2410, 18882.00
914.3660, 18979.00
915.4900, 18964.00
916.6150, 19037.00
917.7390, 18972.00
918.8640, 19054.00
919.9880, 19064.27
921.1120, 19024.00
922.2350, 19138.00
923.3590, 19167.00
924.4820, 19241.00
925.6060, 19429.00
926.7290, 19232.00
927.8520, 19439.00
928.9740, 19211.00
930.0970, 19381.00
931.2190, 19361.00
932.3420, 19384.00
933.4640, 19552.00
934.5860, 19497.00
935.7080, 19632.00
936.8290, 19460.00
937.9510, 19536.00
939.0720, 19495.00
940.1930, 19618.00
941.3140, 19819.00
942.4350, 19692.00
943.5560, 19859.00
944.6760, 19817.00
945.7960, 19913.00
946.9170, 20044.00
948.0370, 19859.00
949.1560, 19975.00
950.2760, 20102.00
951.3960, 20021.00
952.5150, 20238.00
953.6340, 20061.00
954.7530, 20166.00
955.8720, 20433.00
956.9910, 20344.00
958.1090, 20338.00
959.2280, 20446.00
960.3460, 20436.00
961.4640, 20637.00
962.5820, 20724.00
963.6990, 20782.00
964.8170, 20969.00
965.9340, 21026.00
967.0510, 20953.00
968.1690, 21040.00
969.2850, 20988.00
970.4020, 21297.00
971.5190, 21387.00
972.6350, 21386.00
973.7510, 21259.00
974.8670, 21631.00
975.9830, 21746.00
977.0990, 22185.00
978.2150, 22491.00
979.3300, 22471.00
980.4450, 22769.00
981.5600, 22851.00
982.6750, 23408.00
983.7900, 23796.00
984.9050, 24065.00
986.0190, 24592.00
987.1340, 25109.00
988.2480, 25758.00
989.3620, 26657.00
990.4750, 27489.00
991.5890, 28556.00
992.7020, 29780.00
993.8160, 30979.00
994.9290, 32734.00
996.0420, 34355.00
997.1550, 35821.00
998.2670, 38149.00
999.3800, 40321.00
1000.492, 43091.00
1001.604, 46004.00
1002.716, 48375.00
1003.828, 51530.00
1004.940, 54366.00
1006.051, 57304.00
1007.163, 59574.00
1008.274, 61523.00
1009.385, 62674.00
1010.496, 62902.00
1011.606, 62452.00
1012.717, 61174.00
1013.827, 59372.00
1014.937, 56275.00
1016.047, 53488.00
1017.157, 50683.00
1018.267, 47417.00
1019.377, 44348.00
1020.486, 42000.00
1021.595, 39304.00
1022.704, 37668.00
1023.813, 35643.00
1024.922, 34693.00
1026.030, 33623.00
1027.139, 32822.00
1028.247, 32176.00
1029.355, 31707.00
1030.463, 31938.00
1031.571, 31554.00
1032.678, 31847.00
1033.786, 32480.00
1034.893, 32837.00
1036.000, 33506.00
1037.107, 33945.00
1038.214, 34472.00
1039.321, 35224.00
1040.427, 36032.00
1041.533, 36662.00
1042.639, 37160.00
1043.745, 37616.00
1044.851, 37916.00
1045.957, 38582.00
1047.062, 38885.00
1048.168, 39271.00
1049.273, 39406.00
1050.378, 39741.00
1051.482, 40281.00
1052.587, 41017.00
1053.692, 41948.00
1054.796, 42488.00
1055.900, 44140.00
1057.004, 46109.00
1058.108, 47589.00
1059.212, 49022.00
1060.315, 50316.00
1061.418, 51069.00
1062.522, 50621.00
1063.625, 49479.00
1064.728, 47266.00
1065.830, 44191.00
1066.933, 41265.00
1068.035, 38274.00
1069.137, 35653.00
1070.239, 33171.00
1071.341, 31475.00
1072.443, 29908.00
1073.545, 28743.00
1074.646, 27852.00
1075.747, 27105.00
1076.848, 26321.00
1077.949, 25891.00
1079.050, 25530.00
1080.150, 25111.00
1081.251, 24781.00
1082.351, 24603.00
1083.451, 24217.00
1084.551, 24223.00
1085.651, 23902.00
1086.750, 23839.00
1087.850, 23774.00
1088.949, 23676.00
1090.048, 23600.48
1091.147, 23445.00
1092.246, 23401.00
1093.345, 23378.00
1094.443, 23241.00
1095.541, 23277.65
1096.639, 23341.00
1097.737, 23317.00
1098.835, 23370.00
1099.933, 23439.00
1101.030, 23264.00
1102.128, 23528.00
1103.225, 23724.00
1104.322, 23742.00
1105.419, 23681.00
1106.515, 23839.00
1107.612, 24049.00
1108.708, 24163.00
1109.804, 24399.00
1110.900, 24282.00
1111.996, 24469.00
1113.092, 24641.00
1114.187, 24603.00
1115.283, 24807.00
1116.378, 24654.00
1117.473, 24786.00
1118.568, 24644.00
1119.662, 24859.00
1120.757, 24725.00
1121.851, 24689.00
1122.946, 24673.00
1124.040, 24516.00
1125.134, 24597.00
1126.227, 24518.00
1127.321, 24578.00
1128.414, 24412.00
1129.508, 24595.00
1130.601, 24400.00
1131.693, 24456.00
1132.786, 24311.00
1133.879, 24388.00
1134.971, 24216.00
1136.064, 24244.00
1137.156, 24206.00
1138.248, 24011.00
1139.339, 24061.00
1140.431, 24196.00
1141.522, 23990.00
1142.614, 23812.00
1143.705, 24024.00
1144.796, 24167.00
1145.887, 24042.00
1146.977, 24040.00
1148.068, 24089.00
1149.158, 23880.00
1150.248, 23995.00
1151.338, 24210.00
1152.428, 24210.00
1153.518, 24180.00
1154.607, 24280.00
1155.696, 24450.00
1156.785, 24176.00
1157.874, 24282.00
1158.963, 24270.00
1160.052, 23994.00
1161.141, 24033.00
1162.229, 24168.00
1163.317, 24059.00
1164.405, 24121.00
1165.493, 23998.00
1166.581, 23796.00
1167.668, 23963.00
1168.756, 23830.00
1169.843, 23939.00
1170.930, 23955.00
1172.017, 24050.00
1173.103, 24097.00
1174.190, 24064.00
1175.276, 23959.00
1176.363, 24233.00
1177.449, 24101.00
1178.535, 24149.00
1179.620, 24336.00
1180.706, 24225.00
1181.791, 24321.00
1182.877, 24350.00
1183.962, 24398.00
1185.047, 24735.00
1186.131, 24561.00
1187.216, 24754.00
1188.300, 25066.00
1189.385, 24872.00
1190.469, 25136.00
1191.553, 25196.00
1192.637, 24990.00
1193.720, 25084.00
1194.804, 25116.00
1195.887, 24993.00
1196.970, 25025.00
1198.053, 25120.00
1199.136, 25146.00
1200.219, 25103.00
1201.301, 25022.00
1202.383, 24963.00
1203.465, 24876.79
1204.547, 24814.00
1205.629, 24768.00
1206.711, 24688.00
1207.792, 24793.00
1208.874, 24461.00
1209.955, 24641.00
1211.036, 24478.00
1212.117, 24633.00
1213.198, 24492.00
1214.278, 24416.00
1215.359, 24314.00
1216.439, 24242.00
1217.519, 24212.00
1218.599, 24219.00
1219.678, 24245.00
1220.758, 24156.00
1221.837, 24237.00
1222.917, 24174.00
1223.996, 24254.00
1225.075, 24365.00
1226.153, 23811.00
1227.232, 24152.00
1228.310, 23964.00
1229.389, 24324.00
1230.467, 24205.00
1231.545, 24131.00
1232.622, 24107.00
1233.700, 24097.00
1234.777, 24320.00
1235.855, 24127.00
1236.932, 24247.00
1238.009, 24298.00
1239.086, 24241.00
1240.162, 24382.00
1241.239, 24063.00
1242.315, 24167.00
1243.391, 24306.00
1244.467, 24248.00
1245.543, 24398.00
1246.619, 24374.00
1247.694, 24517.00
1248.769, 24424.00
1249.844, 24425.00
1250.919, 24505.00
1251.994, 24520.00
1253.069, 24367.00
1254.144, 24468.00
1255.218, 24263.00
1256.292, 24604.00
1257.366, 24608.00
1258.440, 24626.00
1259.514, 24506.00
1260.587, 24822.00
1261.661, 24681.00
1262.734, 24450.00
1263.807, 24840.00
1264.880, 24754.00
1265.952, 24787.00
1267.025, 24761.00
1268.097, 24913.00
1269.170, 24876.04
1270.242, 25038.00
1271.314, 24948.00
1272.385, 24774.00
1273.457, 24915.00
1274.528, 24810.00
1275.600, 24869.00
1276.671, 25102.00
1277.742, 24936.00
1278.812, 25167.00
1279.883, 24920.00
1280.954, 24973.00
1282.024, 25149.00
1283.094, 25198.00
1284.164, 25047.00
1285.234, 25076.00
1286.303, 25037.00
1287.373, 25042.00
1288.442, 25124.00
1289.511, 25049.00
1290.580, 25159.00
1291.649, 25245.00
1292.718, 25187.00
1293.786, 25056.00
1294.855, 25060.00
1295.923, 25154.00
1296.991, 25242.00
1298.059, 25114.00
1299.126, 25327.00
1300.194, 25106.00
1301.261, 25193.00
1302.328, 25369.00
1303.395, 25297.00
1304.462, 25294.00
1305.529, 25476.00
1306.596, 25361.00
1307.662, 25333.00
1308.728, 25364.00
1309.794, 25451.00
1310.860, 25455.00
1311.926, 25456.00
1312.991, 25428.00
1314.057, 25761.00
1315.122, 25751.00
1316.187, 25640.00
1317.252, 25684.00
1318.317, 25528.00
1319.381, 25536.00
1320.446, 25789.00
1321.510, 25657.00
1322.574, 25777.00
1323.638, 25782.00
1324.702, 25627.00
1325.766, 25618.00
1326.829, 25636.45
1327.892, 25644.15
1328.956, 25728.00
1330.019, 25796.00
1331.081, 25864.00
1332.144, 25971.00
1333.206, 25925.00
1334.269, 25914.00
1335.331, 25960.00
1336.393, 25846.00
1337.455, 25930.00
1338.516, 25865.00
1339.578, 25903.00
1340.639, 26023.00
1341.701, 25812.00
1342.762, 26054.00
1343.822, 26086.00
1344.883, 26018.00
1345.944, 26129.00
1347.004, 26034.00
1348.064, 26058.00
1349.124, 26052.00
1350.184, 25921.00
1351.244, 26147.00
1352.304, 26274.00
1353.363, 26439.00
1354.422, 26439.03
1355.481, 26148.00
1356.540, 26389.00
1357.599, 26382.00
1358.657, 26402.00
1359.716, 26484.00
1360.774, 26305.00
1361.832, 26336.00
1362.890, 26351.00
1363.948, 26329.00
1365.006, 26339.84
1366.063, 26444.00
1367.120, 26384.00
1368.178, 26282.00
1369.234, 26428.00
1370.291, 26491.00
1371.348, 26251.00
1372.404, 26505.00
1373.461, 26414.00
1374.517, 26321.00
1375.573, 26610.00
1376.629, 26627.00
1377.684, 26378.00
1378.740, 26809.00
1379.795, 26497.00
1380.850, 26681.00
1381.905, 26598.00
1382.960, 26735.00
1384.015, 26726.00
1385.070, 26708.00
1386.124, 26695.00
1387.178, 26760.00
1388.232, 26853.00
1389.286, 26777.00
1390.340, 26844.00
1391.393, 26785.00
1392.447, 26809.00
1393.500, 26881.00
1394.553, 26833.00
1395.606, 26917.00
1396.659, 26877.00
1397.711, 26894.00
1398.764, 27101.00
1399.816, 27143.00
1400.868, 26918.00
1401.920, 27111.00
1402.972, 27113.00
1404.023, 26908.00
1405.075, 26950.00
1406.126, 26825.00
1407.177, 27227.00
1408.228, 27236.00
1409.279, 27253.00
1410.330, 27143.00
1411.380, 27264.00
1412.431, 27021.00
1413.481, 27194.00
1414.531, 27220.00
1415.580, 27332.00
1416.630, 27300.00
1417.680, 27322.00
1418.729, 27161.00
1419.778, 27386.00
1420.827, 27267.00
1421.876, 27325.00
1422.925, 27343.00
1423.973, 27293.00
1425.022, 27570.00
1426.070, 27464.52
1427.118, 27512.79
1428.166, 27458.00
1429.214, 27534.00
1430.261, 27585.00
1431.309, 27703.00
1432.356, 27363.00
1433.403, 27850.00
1434.450, 28106.00
1435.497, 27644.00
1436.543, 27679.00
1437.590, 27793.00
1438.636, 27735.00
1439.682, 27893.00
1440.728, 27986.00
1441.774, 27835.00
1442.819, 27880.00
1443.865, 27838.71
1444.910, 27882.00
1445.955, 27835.00
1447.000, 27832.00
1448.045, 27980.00
1449.090, 28092.00
1450.134, 27879.00
1451.178, 28139.00
1452.223, 28040.00
1453.267, 28015.00
1454.310, 28152.00
1455.354, 28139.00
1456.398, 28112.00
1457.441, 28118.00
1458.484, 28057.00
1459.527, 28299.00
1460.570, 28296.00
1461.613, 28298.00
1462.655, 28399.00
1463.698, 28260.00
1464.740, 28220.00
1465.782, 28536.00
1466.824, 28207.00
1467.866, 28081.00
1468.907, 28276.00
1469.948, 28425.00
1470.990, 28530.00
1472.031, 28443.00
1473.072, 28690.00
1474.112, 28603.00
1475.153, 28527.00
1476.194, 28680.00
1477.234, 28673.00
1478.274, 28535.00
1479.314, 28715.00
1480.354, 28728.00
1481.393, 28683.00
1482.433, 28704.00
1483.472, 28800.00
1484.511, 28774.20
1485.550, 28965.00
1486.589, 28859.00
1487.628, 28880.00
1488.666, 29027.00
1489.704, 28997.00
1490.743, 29106.34
1491.781, 29297.00
1492.819, 29190.00
1493.856, 29464.00
1494.894, 29354.00
1495.931, 29679.00
1496.968, 29648.00
1498.005, 29873.00
1499.042, 30111.00
1500.079, 30183.83
1501.115, 30369.96
1502.152, 30448.00
1503.188, 30530.00
1504.224, 30607.00
1505.260, 30500.00
1506.296, 30662.00
1507.331, 30722.00
1508.367, 30630.00
1509.402, 30766.00
1510.437, 30574.00
1511.472, 30409.00
1512.507, 30534.00
1513.541, 30532.00
1514.576, 30518.00
1515.610, 30605.00
1516.644, 30292.00
1517.678, 30402.00
1518.712, 30343.00
1519.746, 30146.00
1520.779, 30207.00
1521.813, 30449.00
1522.846, 30275.00
1523.879, 30264.00
1524.912, 30063.00
1525.944, 29846.00
1526.977, 30020.00
1528.009, 29836.00
1529.041, 29966.00
1530.073, 29728.00
1531.105, 29858.00
1532.137, 29917.00
1533.168, 29688.00
1534.200, 29980.00
1535.231, 30066.00
1536.262, 29907.00
1537.293, 29693.00
1538.324, 29672.00
1539.354, 29685.00
1540.385, 29815.00
1541.415, 29939.00
1542.445, 29849.00
1543.475, 30023.00
1544.505, 29825.00
1545.534, 30018.00
1546.564, 29928.00
1547.593, 29865.00
1548.622, 29948.00
1549.651, 30011.00
1550.680, 29985.00
1551.708, 29990.00
1552.737, 30017.00
1553.765, 30076.00
1554.793, 30071.00
1555.821, 30261.00
1556.849, 30234.00
1557.877, 30041.00
1558.904, 30275.00
1559.932, 29959.00
1560.959, 30180.00
1561.986, 30128.00
1563.013, 30283.00
1564.039, 30151.00
1565.066, 30180.00
1566.092, 30195.00
1567.119, 30182.06
1568.145, 30362.00
1569.170, 30273.00
1570.196, 30343.00
1571.222, 30457.00
1572.247, 30304.00
1573.272, 30557.00
1574.297, 30598.00
1575.322, 30307.00
1576.347, 30576.00
##END=



