##NAMES=Montebrasite
##RRUFFID=R060890
##IDEAL CHEMISTRY=LiAlPO_4_(OH)
##LOCALITY=Mount Marie, Paris, Maine, USA
##OWNER=RRUFF
##SOURCE=Bob Jenkins
##DESCRIPTION=Colorless massive
##STATUS=The identification of this mineral is confirmed by single-crystal X-ray diffraction and chemical analysis.
##URL=rruff.info/R060890
##MEASURED CHEMISTRY=Li_1.00_Al_1.00_(P_1.00_O_4_)(OH)_0.63_F_0.37_)_Î£=1_ ; Li not measured but estimated by stoichiometry
##PIN_ID=M01677
##ORIENTATION=Laser parallel to b* (0 1 0). Fiducial mark perpendicular to laser is parallel to c [0 0 1]
90.67800, 4638.000
91.91600, 4745.000
93.15500, 4646.000
94.39300, 4774.000
95.63100, 4900.000
96.86900, 4784.000
98.10600, 4720.000
99.34400, 4860.000
100.5810, 4947.000
101.8190, 4970.000
103.0560, 5051.244
104.2930, 5018.000
105.5290, 5132.000
106.7660, 5283.000
108.0020, 5338.000
109.2390, 5310.000
110.4750, 5504.000
111.7110, 5490.000
112.9460, 5583.000
114.1820, 5783.000
115.4170, 6048.000
116.6530, 6089.000
117.8880, 6374.000
119.1230, 6609.000
120.3580, 6806.000
121.5920, 7125.000
122.8270, 7350.000
124.0610, 7511.000
125.2950, 7580.000
126.5290, 7751.000
127.7630, 7723.000
128.9970, 7852.000
130.2300, 7915.000
131.4640, 7813.000
132.6970, 7550.000
133.9300, 7209.000
135.1630, 6961.000
136.3950, 6773.000
137.6280, 6652.000
138.8600, 6454.000
140.0920, 6314.000
141.3240, 6136.000
142.5560, 6046.832
143.7880, 5899.000
145.0190, 5925.000
146.2510, 5872.000
147.4820, 5884.000
148.7130, 5866.000
149.9440, 5778.000
151.1750, 5857.000
152.4050, 5878.000
153.6360, 5860.000
154.8660, 5934.000
156.0960, 5929.000
157.3260, 5947.000
158.5560, 5931.000
159.7850, 5935.000
161.0150, 6099.000
162.2440, 6169.000
163.4730, 6294.000
164.7020, 6356.000
165.9310, 6611.000
167.1590, 6633.000
168.3880, 6863.000
169.6160, 6955.000
170.8440, 6943.000
172.0720, 7153.000
173.3000, 7415.000
174.5280, 7459.000
175.7550, 7484.000
176.9820, 7689.000
178.2100, 7773.000
179.4370, 7814.000
180.6630, 7968.000
181.8900, 8079.000
183.1170, 8004.000
184.3430, 8142.000
185.5690, 8223.000
186.7950, 8212.000
188.0210, 8170.000
189.2470, 8024.000
190.4720, 7911.000
191.6970, 7730.000
192.9230, 7749.000
194.1480, 7593.000
195.3730, 7403.000
196.5970, 7168.000
197.8220, 7015.000
199.0460, 6891.000
200.2700, 6693.000
201.4940, 6611.000
202.7180, 6384.000
203.9420, 6329.000
205.1660, 6346.000
206.3890, 6130.000
207.6120, 6186.000
208.8350, 6235.000
210.0580, 6247.000
211.2810, 6386.000
212.5040, 6428.000
213.7260, 6404.000
214.9480, 6531.000
216.1700, 6638.000
217.3920, 6717.000
218.6140, 6762.000
219.8360, 6779.000
221.0570, 6863.000
222.2790, 6815.000
223.5000, 6880.000
224.7210, 6937.000
225.9410, 6910.000
227.1620, 6885.000
228.3820, 6885.000
229.6030, 6972.000
230.8230, 6911.000
232.0430, 6864.000
233.2630, 6990.000
234.4820, 6983.000
235.7020, 6930.000
236.9210, 6812.000
238.1400, 6912.000
239.3590, 6882.000
240.5780, 6728.000
241.7970, 6750.000
243.0150, 6827.000
244.2340, 6701.000
245.4520, 6722.000
246.6700, 6678.000
247.8880, 6666.000
249.1060, 6689.000
250.3230, 6683.842
251.5400, 6703.471
252.7580, 6761.000
253.9750, 6709.000
255.1920, 6824.000
256.4080, 6759.000
257.6250, 6898.000
258.8410, 6974.000
260.0580, 7051.799
261.2740, 7214.000
262.4900, 7287.000
263.7050, 7297.000
264.9210, 7418.000
266.1360, 7505.000
267.3520, 7512.000
268.5670, 7673.000
269.7820, 7777.000
270.9960, 7714.000
272.2110, 7869.000
273.4250, 8009.000
274.6400, 8014.000
275.8540, 7996.000
277.0680, 8081.000
278.2810, 8351.000
279.4950, 8394.000
280.7090, 8703.000
281.9220, 8999.000
283.1350, 9309.000
284.3480, 9879.000
285.5610, 10592.00
286.7730, 11539.00
287.9860, 13051.00
289.1980, 14823.00
290.4100, 16899.00
291.6220, 19692.00
292.8340, 22604.00
294.0460, 25156.00
295.2570, 27602.00
296.4690, 29974.00
297.6800, 31573.00
298.8910, 33142.00
300.1020, 34301.00
301.3120, 35088.00
302.5230, 34424.00
303.7330, 32994.00
304.9440, 30660.00
306.1540, 28022.00
307.3630, 25480.00
308.5730, 22948.00
309.7830, 21075.45
310.9920, 19125.00
312.2010, 17843.00
313.4100, 16509.00
314.6190, 15510.00
315.8280, 14560.00
317.0370, 13765.00
318.2450, 12778.00
319.4530, 12179.00
320.6610, 11363.00
321.8690, 10651.00
323.0770, 9980.000
324.2850, 9428.000
325.4920, 9005.000
326.6990, 8740.000
327.9060, 8482.000
329.1130, 8091.000
330.3200, 8151.000
331.5270, 7968.000
332.7330, 7929.000
333.9390, 7701.000
335.1450, 7611.000
336.3510, 7619.000
337.5570, 7561.000
338.7630, 7473.000
339.9680, 7471.000
341.1740, 7251.000
342.3790, 7185.000
343.5840, 7129.000
344.7890, 7044.000
345.9930, 7132.000
347.1980, 7078.000
348.4020, 7103.000
349.6060, 7001.000
350.8100, 7073.000
352.0140, 6956.000
353.2180, 6965.000
354.4210, 6945.000
355.6250, 6960.000
356.8280, 6938.000
358.0310, 6962.964
359.2340, 6973.313
360.4360, 7015.000
361.6390, 7018.000
362.8410, 7050.000
364.0430, 7085.603
365.2450, 7019.000
366.4470, 7030.000
367.6490, 7184.000
368.8510, 6972.000
370.0520, 7203.000
371.2530, 6973.000
372.4540, 7110.000
373.6550, 7101.000
374.8560, 7102.000
376.0560, 7251.000
377.2570, 7165.000
378.4570, 7259.000
379.6570, 7188.000
380.8570, 7225.000
382.0570, 7175.000
383.2560, 7258.000
384.4560, 7227.000
385.6550, 7157.000
386.8540, 7292.000
388.0530, 7155.000
389.2520, 7470.000
390.4510, 7405.000
391.6490, 7440.000
392.8470, 7507.000
394.0450, 7516.000
395.2430, 7521.000
396.4410, 7549.000
397.6390, 7723.000
398.8360, 7659.000
400.0340, 7905.000
401.2310, 8069.000
402.4280, 8110.000
403.6250, 8411.000
404.8210, 8454.000
406.0180, 8883.000
407.2140, 9233.000
408.4100, 9644.000
409.6060, 10508.00
410.8020, 11522.00
411.9980, 13177.00
413.1930, 15191.00
414.3890, 18520.00
415.5840, 22482.00
416.7790, 27362.00
417.9740, 32727.00
419.1680, 36483.00
420.3630, 38979.00
421.5570, 40837.00
422.7510, 43030.00
423.9450, 44807.00
425.1390, 45019.00
426.3330, 42994.00
427.5270, 38737.00
428.7200, 32756.00
429.9130, 26407.00
431.1060, 21403.00
432.2990, 17397.00
433.4920, 14473.00
434.6840, 12647.00
435.8770, 11397.00
437.0690, 10447.00
438.2610, 9529.000
439.4530, 9000.000
440.6450, 8661.000
441.8360, 8387.000
443.0280, 8154.000
444.2190, 8097.000
445.4100, 7751.000
446.6010, 7742.000
447.7920, 7530.000
448.9820, 7460.000
450.1730, 7438.000
451.3630, 7478.000
452.5530, 7351.000
453.7430, 7343.000
454.9330, 7416.000
456.1230, 7368.000
457.3120, 7346.000
458.5010, 7401.000
459.6910, 7489.000
460.8800, 7561.000
462.0680, 7638.000
463.2570, 7754.000
464.4460, 7936.300
465.6340, 8128.942
466.8220, 8386.000
468.0100, 8621.000
469.1980, 8904.000
470.3860, 9180.000
471.5730, 9545.000
472.7600, 9935.408
473.9480, 10387.00
475.1350, 10848.00
476.3210, 11279.00
477.5080, 11672.02
478.6950, 12207.00
479.8810, 12408.00
481.0670, 12823.00
482.2530, 13158.00
483.4390, 13129.00
484.6250, 13334.00
485.8100, 13345.00
486.9960, 13491.00
488.1810, 13328.00
489.3660, 13162.00
490.5510, 13047.00
491.7360, 12965.00
492.9200, 12760.00
494.1050, 12463.00
495.2890, 12079.00
496.4730, 11787.00
497.6570, 11469.00
498.8400, 11069.00
500.0240, 10672.00
501.2070, 10328.00
502.3910, 10005.00
503.5740, 9572.000
504.7570, 9216.000
505.9400, 8967.000
507.1220, 8603.000
508.3050, 8433.000
509.4870, 8266.000
510.6690, 7981.000
511.8510, 7921.000
513.0330, 7723.000
514.2140, 7633.000
515.3960, 7451.000
516.5770, 7332.000
517.7580, 7187.000
518.9390, 7107.000
520.1200, 7089.000
521.3010, 7045.000
522.4810, 6996.946
523.6610, 6954.000
524.8420, 6944.000
526.0220, 6833.000
527.2010, 6862.000
528.3810, 6829.000
529.5610, 6889.000
530.7400, 6868.000
531.9190, 6701.000
533.0980, 6753.000
534.2770, 6811.000
535.4560, 6798.000
536.6340, 6877.000
537.8120, 6884.000
538.9910, 6766.000
540.1690, 6815.000
541.3460, 6813.000
542.5240, 6704.000
543.7020, 6873.000
544.8790, 6879.000
546.0560, 6855.000
547.2330, 6873.000
548.4100, 6862.000
549.5870, 6868.000
550.7630, 7043.000
551.9400, 6888.000
553.1160, 6957.000
554.2920, 6851.000
555.4680, 6986.000
556.6440, 6846.000
557.8190, 6935.000
558.9950, 6963.000
560.1700, 6972.000
561.3450, 6918.000
562.5200, 7012.000
563.6950, 6972.000
564.8690, 6889.000
566.0440, 6978.000
567.2180, 7000.000
568.3920, 7063.000
569.5660, 6987.000
570.7400, 7125.000
571.9130, 6952.000
573.0870, 7113.000
574.2600, 7113.000
575.4330, 7078.000
576.6060, 7144.000
577.7790, 7216.000
578.9520, 7154.000
580.1240, 7240.000
581.2960, 7219.000
582.4690, 7195.000
583.6410, 7263.000
584.8120, 7313.000
585.9840, 7397.000
587.1560, 7376.000
588.3270, 7429.000
589.4980, 7495.000
590.6690, 7551.000
591.8400, 7585.000
593.0110, 7586.000
594.1810, 7722.000
595.3510, 7765.000
596.5220, 7757.000
597.6920, 7822.000
598.8610, 7913.000
600.0310, 7915.000
601.2010, 7917.000
602.3700, 8167.000
603.5390, 7942.000
604.7080, 7986.000
605.8770, 8239.000
607.0460, 8149.000
608.2140, 8136.000
609.3830, 8125.000
610.5510, 8248.000
611.7190, 8354.000
612.8870, 8392.000
614.0550, 8540.000
615.2220, 8660.000
616.3900, 8870.000
617.5570, 9031.000
618.7240, 9173.000
619.8910, 9434.000
621.0580, 9733.000
622.2240, 10132.00
623.3910, 10505.00
624.5570, 11010.00
625.7230, 11482.00
626.8890, 11992.00
628.0550, 12741.00
629.2200, 13407.00
630.3860, 14438.00
631.5510, 15642.00
632.7160, 17185.00
633.8810, 19115.00
635.0460, 21733.00
636.2100, 25264.00
637.3750, 29617.00
638.5390, 34665.00
639.7030, 38953.00
640.8670, 42759.00
642.0310, 45566.00
643.1950, 47665.00
644.3580, 48972.00
645.5210, 48849.00
646.6850, 46739.00
647.8480, 42435.00
649.0100, 37070.00
650.1730, 31207.00
651.3350, 26160.00
652.4980, 21958.00
653.6600, 18687.00
654.8220, 16411.00
655.9840, 14493.00
657.1450, 13127.00
658.3070, 11946.00
659.4680, 11438.00
660.6300, 10744.00
661.7910, 10156.00
662.9510, 9696.000
664.1120, 9331.000
665.2730, 9180.000
666.4330, 8759.000
667.5930, 8712.000
668.7530, 8409.000
669.9130, 8327.000
671.0730, 8250.000
672.2320, 8071.000
673.3920, 7975.000
674.5510, 7990.000
675.7100, 7811.000
676.8690, 7888.000
678.0280, 7764.000
679.1860, 7749.000
680.3450, 7734.000
681.5030, 7604.000
682.6610, 7579.000
683.8190, 7553.000
684.9770, 7537.000
686.1340, 7445.000
687.2920, 7398.000
688.4490, 7394.282
689.6060, 7280.000
690.7630, 7369.000
691.9200, 7315.000
693.0760, 7249.000
694.2330, 7379.000
695.3890, 7360.000
696.5450, 7158.000
697.7010, 7210.000
698.8570, 7257.000
700.0130, 7277.000
701.1680, 7330.000
702.3230, 7291.000
703.4780, 7259.000
704.6330, 7276.000
705.7880, 7356.000
706.9430, 7190.000
708.0970, 7272.000
709.2520, 7336.000
710.4060, 7298.000
711.5600, 7397.000
712.7140, 7378.000
713.8670, 7280.000
715.0210, 7264.000
716.1740, 7267.000
717.3270, 7319.000
718.4800, 7257.000
719.6330, 7291.697
720.7860, 7295.000
721.9380, 7291.000
723.0910, 7290.000
724.2430, 7259.000
725.3950, 7317.000
726.5470, 7379.000
727.6980, 7445.000
728.8500, 7358.000
730.0010, 7406.354
731.1530, 7330.000
732.3040, 7407.000
733.4550, 7363.000
734.6050, 7401.000
735.7560, 7431.000
736.9060, 7455.000
738.0560, 7463.101
739.2060, 7400.000
740.3560, 7457.000
741.5060, 7434.000
742.6560, 7414.000
743.8050, 7541.000
744.9540, 7413.000
746.1030, 7356.000
747.2520, 7444.000
748.4010, 7438.000
749.5500, 7424.000
750.6980, 7521.000
751.8460, 7422.000
752.9950, 7484.000
754.1420, 7493.000
755.2900, 7451.000
756.4380, 7601.000
757.5850, 7517.000
758.7330, 7509.000
759.8800, 7575.000
761.0270, 7623.000
762.1730, 7502.000
763.3200, 7520.000
764.4670, 7542.000
765.6130, 7535.000
766.7590, 7601.000
767.9050, 7607.000
769.0510, 7563.000
770.1960, 7573.000
771.3420, 7715.000
772.4870, 7666.000
773.6320, 7591.000
774.7770, 7736.000
775.9220, 7609.000
777.0670, 7765.000
778.2110, 7808.000
779.3560, 7827.000
780.5000, 7895.000
781.6440, 7899.000
782.7880, 7956.000
783.9320, 7995.844
785.0750, 8035.384
786.2180, 8081.000
787.3620, 8133.000
788.5050, 8176.000
789.6480, 8225.000
790.7900, 8282.663
791.9330, 8435.000
793.0750, 8419.000
794.2170, 8507.000
795.3590, 8618.000
796.5010, 8638.000
797.6430, 8748.000
798.7850, 8755.000
799.9260, 8885.000
801.0670, 8919.567
802.2080, 8974.694
803.3490, 9002.000
804.4900, 9065.000
805.6310, 9073.000
806.7710, 9088.000
807.9110, 9078.000
809.0510, 9118.000
810.1910, 9065.000
811.3310, 9077.000
812.4710, 9075.000
813.6100, 9022.000
814.7490, 9050.000
815.8880, 9043.000
817.0270, 8949.000
818.1660, 8862.000
819.3050, 8889.000
820.4430, 8887.000
821.5820, 8866.000
822.7200, 8811.945
823.8580, 8688.000
824.9950, 8657.000
826.1330, 8604.000
827.2710, 8528.000
828.4080, 8288.000
829.5450, 8479.000
830.6820, 8357.000
831.8190, 8497.000
832.9560, 8499.000
834.0920, 8298.000
835.2280, 8315.000
836.3650, 8282.000
837.5010, 8154.000
838.6360, 8286.000
839.7720, 8323.000
840.9080, 8109.000
842.0430, 8222.000
843.1780, 8150.000
844.3130, 8223.000
845.4480, 8253.000
846.5830, 8202.000
847.7170, 8116.000
848.8520, 8151.000
849.9860, 8257.000
851.1200, 8231.000
852.2540, 8325.000
853.3870, 8246.000
854.5210, 8277.000
855.6540, 8201.000
856.7880, 8144.000
857.9210, 8331.000
859.0540, 8276.000
860.1860, 8281.000
861.3190, 8342.000
862.4510, 8338.000
863.5840, 8303.000
864.7160, 8318.534
865.8480, 8276.000
866.9790, 8295.000
868.1110, 8308.000
869.2420, 8313.000
870.3740, 8310.000
871.5050, 8386.000
872.6360, 8299.000
873.7660, 8332.000
874.8970, 8378.000
876.0280, 8273.000
877.1580, 8273.000
878.2880, 8383.000
879.4180, 8382.000
880.5480, 8337.000
881.6770, 8490.000
882.8070, 8423.000
883.9360, 8386.000
885.0650, 8456.000
886.1940, 8478.000
887.3230, 8371.000
888.4520, 8537.000
889.5800, 8383.000
890.7090, 8371.000
891.8370, 8512.000
892.9650, 8447.000
894.0930, 8465.000
895.2200, 8462.000
896.3480, 8522.000
897.4750, 8548.000
898.6020, 8531.000
899.7290, 8470.000
900.8560, 8653.000
901.9830, 8508.000
903.1090, 8592.000
904.2360, 8544.000
905.3620, 8615.000
906.4880, 8599.000
907.6140, 8652.000
908.7400, 8587.000
909.8650, 8631.000
910.9900, 8616.000
912.1160, 8782.000
913.2410, 8569.000
914.3660, 8675.000
915.4900, 8793.000
916.6150, 8707.000
917.7390, 8672.000
918.8640, 8767.000
919.9880, 8769.000
921.1120, 8720.000
922.2350, 8881.000
923.3590, 8741.000
924.4820, 8942.000
925.6060, 8811.000
926.7290, 8960.000
927.8520, 8954.000
928.9740, 8936.000
930.0970, 9003.000
931.2190, 8960.150
932.3420, 9023.000
933.4640, 8916.000
934.5860, 8995.000
935.7080, 8966.000
936.8290, 9038.000
937.9510, 9125.000
939.0720, 9081.000
940.1930, 9137.000
941.3140, 9193.000
942.4350, 9312.000
943.5560, 9326.035
944.6760, 9306.000
945.7960, 9371.000
946.9170, 9361.000
948.0370, 9339.000
949.1560, 9389.000
950.2760, 9429.000
951.3960, 9507.000
952.5150, 9558.000
953.6340, 9620.501
954.7530, 9683.000
955.8720, 9713.000
956.9910, 9805.000
958.1090, 9781.000
959.2280, 9928.000
960.3460, 9839.000
961.4640, 9880.000
962.5820, 10000.00
963.6990, 10076.00
964.8170, 10155.00
965.9340, 10249.00
967.0510, 10388.00
968.1690, 10469.00
969.2850, 10602.45
970.4020, 10667.00
971.5190, 10854.00
972.6350, 10962.00
973.7510, 11084.00
974.8670, 11326.00
975.9830, 11364.00
977.0990, 11558.00
978.2150, 11827.00
979.3300, 12115.00
980.4450, 12412.00
981.5600, 12741.00
982.6750, 13112.00
983.7900, 13680.00
984.9050, 14115.00
986.0190, 14680.00
987.1340, 15386.00
988.2480, 16303.89
989.3620, 17308.00
990.4750, 18621.00
991.5890, 20048.00
992.7020, 21668.00
993.8160, 23676.00
994.9290, 25679.24
996.0420, 27660.00
997.1550, 30366.00
998.2670, 33018.00
999.3800, 35753.00
1000.492, 38918.00
1001.604, 42291.00
1002.716, 45681.00
1003.828, 49147.00
1004.940, 51849.00
1006.051, 54712.00
1007.163, 56865.00
1008.274, 58034.00
1009.385, 58176.00
1010.496, 57678.00
1011.606, 56165.00
1012.717, 53878.00
1013.827, 51149.00
1014.937, 47924.00
1016.047, 44311.00
1017.157, 40679.00
1018.267, 37360.00
1019.377, 34416.00
1020.486, 31567.00
1021.595, 29341.00
1022.704, 27082.00
1023.813, 25288.00
1024.922, 23870.00
1026.030, 22668.00
1027.139, 21876.00
1028.247, 21247.00
1029.355, 21188.00
1030.463, 20882.00
1031.571, 21115.00
1032.678, 21121.00
1033.786, 21446.00
1034.893, 22084.00
1036.000, 22769.00
1037.107, 23512.00
1038.214, 24166.00
1039.321, 24631.00
1040.427, 25711.00
1041.533, 26115.00
1042.639, 26605.00
1043.745, 26777.00
1044.851, 27556.00
1045.957, 27869.00
1047.062, 27952.00
1048.168, 28387.00
1049.273, 28552.00
1050.378, 28529.00
1051.482, 29049.00
1052.587, 29450.00
1053.692, 30281.00
1054.796, 31230.00
1055.900, 32057.00
1057.004, 33285.00
1058.108, 34551.00
1059.212, 34803.00
1060.315, 35323.00
1061.418, 34637.00
1062.522, 33677.00
1063.625, 32282.00
1064.728, 30300.00
1065.830, 27988.00
1066.933, 25539.00
1068.035, 23083.00
1069.137, 21022.00
1070.239, 19454.00
1071.341, 18020.00
1072.443, 16659.00
1073.545, 15869.00
1074.646, 15147.00
1075.747, 14515.00
1076.848, 13898.00
1077.949, 13559.00
1079.050, 13195.00
1080.150, 12847.00
1081.251, 12427.00
1082.351, 12220.00
1083.451, 12077.00
1084.551, 11714.00
1085.651, 11704.00
1086.750, 11417.00
1087.850, 11221.00
1088.949, 11085.00
1090.048, 10988.00
1091.147, 10936.00
1092.246, 10908.00
1093.345, 10757.00
1094.443, 10537.00
1095.541, 10530.00
1096.639, 10451.00
1097.737, 10503.00
1098.835, 10439.00
1099.933, 10345.00
1101.030, 10167.00
1102.128, 10215.00
1103.225, 10157.00
1104.322, 10082.00
1105.419, 10114.00
1106.515, 10147.00
1107.612, 10059.00
1108.708, 10165.00
1109.804, 10006.00
1110.900, 10003.00
1111.996, 10056.00
1113.092, 10079.00
1114.187, 9952.000
1115.283, 10087.00
1116.378, 9913.000
1117.473, 9905.000
1118.568, 10004.00
1119.662, 9969.000
1120.757, 9970.000
1121.851, 10052.00
1122.946, 9951.000
1124.040, 9951.000
1125.134, 9916.000
1126.227, 9797.000
1127.321, 9759.000
1128.414, 9782.000
1129.508, 9726.979
1130.601, 9751.000
1131.693, 9720.000
1132.786, 9640.000
1133.879, 9648.000
1134.971, 9607.000
1136.064, 9635.000
1137.156, 9617.000
1138.248, 9530.000
1139.339, 9627.000
1140.431, 9619.000
1141.522, 9516.000
1142.614, 9603.000
1143.705, 9580.000
1144.796, 9524.000
1145.887, 9477.000
1146.977, 9604.000
1148.068, 9633.000
1149.158, 9627.000
1150.248, 9637.000
1151.338, 9639.000
1152.428, 9622.000
1153.518, 9588.000
1154.607, 9633.000
1155.696, 9553.000
1156.785, 9570.000
1157.874, 9585.000
1158.963, 9678.000
1160.052, 9689.000
1161.141, 9613.000
1162.229, 9600.000
1163.317, 9611.042
1164.405, 9578.771
1165.493, 9634.000
1166.581, 9597.000
1167.668, 9583.000
1168.756, 9651.000
1169.843, 9713.000
1170.930, 9623.000
1172.017, 9774.000
1173.103, 9726.000
1174.190, 9675.000
1175.276, 9730.000
1176.363, 9770.000
1177.449, 9617.000
1178.535, 9715.000
1179.620, 9796.000
1180.706, 9912.000
1181.791, 9815.000
1182.877, 9974.000
1183.962, 9892.000
1185.047, 10030.00
1186.131, 9863.000
1187.216, 9997.000
1188.300, 10024.00
1189.385, 9996.000
1190.469, 10012.00
1191.553, 10114.00
1192.637, 10109.00
1193.720, 10090.00
1194.804, 10105.00
1195.887, 10052.00
1196.970, 10115.00
1198.053, 10062.00
1199.136, 10092.00
1200.219, 10242.00
1201.301, 10190.00
1202.383, 10186.00
1203.465, 10130.00
1204.547, 10037.00
1205.629, 10157.00
1206.711, 10094.00
1207.792, 10124.00
1208.874, 10231.00
1209.955, 10125.00
1211.036, 10051.00
1212.117, 10046.00
1213.198, 10080.00
1214.278, 9994.000
1215.359, 10091.00
1216.439, 9995.000
1217.519, 9998.000
1218.599, 9969.000
1219.678, 9897.000
1220.758, 9788.000
1221.837, 9832.000
1222.917, 9886.000
1223.996, 9814.000
1225.075, 9908.000
1226.153, 9763.000
1227.232, 9769.000
1228.310, 9842.000
1229.389, 9862.000
1230.467, 9709.000
1231.545, 9840.000
1232.622, 9784.000
1233.700, 9746.000
1234.777, 9771.000
1235.855, 9710.000
1236.932, 9673.000
1238.009, 9736.000
1239.086, 9855.000
1240.162, 9753.000
1241.239, 9843.000
1242.315, 9798.000
1243.391, 9841.000
1244.467, 9806.000
1245.543, 9730.000
1246.619, 9753.000
1247.694, 9863.000
1248.769, 9754.000
1249.844, 9847.000
1250.919, 9866.000
1251.994, 9807.000
1253.069, 9819.000
1254.144, 9716.000
1255.218, 9953.000
1256.292, 9742.000
1257.366, 9850.000
1258.440, 9742.000
1259.514, 9816.000
1260.587, 9778.000
1261.661, 9769.000
1262.734, 9851.000
1263.807, 9733.000
1264.880, 9928.000
1265.952, 9793.000
1267.025, 9850.000
1268.097, 9792.000
1269.170, 9810.000
1270.242, 9907.000
1271.314, 9894.000
1272.385, 9781.000
1273.457, 9790.000
1274.528, 9834.000
1275.600, 9776.838
1276.671, 9857.000
1277.742, 9786.000
1278.812, 9807.000
1279.883, 9885.000
1280.954, 9958.000
1282.024, 9870.000
1283.094, 9782.000
1284.164, 9946.000
1285.234, 9908.000
1286.303, 9945.000
1287.373, 10137.00
1288.442, 10068.00
1289.511, 10081.00
1290.580, 9851.000
1291.649, 9885.000
1292.718, 9824.000
1293.786, 9813.078
1294.855, 9950.000
1295.923, 9861.000
1296.991, 9964.000
1298.059, 9941.000
1299.126, 10031.00
1300.194, 9909.000
1301.261, 9983.000
1302.328, 9978.000
1303.395, 9957.000
1304.462, 9926.000
1305.529, 9890.000
1306.596, 9851.000
1307.662, 9868.825
1308.728, 9921.000
1309.794, 9899.000
1310.860, 10015.00
1311.926, 10009.00
1312.991, 9961.000
1314.057, 9864.000
1315.122, 10006.00
1316.187, 9974.000
1317.252, 9975.000
1318.317, 10097.00
1319.381, 9931.000
1320.446, 9919.000
1321.510, 10021.00
1322.574, 10026.00
1323.638, 10142.00
1324.702, 10061.00
1325.766, 10009.00
1326.829, 10114.00
1327.892, 10002.00
1328.956, 9992.000
1330.019, 10045.00
1331.081, 10057.00
1332.144, 10067.05
1333.206, 10043.00
1334.269, 10079.00
1335.331, 10056.00
1336.393, 10040.00
1337.455, 9974.000
1338.516, 9988.000
1339.578, 10086.00
1340.639, 10044.00
1341.701, 9976.000
1342.762, 10102.00
1343.822, 10089.00
1344.883, 10088.96
1345.944, 10050.00
1347.004, 10063.00
1348.064, 10093.00
1349.124, 10039.00
1350.184, 10057.00
1351.244, 10064.00
1352.304, 10102.00
1353.363, 10022.00
1354.422, 10084.00
1355.481, 10030.00
1356.540, 10060.00
1357.599, 10066.00
1358.657, 10031.00
1359.716, 10179.00
1360.774, 10047.00
1361.832, 10145.00
1362.890, 9999.000
1363.948, 10068.00
1365.006, 10070.00
1366.063, 10021.92
1367.120, 10098.00
1368.178, 10031.00
1369.234, 9972.000
1370.291, 10061.00
1371.348, 10042.00
1372.404, 10161.00
1373.461, 10099.00
1374.517, 10127.00
1375.573, 10089.00
1376.629, 10049.00
1377.684, 10089.00
1378.740, 10220.00
1379.795, 10084.00
1380.850, 10134.00
1381.905, 9932.000
1382.960, 10021.00
1384.015, 10029.00
1385.070, 10113.00
1386.124, 10089.00
1387.178, 10135.00
1388.232, 10200.00
1389.286, 10105.00
1390.340, 10011.00
1391.393, 10140.00
1392.447, 10061.00
1393.500, 10111.00
1394.553, 10100.00
1395.606, 10071.00
1396.659, 10172.00
1397.711, 10245.00
1398.764, 10096.00
1399.816, 10196.00
1400.868, 10171.00
1401.920, 10150.00
1402.972, 10056.00
1404.023, 10178.00
1405.075, 10238.00
1406.126, 10333.00
1407.177, 10143.00
1408.228, 10181.00
1409.279, 10234.00
1410.330, 9982.000
1411.380, 10125.00
1412.431, 10101.00
1413.481, 10118.00
1414.531, 10270.00
1415.580, 10190.00
1416.630, 10206.00
1417.680, 10150.00
1418.729, 10090.00
1419.778, 10103.00
1420.827, 10195.00
1421.876, 10136.00
1422.925, 10174.00
1423.973, 10347.00
1425.022, 10300.00
1426.070, 10297.00
1427.118, 10203.00
1428.166, 10193.00
1429.214, 10360.00
1430.261, 10337.00
1431.309, 10298.00
1432.356, 10208.00
1433.403, 10316.00
1434.450, 10255.00
1435.497, 10315.00
1436.543, 10327.00
1437.590, 10352.00
1438.636, 10364.00
1439.682, 10380.00
1440.728, 10306.00
1441.774, 10303.00
1442.819, 10299.74
1443.865, 10267.78
1444.910, 10341.00
1445.955, 10277.00
1447.000, 10372.00
1448.045, 10457.00
1449.090, 10442.00
1450.134, 10486.00
1451.178, 10317.00
1452.223, 10485.00
1453.267, 10408.00
1454.310, 10435.00
1455.354, 10447.00
1456.398, 10463.00
1457.441, 10495.00
1458.484, 10440.00
1459.527, 10435.00
1460.570, 10410.00
1461.613, 10521.00
1462.655, 10390.00
1463.698, 10502.00
1464.740, 10350.00
1465.782, 10450.00
1466.824, 10339.00
1467.866, 10393.00
1468.907, 10364.00
1469.948, 10580.00
1470.990, 10448.00
1472.031, 10477.00
1473.072, 10394.00
1474.112, 10387.00
1475.153, 10504.00
1476.194, 10370.00
1477.234, 10352.00
1478.274, 10368.00
1479.314, 10533.00
1480.354, 10476.00
1481.393, 10396.00
1482.433, 10491.00
1483.472, 10407.00
1484.511, 10376.00
1485.550, 10401.00
1486.589, 10568.00
1487.628, 10500.00
1488.666, 10548.00
1489.704, 10400.00
1490.743, 10434.00
1491.781, 10393.00
1492.819, 10533.00
1493.856, 10545.00
1494.894, 10463.00
1495.931, 10496.00
1496.968, 10560.00
1498.005, 10524.00
1499.042, 10449.00
1500.079, 10531.00
1501.115, 10504.00
1502.152, 10418.00
1503.188, 10657.00
1504.224, 10406.00
1505.260, 10482.00
1506.296, 10556.00
1507.331, 10481.00
1508.367, 10569.00
1509.402, 10563.00
1510.437, 10541.00
1511.472, 10578.00
1512.507, 10601.00
1513.541, 10490.00
1514.576, 10466.00
1515.610, 10528.00
1516.644, 10441.00
1517.678, 10531.00
1518.712, 10616.00
1519.746, 10545.00
1520.779, 10487.00
1521.813, 10473.00
1522.846, 10642.00
1523.879, 10631.00
1524.912, 10662.00
1525.944, 10621.00
1526.977, 10591.00
1528.009, 10494.00
1529.041, 10578.00
1530.073, 10515.00
1531.105, 10597.00
1532.137, 10488.00
1533.168, 10602.00
1534.200, 10603.00
1535.231, 10667.00
1536.262, 10594.00
1537.293, 10671.00
1538.324, 10583.00
1539.354, 10630.00
1540.385, 10593.00
1541.415, 10581.20
1542.445, 10571.00
1543.475, 10587.00
1544.505, 10663.00
1545.534, 10708.00
1546.564, 10762.00
1547.593, 10783.55
1548.622, 10604.00
1549.651, 10781.00
1550.680, 10749.00
1551.708, 10689.00
1552.737, 10807.00
1553.765, 10826.00
1554.793, 10746.00
1555.821, 10692.00
1556.849, 10608.00
1557.877, 10752.00
1558.904, 10717.00
1559.932, 10803.00
1560.959, 10856.00
1561.986, 10644.00
1563.013, 10619.00
1564.039, 10716.00
1565.066, 10719.00
1566.092, 10669.00
1567.119, 10734.00
1568.145, 10723.00
1569.170, 10623.00
1570.196, 10699.00
1571.222, 10678.00
1572.247, 10757.00
1573.272, 10881.00
1574.297, 10834.00
1575.322, 10762.00
1576.347, 10874.00
##END=



