##NAMES=Montebrasite
##RRUFFID=R060890
##IDEAL CHEMISTRY=LiAlPO_4_(OH)
##LOCALITY=Mount Marie, Paris, Maine, USA
##OWNER=RRUFF
##SOURCE=Bob Jenkins
##DESCRIPTION=Colorless massive
##STATUS=The identification of this mineral is confirmed by single-crystal X-ray diffraction and chemical analysis.
##URL=rruff.info/R060890
##MEASURED CHEMISTRY=Li_1.00_Al_1.00_(P_1.00_O_4_)(OH)_0.63_F_0.37_)_Î£=1_ ; Li not measured but estimated by stoichiometry
##PIN_ID=M01503
##ORIENTATION=Laser parallel to (-1 0 -1). Fiducial mark perpendicular to laser is parallel to b [0 1 0]
90.67800, 4590.000
91.91600, 4871.000
93.15500, 4913.000
94.39300, 4834.000
95.63100, 4831.000
96.86900, 4752.000
98.10600, 4778.000
99.34400, 4766.361
100.5810, 4768.195
101.8190, 4839.000
103.0560, 4913.638
104.2930, 5006.000
105.5290, 5169.000
106.7660, 5356.000
108.0020, 5549.000
109.2390, 5436.000
110.4750, 5311.000
111.7110, 5342.000
112.9460, 5300.000
114.1820, 5380.000
115.4170, 5419.017
116.6530, 5462.383
117.8880, 5576.000
119.1230, 5581.000
120.3580, 5690.000
121.5920, 5732.000
122.8270, 5991.000
124.0610, 5925.000
125.2950, 5984.000
126.5290, 5876.000
127.7630, 5987.000
128.9970, 6223.000
130.2300, 6186.000
131.4640, 6229.000
132.6970, 6077.000
133.9300, 5994.000
135.1630, 5836.000
136.3950, 5694.000
137.6280, 5793.000
138.8600, 5693.000
140.0920, 5677.000
141.3240, 5547.000
142.5560, 5514.000
143.7880, 5529.000
145.0190, 5532.000
146.2510, 5530.000
147.4820, 5584.000
148.7130, 5583.000
149.9440, 5629.000
151.1750, 5634.000
152.4050, 5675.210
153.6360, 5794.000
154.8660, 5762.000
156.0960, 5919.000
157.3260, 5982.000
158.5560, 6041.000
159.7850, 6103.000
161.0150, 6028.000
162.2440, 6068.000
163.4730, 6084.000
164.7020, 6120.000
165.9310, 6046.000
167.1590, 5935.000
168.3880, 5957.000
169.6160, 5764.000
170.8440, 5785.000
172.0720, 5746.000
173.3000, 5540.000
174.5280, 5521.000
175.7550, 5514.000
176.9820, 5513.000
178.2100, 5450.000
179.4370, 5494.000
180.6630, 5442.000
181.8900, 5405.000
183.1170, 5447.000
184.3430, 5479.000
185.5690, 5378.000
186.7950, 5571.000
188.0210, 5536.000
189.2470, 5487.000
190.4720, 5614.000
191.6970, 5586.000
192.9230, 5609.000
194.1480, 5649.000
195.3730, 5622.000
196.5970, 5652.000
197.8220, 5761.000
199.0460, 5777.000
200.2700, 5890.000
201.4940, 5947.000
202.7180, 5769.000
203.9420, 5727.000
205.1660, 5726.000
206.3890, 5616.000
207.6120, 5704.000
208.8350, 5836.000
210.0580, 5771.000
211.2810, 5846.000
212.5040, 5856.000
213.7260, 5786.000
214.9480, 5841.000
216.1700, 5874.000
217.3920, 5772.000
218.6140, 5965.000
219.8360, 5960.000
221.0570, 5987.000
222.2790, 5989.000
223.5000, 5987.000
224.7210, 6014.000
225.9410, 6015.000
227.1620, 6064.000
228.3820, 5950.000
229.6030, 5824.000
230.8230, 5929.000
232.0430, 5940.000
233.2630, 5965.000
234.4820, 5909.000
235.7020, 5937.000
236.9210, 5809.000
238.1400, 5781.000
239.3590, 5819.000
240.5780, 5824.000
241.7970, 5800.000
243.0150, 5825.000
244.2340, 5751.000
245.4520, 5781.000
246.6700, 5804.000
247.8880, 5769.000
249.1060, 5862.000
250.3230, 5901.000
251.5400, 5905.000
252.7580, 5982.000
253.9750, 6045.000
255.1920, 6096.000
256.4080, 6231.000
257.6250, 6316.000
258.8410, 6480.000
260.0580, 6671.000
261.2740, 6869.000
262.4900, 7112.937
263.7050, 7328.000
264.9210, 7631.000
266.1360, 7913.000
267.3520, 8160.000
268.5670, 8562.000
269.7820, 8697.000
270.9960, 9031.000
272.2110, 9088.000
273.4250, 9140.000
274.6400, 9303.000
275.8540, 9047.000
277.0680, 8956.000
278.2810, 8823.000
279.4950, 8550.000
280.7090, 8489.000
281.9220, 8423.000
283.1350, 8348.000
284.3480, 8417.000
285.5610, 8547.000
286.7730, 8825.000
287.9860, 9191.000
289.1980, 9728.000
290.4100, 10473.00
291.6220, 11267.00
292.8340, 12387.00
294.0460, 13644.00
295.2570, 14983.00
296.4690, 16515.00
297.6800, 18318.00
298.8910, 20002.00
300.1020, 21598.00
301.3120, 22481.00
302.5230, 22419.00
303.7330, 21188.00
304.9440, 19243.00
306.1540, 17129.00
307.3630, 15317.00
308.5730, 13718.00
309.7830, 12402.00
310.9920, 11456.00
312.2010, 10745.00
313.4100, 10115.00
314.6190, 9770.000
315.8280, 9337.000
317.0370, 8986.000
318.2450, 8616.000
319.4530, 8329.000
320.6610, 8009.049
321.8690, 7689.000
323.0770, 7467.000
324.2850, 7285.000
325.4920, 7101.000
326.6990, 6894.000
327.9060, 6811.000
329.1130, 6745.000
330.3200, 6565.000
331.5270, 6551.000
332.7330, 6467.071
333.9390, 6537.000
335.1450, 6378.000
336.3510, 6380.000
337.5570, 6356.000
338.7630, 6349.000
339.9680, 6368.000
341.1740, 6333.954
342.3790, 6316.812
343.5840, 6279.000
344.7890, 6247.000
345.9930, 6196.000
347.1980, 6150.000
348.4020, 6061.000
349.6060, 6125.000
350.8100, 6068.000
352.0140, 6084.000
353.2180, 6129.000
354.4210, 6044.000
355.6250, 6202.000
356.8280, 6006.000
358.0310, 6076.000
359.2340, 6164.000
360.4360, 6150.000
361.6390, 6094.000
362.8410, 6124.000
364.0430, 6105.000
365.2450, 6126.000
366.4470, 6108.000
367.6490, 6100.000
368.8510, 6136.000
370.0520, 6204.000
371.2530, 6163.000
372.4540, 6223.000
373.6550, 6208.000
374.8560, 6304.000
376.0560, 6335.000
377.2570, 6282.000
378.4570, 6342.000
379.6570, 6341.000
380.8570, 6310.000
382.0570, 6431.000
383.2560, 6338.000
384.4560, 6437.000
385.6550, 6367.000
386.8540, 6428.000
388.0530, 6571.000
389.2520, 6542.000
390.4510, 6467.000
391.6490, 6438.000
392.8470, 6610.000
394.0450, 6724.000
395.2430, 6653.000
396.4410, 6635.000
397.6390, 6643.000
398.8360, 6659.123
400.0340, 6697.000
401.2310, 6765.000
402.4280, 6810.000
403.6250, 6885.000
404.8210, 6784.000
406.0180, 6793.000
407.2140, 7157.000
408.4100, 6988.432
409.6060, 7093.170
410.8020, 7032.000
411.9980, 7144.000
413.1930, 7369.000
414.3890, 7552.000
415.5840, 7994.000
416.7790, 8365.000
417.9740, 8882.000
419.1680, 9475.000
420.3630, 10059.00
421.5570, 10594.00
422.7510, 11455.00
423.9450, 12260.00
425.1390, 12927.00
426.3330, 13067.00
427.5270, 12240.00
428.7200, 11330.00
429.9130, 10080.00
431.1060, 9083.000
432.2990, 8526.000
433.4920, 7963.000
434.6840, 7667.000
435.8770, 7638.000
437.0690, 7325.000
438.2610, 7303.000
439.4530, 7242.000
440.6450, 7121.000
441.8360, 7136.000
443.0280, 7116.000
444.2190, 7149.000
445.4100, 7155.000
446.6010, 7155.932
447.7920, 7181.000
448.9820, 7191.000
450.1730, 7194.000
451.3630, 7267.000
452.5530, 7392.000
453.7430, 7446.000
454.9330, 7377.000
456.1230, 7624.000
457.3120, 7589.000
458.5010, 7635.000
459.6910, 7857.000
460.8800, 7942.000
462.0680, 8188.000
463.2570, 8232.000
464.4460, 8456.000
465.6340, 8883.000
466.8220, 9157.000
468.0100, 9547.000
469.1980, 9873.000
470.3860, 10418.00
471.5730, 10858.00
472.7600, 11502.00
473.9480, 12169.00
475.1350, 12782.00
476.3210, 13711.00
477.5080, 14337.00
478.6950, 15064.00
479.8810, 15358.00
481.0670, 15936.00
482.2530, 16037.00
483.4390, 16272.00
484.6250, 16305.00
485.8100, 16036.00
486.9960, 15669.00
488.1810, 15380.00
489.3660, 15103.00
490.5510, 14653.00
491.7360, 14357.00
492.9200, 13833.00
494.1050, 13569.00
495.2890, 13045.00
496.4730, 12621.00
497.6570, 12330.00
498.8400, 11647.00
500.0240, 11370.00
501.2070, 10826.00
502.3910, 10404.00
503.5740, 10015.00
504.7570, 9721.000
505.9400, 9369.731
507.1220, 9045.000
508.3050, 8763.000
509.4870, 8514.642
510.6690, 8305.000
511.8510, 8094.000
513.0330, 7980.000
514.2140, 7794.000
515.3960, 7620.000
516.5770, 7567.000
517.7580, 7485.000
518.9390, 7375.000
520.1200, 7336.193
521.3010, 7220.000
522.4810, 7239.000
523.6610, 7164.000
524.8420, 7134.000
526.0220, 7147.000
527.2010, 7132.000
528.3810, 7084.481
529.5610, 7017.000
530.7400, 7015.000
531.9190, 7014.000
533.0980, 7054.000
534.2770, 7008.000
535.4560, 7006.000
536.6340, 6952.000
537.8120, 6955.000
538.9910, 6912.000
540.1690, 6902.002
541.3460, 7020.000
542.5240, 6938.000
543.7020, 6994.000
544.8790, 7136.000
546.0560, 7092.000
547.2330, 7002.000
548.4100, 7037.000
549.5870, 7023.000
550.7630, 7043.000
551.9400, 7019.000
553.1160, 7123.000
554.2920, 7153.000
555.4680, 6984.000
556.6440, 7138.000
557.8190, 7042.000
558.9950, 7079.000
560.1700, 7208.000
561.3450, 7083.000
562.5200, 7146.000
563.6950, 7169.000
564.8690, 7121.000
566.0440, 7161.000
567.2180, 7245.000
568.3920, 7289.000
569.5660, 7338.000
570.7400, 7355.000
571.9130, 7219.000
573.0870, 7276.000
574.2600, 7350.000
575.4330, 7285.000
576.6060, 7353.000
577.7790, 7378.000
578.9520, 7303.000
580.1240, 7374.000
581.2960, 7429.000
582.4690, 7425.000
583.6410, 7505.000
584.8120, 7466.000
585.9840, 7488.000
587.1560, 7608.000
588.3270, 7560.000
589.4980, 7603.000
590.6690, 7581.000
591.8400, 7721.000
593.0110, 7766.000
594.1810, 7798.000
595.3510, 7829.000
596.5220, 7905.000
597.6920, 7873.000
598.8610, 8093.000
600.0310, 8234.000
601.2010, 8293.000
602.3700, 8303.000
603.5390, 8346.000
604.7080, 8432.000
605.8770, 8411.000
607.0460, 8308.000
608.2140, 8484.000
609.3830, 8492.000
610.5510, 8445.000
611.7190, 8550.000
612.8870, 8575.000
614.0550, 8632.000
615.2220, 8855.000
616.3900, 8973.000
617.5570, 9113.000
618.7240, 9311.000
619.8910, 9605.000
621.0580, 9658.000
622.2240, 10024.00
623.3910, 10242.00
624.5570, 10731.00
625.7230, 11160.00
626.8890, 11614.00
628.0550, 12191.00
629.2200, 12941.00
630.3860, 13856.00
631.5510, 14730.00
632.7160, 15857.00
633.8810, 17308.00
635.0460, 19208.00
636.2100, 21634.00
637.3750, 24658.00
638.5390, 29104.00
639.7030, 33692.00
640.8670, 39447.00
642.0310, 45340.00
643.1950, 52060.00
644.3580, 57860.00
645.5210, 61431.00
646.6850, 61455.00
647.8480, 56439.00
649.0100, 48759.00
650.1730, 40054.00
651.3350, 32826.00
652.4980, 26937.00
653.6600, 22380.00
654.8220, 19251.00
655.9840, 16693.00
657.1450, 15050.00
658.3070, 13704.00
659.4680, 12730.00
660.6300, 11984.00
661.7910, 11300.00
662.9510, 10788.00
664.1120, 10426.00
665.2730, 9943.000
666.4330, 9762.000
667.5930, 9408.000
668.7530, 9245.000
669.9130, 9048.000
671.0730, 9013.000
672.2320, 8799.000
673.3920, 8729.000
674.5510, 8629.000
675.7100, 8499.000
676.8690, 8432.000
678.0280, 8295.000
679.1860, 8378.000
680.3450, 8392.000
681.5030, 8308.000
682.6610, 8176.000
683.8190, 8110.000
684.9770, 8117.000
686.1340, 8116.000
687.2920, 8065.000
688.4490, 8063.000
689.6060, 8105.000
690.7630, 8063.000
691.9200, 7997.000
693.0760, 8011.000
694.2330, 7949.000
695.3890, 7894.000
696.5450, 7912.000
697.7010, 7844.000
698.8570, 8034.000
700.0130, 7943.000
701.1680, 7747.000
702.3230, 7922.000
703.4780, 7986.000
704.6330, 7936.000
705.7880, 7920.000
706.9430, 7907.000
708.0970, 7932.000
709.2520, 7944.000
710.4060, 7874.000
711.5600, 7975.000
712.7140, 7969.000
713.8670, 7858.000
715.0210, 7904.000
716.1740, 7959.000
717.3270, 8026.000
718.4800, 7899.000
719.6330, 7987.000
720.7860, 7970.000
721.9380, 8006.000
723.0910, 8134.000
724.2430, 7997.000
725.3950, 8006.000
726.5470, 8003.000
727.6980, 8076.000
728.8500, 8070.000
730.0010, 8062.000
731.1530, 8009.000
732.3040, 8071.000
733.4550, 8075.000
734.6050, 7971.000
735.7560, 8133.000
736.9060, 8133.000
738.0560, 8097.000
739.2060, 8073.000
740.3560, 8158.000
741.5060, 8083.000
742.6560, 8048.000
743.8050, 8131.000
744.9540, 8152.000
746.1030, 8101.000
747.2520, 8127.000
748.4010, 8256.000
749.5500, 8215.000
750.6980, 8268.000
751.8460, 8268.000
752.9950, 8192.000
754.1420, 8234.000
755.2900, 8153.000
756.4380, 8222.000
757.5850, 8325.000
758.7330, 8331.000
759.8800, 8324.000
761.0270, 8292.000
762.1730, 8255.000
763.3200, 8380.000
764.4670, 8317.000
765.6130, 8279.000
766.7590, 8373.000
767.9050, 8254.000
769.0510, 8302.000
770.1960, 8425.000
771.3420, 8333.000
772.4870, 8411.000
773.6320, 8406.000
774.7770, 8414.000
775.9220, 8389.000
777.0670, 8444.000
778.2110, 8536.000
779.3560, 8325.000
780.5000, 8486.000
781.6440, 8426.000
782.7880, 8535.000
783.9320, 8582.000
785.0750, 8550.000
786.2180, 8722.000
787.3620, 8651.000
788.5050, 8685.000
789.6480, 8633.000
790.7900, 8742.000
791.9330, 8800.000
793.0750, 8817.000
794.2170, 8849.000
795.3590, 8823.000
796.5010, 8755.000
797.6430, 8899.000
798.7850, 9022.000
799.9260, 8974.000
801.0670, 9091.000
802.2080, 9029.000
803.3490, 9196.000
804.4900, 9265.000
805.6310, 9130.000
806.7710, 9097.000
807.9110, 9355.000
809.0510, 9128.000
810.1910, 9260.000
811.3310, 9211.000
812.4710, 9092.000
813.6100, 9252.000
814.7490, 9302.000
815.8880, 9198.000
817.0270, 9160.000
818.1660, 9205.000
819.3050, 9146.000
820.4430, 9134.000
821.5820, 9158.000
822.7200, 9075.000
823.8580, 9170.000
824.9950, 9150.000
826.1330, 9216.000
827.2710, 9012.000
828.4080, 9145.000
829.5450, 9214.000
830.6820, 9139.983
831.8190, 8868.000
832.9560, 9142.000
834.0920, 8907.000
835.2280, 8943.000
836.3650, 9070.000
837.5010, 9048.000
838.6360, 8989.000
839.7720, 9076.000
840.9080, 9099.000
842.0430, 9067.000
843.1780, 9017.000
844.3130, 9033.898
845.4480, 9008.775
846.5830, 9021.000
847.7170, 9030.000
848.8520, 9005.000
849.9860, 9073.000
851.1200, 9084.000
852.2540, 9089.000
853.3870, 9141.833
854.5210, 9145.000
855.6540, 9201.000
856.7880, 9200.000
857.9210, 9195.000
859.0540, 9119.000
860.1860, 9075.000
861.3190, 9281.000
862.4510, 9170.000
863.5840, 9309.000
864.7160, 9177.000
865.8480, 9330.000
866.9790, 9274.000
868.1110, 9346.000
869.2420, 9256.000
870.3740, 9388.000
871.5050, 9276.000
872.6360, 9272.000
873.7660, 9410.000
874.8970, 9343.000
876.0280, 9368.000
877.1580, 9376.000
878.2880, 9387.179
879.4180, 9370.000
880.5480, 9428.000
881.6770, 9497.000
882.8070, 9463.000
883.9360, 9412.000
885.0650, 9426.000
886.1940, 9514.000
887.3230, 9485.000
888.4520, 9500.000
889.5800, 9468.000
890.7090, 9417.000
891.8370, 9442.199
892.9650, 9458.562
894.0930, 9490.000
895.2200, 9541.000
896.3480, 9629.000
897.4750, 9650.000
898.6020, 9607.000
899.7290, 9511.000
900.8560, 9558.000
901.9830, 9650.000
903.1090, 9606.000
904.2360, 9715.896
905.3620, 9608.000
906.4880, 9806.000
907.6140, 9789.000
908.7400, 9690.000
909.8650, 9721.000
910.9900, 9778.000
912.1160, 9713.000
913.2410, 9850.000
914.3660, 9804.000
915.4900, 9863.000
916.6150, 9783.000
917.7390, 9766.000
918.8640, 9823.000
919.9880, 9824.462
921.1120, 9866.041
922.2350, 9923.000
923.3590, 9966.000
924.4820, 10002.00
925.6060, 10078.00
926.7290, 10043.00
927.8520, 10068.00
928.9740, 10045.00
930.0970, 9963.000
931.2190, 10093.00
932.3420, 10202.00
933.4640, 10079.00
934.5860, 9979.000
935.7080, 10151.00
936.8290, 10152.00
937.9510, 10103.00
939.0720, 10180.00
940.1930, 10336.00
941.3140, 10294.00
942.4350, 10367.97
943.5560, 10385.33
944.6760, 10388.00
945.7960, 10398.00
946.9170, 10379.00
948.0370, 10403.00
949.1560, 10428.03
950.2760, 10427.00
951.3960, 10497.00
952.5150, 10506.00
953.6340, 10528.00
954.7530, 10549.00
955.8720, 10490.00
956.9910, 10564.09
958.1090, 10583.76
959.2280, 10693.00
960.3460, 10737.00
961.4640, 10859.00
962.5820, 10917.66
963.6990, 11016.00
964.8170, 11033.00
965.9340, 11160.00
967.0510, 11180.00
968.1690, 11141.00
969.2850, 11234.73
970.4020, 11269.00
971.5190, 11325.00
972.6350, 11415.00
973.7510, 11462.00
974.8670, 11577.00
975.9830, 11794.00
977.0990, 11962.00
978.2150, 12214.00
979.3300, 12277.00
980.4450, 12322.00
981.5600, 12673.00
982.6750, 12832.00
983.7900, 13038.00
984.9050, 13495.00
986.0190, 13723.00
987.1340, 14091.00
988.2480, 14591.00
989.3620, 15210.00
990.4750, 15839.63
991.5890, 16498.00
992.7020, 17428.00
993.8160, 18463.00
994.9290, 19540.00
996.0420, 21049.00
997.1550, 21984.00
998.2670, 23568.00
999.3800, 25160.00
1000.492, 27222.00
1001.604, 29002.00
1002.716, 31188.00
1003.828, 33143.00
1004.940, 35651.00
1006.051, 37596.00
1007.163, 39464.00
1008.274, 41506.00
1009.385, 42127.00
1010.496, 42471.00
1011.606, 42069.00
1012.717, 40808.00
1013.827, 39381.00
1014.937, 37438.00
1016.047, 35345.00
1017.157, 32965.00
1018.267, 30405.00
1019.377, 28657.00
1020.486, 26683.00
1021.595, 25266.00
1022.704, 23951.00
1023.813, 22978.00
1024.922, 22184.00
1026.030, 21591.00
1027.139, 21254.00
1028.247, 20991.00
1029.355, 21388.00
1030.463, 21446.00
1031.571, 22224.00
1032.678, 22557.00
1033.786, 23467.00
1034.893, 24678.00
1036.000, 25695.00
1037.107, 26728.00
1038.214, 27844.00
1039.321, 28799.00
1040.427, 29959.00
1041.533, 30629.00
1042.639, 31435.00
1043.745, 31953.00
1044.851, 32257.00
1045.957, 32365.37
1047.062, 32070.00
1048.168, 31951.00
1049.273, 31410.00
1050.378, 30788.00
1051.482, 30248.00
1052.587, 29593.00
1053.692, 29204.00
1054.796, 28917.00
1055.900, 28591.00
1057.004, 28088.00
1058.108, 28480.00
1059.212, 28239.00
1060.315, 27905.00
1061.418, 27851.00
1062.522, 27050.00
1063.625, 26155.00
1064.728, 24707.00
1065.830, 23171.00
1066.933, 21958.00
1068.035, 20443.00
1069.137, 19276.00
1070.239, 18064.00
1071.341, 17175.00
1072.443, 16606.00
1073.545, 15919.00
1074.646, 15502.00
1075.747, 14982.00
1076.848, 14761.00
1077.949, 14438.00
1079.050, 14029.00
1080.150, 13922.00
1081.251, 13722.00
1082.351, 13489.00
1083.451, 13406.00
1084.551, 13192.00
1085.651, 13025.00
1086.750, 13015.00
1087.850, 12927.00
1088.949, 12603.00
1090.048, 12647.00
1091.147, 12528.00
1092.246, 12587.00
1093.345, 12442.00
1094.443, 12357.00
1095.541, 12462.00
1096.639, 12437.00
1097.737, 12300.00
1098.835, 12174.00
1099.933, 12361.00
1101.030, 12277.00
1102.128, 12125.00
1103.225, 12253.00
1104.322, 12266.00
1105.419, 12273.00
1106.515, 12360.00
1107.612, 12396.00
1108.708, 12547.00
1109.804, 12560.00
1110.900, 12517.00
1111.996, 12441.00
1113.092, 12680.00
1114.187, 12725.00
1115.283, 12816.00
1116.378, 12739.00
1117.473, 12701.00
1118.568, 12846.00
1119.662, 12846.00
1120.757, 12774.00
1121.851, 12663.00
1122.946, 12755.00
1124.040, 12673.00
1125.134, 12614.00
1126.227, 12642.00
1127.321, 12776.00
1128.414, 12563.00
1129.508, 12641.00
1130.601, 12554.00
1131.693, 12436.00
1132.786, 12640.00
1133.879, 12461.00
1134.971, 12262.00
1136.064, 12343.00
1137.156, 12474.00
1138.248, 12182.00
1139.339, 12321.00
1140.431, 12309.00
1141.522, 12233.00
1142.614, 12174.00
1143.705, 12159.00
1144.796, 12142.00
1145.887, 12038.00
1146.977, 12033.00
1148.068, 12017.00
1149.158, 12026.00
1150.248, 12082.00
1151.338, 11983.00
1152.428, 11907.00
1153.518, 11948.00
1154.607, 12025.00
1155.696, 11982.00
1156.785, 12072.00
1157.874, 12112.00
1158.963, 12144.00
1160.052, 12180.22
1161.141, 12130.00
1162.229, 12170.00
1163.317, 12115.00
1164.405, 12013.00
1165.493, 12176.00
1166.581, 12183.00
1167.668, 12205.00
1168.756, 12390.00
1169.843, 12238.00
1170.930, 12308.00
1172.017, 12268.00
1173.103, 12338.00
1174.190, 12323.00
1175.276, 12475.00
1176.363, 12508.00
1177.449, 12510.00
1178.535, 12552.00
1179.620, 12603.46
1180.706, 12580.00
1181.791, 12731.00
1182.877, 12740.00
1183.962, 12806.00
1185.047, 12957.00
1186.131, 13018.00
1187.216, 12906.56
1188.300, 13033.57
1189.385, 13104.94
1190.469, 13123.66
1191.553, 12932.06
1192.637, 13012.05
1193.720, 12983.21
1194.804, 12949.89
1195.887, 13068.11
1196.970, 12907.10
1198.053, 13022.91
1199.136, 13028.22
1200.219, 13084.11
1201.301, 13030.48
1202.383, 13147.00
1203.465, 13029.00
1204.547, 13123.00
1205.629, 13188.00
1206.711, 13007.46
1207.792, 12767.00
1208.874, 12757.00
1209.955, 12853.00
1211.036, 12878.00
1212.117, 12981.00
1213.198, 12613.00
1214.278, 12492.00
1215.359, 12500.00
1216.439, 12610.00
1217.519, 12443.00
1218.599, 12515.00
1219.678, 12314.00
1220.758, 12387.00
1221.837, 12391.00
1222.917, 12321.00
1223.996, 12268.00
1225.075, 12205.00
1226.153, 12251.00
1227.232, 12196.25
1228.310, 12271.00
1229.389, 12178.00
1230.467, 12193.00
1231.545, 12219.00
1232.622, 12361.00
1233.700, 12294.00
1234.777, 12312.00
1235.855, 12212.00
1236.932, 12359.00
1238.009, 12289.00
1239.086, 12322.00
1240.162, 12399.00
1241.239, 12220.00
1242.315, 12249.00
1243.391, 12423.00
1244.467, 12311.00
1245.543, 12413.00
1246.619, 12379.00
1247.694, 12240.00
1248.769, 12372.00
1249.844, 12304.00
1250.919, 12350.00
1251.994, 12261.00
1253.069, 12356.00
1254.144, 12384.00
1255.218, 12434.00
1256.292, 12338.00
1257.366, 12260.00
1258.440, 12487.00
1259.514, 12320.00
1260.587, 12358.00
1261.661, 12376.00
1262.734, 12461.00
1263.807, 12475.00
1264.880, 12315.00
1265.952, 12496.00
1267.025, 12480.00
1268.097, 12396.00
1269.170, 12499.00
1270.242, 12577.00
1271.314, 12579.00
1272.385, 12494.00
1273.457, 12607.00
1274.528, 12555.00
1275.600, 12635.00
1276.671, 12585.00
1277.742, 12601.75
1278.812, 12583.00
1279.883, 12605.00
1280.954, 12625.00
1282.024, 12615.00
1283.094, 12616.79
1284.164, 12617.00
1285.234, 12596.00
1286.303, 12623.00
1287.373, 12624.00
1288.442, 12599.00
1289.511, 12609.62
1290.580, 12658.00
1291.649, 12596.00
1292.718, 12665.00
1293.786, 12663.00
1294.855, 12631.00
1295.923, 12608.00
1296.991, 12822.00
1298.059, 12674.00
1299.126, 12692.00
1300.194, 12567.00
1301.261, 12744.00
1302.328, 12796.00
1303.395, 12726.00
1304.462, 12718.00
1305.529, 12678.00
1306.596, 12646.00
1307.662, 12679.68
1308.728, 12800.00
1309.794, 12760.00
1310.860, 12808.00
1311.926, 12870.00
1312.991, 12876.00
1314.057, 12868.00
1315.122, 12856.00
1316.187, 12859.00
1317.252, 12835.00
1318.317, 12814.00
1319.381, 12845.00
1320.446, 12994.00
1321.510, 12948.00
1322.574, 12970.00
1323.638, 12869.00
1324.702, 12908.00
1325.766, 12845.00
1326.829, 12964.00
1327.892, 12977.00
1328.956, 12928.00
1330.019, 12809.00
1331.081, 12902.00
1332.144, 12919.00
1333.206, 12794.00
1334.269, 12982.00
1335.331, 13072.00
1336.393, 12871.00
1337.455, 13071.00
1338.516, 13035.00
1339.578, 13013.00
1340.639, 12862.00
1341.701, 12978.00
1342.762, 13076.00
1343.822, 13112.00
1344.883, 12976.00
1345.944, 13076.00
1347.004, 13045.00
1348.064, 13044.00
1349.124, 13181.00
1350.184, 12907.00
1351.244, 12976.00
1352.304, 13038.00
1353.363, 13114.00
1354.422, 13081.00
1355.481, 12989.00
1356.540, 13015.00
1357.599, 13001.00
1358.657, 13017.00
1359.716, 13010.00
1360.774, 13001.70
1361.832, 13122.00
1362.890, 13035.00
1363.948, 13105.00
1365.006, 13242.00
1366.063, 13143.00
1367.120, 13206.00
1368.178, 13194.00
1369.234, 13112.00
1370.291, 13041.00
1371.348, 13152.00
1372.404, 13108.00
1373.461, 13207.00
1374.517, 13170.00
1375.573, 13280.00
1376.629, 13180.00
1377.684, 13349.00
1378.740, 13167.00
1379.795, 13272.00
1380.850, 13278.00
1381.905, 13060.00
1382.960, 13329.00
1384.015, 13349.00
1385.070, 13306.00
1386.124, 13309.00
1387.178, 13346.00
1388.232, 13208.00
1389.286, 13140.00
1390.340, 13480.00
1391.393, 13174.00
1392.447, 13277.00
1393.500, 13411.00
1394.553, 13266.00
1395.606, 13481.00
1396.659, 13362.00
1397.711, 13542.00
1398.764, 13484.60
1399.816, 13709.00
1400.868, 13361.00
1401.920, 13442.00
1402.972, 13342.00
1404.023, 13406.00
1405.075, 13698.00
1406.126, 13498.70
1407.177, 13578.00
1408.228, 13420.00
1409.279, 13410.00
1410.330, 13610.00
1411.380, 13513.00
1412.431, 13496.00
1413.481, 13495.00
1414.531, 13412.00
1415.580, 13478.00
1416.630, 13694.00
1417.680, 13452.00
1418.729, 13561.00
1419.778, 13597.00
1420.827, 13517.00
1421.876, 13595.00
1422.925, 13651.00
1423.973, 13548.00
1425.022, 13712.00
1426.070, 13556.00
1427.118, 13627.00
1428.166, 13553.00
1429.214, 13684.00
1430.261, 13653.00
1431.309, 13660.00
1432.356, 13582.00
1433.403, 13737.00
1434.450, 13757.00
1435.497, 13709.00
1436.543, 13817.00
1437.590, 13674.00
1438.636, 13748.00
1439.682, 13781.00
1440.728, 13657.00
1441.774, 13879.00
1442.819, 13879.00
1443.865, 13901.00
1444.910, 13795.00
1445.955, 13969.00
1447.000, 13875.00
1448.045, 13994.00
1449.090, 13849.00
1450.134, 13914.00
1451.178, 13862.00
1452.223, 13865.00
1453.267, 13907.00
1454.310, 13884.58
1455.354, 13871.00
1456.398, 13905.00
1457.441, 13908.00
1458.484, 13931.00
1459.527, 13902.00
1460.570, 14037.00
1461.613, 13950.00
1462.655, 13838.00
1463.698, 13938.00
1464.740, 13999.00
1465.782, 14008.00
1466.824, 13988.00
1467.866, 13945.00
1468.907, 13970.25
1469.948, 13903.00
1470.990, 13997.00
1472.031, 14000.00
1473.072, 14015.00
1474.112, 14134.00
1475.153, 14104.17
1476.194, 14106.00
1477.234, 14121.00
1478.274, 14086.00
1479.314, 14097.00
1480.354, 14038.00
1481.393, 14138.00
1482.433, 14117.00
1483.472, 14228.00
1484.511, 14152.00
1485.550, 14233.00
1486.589, 14065.00
1487.628, 14086.00
1488.666, 14168.00
1489.704, 14188.00
1490.743, 14327.00
1491.781, 14187.00
1492.819, 14284.00
1493.856, 14113.00
1494.894, 14250.00
1495.931, 14238.00
1496.968, 14360.00
1498.005, 14181.00
1499.042, 14380.00
1500.079, 14313.00
1501.115, 14358.00
1502.152, 14532.00
1503.188, 14421.75
1504.224, 14326.00
1505.260, 14392.00
1506.296, 14319.00
1507.331, 14430.00
1508.367, 14346.00
1509.402, 14264.00
1510.437, 14317.00
1511.472, 14412.00
1512.507, 14295.00
1513.541, 14575.00
1514.576, 14503.00
1515.610, 14287.00
1516.644, 14573.00
1517.678, 14502.00
1518.712, 14317.00
1519.746, 14516.00
1520.779, 14306.00
1521.813, 14380.00
1522.846, 14505.00
1523.879, 14401.00
1524.912, 14441.00
1525.944, 14434.00
1526.977, 14474.00
1528.009, 14472.00
1529.041, 14492.00
1530.073, 14525.00
1531.105, 14518.00
1532.137, 14482.00
1533.168, 14521.00
1534.200, 14483.00
1535.231, 14635.00
1536.262, 14552.00
1537.293, 14473.00
1538.324, 14649.00
1539.354, 14447.00
1540.385, 14514.00
1541.415, 14601.00
1542.445, 14525.00
1543.475, 14563.00
1544.505, 14612.00
1545.534, 14722.00
1546.564, 14696.53
1547.593, 14748.00
1548.622, 14752.00
1549.651, 14654.00
1550.680, 14830.00
1551.708, 14751.00
1552.737, 14697.00
1553.765, 14802.00
1554.793, 14861.00
1555.821, 14725.00
1556.849, 14794.28
1557.877, 14719.00
1558.904, 14747.00
1559.932, 14736.00
1560.959, 14684.00
1561.986, 14777.00
1563.013, 14640.00
1564.039, 14668.00
1565.066, 14754.00
1566.092, 14692.00
1567.119, 14757.00
1568.145, 14718.00
1569.170, 14970.00
1570.196, 14796.00
1571.222, 14969.00
1572.247, 14869.00
1573.272, 14917.00
1574.297, 14979.00
1575.322, 14822.00
1576.347, 14962.00
##END=



