##NAMES=Montebrasite
##RRUFFID=R060890
##IDEAL CHEMISTRY=LiAlPO_4_(OH)
##LOCALITY=Mount Marie, Paris, Maine, USA
##OWNER=RRUFF
##SOURCE=Bob Jenkins
##DESCRIPTION=Colorless massive
##STATUS=The identification of this mineral is confirmed by single-crystal X-ray diffraction and chemical analysis.
##URL=rruff.info/R060890
##MEASURED CHEMISTRY=Li_1.00_Al_1.00_(P_1.00_O_4_)(OH)_0.63_F_0.37_)_Î£=1_ ; Li not measured but estimated by stoichiometry
##PIN_ID=M01503
##ORIENTATION=Laser parallel to (-1 0 -1). Fiducial mark perpendicular to laser is parallel to b [0 1 0]
90.67800, 3211.000
91.91600, 3328.000
93.15500, 3260.000
94.39300, 3398.000
95.63100, 3307.000
96.86900, 3283.000
98.10600, 3277.000
99.34400, 3352.000
100.5810, 3314.000
101.8190, 3354.000
103.0560, 3352.000
104.2930, 3406.000
105.5290, 3453.000
106.7660, 3664.000
108.0020, 3756.000
109.2390, 3785.000
110.4750, 3807.000
111.7110, 3935.000
112.9460, 3912.000
114.1820, 4131.000
115.4170, 4295.000
116.6530, 4562.000
117.8880, 4737.000
119.1230, 5053.000
120.3580, 5377.000
121.5920, 5700.000
122.8270, 6364.000
124.0610, 6819.000
125.2950, 7270.000
126.5290, 7591.000
127.7630, 8138.000
128.9970, 8691.000
130.2300, 8841.271
131.4640, 9185.000
132.6970, 8970.000
133.9300, 8622.000
135.1630, 8157.000
136.3950, 7451.000
137.6280, 6752.000
138.8600, 6131.000
140.0920, 5593.000
141.3240, 5164.560
142.5560, 4825.000
143.7880, 4555.000
145.0190, 4379.000
146.2510, 4271.000
147.4820, 4060.000
148.7130, 3971.000
149.9440, 3924.000
151.1750, 3850.000
152.4050, 3912.000
153.6360, 3870.000
154.8660, 3840.000
156.0960, 3823.000
157.3260, 3758.000
158.5560, 3786.000
159.7850, 3819.000
161.0150, 3838.000
162.2440, 3971.000
163.4730, 4056.000
164.7020, 4086.000
165.9310, 4082.000
167.1590, 4217.000
168.3880, 4338.000
169.6160, 4226.000
170.8440, 4310.000
172.0720, 4377.000
173.3000, 4367.000
174.5280, 4369.000
175.7550, 4361.000
176.9820, 4401.000
178.2100, 4393.000
179.4370, 4444.000
180.6630, 4514.000
181.8900, 4537.000
183.1170, 4553.464
184.3430, 4484.000
185.5690, 4541.000
186.7950, 4564.000
188.0210, 4539.000
189.2470, 4603.000
190.4720, 4509.000
191.6970, 4497.000
192.9230, 4464.000
194.1480, 4369.000
195.3730, 4331.000
196.5970, 4315.000
197.8220, 4192.000
199.0460, 4152.000
200.2700, 4130.000
201.4940, 3994.000
202.7180, 3867.000
203.9420, 3703.000
205.1660, 3522.000
206.3890, 3449.000
207.6120, 3415.000
208.8350, 3372.000
210.0580, 3384.000
211.2810, 3316.000
212.5040, 3268.000
213.7260, 3314.000
214.9480, 3295.000
216.1700, 3312.000
217.3920, 3290.000
218.6140, 3278.000
219.8360, 3308.000
221.0570, 3316.000
222.2790, 3296.000
223.5000, 3309.000
224.7210, 3303.000
225.9410, 3275.000
227.1620, 3314.000
228.3820, 3371.000
229.6030, 3188.000
230.8230, 3331.000
232.0430, 3269.000
233.2630, 3297.000
234.4820, 3311.000
235.7020, 3317.000
236.9210, 3333.000
238.1400, 3332.595
239.3590, 3256.000
240.5780, 3329.000
241.7970, 3290.000
243.0150, 3278.000
244.2340, 3342.000
245.4520, 3330.000
246.6700, 3337.000
247.8880, 3354.000
249.1060, 3355.000
250.3230, 3412.000
251.5400, 3383.000
252.7580, 3404.000
253.9750, 3454.000
255.1920, 3417.000
256.4080, 3482.000
257.6250, 3412.000
258.8410, 3508.000
260.0580, 3563.000
261.2740, 3668.000
262.4900, 3663.000
263.7050, 3746.000
264.9210, 3713.000
266.1360, 3801.000
267.3520, 3826.000
268.5670, 3963.000
269.7820, 4096.000
270.9960, 4121.000
272.2110, 4229.000
273.4250, 4303.000
274.6400, 4401.000
275.8540, 4594.000
277.0680, 4662.000
278.2810, 4958.000
279.4950, 5209.000
280.7090, 5518.000
281.9220, 5942.000
283.1350, 6334.000
284.3480, 6998.000
285.5610, 7743.000
286.7730, 8560.000
287.9860, 9889.000
289.1980, 11428.00
290.4100, 13259.00
291.6220, 15512.00
292.8340, 18062.00
294.0460, 20534.00
295.2570, 23070.00
296.4690, 25971.00
297.6800, 28523.00
298.8910, 31920.00
300.1020, 33830.00
301.3120, 35593.00
302.5230, 35774.00
303.7330, 34898.00
304.9440, 32548.00
306.1540, 29951.00
307.3630, 27532.00
308.5730, 25358.00
309.7830, 23503.00
310.9920, 21834.00
312.2010, 20369.00
313.4100, 18624.00
314.6190, 17055.00
315.8280, 15449.00
317.0370, 14028.00
318.2450, 12601.00
319.4530, 11370.00
320.6610, 10568.00
321.8690, 9853.000
323.0770, 9257.000
324.2850, 8815.000
325.4920, 8505.000
326.6990, 8188.000
327.9060, 7935.000
329.1130, 7703.000
330.3200, 7406.000
331.5270, 7284.000
332.7330, 7047.000
333.9390, 6975.000
335.1450, 6675.000
336.3510, 6554.000
337.5570, 6428.000
338.7630, 6316.000
339.9680, 6225.000
341.1740, 6125.000
342.3790, 6044.000
343.5840, 5936.000
344.7890, 5923.000
345.9930, 5942.000
347.1980, 5855.000
348.4020, 5885.000
349.6060, 5925.000
350.8100, 5893.000
352.0140, 5923.000
353.2180, 5948.000
354.4210, 5942.000
355.6250, 5945.000
356.8280, 5967.000
358.0310, 6079.000
359.2340, 6290.000
360.4360, 6301.000
361.6390, 6401.000
362.8410, 6417.000
364.0430, 6470.000
365.2450, 6539.000
366.4470, 6655.000
367.6490, 6705.000
368.8510, 6593.000
370.0520, 6697.000
371.2530, 6791.000
372.4540, 6628.000
373.6550, 6580.000
374.8560, 6560.000
376.0560, 6508.000
377.2570, 6412.000
378.4570, 6334.000
379.6570, 6124.000
380.8570, 5968.000
382.0570, 5901.000
383.2560, 5774.000
384.4560, 5743.000
385.6550, 5567.000
386.8540, 5464.000
388.0530, 5325.000
389.2520, 5273.000
390.4510, 5231.000
391.6490, 5156.000
392.8470, 5049.000
394.0450, 4931.000
395.2430, 4861.000
396.4410, 4793.000
397.6390, 4834.000
398.8360, 4685.000
400.0340, 4533.000
401.2310, 4583.000
402.4280, 4487.000
403.6250, 4544.000
404.8210, 4487.000
406.0180, 4432.000
407.2140, 4294.000
408.4100, 4365.000
409.6060, 4413.000
410.8020, 4284.000
411.9980, 4289.000
413.1930, 4267.000
414.3890, 4312.000
415.5840, 4392.000
416.7790, 4512.000
417.9740, 4508.000
419.1680, 4665.000
420.3630, 4731.000
421.5570, 4866.000
422.7510, 5005.000
423.9450, 5056.000
425.1390, 5170.000
426.3330, 5113.931
427.5270, 5168.000
428.7200, 4901.000
429.9130, 4760.000
431.1060, 4516.000
432.2990, 4394.000
433.4920, 4262.000
434.6840, 4247.000
435.8770, 4107.000
437.0690, 4064.000
438.2610, 4025.000
439.4530, 3996.000
440.6450, 4002.000
441.8360, 3952.000
443.0280, 3981.000
444.2190, 3967.000
445.4100, 3960.000
446.6010, 3977.000
447.7920, 3911.000
448.9820, 4053.000
450.1730, 4022.000
451.3630, 3988.000
452.5530, 3935.000
453.7430, 4009.000
454.9330, 3926.000
456.1230, 3941.000
457.3120, 3946.000
458.5010, 3849.000
459.6910, 3972.000
460.8800, 3910.000
462.0680, 3947.000
463.2570, 3946.000
464.4460, 4036.000
465.6340, 4064.000
466.8220, 4092.000
468.0100, 4071.000
469.1980, 4085.000
470.3860, 4180.000
471.5730, 4151.000
472.7600, 4180.000
473.9480, 4303.000
475.1350, 4326.000
476.3210, 4299.000
477.5080, 4475.000
478.6950, 4435.000
479.8810, 4526.000
481.0670, 4436.000
482.2530, 4455.000
483.4390, 4602.000
484.6250, 4577.000
485.8100, 4631.000
486.9960, 4576.000
488.1810, 4619.476
489.3660, 4607.000
490.5510, 4674.000
491.7360, 4649.000
492.9200, 4668.000
494.1050, 4595.000
495.2890, 4661.000
496.4730, 4589.000
497.6570, 4777.000
498.8400, 4579.000
500.0240, 4664.000
501.2070, 4663.000
502.3910, 4629.000
503.5740, 4595.000
504.7570, 4539.000
505.9400, 4597.000
507.1220, 4483.000
508.3050, 4403.000
509.4870, 4422.000
510.6690, 4327.000
511.8510, 4320.000
513.0330, 4230.000
514.2140, 4268.000
515.3960, 4153.000
516.5770, 4148.000
517.7580, 4059.000
518.9390, 4114.000
520.1200, 4139.000
521.3010, 4163.000
522.4810, 4149.000
523.6610, 4105.000
524.8420, 4070.000
526.0220, 4098.000
527.2010, 4081.083
528.3810, 4080.409
529.5610, 4090.000
530.7400, 4072.000
531.9190, 4043.000
533.0980, 4018.000
534.2770, 4048.000
535.4560, 4049.000
536.6340, 4049.664
537.8120, 3980.000
538.9910, 4074.000
540.1690, 4022.000
541.3460, 4062.000
542.5240, 4058.000
543.7020, 4080.000
544.8790, 4130.000
546.0560, 4144.000
547.2330, 4174.000
548.4100, 4156.000
549.5870, 4219.000
550.7630, 4165.000
551.9400, 4202.000
553.1160, 4221.000
554.2920, 4132.000
555.4680, 4129.000
556.6440, 4124.000
557.8190, 4099.251
558.9950, 4126.000
560.1700, 4146.000
561.3450, 4115.000
562.5200, 4234.000
563.6950, 4150.000
564.8690, 4224.000
566.0440, 4215.000
567.2180, 4237.000
568.3920, 4148.000
569.5660, 4208.000
570.7400, 4146.000
571.9130, 4234.000
573.0870, 4190.000
574.2600, 4287.000
575.4330, 4312.000
576.6060, 4264.000
577.7790, 4328.000
578.9520, 4373.000
580.1240, 4441.000
581.2960, 4485.000
582.4690, 4462.000
583.6410, 4609.000
584.8120, 4643.000
585.9840, 4748.000
587.1560, 4852.000
588.3270, 4981.000
589.4980, 5128.000
590.6690, 5251.000
591.8400, 5464.000
593.0110, 5709.000
594.1810, 5973.925
595.3510, 6323.000
596.5220, 6638.000
597.6920, 7033.000
598.8610, 7452.000
600.0310, 7805.000
601.2010, 7989.000
602.3700, 8238.000
603.5390, 7973.000
604.7080, 7873.000
605.8770, 7272.000
607.0460, 6843.000
608.2140, 6509.000
609.3830, 6284.000
610.5510, 5999.000
611.7190, 5929.000
612.8870, 5875.000
614.0550, 5867.000
615.2220, 5913.000
616.3900, 6052.000
617.5570, 6191.000
618.7240, 6399.000
619.8910, 6594.000
621.0580, 7012.000
622.2240, 7270.000
623.3910, 7877.000
624.5570, 8268.000
625.7230, 8849.000
626.8890, 9526.000
628.0550, 10047.00
629.2200, 10784.00
630.3860, 11450.00
631.5510, 12061.00
632.7160, 12620.00
633.8810, 13275.00
635.0460, 14063.00
636.2100, 14991.00
637.3750, 16426.00
638.5390, 18264.00
639.7030, 20078.00
640.8670, 22258.00
642.0310, 24615.00
643.1950, 27133.00
644.3580, 29330.00
645.5210, 30457.00
646.6850, 29745.00
647.8480, 27718.00
649.0100, 24255.00
650.1730, 20479.00
651.3350, 17063.00
652.4980, 14296.00
653.6600, 12056.00
654.8220, 10428.00
655.9840, 9326.000
657.1450, 8232.000
658.3070, 7593.000
659.4680, 7044.000
660.6300, 6635.000
661.7910, 6282.000
662.9510, 6085.000
664.1120, 5799.000
665.2730, 5734.000
666.4330, 5472.000
667.5930, 5290.000
668.7530, 5263.000
669.9130, 5077.000
671.0730, 4991.000
672.2320, 4958.000
673.3920, 4895.000
674.5510, 4767.000
675.7100, 4759.000
676.8690, 4700.262
678.0280, 4695.000
679.1860, 4651.000
680.3450, 4606.000
681.5030, 4591.000
682.6610, 4627.000
683.8190, 4530.000
684.9770, 4477.000
686.1340, 4540.000
687.2920, 4489.000
688.4490, 4464.000
689.6060, 4517.000
690.7630, 4424.000
691.9200, 4329.000
693.0760, 4389.000
694.2330, 4439.000
695.3890, 4371.000
696.5450, 4341.000
697.7010, 4318.000
698.8570, 4350.000
700.0130, 4308.000
701.1680, 4399.000
702.3230, 4379.000
703.4780, 4378.000
704.6330, 4289.000
705.7880, 4319.000
706.9430, 4371.000
708.0970, 4357.000
709.2520, 4356.000
710.4060, 4376.000
711.5600, 4362.000
712.7140, 4379.590
713.8670, 4416.000
715.0210, 4407.000
716.1740, 4380.000
717.3270, 4399.000
718.4800, 4296.000
719.6330, 4337.000
720.7860, 4424.000
721.9380, 4341.000
723.0910, 4320.000
724.2430, 4347.000
725.3950, 4379.000
726.5470, 4443.000
727.6980, 4455.000
728.8500, 4433.000
730.0010, 4393.000
731.1530, 4434.000
732.3040, 4273.000
733.4550, 4416.000
734.6050, 4413.000
735.7560, 4392.000
736.9060, 4498.000
738.0560, 4453.000
739.2060, 4439.000
740.3560, 4336.000
741.5060, 4381.000
742.6560, 4503.000
743.8050, 4439.000
744.9540, 4442.000
746.1030, 4434.000
747.2520, 4349.000
748.4010, 4473.000
749.5500, 4470.000
750.6980, 4402.000
751.8460, 4481.000
752.9950, 4403.000
754.1420, 4530.000
755.2900, 4495.000
756.4380, 4489.000
757.5850, 4441.000
758.7330, 4458.963
759.8800, 4491.000
761.0270, 4495.000
762.1730, 4517.000
763.3200, 4548.000
764.4670, 4522.000
765.6130, 4538.000
766.7590, 4558.000
767.9050, 4476.000
769.0510, 4550.000
770.1960, 4472.000
771.3420, 4584.000
772.4870, 4474.000
773.6320, 4578.000
774.7770, 4591.000
775.9220, 4535.000
777.0670, 4506.000
778.2110, 4577.000
779.3560, 4614.000
780.5000, 4620.000
781.6440, 4659.000
782.7880, 4724.000
783.9320, 4641.000
785.0750, 4701.000
786.2180, 4673.000
787.3620, 4704.000
788.5050, 4652.000
789.6480, 4718.000
790.7900, 4772.000
791.9330, 4681.000
793.0750, 4811.000
794.2170, 4822.000
795.3590, 4759.000
796.5010, 4807.000
797.6430, 4854.000
798.7850, 4897.000
799.9260, 4937.000
801.0670, 4881.000
802.2080, 4909.000
803.3490, 4991.000
804.4900, 4921.000
805.6310, 4849.000
806.7710, 4935.000
807.9110, 5039.000
809.0510, 5017.000
810.1910, 4960.000
811.3310, 5002.000
812.4710, 5023.000
813.6100, 4950.000
814.7490, 4989.000
815.8880, 4934.000
817.0270, 4962.000
818.1660, 5001.000
819.3050, 4988.690
820.4430, 4956.000
821.5820, 5019.000
822.7200, 5042.000
823.8580, 5061.431
824.9950, 4977.000
826.1330, 5040.000
827.2710, 4995.000
828.4080, 4937.000
829.5450, 5040.000
830.6820, 4979.000
831.8190, 4922.000
832.9560, 4945.000
834.0920, 4932.000
835.2280, 4938.000
836.3650, 4925.748
837.5010, 4882.000
838.6360, 4903.000
839.7720, 4954.000
840.9080, 4973.000
842.0430, 4924.000
843.1780, 4873.000
844.3130, 4910.000
845.4480, 4878.000
846.5830, 4968.000
847.7170, 4912.000
848.8520, 5001.000
849.9860, 4911.000
851.1200, 4988.000
852.2540, 5026.000
853.3870, 4975.000
854.5210, 5025.000
855.6540, 5027.000
856.7880, 4974.000
857.9210, 5004.000
859.0540, 4992.000
860.1860, 4938.000
861.3190, 4960.000
862.4510, 5027.000
863.5840, 5079.000
864.7160, 5086.000
865.8480, 5046.000
866.9790, 5111.000
868.1110, 5063.000
869.2420, 5037.000
870.3740, 5124.000
871.5050, 5081.000
872.6360, 5149.000
873.7660, 5109.000
874.8970, 5151.000
876.0280, 5023.000
877.1580, 5189.000
878.2880, 5119.000
879.4180, 5061.000
880.5480, 5146.000
881.6770, 5170.000
882.8070, 5165.000
883.9360, 5155.000
885.0650, 5139.000
886.1940, 5250.000
887.3230, 5117.000
888.4520, 5264.000
889.5800, 5229.000
890.7090, 5205.000
891.8370, 5199.000
892.9650, 5282.000
894.0930, 5238.000
895.2200, 5319.000
896.3480, 5343.000
897.4750, 5216.000
898.6020, 5381.000
899.7290, 5245.000
900.8560, 5297.000
901.9830, 5363.000
903.1090, 5306.000
904.2360, 5354.000
905.3620, 5449.000
906.4880, 5476.000
907.6140, 5386.000
908.7400, 5505.000
909.8650, 5462.000
910.9900, 5401.000
912.1160, 5459.000
913.2410, 5438.000
914.3660, 5480.000
915.4900, 5585.000
916.6150, 5500.000
917.7390, 5508.000
918.8640, 5539.000
919.9880, 5656.000
921.1120, 5643.000
922.2350, 5560.000
923.3590, 5684.000
924.4820, 5546.000
925.6060, 5735.000
926.7290, 5673.000
927.8520, 5708.000
928.9740, 5709.000
930.0970, 5781.000
931.2190, 5724.000
932.3420, 5874.000
933.4640, 5805.000
934.5860, 5794.000
935.7080, 5854.000
936.8290, 5726.000
937.9510, 5830.000
939.0720, 5877.000
940.1930, 5967.000
941.3140, 5909.000
942.4350, 5923.000
943.5560, 6011.000
944.6760, 5961.000
945.7960, 6118.000
946.9170, 6111.000
948.0370, 6132.000
949.1560, 6152.000
950.2760, 6188.000
951.3960, 6258.000
952.5150, 6209.000
953.6340, 6266.000
954.7530, 6344.000
955.8720, 6392.000
956.9910, 6354.000
958.1090, 6474.000
959.2280, 6480.000
960.3460, 6534.065
961.4640, 6602.000
962.5820, 6650.000
963.6990, 6783.000
964.8170, 6855.000
965.9340, 6962.000
967.0510, 6933.000
968.1690, 7083.000
969.2850, 7247.000
970.4020, 7261.000
971.5190, 7550.000
972.6350, 7618.000
973.7510, 7756.000
974.8670, 7939.000
975.9830, 8028.000
977.0990, 8132.000
978.2150, 8502.000
979.3300, 8737.000
980.4450, 8986.000
981.5600, 9469.000
982.6750, 9841.000
983.7900, 10168.00
984.9050, 10862.00
986.0190, 11398.00
987.1340, 12100.00
988.2480, 12831.00
989.3620, 13805.00
990.4750, 14825.00
991.5890, 16286.60
992.7020, 18171.00
993.8160, 19709.00
994.9290, 21970.00
996.0420, 24120.00
997.1550, 26478.00
998.2670, 29411.00
999.3800, 32352.00
1000.492, 35618.00
1001.604, 39498.00
1002.716, 43181.00
1003.828, 47262.00
1004.940, 51271.00
1006.051, 55002.00
1007.163, 57985.00
1008.274, 60152.00
1009.385, 61661.00
1010.496, 61986.00
1011.606, 61068.00
1012.717, 58945.00
1013.827, 55939.00
1014.937, 52345.00
1016.047, 48292.00
1017.157, 43917.00
1018.267, 39739.00
1019.377, 35671.00
1020.486, 32126.00
1021.595, 29058.00
1022.704, 26036.00
1023.813, 23848.00
1024.922, 21704.00
1026.030, 19726.00
1027.139, 18246.00
1028.247, 16954.00
1029.355, 16071.00
1030.463, 15137.00
1031.571, 14475.00
1032.678, 13897.00
1033.786, 13564.00
1034.893, 13251.00
1036.000, 13288.00
1037.107, 13118.00
1038.214, 13122.00
1039.321, 13201.00
1040.427, 13386.00
1041.533, 13667.00
1042.639, 14238.00
1043.745, 14706.00
1044.851, 15313.00
1045.957, 15957.00
1047.062, 16693.00
1048.168, 17784.00
1049.273, 19007.00
1050.378, 20674.00
1051.482, 22323.00
1052.587, 24038.00
1053.692, 26844.00
1054.796, 29392.00
1055.900, 32443.00
1057.004, 36162.00
1058.108, 39156.00
1059.212, 41975.00
1060.315, 44288.00
1061.418, 45338.00
1062.522, 45156.00
1063.625, 43341.00
1064.728, 40227.00
1065.830, 35862.00
1066.933, 31986.00
1068.035, 27422.00
1069.137, 23785.00
1070.239, 20516.00
1071.341, 17871.00
1072.443, 15987.00
1073.545, 14225.00
1074.646, 12947.00
1075.747, 11908.00
1076.848, 11104.00
1077.949, 10333.00
1079.050, 9707.000
1080.150, 9319.000
1081.251, 9019.000
1082.351, 8558.000
1083.451, 8328.000
1084.551, 8100.000
1085.651, 7804.000
1086.750, 7722.000
1087.850, 7516.000
1088.949, 7470.000
1090.048, 7424.000
1091.147, 7194.000
1092.246, 7098.000
1093.345, 7000.000
1094.443, 7026.000
1095.541, 6907.000
1096.639, 7035.000
1097.737, 6890.000
1098.835, 6918.000
1099.933, 6968.000
1101.030, 6982.000
1102.128, 7059.000
1103.225, 7041.000
1104.322, 6995.000
1105.419, 7214.000
1106.515, 7412.000
1107.612, 7396.000
1108.708, 7417.000
1109.804, 7406.000
1110.900, 7571.000
1111.996, 7530.000
1113.092, 7683.000
1114.187, 7649.000
1115.283, 7709.000
1116.378, 7817.000
1117.473, 7696.000
1118.568, 7814.000
1119.662, 7722.000
1120.757, 7646.000
1121.851, 7797.000
1122.946, 7586.000
1124.040, 7471.000
1125.134, 7436.000
1126.227, 7455.000
1127.321, 7311.000
1128.414, 7315.000
1129.508, 7210.000
1130.601, 7246.000
1131.693, 7125.000
1132.786, 7155.000
1133.879, 7032.000
1134.971, 6907.000
1136.064, 6917.000
1137.156, 6797.000
1138.248, 6783.000
1139.339, 6656.000
1140.431, 6520.000
1141.522, 6413.000
1142.614, 6461.000
1143.705, 6465.000
1144.796, 6405.000
1145.887, 6374.000
1146.977, 6294.000
1148.068, 6376.000
1149.158, 6214.000
1150.248, 6234.000
1151.338, 6146.000
1152.428, 6278.000
1153.518, 6282.000
1154.607, 6287.000
1155.696, 6282.000
1156.785, 6221.000
1157.874, 6194.000
1158.963, 6261.000
1160.052, 6136.000
1161.141, 6238.000
1162.229, 6210.000
1163.317, 6254.000
1164.405, 6268.278
1165.493, 6237.000
1166.581, 6249.000
1167.668, 6270.000
1168.756, 6208.000
1169.843, 6254.000
1170.930, 6276.000
1172.017, 6278.000
1173.103, 6306.572
1174.190, 6320.000
1175.276, 6330.000
1176.363, 6347.000
1177.449, 6349.142
1178.535, 6248.000
1179.620, 6306.000
1180.706, 6303.000
1181.791, 6286.000
1182.877, 6337.000
1183.962, 6344.000
1185.047, 6385.000
1186.131, 6388.000
1187.216, 6380.180
1188.300, 6369.000
1189.385, 6364.000
1190.469, 6313.000
1191.553, 6339.000
1192.637, 6469.000
1193.720, 6403.000
1194.804, 6394.000
1195.887, 6365.000
1196.970, 6335.268
1198.053, 6348.000
1199.136, 6299.000
1200.219, 6372.000
1201.301, 6373.000
1202.383, 6313.000
1203.465, 6323.000
1204.547, 6157.000
1205.629, 6258.000
1206.711, 6241.000
1207.792, 6343.000
1208.874, 6331.000
1209.955, 6318.839
1211.036, 6331.495
1212.117, 6255.000
1213.198, 6260.000
1214.278, 6219.000
1215.359, 6124.000
1216.439, 6240.000
1217.519, 6149.000
1218.599, 6192.000
1219.678, 6215.000
1220.758, 6220.000
1221.837, 6206.000
1222.917, 6195.157
1223.996, 6176.000
1225.075, 6156.000
1226.153, 6161.000
1227.232, 6171.000
1228.310, 6146.000
1229.389, 6208.000
1230.467, 6201.000
1231.545, 6084.000
1232.622, 6142.000
1233.700, 6241.000
1234.777, 6177.000
1235.855, 6090.000
1236.932, 6213.000
1238.009, 6149.000
1239.086, 6227.000
1240.162, 6205.000
1241.239, 6110.000
1242.315, 6095.000
1243.391, 6147.000
1244.467, 6138.000
1245.543, 6135.926
1246.619, 6173.000
1247.694, 6146.000
1248.769, 6139.000
1249.844, 6205.000
1250.919, 6191.000
1251.994, 6135.000
1253.069, 6116.000
1254.144, 6211.000
1255.218, 6211.000
1256.292, 6234.000
1257.366, 6197.000
1258.440, 6282.000
1259.514, 6196.000
1260.587, 6148.000
1261.661, 6210.000
1262.734, 6175.000
1263.807, 6178.000
1264.880, 6186.000
1265.952, 6161.593
1267.025, 6200.000
1268.097, 6168.000
1269.170, 6165.000
1270.242, 6240.000
1271.314, 6252.000
1272.385, 6294.000
1273.457, 6243.000
1274.528, 6183.000
1275.600, 6298.000
1276.671, 6187.000
1277.742, 6170.000
1278.812, 6156.000
1279.883, 6186.000
1280.954, 6257.000
1282.024, 6227.000
1283.094, 6242.000
1284.164, 6190.000
1285.234, 6249.000
1286.303, 6235.000
1287.373, 6322.000
1288.442, 6276.000
1289.511, 6177.000
1290.580, 6309.000
1291.649, 6208.000
1292.718, 6274.000
1293.786, 6438.000
1294.855, 6292.000
1295.923, 6254.000
1296.991, 6299.000
1298.059, 6219.000
1299.126, 6285.000
1300.194, 6277.000
1301.261, 6275.000
1302.328, 6271.000
1303.395, 6255.000
1304.462, 6165.000
1305.529, 6384.000
1306.596, 6274.000
1307.662, 6353.000
1308.728, 6268.000
1309.794, 6289.000
1310.860, 6337.000
1311.926, 6341.000
1312.991, 6341.000
1314.057, 6356.237
1315.122, 6362.000
1316.187, 6351.000
1317.252, 6352.000
1318.317, 6336.000
1319.381, 6308.000
1320.446, 6322.352
1321.510, 6363.000
1322.574, 6328.000
1323.638, 6321.000
1324.702, 6300.000
1325.766, 6287.000
1326.829, 6346.000
1327.892, 6303.000
1328.956, 6352.000
1330.019, 6352.000
1331.081, 6369.000
1332.144, 6389.789
1333.206, 6418.000
1334.269, 6396.000
1335.331, 6420.000
1336.393, 6380.000
1337.455, 6378.000
1338.516, 6382.000
1339.578, 6354.000
1340.639, 6356.125
1341.701, 6365.098
1342.762, 6353.000
1343.822, 6383.000
1344.883, 6412.000
1345.944, 6400.000
1347.004, 6325.000
1348.064, 6387.000
1349.124, 6305.000
1350.184, 6312.000
1351.244, 6362.000
1352.304, 6339.000
1353.363, 6369.000
1354.422, 6335.000
1355.481, 6330.000
1356.540, 6375.000
1357.599, 6395.000
1358.657, 6271.000
1359.716, 6303.000
1360.774, 6312.000
1361.832, 6394.000
1362.890, 6379.000
1363.948, 6361.000
1365.006, 6372.000
1366.063, 6395.000
1367.120, 6326.000
1368.178, 6357.000
1369.234, 6349.989
1370.291, 6395.000
1371.348, 6367.000
1372.404, 6360.000
1373.461, 6373.000
1374.517, 6439.000
1375.573, 6367.000
1376.629, 6414.000
1377.684, 6307.000
1378.740, 6535.000
1379.795, 6257.000
1380.850, 6302.000
1381.905, 6439.000
1382.960, 6380.000
1384.015, 6310.000
1385.070, 6360.000
1386.124, 6323.000
1387.178, 6410.000
1388.232, 6334.000
1389.286, 6304.000
1390.340, 6344.000
1391.393, 6382.000
1392.447, 6332.000
1393.500, 6430.000
1394.553, 6417.000
1395.606, 6496.000
1396.659, 6408.000
1397.711, 6352.000
1398.764, 6413.000
1399.816, 6265.000
1400.868, 6350.000
1401.920, 6384.000
1402.972, 6263.000
1404.023, 6490.000
1405.075, 6410.000
1406.126, 6464.000
1407.177, 6483.000
1408.228, 6454.000
1409.279, 6466.000
1410.330, 6494.000
1411.380, 6459.536
1412.431, 6392.000
1413.481, 6427.000
1414.531, 6395.000
1415.580, 6397.000
1416.630, 6378.000
1417.680, 6493.000
1418.729, 6389.000
1419.778, 6408.000
1420.827, 6478.000
1421.876, 6414.000
1422.925, 6464.000
1423.973, 6486.000
1425.022, 6466.000
1426.070, 6442.000
1427.118, 6394.000
1428.166, 6473.000
1429.214, 6507.000
1430.261, 6379.000
1431.309, 6507.000
1432.356, 6476.000
1433.403, 6523.000
1434.450, 6430.000
1435.497, 6523.000
1436.543, 6463.000
1437.590, 6497.000
1438.636, 6531.000
1439.682, 6431.000
1440.728, 6473.000
1441.774, 6495.000
1442.819, 6459.000
1443.865, 6493.000
1444.910, 6465.000
1445.955, 6513.000
1447.000, 6535.000
1448.045, 6525.000
1449.090, 6524.000
1450.134, 6552.000
1451.178, 6630.000
1452.223, 6605.000
1453.267, 6552.000
1454.310, 6678.000
1455.354, 6562.000
1456.398, 6570.000
1457.441, 6590.000
1458.484, 6609.000
1459.527, 6632.000
1460.570, 6565.000
1461.613, 6604.000
1462.655, 6574.000
1463.698, 6610.000
1464.740, 6578.000
1465.782, 6728.000
1466.824, 6644.000
1467.866, 6510.000
1468.907, 6658.000
1469.948, 6648.000
1470.990, 6606.000
1472.031, 6648.000
1473.072, 6648.000
1474.112, 6588.000
1475.153, 6629.000
1476.194, 6620.000
1477.234, 6645.000
1478.274, 6647.000
1479.314, 6666.000
1480.354, 6588.000
1481.393, 6579.000
1482.433, 6658.000
1483.472, 6706.000
1484.511, 6632.000
1485.550, 6745.000
1486.589, 6646.000
1487.628, 6711.000
1488.666, 6717.000
1489.704, 6676.000
1490.743, 6660.000
1491.781, 6608.000
1492.819, 6625.436
1493.856, 6783.000
1494.894, 6682.000
1495.931, 6711.000
1496.968, 6790.000
1498.005, 6694.000
1499.042, 6721.000
1500.079, 6723.106
1501.115, 6756.000
1502.152, 6731.000
1503.188, 6679.000
1504.224, 6688.000
1505.260, 6630.000
1506.296, 6698.000
1507.331, 6673.242
1508.367, 6743.000
1509.402, 6706.000
1510.437, 6704.000
1511.472, 6774.000
1512.507, 6748.000
1513.541, 6754.000
1514.576, 6699.000
1515.610, 6692.000
1516.644, 6790.000
1517.678, 6742.000
1518.712, 6767.875
1519.746, 6738.000
1520.779, 6771.000
1521.813, 6733.000
1522.846, 6748.000
1523.879, 6748.000
1524.912, 6778.000
1525.944, 6748.000
1526.977, 6754.000
1528.009, 6759.000
1529.041, 6674.000
1530.073, 6849.000
1531.105, 6708.000
1532.137, 6626.000
1533.168, 6711.000
1534.200, 6792.000
1535.231, 6809.000
1536.262, 6845.028
1537.293, 6807.000
1538.324, 6866.000
1539.354, 6805.000
1540.385, 6832.000
1541.415, 6752.000
1542.445, 6786.000
1543.475, 6787.000
1544.505, 6771.000
1545.534, 6853.000
1546.564, 6793.000
1547.593, 6897.000
1548.622, 6786.000
1549.651, 6839.000
1550.680, 6861.000
1551.708, 6836.000
1552.737, 6867.000
1553.765, 6842.000
1554.793, 6913.000
1555.821, 6932.000
1556.849, 6831.000
1557.877, 6764.000
1558.904, 6794.000
1559.932, 6857.000
1560.959, 6896.000
1561.986, 6786.000
1563.013, 6880.000
1564.039, 6767.000
1565.066, 6930.000
1566.092, 6903.000
1567.119, 6976.000
1568.145, 6930.000
1569.170, 6921.000
1570.196, 6933.000
1571.222, 6922.000
1572.247, 6927.000
1573.272, 6905.000
1574.297, 6956.000
1575.322, 7024.000
1576.347, 7085.000
##END=



