##NAMES=Montebrasite
##RRUFFID=R060890
##IDEAL CHEMISTRY=LiAlPO_4_(OH)
##LOCALITY=Mount Marie, Paris, Maine, USA
##OWNER=RRUFF
##SOURCE=Bob Jenkins
##DESCRIPTION=Colorless massive
##STATUS=The identification of this mineral is confirmed by single-crystal X-ray diffraction and chemical analysis.
##URL=rruff.info/R060890
##MEASURED CHEMISTRY=Li_1.00_Al_1.00_(P_1.00_O_4_)(OH)_0.63_F_0.37_)_Î£=1_ ; Li not measured but estimated by stoichiometry
##PIN_ID=M00747
##ORIENTATION=Laser parallel to (0 1 1). Fiducial mark perpendicular to laser is parallel to a [1 0 0]
90.67800, 17457.00
91.91600, 17945.00
93.15500, 17698.00
94.39300, 17593.00
95.63100, 17424.00
96.86900, 17138.00
98.10600, 17152.00
99.34400, 17213.00
100.5810, 17084.00
101.8190, 16974.00
103.0560, 16539.00
104.2930, 16648.00
105.5290, 16857.00
106.7660, 17142.00
108.0020, 17375.00
109.2390, 17239.00
110.4750, 17508.00
111.7110, 16832.00
112.9460, 16656.00
114.1820, 16994.00
115.4170, 17328.00
116.6530, 17418.00
117.8880, 16910.00
119.1230, 16874.00
120.3580, 16487.00
121.5920, 16854.00
122.8270, 17263.00
124.0610, 17061.00
125.2950, 16991.00
126.5290, 17054.00
127.7630, 16904.00
128.9970, 17415.00
130.2300, 17429.00
131.4640, 17450.00
132.6970, 17170.00
133.9300, 17124.00
135.1630, 17187.00
136.3950, 16932.00
137.6280, 17100.00
138.8600, 17491.00
140.0920, 17799.00
141.3240, 17880.00
142.5560, 17420.00
143.7880, 17619.00
145.0190, 17636.00
146.2510, 18008.00
147.4820, 18238.00
148.7130, 18286.00
149.9440, 18758.00
151.1750, 19150.00
152.4050, 20149.00
153.6360, 20996.00
154.8660, 22237.00
156.0960, 23666.00
157.3260, 24805.00
158.5560, 25997.00
159.7850, 26831.00
161.0150, 27717.00
162.2440, 28796.00
163.4730, 29750.00
164.7020, 30354.00
165.9310, 30561.00
167.1590, 30474.00
168.3880, 29857.00
169.6160, 28972.00
170.8440, 28599.00
172.0720, 26931.00
173.3000, 26151.00
174.5280, 25148.00
175.7550, 24142.00
176.9820, 23236.00
178.2100, 22376.45
179.4370, 21593.06
180.6630, 20837.00
181.8900, 20206.00
183.1170, 19602.00
184.3430, 19020.00
185.5690, 18448.00
186.7950, 18079.00
188.0210, 17696.00
189.2470, 17375.00
190.4720, 17368.00
191.6970, 16681.00
192.9230, 16099.00
194.1480, 15704.00
195.3730, 15739.00
196.5970, 15535.00
197.8220, 15394.00
199.0460, 15577.00
200.2700, 15081.00
201.4940, 15186.00
202.7180, 14798.00
203.9420, 14424.00
205.1660, 14280.00
206.3890, 14484.00
207.6120, 14391.00
208.8350, 14078.00
210.0580, 14223.00
211.2810, 14120.00
212.5040, 14131.00
213.7260, 13975.00
214.9480, 14228.00
216.1700, 14107.00
217.3920, 14206.00
218.6140, 14087.00
219.8360, 13972.00
221.0570, 14084.00
222.2790, 14022.00
223.5000, 13898.00
224.7210, 13753.00
225.9410, 13574.00
227.1620, 13527.09
228.3820, 13438.17
229.6030, 13423.00
230.8230, 13346.00
232.0430, 13300.66
233.2630, 13227.95
234.4820, 13216.24
235.7020, 13214.00
236.9210, 13228.00
238.1400, 13302.00
239.3590, 13370.00
240.5780, 13042.00
241.7970, 13009.00
243.0150, 13085.00
244.2340, 12989.00
245.4520, 13216.00
246.6700, 13250.00
247.8880, 13353.00
249.1060, 13395.00
250.3230, 13546.00
251.5400, 13710.00
252.7580, 14060.00
253.9750, 14079.00
255.1920, 14634.00
256.4080, 14975.00
257.6250, 15738.00
258.8410, 16532.00
260.0580, 17065.00
261.2740, 17902.00
262.4900, 18628.00
263.7050, 19512.00
264.9210, 20544.00
266.1360, 21457.00
267.3520, 22174.00
268.5670, 22974.00
269.7820, 23327.00
270.9960, 23902.00
272.2110, 24130.00
273.4250, 23888.00
274.6400, 23715.00
275.8540, 23072.00
277.0680, 22664.00
278.2810, 21983.00
279.4950, 21597.00
280.7090, 21135.00
281.9220, 20687.00
283.1350, 20728.00
284.3480, 20831.00
285.5610, 21395.00
286.7730, 22055.00
287.9860, 23334.00
289.1980, 25029.00
290.4100, 27572.00
291.6220, 29862.00
292.8340, 32664.00
294.0460, 35547.00
295.2570, 38135.00
296.4690, 40071.00
297.6800, 42742.00
298.8910, 44616.00
300.1020, 46376.00
301.3120, 46514.00
302.5230, 45448.00
303.7330, 42845.00
304.9440, 39433.00
306.1540, 35847.00
307.3630, 32095.00
308.5730, 29030.00
309.7830, 26369.00
310.9920, 24338.00
312.2010, 22730.00
313.4100, 21369.00
314.6190, 20196.00
315.8280, 18861.00
317.0370, 17682.00
318.2450, 16817.00
319.4530, 15844.00
320.6610, 15496.00
321.8690, 14741.00
323.0770, 14629.00
324.2850, 14291.00
325.4920, 13790.00
326.6990, 13677.00
327.9060, 13380.14
329.1130, 13156.00
330.3200, 13023.00
331.5270, 12863.00
332.7330, 12700.00
333.9390, 12441.00
335.1450, 12439.00
336.3510, 12083.00
337.5570, 12204.00
338.7630, 12210.00
339.9680, 11939.00
341.1740, 11887.00
342.3790, 11738.00
343.5840, 11919.00
344.7890, 11821.00
345.9930, 11769.00
347.1980, 11653.00
348.4020, 11841.00
349.6060, 11625.00
350.8100, 11476.00
352.0140, 11784.00
353.2180, 11756.00
354.4210, 11863.00
355.6250, 11683.00
356.8280, 11757.00
358.0310, 11978.00
359.2340, 11973.00
360.4360, 11829.00
361.6390, 11835.00
362.8410, 11778.00
364.0430, 12005.00
365.2450, 11953.00
366.4470, 12022.00
367.6490, 12023.00
368.8510, 11801.00
370.0520, 12185.00
371.2530, 12145.00
372.4540, 12250.00
373.6550, 11948.00
374.8560, 12020.00
376.0560, 11867.00
377.2570, 12095.00
378.4570, 11952.00
379.6570, 11928.00
380.8570, 11932.00
382.0570, 11793.00
383.2560, 11822.04
384.4560, 11798.00
385.6550, 11751.00
386.8540, 11632.00
388.0530, 11666.62
389.2520, 11606.00
390.4510, 11669.00
391.6490, 11625.00
392.8470, 11581.00
394.0450, 11631.00
395.2430, 11758.00
396.4410, 11868.00
397.6390, 11748.00
398.8360, 11767.00
400.0340, 11747.17
401.2310, 11519.00
402.4280, 11702.00
403.6250, 11763.00
404.8210, 11790.22
406.0180, 12283.00
407.2140, 11827.00
408.4100, 11842.00
409.6060, 11885.00
410.8020, 12266.00
411.9980, 12396.00
413.1930, 12589.00
414.3890, 13121.00
415.5840, 13978.00
416.7790, 14837.00
417.9740, 15727.00
419.1680, 16602.00
420.3630, 17584.00
421.5570, 18504.00
422.7510, 19278.00
423.9450, 20142.00
425.1390, 20619.00
426.3330, 20527.00
427.5270, 19843.00
428.7200, 18490.00
429.9130, 17140.00
431.1060, 15650.00
432.2990, 14642.00
433.4920, 14001.00
434.6840, 13530.00
435.8770, 13113.00
437.0690, 12778.00
438.2610, 12786.00
439.4530, 12787.00
440.6450, 12603.00
441.8360, 12724.00
443.0280, 12681.00
444.2190, 12704.00
445.4100, 12570.00
446.6010, 12452.00
447.7920, 12521.00
448.9820, 12687.00
450.1730, 12763.00
451.3630, 12886.98
452.5530, 13120.00
453.7430, 13100.00
454.9330, 13234.00
456.1230, 13294.00
457.3120, 13271.00
458.5010, 13530.00
459.6910, 13618.00
460.8800, 13910.00
462.0680, 14335.00
463.2570, 14631.00
464.4460, 14882.00
465.6340, 15393.00
466.8220, 15787.00
468.0100, 16530.00
469.1980, 17141.00
470.3860, 17923.00
471.5730, 18662.00
472.7600, 19452.00
473.9480, 20667.00
475.1350, 21478.00
476.3210, 22250.00
477.5080, 23290.00
478.6950, 23930.00
479.8810, 24826.00
481.0670, 25203.00
482.2530, 25417.00
483.4390, 25321.00
484.6250, 25317.00
485.8100, 25028.00
486.9960, 24846.00
488.1810, 24484.00
489.3660, 24015.00
490.5510, 23428.00
491.7360, 23066.00
492.9200, 22396.00
494.1050, 21917.00
495.2890, 21391.00
496.4730, 20728.00
497.6570, 20017.00
498.8400, 19322.00
500.0240, 18833.00
501.2070, 18001.00
502.3910, 17484.00
503.5740, 16784.00
504.7570, 16178.00
505.9400, 15689.00
507.1220, 15192.00
508.3050, 14504.00
509.4870, 14060.00
510.6690, 13753.00
511.8510, 13345.00
513.0330, 13083.68
514.2140, 12926.00
515.3960, 12647.00
516.5770, 12312.00
517.7580, 12210.00
518.9390, 12007.00
520.1200, 11805.00
521.3010, 11751.00
522.4810, 11599.00
523.6610, 11566.00
524.8420, 11275.00
526.0220, 11200.00
527.2010, 11084.00
528.3810, 11099.00
529.5610, 11176.00
530.7400, 11119.00
531.9190, 11068.00
533.0980, 10936.00
534.2770, 10880.00
535.4560, 10832.68
536.6340, 10789.54
537.8120, 10751.00
538.9910, 10773.00
540.1690, 10714.00
541.3460, 10722.00
542.5240, 10875.00
543.7020, 10745.00
544.8790, 10715.00
546.0560, 10554.00
547.2330, 10575.00
548.4100, 10728.00
549.5870, 10500.00
550.7630, 10792.00
551.9400, 10825.00
553.1160, 10737.00
554.2920, 10606.00
555.4680, 10638.00
556.6440, 10653.00
557.8190, 10682.00
558.9950, 10602.00
560.1700, 10633.00
561.3450, 10672.00
562.5200, 10776.00
563.6950, 10766.00
564.8690, 10817.00
566.0440, 10953.00
567.2180, 10839.00
568.3920, 10782.00
569.5660, 10885.00
570.7400, 10989.00
571.9130, 10862.00
573.0870, 10885.00
574.2600, 11006.00
575.4330, 10783.00
576.6060, 10900.00
577.7790, 11042.00
578.9520, 11005.00
580.1240, 10943.00
581.2960, 11020.00
582.4690, 11197.00
583.6410, 11134.00
584.8120, 11336.00
585.9840, 11407.00
587.1560, 11501.00
588.3270, 11568.00
589.4980, 11648.00
590.6690, 11927.00
591.8400, 12196.00
593.0110, 12817.00
594.1810, 13156.00
595.3510, 13587.00
596.5220, 14113.00
597.6920, 14420.00
598.8610, 14737.00
600.0310, 15201.00
601.2010, 15305.00
602.3700, 15310.00
603.5390, 15340.00
604.7080, 14784.00
605.8770, 14181.00
607.0460, 13845.00
608.2140, 13430.47
609.3830, 13150.00
610.5510, 12881.00
611.7190, 12731.00
612.8870, 12610.00
614.0550, 12581.00
615.2220, 12664.00
616.3900, 12678.00
617.5570, 12730.00
618.7240, 12994.00
619.8910, 13252.00
621.0580, 13375.00
622.2240, 13845.00
623.3910, 14199.00
624.5570, 14746.00
625.7230, 14996.00
626.8890, 15439.00
628.0550, 15970.00
629.2200, 16358.00
630.3860, 16523.00
631.5510, 17077.00
632.7160, 17389.00
633.8810, 17836.00
635.0460, 18453.00
636.2100, 19260.00
637.3750, 20762.00
638.5390, 22117.00
639.7030, 23885.00
640.8670, 25448.00
642.0310, 26848.00
643.1950, 28398.00
644.3580, 29508.00
645.5210, 29978.00
646.6850, 29199.00
647.8480, 27475.00
649.0100, 25372.00
650.1730, 22562.00
651.3350, 20303.00
652.4980, 18314.00
653.6600, 16682.00
654.8220, 15594.00
655.9840, 14607.00
657.1450, 14149.00
658.3070, 13623.00
659.4680, 13243.00
660.6300, 12902.00
661.7910, 12733.00
662.9510, 12488.00
664.1120, 12283.00
665.2730, 12214.00
666.4330, 12144.00
667.5930, 11930.00
668.7530, 11805.00
669.9130, 11734.00
671.0730, 11912.00
672.2320, 11758.00
673.3920, 11711.00
674.5510, 11535.00
675.7100, 11578.00
676.8690, 11566.00
678.0280, 11586.00
679.1860, 11681.00
680.3450, 11500.00
681.5030, 11444.00
682.6610, 11533.00
683.8190, 11563.00
684.9770, 11426.00
686.1340, 11327.00
687.2920, 11310.00
688.4490, 11313.00
689.6060, 11269.35
690.7630, 11461.00
691.9200, 11332.00
693.0760, 11271.00
694.2330, 11485.00
695.3890, 11336.00
696.5450, 11364.00
697.7010, 11292.00
698.8570, 11362.00
700.0130, 11374.00
701.1680, 11308.00
702.3230, 11356.00
703.4780, 11317.00
704.6330, 11357.00
705.7880, 11364.00
706.9430, 11398.00
708.0970, 11307.00
709.2520, 11375.00
710.4060, 11348.00
711.5600, 11572.00
712.7140, 11505.00
713.8670, 11515.00
715.0210, 11415.00
716.1740, 11366.00
717.3270, 11431.00
718.4800, 11353.00
719.6330, 11252.00
720.7860, 11338.00
721.9380, 11350.00
723.0910, 11480.00
724.2430, 11406.00
725.3950, 11320.00
726.5470, 11362.00
727.6980, 11347.00
728.8500, 11390.00
730.0010, 11547.00
731.1530, 11445.00
732.3040, 11501.00
733.4550, 11504.00
734.6050, 11452.00
735.7560, 11543.00
736.9060, 11552.00
738.0560, 11537.00
739.2060, 11464.00
740.3560, 11570.00
741.5060, 11566.00
742.6560, 11497.00
743.8050, 11691.00
744.9540, 11681.00
746.1030, 11626.00
747.2520, 11737.00
748.4010, 11702.06
749.5500, 11742.00
750.6980, 11747.00
751.8460, 11695.00
752.9950, 11748.00
754.1420, 11796.00
755.2900, 11857.00
756.4380, 11949.00
757.5850, 11918.00
758.7330, 11876.00
759.8800, 11884.00
761.0270, 11801.00
762.1730, 11998.00
763.3200, 11958.00
764.4670, 11888.00
765.6130, 12080.00
766.7590, 12072.00
767.9050, 12187.00
769.0510, 12144.00
770.1960, 12054.00
771.3420, 12255.00
772.4870, 12162.00
773.6320, 12318.00
774.7770, 12282.00
775.9220, 12495.00
777.0670, 12480.00
778.2110, 12536.00
779.3560, 12629.00
780.5000, 12868.00
781.6440, 12975.00
782.7880, 13080.00
783.9320, 13098.00
785.0750, 13494.00
786.2180, 13609.00
787.3620, 13975.00
788.5050, 14158.00
789.6480, 14373.00
790.7900, 14763.00
791.9330, 15059.00
793.0750, 15346.00
794.2170, 15593.00
795.3590, 15982.00
796.5010, 16143.00
797.6430, 16654.00
798.7850, 16793.00
799.9260, 17097.00
801.0670, 17361.00
802.2080, 17420.00
803.3490, 17760.00
804.4900, 17785.00
805.6310, 17652.00
806.7710, 17731.00
807.9110, 17595.00
809.0510, 17719.00
810.1910, 17595.00
811.3310, 17475.00
812.4710, 17190.00
813.6100, 17038.00
814.7490, 16842.32
815.8880, 16579.16
817.0270, 16480.00
818.1660, 16167.00
819.3050, 16014.00
820.4430, 16000.00
821.5820, 15591.00
822.7200, 15336.00
823.8580, 14915.00
824.9950, 14934.00
826.1330, 14825.00
827.2710, 14564.00
828.4080, 14426.00
829.5450, 14164.00
830.6820, 13996.00
831.8190, 13913.00
832.9560, 13670.00
834.0920, 13391.00
835.2280, 13564.00
836.3650, 13476.00
837.5010, 13478.00
838.6360, 13146.00
839.7720, 13282.00
840.9080, 13099.00
842.0430, 13057.00
843.1780, 13017.00
844.3130, 13010.00
845.4480, 12955.00
846.5830, 12881.00
847.7170, 12996.00
848.8520, 12878.00
849.9860, 12884.00
851.1200, 12993.00
852.2540, 12979.00
853.3870, 12966.00
854.5210, 13006.00
855.6540, 12859.00
856.7880, 12965.00
857.9210, 12933.00
859.0540, 12999.00
860.1860, 12939.00
861.3190, 13084.00
862.4510, 13064.00
863.5840, 12926.00
864.7160, 12828.00
865.8480, 13091.00
866.9790, 13013.00
868.1110, 13068.00
869.2420, 13010.00
870.3740, 13149.00
871.5050, 13131.00
872.6360, 13142.00
873.7660, 12939.00
874.8970, 13013.00
876.0280, 13157.00
877.1580, 13033.00
878.2880, 13307.00
879.4180, 13160.00
880.5480, 13164.00
881.6770, 13034.00
882.8070, 13251.00
883.9360, 13038.00
885.0650, 13256.00
886.1940, 13215.00
887.3230, 13247.00
888.4520, 13269.00
889.5800, 13195.00
890.7090, 13200.00
891.8370, 13212.00
892.9650, 13292.00
894.0930, 13193.00
895.2200, 13226.00
896.3480, 13256.00
897.4750, 13380.00
898.6020, 13289.00
899.7290, 13332.00
900.8560, 13402.00
901.9830, 13337.00
903.1090, 13284.00
904.2360, 13424.00
905.3620, 13417.00
906.4880, 13551.00
907.6140, 13560.00
908.7400, 13599.32
909.8650, 13516.00
910.9900, 13643.00
912.1160, 13587.00
913.2410, 13575.00
914.3660, 13742.00
915.4900, 13561.00
916.6150, 13442.00
917.7390, 13612.00
918.8640, 13714.00
919.9880, 13638.00
921.1120, 13689.00
922.2350, 13745.00
923.3590, 13657.00
924.4820, 13812.00
925.6060, 13704.00
926.7290, 13874.00
927.8520, 13759.00
928.9740, 13884.00
930.0970, 13888.00
931.2190, 13984.00
932.3420, 14004.00
933.4640, 13934.00
934.5860, 13860.00
935.7080, 13900.00
936.8290, 13945.00
937.9510, 13981.00
939.0720, 13984.00
940.1930, 14158.00
941.3140, 14200.00
942.4350, 14154.00
943.5560, 13987.00
944.6760, 14134.00
945.7960, 14190.00
946.9170, 14178.00
948.0370, 14382.00
949.1560, 14456.00
950.2760, 14404.00
951.3960, 14270.00
952.5150, 14470.00
953.6340, 14408.00
954.7530, 14619.00
955.8720, 14589.00
956.9910, 14670.00
958.1090, 14866.00
959.2280, 14757.00
960.3460, 14735.00
961.4640, 14837.00
962.5820, 15131.00
963.6990, 15108.00
964.8170, 15154.00
965.9340, 15083.00
967.0510, 15210.00
968.1690, 15331.00
969.2850, 15343.00
970.4020, 15352.00
971.5190, 15525.00
972.6350, 15683.00
973.7510, 15628.00
974.8670, 15721.00
975.9830, 15974.00
977.0990, 16086.00
978.2150, 16119.00
979.3300, 16368.00
980.4450, 16466.00
981.5600, 16594.00
982.6750, 17052.00
983.7900, 17426.00
984.9050, 17556.00
986.0190, 17931.00
987.1340, 18268.00
988.2480, 18755.00
989.3620, 19227.00
990.4750, 20066.00
991.5890, 20970.00
992.7020, 21903.00
993.8160, 22345.00
994.9290, 23388.00
996.0420, 24651.00
997.1550, 25710.50
998.2670, 27377.00
999.3800, 28753.00
1000.492, 30414.00
1001.604, 32724.00
1002.716, 34094.00
1003.828, 36193.00
1004.940, 37555.00
1006.051, 39513.00
1007.163, 41242.00
1008.274, 41871.00
1009.385, 42049.00
1010.496, 42110.00
1011.606, 41581.00
1012.717, 40143.00
1013.827, 38781.00
1014.937, 37250.00
1016.047, 35385.00
1017.157, 33286.00
1018.267, 31886.00
1019.377, 30056.00
1020.486, 28615.00
1021.595, 27575.00
1022.704, 26599.00
1023.813, 25716.00
1024.922, 25254.00
1026.030, 24978.00
1027.139, 24741.00
1028.247, 25029.00
1029.355, 25124.00
1030.463, 25472.00
1031.571, 25955.00
1032.678, 26464.00
1033.786, 27420.00
1034.893, 28383.00
1036.000, 29524.00
1037.107, 30550.00
1038.214, 31721.00
1039.321, 32529.00
1040.427, 33610.00
1041.533, 34319.00
1042.639, 35615.00
1043.745, 36440.00
1044.851, 37493.00
1045.957, 38016.00
1047.062, 39092.00
1048.168, 39738.00
1049.273, 40503.00
1050.378, 41694.00
1051.482, 42915.00
1052.587, 44586.00
1053.692, 46369.00
1054.796, 48660.00
1055.900, 51394.00
1057.004, 54259.00
1058.108, 57149.00
1059.212, 58730.00
1060.315, 60485.00
1061.418, 60698.00
1062.522, 59587.00
1063.625, 57102.00
1064.728, 53695.00
1065.830, 48923.00
1066.933, 44461.00
1068.035, 39888.00
1069.137, 35931.00
1070.239, 31952.00
1071.341, 29448.00
1072.443, 27075.00
1073.545, 25545.00
1074.646, 24076.00
1075.747, 22981.00
1076.848, 21964.00
1077.949, 21389.00
1079.050, 20800.00
1080.150, 20160.00
1081.251, 19783.00
1082.351, 19454.00
1083.451, 19311.00
1084.551, 19333.00
1085.651, 19158.00
1086.750, 19116.00
1087.850, 19192.00
1088.949, 18930.00
1090.048, 18866.00
1091.147, 18492.00
1092.246, 18426.00
1093.345, 18681.00
1094.443, 18609.00
1095.541, 18901.00
1096.639, 18781.00
1097.737, 19093.00
1098.835, 19111.00
1099.933, 19315.00
1101.030, 19630.00
1102.128, 19968.00
1103.225, 20467.00
1104.322, 20809.00
1105.419, 21480.00
1106.515, 21608.00
1107.612, 22005.00
1108.708, 22761.00
1109.804, 22772.00
1110.900, 22945.00
1111.996, 23092.00
1113.092, 23281.00
1114.187, 23568.00
1115.283, 23550.00
1116.378, 23438.00
1117.473, 23792.00
1118.568, 23695.00
1119.662, 23443.00
1120.757, 23421.00
1121.851, 23192.00
1122.946, 23041.00
1124.040, 22615.00
1125.134, 22344.00
1126.227, 22105.00
1127.321, 21792.00
1128.414, 21680.00
1129.508, 21345.00
1130.601, 20980.00
1131.693, 20863.00
1132.786, 20422.00
1133.879, 20128.00
1134.971, 20034.00
1136.064, 19664.00
1137.156, 19346.00
1138.248, 19204.00
1139.339, 18764.00
1140.431, 18543.00
1141.522, 18403.00
1142.614, 18326.00
1143.705, 18182.13
1144.796, 18001.00
1145.887, 17989.00
1146.977, 17805.00
1148.068, 17690.00
1149.158, 17733.00
1150.248, 17801.00
1151.338, 17813.00
1152.428, 17817.00
1153.518, 17660.00
1154.607, 17832.00
1155.696, 17635.00
1156.785, 17623.00
1157.874, 17912.00
1158.963, 17660.00
1160.052, 17520.00
1161.141, 17664.00
1162.229, 17565.00
1163.317, 17585.00
1164.405, 17424.00
1165.493, 17431.00
1166.581, 17524.00
1167.668, 17450.00
1168.756, 17503.00
1169.843, 17559.00
1170.930, 17521.00
1172.017, 17606.00
1173.103, 17566.00
1174.190, 17922.00
1175.276, 17638.00
1176.363, 17961.00
1177.449, 17929.00
1178.535, 17866.00
1179.620, 17914.00
1180.706, 18013.28
1181.791, 18165.52
1182.877, 18369.00
1183.962, 18606.00
1185.047, 18908.00
1186.131, 19130.00
1187.216, 19402.00
1188.300, 19476.00
1189.385, 19691.00
1190.469, 19975.00
1191.553, 19938.00
1192.637, 20139.00
1193.720, 20253.00
1194.804, 20127.00
1195.887, 20477.00
1196.970, 20499.00
1198.053, 20617.00
1199.136, 20620.00
1200.219, 20523.30
1201.301, 20547.00
1202.383, 20416.00
1203.465, 20267.00
1204.547, 20558.00
1205.629, 20275.00
1206.711, 20237.00
1207.792, 19856.00
1208.874, 19912.00
1209.955, 19596.00
1211.036, 19582.00
1212.117, 19569.00
1213.198, 19323.00
1214.278, 19039.00
1215.359, 18950.00
1216.439, 18635.00
1217.519, 18757.00
1218.599, 18289.00
1219.678, 18302.00
1220.758, 18098.00
1221.837, 18198.00
1222.917, 18081.00
1223.996, 17678.00
1225.075, 17698.00
1226.153, 17661.00
1227.232, 17618.00
1228.310, 17497.00
1229.389, 17628.00
1230.467, 17273.00
1231.545, 17524.00
1232.622, 17554.00
1233.700, 17491.00
1234.777, 17237.00
1235.855, 17366.00
1236.932, 17386.00
1238.009, 17451.00
1239.086, 17182.00
1240.162, 17230.00
1241.239, 17238.00
1242.315, 17346.00
1243.391, 17356.00
1244.467, 17277.00
1245.543, 17278.00
1246.619, 17342.00
1247.694, 17310.00
1248.769, 17246.00
1249.844, 17325.00
1250.919, 17293.74
1251.994, 17386.00
1253.069, 17310.00
1254.144, 17383.00
1255.218, 17366.00
1256.292, 17506.00
1257.366, 17351.00
1258.440, 17446.00
1259.514, 17339.00
1260.587, 17348.00
1261.661, 17346.00
1262.734, 17461.00
1263.807, 17440.07
1264.880, 17483.00
1265.952, 17494.00
1267.025, 17431.10
1268.097, 17497.00
1269.170, 17438.00
1270.242, 17421.00
1271.314, 17558.00
1272.385, 17502.00
1273.457, 17597.00
1274.528, 17584.00
1275.600, 17512.00
1276.671, 17520.00
1277.742, 17735.00
1278.812, 17777.00
1279.883, 17618.00
1280.954, 17722.00
1282.024, 17451.00
1283.094, 17828.00
1284.164, 17905.00
1285.234, 17606.00
1286.303, 17754.00
1287.373, 17732.00
1288.442, 17768.00
1289.511, 17751.00
1290.580, 17854.00
1291.649, 17904.00
1292.718, 17908.00
1293.786, 17939.00
1294.855, 18005.69
1295.923, 17968.00
1296.991, 18047.00
1298.059, 17946.00
1299.126, 17965.65
1300.194, 17936.00
1301.261, 17948.00
1302.328, 17920.00
1303.395, 17939.00
1304.462, 18086.00
1305.529, 18081.00
1306.596, 17998.00
1307.662, 17901.00
1308.728, 17940.00
1309.794, 18065.00
1310.860, 17911.00
1311.926, 18085.00
1312.991, 18039.00
1314.057, 17957.00
1315.122, 18143.00
1316.187, 17977.00
1317.252, 18087.00
1318.317, 18123.00
1319.381, 18106.45
1320.446, 18246.00
1321.510, 18179.00
1322.574, 18195.00
1323.638, 18248.00
1324.702, 18244.00
1325.766, 18165.00
1326.829, 17973.00
1327.892, 18263.00
1328.956, 18378.00
1330.019, 18174.00
1331.081, 18112.00
1332.144, 18141.00
1333.206, 18371.00
1334.269, 18428.00
1335.331, 18181.00
1336.393, 18401.00
1337.455, 18271.00
1338.516, 18310.00
1339.578, 18523.00
1340.639, 18360.00
1341.701, 18382.00
1342.762, 18187.00
1343.822, 18222.48
1344.883, 18465.00
1345.944, 18283.00
1347.004, 18463.00
1348.064, 18557.00
1349.124, 18524.00
1350.184, 18458.00
1351.244, 18311.00
1352.304, 18564.00
1353.363, 18494.00
1354.422, 18445.00
1355.481, 18493.00
1356.540, 18447.00
1357.599, 18510.00
1358.657, 18590.00
1359.716, 18521.00
1360.774, 18509.00
1361.832, 18357.00
1362.890, 18420.51
1363.948, 18365.00
1365.006, 18525.00
1366.063, 18559.00
1367.120, 18662.00
1368.178, 18480.00
1369.234, 18441.00
1370.291, 18579.00
1371.348, 18900.00
1372.404, 18765.85
1373.461, 18847.28
1374.517, 18649.00
1375.573, 18753.00
1376.629, 18636.00
1377.684, 18623.00
1378.740, 18620.00
1379.795, 18634.00
1380.850, 18435.00
1381.905, 18745.00
1382.960, 18646.00
1384.015, 18790.00
1385.070, 18524.00
1386.124, 18681.00
1387.178, 18728.00
1388.232, 18675.00
1389.286, 18799.00
1390.340, 18729.00
1391.393, 18772.00
1392.447, 18883.00
1393.500, 18755.00
1394.553, 18677.00
1395.606, 18906.00
1396.659, 18734.00
1397.711, 18752.00
1398.764, 18954.00
1399.816, 18772.00
1400.868, 18847.00
1401.920, 18836.00
1402.972, 18730.00
1404.023, 18892.00
1405.075, 18898.00
1406.126, 18935.00
1407.177, 18924.00
1408.228, 18989.00
1409.279, 19039.00
1410.330, 19084.24
1411.380, 19093.48
1412.431, 19089.21
1413.481, 19083.00
1414.531, 19047.00
1415.580, 19028.00
1416.630, 19026.00
1417.680, 18966.00
1418.729, 19106.00
1419.778, 18913.00
1420.827, 19046.00
1421.876, 18921.00
1422.925, 19116.00
1423.973, 19171.00
1425.022, 19271.00
1426.070, 19298.00
1427.118, 19244.00
1428.166, 19278.00
1429.214, 19239.00
1430.261, 19269.00
1431.309, 19409.00
1432.356, 19214.00
1433.403, 19328.00
1434.450, 19635.00
1435.497, 19421.00
1436.543, 19514.00
1437.590, 19385.00
1438.636, 19725.00
1439.682, 19434.00
1440.728, 19584.00
1441.774, 19562.00
1442.819, 19515.00
1443.865, 19614.00
1444.910, 19666.00
1445.955, 19671.00
1447.000, 19503.00
1448.045, 19638.00
1449.090, 19629.00
1450.134, 19565.00
1451.178, 19701.00
1452.223, 19825.00
1453.267, 19796.00
1454.310, 19640.00
1455.354, 19628.00
1456.398, 19699.00
1457.441, 19762.00
1458.484, 19785.00
1459.527, 19705.00
1460.570, 19766.00
1461.613, 19720.86
1462.655, 19731.00
1463.698, 19686.00
1464.740, 19593.00
1465.782, 19593.00
1466.824, 19610.13
1467.866, 19645.00
1468.907, 19680.00
1469.948, 19794.00
1470.990, 19772.00
1472.031, 19801.00
1473.072, 19811.00
1474.112, 19804.90
1475.153, 19858.74
1476.194, 19794.00
1477.234, 19928.00
1478.274, 19913.00
1479.314, 19889.00
1480.354, 19926.33
1481.393, 19775.00
1482.433, 19885.00
1483.472, 19917.00
1484.511, 19850.00
1485.550, 19953.00
1486.589, 19947.00
1487.628, 19903.00
1488.666, 19917.00
1489.704, 20158.00
1490.743, 20180.00
1491.781, 20091.00
1492.819, 20263.00
1493.856, 20214.00
1494.894, 20361.00
1495.931, 20344.00
1496.968, 20463.00
1498.005, 20494.00
1499.042, 20636.00
1500.079, 20748.00
1501.115, 20782.00
1502.152, 20920.64
1503.188, 20991.43
1504.224, 21099.00
1505.260, 21104.00
1506.296, 21125.00
1507.331, 21039.00
1508.367, 21052.00
1509.402, 21223.00
1510.437, 21079.00
1511.472, 20999.00
1512.507, 20813.00
1513.541, 20807.00
1514.576, 20799.00
1515.610, 20759.00
1516.644, 20822.00
1517.678, 20506.00
1518.712, 20689.00
1519.746, 20644.00
1520.779, 20474.00
1521.813, 20836.00
1522.846, 20594.00
1523.879, 20790.00
1524.912, 20600.00
1525.944, 20530.00
1526.977, 20576.00
1528.009, 20433.00
1529.041, 20585.00
1530.073, 20539.00
1531.105, 20586.00
1532.137, 20533.00
1533.168, 20407.00
1534.200, 20494.00
1535.231, 20423.00
1536.262, 20365.00
1537.293, 20352.00
1538.324, 20529.00
1539.354, 20413.21
1540.385, 20464.00
1541.415, 20394.00
1542.445, 20451.00
1543.475, 20595.00
1544.505, 20551.00
1545.534, 20591.00
1546.564, 20466.00
1547.593, 20607.00
1548.622, 20613.00
1549.651, 20595.00
1550.680, 20708.00
1551.708, 20629.00
1552.737, 20748.00
1553.765, 20766.66
1554.793, 20729.47
1555.821, 20782.00
1556.849, 20705.00
1557.877, 20563.00
1558.904, 20609.00
1559.932, 20559.00
1560.959, 20698.00
1561.986, 20732.00
1563.013, 20795.00
1564.039, 20781.00
1565.066, 20913.00
1566.092, 20837.00
1567.119, 20855.00
1568.145, 20845.00
1569.170, 21025.00
1570.196, 20866.00
1571.222, 21135.00
1572.247, 20929.00
1573.272, 20961.00
1574.297, 21179.00
1575.322, 21268.00
1576.347, 21232.00
##END=



