##NAMES=Montebrasite
##RRUFFID=R040060
##IDEAL CHEMISTRY=LiAlPO_4_(OH)
##LOCALITY=Oxford County, Maine, USA
##OWNER=RRUFF
##SOURCE=University of Arizona Mineral Museum
##DESCRIPTION=White massive
##STATUS=The identification of this mineral has been confirmed by X-ray diffraction and chemical analysis
##URL=rruff.info/R040060
##MEASURED CHEMISTRY=LiAl(PO_4_)((OH)_0.79_F_0.21_)
##PIN_ID=L00066
##ORIENTATION=Laser parallel to (0 -1 -1). Fiducial mark perpendicular to laser is parallel to a [1 0 0]
150.354, 14940.000
151.742, 14970.000
153.130, 14970.000
154.517, 15130.000
155.905, 15300.000
157.292, 15190.000
158.679, 15310.000
160.066, 15550.000
161.452, 15750.000
162.839, 16170.000
164.225, 15920.000
165.611, 15870.000
166.996, 15860.000
168.381, 15920.000
169.767, 16000.000
171.152, 15960.000
172.536, 16040.000
173.921, 16080.000
175.305, 16150.000
176.689, 16450.000
178.073, 16350.000
179.456, 16140.000
180.839, 16330.000
182.222, 16450.000
183.605, 16460.000
184.988, 16580.000
186.370, 16470.000
187.752, 16670.000
189.134, 16750.000
190.516, 16780.000
191.898, 16770.000
193.279, 16750.000
194.660, 16880.000
196.041, 16770.000
197.421, 16970.000
198.801, 16900.000
200.182, 16950.000
201.561, 16990.000
202.941, 16750.000
204.321, 16800.000
205.700, 16850.000
207.079, 16930.000
208.457, 16880.000
209.836, 16890.000
211.214, 16900.000
212.592, 16950.000
213.970, 17010.000
215.348, 17020.000
216.725, 17210.000
218.102, 17190.000
219.479, 17060.000
220.856, 17340.000
222.232, 17420.000
223.608, 17190.000
224.984, 17400.000
226.360, 17320.000
227.736, 17560.000
229.111, 17510.000
230.486, 17590.000
231.861, 17680.000
233.236, 17550.000
234.610, 17700.000
235.984, 17570.000
237.358, 17900.000
238.732, 17810.000
240.105, 17730.000
241.479, 17890.000
242.852, 17850.000
244.224, 18020.000
245.597, 17960.000
246.969, 18010.000
248.342, 18060.000
249.713, 18120.000
251.085, 18150.000
252.457, 18220.000
253.828, 18130.000
255.199, 18230.000
256.570, 18300.000
257.940, 18400.000
259.310, 18470.000
260.681, 18420.000
262.050, 18490.000
263.420, 18520.000
264.790, 18600.000
266.159, 18770.000
267.528, 18800.000
268.896, 18810.000
270.265, 19010.000
271.633, 19070.000
273.001, 19150.000
274.369, 19220.000
275.737, 19310.000
277.104, 19400.000
278.471, 19500.000
279.838, 19460.000
281.205, 19520.000
282.572, 19440.000
283.938, 19610.000
285.304, 19500.000
286.670, 19700.000
288.035, 19660.000
289.401, 19960.000
290.766, 19860.000
292.131, 20270.000
293.495, 20780.000
294.860, 21200.000
296.224, 21850.000
297.588, 22270.000
298.952, 22590.000
300.315, 22560.000
301.679, 22370.000
303.042, 22000.000
304.405, 21510.000
305.767, 21460.000
307.130, 21170.000
308.492, 21090.000
309.854, 21020.000
311.216, 21030.000
312.578, 21000.000
313.939, 20960.000
315.300, 20840.000
316.661, 20820.000
318.021, 20700.000
319.382, 20800.000
320.742, 20840.000
322.102, 20930.000
323.462, 20850.000
324.821, 20800.000
326.181, 20670.000
327.540, 20670.000
328.899, 20760.000
330.257, 20680.000
331.616, 20660.000
332.974, 20590.000
334.332, 20700.000
335.690, 20850.000
337.047, 20800.000
338.405, 20840.000
339.762, 20970.000
341.119, 20790.000
342.475, 20820.000
343.832, 20920.000
345.188, 20980.000
346.544, 20750.000
347.900, 21040.000
349.255, 20840.000
350.610, 21090.000
351.965, 21180.000
353.320, 21200.000
354.675, 21100.000
356.029, 21050.000
357.384, 21470.000
358.738, 21230.000
360.091, 21190.000
361.445, 21440.000
362.798, 21500.000
364.151, 21640.000
365.504, 21530.000
366.857, 21510.000
368.209, 21630.000
369.561, 21620.000
370.913, 21630.000
372.265, 21710.000
373.617, 21750.000
374.968, 21680.000
376.319, 21780.000
377.670, 21970.000
379.021, 21880.000
380.371, 21980.000
381.721, 22060.000
383.071, 22020.000
384.421, 22020.000
385.770, 22020.000
387.120, 22200.000
388.469, 22270.000
389.818, 22290.000
391.166, 22450.000
392.515, 22400.000
393.863, 22360.000
395.211, 22480.000
396.559, 22520.000
397.906, 22420.000
399.254, 22600.000
400.601, 22670.000
401.948, 22470.000
403.294, 22720.000
404.641, 22790.000
405.987, 22730.000
407.333, 22950.000
408.679, 22780.000
410.025, 23030.000
411.370, 22830.000
412.715, 23030.000
414.060, 23030.000
415.405, 23050.000
416.749, 23030.000
418.093, 23290.000
419.437, 23410.000
420.781, 23300.000
422.125, 23980.000
423.468, 24280.000
424.811, 24980.000
426.154, 25270.000
427.497, 25280.000
428.839, 25500.000
430.182, 24960.000
431.524, 24630.000
432.866, 24280.000
434.207, 24120.000
435.549, 23850.000
436.890, 23710.000
438.231, 23820.000
439.572, 23810.000
440.912, 23630.000
442.252, 23950.000
443.593, 23780.000
444.932, 23910.000
446.272, 23970.000
447.611, 23910.000
448.951, 23940.000
450.290, 23960.000
451.628, 24150.000
452.967, 24120.000
454.305, 24010.000
455.644, 24220.000
456.981, 24080.000
458.319, 24230.000
459.657, 24240.000
460.994, 24300.000
462.331, 24260.000
463.668, 24410.000
465.004, 24460.000
466.341, 24350.000
467.677, 24560.000
469.013, 24490.000
470.348, 24600.000
471.684, 24780.000
473.019, 24740.000
474.354, 24780.000
475.689, 24740.000
477.024, 25120.000
478.358, 25370.000
479.692, 25200.000
481.026, 25420.000
482.360, 25390.000
483.694, 25570.000
485.027, 25480.000
486.360, 25320.000
487.693, 25720.000
489.026, 25670.000
490.358, 25600.000
491.691, 25640.000
493.023, 25690.000
494.354, 25720.000
495.686, 25700.000
497.017, 25720.000
498.349, 25770.000
499.680, 25790.000
501.010, 25820.000
502.341, 25740.000
503.671, 25770.000
505.001, 25750.000
506.331, 25860.000
507.661, 25880.000
508.990, 25740.000
510.319, 25910.000
511.648, 25800.000
512.977, 25840.000
514.306, 25740.000
515.634, 25950.000
516.962, 26030.000
518.290, 25860.000
519.618, 26010.000
520.945, 26090.000
522.273, 26040.000
523.600, 26130.000
524.927, 25840.000
526.253, 26070.000
527.580, 26080.000
528.906, 26150.000
530.232, 26370.000
531.558, 26190.000
532.883, 26320.000
534.208, 26390.000
535.534, 26540.000
536.858, 26300.000
538.183, 26490.000
539.508, 26580.000
540.832, 26660.000
542.156, 26680.000
543.480, 26610.000
544.803, 26660.000
546.127, 26790.000
547.450, 26790.000
548.773, 26780.000
550.096, 27000.000
551.418, 26980.000
552.741, 27000.000
554.063, 26970.000
555.385, 26950.000
556.706, 27220.000
558.028, 27350.000
559.349, 27210.000
560.670, 27210.000
561.991, 27290.000
563.312, 27040.000
564.632, 27520.000
565.952, 27220.000
567.272, 27460.000
568.592, 27470.000
569.911, 27480.000
571.231, 27710.000
572.550, 27320.000
573.869, 27600.000
575.187, 27670.000
576.506, 27670.000
577.824, 27780.000
579.142, 27630.000
580.460, 27950.000
581.778, 27970.000
583.095, 28110.000
584.412, 27760.000
585.729, 28200.000
587.046, 28010.000
588.363, 28210.000
589.679, 28210.000
590.995, 28390.000
592.311, 28480.000
593.627, 28540.000
594.942, 28590.000
596.258, 28740.000
597.573, 29120.000
598.888, 29060.000
600.202, 29200.000
601.517, 29450.000
602.831, 29670.000
604.145, 29410.000
605.459, 29320.000
606.772, 29490.000
608.086, 29350.000
609.399, 29330.000
610.712, 29190.000
612.024, 29130.000
613.337, 29290.000
614.649, 29200.000
615.961, 29240.000
617.273, 29450.000
618.585, 29120.000
619.896, 29410.000
621.208, 29410.000
622.519, 29370.000
623.829, 29750.000
625.140, 29760.000
626.450, 29990.000
627.761, 30090.000
629.071, 30340.000
630.380, 30410.000
631.690, 30300.000
632.999, 30280.000
634.308, 30510.000
635.617, 30100.000
636.926, 30270.000
638.235, 30430.000
639.543, 31350.000
640.851, 33010.000
642.159, 31560.000
643.466, 31950.000
644.774, 32810.000
646.081, 32970.000
647.388, 32890.000
648.695, 32710.000
650.002, 32790.000
651.308, 32150.000
652.614, 32040.000
653.920, 31030.000
655.226, 30840.000
656.531, 30740.000
657.837, 30470.000
659.142, 30700.000
660.447, 30450.000
661.752, 30740.000
663.056, 30690.000
664.360, 30540.000
665.664, 30780.000
666.968, 30570.000
668.272, 30760.000
669.575, 30840.000
670.879, 30770.000
672.182, 30840.000
673.484, 30870.000
674.787, 31050.000
676.089, 30960.000
677.392, 31070.000
678.694, 30900.000
679.995, 31000.000
681.297, 31090.000
682.598, 31070.000
683.899, 31160.000
685.200, 31260.000
686.501, 31150.000
687.802, 31380.000
689.102, 31410.000
690.402, 31360.000
691.702, 31360.000
693.002, 31540.000
694.301, 31480.000
695.600, 31390.000
696.899, 31710.000
698.198, 31730.000
699.497, 31690.000
700.795, 31700.000
702.093, 31620.000
703.391, 31820.000
704.689, 32000.000
705.987, 31880.000
707.284, 32130.000
708.581, 32050.000
709.878, 32200.000
711.175, 32120.000
712.472, 32130.000
713.768, 32590.000
715.064, 32150.000
716.360, 32140.000
717.656, 32610.000
718.951, 32290.000
720.247, 32460.000
721.542, 32560.000
722.837, 32400.000
724.131, 32620.000
725.426, 32540.000
726.720, 32650.000
728.014, 32560.000
729.308, 32640.000
730.601, 32800.000
731.895, 32650.000
733.188, 32970.000
734.481, 32710.000
735.774, 33000.000
737.067, 32970.000
738.359, 32900.000
739.651, 33190.000
740.943, 33210.000
742.235, 33050.000
743.526, 33250.000
744.818, 33270.000
746.109, 33340.000
747.400, 33290.000
748.691, 33590.000
749.981, 33610.000
751.271, 33430.000
752.562, 33620.000
753.851, 33550.000
755.141, 33690.000
756.431, 33640.000
757.720, 33790.000
759.009, 33810.000
760.298, 33830.000
761.587, 33910.000
762.875, 33920.000
764.163, 34080.000
765.451, 34180.000
766.739, 34250.000
768.027, 34080.000
769.314, 34340.000
770.601, 34220.000
771.888, 34180.000
773.175, 34270.000
774.462, 34160.000
775.748, 34550.000
777.034, 34260.000
778.320, 34330.000
779.606, 34540.000
780.892, 34820.000
782.177, 34830.000
783.462, 34620.000
784.747, 34890.000
786.032, 34950.000
787.317, 34980.000
788.601, 35000.000
789.885, 35220.000
791.169, 35130.000
792.453, 35410.000
793.736, 35280.000
795.019, 35550.000
796.303, 35580.000
797.585, 35640.000
798.868, 35830.000
800.151, 35880.000
801.433, 35730.000
802.715, 36230.000
803.997, 35800.000
805.279, 36140.000
806.560, 35930.000
807.841, 36050.000
809.122, 36070.000
810.403, 35670.000
811.684, 36120.000
812.964, 35870.000
814.245, 36090.000
815.525, 36310.000
816.804, 36110.000
818.084, 36220.000
819.363, 36380.000
820.643, 36020.000
821.922, 36370.000
823.201, 36260.000
824.479, 36310.000
825.758, 36380.000
827.036, 36360.000
828.314, 36320.000
829.592, 36490.000
830.869, 36580.000
832.147, 36360.000
833.424, 36490.000
834.701, 36620.000
835.977, 36320.000
837.254, 36930.000
838.530, 36670.000
839.807, 36810.000
841.082, 36800.000
842.358, 36700.000
843.634, 37080.000
844.909, 37170.000
846.184, 36920.000
847.459, 37260.000
848.734, 36910.000
850.008, 37120.000
851.283, 37230.000
852.557, 37270.000
853.831, 37630.000
855.105, 37290.000
856.378, 37530.000
857.651, 37460.000
858.925, 37190.000
860.197, 37790.000
861.470, 37630.000
862.743, 37650.000
864.015, 37910.000
865.287, 37500.000
866.559, 37940.000
867.831, 37720.000
869.102, 37910.000
870.373, 38080.000
871.645, 38020.000
872.915, 38080.000
874.186, 38270.000
875.457, 38200.000
876.727, 38130.000
877.997, 38620.000
879.267, 38420.000
880.536, 38410.000
881.806, 38420.000
883.075, 38790.000
884.344, 38360.000
885.613, 38690.000
886.882, 38940.000
888.150, 38650.000
889.419, 38910.000
890.687, 38810.000
891.954, 38770.000
893.222, 39090.000
894.490, 38910.000
895.757, 39160.000
897.024, 39190.000
898.291, 38880.000
899.557, 39500.000
900.824, 39230.000
902.090, 39370.000
903.356, 39480.000
904.622, 39300.000
905.888, 39700.000
907.153, 39610.000
908.418, 39700.000
909.683, 39700.000
910.948, 39630.000
912.213, 40160.000
913.477, 39800.000
914.741, 40010.000
916.005, 40150.000
917.269, 39740.000
918.533, 40330.000
919.796, 40120.000
921.060, 40110.000
922.323, 40310.000
923.585, 40110.000
924.848, 40390.000
926.111, 40570.000
927.373, 40430.000
928.635, 40860.000
929.897, 40340.000
931.158, 40750.000
932.420, 40820.000
933.681, 40540.000
934.942, 40910.000
936.203, 40930.000
937.463, 40910.000
938.724, 41160.000
939.984, 40900.000
941.244, 40950.000
942.504, 41310.000
943.764, 41220.000
945.023, 41030.000
946.282, 41060.000
947.541, 41210.000
948.800, 41590.000
950.059, 41320.000
951.317, 41450.000
952.575, 41350.000
953.833, 41780.000
955.091, 41620.000
956.349, 41640.000
957.606, 41940.000
958.864, 41730.000
960.121, 42030.000
961.377, 42380.000
962.634, 42340.000
963.891, 42640.000
965.147, 42950.000
966.403, 42810.000
967.659, 42980.000
968.914, 42860.000
970.170, 42890.000
971.425, 42610.000
972.680, 42600.000
973.935, 42860.000
975.190, 42630.000
976.444, 42840.000
977.698, 43090.000
978.952, 42820.000
980.206, 43130.000
981.460, 43100.000
982.713, 43140.000
983.967, 43560.000
985.220, 43270.000
986.473, 43620.000
987.725, 43430.000
988.978, 43630.000
990.230, 43810.000
991.482, 43670.000
992.734, 43990.000
993.986, 44370.000
995.237, 44180.000
996.488, 44450.000
997.739, 44470.000
998.990, 44820.000
1000.241, 45060.000
1001.492, 45200.000
1002.742, 45540.000
1003.992, 46070.000
1005.242, 46440.000
1006.492, 47050.000
1007.741, 47370.000
1008.990, 47860.000
1010.239, 48700.000
1011.488, 48870.000
1012.737, 48990.000
1013.986, 48800.000
1015.234, 48500.000
1016.482, 48200.000
1017.730, 47540.000
1018.978, 47270.000
1020.225, 46850.000
1021.473, 46210.000
1022.720, 46250.000
1023.967, 46130.000
1025.213, 45780.000
1026.460, 45880.000
1027.706, 45940.000
1028.953, 46060.000
1030.198, 46010.000
1031.444, 45760.000
1032.690, 46210.000
1033.935, 46030.000
1035.180, 46420.000
1036.425, 46610.000
1037.670, 46630.000
1038.915, 47030.000
1040.159, 47060.000
1041.403, 47550.000
1042.647, 48210.000
1043.891, 48250.000
1045.135, 48470.000
1046.378, 48910.000
1047.621, 48610.000
1048.864, 48910.000
1050.107, 48630.000
1051.350, 48620.000
1052.592, 48930.000
1053.835, 48600.000
1055.077, 49220.000
1056.318, 49560.000
1057.560, 49670.000
1058.802, 50290.000
1060.043, 50090.000
1061.284, 50500.000
1062.525, 50410.000
1063.765, 49210.000
1065.006, 49210.000
1066.246, 48760.000
1067.486, 48300.000
1068.726, 48000.000
1069.966, 47540.000
1071.205, 47560.000
1072.445, 47480.000
1073.684, 47190.000
1074.923, 47310.000
1076.161, 46960.000
1077.400, 47290.000
1078.638, 47070.000
1079.876, 47100.000
1081.114, 47320.000
1082.352, 47260.000
1083.590, 47210.000
1084.827, 47420.000
1086.064, 47090.000
1087.301, 47350.000
1088.538, 47320.000
1089.775, 47370.000
1091.011, 47610.000
1092.247, 47320.000
1093.483, 47160.000
1094.719, 47760.000
1095.955, 47300.000
1097.190, 47560.000
1098.425, 47690.000
1099.660, 47950.000
1100.895, 47660.000
1102.130, 47630.000
1103.364, 47980.000
1104.598, 48200.000
1105.833, 48050.000
1107.066, 48830.000
1108.300, 48480.000
1109.534, 48370.000
1110.767, 49000.000
1112.000, 48300.000
1113.233, 48750.000
1114.466, 48670.000
1115.698, 48440.000
1116.930, 48670.000
1118.163, 48490.000
1119.394, 48450.000
1120.626, 48890.000
1121.858, 48670.000
1123.089, 49560.000
1124.320, 49570.000
1125.551, 48780.000
1126.782, 49250.000
1128.013, 48480.000
1129.243, 48680.000
1130.473, 48800.000
1131.703, 48390.000
1132.933, 48920.000
1134.163, 48840.000
1135.392, 48590.000
1136.621, 49300.000
1137.850, 48410.000
1139.079, 48900.000
1140.308, 49000.000
1141.536, 48790.000
1142.765, 49340.000
1143.993, 48920.000
1145.221, 49250.000
1146.448, 49260.000
1147.676, 49280.000
1148.903, 49300.000
1150.130, 49480.000
1151.357, 49170.000
1152.584, 49670.000
1153.810, 49300.000
1155.037, 49430.000
1156.263, 49800.000
1157.489, 49310.000
1158.715, 49820.000
1159.940, 49740.000
1161.166, 49330.000
1162.391, 50060.000
1163.616, 49780.000
1164.841, 49820.000
1166.065, 50060.000
1167.290, 49760.000
1168.514, 49960.000
1169.738, 49920.000
1170.962, 50020.000
1172.185, 50350.000
##END=



