##NAMES=Montebrasite
##RRUFFID=R060890
##IDEAL CHEMISTRY=LiAlPO_4_(OH)
##LOCALITY=Mount Marie, Paris, Maine, USA
##OWNER=RRUFF
##SOURCE=Bob Jenkins
##DESCRIPTION=Colorless massive
##STATUS=The identification of this mineral is confirmed by single-crystal X-ray diffraction and chemical analysis.
##URL=rruff.info/R060890
##MEASURED CHEMISTRY=Li_1.00_Al_1.00_(P_1.00_O_4_)(OH)_0.63_F_0.37_)_Î£=1_ ; Li not measured but estimated by stoichiometry
##PIN_ID=M01677
##ORIENTATION=Laser parallel to b* (0 1 0). Fiducial mark perpendicular to laser is parallel to c [0 0 1]
90.67800, 17772.00
91.91600, 18118.00
93.15500, 18123.00
94.39300, 18259.00
95.63100, 18132.00
96.86900, 18447.00
98.10600, 18356.00
99.34400, 18419.00
100.5810, 18520.00
101.8190, 18492.00
103.0560, 18665.00
104.2930, 18570.00
105.5290, 19084.00
106.7660, 18917.00
108.0020, 19212.00
109.2390, 19094.00
110.4750, 19262.00
111.7110, 19180.00
112.9460, 19242.00
114.1820, 19235.00
115.4170, 19479.00
116.6530, 19362.00
117.8880, 19393.00
119.1230, 19543.00
120.3580, 19456.00
121.5920, 19690.00
122.8270, 19533.00
124.0610, 19870.00
125.2950, 19833.00
126.5290, 19827.00
127.7630, 19945.00
128.9970, 19984.00
130.2300, 20019.00
131.4640, 20040.00
132.6970, 20085.02
133.9300, 20038.00
135.1630, 20165.00
136.3950, 20076.00
137.6280, 20106.00
138.8600, 20285.00
140.0920, 20384.00
141.3240, 20507.00
142.5560, 20565.76
143.7880, 20498.00
145.0190, 20707.00
146.2510, 20727.00
147.4820, 20945.00
148.7130, 21215.00
149.9440, 21300.00
151.1750, 21435.00
152.4050, 21758.00
153.6360, 21839.00
154.8660, 22299.00
156.0960, 22757.00
157.3260, 23018.00
158.5560, 23414.00
159.7850, 23576.00
161.0150, 23961.00
162.2440, 24399.00
163.4730, 24546.00
164.7020, 24809.00
165.9310, 24703.00
167.1590, 24969.00
168.3880, 24864.00
169.6160, 24880.00
170.8440, 24511.00
172.0720, 24384.00
173.3000, 24139.00
174.5280, 23902.00
175.7550, 23661.00
176.9820, 23458.00
178.2100, 23325.00
179.4370, 23237.00
180.6630, 22990.00
181.8900, 22980.00
183.1170, 22818.99
184.3430, 22712.78
185.5690, 22631.00
186.7950, 22519.00
188.0210, 22517.00
189.2470, 22421.00
190.4720, 22529.00
191.6970, 22602.00
192.9230, 22615.00
194.1480, 22578.79
195.3730, 22580.00
196.5970, 22366.00
197.8220, 22445.00
199.0460, 22256.00
200.2700, 22250.00
201.4940, 22223.00
202.7180, 22421.00
203.9420, 22233.00
205.1660, 22477.00
206.3890, 22493.00
207.6120, 22474.00
208.8350, 22589.00
210.0580, 22570.00
211.2810, 22640.00
212.5040, 22390.00
213.7260, 22585.00
214.9480, 22480.00
216.1700, 22443.00
217.3920, 22682.00
218.6140, 22677.00
219.8360, 22949.00
221.0570, 22781.00
222.2790, 22753.00
223.5000, 22837.00
224.7210, 22766.00
225.9410, 22535.00
227.1620, 22749.00
228.3820, 22919.00
229.6030, 22822.00
230.8230, 23083.00
232.0430, 23262.00
233.2630, 22967.00
234.4820, 22997.00
235.7020, 23204.00
236.9210, 23071.00
238.1400, 23064.00
239.3590, 23308.00
240.5780, 23277.00
241.7970, 23350.00
243.0150, 23164.00
244.2340, 23428.00
245.4520, 23338.00
246.6700, 23483.00
247.8880, 23414.00
249.1060, 23629.00
250.3230, 23662.00
251.5400, 23530.00
252.7580, 23873.00
253.9750, 23792.00
255.1920, 24088.00
256.4080, 23966.00
257.6250, 24224.00
258.8410, 24505.00
260.0580, 24389.00
261.2740, 24836.00
262.4900, 24998.00
263.7050, 25425.00
264.9210, 25340.00
266.1360, 25526.00
267.3520, 25747.00
268.5670, 25728.00
269.7820, 26022.00
270.9960, 26376.00
272.2110, 26549.00
273.4250, 26375.00
274.6400, 26335.00
275.8540, 26281.00
277.0680, 26214.00
278.2810, 26346.00
279.4950, 26231.00
280.7090, 26161.00
281.9220, 26371.00
283.1350, 26494.00
284.3480, 26718.00
285.5610, 26917.72
286.7730, 26972.00
287.9860, 27446.00
289.1980, 27895.00
290.4100, 28377.00
291.6220, 29252.00
292.8340, 29898.00
294.0460, 30822.00
295.2570, 31209.00
296.4690, 31664.00
297.6800, 32296.00
298.8910, 32770.00
300.1020, 33323.00
301.3120, 33720.00
302.5230, 33834.00
303.7330, 33478.00
304.9440, 32828.00
306.1540, 31859.00
307.3630, 30853.00
308.5730, 30002.00
309.7830, 29475.00
310.9920, 29167.00
312.2010, 28575.00
313.4100, 28250.00
314.6190, 27724.00
315.8280, 27290.00
317.0370, 27086.00
318.2450, 26913.00
319.4530, 26704.00
320.6610, 26677.00
321.8690, 26531.00
323.0770, 26540.00
324.2850, 26353.00
325.4920, 26383.00
326.6990, 26492.00
327.9060, 26488.00
329.1130, 26410.00
330.3200, 26338.00
331.5270, 26439.00
332.7330, 26420.00
333.9390, 26178.00
335.1450, 26228.00
336.3510, 26202.00
337.5570, 26342.00
338.7630, 26207.00
339.9680, 26288.00
341.1740, 26282.00
342.3790, 26266.00
343.5840, 26342.00
344.7890, 26432.00
345.9930, 26415.59
347.1980, 26470.92
348.4020, 26437.00
349.6060, 26512.00
350.8100, 26541.00
352.0140, 26581.00
353.2180, 26610.00
354.4210, 26692.00
355.6250, 26596.00
356.8280, 26797.00
358.0310, 26685.00
359.2340, 26749.00
360.4360, 26783.00
361.6390, 26821.53
362.8410, 26993.00
364.0430, 26979.00
365.2450, 27157.00
366.4470, 27226.00
367.6490, 27205.00
368.8510, 27236.00
370.0520, 27320.00
371.2530, 27124.00
372.4540, 27084.00
373.6550, 27014.00
374.8560, 27131.00
376.0560, 27251.00
377.2570, 27331.00
378.4570, 27286.00
379.6570, 27326.46
380.8570, 27235.00
382.0570, 27290.00
383.2560, 27290.00
384.4560, 27299.00
385.6550, 27331.64
386.8540, 27240.00
388.0530, 27375.00
389.2520, 27394.00
390.4510, 27415.00
391.6490, 27342.00
392.8470, 27444.00
394.0450, 27381.00
395.2430, 27480.00
396.4410, 27366.00
397.6390, 27515.00
398.8360, 27487.00
400.0340, 27461.00
401.2310, 27544.00
402.4280, 27701.00
403.6250, 27898.00
404.8210, 27509.00
406.0180, 27682.00
407.2140, 27744.00
408.4100, 27902.00
409.6060, 27748.00
410.8020, 27792.00
411.9980, 27864.00
413.1930, 28198.00
414.3890, 28043.00
415.5840, 28207.00
416.7790, 28267.00
417.9740, 28711.00
419.1680, 28493.00
420.3630, 28844.00
421.5570, 28679.00
422.7510, 28802.00
423.9450, 28998.00
425.1390, 28854.00
426.3330, 29167.00
427.5270, 29133.00
428.7200, 28918.00
429.9130, 28663.00
431.1060, 28906.00
432.2990, 28805.00
433.4920, 28632.00
434.6840, 28445.00
435.8770, 28640.00
437.0690, 28567.00
438.2610, 28367.00
439.4530, 28516.00
440.6450, 28734.00
441.8360, 28702.00
443.0280, 28686.00
444.2190, 28685.00
445.4100, 28749.00
446.6010, 28834.00
447.7920, 28913.00
448.9820, 28826.00
450.1730, 28948.00
451.3630, 28944.00
452.5530, 29047.00
453.7430, 29073.00
454.9330, 28964.00
456.1230, 28985.00
457.3120, 29213.00
458.5010, 29146.00
459.6910, 29009.00
460.8800, 29248.00
462.0680, 29354.00
463.2570, 29135.00
464.4460, 29477.00
465.6340, 29680.00
466.8220, 29955.00
468.0100, 29672.00
469.1980, 29856.00
470.3860, 29983.00
471.5730, 30305.00
472.7600, 30351.92
473.9480, 30526.00
475.1350, 30553.00
476.3210, 30514.00
477.5080, 30649.00
478.6950, 30710.85
479.8810, 30688.00
481.0670, 30959.00
482.2530, 30954.00
483.4390, 31098.00
484.6250, 31223.00
485.8100, 31318.00
486.9960, 31222.00
488.1810, 31348.00
489.3660, 31221.00
490.5510, 31069.00
491.7360, 31158.00
492.9200, 31161.00
494.1050, 31234.00
495.2890, 30986.00
496.4730, 31197.00
497.6570, 30916.00
498.8400, 30971.00
500.0240, 31040.00
501.2070, 30985.00
502.3910, 30914.00
503.5740, 30862.90
504.7570, 30703.00
505.9400, 30686.00
507.1220, 30650.00
508.3050, 30607.00
509.4870, 30803.00
510.6690, 30782.00
511.8510, 30695.00
513.0330, 30865.00
514.2140, 30695.00
515.3960, 30659.00
516.5770, 30581.00
517.7580, 30557.00
518.9390, 30645.00
520.1200, 30522.00
521.3010, 30768.00
522.4810, 30795.00
523.6610, 30722.00
524.8420, 30728.00
526.0220, 30550.00
527.2010, 30539.00
528.3810, 30598.83
529.5610, 30809.00
530.7400, 30717.00
531.9190, 30939.00
533.0980, 30875.00
534.2770, 30811.00
535.4560, 30949.00
536.6340, 31057.00
537.8120, 30855.00
538.9910, 31184.00
540.1690, 31142.00
541.3460, 31295.00
542.5240, 31070.00
543.7020, 30921.00
544.8790, 31020.00
546.0560, 30936.56
547.2330, 31262.00
548.4100, 31032.00
549.5870, 31367.00
550.7630, 31464.00
551.9400, 31295.00
553.1160, 31352.00
554.2920, 31289.00
555.4680, 31400.00
556.6440, 31387.00
557.8190, 31380.00
558.9950, 31380.00
560.1700, 31526.00
561.3450, 31532.00
562.5200, 31514.00
563.6950, 31644.00
564.8690, 31597.00
566.0440, 31767.00
567.2180, 31826.00
568.3920, 31734.00
569.5660, 31860.00
570.7400, 31874.00
571.9130, 31685.00
573.0870, 31657.00
574.2600, 31857.00
575.4330, 32228.00
576.6060, 31905.00
577.7790, 32095.00
578.9520, 32125.00
580.1240, 32164.00
581.2960, 32061.00
582.4690, 32184.27
583.6410, 32131.00
584.8120, 32361.00
585.9840, 32394.00
587.1560, 32495.00
588.3270, 32417.00
589.4980, 32590.00
590.6690, 32732.00
591.8400, 32812.00
593.0110, 33113.00
594.1810, 33237.38
595.3510, 33452.00
596.5220, 33609.00
597.6920, 33780.83
598.8610, 34040.00
600.0310, 34135.00
601.2010, 34344.00
602.3700, 34532.00
603.5390, 34616.00
604.7080, 34564.00
605.8770, 34143.00
607.0460, 34074.00
608.2140, 33665.00
609.3830, 33501.00
610.5510, 33431.00
611.7190, 33030.00
612.8870, 33303.00
614.0550, 33137.00
615.2220, 33128.00
616.3900, 33325.00
617.5570, 33188.00
618.7240, 33431.00
619.8910, 33359.00
621.0580, 33451.00
622.2240, 33330.00
623.3910, 33670.00
624.5570, 33455.00
625.7230, 33764.00
626.8890, 33946.00
628.0550, 33833.00
629.2200, 34034.00
630.3860, 34108.00
631.5510, 34320.00
632.7160, 34426.00
633.8810, 34370.00
635.0460, 34519.00
636.2100, 34463.00
637.3750, 35004.00
638.5390, 34870.00
639.7030, 34962.00
640.8670, 35426.00
642.0310, 35441.00
643.1950, 35828.00
644.3580, 36087.00
645.5210, 36040.00
646.6850, 36100.00
647.8480, 35959.00
649.0100, 35592.00
650.1730, 35274.00
651.3350, 35038.00
652.4980, 34720.00
653.6600, 34529.00
654.8220, 34376.00
655.9840, 34500.00
657.1450, 34413.00
658.3070, 34498.00
659.4680, 34214.00
660.6300, 34245.00
661.7910, 33951.00
662.9510, 34326.00
664.1120, 34141.00
665.2730, 34211.00
666.4330, 34141.00
667.5930, 34103.00
668.7530, 34256.00
669.9130, 34048.00
671.0730, 34483.00
672.2320, 34410.00
673.3920, 34284.00
674.5510, 34108.00
675.7100, 34085.00
676.8690, 34082.42
678.0280, 34251.00
679.1860, 34202.00
680.3450, 34312.00
681.5030, 34378.00
682.6610, 34387.00
683.8190, 34543.00
684.9770, 34635.00
686.1340, 34481.00
687.2920, 34442.00
688.4490, 34586.00
689.6060, 34568.00
690.7630, 34478.00
691.9200, 34540.00
693.0760, 34679.00
694.2330, 34570.00
695.3890, 34787.00
696.5450, 34652.00
697.7010, 34798.00
698.8570, 34738.00
700.0130, 34682.00
701.1680, 34856.00
702.3230, 35024.00
703.4780, 34605.00
704.6330, 34930.00
705.7880, 34728.00
706.9430, 34913.00
708.0970, 34930.00
709.2520, 35223.00
710.4060, 34786.00
711.5600, 35348.00
712.7140, 35080.00
713.8670, 34801.00
715.0210, 34825.00
716.1740, 34748.40
717.3270, 34956.00
718.4800, 34845.00
719.6330, 35176.00
720.7860, 35208.00
721.9380, 35357.00
723.0910, 35459.00
724.2430, 35300.00
725.3950, 35540.00
726.5470, 35476.00
727.6980, 35278.00
728.8500, 35149.00
730.0010, 35154.00
731.1530, 35469.00
732.3040, 35337.00
733.4550, 35566.00
734.6050, 35640.76
735.7560, 35541.00
736.9060, 35734.00
738.0560, 35761.00
739.2060, 35636.00
740.3560, 35425.00
741.5060, 35638.00
742.6560, 35781.00
743.8050, 35656.00
744.9540, 35719.00
746.1030, 35921.00
747.2520, 36042.00
748.4010, 35853.00
749.5500, 35932.00
750.6980, 36043.00
751.8460, 36023.00
752.9950, 36040.05
754.1420, 36128.00
755.2900, 36001.00
756.4380, 36056.00
757.5850, 36100.00
758.7330, 35938.00
759.8800, 36124.00
761.0270, 36092.00
762.1730, 36003.00
763.3200, 36224.00
764.4670, 36313.00
765.6130, 36186.00
766.7590, 36154.00
767.9050, 36315.00
769.0510, 36225.00
770.1960, 36289.00
771.3420, 36334.00
772.4870, 36572.00
773.6320, 36349.00
774.7770, 36331.00
775.9220, 36700.00
777.0670, 36851.00
778.2110, 36984.00
779.3560, 36702.00
780.5000, 36802.95
781.6440, 36861.00
782.7880, 36756.00
783.9320, 36748.00
785.0750, 36897.00
786.2180, 36998.00
787.3620, 37077.00
788.5050, 37015.00
789.6480, 37289.00
790.7900, 37547.00
791.9330, 37548.00
793.0750, 37340.00
794.2170, 37548.00
795.3590, 37634.00
796.5010, 37914.00
797.6430, 37654.00
798.7850, 37852.00
799.9260, 38075.00
801.0670, 37969.00
802.2080, 38177.00
803.3490, 38055.00
804.4900, 38271.00
805.6310, 38238.00
806.7710, 38291.00
807.9110, 38314.00
809.0510, 38363.00
810.1910, 38368.76
811.3310, 38341.00
812.4710, 38270.00
813.6100, 38565.00
814.7490, 38315.00
815.8880, 38440.00
817.0270, 38516.00
818.1660, 38285.00
819.3050, 38700.00
820.4430, 38225.00
821.5820, 38283.00
822.7200, 38052.00
823.8580, 38296.00
824.9950, 38212.00
826.1330, 38163.00
827.2710, 38050.00
828.4080, 38078.00
829.5450, 38003.83
830.6820, 38169.00
831.8190, 37991.00
832.9560, 38100.00
834.0920, 38243.00
835.2280, 38152.00
836.3650, 38045.00
837.5010, 37994.00
838.6360, 37888.00
839.7720, 38019.00
840.9080, 38080.00
842.0430, 37931.00
843.1780, 38204.00
844.3130, 38189.00
845.4480, 38024.00
846.5830, 38245.00
847.7170, 37998.00
848.8520, 38024.00
849.9860, 38235.00
851.1200, 38437.00
852.2540, 38286.00
853.3870, 38456.81
854.5210, 38210.00
855.6540, 38447.00
856.7880, 38437.00
857.9210, 38265.00
859.0540, 38542.00
860.1860, 38286.00
861.3190, 38486.00
862.4510, 38601.00
863.5840, 38477.00
864.7160, 38374.00
865.8480, 38258.00
866.9790, 38369.00
868.1110, 38312.00
869.2420, 38536.00
870.3740, 38534.00
871.5050, 38574.00
872.6360, 38672.00
873.7660, 38836.00
874.8970, 38591.00
876.0280, 38915.00
877.1580, 38594.00
878.2880, 38521.00
879.4180, 38791.00
880.5480, 38686.00
881.6770, 38760.00
882.8070, 38726.00
883.9360, 38738.00
885.0650, 38903.00
886.1940, 38901.00
887.3230, 38771.00
888.4520, 39170.00
889.5800, 38697.00
890.7090, 38972.00
891.8370, 38872.00
892.9650, 38821.00
894.0930, 39260.00
895.2200, 39035.00
896.3480, 39230.00
897.4750, 38896.00
898.6020, 39422.00
899.7290, 39492.00
900.8560, 39132.00
901.9830, 39234.00
903.1090, 39051.00
904.2360, 38987.00
905.3620, 39205.00
906.4880, 39304.00
907.6140, 39358.00
908.7400, 39663.00
909.8650, 39518.00
910.9900, 39338.00
912.1160, 39488.00
913.2410, 39497.00
914.3660, 39590.00
915.4900, 39669.00
916.6150, 39417.00
917.7390, 39787.00
918.8640, 39844.00
919.9880, 39585.00
921.1120, 39532.00
922.2350, 39295.00
923.3590, 39724.00
924.4820, 39721.00
925.6060, 39825.00
926.7290, 39846.00
927.8520, 39788.00
928.9740, 39707.00
930.0970, 39895.00
931.2190, 39877.00
932.3420, 39830.00
933.4640, 40092.00
934.5860, 39803.00
935.7080, 40210.00
936.8290, 39994.00
937.9510, 40104.00
939.0720, 40094.00
940.1930, 40051.00
941.3140, 40208.00
942.4350, 40222.00
943.5560, 40219.00
944.6760, 39896.00
945.7960, 40284.00
946.9170, 40133.00
948.0370, 40398.00
949.1560, 40252.00
950.2760, 40383.00
951.3960, 40301.00
952.5150, 40589.00
953.6340, 40429.00
954.7530, 40297.00
955.8720, 40259.00
956.9910, 40683.00
958.1090, 40499.00
959.2280, 40424.00
960.3460, 40814.00
961.4640, 40556.00
962.5820, 41003.00
963.6990, 40964.00
964.8170, 40739.00
965.9340, 40880.00
967.0510, 40871.00
968.1690, 40663.00
969.2850, 40906.00
970.4020, 41173.00
971.5190, 41111.00
972.6350, 40858.00
973.7510, 40842.00
974.8670, 41032.00
975.9830, 41211.00
977.0990, 41143.00
978.2150, 41491.00
979.3300, 41640.00
980.4450, 41257.00
981.5600, 41386.00
982.6750, 41585.00
983.7900, 41354.00
984.9050, 41495.00
986.0190, 41535.00
987.1340, 41810.00
988.2480, 42090.00
989.3620, 41975.00
990.4750, 42527.00
991.5890, 42495.00
992.7020, 42466.00
993.8160, 42930.00
994.9290, 43053.00
996.0420, 43100.00
997.1550, 43416.00
998.2670, 43746.00
999.3800, 43881.00
1000.492, 44307.84
1001.604, 44449.00
1002.716, 45060.00
1003.828, 45359.00
1004.940, 45748.00
1006.051, 45901.00
1007.163, 46221.00
1008.274, 45912.00
1009.385, 46127.00
1010.496, 46218.00
1011.606, 46034.00
1012.717, 46166.00
1013.827, 45841.00
1014.937, 45531.00
1016.047, 45625.00
1017.157, 45117.00
1018.267, 44757.00
1019.377, 44794.00
1020.486, 44411.00
1021.595, 44424.00
1022.704, 44112.00
1023.813, 43788.00
1024.922, 43787.00
1026.030, 43786.00
1027.139, 43910.00
1028.247, 44198.00
1029.355, 44033.00
1030.463, 44411.00
1031.571, 44902.00
1032.678, 44488.00
1033.786, 45072.00
1034.893, 45344.00
1036.000, 45456.00
1037.107, 45734.00
1038.214, 46070.00
1039.321, 46227.00
1040.427, 46632.00
1041.533, 46767.00
1042.639, 46910.00
1043.745, 47546.00
1044.851, 47711.00
1045.957, 47762.00
1047.062, 48289.00
1048.168, 48357.00
1049.273, 48389.00
1050.378, 48857.00
1051.482, 49000.00
1052.587, 49260.00
1053.692, 50052.00
1054.796, 50715.00
1055.900, 51538.00
1057.004, 52405.00
1058.108, 53466.00
1059.212, 53791.00
1060.315, 54419.00
1061.418, 54463.00
1062.522, 54487.00
1063.625, 54125.00
1064.728, 53040.00
1065.830, 52032.00
1066.933, 51204.00
1068.035, 49522.00
1069.137, 48804.00
1070.239, 47813.00
1071.341, 47187.00
1072.443, 46610.00
1073.545, 45820.00
1074.646, 45503.00
1075.747, 45214.00
1076.848, 45122.00
1077.949, 44707.00
1079.050, 44670.00
1080.150, 44355.00
1081.251, 44302.00
1082.351, 44332.00
1083.451, 44228.00
1084.551, 44115.00
1085.651, 44388.00
1086.750, 44094.00
1087.850, 43960.00
1088.949, 44189.00
1090.048, 44054.00
1091.147, 44302.00
1092.246, 44137.00
1093.345, 43883.00
1094.443, 43912.00
1095.541, 44372.00
1096.639, 44504.00
1097.737, 44402.00
1098.835, 44529.00
1099.933, 44558.00
1101.030, 44922.00
1102.128, 44763.00
1103.225, 44994.00
1104.322, 44813.00
1105.419, 45127.00
1106.515, 45436.00
1107.612, 45455.00
1108.708, 45362.00
1109.804, 45434.00
1110.900, 45869.00
1111.996, 45926.00
1113.092, 46149.00
1114.187, 46018.00
1115.283, 46133.00
1116.378, 46199.00
1117.473, 46126.00
1118.568, 46240.00
1119.662, 46424.00
1120.757, 46399.00
1121.851, 46254.00
1122.946, 46466.00
1124.040, 46221.00
1125.134, 46545.00
1126.227, 46258.00
1127.321, 46161.00
1128.414, 46244.00
1129.508, 46321.00
1130.601, 45925.00
1131.693, 45721.00
1132.786, 45897.00
1133.879, 45654.00
1134.971, 45564.00
1136.064, 45758.00
1137.156, 45444.00
1138.248, 45774.00
1139.339, 45537.00
1140.431, 45582.00
1141.522, 45370.00
1142.614, 45264.00
1143.705, 45043.00
1144.796, 44885.00
1145.887, 44956.00
1146.977, 44988.00
1148.068, 45124.00
1149.158, 45240.00
1150.248, 45071.00
1151.338, 45080.00
1152.428, 45091.00
1153.518, 45219.00
1154.607, 45412.00
1155.696, 45164.00
1156.785, 44899.00
1157.874, 44951.00
1158.963, 45191.00
1160.052, 44753.00
1161.141, 45003.00
1162.229, 45302.00
1163.317, 45208.00
1164.405, 45335.00
1165.493, 45042.00
1166.581, 45382.00
1167.668, 45317.00
1168.756, 45366.00
1169.843, 45316.00
1170.930, 45152.00
1172.017, 45248.00
1173.103, 45178.00
1174.190, 45358.00
1175.276, 45311.00
1176.363, 45128.00
1177.449, 45314.00
1178.535, 45531.00
1179.620, 45818.00
1180.706, 45531.00
1181.791, 45753.00
1182.877, 45623.00
1183.962, 45653.00
1185.047, 45704.00
1186.131, 45590.00
1187.216, 45936.00
1188.300, 46055.00
1189.385, 45970.00
1190.469, 46097.00
1191.553, 46022.00
1192.637, 46049.00
1193.720, 46464.00
1194.804, 46189.00
1195.887, 46358.00
1196.970, 46205.00
1198.053, 46041.00
1199.136, 46093.00
1200.219, 46097.88
1201.301, 46417.00
1202.383, 46228.00
1203.465, 46443.00
1204.547, 46357.00
1205.629, 46604.00
1206.711, 46266.00
1207.792, 46621.00
1208.874, 46424.00
1209.955, 46444.00
1211.036, 46277.00
1212.117, 46449.00
1213.198, 46346.00
1214.278, 46538.00
1215.359, 46406.00
1216.439, 47010.00
1217.519, 46198.00
1218.599, 46708.00
1219.678, 46344.00
1220.758, 46723.00
1221.837, 46388.00
1222.917, 46487.00
1223.996, 46375.00
1225.075, 46245.00
1226.153, 46486.00
1227.232, 46592.00
1228.310, 46375.00
1229.389, 46403.00
1230.467, 46535.00
1231.545, 46580.00
1232.622, 46513.00
1233.700, 46563.73
1234.777, 46683.00
1235.855, 46572.00
1236.932, 46588.00
1238.009, 46694.00
1239.086, 46605.00
1240.162, 46564.00
1241.239, 46528.00
1242.315, 46534.00
1243.391, 46723.00
1244.467, 46918.00
1245.543, 47128.00
1246.619, 46996.00
1247.694, 46706.00
1248.769, 47012.00
1249.844, 46872.00
1250.919, 46618.00
1251.994, 46888.00
1253.069, 46629.00
1254.144, 46931.00
1255.218, 47129.00
1256.292, 47098.00
1257.366, 47105.00
1258.440, 47221.00
1259.514, 47082.00
1260.587, 47158.00
1261.661, 47074.00
1262.734, 46920.00
1263.807, 46722.00
1264.880, 46723.00
1265.952, 46563.00
1267.025, 46925.00
1268.097, 47114.00
1269.170, 47269.00
1270.242, 47423.00
1271.314, 47341.00
1272.385, 47621.00
1273.457, 47140.00
1274.528, 47017.00
1275.600, 47393.00
1276.671, 47358.00
1277.742, 47382.00
1278.812, 47415.00
1279.883, 47294.00
1280.954, 47151.00
1282.024, 47408.00
1283.094, 47380.00
1284.164, 47515.00
1285.234, 47437.00
1286.303, 47702.00
1287.373, 47876.00
1288.442, 47594.00
1289.511, 47648.00
1290.580, 47587.00
1291.649, 47685.00
1292.718, 47719.00
1293.786, 47614.00
1294.855, 48034.00
1295.923, 47885.00
1296.991, 47720.00
1298.059, 48002.00
1299.126, 48048.00
1300.194, 47962.00
1301.261, 48183.00
1302.328, 48164.00
1303.395, 47932.00
1304.462, 47815.00
1305.529, 48158.00
1306.596, 47810.00
1307.662, 48434.00
1308.728, 48133.00
1309.794, 48358.00
1310.860, 48464.00
1311.926, 48507.00
1312.991, 48541.46
1314.057, 48552.03
1315.122, 48482.00
1316.187, 48447.00
1317.252, 48451.00
1318.317, 48425.07
1319.381, 48474.16
1320.446, 48435.00
1321.510, 48573.00
1322.574, 48605.00
1323.638, 48621.00
1324.702, 48777.00
1325.766, 48832.00
1326.829, 48928.00
1327.892, 48846.00
1328.956, 48478.00
1330.019, 48756.00
1331.081, 48613.00
1332.144, 48760.00
1333.206, 48503.00
1334.269, 48861.00
1335.331, 48982.00
1336.393, 49155.00
1337.455, 49255.58
1338.516, 49282.62
1339.578, 49264.00
1340.639, 49191.00
1341.701, 49040.00
1342.762, 48789.00
1343.822, 48835.00
1344.883, 49109.00
1345.944, 49001.00
1347.004, 49189.00
1348.064, 49037.00
1349.124, 48909.00
1350.184, 49464.00
1351.244, 49197.00
1352.304, 49511.00
1353.363, 49249.00
1354.422, 49354.00
1355.481, 49408.00
1356.540, 49410.00
1357.599, 49081.00
1358.657, 49135.00
1359.716, 49282.00
1360.774, 49178.00
1361.832, 49307.00
1362.890, 49760.00
1363.948, 49703.00
1365.006, 49650.00
1366.063, 49679.00
1367.120, 49493.00
1368.178, 49642.00
1369.234, 49805.00
1370.291, 49486.00
1371.348, 49651.00
1372.404, 49395.00
1373.461, 49567.00
1374.517, 49752.00
1375.573, 50068.00
1376.629, 50035.32
1377.684, 49880.00
1378.740, 49993.00
1379.795, 49928.00
1380.850, 49843.00
1381.905, 50010.00
1382.960, 49888.00
1384.015, 49909.00
1385.070, 49911.00
1386.124, 49950.36
1387.178, 50044.00
1388.232, 50104.00
1389.286, 50172.00
1390.340, 50224.00
1391.393, 50231.00
1392.447, 50295.00
1393.500, 50246.00
1394.553, 50164.02
1395.606, 50174.00
1396.659, 50097.27
1397.711, 50019.00
1398.764, 50031.00
1399.816, 50041.70
1400.868, 50099.00
1401.920, 50216.00
1402.972, 50405.00
1404.023, 50542.00
1405.075, 50448.00
1406.126, 50540.00
1407.177, 50558.00
1408.228, 50468.00
1409.279, 50549.00
1410.330, 50479.00
1411.380, 50561.00
1412.431, 50417.00
1413.481, 50355.00
1414.531, 50655.00
1415.580, 50560.00
1416.630, 50824.00
1417.680, 50785.00
1418.729, 50692.00
1419.778, 50714.00
1420.827, 50852.00
1421.876, 50868.00
1422.925, 50599.00
1423.973, 50793.00
1425.022, 50777.00
1426.070, 50846.00
1427.118, 51112.00
1428.166, 50789.00
1429.214, 50775.00
1430.261, 50934.00
1431.309, 51309.00
1432.356, 51166.00
1433.403, 51230.00
1434.450, 51031.00
1435.497, 51319.00
1436.543, 51306.00
1437.590, 50911.00
1438.636, 51002.00
1439.682, 51229.00
1440.728, 51131.00
1441.774, 51403.00
1442.819, 51370.00
1443.865, 51414.00
1444.910, 51412.00
1445.955, 51416.39
1447.000, 51446.63
1448.045, 51422.00
1449.090, 51521.00
1450.134, 51509.00
1451.178, 51611.00
1452.223, 51572.64
1453.267, 51628.00
1454.310, 51588.00
1455.354, 51506.00
1456.398, 51699.00
1457.441, 51501.00
1458.484, 51642.00
1459.527, 51713.00
1460.570, 51571.00
1461.613, 51878.00
1462.655, 51800.00
1463.698, 51450.00
1464.740, 51752.00
1465.782, 51751.00
1466.824, 51777.00
1467.866, 51831.00
1468.907, 51668.00
1469.948, 52124.00
1470.990, 51930.00
1472.031, 52154.00
1473.072, 52182.00
1474.112, 52120.00
1475.153, 52261.00
1476.194, 51925.00
1477.234, 51969.00
1478.274, 51804.00
1479.314, 52021.00
1480.354, 52186.00
1481.393, 52069.00
1482.433, 52676.00
1483.472, 52209.00
1484.511, 52059.00
1485.550, 52185.00
1486.589, 52537.00
1487.628, 52622.00
1488.666, 52457.00
1489.704, 52460.00
1490.743, 52506.00
1491.781, 52406.00
1492.819, 52309.00
1493.856, 52385.32
1494.894, 52385.00
1495.931, 52577.00
1496.968, 52848.00
1498.005, 53154.00
1499.042, 52713.00
1500.079, 52519.00
1501.115, 52589.00
1502.152, 52765.00
1503.188, 52688.00
1504.224, 52778.00
1505.260, 52849.41
1506.296, 52715.00
1507.331, 52892.00
1508.367, 53047.00
1509.402, 52877.00
1510.437, 53037.00
1511.472, 52949.00
1512.507, 52735.00
1513.541, 53027.00
1514.576, 53382.00
1515.610, 52932.00
1516.644, 52996.00
1517.678, 52783.00
1518.712, 52866.00
1519.746, 52791.00
1520.779, 52973.00
1521.813, 53029.00
1522.846, 52838.00
1523.879, 53143.00
1524.912, 53092.23
1525.944, 53238.00
1526.977, 53175.00
1528.009, 53249.00
1529.041, 53176.00
1530.073, 52914.00
1531.105, 53150.00
1532.137, 53041.00
1533.168, 53110.00
1534.200, 53223.00
1535.231, 53422.00
1536.262, 53812.00
1537.293, 53577.00
1538.324, 53845.00
1539.354, 53813.00
1540.385, 53614.00
1541.415, 53625.00
1542.445, 53370.00
1543.475, 53255.00
1544.505, 53367.00
1545.534, 53493.00
1546.564, 53466.00
1547.593, 53641.00
1548.622, 53670.00
1549.651, 53555.00
1550.680, 54099.00
1551.708, 53749.00
1552.737, 53334.00
1553.765, 53753.00
1554.793, 53763.00
1555.821, 53979.00
1556.849, 54008.00
1557.877, 53617.00
1558.904, 53648.00
1559.932, 53824.00
1560.959, 53634.00
1561.986, 53980.00
1563.013, 53840.00
1564.039, 54314.00
1565.066, 53924.00
1566.092, 54331.00
1567.119, 53934.00
1568.145, 54477.00
1569.170, 54236.00
1570.196, 53714.00
##END=



