##NAMES=Montebrasite
##RRUFFID=R060890
##IDEAL CHEMISTRY=LiAlPO_4_(OH)
##LOCALITY=Mount Marie, Paris, Maine, USA
##OWNER=RRUFF
##SOURCE=Bob Jenkins
##DESCRIPTION=Colorless massive
##STATUS=The identification of this mineral is confirmed by single-crystal X-ray diffraction and chemical analysis.
##URL=rruff.info/R060890
##MEASURED CHEMISTRY=Li_1.00_Al_1.00_(P_1.00_O_4_)(OH)_0.63_F_0.37_)_Î£=1_ ; Li not measured but estimated by stoichiometry
##PIN_ID=M01307
##ORIENTATION=Laser parallel to -c* (0 0 -1). Fiducial mark perpendicular to laser is parallel to a [1 0 0]
90.67800, 15044.00
91.91600, 15169.00
93.15500, 15156.00
94.39300, 15117.00
95.63100, 15165.00
96.86900, 15187.94
98.10600, 15146.00
99.34400, 15253.00
100.5810, 15269.00
101.8190, 15205.00
103.0560, 15143.00
104.2930, 15463.00
105.5290, 16039.00
106.7660, 16418.00
108.0020, 16980.00
109.2390, 16742.00
110.4750, 16526.00
111.7110, 16642.00
112.9460, 16862.00
114.1820, 17432.00
115.4170, 17555.00
116.6530, 17570.00
117.8880, 17624.00
119.1230, 17577.00
120.3580, 17592.00
121.5920, 17782.00
122.8270, 18302.00
124.0610, 18942.00
125.2950, 19391.00
126.5290, 19762.00
127.7630, 20423.00
128.9970, 20951.00
130.2300, 21255.00
131.4640, 21466.00
132.6970, 20957.00
133.9300, 20361.00
135.1630, 19639.00
136.3950, 18820.00
137.6280, 18185.00
138.8600, 17728.00
140.0920, 17426.00
141.3240, 16931.00
142.5560, 16575.00
143.7880, 16399.00
145.0190, 16191.00
146.2510, 16398.00
147.4820, 16384.00
148.7130, 16398.00
149.9440, 16479.00
151.1750, 16529.67
152.4050, 16632.13
153.6360, 16731.00
154.8660, 16871.00
156.0960, 17024.00
157.3260, 17160.00
158.5560, 17379.99
159.7850, 17642.00
161.0150, 17855.00
162.2440, 18170.00
163.4730, 18462.00
164.7020, 18452.00
165.9310, 18652.00
167.1590, 18748.00
168.3880, 18799.00
169.6160, 18396.00
170.8440, 18362.00
172.0720, 18071.00
173.3000, 17814.00
174.5280, 17745.00
175.7550, 17432.00
176.9820, 17377.00
178.2100, 17317.00
179.4370, 17049.00
180.6630, 17063.00
181.8900, 17090.00
183.1170, 17052.00
184.3430, 17030.00
185.5690, 17069.00
186.7950, 17102.00
188.0210, 17089.00
189.2470, 17028.00
190.4720, 17033.00
191.6970, 17038.91
192.9230, 17069.00
194.1480, 17021.00
195.3730, 17186.00
196.5970, 17053.00
197.8220, 17097.00
199.0460, 17332.00
200.2700, 17354.00
201.4940, 17326.00
202.7180, 17109.00
203.9420, 16584.00
205.1660, 16490.00
206.3890, 16302.00
207.6120, 16520.00
208.8350, 16333.00
210.0580, 16154.00
211.2810, 16185.00
212.5040, 16152.00
213.7260, 16176.00
214.9480, 16236.00
216.1700, 16086.00
217.3920, 16071.00
218.6140, 15946.00
219.8360, 16000.00
221.0570, 15937.00
222.2790, 15921.00
223.5000, 15867.00
224.7210, 15858.00
225.9410, 15732.00
227.1620, 15840.00
228.3820, 15788.00
229.6030, 15763.00
230.8230, 15834.00
232.0430, 15681.00
233.2630, 15828.00
234.4820, 15609.00
235.7020, 15872.00
236.9210, 15713.00
238.1400, 15713.00
239.3590, 15743.00
240.5780, 15607.00
241.7970, 15701.00
243.0150, 15818.00
244.2340, 15611.00
245.4520, 15731.00
246.6700, 15760.00
247.8880, 15763.00
249.1060, 15787.01
250.3230, 15811.73
251.5400, 15777.00
252.7580, 15908.00
253.9750, 15965.00
255.1920, 16108.00
256.4080, 16352.00
257.6250, 16248.00
258.8410, 16562.00
260.0580, 16663.00
261.2740, 16854.00
262.4900, 17238.00
263.7050, 17242.00
264.9210, 17542.00
266.1360, 17859.00
267.3520, 17977.00
268.5670, 18282.00
269.7820, 18591.00
270.9960, 18808.00
272.2110, 18848.00
273.4250, 18870.00
274.6400, 18775.00
275.8540, 18895.00
277.0680, 18685.00
278.2810, 18674.00
279.4950, 18765.00
280.7090, 18453.00
281.9220, 18454.00
283.1350, 18705.00
284.3480, 18877.00
285.5610, 18863.00
286.7730, 19246.00
287.9860, 19750.00
289.1980, 20352.00
290.4100, 20987.00
291.6220, 21680.00
292.8340, 22666.00
294.0460, 23915.00
295.2570, 25269.00
296.4690, 26847.00
297.6800, 28462.00
298.8910, 30495.00
300.1020, 32029.00
301.3120, 33696.00
302.5230, 34036.00
303.7330, 33004.00
304.9440, 31585.00
306.1540, 29668.00
307.3630, 27556.00
308.5730, 26160.00
309.7830, 24760.00
310.9920, 23740.00
312.2010, 22925.00
313.4100, 22063.00
314.6190, 21400.00
315.8280, 20900.00
317.0370, 20509.00
318.2450, 19944.00
319.4530, 20139.00
320.6610, 20036.00
321.8690, 19430.00
323.0770, 19141.00
324.2850, 18883.00
325.4920, 18829.00
326.6990, 18639.00
327.9060, 18611.00
329.1130, 18412.00
330.3200, 18167.00
331.5270, 18086.00
332.7330, 18020.00
333.9390, 18041.00
335.1450, 17729.00
336.3510, 17610.00
337.5570, 17476.00
338.7630, 17524.00
339.9680, 17500.00
341.1740, 17586.00
342.3790, 17463.00
343.5840, 17431.00
344.7890, 17514.00
345.9930, 17249.00
347.1980, 17489.00
348.4020, 17515.00
349.6060, 17198.00
350.8100, 17413.00
352.0140, 17396.00
353.2180, 17471.00
354.4210, 17491.00
355.6250, 17674.00
356.8280, 17614.00
358.0310, 17463.00
359.2340, 17635.00
360.4360, 17604.00
361.6390, 17648.00
362.8410, 17799.00
364.0430, 17677.00
365.2450, 17776.00
366.4470, 17871.00
367.6490, 17751.00
368.8510, 17686.00
370.0520, 17795.00
371.2530, 17712.16
372.4540, 17778.00
373.6550, 17778.00
374.8560, 17799.00
376.0560, 17985.00
377.2570, 17929.00
378.4570, 18047.00
379.6570, 17780.00
380.8570, 17965.00
382.0570, 17819.00
383.2560, 17877.00
384.4560, 17745.00
385.6550, 17749.00
386.8540, 17766.00
388.0530, 17698.00
389.2520, 17764.93
390.4510, 17800.00
391.6490, 17843.00
392.8470, 17811.00
394.0450, 17813.00
395.2430, 17788.00
396.4410, 17888.00
397.6390, 17818.00
398.8360, 17906.00
400.0340, 18293.00
401.2310, 18050.82
402.4280, 18190.00
403.6250, 17840.00
404.8210, 18148.00
406.0180, 18144.00
407.2140, 18042.00
408.4100, 17887.00
409.6060, 18228.00
410.8020, 18165.00
411.9980, 18405.00
413.1930, 18366.00
414.3890, 18564.00
415.5840, 18855.00
416.7790, 19172.00
417.9740, 19766.00
419.1680, 20398.00
420.3630, 20697.00
421.5570, 21201.00
422.7510, 21960.00
423.9450, 22669.00
425.1390, 23331.00
426.3330, 23704.00
427.5270, 23268.00
428.7200, 22329.00
429.9130, 21449.00
431.1060, 20459.00
432.2990, 19751.00
433.4920, 19373.00
434.6840, 19359.00
435.8770, 19023.00
437.0690, 18788.00
438.2610, 18785.00
439.4530, 18739.00
440.6450, 18803.00
441.8360, 18667.00
443.0280, 18700.00
444.2190, 18672.00
445.4100, 18628.00
446.6010, 18845.00
447.7920, 18892.00
448.9820, 19064.00
450.1730, 18941.00
451.3630, 19377.00
452.5530, 19364.00
453.7430, 19601.00
454.9330, 19831.00
456.1230, 19938.00
457.3120, 20431.00
458.5010, 20661.00
459.6910, 21048.00
460.8800, 21771.00
462.0680, 21845.00
463.2570, 22409.00
464.4460, 22355.00
465.6340, 22407.00
466.8220, 22102.00
468.0100, 21818.00
469.1980, 21720.00
470.3860, 21576.08
471.5730, 21666.00
472.7600, 21588.00
473.9480, 21643.00
475.1350, 21899.00
476.3210, 22259.00
477.5080, 22400.00
478.6950, 22642.00
479.8810, 22848.00
481.0670, 22946.00
482.2530, 23062.00
483.4390, 23026.62
484.6250, 23004.00
485.8100, 22854.00
486.9960, 22707.00
488.1810, 22595.00
489.3660, 22523.00
490.5510, 22334.00
491.7360, 22146.00
492.9200, 22082.00
494.1050, 21804.00
495.2890, 21733.00
496.4730, 21594.00
497.6570, 21340.00
498.8400, 21142.00
500.0240, 21101.00
501.2070, 20899.00
502.3910, 20892.00
503.5740, 20521.00
504.7570, 20645.00
505.9400, 20292.00
507.1220, 20555.00
508.3050, 20147.00
509.4870, 20116.00
510.6690, 19924.00
511.8510, 19690.00
513.0330, 19728.00
514.2140, 19612.00
515.3960, 19608.00
516.5770, 19587.79
517.7580, 19537.74
518.9390, 19549.00
520.1200, 19466.00
521.3010, 19435.00
522.4810, 19350.00
523.6610, 19340.00
524.8420, 19251.00
526.0220, 19363.00
527.2010, 19466.00
528.3810, 19243.00
529.5610, 19410.00
530.7400, 19278.00
531.9190, 19361.00
533.0980, 19301.00
534.2770, 19240.00
535.4560, 19448.00
536.6340, 19467.00
537.8120, 19285.00
538.9910, 19303.00
540.1690, 19438.00
541.3460, 19316.00
542.5240, 19473.00
543.7020, 19298.00
544.8790, 19515.00
546.0560, 19604.00
547.2330, 19367.00
548.4100, 19525.00
549.5870, 19604.00
550.7630, 19370.00
551.9400, 19495.00
553.1160, 19488.00
554.2920, 19608.00
555.4680, 19504.00
556.6440, 19632.00
557.8190, 19465.00
558.9950, 19710.00
560.1700, 19627.00
561.3450, 19711.00
562.5200, 19718.00
563.6950, 19847.00
564.8690, 19537.00
566.0440, 19645.00
567.2180, 19756.00
568.3920, 19628.00
569.5660, 19771.00
570.7400, 19768.00
571.9130, 19977.00
573.0870, 19837.00
574.2600, 19831.00
575.4330, 19820.00
576.6060, 20036.00
577.7790, 20110.00
578.9520, 19899.00
580.1240, 20223.00
581.2960, 20108.00
582.4690, 20033.00
583.6410, 20144.00
584.8120, 20420.00
585.9840, 20350.00
587.1560, 20511.00
588.3270, 20579.38
589.4980, 20681.57
590.6690, 20805.00
591.8400, 20945.00
593.0110, 21308.00
594.1810, 21434.00
595.3510, 21905.00
596.5220, 22258.00
597.6920, 22720.00
598.8610, 23116.00
600.0310, 23667.00
601.2010, 24413.00
602.3700, 24936.00
603.5390, 24938.00
604.7080, 24772.00
605.8770, 23979.00
607.0460, 23654.00
608.2140, 22838.00
609.3830, 22288.00
610.5510, 22112.00
611.7190, 22026.00
612.8870, 21912.00
614.0550, 21814.00
615.2220, 21769.00
616.3900, 21942.00
617.5570, 21900.00
618.7240, 22257.00
619.8910, 22391.00
621.0580, 22167.00
622.2240, 22407.00
623.3910, 22731.00
624.5570, 23181.00
625.7230, 23452.00
626.8890, 23829.00
628.0550, 24474.00
629.2200, 24792.00
630.3860, 25331.00
631.5510, 26166.00
632.7160, 26455.00
633.8810, 27066.00
635.0460, 27762.00
636.2100, 28128.00
637.3750, 29194.00
638.5390, 30423.00
639.7030, 32171.00
640.8670, 34555.00
642.0310, 37328.00
643.1950, 40873.00
644.3580, 44066.00
645.5210, 47159.00
646.6850, 47655.00
647.8480, 46168.00
649.0100, 43130.00
650.1730, 38416.00
651.3350, 34645.00
652.4980, 31444.00
653.6600, 29087.00
654.8220, 27169.00
655.9840, 26047.00
657.1450, 25031.00
658.3070, 24138.00
659.4680, 23548.00
660.6300, 23275.00
661.7910, 22876.00
662.9510, 22532.00
664.1120, 22157.00
665.2730, 22164.00
666.4330, 21964.00
667.5930, 21659.00
668.7530, 21887.00
669.9130, 21598.00
671.0730, 21598.00
672.2320, 21566.00
673.3920, 21434.00
674.5510, 21424.00
675.7100, 21542.00
676.8690, 21254.00
678.0280, 21263.00
679.1860, 21158.00
680.3450, 21465.00
681.5030, 21224.00
682.6610, 21234.00
683.8190, 21182.00
684.9770, 21198.00
686.1340, 21223.00
687.2920, 21262.00
688.4490, 21333.00
689.6060, 21085.00
690.7630, 21019.00
691.9200, 21130.00
693.0760, 21288.00
694.2330, 21170.00
695.3890, 21174.00
696.5450, 21291.00
697.7010, 21396.00
698.8570, 21326.00
700.0130, 21232.00
701.1680, 21134.00
702.3230, 21198.00
703.4780, 21313.00
704.6330, 21209.00
705.7880, 21216.00
706.9430, 21415.00
708.0970, 21385.00
709.2520, 21182.00
710.4060, 21447.00
711.5600, 21378.00
712.7140, 21300.00
713.8670, 21382.00
715.0210, 21441.00
716.1740, 21342.00
717.3270, 21303.00
718.4800, 21359.00
719.6330, 21263.84
720.7860, 21382.41
721.9380, 21457.19
723.0910, 21490.57
724.2430, 21358.45
725.3950, 21440.02
726.5470, 21435.95
727.6980, 21428.35
728.8500, 21539.99
730.0010, 21431.93
731.1530, 21541.68
732.3040, 21564.47
733.4550, 21627.05
734.6050, 21603.45
735.7560, 21606.49
736.9060, 21695.69
738.0560, 21737.18
739.2060, 21703.66
740.3560, 21768.76
741.5060, 21776.00
742.6560, 21646.00
743.8050, 21801.00
744.9540, 21702.00
746.1030, 21769.00
747.2520, 21627.00
748.4010, 21705.38
749.5500, 21705.87
750.6980, 21828.00
751.8460, 21776.00
752.9950, 21843.00
754.1420, 21901.00
755.2900, 21939.00
756.4380, 21822.00
757.5850, 21771.00
758.7330, 21968.00
759.8800, 22056.00
761.0270, 21884.00
762.1730, 22052.00
763.3200, 22128.00
764.4670, 22125.00
765.6130, 22371.00
766.7590, 22188.00
767.9050, 22001.00
769.0510, 22039.00
770.1960, 22229.00
771.3420, 22188.00
772.4870, 22191.00
773.6320, 22084.00
774.7770, 22045.00
775.9220, 22259.00
777.0670, 22210.00
778.2110, 22391.00
779.3560, 22504.00
780.5000, 22418.00
781.6440, 22529.00
782.7880, 22461.00
783.9320, 22782.00
785.0750, 22866.00
786.2180, 22779.00
787.3620, 22689.00
788.5050, 22831.00
789.6480, 22997.00
790.7900, 23185.00
791.9330, 23165.00
793.0750, 23330.00
794.2170, 23573.00
795.3590, 23593.00
796.5010, 23472.00
797.6430, 23651.00
798.7850, 24073.00
799.9260, 23894.00
801.0670, 23843.00
802.2080, 24193.00
803.3490, 24077.00
804.4900, 24157.00
805.6310, 24318.00
806.7710, 24252.00
807.9110, 24254.00
809.0510, 24499.00
810.1910, 24329.00
811.3310, 24404.00
812.4710, 24276.00
813.6100, 24563.00
814.7490, 24309.00
815.8880, 24342.00
817.0270, 24193.00
818.1660, 24221.00
819.3050, 24302.00
820.4430, 24186.00
821.5820, 24106.00
822.7200, 23930.00
823.8580, 23824.00
824.9950, 23753.00
826.1330, 23680.00
827.2710, 23698.00
828.4080, 23689.00
829.5450, 23711.00
830.6820, 23662.93
831.8190, 23642.48
832.9560, 23501.00
834.0920, 23537.00
835.2280, 23333.00
836.3650, 23218.00
837.5010, 23377.00
838.6360, 23130.00
839.7720, 23225.00
840.9080, 23188.00
842.0430, 23305.00
843.1780, 23246.00
844.3130, 23372.00
845.4480, 23429.00
846.5830, 23186.00
847.7170, 23350.00
848.8520, 23219.00
849.9860, 23221.00
851.1200, 23250.00
852.2540, 23194.00
853.3870, 23403.00
854.5210, 23414.00
855.6540, 23219.00
856.7880, 23365.00
857.9210, 23494.00
859.0540, 23485.00
860.1860, 23342.00
861.3190, 23403.00
862.4510, 23384.00
863.5840, 23395.00
864.7160, 23469.00
865.8480, 23441.00
866.9790, 23463.88
868.1110, 23482.00
869.2420, 23455.00
870.3740, 23527.00
871.5050, 23510.98
872.6360, 23517.51
873.7660, 23418.00
874.8970, 23566.00
876.0280, 23509.00
877.1580, 23638.00
878.2880, 23606.00
879.4180, 23597.00
880.5480, 23761.00
881.6770, 23559.00
882.8070, 23709.00
883.9360, 23623.00
885.0650, 23831.00
886.1940, 23821.00
887.3230, 23810.00
888.4520, 23868.00
889.5800, 23769.00
890.7090, 23952.00
891.8370, 23745.00
892.9650, 23773.00
894.0930, 24045.00
895.2200, 23941.00
896.3480, 24052.00
897.4750, 23972.00
898.6020, 24059.00
899.7290, 24057.17
900.8560, 23928.00
901.9830, 24106.00
903.1090, 23942.00
904.2360, 24030.00
905.3620, 23813.00
906.4880, 23824.00
907.6140, 23996.00
908.7400, 24120.00
909.8650, 24171.00
910.9900, 24069.00
912.1160, 24223.00
913.2410, 24227.00
914.3660, 24308.00
915.4900, 24067.00
916.6150, 24302.00
917.7390, 24258.00
918.8640, 24485.00
919.9880, 24345.00
921.1120, 24409.00
922.2350, 24258.00
923.3590, 24687.00
924.4820, 24400.00
925.6060, 24558.00
926.7290, 24440.00
927.8520, 24497.00
928.9740, 24390.00
930.0970, 24479.00
931.2190, 24334.00
932.3420, 24454.00
933.4640, 24640.00
934.5860, 24535.88
935.7080, 24598.00
936.8290, 24555.00
937.9510, 24512.00
939.0720, 24645.00
940.1930, 24684.00
941.3140, 24711.18
942.4350, 24664.56
943.5560, 24821.00
944.6760, 24578.00
945.7960, 24683.00
946.9170, 24870.00
948.0370, 25149.00
949.1560, 25112.20
950.2760, 24891.00
951.3960, 25067.00
952.5150, 25044.00
953.6340, 24939.00
954.7530, 25206.00
955.8720, 25397.00
956.9910, 25205.00
958.1090, 25305.00
959.2280, 25419.96
960.3460, 25615.00
961.4640, 25692.00
962.5820, 25651.00
963.6990, 25780.00
964.8170, 25960.00
965.9340, 25787.00
967.0510, 25957.00
968.1690, 25851.00
969.2850, 25863.00
970.4020, 25710.00
971.5190, 25769.00
972.6350, 25816.00
973.7510, 25825.00
974.8670, 26068.00
975.9830, 26035.00
977.0990, 26049.00
978.2150, 26477.00
979.3300, 26281.00
980.4450, 26509.11
981.5600, 26622.85
982.6750, 26760.00
983.7900, 26870.00
984.9050, 27062.00
986.0190, 27286.00
987.1340, 27498.19
988.2480, 27739.84
989.3620, 28070.00
990.4750, 28283.60
991.5890, 28703.00
992.7020, 29082.00
993.8160, 29607.00
994.9290, 29989.00
996.0420, 30706.00
997.1550, 31517.00
998.2670, 32021.00
999.3800, 32977.00
1000.492, 33812.00
1001.604, 34851.00
1002.716, 35761.00
1003.828, 37034.00
1004.940, 38406.00
1006.051, 39773.00
1007.163, 40362.00
1008.274, 41478.00
1009.385, 41857.00
1010.496, 42554.00
1011.606, 42809.00
1012.717, 42092.00
1013.827, 41809.00
1014.937, 40826.00
1016.047, 39732.00
1017.157, 38663.00
1018.267, 37656.00
1019.377, 36297.00
1020.486, 35685.00
1021.595, 34853.00
1022.704, 34145.00
1023.813, 33804.00
1024.922, 33358.00
1026.030, 33025.00
1027.139, 33134.00
1028.247, 32967.00
1029.355, 33216.00
1030.463, 33742.00
1031.571, 33644.00
1032.678, 34590.00
1033.786, 34903.00
1034.893, 36079.00
1036.000, 36794.00
1037.107, 37713.00
1038.214, 38309.00
1039.321, 39209.00
1040.427, 40004.00
1041.533, 40795.00
1042.639, 41225.00
1043.745, 41969.00
1044.851, 42371.00
1045.957, 42848.00
1047.062, 42977.00
1048.168, 43094.00
1049.273, 43281.00
1050.378, 43422.00
1051.482, 43633.00
1052.587, 43900.00
1053.692, 44298.00
1054.796, 45038.00
1055.900, 45777.00
1057.004, 46684.00
1058.108, 48392.00
1059.212, 49560.00
1060.315, 50553.00
1061.418, 51342.00
1062.522, 51453.00
1063.625, 50974.00
1064.728, 49328.00
1065.830, 47008.00
1066.933, 44942.00
1068.035, 41876.00
1069.137, 39828.00
1070.239, 37682.00
1071.341, 35847.00
1072.443, 34471.00
1073.545, 33418.00
1074.646, 32680.00
1075.747, 31783.00
1076.848, 31262.00
1077.949, 30993.00
1079.050, 30573.00
1080.150, 30172.00
1081.251, 29826.00
1082.351, 29453.00
1083.451, 29411.00
1084.551, 29479.00
1085.651, 29325.00
1086.750, 29052.00
1087.850, 28848.00
1088.949, 28861.00
1090.048, 28747.00
1091.147, 28835.00
1092.246, 28748.00
1093.345, 28804.00
1094.443, 28792.00
1095.541, 28799.00
1096.639, 29067.00
1097.737, 28782.00
1098.835, 28980.00
1099.933, 28801.00
1101.030, 29179.00
1102.128, 29176.00
1103.225, 29444.00
1104.322, 29530.00
1105.419, 29667.00
1106.515, 29800.00
1107.612, 30278.00
1108.708, 30177.00
1109.804, 30641.00
1110.900, 30641.00
1111.996, 30836.00
1113.092, 31118.00
1114.187, 31175.00
1115.283, 31228.00
1116.378, 31295.00
1117.473, 31330.00
1118.568, 31312.00
1119.662, 31666.00
1120.757, 31583.00
1121.851, 31702.00
1122.946, 31643.00
1124.040, 31599.00
1125.134, 31235.00
1126.227, 31392.00
1127.321, 31005.00
1128.414, 31184.00
1129.508, 30998.00
1130.601, 30823.00
1131.693, 30859.00
1132.786, 30433.00
1133.879, 30547.00
1134.971, 30408.00
1136.064, 30155.00
1137.156, 29923.00
1138.248, 29943.00
1139.339, 29766.00
1140.431, 29647.00
1141.522, 29347.00
1142.614, 29415.00
1143.705, 28989.00
1144.796, 29103.00
1145.887, 28987.00
1146.977, 29060.00
1148.068, 28874.00
1149.158, 28966.00
1150.248, 28724.00
1151.338, 28663.00
1152.428, 28758.00
1153.518, 28849.00
1154.607, 28693.00
1155.696, 28948.00
1156.785, 28656.00
1157.874, 28898.00
1158.963, 28694.00
1160.052, 28698.00
1161.141, 28908.00
1162.229, 28830.00
1163.317, 28943.00
1164.405, 28828.00
1165.493, 28647.00
1166.581, 28615.00
1167.668, 29058.00
1168.756, 28854.00
1169.843, 29081.00
1170.930, 28925.00
1172.017, 28839.00
1173.103, 29008.76
1174.190, 29394.00
1175.276, 29157.00
1176.363, 29258.00
1177.449, 29181.00
1178.535, 29121.00
1179.620, 29179.00
1180.706, 29193.95
1181.791, 29321.00
1182.877, 29376.00
1183.962, 29333.00
1185.047, 29488.00
1186.131, 29752.00
1187.216, 29534.00
1188.300, 29626.00
1189.385, 29912.00
1190.469, 29850.00
1191.553, 30057.00
1192.637, 30094.00
1193.720, 30028.00
1194.804, 30033.00
1195.887, 30201.00
1196.970, 29934.00
1198.053, 30288.00
1199.136, 30502.00
1200.219, 30044.00
1201.301, 29979.00
1202.383, 29720.00
1203.465, 30051.00
1204.547, 29776.00
1205.629, 29944.00
1206.711, 30121.00
1207.792, 29805.00
1208.874, 29721.00
1209.955, 29741.00
1211.036, 30062.00
1212.117, 29866.32
1213.198, 29935.00
1214.278, 29754.00
1215.359, 29692.00
1216.439, 29726.00
1217.519, 29547.00
1218.599, 29641.00
1219.678, 29477.00
1220.758, 29521.00
1221.837, 29521.00
1222.917, 29289.00
1223.996, 29548.00
1225.075, 29404.00
1226.153, 29522.00
1227.232, 29565.00
1228.310, 29512.00
1229.389, 29491.00
1230.467, 29488.71
1231.545, 29573.00
1232.622, 29473.00
1233.700, 29385.00
1234.777, 29406.00
1235.855, 29498.00
1236.932, 29407.00
1238.009, 29421.00
1239.086, 29478.00
1240.162, 29759.00
1241.239, 29402.00
1242.315, 29719.00
1243.391, 29610.00
1244.467, 29685.00
1245.543, 29707.00
1246.619, 29521.00
1247.694, 29756.00
1248.769, 29667.00
1249.844, 29654.00
1250.919, 29844.00
1251.994, 29802.00
1253.069, 29638.00
1254.144, 29638.00
1255.218, 29736.00
1256.292, 29768.00
1257.366, 30037.00
1258.440, 29636.00
1259.514, 29653.00
1260.587, 29921.00
1261.661, 29702.00
1262.734, 29756.00
1263.807, 29934.00
1264.880, 29764.00
1265.952, 30028.00
1267.025, 30033.00
1268.097, 29824.00
1269.170, 29852.00
1270.242, 30166.00
1271.314, 30156.00
1272.385, 30098.00
1273.457, 30024.00
1274.528, 30079.00
1275.600, 30048.00
1276.671, 30231.00
1277.742, 30319.00
1278.812, 30236.00
1279.883, 30253.00
1280.954, 30227.00
1282.024, 30350.00
1283.094, 30127.00
1284.164, 30252.00
1285.234, 30371.00
1286.303, 30221.00
1287.373, 30202.00
1288.442, 30317.00
1289.511, 30478.00
1290.580, 30381.00
1291.649, 30486.12
1292.718, 30715.00
1293.786, 30483.00
1294.855, 30525.00
1295.923, 30442.00
1296.991, 30752.00
1298.059, 30499.00
1299.126, 30724.00
1300.194, 30516.00
1301.261, 30520.00
1302.328, 30753.00
1303.395, 30705.00
1304.462, 30911.00
1305.529, 30558.00
1306.596, 30734.00
1307.662, 30548.00
1308.728, 30657.00
1309.794, 30768.00
1310.860, 30669.00
1311.926, 30517.00
1312.991, 30961.00
1314.057, 31023.00
1315.122, 30910.00
1316.187, 30719.00
1317.252, 30800.00
1318.317, 30750.00
1319.381, 30889.00
1320.446, 30942.00
1321.510, 30958.00
1322.574, 31190.00
1323.638, 31062.00
1324.702, 31119.00
1325.766, 31051.00
1326.829, 30919.00
1327.892, 31121.00
1328.956, 31374.00
1330.019, 31291.00
1331.081, 31153.00
1332.144, 31117.00
1333.206, 31354.00
1334.269, 31201.00
1335.331, 31274.00
1336.393, 31380.00
1337.455, 31255.00
1338.516, 31403.00
1339.578, 31369.00
1340.639, 31390.00
1341.701, 31586.00
1342.762, 31529.00
1343.822, 31474.00
1344.883, 31257.00
1345.944, 31443.00
1347.004, 31527.00
1348.064, 31533.00
1349.124, 31640.00
1350.184, 31533.00
1351.244, 31572.00
1352.304, 31764.00
1353.363, 31607.00
1354.422, 31721.92
1355.481, 31754.01
1356.540, 31760.00
1357.599, 31860.00
1358.657, 31851.00
1359.716, 31954.00
1360.774, 31972.08
1361.832, 31872.00
1362.890, 31981.00
1363.948, 31907.00
1365.006, 31808.00
1366.063, 31845.00
1367.120, 31913.00
1368.178, 31891.00
1369.234, 31794.00
1370.291, 32024.00
1371.348, 31838.00
1372.404, 31951.00
1373.461, 32239.00
1374.517, 31999.00
1375.573, 32108.00
1376.629, 32223.00
1377.684, 32285.00
1378.740, 32310.56
1379.795, 32244.00
1380.850, 32291.00
1381.905, 32315.00
1382.960, 32280.00
1384.015, 32701.00
1385.070, 32297.00
1386.124, 32297.00
1387.178, 32113.00
1388.232, 32431.00
1389.286, 32429.00
1390.340, 32392.00
1391.393, 32519.00
1392.447, 32228.00
1393.500, 32216.00
1394.553, 32486.00
1395.606, 32674.00
1396.659, 32289.00
1397.711, 32644.00
1398.764, 32443.00
1399.816, 32664.00
1400.868, 32459.00
1401.920, 32383.00
1402.972, 32811.00
1404.023, 32624.00
1405.075, 32604.00
1406.126, 32641.00
1407.177, 32649.00
1408.228, 32666.52
1409.279, 32703.99
1410.330, 32710.00
1411.380, 32770.00
1412.431, 32788.00
1413.481, 32810.72
1414.531, 32883.00
1415.580, 32901.00
1416.630, 32871.00
1417.680, 32952.00
1418.729, 33007.07
1419.778, 32968.00
1420.827, 33153.00
1421.876, 33137.00
1422.925, 33124.00
1423.973, 33003.00
1425.022, 33056.53
1426.070, 32931.00
1427.118, 33112.00
1428.166, 33253.00
1429.214, 33311.00
1430.261, 33225.00
1431.309, 33337.88
1432.356, 33510.00
1433.403, 33362.00
1434.450, 33399.00
1435.497, 33296.00
1436.543, 33375.00
1437.590, 33555.00
1438.636, 33564.00
1439.682, 33591.00
1440.728, 33713.00
1441.774, 33741.00
1442.819, 33756.55
1443.865, 33514.00
1444.910, 33731.00
1445.955, 33684.00
1447.000, 33617.00
1448.045, 33886.00
1449.090, 33704.00
1450.134, 33611.00
1451.178, 33563.00
1452.223, 33959.00
1453.267, 33554.00
1454.310, 33859.00
1455.354, 33568.00
1456.398, 33963.00
1457.441, 33735.00
1458.484, 33899.00
1459.527, 34115.00
1460.570, 33850.00
1461.613, 33818.00
1462.655, 33907.00
1463.698, 34111.00
1464.740, 33968.00
1465.782, 34023.00
1466.824, 34191.00
1467.866, 34042.00
1468.907, 34076.00
1469.948, 33997.00
1470.990, 34397.00
1472.031, 34362.00
1473.072, 34137.00
1474.112, 34484.00
1475.153, 34338.00
1476.194, 34542.00
1477.234, 34247.00
1478.274, 34493.00
1479.314, 34263.00
1480.354, 34296.00
1481.393, 34281.00
1482.433, 34317.00
1483.472, 34533.00
1484.511, 34521.00
1485.550, 34727.00
1486.589, 34348.00
1487.628, 34423.00
1488.666, 34472.00
1489.704, 34735.00
1490.743, 34577.00
1491.781, 34487.00
1492.819, 34588.00
1493.856, 34662.00
1494.894, 34683.00
1495.931, 34520.00
1496.968, 34672.00
1498.005, 34655.00
1499.042, 34611.00
1500.079, 34735.00
1501.115, 34717.00
1502.152, 34785.00
1503.188, 34738.00
1504.224, 34794.00
1505.260, 34853.00
1506.296, 34666.00
1507.331, 34841.00
1508.367, 34953.00
1509.402, 34877.00
1510.437, 35006.00
1511.472, 35024.33
1512.507, 35027.00
1513.541, 35085.00
1514.576, 35045.00
1515.610, 35012.00
1516.644, 35207.00
1517.678, 35154.00
1518.712, 34900.00
1519.746, 35021.00
1520.779, 34961.00
1521.813, 34925.00
1522.846, 35372.00
1523.879, 35190.00
1524.912, 35239.00
1525.944, 35342.00
1526.977, 35010.00
1528.009, 35325.00
1529.041, 35260.00
1530.073, 35253.00
1531.105, 35303.00
1532.137, 35479.00
1533.168, 35588.00
1534.200, 35586.00
1535.231, 35722.00
1536.262, 35438.00
1537.293, 35430.00
1538.324, 35641.00
1539.354, 35282.00
1540.385, 35519.00
1541.415, 35809.00
1542.445, 35992.00
1543.475, 35372.00
1544.505, 35667.00
1545.534, 35674.00
1546.564, 35846.00
1547.593, 35749.00
1548.622, 35656.00
1549.651, 35957.00
1550.680, 35946.00
1551.708, 35814.00
1552.737, 36012.00
1553.765, 36017.00
1554.793, 36077.00
1555.821, 35961.00
1556.849, 36196.00
1557.877, 36024.00
1558.904, 35902.00
1559.932, 36012.00
1560.959, 35982.00
1561.986, 35955.00
1563.013, 36070.00
1564.039, 35886.00
1565.066, 36141.00
1566.092, 36030.00
1567.119, 36045.00
1568.145, 36314.00
1569.170, 36138.00
1570.196, 36502.00
1571.222, 36261.00
1572.247, 36167.00
1573.272, 36186.00
1574.297, 36378.00
1575.322, 36323.00
1576.347, 36877.00
##END=



