##NAMES=Montebrasite
##RRUFFID=R060890
##IDEAL CHEMISTRY=LiAlPO_4_(OH)
##LOCALITY=Mount Marie, Paris, Maine, USA
##OWNER=RRUFF
##SOURCE=Bob Jenkins
##DESCRIPTION=Colorless massive
##STATUS=The identification of this mineral is confirmed by single-crystal X-ray diffraction and chemical analysis.
##URL=rruff.info/R060890
##MEASURED CHEMISTRY=Li_1.00_Al_1.00_(P_1.00_O_4_)(OH)_0.63_F_0.37_)_Î£=1_ ; Li not measured but estimated by stoichiometry
##PIN_ID=M00747
##ORIENTATION=Laser parallel to (0 1 1). Fiducial mark perpendicular to laser is parallel to a [1 0 0]
90.67800, 13847.00
91.91600, 13849.00
93.15500, 14024.00
94.39300, 13927.00
95.63100, 13961.00
96.86900, 13752.00
98.10600, 13837.00
99.34400, 13476.00
100.5810, 13338.00
101.8190, 13376.00
103.0560, 13305.00
104.2930, 13296.00
105.5290, 13583.00
106.7660, 13594.00
108.0020, 13730.00
109.2390, 13774.00
110.4750, 13795.00
111.7110, 13784.01
112.9460, 13745.09
114.1820, 13664.00
115.4170, 13611.00
116.6530, 13539.00
117.8880, 13467.00
119.1230, 13566.00
120.3580, 13460.00
121.5920, 13827.00
122.8270, 13805.00
124.0610, 13851.00
125.2950, 13978.00
126.5290, 14067.00
127.7630, 14077.00
128.9970, 14304.00
130.2300, 14299.31
131.4640, 14376.92
132.6970, 14356.00
133.9300, 14396.00
135.1630, 14342.00
136.3950, 14190.00
137.6280, 14005.00
138.8600, 13962.00
140.0920, 13766.98
141.3240, 13667.00
142.5560, 13466.00
143.7880, 13244.00
145.0190, 13106.00
146.2510, 13232.00
147.4820, 13207.00
148.7130, 12914.00
149.9440, 12950.00
151.1750, 12777.00
152.4050, 12702.00
153.6360, 12738.00
154.8660, 12907.00
156.0960, 12855.00
157.3260, 12674.00
158.5560, 12665.00
159.7850, 12488.00
161.0150, 12516.00
162.2440, 12442.00
163.4730, 12441.00
164.7020, 12536.00
165.9310, 12676.00
167.1590, 12698.00
168.3880, 12789.00
169.6160, 13139.00
170.8440, 13519.00
172.0720, 13410.00
173.3000, 13502.00
174.5280, 13581.00
175.7550, 13685.00
176.9820, 13848.86
178.2100, 13943.40
179.4370, 14113.00
180.6630, 14235.00
181.8900, 14159.00
183.1170, 14382.00
184.3430, 14279.00
185.5690, 14471.00
186.7950, 14453.00
188.0210, 14629.00
189.2470, 14653.00
190.4720, 14783.00
191.6970, 14658.00
192.9230, 14386.00
194.1480, 14489.00
195.3730, 14282.00
196.5970, 14275.00
197.8220, 13880.00
199.0460, 13508.00
200.2700, 13227.00
201.4940, 12760.00
202.7180, 12440.00
203.9420, 12163.43
205.1660, 11845.00
206.3890, 11706.00
207.6120, 11392.00
208.8350, 11293.00
210.0580, 11096.00
211.2810, 11054.00
212.5040, 10883.00
213.7260, 10844.97
214.9480, 10936.00
216.1700, 10788.00
217.3920, 10868.00
218.6140, 10871.00
219.8360, 10769.00
221.0570, 10741.00
222.2790, 10739.66
223.5000, 10704.00
224.7210, 10786.00
225.9410, 10705.00
227.1620, 10804.00
228.3820, 10637.00
229.6030, 10673.00
230.8230, 10842.00
232.0430, 10697.00
233.2630, 10616.00
234.4820, 10775.00
235.7020, 10674.00
236.9210, 10655.00
238.1400, 10777.00
239.3590, 10559.00
240.5780, 10506.00
241.7970, 10432.00
243.0150, 10458.00
244.2340, 10417.00
245.4520, 10390.00
246.6700, 10371.00
247.8880, 10356.89
249.1060, 10342.24
250.3230, 10347.00
251.5400, 10321.48
252.7580, 10314.39
253.9750, 10301.00
255.1920, 10322.00
256.4080, 10298.00
257.6250, 10286.00
258.8410, 10272.51
260.0580, 10314.46
261.2740, 10282.00
262.4900, 10409.00
263.7050, 10544.00
264.9210, 10577.00
266.1360, 10697.00
267.3520, 10487.00
268.5670, 10541.00
269.7820, 10538.00
270.9960, 10445.00
272.2110, 10510.00
273.4250, 10495.00
274.6400, 10449.00
275.8540, 10775.00
277.0680, 10728.00
278.2810, 10812.00
279.4950, 10978.00
280.7090, 11062.00
281.9220, 11319.65
283.1350, 11535.00
284.3480, 11914.00
285.5610, 12279.00
286.7730, 12717.00
287.9860, 13442.00
289.1980, 14636.00
290.4100, 16086.00
291.6220, 17228.00
292.8340, 19168.00
294.0460, 20867.00
295.2570, 22687.00
296.4690, 24755.00
297.6800, 26922.00
298.8910, 29154.00
300.1020, 31196.00
301.3120, 32122.00
302.5230, 32274.00
303.7330, 31291.00
304.9440, 29592.00
306.1540, 27361.00
307.3630, 25295.00
308.5730, 23733.00
309.7830, 22136.00
310.9920, 21142.00
312.2010, 20312.00
313.4100, 19666.00
314.6190, 18954.00
315.8280, 18079.00
317.0370, 17161.00
318.2450, 16143.00
319.4530, 15437.00
320.6610, 14449.00
321.8690, 13667.00
323.0770, 13253.00
324.2850, 12525.00
325.4920, 12224.00
326.6990, 11973.00
327.9060, 11520.00
329.1130, 11415.00
330.3200, 11296.00
331.5270, 11235.00
332.7330, 11097.00
333.9390, 10989.69
335.1450, 10928.00
336.3510, 10785.00
337.5570, 10731.00
338.7630, 10720.00
339.9680, 10657.00
341.1740, 10751.00
342.3790, 10642.00
343.5840, 10631.00
344.7890, 10552.00
345.9930, 10532.00
347.1980, 10575.00
348.4020, 10460.00
349.6060, 10587.00
350.8100, 10509.00
352.0140, 10369.00
353.2180, 10454.00
354.4210, 10586.00
355.6250, 10565.00
356.8280, 10697.00
358.0310, 10508.00
359.2340, 10499.00
360.4360, 10486.00
361.6390, 10604.00
362.8410, 10631.00
364.0430, 10583.00
365.2450, 10706.00
366.4470, 10755.00
367.6490, 10593.00
368.8510, 10651.00
370.0520, 10772.00
371.2530, 10611.00
372.4540, 10671.00
373.6550, 10635.00
374.8560, 10715.00
376.0560, 10661.00
377.2570, 10681.00
378.4570, 10638.79
379.6570, 10579.15
380.8570, 10517.00
382.0570, 10427.00
383.2560, 10351.00
384.4560, 10240.00
385.6550, 10378.00
386.8540, 10364.00
388.0530, 10325.81
389.2520, 10278.00
390.4510, 10271.00
391.6490, 10217.00
392.8470, 10215.00
394.0450, 10120.00
395.2430, 9925.000
396.4410, 10071.00
397.6390, 9969.000
398.8360, 10137.00
400.0340, 10125.00
401.2310, 10242.00
402.4280, 10035.00
403.6250, 10072.00
404.8210, 10006.00
406.0180, 10054.00
407.2140, 10020.00
408.4100, 10154.00
409.6060, 10194.00
410.8020, 10306.00
411.9980, 10535.00
413.1930, 10735.00
414.3890, 11009.00
415.5840, 11463.00
416.7790, 12143.00
417.9740, 12850.00
419.1680, 13418.00
420.3630, 14177.00
421.5570, 14699.00
422.7510, 15531.00
423.9450, 16433.00
425.1390, 16795.00
426.3330, 16552.00
427.5270, 16035.00
428.7200, 14837.00
429.9130, 13641.00
431.1060, 12422.00
432.2990, 11696.00
433.4920, 11001.00
434.6840, 10575.00
435.8770, 10361.00
437.0690, 10155.00
438.2610, 9972.000
439.4530, 9764.000
440.6450, 9728.000
441.8360, 9612.000
443.0280, 9613.000
444.2190, 9661.000
445.4100, 9544.000
446.6010, 9512.000
447.7920, 9436.000
448.9820, 9514.000
450.1730, 9539.000
451.3630, 9602.000
452.5530, 9522.000
453.7430, 9534.000
454.9330, 9629.000
456.1230, 9521.000
457.3120, 9486.000
458.5010, 9523.000
459.6910, 9631.000
460.8800, 9548.000
462.0680, 9605.000
463.2570, 9723.000
464.4460, 9607.000
465.6340, 9722.000
466.8220, 9657.000
468.0100, 9790.000
469.1980, 9838.000
470.3860, 9958.000
471.5730, 10008.80
472.7600, 10115.00
473.9480, 10122.00
475.1350, 10182.00
476.3210, 10270.00
477.5080, 10495.00
478.6950, 10622.00
479.8810, 10690.00
481.0670, 10735.00
482.2530, 10791.35
483.4390, 10860.21
484.6250, 10848.00
485.8100, 10978.00
486.9960, 11022.00
488.1810, 11038.00
489.3660, 10945.00
490.5510, 10833.00
491.7360, 10720.00
492.9200, 10669.00
494.1050, 10611.00
495.2890, 10483.00
496.4730, 10499.00
497.6570, 10359.00
498.8400, 10481.00
500.0240, 10269.00
501.2070, 10161.00
502.3910, 10141.00
503.5740, 10000.00
504.7570, 9953.000
505.9400, 9848.000
507.1220, 9934.000
508.3050, 9851.000
509.4870, 9835.000
510.6690, 9655.000
511.8510, 9762.000
513.0330, 9646.000
514.2140, 9784.000
515.3960, 9727.000
516.5770, 9694.000
517.7580, 9756.000
518.9390, 9730.000
520.1200, 9854.000
521.3010, 9814.000
522.4810, 9645.000
523.6610, 9741.000
524.8420, 9775.000
526.0220, 9654.000
527.2010, 9894.000
528.3810, 9649.000
529.5610, 9885.000
530.7400, 9703.000
531.9190, 9689.000
533.0980, 9739.000
534.2770, 9792.000
535.4560, 9900.000
536.6340, 9847.000
537.8120, 9847.000
538.9910, 9822.000
540.1690, 9808.000
541.3460, 9969.000
542.5240, 9944.000
543.7020, 9890.000
544.8790, 10011.00
546.0560, 9920.000
547.2330, 9956.000
548.4100, 10099.00
549.5870, 10110.00
550.7630, 10143.00
551.9400, 10113.00
553.1160, 10114.00
554.2920, 10139.00
555.4680, 10117.00
556.6440, 10249.00
557.8190, 10154.00
558.9950, 10025.00
560.1700, 10257.00
561.3450, 10176.00
562.5200, 10059.00
563.6950, 10192.00
564.8690, 10249.00
566.0440, 10291.00
567.2180, 10241.00
568.3920, 10320.00
569.5660, 10304.00
570.7400, 10243.00
571.9130, 10336.00
573.0870, 10298.00
574.2600, 10405.00
575.4330, 10392.00
576.6060, 10497.00
577.7790, 10394.00
578.9520, 10529.00
580.1240, 10434.00
581.2960, 10715.00
582.4690, 10720.00
583.6410, 10725.00
584.8120, 10836.00
585.9840, 10915.00
587.1560, 11070.00
588.3270, 11274.00
589.4980, 11238.00
590.6690, 11492.00
591.8400, 11577.00
593.0110, 11824.00
594.1810, 12114.00
595.3510, 12516.00
596.5220, 12843.00
597.6920, 12936.00
598.8610, 13518.00
600.0310, 13686.00
601.2010, 13716.00
602.3700, 14027.00
603.5390, 13835.00
604.7080, 13495.00
605.8770, 13137.00
607.0460, 12586.00
608.2140, 12408.00
609.3830, 12155.00
610.5510, 12182.00
611.7190, 12068.00
612.8870, 11966.00
614.0550, 12005.00
615.2220, 12060.21
616.3900, 12182.63
617.5570, 12362.00
618.7240, 12590.00
619.8910, 12833.00
621.0580, 13117.30
622.2240, 13358.00
623.3910, 13929.00
624.5570, 14368.00
625.7230, 14993.00
626.8890, 15402.00
628.0550, 16193.00
629.2200, 16655.00
630.3860, 17156.00
631.5510, 17595.00
632.7160, 17968.00
633.8810, 18077.00
635.0460, 18208.00
636.2100, 18642.00
637.3750, 19382.00
638.5390, 20025.00
639.7030, 21315.00
640.8670, 22673.00
642.0310, 24290.00
643.1950, 25923.00
644.3580, 27272.00
645.5210, 27941.00
646.6850, 27613.00
647.8480, 26114.00
649.0100, 23937.00
650.1730, 21226.00
651.3350, 19076.00
652.4980, 17050.00
653.6600, 15781.00
654.8220, 14757.00
655.9840, 13901.00
657.1450, 13323.00
658.3070, 12922.00
659.4680, 12428.00
660.6300, 12062.00
661.7910, 11908.00
662.9510, 11761.00
664.1120, 11699.00
665.2730, 11556.00
666.4330, 11377.00
667.5930, 11225.00
668.7530, 11121.00
669.9130, 11225.00
671.0730, 10982.00
672.2320, 10912.00
673.3920, 11099.00
674.5510, 10908.00
675.7100, 10951.00
676.8690, 10976.00
678.0280, 10948.00
679.1860, 10907.00
680.3450, 10938.00
681.5030, 10954.00
682.6610, 10816.00
683.8190, 10773.00
684.9770, 10764.00
686.1340, 10981.00
687.2920, 10795.00
688.4490, 10862.00
689.6060, 10665.00
690.7630, 10826.00
691.9200, 10894.00
693.0760, 10684.00
694.2330, 10845.00
695.3890, 10856.00
696.5450, 10781.00
697.7010, 10722.00
698.8570, 10702.00
700.0130, 10810.00
701.1680, 10796.00
702.3230, 10867.00
703.4780, 10844.00
704.6330, 10941.00
705.7880, 10968.00
706.9430, 10968.56
708.0970, 10935.00
709.2520, 10966.00
710.4060, 10960.00
711.5600, 10942.00
712.7140, 10895.00
713.8670, 10993.00
715.0210, 10901.00
716.1740, 10981.00
717.3270, 10803.00
718.4800, 10996.00
719.6330, 10908.00
720.7860, 10914.00
721.9380, 10875.00
723.0910, 10966.00
724.2430, 10953.00
725.3950, 10961.00
726.5470, 10999.88
727.6980, 11046.00
728.8500, 11025.00
730.0010, 11009.00
731.1530, 10993.00
732.3040, 11094.00
733.4550, 11065.00
734.6050, 11152.00
735.7560, 10997.00
736.9060, 11024.00
738.0560, 11083.00
739.2060, 11155.00
740.3560, 11178.00
741.5060, 11176.00
742.6560, 11183.00
743.8050, 11162.00
744.9540, 11174.00
746.1030, 11318.00
747.2520, 11044.00
748.4010, 11098.00
749.5500, 11071.00
750.6980, 11315.00
751.8460, 11407.00
752.9950, 11312.00
754.1420, 11205.00
755.2900, 11391.00
756.4380, 11336.00
757.5850, 11387.00
758.7330, 11282.00
759.8800, 11414.00
761.0270, 11297.00
762.1730, 11200.00
763.3200, 11479.00
764.4670, 11532.00
765.6130, 11473.00
766.7590, 11270.00
767.9050, 11537.00
769.0510, 11458.00
770.1960, 11522.00
771.3420, 11476.00
772.4870, 11511.69
773.6320, 11473.00
774.7770, 11608.00
775.9220, 11540.00
777.0670, 11618.00
778.2110, 11799.00
779.3560, 11726.00
780.5000, 11884.00
781.6440, 11935.00
782.7880, 11985.00
783.9320, 12082.60
785.0750, 11951.00
786.2180, 12158.00
787.3620, 12247.00
788.5050, 12159.00
789.6480, 12301.00
790.7900, 12401.00
791.9330, 12423.00
793.0750, 12544.00
794.2170, 12654.00
795.3590, 12766.00
796.5010, 12921.00
797.6430, 13011.00
798.7850, 13024.00
799.9260, 13149.00
801.0670, 13064.00
802.2080, 13325.00
803.3490, 13322.00
804.4900, 13198.00
805.6310, 13168.00
806.7710, 13352.00
807.9110, 13297.00
809.0510, 13430.00
810.1910, 13188.00
811.3310, 13301.00
812.4710, 13404.00
813.6100, 13310.00
814.7490, 13400.00
815.8880, 13122.00
817.0270, 13193.00
818.1660, 13027.00
819.3050, 13103.00
820.4430, 13037.00
821.5820, 12901.00
822.7200, 13038.00
823.8580, 12901.00
824.9950, 12760.00
826.1330, 12871.00
827.2710, 12771.00
828.4080, 12691.00
829.5450, 12675.00
830.6820, 12608.00
831.8190, 12678.00
832.9560, 12798.00
834.0920, 12586.00
835.2280, 12728.00
836.3650, 12468.00
837.5010, 12553.00
838.6360, 12409.00
839.7720, 12528.00
840.9080, 12609.00
842.0430, 12543.00
843.1780, 12544.00
844.3130, 12604.00
845.4480, 12569.00
846.5830, 12506.00
847.7170, 12553.00
848.8520, 12521.00
849.9860, 12627.00
851.1200, 12600.00
852.2540, 12603.00
853.3870, 12701.00
854.5210, 12635.00
855.6540, 12563.00
856.7880, 12860.00
857.9210, 12724.00
859.0540, 12628.00
860.1860, 12879.00
861.3190, 12646.00
862.4510, 12551.00
863.5840, 12756.00
864.7160, 12822.00
865.8480, 12799.00
866.9790, 12871.00
868.1110, 12850.00
869.2420, 12852.00
870.3740, 12843.00
871.5050, 12901.00
872.6360, 12902.31
873.7660, 13061.00
874.8970, 12935.00
876.0280, 12916.00
877.1580, 12897.00
878.2880, 13022.00
879.4180, 13066.00
880.5480, 13004.00
881.6770, 13057.00
882.8070, 13083.00
883.9360, 13090.00
885.0650, 13103.00
886.1940, 13104.00
887.3230, 13105.00
888.4520, 13206.00
889.5800, 13184.00
890.7090, 13045.00
891.8370, 13196.00
892.9650, 13133.00
894.0930, 13245.00
895.2200, 13356.00
896.3480, 13309.00
897.4750, 13345.00
898.6020, 13351.00
899.7290, 13461.00
900.8560, 13404.00
901.9830, 13356.00
903.1090, 13282.00
904.2360, 13482.00
905.3620, 13488.00
906.4880, 13424.00
907.6140, 13576.00
908.7400, 13471.00
909.8650, 13581.00
910.9900, 13527.00
912.1160, 13647.00
913.2410, 13670.00
914.3660, 13608.00
915.4900, 13693.00
916.6150, 13585.00
917.7390, 13638.00
918.8640, 13727.00
919.9880, 13729.00
921.1120, 13856.00
922.2350, 13663.00
923.3590, 13723.00
924.4820, 13866.00
925.6060, 13869.00
926.7290, 14007.00
927.8520, 13995.00
928.9740, 13965.00
930.0970, 13864.00
931.2190, 14001.00
932.3420, 14095.00
933.4640, 14034.00
934.5860, 14198.00
935.7080, 14075.00
936.8290, 14099.00
937.9510, 14163.00
939.0720, 14181.00
940.1930, 14271.00
941.3140, 14210.00
942.4350, 14355.00
943.5560, 14489.00
944.6760, 14331.00
945.7960, 14499.00
946.9170, 14439.00
948.0370, 14610.00
949.1560, 14480.00
950.2760, 14682.00
951.3960, 14668.00
952.5150, 14629.00
953.6340, 14723.00
954.7530, 14861.00
955.8720, 15016.00
956.9910, 15023.00
958.1090, 15160.00
959.2280, 15198.00
960.3460, 15399.00
961.4640, 15447.00
962.5820, 15512.00
963.6990, 15762.00
964.8170, 15727.00
965.9340, 15670.00
967.0510, 15977.00
968.1690, 16034.00
969.2850, 16059.00
970.4020, 15923.00
971.5190, 16075.00
972.6350, 16163.00
973.7510, 16160.00
974.8670, 16533.00
975.9830, 16576.00
977.0990, 16780.00
978.2150, 16984.00
979.3300, 17311.00
980.4450, 17523.00
981.5600, 17800.00
982.6750, 18059.00
983.7900, 18398.00
984.9050, 19026.00
986.0190, 19091.00
987.1340, 19889.00
988.2480, 20643.00
989.3620, 21225.00
990.4750, 22522.00
991.5890, 23488.00
992.7020, 24726.00
993.8160, 26223.00
994.9290, 27942.00
996.0420, 29603.00
997.1550, 31751.00
998.2670, 33994.00
999.3800, 36524.00
1000.492, 39163.00
1001.604, 42111.00
1002.716, 45042.00
1003.828, 48450.00
1004.940, 51832.00
1006.051, 54742.00
1007.163, 57549.00
1008.274, 59053.00
1009.385, 60606.00
1010.496, 61000.00
1011.606, 59950.00
1012.717, 58483.00
1013.827, 56094.00
1014.937, 53278.00
1016.047, 49965.00
1017.157, 46405.00
1018.267, 42788.00
1019.377, 39718.00
1020.486, 36581.00
1021.595, 33976.00
1022.704, 31622.00
1023.813, 29741.00
1024.922, 28234.00
1026.030, 26604.00
1027.139, 25481.00
1028.247, 24601.00
1029.355, 23635.00
1030.463, 22985.83
1031.571, 22382.00
1032.678, 21970.00
1033.786, 21617.00
1034.893, 21396.66
1036.000, 21023.00
1037.107, 21042.00
1038.214, 21068.00
1039.321, 20938.00
1040.427, 21014.00
1041.533, 21179.99
1042.639, 21515.00
1043.745, 21717.00
1044.851, 22072.00
1045.957, 22526.00
1047.062, 22860.00
1048.168, 23582.00
1049.273, 24016.00
1050.378, 25086.00
1051.482, 26176.00
1052.587, 27351.00
1053.692, 28786.00
1054.796, 30672.00
1055.900, 32611.00
1057.004, 34449.00
1058.108, 36632.00
1059.212, 38068.00
1060.315, 39875.00
1061.418, 40231.00
1062.522, 40294.00
1063.625, 39203.00
1064.728, 37331.00
1065.830, 34458.00
1066.933, 31905.00
1068.035, 29365.00
1069.137, 26907.00
1070.239, 24834.00
1071.341, 23357.00
1072.443, 22285.00
1073.545, 21119.00
1074.646, 20287.00
1075.747, 19562.00
1076.848, 19058.00
1077.949, 18633.00
1079.050, 18310.00
1080.150, 18164.00
1081.251, 17879.00
1082.351, 17964.00
1083.451, 17881.00
1084.551, 18180.00
1085.651, 18157.00
1086.750, 17944.00
1087.850, 17452.00
1088.949, 17170.00
1090.048, 17068.00
1091.147, 16976.00
1092.246, 17053.00
1093.345, 16676.00
1094.443, 16954.00
1095.541, 16686.00
1096.639, 16869.00
1097.737, 16556.00
1098.835, 16614.00
1099.933, 16790.00
1101.030, 16583.00
1102.128, 16876.00
1103.225, 17042.00
1104.322, 16902.00
1105.419, 17012.00
1106.515, 16864.00
1107.612, 17058.00
1108.708, 17122.00
1109.804, 17146.00
1110.900, 17244.00
1111.996, 17220.00
1113.092, 17251.00
1114.187, 17134.00
1115.283, 17109.00
1116.378, 17238.00
1117.473, 17337.00
1118.568, 17243.00
1119.662, 17242.00
1120.757, 17174.00
1121.851, 17297.00
1122.946, 17195.00
1124.040, 17236.00
1125.134, 17024.00
1126.227, 17204.00
1127.321, 17174.00
1128.414, 17120.00
1129.508, 17147.00
1130.601, 16977.00
1131.693, 17117.00
1132.786, 17187.00
1133.879, 17072.00
1134.971, 17143.00
1136.064, 17025.00
1137.156, 17075.00
1138.248, 16966.00
1139.339, 16922.00
1140.431, 17057.00
1141.522, 16932.00
1142.614, 16883.00
1143.705, 16842.00
1144.796, 16838.23
1145.887, 17008.00
1146.977, 16886.00
1148.068, 17063.00
1149.158, 17072.00
1150.248, 16987.00
1151.338, 17019.00
1152.428, 17025.30
1153.518, 17041.00
1154.607, 17122.00
1155.696, 17156.00
1156.785, 17284.00
1157.874, 17317.00
1158.963, 17319.82
1160.052, 17071.00
1161.141, 17192.00
1162.229, 17252.00
1163.317, 16993.00
1164.405, 17118.00
1165.493, 17208.00
1166.581, 16973.00
1167.668, 17103.00
1168.756, 17212.00
1169.843, 17153.00
1170.930, 17210.00
1172.017, 17181.00
1173.103, 17243.00
1174.190, 17195.00
1175.276, 17267.00
1176.363, 17287.00
1177.449, 17210.00
1178.535, 17215.00
1179.620, 17278.00
1180.706, 17243.00
1181.791, 17330.00
1182.877, 17413.00
1183.962, 17404.00
1185.047, 17510.00
1186.131, 17503.00
1187.216, 17522.00
1188.300, 17760.00
1189.385, 17541.00
1190.469, 17715.00
1191.553, 17603.00
1192.637, 17599.00
1193.720, 17666.00
1194.804, 17533.00
1195.887, 17548.00
1196.970, 17691.00
1198.053, 17780.00
1199.136, 17627.00
1200.219, 17714.00
1201.301, 17738.00
1202.383, 17760.00
1203.465, 17719.00
1204.547, 17735.00
1205.629, 17620.00
1206.711, 17642.53
1207.792, 17659.00
1208.874, 17602.00
1209.955, 17685.00
1211.036, 17611.62
1212.117, 17728.00
1213.198, 17648.00
1214.278, 17829.00
1215.359, 17850.00
1216.439, 17845.00
1217.519, 17779.00
1218.599, 17756.00
1219.678, 17825.00
1220.758, 17783.00
1221.837, 17802.98
1222.917, 17747.00
1223.996, 17795.00
1225.075, 17757.00
1226.153, 17718.00
1227.232, 17841.00
1228.310, 17588.00
1229.389, 17808.00
1230.467, 17605.00
1231.545, 17889.00
1232.622, 17717.00
1233.700, 17869.00
1234.777, 17831.00
1235.855, 17778.00
1236.932, 17859.07
1238.009, 17842.56
1239.086, 17934.00
1240.162, 17912.00
1241.239, 17989.00
1242.315, 18036.00
1243.391, 18019.00
1244.467, 17900.00
1245.543, 17997.00
1246.619, 17854.00
1247.694, 18012.00
1248.769, 17971.00
1249.844, 18065.00
1250.919, 17961.00
1251.994, 17912.00
1253.069, 18089.00
1254.144, 18148.00
1255.218, 18286.00
1256.292, 18159.00
1257.366, 18199.00
1258.440, 18085.00
1259.514, 18031.00
1260.587, 18074.73
1261.661, 18059.00
1262.734, 18131.00
1263.807, 18100.00
1264.880, 18095.00
1265.952, 18215.00
1267.025, 18472.00
1268.097, 18222.00
1269.170, 18084.00
1270.242, 18772.00
1271.314, 18153.00
1272.385, 18345.00
1273.457, 18465.00
1274.528, 18413.00
1275.600, 18434.00
1276.671, 18328.00
1277.742, 18441.00
1278.812, 18493.00
1279.883, 18481.00
1280.954, 18463.00
1282.024, 18431.00
1283.094, 18360.00
1284.164, 18444.00
1285.234, 18412.00
1286.303, 18503.00
1287.373, 18689.00
1288.442, 18541.00
1289.511, 18685.00
1290.580, 18646.00
1291.649, 18734.00
1292.718, 18661.00
1293.786, 18697.00
1294.855, 18674.00
1295.923, 18710.12
1296.991, 18807.00
1298.059, 18780.00
1299.126, 18853.42
1300.194, 18823.00
1301.261, 18887.00
1302.328, 18800.00
1303.395, 18816.00
1304.462, 18893.00
1305.529, 18935.00
1306.596, 18711.00
1307.662, 18925.00
1308.728, 18861.00
1309.794, 19041.00
1310.860, 19039.00
1311.926, 19017.00
1312.991, 18861.00
1314.057, 19100.00
1315.122, 19093.00
1316.187, 19024.00
1317.252, 19104.00
1318.317, 18983.00
1319.381, 18996.00
1320.446, 18981.00
1321.510, 19024.00
1322.574, 19086.00
1323.638, 19127.00
1324.702, 19255.00
1325.766, 19219.32
1326.829, 19114.00
1327.892, 19239.00
1328.956, 19202.00
1330.019, 19339.00
1331.081, 19209.00
1332.144, 19414.00
1333.206, 19239.00
1334.269, 19305.00
1335.331, 19293.00
1336.393, 19240.00
1337.455, 19227.00
1338.516, 19349.00
1339.578, 19262.00
1340.639, 19214.00
1341.701, 19429.00
1342.762, 19417.00
1343.822, 19409.00
1344.883, 19360.00
1345.944, 19431.00
1347.004, 19417.43
1348.064, 19500.00
1349.124, 19487.00
1350.184, 19390.00
1351.244, 19471.00
1352.304, 19477.00
1353.363, 19450.60
1354.422, 19493.01
1355.481, 19430.00
1356.540, 19533.00
1357.599, 19524.00
1358.657, 19585.00
1359.716, 19648.00
1360.774, 19705.00
1361.832, 19649.00
1362.890, 19749.00
1363.948, 19693.00
1365.006, 19655.00
1366.063, 19861.00
1367.120, 19588.00
1368.178, 19717.00
1369.234, 19683.00
1370.291, 19562.00
1371.348, 19677.00
1372.404, 19836.00
1373.461, 19810.00
1374.517, 19792.00
1375.573, 19728.00
1376.629, 19742.54
1377.684, 19751.20
1378.740, 19743.00
1379.795, 19845.00
1380.850, 19836.00
1381.905, 19945.00
1382.960, 19953.00
1384.015, 19979.00
1385.070, 19921.00
1386.124, 20114.00
1387.178, 19754.00
1388.232, 20013.00
1389.286, 20002.00
1390.340, 19915.00
1391.393, 20031.00
1392.447, 19953.00
1393.500, 20005.00
1394.553, 19965.00
1395.606, 20150.00
1396.659, 20089.00
1397.711, 20098.00
1398.764, 20180.00
1399.816, 20098.00
1400.868, 20059.00
1401.920, 19909.00
1402.972, 19935.00
1404.023, 20002.00
1405.075, 20037.00
1406.126, 20173.00
1407.177, 20173.00
1408.228, 20146.00
1409.279, 20259.00
1410.330, 20041.00
1411.380, 20186.00
1412.431, 20232.00
1413.481, 20332.00
1414.531, 20212.00
1415.580, 20251.00
1416.630, 20312.00
1417.680, 20205.00
1418.729, 20306.00
1419.778, 20448.00
1420.827, 20444.00
1421.876, 20349.00
1422.925, 20428.00
1423.973, 20276.00
1425.022, 20514.00
1426.070, 20599.00
1427.118, 20472.00
1428.166, 20505.00
1429.214, 20634.00
1430.261, 20648.00
1431.309, 20517.00
1432.356, 20825.00
1433.403, 20617.00
1434.450, 20566.00
1435.497, 20701.00
1436.543, 20888.00
1437.590, 20859.00
1438.636, 20859.00
1439.682, 20766.00
1440.728, 20902.00
1441.774, 20914.00
1442.819, 20860.00
1443.865, 20809.00
1444.910, 20883.00
1445.955, 20943.00
1447.000, 20906.00
1448.045, 21002.00
1449.090, 20887.00
1450.134, 20785.00
1451.178, 21111.00
1452.223, 20871.00
1453.267, 20768.00
1454.310, 21299.00
1455.354, 21170.00
1456.398, 21018.00
1457.441, 20931.00
1458.484, 20988.00
1459.527, 21006.00
1460.570, 20969.00
1461.613, 20999.00
1462.655, 21001.94
1463.698, 21011.00
1464.740, 21065.00
1465.782, 21025.00
1466.824, 21125.00
1467.866, 21059.00
1468.907, 21013.00
1469.948, 20869.00
1470.990, 21228.00
1472.031, 21219.00
1473.072, 21119.00
1474.112, 21253.00
1475.153, 21110.00
1476.194, 21124.00
1477.234, 21201.00
1478.274, 21288.00
1479.314, 21263.00
1480.354, 21232.00
1481.393, 21285.00
1482.433, 21377.00
1483.472, 21289.00
1484.511, 21417.00
1485.550, 21358.00
1486.589, 21444.00
1487.628, 21356.00
1488.666, 21528.00
1489.704, 21464.00
1490.743, 21571.00
1491.781, 21381.00
1492.819, 21602.00
1493.856, 21688.00
1494.894, 21697.00
1495.931, 21845.00
1496.968, 21867.00
1498.005, 21877.00
1499.042, 21844.00
1500.079, 21818.00
1501.115, 21805.00
1502.152, 21866.00
1503.188, 22054.00
1504.224, 22123.00
1505.260, 21981.00
1506.296, 22246.00
1507.331, 22040.00
1508.367, 22176.00
1509.402, 22218.00
1510.437, 22010.00
1511.472, 22076.00
1512.507, 22153.00
1513.541, 22177.00
1514.576, 21978.00
1515.610, 22250.00
1516.644, 22401.00
1517.678, 22056.00
1518.712, 22091.00
1519.746, 22043.00
1520.779, 22138.00
1521.813, 22173.00
1522.846, 22051.00
1523.879, 22180.00
1524.912, 22099.00
1525.944, 22213.00
1526.977, 22050.00
1528.009, 22080.00
1529.041, 22193.00
1530.073, 22058.00
1531.105, 22041.00
1532.137, 22097.00
1533.168, 22100.00
1534.200, 22118.00
1535.231, 22159.00
1536.262, 22205.00
1537.293, 22055.00
1538.324, 22149.00
1539.354, 22052.00
1540.385, 22104.00
1541.415, 22333.00
1542.445, 22161.00
1543.475, 22066.00
1544.505, 22312.00
1545.534, 22225.00
1546.564, 22241.00
1547.593, 22284.00
1548.622, 22242.00
1549.651, 22314.00
1550.680, 22237.00
1551.708, 22239.00
1552.737, 22355.00
1553.765, 22457.00
1554.793, 22464.37
1555.821, 22497.11
1556.849, 22472.00
1557.877, 22464.00
1558.904, 22368.00
1559.932, 22341.00
1560.959, 22410.00
1561.986, 22358.00
1563.013, 22478.00
1564.039, 22456.00
1565.066, 22380.00
1566.092, 22579.00
1567.119, 22549.00
1568.145, 22511.00
1569.170, 22581.85
1570.196, 22446.00
1571.222, 22591.00
1572.247, 22541.00
1573.272, 22542.00
1574.297, 22685.00
1575.322, 22764.00
1576.347, 22716.00
##END=



