##NAMES=Montebrasite
##RRUFFID=R040062
##IDEAL CHEMISTRY=LiAlPO_4_(OH)
##LOCALITY=Hebron, Maine, USA
##OWNER=RRUFF
##SOURCE=University of Arizona Mineral Museum
##DESCRIPTION=White massive
##STATUS=The identification of this mineral has been confirmed by X-ray diffraction and chemical analysis
##URL=rruff.info/R040062
##MEASURED CHEMISTRY=LiAl(PO_4_)((OH)_0.62_F_0.38_)
##PIN_ID=L00144
##ORIENTATION=Laser parallel to (1 1 0). Fiducial mark perpendicular to laser is parallel to -c [0 0 -1]
111.932, 11500.000
113.329, 11860.000
114.726, 12020.000
116.123, 11890.000
117.519, 12150.000
118.915, 12210.000
120.311, 12170.000
121.706, 12370.000
123.102, 12640.000
124.497, 12990.000
125.892, 13240.000
127.286, 13850.000
128.681, 14350.000
130.075, 15160.000
131.469, 15600.000
132.862, 15980.000
134.256, 15730.000
135.649, 15300.000
137.042, 14860.000
138.435, 14130.000
139.827, 13710.000
141.219, 13170.000
142.611, 12930.000
144.003, 12820.000
145.394, 12610.000
146.786, 12630.000
148.177, 12600.000
149.567, 12570.000
150.958, 12590.000
152.348, 12510.000
153.738, 12610.000
155.128, 12610.000
156.517, 12440.000
157.907, 12630.000
159.296, 12730.000
160.685, 12910.000
162.073, 13060.000
163.462, 13150.000
164.850, 13360.000
166.237, 13480.000
167.625, 13480.000
169.012, 13600.000
170.400, 13680.000
171.786, 13420.000
173.173, 13560.000
174.559, 13360.000
175.946, 13390.000
177.332, 13360.000
178.717, 13330.000
180.103, 13300.000
181.488, 13250.000
182.873, 13280.000
184.258, 13250.000
185.642, 13390.000
187.026, 13410.000
188.410, 13380.000
189.794, 13410.000
191.178, 13280.000
192.561, 13245.063
193.944, 13210.000
195.327, 13090.000
196.709, 12970.000
198.092, 12910.000
199.474, 12750.000
200.856, 12713.864
202.237, 12690.000
203.618, 12660.000
205.000, 12700.000
206.380, 12780.000
207.761, 12760.000
209.142, 12830.000
210.522, 12880.000
211.902, 13070.000
213.281, 12890.000
214.661, 12910.000
216.040, 13150.000
217.419, 13110.000
218.798, 13130.000
220.176, 13070.000
221.554, 13080.000
222.932, 13140.000
224.310, 13250.000
225.688, 13080.000
227.065, 13240.000
228.442, 13140.000
229.819, 13230.000
231.196, 13220.000
232.572, 13250.000
233.948, 13140.000
235.324, 13050.000
236.700, 13060.000
238.075, 13060.000
239.450, 13420.000
240.825, 13000.000
242.200, 13080.000
243.574, 13220.000
244.948, 12940.000
246.322, 13190.000
247.696, 13080.000
249.070, 13120.000
250.443, 13230.000
251.816, 13280.000
253.189, 13220.000
254.561, 13250.000
255.933, 13270.000
257.306, 13320.000
258.677, 13350.000
260.049, 13570.000
261.420, 13540.000
262.791, 13720.000
264.162, 14080.000
265.533, 14230.000
266.903, 14470.000
268.274, 14770.000
269.643, 15160.000
271.013, 15620.000
272.383, 15740.000
273.752, 16080.000
275.121, 16210.000
276.490, 16060.000
277.858, 16040.000
279.226, 15850.000
280.595, 15820.000
281.962, 15730.000
283.330, 15660.000
284.697, 15730.000
286.064, 16170.000
287.431, 16380.000
288.798, 16990.000
290.164, 17850.000
291.530, 19190.000
292.896, 21000.000
294.262, 23050.000
295.627, 25820.000
296.993, 28240.000
298.358, 29950.000
299.722, 30180.000
301.087, 29080.000
302.451, 26850.000
303.815, 24700.000
305.179, 22690.000
306.543, 21460.000
307.906, 20550.000
309.269, 19760.000
310.632, 19300.000
311.995, 18860.000
313.357, 18290.000
314.719, 17950.000
316.081, 17720.000
317.443, 17460.000
318.804, 17280.000
320.166, 17020.000
321.527, 16720.000
322.887, 16560.000
324.248, 16140.000
325.608, 15980.000
326.968, 15740.000
328.328, 15520.000
329.688, 15390.000
331.047, 15350.000
332.406, 15090.000
333.765, 14980.000
335.124, 15030.000
336.482, 14940.000
337.840, 14860.000
339.198, 14820.000
340.556, 14650.000
341.913, 14920.000
343.271, 14700.000
344.628, 14780.000
345.984, 14650.000
347.341, 14920.000
348.697, 14780.000
350.053, 14830.000
351.409, 14930.000
352.765, 14740.000
354.120, 14860.000
355.475, 15000.000
356.830, 14940.000
358.185, 14920.000
359.539, 14940.000
360.894, 14960.000
362.248, 14989.004
363.601, 15000.000
364.955, 15070.000
366.308, 15140.000
367.661, 15170.000
369.014, 15360.000
370.367, 15340.000
371.719, 15440.000
373.071, 15430.000
374.423, 15480.000
375.775, 15500.000
377.126, 15640.000
378.478, 15590.000
379.828, 15630.000
381.179, 15700.000
382.530, 15630.000
383.880, 15550.000
385.230, 15600.000
386.580, 15740.000
387.929, 15810.000
389.279, 15880.000
390.628, 15780.000
391.977, 15690.000
393.325, 15790.000
394.674, 15910.000
396.022, 15840.000
397.370, 15900.000
398.718, 15890.000
400.065, 16030.000
401.413, 16028.825
402.760, 15910.000
404.106, 16080.000
405.453, 16140.000
406.799, 16140.000
408.146, 16330.000
409.491, 16180.000
410.837, 16260.000
412.182, 16320.000
413.528, 16540.000
414.873, 16630.000
416.217, 17090.000
417.562, 17470.000
418.906, 18340.000
420.250, 19550.000
421.594, 21670.000
422.938, 24320.000
424.281, 26840.000
425.624, 28670.000
426.967, 27820.000
428.310, 25750.000
429.652, 22680.000
430.994, 20360.000
432.336, 19030.000
433.678, 18060.000
435.020, 17360.000
436.361, 17150.000
437.702, 17050.000
439.043, 16880.000
440.383, 16786.588
441.724, 16730.000
443.064, 16640.000
444.404, 16520.000
445.743, 16480.000
447.083, 16390.000
448.422, 16410.000
449.761, 16400.000
451.100, 16390.000
452.438, 16540.000
453.777, 16390.000
455.115, 16550.000
456.453, 16430.000
457.790, 16460.000
459.128, 16710.000
460.465, 16560.000
461.802, 16490.000
463.139, 16690.000
464.475, 16510.000
465.811, 16830.000
467.147, 16620.000
468.483, 16980.000
469.819, 17080.000
471.154, 17310.000
472.489, 17580.000
473.824, 17640.000
475.159, 17770.000
476.493, 18010.000
477.827, 18300.000
479.161, 18690.000
480.495, 18880.000
481.829, 18970.000
483.162, 19090.000
484.495, 19140.000
485.828, 18920.000
487.161, 19210.000
488.493, 19010.000
489.825, 18840.000
491.157, 19170.000
492.489, 18680.000
493.820, 18780.000
495.151, 18850.000
496.482, 18530.000
497.813, 18590.000
499.144, 18370.000
500.474, 18350.000
501.804, 18180.000
503.134, 18030.000
504.464, 17990.000
505.793, 17800.000
507.123, 17790.000
508.451, 17660.000
509.780, 17710.000
511.109, 17670.000
512.437, 17360.000
513.765, 17380.000
515.093, 17430.000
516.421, 17450.000
517.748, 17500.000
519.075, 17390.000
520.402, 17360.000
521.729, 17270.000
523.055, 17650.000
524.382, 17260.000
525.708, 17340.000
527.034, 17630.000
528.359, 17490.000
529.685, 17510.000
531.010, 17510.000
532.335, 17620.000
533.659, 17490.000
534.984, 17560.000
536.308, 17380.000
537.632, 17670.000
538.956, 17440.000
540.279, 17800.000
541.603, 17620.000
542.926, 17800.000
544.249, 17740.000
545.571, 17980.000
546.894, 17750.000
548.216, 17680.000
549.538, 18020.000
550.860, 17780.000
552.181, 17930.000
553.503, 17910.000
554.824, 18070.000
556.145, 18070.000
557.465, 18150.000
558.786, 17910.000
560.106, 18340.000
561.426, 18050.000
562.746, 18150.000
564.065, 18280.000
565.385, 18150.000
566.704, 18200.000
568.023, 18260.000
569.341, 18310.000
570.660, 18490.000
571.978, 18210.000
573.296, 18520.000
574.614, 18440.000
575.931, 18580.000
577.248, 18720.000
578.565, 18600.000
579.882, 18850.000
581.199, 18590.000
582.515, 18770.000
583.831, 18840.000
585.147, 18800.000
586.463, 18840.000
587.779, 18990.000
589.094, 19040.000
590.409, 19170.000
591.724, 19450.000
593.038, 19560.000
594.353, 19840.000
595.667, 20460.000
596.981, 21070.000
598.295, 21480.000
599.608, 22200.000
600.922, 22750.000
602.235, 22860.000
603.547, 22060.000
604.860, 21730.000
606.172, 21170.000
607.485, 20790.000
608.797, 20750.000
610.108, 20410.000
611.420, 20380.000
612.731, 20250.000
614.042, 20170.000
615.353, 20440.000
616.664, 20460.000
617.974, 20700.000
619.284, 20780.000
620.594, 21180.000
621.904, 21470.000
623.213, 22160.000
624.523, 22640.000
625.832, 23530.000
627.141, 24280.000
628.449, 25060.000
629.758, 25400.000
631.066, 25390.000
632.374, 25020.000
633.681, 24660.000
634.989, 24330.000
636.296, 24790.000
637.603, 25130.000
638.910, 26450.000
640.217, 28360.000
641.523, 31390.000
642.829, 34030.000
644.135, 37060.000
645.441, 38300.000
646.747, 36620.000
648.052, 33920.000
649.357, 30700.000
650.662, 27900.000
651.967, 25630.000
653.271, 24450.000
654.575, 23170.000
655.879, 22680.000
657.183, 22220.000
658.486, 21720.000
659.790, 21390.000
661.093, 21240.000
662.396, 20970.000
663.698, 20873.469
665.001, 20700.000
666.303, 20760.000
667.605, 20710.000
668.907, 20730.000
670.209, 20730.000
671.510, 20570.000
672.811, 20540.000
674.112, 20510.000
675.413, 20610.000
676.713, 20510.000
678.013, 20680.000
679.313, 20650.000
680.613, 20670.000
681.913, 20580.000
683.212, 20540.000
684.511, 20590.000
685.810, 20550.000
687.109, 20560.000
688.407, 20510.000
689.706, 20650.000
691.004, 20790.000
692.302, 20650.000
693.599, 20840.000
694.897, 20660.000
696.194, 20680.000
697.491, 20720.000
698.788, 20830.000
700.084, 20750.000
701.380, 21060.000
702.677, 20780.000
703.972, 20880.000
705.268, 21060.000
706.564, 20910.000
707.859, 20820.000
709.154, 20750.000
710.449, 21060.000
711.743, 20980.000
713.037, 21240.000
714.332, 20910.000
715.626, 21030.000
716.919, 21360.000
718.213, 20990.000
719.506, 21390.000
720.799, 21090.000
722.092, 21320.000
723.384, 21240.000
724.677, 21410.000
725.969, 21410.000
727.261, 21220.000
728.553, 21500.000
729.844, 21540.000
731.136, 21310.000
732.427, 21750.000
733.718, 21210.000
735.008, 21950.000
736.299, 21630.000
737.589, 21430.000
738.879, 21550.000
740.169, 21650.000
741.458, 21680.000
742.748, 21810.000
744.037, 21650.000
745.326, 21900.000
746.614, 21860.000
747.903, 21900.000
749.191, 22030.000
750.479, 21920.000
751.767, 21940.000
753.055, 22070.000
754.342, 21990.000
755.629, 21980.000
756.916, 22040.000
758.203, 22048.107
759.490, 22200.000
760.776, 22170.000
762.062, 22270.000
763.348, 22340.000
764.634, 22340.000
765.919, 22290.000
767.204, 22540.000
768.489, 22420.000
769.774, 22350.000
771.059, 22700.000
772.343, 22520.000
773.627, 22460.000
774.911, 22920.000
776.195, 22630.000
777.479, 22870.000
778.762, 22830.000
780.045, 23010.000
781.328, 23130.000
782.611, 23080.000
783.893, 23450.000
785.175, 23560.000
786.457, 23570.000
787.739, 23720.000
789.021, 23870.121
790.302, 23930.000
791.583, 24310.000
792.864, 24450.000
794.145, 24810.000
795.425, 24900.000
796.706, 25070.000
797.986, 25580.000
799.266, 25240.000
800.545, 25370.000
801.825, 25750.000
803.104, 25510.000
804.383, 25730.000
805.662, 25490.000
806.940, 25550.000
808.219, 25280.000
809.497, 25270.000
810.775, 25390.000
812.053, 25030.000
813.330, 25120.000
814.608, 25050.000
815.885, 24440.000
817.162, 25040.000
818.438, 24720.000
819.715, 24840.000
820.991, 24320.000
822.267, 24470.000
823.543, 24390.000
824.818, 24280.000
826.094, 24310.000
827.369, 24290.000
828.644, 24250.000
829.919, 24207.314
831.193, 24050.000
832.468, 24090.000
833.742, 24040.000
835.016, 24030.000
836.289, 24320.000
837.563, 24080.000
838.836, 24270.000
840.109, 24140.000
841.382, 24290.000
842.654, 24280.000
843.927, 24220.000
845.199, 24300.000
846.471, 24470.000
847.743, 24150.000
849.014, 24430.000
850.286, 24320.000
851.557, 24220.000
852.828, 24570.000
854.099, 24390.000
855.369, 24420.000
856.639, 24450.000
857.909, 24490.000
859.179, 24700.000
860.449, 24820.000
861.718, 24870.000
862.988, 25022.119
864.257, 24770.000
865.525, 25200.000
866.794, 24940.000
868.062, 24950.000
869.331, 25120.000
870.599, 25170.000
871.866, 25330.000
873.134, 25180.000
874.401, 25620.000
875.668, 25360.000
876.935, 25490.000
878.202, 25500.000
879.468, 25300.000
880.735, 25650.000
882.001, 25370.000
883.267, 25430.000
884.532, 25580.000
885.798, 25780.000
887.063, 25580.000
888.328, 25700.000
889.593, 25630.000
890.857, 25850.000
892.122, 26010.000
893.386, 26020.000
894.650, 26060.000
895.913, 25900.000
897.177, 26110.000
898.440, 26190.000
899.703, 26100.000
900.966, 26340.000
902.229, 26370.000
903.491, 26080.000
904.754, 26510.000
906.016, 26170.000
907.278, 26100.000
908.539, 26120.000
909.801, 26240.000
911.062, 26190.000
912.323, 26180.000
913.584, 26360.000
914.844, 26260.000
916.105, 26530.000
917.365, 26320.000
918.625, 26451.758
919.885, 26440.000
921.144, 26490.000
922.404, 26500.000
923.663, 26340.000
924.922, 26420.000
926.180, 26390.000
927.439, 26560.000
928.697, 26460.000
929.955, 26860.000
931.213, 26650.000
932.471, 26730.000
933.728, 26910.000
934.985, 26850.000
936.242, 26720.000
937.499, 27010.000
938.756, 26900.000
940.012, 27110.000
941.269, 26950.000
942.525, 27090.000
943.780, 26970.000
945.036, 27100.000
946.291, 27360.000
947.546, 27390.000
948.801, 27530.000
950.056, 27730.000
951.311, 27617.359
952.565, 27660.000
953.819, 27480.000
955.073, 27460.000
956.327, 27470.000
957.580, 27690.000
958.834, 27560.000
960.087, 27740.000
961.339, 27550.000
962.592, 28050.000
963.845, 27570.000
965.097, 27940.000
966.349, 27800.000
967.601, 27900.000
968.852, 28250.000
970.104, 27880.000
971.355, 28390.000
972.606, 28340.000
973.857, 28320.000
975.107, 28360.000
976.358, 28540.000
977.608, 28700.000
978.858, 29010.000
980.108, 29020.000
981.357, 29070.000
982.607, 29670.000
983.856, 29120.000
985.105, 30030.000
986.353, 29730.000
987.602, 30320.000
988.850, 30810.000
990.098, 30590.000
991.346, 31440.000
992.594, 32120.000
993.841, 32490.000
995.089, 33370.000
996.336, 33640.000
997.583, 34970.000
998.829, 35810.000
1000.076, 36780.000
1001.322, 38820.000
1002.568, 40250.000
1003.814, 42120.000
1005.060, 43770.000
1006.305, 45230.000
1007.550, 46740.000
1008.795, 47860.000
1010.040, 48110.000
1011.285, 48090.000
1012.529, 46650.000
1013.773, 45620.000
1015.017, 43710.000
1016.261, 41980.000
1017.505, 40230.000
1018.748, 38810.000
1019.991, 37670.000
1021.234, 36520.000
1022.477, 35850.000
1023.719, 35420.000
1024.962, 35100.000
1026.204, 34680.000
1027.446, 34650.000
1028.688, 34730.000
1029.929, 34810.000
1031.170, 35650.000
1032.411, 35820.000
1033.652, 36910.000
1034.893, 37190.000
1036.134, 38500.000
1037.374, 39210.000
1038.614, 40370.000
1039.854, 41330.000
1041.094, 43070.000
1042.333, 43520.000
1043.572, 44860.000
1044.811, 45020.000
1046.050, 44980.000
1047.289, 45010.000
1048.527, 44430.000
1049.766, 44100.000
1051.004, 44070.000
1052.241, 43740.000
1053.479, 43970.000
1054.717, 44310.000
1055.954, 45290.000
1057.191, 46540.000
1058.428, 46100.000
1059.664, 46720.000
1060.901, 45240.000
1062.137, 43330.000
1063.373, 41570.000
1064.609, 39290.000
1065.844, 37990.000
1067.080, 36140.000
1068.315, 35010.000
1069.550, 34740.000
1070.785, 33910.000
1072.019, 33470.000
1073.254, 33170.000
1074.488, 32670.000
1075.722, 32540.000
1076.955, 32300.000
1078.189, 32030.000
1079.422, 32330.000
1080.656, 31640.000
1081.889, 32010.000
1083.121, 31760.000
1084.354, 31640.000
1085.586, 31950.000
1086.818, 31880.000
1088.050, 31940.000
1089.282, 31720.000
1090.514, 31540.000
1091.745, 31730.000
1092.976, 31900.000
1094.207, 31660.000
1095.438, 32050.000
1096.668, 31890.000
1097.899, 32380.000
1099.129, 32610.000
1100.359, 32410.000
1101.588, 33230.000
1102.818, 33060.000
1104.047, 33470.000
1105.276, 34100.000
1106.505, 34370.000
1107.734, 34450.000
1108.962, 34850.000
1110.191, 34590.000
1111.419, 34670.000
1112.647, 34770.000
1113.874, 34140.000
1115.102, 34340.000
1116.329, 33930.000
1117.556, 34190.000
1118.783, 34200.000
1120.010, 33910.000
1121.236, 34340.000
1122.463, 33860.000
1123.689, 33560.000
1124.914, 33560.000
1126.140, 32850.000
1127.366, 33340.000
1128.591, 32690.000
1129.816, 32750.000
1131.041, 32580.000
1132.266, 32390.000
1133.490, 32590.000
1134.714, 32660.000
1135.938, 32120.000
1137.162, 32630.000
1138.386, 31970.000
1139.609, 32070.000
1140.833, 32440.000
1142.056, 32010.000
1143.279, 32470.000
1144.501, 32020.000
1145.724, 32250.000
1146.946, 32280.000
1148.168, 31860.000
1149.390, 32210.000
1150.612, 32160.000
1151.833, 32210.000
1153.054, 32350.000
1154.275, 32210.000
1155.496, 32190.000
1156.717, 32530.000
1157.937, 32280.000
1159.158, 32070.000
1160.378, 32650.000
1161.598, 31980.000
1162.817, 32430.000
1164.037, 32300.000
1165.256, 32430.000
1166.475, 32520.000
1167.694, 32350.000
1168.913, 32350.000
1170.131, 32750.000
1171.349, 32060.000
1172.567, 32730.000
1173.785, 32670.000
1175.003, 32450.000
1176.220, 32910.000
1177.438, 32920.000
1178.655, 32810.000
1179.872, 33030.000
1181.088, 32910.000
1182.305, 33030.000
1183.521, 33220.000
1184.737, 33110.000
1185.953, 33380.000
1187.169, 33500.000
1188.384, 33370.000
1189.599, 33610.000
1190.814, 33050.000
1192.029, 33630.000
1193.244, 33700.000
1194.459, 33310.000
1195.673, 33630.000
1196.887, 33880.000
1198.101, 33400.000
1199.314, 33730.000
1200.528, 33310.000
1201.741, 34140.000
1202.954, 33720.000
1204.167, 33420.000
1205.380, 34080.000
1206.592, 33620.000
1207.805, 33490.000
1209.017, 34090.000
1210.229, 33520.000
1211.440, 33910.000
1212.652, 33800.000
1213.863, 33580.000
1215.074, 33970.000
1216.285, 34250.000
1217.496, 33590.000
1218.707, 33870.000
1219.917, 34100.000
1221.127, 33960.000
1222.337, 34270.000
1223.547, 33840.000
1224.756, 33880.000
1225.966, 34030.000
1227.175, 34090.000
1228.384, 34180.000
1229.592, 33940.000
1230.801, 34030.000
1232.009, 34028.918
1233.217, 33970.000
1234.425, 34200.000
##END=



