##NAMES=Montebrasite
##RRUFFID=R060890
##IDEAL CHEMISTRY=LiAlPO_4_(OH)
##LOCALITY=Mount Marie, Paris, Maine, USA
##OWNER=RRUFF
##SOURCE=Bob Jenkins
##DESCRIPTION=Colorless massive
##STATUS=The identification of this mineral is confirmed by single-crystal X-ray diffraction and chemical analysis.
##URL=rruff.info/R060890
##MEASURED CHEMISTRY=Li_1.00_Al_1.00_(P_1.00_O_4_)(OH)_0.63_F_0.37_)_Î£=1_ ; Li not measured but estimated by stoichiometry
##PIN_ID=M01084
##ORIENTATION=Laser parallel to -a* (-1 0 0). Fiducial mark perpendicular to laser is parallel to b [0 1 0]
90.67800, 17114.00
91.91600, 17138.00
93.15500, 17303.00
94.39300, 17092.00
95.63100, 17344.00
96.86900, 17231.00
98.10600, 17329.00
99.34400, 17284.00
100.5810, 17321.00
101.8190, 17453.00
103.0560, 17373.00
104.2930, 17316.00
105.5290, 17483.00
106.7660, 17869.00
108.0020, 17950.00
109.2390, 18004.00
110.4750, 17954.00
111.7110, 18132.13
112.9460, 18005.00
114.1820, 18357.00
115.4170, 18478.00
116.6530, 18443.00
117.8880, 18738.00
119.1230, 18811.00
120.3580, 19145.00
121.5920, 19526.00
122.8270, 19887.00
124.0610, 20077.00
125.2950, 20573.00
126.5290, 20651.00
127.7630, 20793.00
128.9970, 21288.00
130.2300, 21455.00
131.4640, 21409.00
132.6970, 21282.00
133.9300, 20845.00
135.1630, 20401.00
136.3950, 19800.00
137.6280, 19379.00
138.8600, 19015.00
140.0920, 18680.00
141.3240, 18456.42
142.5560, 18337.00
143.7880, 18188.00
145.0190, 18047.00
146.2510, 18095.00
147.4820, 17983.00
148.7130, 17953.23
149.9440, 17958.25
151.1750, 17884.00
152.4050, 17961.00
153.6360, 17941.00
154.8660, 17960.00
156.0960, 18085.00
157.3260, 18110.00
158.5560, 18194.00
159.7850, 18266.00
161.0150, 18208.00
162.2440, 18448.00
163.4730, 18525.00
164.7020, 18675.00
165.9310, 18623.00
167.1590, 18539.00
168.3880, 18381.00
169.6160, 18721.00
170.8440, 18609.00
172.0720, 18630.00
173.3000, 18763.00
174.5280, 18636.00
175.7550, 18615.00
176.9820, 18570.00
178.2100, 18571.00
179.4370, 18593.00
180.6630, 18513.00
181.8900, 18549.00
183.1170, 18642.00
184.3430, 18843.00
185.5690, 18649.00
186.7950, 18735.00
188.0210, 18682.00
189.2470, 18606.00
190.4720, 18657.00
191.6970, 18624.89
192.9230, 18640.00
194.1480, 18667.00
195.3730, 18662.00
196.5970, 18717.00
197.8220, 18683.00
199.0460, 18570.00
200.2700, 18604.00
201.4940, 18524.00
202.7180, 18486.00
203.9420, 18423.00
205.1660, 18428.01
206.3890, 18383.78
207.6120, 18475.00
208.8350, 18313.00
210.0580, 18357.00
211.2810, 18283.00
212.5040, 18362.00
213.7260, 18309.00
214.9480, 18340.68
216.1700, 18430.00
217.3920, 18419.00
218.6140, 18499.00
219.8360, 18591.00
221.0570, 18634.00
222.2790, 18439.00
223.5000, 18397.00
224.7210, 18484.51
225.9410, 18646.00
227.1620, 18663.00
228.3820, 18505.00
229.6030, 18524.00
230.8230, 18654.00
232.0430, 18687.00
233.2630, 18762.00
234.4820, 18579.00
235.7020, 18625.00
236.9210, 18543.00
238.1400, 18794.00
239.3590, 18666.00
240.5780, 18865.00
241.7970, 18661.00
243.0150, 18754.00
244.2340, 18746.00
245.4520, 18797.00
246.6700, 18930.00
247.8880, 18938.00
249.1060, 18610.00
250.3230, 18852.00
251.5400, 18810.00
252.7580, 18782.00
253.9750, 18990.00
255.1920, 18916.00
256.4080, 19023.00
257.6250, 18821.00
258.8410, 19184.00
260.0580, 19258.00
261.2740, 19159.00
262.4900, 19313.00
263.7050, 19376.00
264.9210, 19404.00
266.1360, 19638.00
267.3520, 19717.00
268.5670, 19631.00
269.7820, 19691.00
270.9960, 20035.00
272.2110, 19862.00
273.4250, 20081.00
274.6400, 20439.00
275.8540, 20330.00
277.0680, 20438.00
278.2810, 20365.00
279.4950, 20569.00
280.7090, 20794.00
281.9220, 20859.00
283.1350, 21182.00
284.3480, 21314.00
285.5610, 21669.00
286.7730, 22046.00
287.9860, 22472.00
289.1980, 23243.00
290.4100, 23842.00
291.6220, 25016.00
292.8340, 25877.00
294.0460, 27217.00
295.2570, 28200.00
296.4690, 29774.00
297.6800, 30897.00
298.8910, 32507.00
300.1020, 34147.00
301.3120, 35287.00
302.5230, 35453.00
303.7330, 35012.00
304.9440, 34052.00
306.1540, 32742.00
307.3630, 31007.00
308.5730, 29544.00
309.7830, 28429.00
310.9920, 27679.00
312.2010, 26701.00
313.4100, 26336.00
314.6190, 25590.00
315.8280, 24962.00
317.0370, 24443.00
318.2450, 23882.00
319.4530, 23487.00
320.6610, 23242.00
321.8690, 23104.00
323.0770, 22877.00
324.2850, 22535.00
325.4920, 22423.00
326.6990, 22085.00
327.9060, 21937.00
329.1130, 22012.00
330.3200, 21701.00
331.5270, 21610.00
332.7330, 21329.00
333.9390, 21364.00
335.1450, 21201.00
336.3510, 21307.00
337.5570, 21078.00
338.7630, 21083.00
339.9680, 21071.00
341.1740, 20930.00
342.3790, 21196.00
343.5840, 20944.00
344.7890, 21023.00
345.9930, 20856.00
347.1980, 21063.00
348.4020, 21013.00
349.6060, 21016.00
350.8100, 20868.00
352.0140, 21007.00
353.2180, 20981.00
354.4210, 20920.00
355.6250, 21166.00
356.8280, 21052.00
358.0310, 21177.00
359.2340, 21254.00
360.4360, 21084.00
361.6390, 21038.00
362.8410, 21316.00
364.0430, 21299.00
365.2450, 21386.00
366.4470, 21500.00
367.6490, 21448.00
368.8510, 21382.00
370.0520, 21499.00
371.2530, 21418.00
372.4540, 21634.00
373.6550, 21611.00
374.8560, 21408.00
376.0560, 21496.00
377.2570, 21684.00
378.4570, 21353.00
379.6570, 21476.00
380.8570, 21422.00
382.0570, 21342.00
383.2560, 21313.00
384.4560, 21277.00
385.6550, 21325.00
386.8540, 21214.00
388.0530, 21325.00
389.2520, 21506.00
390.4510, 21229.00
391.6490, 21494.00
392.8470, 21212.00
394.0450, 21464.00
395.2430, 21355.00
396.4410, 21291.00
397.6390, 21371.00
398.8360, 21319.00
400.0340, 21355.34
401.2310, 21386.00
402.4280, 21462.00
403.6250, 21512.00
404.8210, 21667.00
406.0180, 21688.00
407.2140, 21674.00
408.4100, 21829.00
409.6060, 21888.00
410.8020, 22055.00
411.9980, 22311.00
413.1930, 22621.00
414.3890, 23090.00
415.5840, 23603.00
416.7790, 24483.00
417.9740, 25291.00
419.1680, 26265.00
420.3630, 27233.00
421.5570, 28203.00
422.7510, 29530.00
423.9450, 31219.00
425.1390, 32843.00
426.3330, 32793.00
427.5270, 32208.00
428.7200, 30148.00
429.9130, 28216.00
431.1060, 26445.00
432.2990, 25124.00
433.4920, 24145.00
434.6840, 23522.00
435.8770, 23230.00
437.0690, 22962.00
438.2610, 22691.00
439.4530, 22569.00
440.6450, 22459.00
441.8360, 22419.00
443.0280, 22447.00
444.2190, 22342.00
445.4100, 22332.55
446.6010, 22206.00
447.7920, 22261.00
448.9820, 22203.00
450.1730, 22187.00
451.3630, 22319.00
452.5530, 22297.00
453.7430, 22192.00
454.9330, 22353.00
456.1230, 22143.00
457.3120, 22309.00
458.5010, 22382.00
459.6910, 22277.00
460.8800, 22298.00
462.0680, 22392.00
463.2570, 22679.00
464.4460, 22662.00
465.6340, 22723.00
466.8220, 22643.00
468.0100, 22811.00
469.1980, 22800.00
470.3860, 23089.00
471.5730, 23139.87
472.7600, 23114.00
473.9480, 23321.00
475.1350, 23537.00
476.3210, 23553.00
477.5080, 23822.00
478.6950, 23669.00
479.8810, 24158.00
481.0670, 23958.00
482.2530, 24090.00
483.4390, 24179.00
484.6250, 24290.00
485.8100, 24351.00
486.9960, 24499.00
488.1810, 24539.00
489.3660, 24464.00
490.5510, 24546.00
491.7360, 24309.00
492.9200, 24332.00
494.1050, 24549.00
495.2890, 24118.00
496.4730, 24230.00
497.6570, 24302.00
498.8400, 24161.00
500.0240, 24259.00
501.2070, 24202.00
502.3910, 24025.00
503.5740, 24001.55
504.7570, 23852.00
505.9400, 23773.00
507.1220, 23623.00
508.3050, 23510.00
509.4870, 23476.81
510.6690, 23479.00
511.8510, 23437.00
513.0330, 23452.00
514.2140, 23472.00
515.3960, 23538.00
516.5770, 23216.00
517.7580, 23268.00
518.9390, 23255.00
520.1200, 23426.00
521.3010, 23602.00
522.4810, 23341.00
523.6610, 23511.00
524.8420, 23440.00
526.0220, 23402.00
527.2010, 23355.00
528.3810, 23497.00
529.5610, 23292.00
530.7400, 23419.00
531.9190, 23300.00
533.0980, 23518.00
534.2770, 23455.00
535.4560, 23400.00
536.6340, 23700.00
537.8120, 23600.00
538.9910, 23502.00
540.1690, 23571.00
541.3460, 23647.00
542.5240, 23502.00
543.7020, 23641.00
544.8790, 23656.00
546.0560, 23746.00
547.2330, 23636.00
548.4100, 23723.00
549.5870, 23796.00
550.7630, 23848.00
551.9400, 23897.00
553.1160, 23959.20
554.2920, 23874.00
555.4680, 24007.00
556.6440, 24015.00
557.8190, 23900.00
558.9950, 24063.00
560.1700, 24133.00
561.3450, 23941.00
562.5200, 24336.00
563.6950, 24101.00
564.8690, 24057.00
566.0440, 23835.00
567.2180, 24034.00
568.3920, 24210.00
569.5660, 24302.00
570.7400, 24378.73
571.9130, 24347.00
573.0870, 24470.00
574.2600, 24387.00
575.4330, 24510.00
576.6060, 24458.00
577.7790, 24361.00
578.9520, 24501.00
580.1240, 24606.00
581.2960, 24478.00
582.4690, 24760.00
583.6410, 24758.00
584.8120, 24554.00
585.9840, 24772.00
587.1560, 24907.00
588.3270, 24848.00
589.4980, 24847.00
590.6690, 25061.00
591.8400, 25092.00
593.0110, 25417.00
594.1810, 25528.00
595.3510, 25681.00
596.5220, 25689.00
597.6920, 25962.00
598.8610, 26183.00
600.0310, 26210.00
601.2010, 26605.00
602.3700, 26629.00
603.5390, 26704.00
604.7080, 26714.00
605.8770, 26639.00
607.0460, 26232.00
608.2140, 26177.00
609.3830, 25894.00
610.5510, 26203.00
611.7190, 25858.00
612.8870, 26069.00
614.0550, 25937.00
615.2220, 26178.00
616.3900, 26287.00
617.5570, 26539.00
618.7240, 26378.00
619.8910, 26813.00
621.0580, 27109.00
622.2240, 26978.00
623.3910, 27257.00
624.5570, 27657.00
625.7230, 28047.00
626.8890, 28437.00
628.0550, 28924.00
629.2200, 29353.00
630.3860, 29704.00
631.5510, 30309.00
632.7160, 30725.00
633.8810, 31037.00
635.0460, 31369.00
636.2100, 32305.00
637.3750, 33232.00
638.5390, 34117.00
639.7030, 35434.00
640.8670, 37345.00
642.0310, 38832.00
643.1950, 40627.00
644.3580, 42703.00
645.5210, 43857.00
646.6850, 44187.00
647.8480, 42738.00
649.0100, 40335.00
650.1730, 37568.00
651.3350, 34978.00
652.4980, 33190.00
653.6600, 31366.00
654.8220, 30347.00
655.9840, 29624.00
657.1450, 28889.00
658.3070, 28410.00
659.4680, 28004.00
660.6300, 27729.00
661.7910, 27600.00
662.9510, 27353.00
664.1120, 26917.00
665.2730, 26992.00
666.4330, 26845.00
667.5930, 26820.00
668.7530, 27043.00
669.9130, 26784.00
671.0730, 26706.00
672.2320, 26710.00
673.3920, 26504.00
674.5510, 26580.00
675.7100, 26582.00
676.8690, 26511.00
678.0280, 26508.00
679.1860, 26361.00
680.3450, 26387.67
681.5030, 26596.00
682.6610, 26430.00
683.8190, 26470.00
684.9770, 26586.00
686.1340, 26516.00
687.2920, 26646.00
688.4490, 26746.00
689.6060, 26551.00
690.7630, 26410.00
691.9200, 26604.00
693.0760, 26621.00
694.2330, 26764.00
695.3890, 26803.86
696.5450, 26811.85
697.7010, 26827.00
698.8570, 26787.00
700.0130, 26712.00
701.1680, 26663.00
702.3230, 26889.00
703.4780, 26591.00
704.6330, 26702.00
705.7880, 26963.00
706.9430, 26873.00
708.0970, 26839.00
709.2520, 26761.00
710.4060, 26820.00
711.5600, 26982.00
712.7140, 26961.82
713.8670, 27018.10
715.0210, 27070.00
716.1740, 27026.00
717.3270, 27074.00
718.4800, 27056.00
719.6330, 27215.00
720.7860, 27004.00
721.9380, 27014.00
723.0910, 27194.00
724.2430, 27368.00
725.3950, 27187.00
726.5470, 27232.00
727.6980, 27327.00
728.8500, 27358.00
730.0010, 27414.89
731.1530, 27329.00
732.3040, 27490.00
733.4550, 27483.00
734.6050, 27484.00
735.7560, 27358.00
736.9060, 27318.00
738.0560, 27291.00
739.2060, 27263.00
740.3560, 27304.30
741.5060, 27589.00
742.6560, 27435.00
743.8050, 27675.00
744.9540, 27805.00
746.1030, 27613.00
747.2520, 27584.00
748.4010, 27678.00
749.5500, 27739.00
750.6980, 27545.00
751.8460, 27907.00
752.9950, 27642.00
754.1420, 27821.00
755.2900, 27764.00
756.4380, 27969.00
757.5850, 28033.00
758.7330, 27745.00
759.8800, 27888.00
761.0270, 28116.00
762.1730, 27982.00
763.3200, 28083.00
764.4670, 28081.00
765.6130, 28044.00
766.7590, 27983.00
767.9050, 28060.41
769.0510, 28153.00
770.1960, 28233.00
771.3420, 28147.00
772.4870, 28284.00
773.6320, 28309.00
774.7770, 28158.00
775.9220, 28239.00
777.0670, 28477.00
778.2110, 28513.00
779.3560, 28485.00
780.5000, 28439.00
781.6440, 28640.00
782.7880, 28536.00
783.9320, 28865.00
785.0750, 28884.00
786.2180, 28723.00
787.3620, 28942.00
788.5050, 29026.00
789.6480, 28942.00
790.7900, 29220.00
791.9330, 29290.00
793.0750, 29396.00
794.2170, 29310.00
795.3590, 29317.00
796.5010, 29478.00
797.6430, 29510.00
798.7850, 29901.00
799.9260, 29636.00
801.0670, 29922.00
802.2080, 30091.00
803.3490, 30020.00
804.4900, 29943.00
805.6310, 30089.00
806.7710, 30038.00
807.9110, 30034.00
809.0510, 30259.00
810.1910, 30213.00
811.3310, 30206.00
812.4710, 30261.34
813.6100, 30239.00
814.7490, 30273.00
815.8880, 30260.53
817.0270, 30228.00
818.1660, 30217.00
819.3050, 30181.00
820.4430, 30134.00
821.5820, 30216.00
822.7200, 30218.00
823.8580, 29885.00
824.9950, 29982.00
826.1330, 29975.00
827.2710, 29878.00
828.4080, 30022.00
829.5450, 30124.00
830.6820, 30080.00
831.8190, 30011.00
832.9560, 30032.00
834.0920, 29838.00
835.2280, 29865.00
836.3650, 29968.00
837.5010, 29839.00
838.6360, 29801.00
839.7720, 29957.00
840.9080, 29906.00
842.0430, 29923.00
843.1780, 29969.00
844.3130, 30032.00
845.4480, 30107.00
846.5830, 30073.00
847.7170, 30011.00
848.8520, 30046.00
849.9860, 30193.00
851.1200, 30117.00
852.2540, 30227.82
853.3870, 30278.00
854.5210, 30328.00
855.6540, 30442.00
856.7880, 30449.56
857.9210, 30437.85
859.0540, 30319.00
860.1860, 30364.00
861.3190, 30466.00
862.4510, 30479.00
863.5840, 30569.00
864.7160, 30538.00
865.8480, 30300.00
866.9790, 30380.00
868.1110, 30264.00
869.2420, 30408.00
870.3740, 30459.00
871.5050, 30384.00
872.6360, 30372.00
873.7660, 30521.00
874.8970, 30537.94
876.0280, 30675.00
877.1580, 30720.00
878.2880, 30768.00
879.4180, 30811.00
880.5480, 30743.00
881.6770, 30951.00
882.8070, 31031.00
883.9360, 30655.00
885.0650, 30891.00
886.1940, 30880.00
887.3230, 30854.00
888.4520, 30970.00
889.5800, 30927.00
890.7090, 30926.00
891.8370, 30865.00
892.9650, 30884.28
894.0930, 31018.00
895.2200, 30964.00
896.3480, 31048.00
897.4750, 31206.00
898.6020, 31028.00
899.7290, 30994.00
900.8560, 31140.00
901.9830, 31200.00
903.1090, 31044.00
904.2360, 31277.00
905.3620, 31311.00
906.4880, 31279.00
907.6140, 31436.00
908.7400, 31265.00
909.8650, 31351.00
910.9900, 31429.00
912.1160, 31304.00
913.2410, 31414.00
914.3660, 31385.00
915.4900, 31586.00
916.6150, 31594.00
917.7390, 31525.00
918.8640, 31621.00
919.9880, 31641.00
921.1120, 31771.00
922.2350, 31446.00
923.3590, 31744.00
924.4820, 31724.00
925.6060, 31688.00
926.7290, 31883.00
927.8520, 31728.00
928.9740, 31581.00
930.0970, 31920.00
931.2190, 31720.00
932.3420, 31782.00
933.4640, 31804.00
934.5860, 31943.00
935.7080, 32186.00
936.8290, 31992.00
937.9510, 31894.00
939.0720, 32014.00
940.1930, 32193.00
941.3140, 32153.00
942.4350, 32271.00
943.5560, 32127.00
944.6760, 32313.00
945.7960, 32225.00
946.9170, 32183.00
948.0370, 32520.00
949.1560, 32462.00
950.2760, 32573.00
951.3960, 32611.00
952.5150, 32545.00
953.6340, 32574.00
954.7530, 32734.00
955.8720, 32700.00
956.9910, 32624.00
958.1090, 32772.00
959.2280, 32866.00
960.3460, 32756.00
961.4640, 32937.00
962.5820, 32950.00
963.6990, 33230.00
964.8170, 33022.00
965.9340, 33041.00
967.0510, 33028.00
968.1690, 33241.00
969.2850, 33336.00
970.4020, 33293.00
971.5190, 33241.00
972.6350, 33451.00
973.7510, 33387.00
974.8670, 33400.00
975.9830, 33560.00
977.0990, 33707.00
978.2150, 33890.00
979.3300, 33912.00
980.4450, 34069.00
981.5600, 34094.00
982.6750, 34230.12
983.7900, 34615.00
984.9050, 34651.00
986.0190, 34906.00
987.1340, 35473.00
988.2480, 35916.00
989.3620, 35969.00
990.4750, 36469.00
991.5890, 36948.00
992.7020, 37720.00
993.8160, 38437.00
994.9290, 39273.00
996.0420, 40030.00
997.1550, 40712.00
998.2670, 41950.00
999.3800, 42957.00
1000.492, 44253.00
1001.604, 45418.00
1002.716, 46849.00
1003.828, 48339.00
1004.940, 49593.00
1006.051, 51140.00
1007.163, 52106.00
1008.274, 53170.00
1009.385, 53556.00
1010.496, 53905.00
1011.606, 53329.00
1012.717, 52992.00
1013.827, 52235.00
1014.937, 51101.00
1016.047, 49787.00
1017.157, 48247.00
1018.267, 46765.00
1019.377, 45456.00
1020.486, 44273.00
1021.595, 43270.00
1022.704, 42480.00
1023.813, 41532.00
1024.922, 41002.00
1026.030, 40417.00
1027.139, 40409.00
1028.247, 40096.00
1029.355, 40070.00
1030.463, 40099.00
1031.571, 40064.00
1032.678, 40527.00
1033.786, 40633.00
1034.893, 41137.00
1036.000, 41269.00
1037.107, 41622.00
1038.214, 42679.00
1039.321, 42946.00
1040.427, 43240.00
1041.533, 43722.00
1042.639, 43899.00
1043.745, 44487.00
1044.851, 44756.00
1045.957, 44860.00
1047.062, 45223.00
1048.168, 45296.00
1049.273, 45496.00
1050.378, 45746.00
1051.482, 45883.00
1052.587, 46119.00
1053.692, 46888.00
1054.796, 47200.00
1055.900, 48206.00
1057.004, 48859.00
1058.108, 49802.00
1059.212, 50817.00
1060.315, 51136.00
1061.418, 51669.00
1062.522, 51644.00
1063.625, 51016.00
1064.728, 50129.00
1065.830, 48588.00
1066.933, 47081.00
1068.035, 45188.00
1069.137, 43964.00
1070.239, 42353.00
1071.341, 40991.00
1072.443, 40097.00
1073.545, 39463.00
1074.646, 39009.00
1075.747, 38386.00
1076.848, 38080.00
1077.949, 37767.00
1079.050, 37677.00
1080.150, 37392.00
1081.251, 37159.00
1082.351, 37271.00
1083.451, 37085.00
1084.551, 36853.00
1085.651, 36884.00
1086.750, 36853.00
1087.850, 36787.00
1088.949, 36593.00
1090.048, 36554.00
1091.147, 36340.00
1092.246, 36350.00
1093.345, 36171.00
1094.443, 36106.00
1095.541, 36189.00
1096.639, 36028.00
1097.737, 36326.00
1098.835, 36195.00
1099.933, 36265.00
1101.030, 36434.00
1102.128, 36204.00
1103.225, 36133.00
1104.322, 36285.00
1105.419, 36116.00
1106.515, 36448.00
1107.612, 36557.00
1108.708, 36178.00
1109.804, 36633.00
1110.900, 36769.00
1111.996, 36549.00
1113.092, 36578.00
1114.187, 36602.00
1115.283, 36616.00
1116.378, 36746.00
1117.473, 36723.00
1118.568, 36987.00
1119.662, 36898.00
1120.757, 37118.00
1121.851, 37286.00
1122.946, 36877.00
1124.040, 37004.00
1125.134, 37077.00
1126.227, 36915.00
1127.321, 36868.00
1128.414, 36653.00
1129.508, 36938.00
1130.601, 37084.00
1131.693, 36818.00
1132.786, 36726.00
1133.879, 36925.00
1134.971, 36947.00
1136.064, 36888.00
1137.156, 36951.23
1138.248, 36425.00
1139.339, 36864.00
1140.431, 36744.00
1141.522, 36593.00
1142.614, 36827.00
1143.705, 36710.00
1144.796, 36510.00
1145.887, 36558.00
1146.977, 36482.00
1148.068, 36534.00
1149.158, 36333.00
1150.248, 36594.00
1151.338, 37060.00
1152.428, 36728.00
1153.518, 36990.00
1154.607, 36542.00
1155.696, 36710.00
1156.785, 36633.00
1157.874, 36857.00
1158.963, 36724.00
1160.052, 36763.00
1161.141, 36927.00
1162.229, 36849.00
1163.317, 36783.00
1164.405, 36600.00
1165.493, 37023.00
1166.581, 36816.00
1167.668, 36835.00
1168.756, 37144.00
1169.843, 37099.00
1170.930, 37070.00
1172.017, 37109.00
1173.103, 36944.00
1174.190, 37219.00
1175.276, 37113.00
1176.363, 36961.00
1177.449, 37055.00
1178.535, 37200.00
1179.620, 37304.00
1180.706, 37420.32
1181.791, 37379.00
1182.877, 37558.00
1183.962, 37304.00
1185.047, 37146.00
1186.131, 37453.00
1187.216, 37534.00
1188.300, 37398.00
1189.385, 37588.00
1190.469, 37533.00
1191.553, 37506.00
1192.637, 37497.00
1193.720, 37425.00
1194.804, 37577.00
1195.887, 37824.00
1196.970, 37658.00
1198.053, 37715.15
1199.136, 37681.00
1200.219, 37603.00
1201.301, 37648.00
1202.383, 37740.00
1203.465, 37772.00
1204.547, 37857.75
1205.629, 37841.00
1206.711, 37984.00
1207.792, 37867.00
1208.874, 37848.00
1209.955, 38112.00
1211.036, 37812.00
1212.117, 37767.00
1213.198, 38222.00
1214.278, 37891.00
1215.359, 37956.00
1216.439, 38272.00
1217.519, 37852.00
1218.599, 37901.00
1219.678, 37983.00
1220.758, 37954.00
1221.837, 37950.00
1222.917, 38159.00
1223.996, 38140.79
1225.075, 38230.00
1226.153, 38248.00
1227.232, 38166.00
1228.310, 38149.00
1229.389, 38134.00
1230.467, 38207.00
1231.545, 38559.00
1232.622, 38336.00
1233.700, 38332.00
1234.777, 38373.00
1235.855, 38183.00
1236.932, 38345.00
1238.009, 38430.00
1239.086, 38283.00
1240.162, 38434.00
1241.239, 38443.00
1242.315, 38739.00
1243.391, 38306.00
1244.467, 38410.00
1245.543, 38629.00
1246.619, 38794.00
1247.694, 38681.00
1248.769, 38389.00
1249.844, 38749.00
1250.919, 38752.00
1251.994, 38998.00
1253.069, 38816.00
1254.144, 38687.00
1255.218, 39008.00
1256.292, 38859.00
1257.366, 38637.00
1258.440, 38682.00
1259.514, 38528.00
1260.587, 38778.00
1261.661, 38788.00
1262.734, 38917.00
1263.807, 38869.00
1264.880, 38694.00
1265.952, 39108.00
1267.025, 39134.00
1268.097, 38886.00
1269.170, 39162.00
1270.242, 39225.00
1271.314, 39020.00
1272.385, 39285.00
1273.457, 39353.00
1274.528, 39024.00
1275.600, 39152.00
1276.671, 39320.00
1277.742, 39199.00
1278.812, 39465.00
1279.883, 39316.00
1280.954, 39373.00
1282.024, 39197.00
1283.094, 39362.00
1284.164, 39476.00
1285.234, 39186.00
1286.303, 39434.00
1287.373, 39585.00
1288.442, 39412.00
1289.511, 39272.00
1290.580, 39664.00
1291.649, 39571.00
1292.718, 39585.00
1293.786, 39659.00
1294.855, 39607.38
1295.923, 39678.00
1296.991, 39573.00
1298.059, 39596.00
1299.126, 39516.00
1300.194, 39530.00
1301.261, 39692.00
1302.328, 39479.00
1303.395, 39541.00
1304.462, 39843.00
1305.529, 39709.00
1306.596, 39809.00
1307.662, 39847.00
1308.728, 39983.00
1309.794, 40156.00
1310.860, 40038.00
1311.926, 39969.00
1312.991, 40241.00
1314.057, 40181.00
1315.122, 40000.00
1316.187, 40408.00
1317.252, 39947.00
1318.317, 40118.00
1319.381, 40261.00
1320.446, 40107.00
1321.510, 40314.00
1322.574, 40475.00
1323.638, 40382.00
1324.702, 40464.00
1325.766, 40202.00
1326.829, 40330.00
1327.892, 40553.00
1328.956, 40315.00
1330.019, 40366.00
1331.081, 40383.00
1332.144, 40389.00
1333.206, 40386.00
1334.269, 40442.00
1335.331, 40417.00
1336.393, 40234.00
1337.455, 40694.00
1338.516, 40503.00
1339.578, 40227.00
1340.639, 40570.00
1341.701, 40785.00
1342.762, 40572.00
1343.822, 40518.00
1344.883, 40663.00
1345.944, 40672.00
1347.004, 40622.00
1348.064, 40801.00
1349.124, 40639.00
1350.184, 40853.00
1351.244, 40579.00
1352.304, 40884.00
1353.363, 40474.00
1354.422, 41044.00
1355.481, 40583.00
1356.540, 40998.00
1357.599, 40819.00
1358.657, 40882.00
1359.716, 41009.00
1360.774, 40955.00
1361.832, 41221.00
1362.890, 41066.00
1363.948, 41209.00
1365.006, 40973.00
1366.063, 41018.00
1367.120, 40993.00
1368.178, 41119.00
1369.234, 41000.00
1370.291, 41028.00
1371.348, 41170.00
1372.404, 41069.00
1373.461, 41290.00
1374.517, 41308.89
1375.573, 41493.00
1376.629, 41393.00
1377.684, 41409.00
1378.740, 41317.00
1379.795, 41314.16
1380.850, 41245.00
1381.905, 41388.00
1382.960, 41454.00
1384.015, 41683.00
1385.070, 41353.00
1386.124, 41296.00
1387.178, 41493.00
1388.232, 41376.00
1389.286, 41532.00
1390.340, 41561.00
1391.393, 41551.57
1392.447, 41591.00
1393.500, 41544.00
1394.553, 41599.00
1395.606, 41524.00
1396.659, 41514.00
1397.711, 41672.00
1398.764, 41899.00
1399.816, 41572.00
1400.868, 41413.00
1401.920, 41685.00
1402.972, 41591.00
1404.023, 41581.00
1405.075, 41768.00
1406.126, 41724.00
1407.177, 41856.00
1408.228, 41716.00
1409.279, 42080.00
1410.330, 41923.00
1411.380, 42214.00
1412.431, 41724.00
1413.481, 41826.00
1414.531, 42043.00
1415.580, 41836.00
1416.630, 41968.00
1417.680, 42028.00
1418.729, 42016.00
1419.778, 41966.00
1420.827, 42030.00
1421.876, 41940.00
1422.925, 42064.00
1423.973, 42356.00
1425.022, 42091.00
1426.070, 42456.00
1427.118, 41984.00
1428.166, 42018.00
1429.214, 42313.00
1430.261, 42476.00
1431.309, 42359.00
1432.356, 42598.00
1433.403, 42173.00
1434.450, 42399.00
1435.497, 42678.00
1436.543, 42467.00
1437.590, 42695.00
1438.636, 42984.00
1439.682, 42775.00
1440.728, 42666.00
1441.774, 42875.00
1442.819, 42908.00
1443.865, 42862.00
1444.910, 42748.00
1445.955, 42823.00
1447.000, 43176.00
1448.045, 43268.00
1449.090, 43474.00
1450.134, 43149.00
1451.178, 43130.00
1452.223, 43196.00
1453.267, 43190.00
1454.310, 43206.00
1455.354, 43316.00
1456.398, 43366.00
1457.441, 43440.00
1458.484, 43331.00
1459.527, 43222.00
1460.570, 43535.00
1461.613, 43078.00
1462.655, 43365.00
1463.698, 43524.00
1464.740, 43318.00
1465.782, 43096.00
1466.824, 43338.00
1467.866, 43505.00
1468.907, 43527.00
1469.948, 43530.00
1470.990, 43575.34
1472.031, 43494.55
1473.072, 43587.00
1474.112, 43367.00
1475.153, 43410.00
1476.194, 43435.00
1477.234, 43135.00
1478.274, 43648.00
1479.314, 43167.00
1480.354, 43544.00
1481.393, 43371.00
1482.433, 43764.00
1483.472, 43237.00
1484.511, 43390.00
1485.550, 43689.00
1486.589, 43480.00
1487.628, 43586.00
1488.666, 43737.00
1489.704, 43809.00
1490.743, 43677.00
1491.781, 43538.00
1492.819, 43741.00
1493.856, 43642.00
1494.894, 43822.00
1495.931, 43487.00
1496.968, 43629.00
1498.005, 43624.00
1499.042, 43713.00
1500.079, 43888.00
1501.115, 43648.00
1502.152, 43933.00
1503.188, 43829.00
1504.224, 43743.00
1505.260, 43837.00
1506.296, 43688.00
1507.331, 43760.62
1508.367, 43979.00
1509.402, 43865.00
1510.437, 43866.00
1511.472, 43967.00
1512.507, 43731.00
1513.541, 43985.00
1514.576, 44323.00
1515.610, 44093.00
1516.644, 44137.00
1517.678, 43817.00
1518.712, 44105.00
1519.746, 44296.00
1520.779, 44182.00
1521.813, 43920.00
1522.846, 44114.00
1523.879, 44265.00
1524.912, 44089.00
1525.944, 44223.00
1526.977, 44355.00
1528.009, 44189.00
1529.041, 44435.00
1530.073, 44125.00
1531.105, 44608.00
1532.137, 44430.00
1533.168, 44301.00
1534.200, 44389.00
1535.231, 44602.00
1536.262, 44433.00
1537.293, 44627.00
1538.324, 44566.00
1539.354, 44437.00
1540.385, 44467.00
1541.415, 44729.00
1542.445, 44547.00
1543.475, 44675.00
1544.505, 44651.00
1545.534, 44754.00
1546.564, 44939.00
1547.593, 44649.00
1548.622, 44819.00
1549.651, 44973.00
1550.680, 44903.00
1551.708, 44672.00
1552.737, 44671.00
1553.765, 44776.00
1554.793, 44637.00
1555.821, 44776.00
1556.849, 45041.00
1557.877, 44748.00
1558.904, 44806.00
1559.932, 45069.00
1560.959, 45040.00
1561.986, 45102.61
1563.013, 44974.00
1564.039, 45024.00
1565.066, 44976.00
1566.092, 44954.48
1567.119, 44882.00
1568.145, 44946.00
1569.170, 44941.00
1570.196, 44950.00
1571.222, 45006.49
1572.247, 45107.00
1573.272, 45102.00
1574.297, 45063.00
1575.322, 45109.00
1576.347, 45277.00
##END=



