##NAMES=Montebrasite
##RRUFFID=R060890
##IDEAL CHEMISTRY=LiAlPO_4_(OH)
##LOCALITY=Mount Marie, Paris, Maine, USA
##OWNER=RRUFF
##SOURCE=Bob Jenkins
##DESCRIPTION=Colorless massive
##STATUS=The identification of this mineral is confirmed by single-crystal X-ray diffraction and chemical analysis.
##URL=rruff.info/R060890
##MEASURED CHEMISTRY=Li_1.00_Al_1.00_(P_1.00_O_4_)(OH)_0.63_F_0.37_)_Î£=1_ ; Li not measured but estimated by stoichiometry
##PIN_ID=M01084
##ORIENTATION=Laser parallel to -a* (-1 0 0). Fiducial mark perpendicular to laser is parallel to b [0 1 0]
90.67800, 11782.00
91.91600, 11995.00
93.15500, 11923.00
94.39300, 11933.00
95.63100, 12058.00
96.86900, 11882.00
98.10600, 11882.00
99.34400, 11946.00
100.5810, 11823.00
101.8190, 11715.00
103.0560, 11811.00
104.2930, 11883.00
105.5290, 12054.00
106.7660, 12325.00
108.0020, 12501.00
109.2390, 12383.00
110.4750, 12295.00
111.7110, 12194.00
112.9460, 12383.00
114.1820, 12525.00
115.4170, 12758.00
116.6530, 12854.00
117.8880, 12797.00
119.1230, 13272.00
120.3580, 13338.00
121.5920, 13428.00
122.8270, 13884.00
124.0610, 14169.00
125.2950, 14474.00
126.5290, 14710.00
127.7630, 14813.00
128.9970, 15401.00
130.2300, 15733.00
131.4640, 15713.00
132.6970, 15582.00
133.9300, 15011.00
135.1630, 14507.00
136.3950, 13935.00
137.6280, 13814.00
138.8600, 13245.00
140.0920, 13071.00
141.3240, 12598.00
142.5560, 12358.00
143.7880, 12361.00
145.0190, 12135.00
146.2510, 11995.00
147.4820, 12011.00
148.7130, 12091.00
149.9440, 12104.00
151.1750, 12082.01
152.4050, 12040.82
153.6360, 12059.00
154.8660, 12036.60
156.0960, 12002.00
157.3260, 12023.00
158.5560, 12088.00
159.7850, 12077.00
161.0150, 12152.00
162.2440, 12169.00
163.4730, 12329.00
164.7020, 12460.00
165.9310, 12653.00
167.1590, 12636.00
168.3880, 12714.00
169.6160, 12820.00
170.8440, 12874.00
172.0720, 12947.11
173.3000, 13057.00
174.5280, 13114.00
175.7550, 13245.00
176.9820, 13439.00
178.2100, 13600.00
179.4370, 13551.00
180.6630, 13633.00
181.8900, 13614.00
183.1170, 13666.00
184.3430, 13812.00
185.5690, 13854.00
186.7950, 13911.00
188.0210, 13977.00
189.2470, 13952.00
190.4720, 14021.00
191.6970, 14028.00
192.9230, 13955.36
194.1480, 13852.00
195.3730, 13776.00
196.5970, 13621.00
197.8220, 13493.00
199.0460, 13272.00
200.2700, 13134.00
201.4940, 12905.00
202.7180, 12859.00
203.9420, 12399.00
205.1660, 12196.00
206.3890, 12091.00
207.6120, 12041.00
208.8350, 12069.00
210.0580, 12080.00
211.2810, 11996.00
212.5040, 12050.00
213.7260, 12063.00
214.9480, 12217.00
216.1700, 12126.00
217.3920, 12225.00
218.6140, 12314.00
219.8360, 12339.00
221.0570, 12429.00
222.2790, 12380.00
223.5000, 12454.00
224.7210, 12385.00
225.9410, 12414.00
227.1620, 12440.00
228.3820, 12585.00
229.6030, 12522.00
230.8230, 12672.00
232.0430, 12608.00
233.2630, 12537.00
234.4820, 12736.00
235.7020, 12692.00
236.9210, 12650.00
238.1400, 12640.00
239.3590, 12710.00
240.5780, 12549.00
241.7970, 12678.00
243.0150, 12529.00
244.2340, 12636.00
245.4520, 12630.00
246.6700, 12669.00
247.8880, 12650.00
249.1060, 12662.36
250.3230, 12639.00
251.5400, 12695.00
252.7580, 12693.00
253.9750, 12768.00
255.1920, 12866.00
256.4080, 12957.00
257.6250, 12978.00
258.8410, 12841.00
260.0580, 12898.00
261.2740, 13064.00
262.4900, 13287.00
263.7050, 13299.00
264.9210, 13198.00
266.1360, 13381.00
267.3520, 13396.00
268.5670, 13451.00
269.7820, 13428.00
270.9960, 13493.74
272.2110, 13532.00
273.4250, 13605.00
274.6400, 13621.00
275.8540, 13691.00
277.0680, 13792.00
278.2810, 13671.00
279.4950, 13762.00
280.7090, 13786.00
281.9220, 13952.71
283.1350, 14391.00
284.3480, 14480.00
285.5610, 14818.00
286.7730, 15269.00
287.9860, 16036.00
289.1980, 16724.00
290.4100, 17851.00
291.6220, 19172.00
292.8340, 20500.00
294.0460, 22414.00
295.2570, 24222.00
296.4690, 26467.00
297.6800, 28767.00
298.8910, 30931.00
300.1020, 33714.00
301.3120, 36176.00
302.5230, 37578.00
303.7330, 37142.00
304.9440, 35680.00
306.1540, 33057.00
307.3630, 30395.00
308.5730, 27377.00
309.7830, 25318.00
310.9920, 23530.00
312.2010, 22140.00
313.4100, 21089.00
314.6190, 20513.00
315.8280, 19717.00
317.0370, 19144.00
318.2450, 18537.00
319.4530, 17717.00
320.6610, 17109.00
321.8690, 16495.00
323.0770, 16013.00
324.2850, 15492.00
325.4920, 15252.00
326.6990, 14948.00
327.9060, 14534.00
329.1130, 14437.00
330.3200, 14465.00
331.5270, 14262.00
332.7330, 14249.00
333.9390, 14149.00
335.1450, 14026.00
336.3510, 13944.00
337.5570, 13818.00
338.7630, 13977.00
339.9680, 13862.00
341.1740, 13828.00
342.3790, 13755.00
343.5840, 13691.00
344.7890, 13778.00
345.9930, 13701.00
347.1980, 13552.00
348.4020, 13643.00
349.6060, 13586.00
350.8100, 13545.00
352.0140, 13546.00
353.2180, 13547.45
354.4210, 13550.85
355.6250, 13565.16
356.8280, 13594.00
358.0310, 13619.00
359.2340, 13657.00
360.4360, 13656.46
361.6390, 13711.00
362.8410, 13663.00
364.0430, 13628.00
365.2450, 13643.31
366.4470, 13711.00
367.6490, 13719.00
368.8510, 13746.00
370.0520, 13869.00
371.2530, 13724.00
372.4540, 13617.00
373.6550, 13897.00
374.8560, 13823.00
376.0560, 13874.00
377.2570, 13753.00
378.4570, 13949.00
379.6570, 13904.00
380.8570, 13952.00
382.0570, 13731.00
383.2560, 13927.00
384.4560, 13901.00
385.6550, 13935.00
386.8540, 13939.00
388.0530, 13993.00
389.2520, 14151.00
390.4510, 13967.00
391.6490, 14162.00
392.8470, 13960.00
394.0450, 14054.00
395.2430, 14294.00
396.4410, 14249.00
397.6390, 14441.00
398.8360, 14538.00
400.0340, 14439.00
401.2310, 14514.00
402.4280, 14499.00
403.6250, 14804.00
404.8210, 14897.00
406.0180, 15059.00
407.2140, 15173.00
408.4100, 15455.00
409.6060, 15738.00
410.8020, 16319.00
411.9980, 16938.00
413.1930, 17967.00
414.3890, 19392.00
415.5840, 21163.00
416.7790, 23563.00
417.9740, 26732.00
419.1680, 29488.00
420.3630, 32321.00
421.5570, 35459.00
422.7510, 39943.00
423.9450, 45074.00
425.1390, 50381.00
426.3330, 53194.00
427.5270, 50735.00
428.7200, 44752.00
429.9130, 37172.00
431.1060, 31002.00
432.2990, 25960.00
433.4920, 22605.00
434.6840, 20170.00
435.8770, 18830.00
437.0690, 17706.00
438.2610, 17098.00
439.4530, 16419.00
440.6450, 15946.00
441.8360, 15574.00
443.0280, 15348.00
444.2190, 15142.00
445.4100, 15087.00
446.6010, 15017.00
447.7920, 14890.00
448.9820, 14794.87
450.1730, 14635.00
451.3630, 14566.00
452.5530, 14451.00
453.7430, 14380.00
454.9330, 14377.54
456.1230, 14589.00
457.3120, 14434.00
458.5010, 14487.00
459.6910, 14585.00
460.8800, 14487.00
462.0680, 14608.00
463.2570, 14533.00
464.4460, 14628.00
465.6340, 14658.00
466.8220, 14655.00
468.0100, 14922.00
469.1980, 15037.00
470.3860, 15065.00
471.5730, 15193.00
472.7600, 15321.61
473.9480, 15441.00
475.1350, 15676.00
476.3210, 15856.00
477.5080, 16155.00
478.6950, 16310.00
479.8810, 16633.00
481.0670, 16810.00
482.2530, 16959.00
483.4390, 17186.00
484.6250, 17408.00
485.8100, 17453.00
486.9960, 17637.00
488.1810, 17787.00
489.3660, 17676.00
490.5510, 17670.00
491.7360, 17719.00
492.9200, 17561.00
494.1050, 17571.00
495.2890, 17404.00
496.4730, 17413.00
497.6570, 17374.00
498.8400, 17213.00
500.0240, 16849.00
501.2070, 16668.00
502.3910, 16441.00
503.5740, 16265.00
504.7570, 16012.00
505.9400, 15851.55
507.1220, 15706.08
508.3050, 15534.00
509.4870, 15516.00
510.6690, 15418.00
511.8510, 15446.00
513.0330, 15218.00
514.2140, 15175.00
515.3960, 15016.00
516.5770, 15043.00
517.7580, 15087.00
518.9390, 14903.00
520.1200, 14936.00
521.3010, 14939.00
522.4810, 14692.00
523.6610, 14921.00
524.8420, 15026.00
526.0220, 15001.00
527.2010, 14864.00
528.3810, 14935.00
529.5610, 14718.00
530.7400, 14781.00
531.9190, 14829.00
533.0980, 14657.00
534.2770, 14748.00
535.4560, 14855.00
536.6340, 14900.00
537.8120, 14902.26
538.9910, 14819.00
540.1690, 14875.00
541.3460, 14829.00
542.5240, 14878.00
543.7020, 14807.00
544.8790, 14790.00
546.0560, 14850.00
547.2330, 14939.00
548.4100, 14927.00
549.5870, 15020.00
550.7630, 14990.81
551.9400, 15103.00
553.1160, 14957.00
554.2920, 14981.00
555.4680, 15008.00
556.6440, 14969.00
557.8190, 15317.00
558.9950, 15099.00
560.1700, 15212.00
561.3450, 14963.00
562.5200, 15185.00
563.6950, 15153.00
564.8690, 15264.00
566.0440, 15087.00
567.2180, 15290.00
568.3920, 15436.00
569.5660, 15290.00
570.7400, 15344.00
571.9130, 15281.00
573.0870, 15270.00
574.2600, 15312.00
575.4330, 15328.00
576.6060, 15457.00
577.7790, 15480.00
578.9520, 15599.00
580.1240, 15468.00
581.2960, 15558.00
582.4690, 15890.00
583.6410, 15583.00
584.8120, 15850.00
585.9840, 15794.00
587.1560, 15919.00
588.3270, 15921.00
589.4980, 15885.00
590.6690, 15930.00
591.8400, 16074.00
593.0110, 15956.00
594.1810, 16189.00
595.3510, 16101.00
596.5220, 16476.00
597.6920, 16400.00
598.8610, 16580.00
600.0310, 16624.00
601.2010, 16775.00
602.3700, 16883.00
603.5390, 16737.00
604.7080, 16855.00
605.8770, 16690.00
607.0460, 16731.00
608.2140, 16602.00
609.3830, 16607.00
610.5510, 16750.00
611.7190, 16593.00
612.8870, 16729.00
614.0550, 16695.00
615.2220, 16723.00
616.3900, 16831.00
617.5570, 17229.00
618.7240, 17060.00
619.8910, 17443.00
621.0580, 17414.00
622.2240, 17628.00
623.3910, 17882.00
624.5570, 18307.00
625.7230, 18405.00
626.8890, 18729.00
628.0550, 18981.00
629.2200, 19364.00
630.3860, 20005.00
631.5510, 20196.00
632.7160, 20736.00
633.8810, 21310.00
635.0460, 22159.00
636.2100, 23432.00
637.3750, 24879.98
638.5390, 26641.40
639.7030, 28714.00
640.8670, 31074.00
642.0310, 33660.00
643.1950, 36724.00
644.3580, 39673.00
645.5210, 42487.00
646.6850, 43505.00
647.8480, 41746.00
649.0100, 38812.00
650.1730, 34546.00
651.3350, 30648.00
652.4980, 27341.00
653.6600, 24988.00
654.8220, 22666.00
655.9840, 21718.00
657.1450, 20590.00
658.3070, 20005.00
659.4680, 19215.00
660.6300, 18822.00
661.7910, 18332.00
662.9510, 17873.00
664.1120, 17759.00
665.2730, 17526.00
666.4330, 17315.00
667.5930, 17143.00
668.7530, 17037.21
669.9130, 16993.00
671.0730, 16910.00
672.2320, 16842.00
673.3920, 16809.00
674.5510, 16633.00
675.7100, 16712.00
676.8690, 16606.00
678.0280, 16521.00
679.1860, 16525.68
680.3450, 16479.80
681.5030, 16500.00
682.6610, 16454.00
683.8190, 16536.00
684.9770, 16478.00
686.1340, 16544.00
687.2920, 16570.00
688.4490, 16395.00
689.6060, 16543.00
690.7630, 16592.00
691.9200, 16477.00
693.0760, 16409.00
694.2330, 16440.00
695.3890, 16524.00
696.5450, 16469.00
697.7010, 16441.00
698.8570, 16509.00
700.0130, 16334.00
701.1680, 16507.00
702.3230, 16501.00
703.4780, 16469.00
704.6330, 16578.00
705.7880, 16648.00
706.9430, 16468.00
708.0970, 16597.00
709.2520, 16472.00
710.4060, 16596.00
711.5600, 16705.00
712.7140, 16782.00
713.8670, 16604.00
715.0210, 16489.00
716.1740, 16542.00
717.3270, 16587.00
718.4800, 16604.07
719.6330, 16693.00
720.7860, 16763.00
721.9380, 16722.00
723.0910, 16852.00
724.2430, 16876.00
725.3950, 16840.00
726.5470, 16875.00
727.6980, 16773.00
728.8500, 16866.00
730.0010, 16735.00
731.1530, 16767.00
732.3040, 16857.00
733.4550, 16848.25
734.6050, 16971.00
735.7560, 16941.00
736.9060, 16980.00
738.0560, 16958.00
739.2060, 16973.00
740.3560, 17023.29
741.5060, 17001.47
742.6560, 17261.00
743.8050, 16973.00
744.9540, 17346.00
746.1030, 17307.00
747.2520, 17220.00
748.4010, 17034.00
749.5500, 17223.00
750.6980, 17149.00
751.8460, 17237.00
752.9950, 17401.00
754.1420, 17312.00
755.2900, 17158.00
756.4380, 17181.00
757.5850, 17163.00
758.7330, 17409.00
759.8800, 17358.00
761.0270, 17353.00
762.1730, 17187.00
763.3200, 17344.00
764.4670, 17414.00
765.6130, 17453.00
766.7590, 17304.00
767.9050, 17462.00
769.0510, 17474.00
770.1960, 17518.00
771.3420, 17679.00
772.4870, 17527.00
773.6320, 17549.00
774.7770, 17800.00
775.9220, 17603.00
777.0670, 17772.00
778.2110, 17759.00
779.3560, 17768.00
780.5000, 17781.00
781.6440, 17901.00
782.7880, 17833.00
783.9320, 18119.00
785.0750, 18012.00
786.2180, 18196.00
787.3620, 18083.00
788.5050, 18173.00
789.6480, 18183.00
790.7900, 18177.00
791.9330, 18344.00
793.0750, 18475.00
794.2170, 18660.00
795.3590, 18801.00
796.5010, 18768.00
797.6430, 18865.00
798.7850, 18787.00
799.9260, 18927.00
801.0670, 18958.00
802.2080, 19334.00
803.3490, 19175.00
804.4900, 19377.00
805.6310, 19269.00
806.7710, 19280.00
807.9110, 19299.00
809.0510, 19385.00
810.1910, 19380.00
811.3310, 19235.00
812.4710, 19332.00
813.6100, 19378.00
814.7490, 19198.00
815.8880, 19307.00
817.0270, 19168.00
818.1660, 19238.00
819.3050, 19258.44
820.4430, 19422.00
821.5820, 19295.00
822.7200, 19184.00
823.8580, 19117.00
824.9950, 19052.27
826.1330, 19166.00
827.2710, 18998.00
828.4080, 19077.00
829.5450, 19103.00
830.6820, 18892.00
831.8190, 19086.00
832.9560, 18815.00
834.0920, 18675.00
835.2280, 19023.00
836.3650, 18864.00
837.5010, 18730.00
838.6360, 18922.00
839.7720, 18806.00
840.9080, 18844.00
842.0430, 18893.00
843.1780, 18995.00
844.3130, 18952.00
845.4480, 18962.00
846.5830, 18836.00
847.7170, 18863.23
848.8520, 18846.78
849.9860, 18940.00
851.1200, 18966.29
852.2540, 19068.00
853.3870, 19077.00
854.5210, 19121.00
855.6540, 19165.00
856.7880, 19136.00
857.9210, 19165.00
859.0540, 19210.44
860.1860, 19384.00
861.3190, 19342.00
862.4510, 19278.00
863.5840, 19393.00
864.7160, 19328.00
865.8480, 19285.00
866.9790, 19365.00
868.1110, 19491.00
869.2420, 19245.00
870.3740, 19176.00
871.5050, 19175.00
872.6360, 19340.00
873.7660, 19361.00
874.8970, 19348.00
876.0280, 19332.00
877.1580, 19381.00
878.2880, 19468.00
879.4180, 19440.00
880.5480, 19444.00
881.6770, 19335.00
882.8070, 19399.00
883.9360, 19597.00
885.0650, 19379.00
886.1940, 19520.00
887.3230, 19316.00
888.4520, 19600.00
889.5800, 19529.00
890.7090, 19568.00
891.8370, 19465.00
892.9650, 19367.00
894.0930, 19577.00
895.2200, 19545.00
896.3480, 19786.00
897.4750, 19553.00
898.6020, 19787.00
899.7290, 19704.00
900.8560, 19773.00
901.9830, 19731.00
903.1090, 19756.00
904.2360, 19715.00
905.3620, 19705.00
906.4880, 19703.00
907.6140, 19747.00
908.7400, 19660.00
909.8650, 19844.00
910.9900, 19937.00
912.1160, 19803.00
913.2410, 19820.00
914.3660, 19727.00
915.4900, 19735.01
916.6150, 19710.74
917.7390, 19779.00
918.8640, 19719.00
919.9880, 19758.00
921.1120, 19848.00
922.2350, 19786.00
923.3590, 19933.00
924.4820, 20026.00
925.6060, 19889.00
926.7290, 20021.00
927.8520, 19996.00
928.9740, 20131.00
930.0970, 19993.00
931.2190, 19959.00
932.3420, 20097.00
933.4640, 20197.00
934.5860, 20021.00
935.7080, 20118.00
936.8290, 20207.00
937.9510, 20152.00
939.0720, 20165.00
940.1930, 20236.00
941.3140, 20332.00
942.4350, 20460.00
943.5560, 20294.00
944.6760, 20402.00
945.7960, 20242.00
946.9170, 20475.00
948.0370, 20195.00
949.1560, 20564.00
950.2760, 20466.00
951.3960, 20587.00
952.5150, 20610.00
953.6340, 20566.00
954.7530, 20713.00
955.8720, 20899.00
956.9910, 20886.00
958.1090, 20929.00
959.2280, 20952.00
960.3460, 20881.00
961.4640, 20860.00
962.5820, 20938.00
963.6990, 21101.00
964.8170, 21175.00
965.9340, 21183.00
967.0510, 21457.00
968.1690, 21424.00
969.2850, 21566.00
970.4020, 21518.00
971.5190, 21564.00
972.6350, 21821.00
973.7510, 21873.00
974.8670, 21861.00
975.9830, 22091.00
977.0990, 22184.00
978.2150, 22321.00
979.3300, 22509.00
980.4450, 22706.00
981.5600, 22837.00
982.6750, 22908.00
983.7900, 23233.00
984.9050, 23386.00
986.0190, 23887.00
987.1340, 24014.00
988.2480, 24475.00
989.3620, 25136.00
990.4750, 25533.00
991.5890, 26248.00
992.7020, 27020.00
993.8160, 27773.00
994.9290, 28856.00
996.0420, 29859.00
997.1550, 31320.00
998.2670, 32701.00
999.3800, 34205.00
1000.492, 35830.00
1001.604, 37732.00
1002.716, 40109.00
1003.828, 41756.00
1004.940, 43714.00
1006.051, 45499.00
1007.163, 47263.00
1008.274, 48665.00
1009.385, 50041.00
1010.496, 50185.00
1011.606, 50261.00
1012.717, 49350.00
1013.827, 48250.00
1014.937, 46881.00
1016.047, 44826.00
1017.157, 42640.00
1018.267, 40715.00
1019.377, 38879.00
1020.486, 37254.00
1021.595, 35432.00
1022.704, 34105.00
1023.813, 32899.00
1024.922, 31841.00
1026.030, 31051.00
1027.139, 30723.00
1028.247, 30197.00
1029.355, 30016.00
1030.463, 29862.00
1031.571, 29767.00
1032.678, 29852.00
1033.786, 30424.00
1034.893, 30637.00
1036.000, 31097.00
1037.107, 31868.00
1038.214, 32429.00
1039.321, 32818.00
1040.427, 33591.00
1041.533, 33980.00
1042.639, 34607.00
1043.745, 35103.00
1044.851, 35596.00
1045.957, 35886.00
1047.062, 36125.00
1048.168, 36275.00
1049.273, 36646.26
1050.378, 36776.00
1051.482, 37346.00
1052.587, 37656.00
1053.692, 38054.00
1054.796, 38747.00
1055.900, 39818.00
1057.004, 41205.00
1058.108, 42301.00
1059.212, 43519.29
1060.315, 45971.00
1061.418, 45206.00
1062.522, 45227.00
1063.625, 44467.00
1064.728, 43193.00
1065.830, 41128.00
1066.933, 39126.00
1068.035, 36635.00
1069.137, 34068.00
1070.239, 32389.00
1071.341, 30513.00
1072.443, 29267.00
1073.545, 28241.00
1074.646, 27316.00
1075.747, 26548.00
1076.848, 25982.00
1077.949, 25753.00
1079.050, 25439.00
1080.150, 25078.00
1081.251, 24932.00
1082.351, 24591.00
1083.451, 24504.00
1084.551, 24254.00
1085.651, 23862.00
1086.750, 23807.00
1087.850, 23641.18
1088.949, 23713.00
1090.048, 23510.00
1091.147, 23502.00
1092.246, 23416.00
1093.345, 23335.00
1094.443, 23209.00
1095.541, 23227.00
1096.639, 23120.00
1097.737, 23222.00
1098.835, 22923.00
1099.933, 22805.00
1101.030, 22925.00
1102.128, 22855.00
1103.225, 22725.00
1104.322, 22577.00
1105.419, 22778.00
1106.515, 22802.00
1107.612, 22853.00
1108.708, 22739.00
1109.804, 22823.00
1110.900, 22858.00
1111.996, 22799.00
1113.092, 23090.00
1114.187, 22899.00
1115.283, 22736.00
1116.378, 22983.00
1117.473, 22890.00
1118.568, 22890.00
1119.662, 22794.00
1120.757, 22903.00
1121.851, 22978.00
1122.946, 22826.00
1124.040, 22793.00
1125.134, 22796.00
1126.227, 22775.00
1127.321, 22782.00
1128.414, 22661.00
1129.508, 22926.00
1130.601, 22551.00
1131.693, 22704.00
1132.786, 22766.00
1133.879, 22619.00
1134.971, 22690.00
1136.064, 22759.00
1137.156, 22697.00
1138.248, 22690.00
1139.339, 22618.00
1140.431, 22639.00
1141.522, 22596.00
1142.614, 22592.00
1143.705, 22568.00
1144.796, 22548.00
1145.887, 22279.00
1146.977, 22610.00
1148.068, 22606.00
1149.158, 22837.00
1150.248, 22687.00
1151.338, 22908.00
1152.428, 22682.00
1153.518, 22719.00
1154.607, 22616.00
1155.696, 22617.00
1156.785, 22886.00
1157.874, 22833.00
1158.963, 22839.00
1160.052, 22764.00
1161.141, 22786.00
1162.229, 22793.10
1163.317, 22776.93
1164.405, 22838.00
1165.493, 22787.00
1166.581, 22786.00
1167.668, 22787.00
1168.756, 23031.00
1169.843, 22895.00
1170.930, 23116.00
1172.017, 23007.00
1173.103, 23021.00
1174.190, 23116.00
1175.276, 23040.00
1176.363, 23169.00
1177.449, 23124.00
1178.535, 23001.00
1179.620, 23294.00
1180.706, 22979.00
1181.791, 23012.00
1182.877, 23079.00
1183.962, 23138.00
1185.047, 23222.00
1186.131, 23265.00
1187.216, 23208.00
1188.300, 23273.00
1189.385, 23214.00
1190.469, 23340.00
1191.553, 23460.00
1192.637, 23507.00
1193.720, 23551.78
1194.804, 23475.00
1195.887, 23543.00
1196.970, 23608.00
1198.053, 23563.00
1199.136, 23373.00
1200.219, 23423.00
1201.301, 23453.00
1202.383, 23457.00
1203.465, 23488.00
1204.547, 23436.00
1205.629, 23430.00
1206.711, 23468.00
1207.792, 23624.00
1208.874, 23467.00
1209.955, 23631.00
1211.036, 23499.00
1212.117, 23598.00
1213.198, 23603.00
1214.278, 23502.00
1215.359, 23470.00
1216.439, 23584.00
1217.519, 23519.00
1218.599, 23502.00
1219.678, 23614.00
1220.758, 23544.00
1221.837, 23525.00
1222.917, 23561.00
1223.996, 23718.00
1225.075, 23523.00
1226.153, 23407.00
1227.232, 23573.00
1228.310, 23552.00
1229.389, 23522.00
1230.467, 23568.00
1231.545, 23533.00
1232.622, 23636.00
1233.700, 23608.00
1234.777, 23611.00
1235.855, 23700.00
1236.932, 23888.00
1238.009, 23576.00
1239.086, 23874.00
1240.162, 23681.00
1241.239, 23725.00
1242.315, 23769.00
1243.391, 23531.00
1244.467, 23703.00
1245.543, 23849.00
1246.619, 23787.00
1247.694, 23847.00
1248.769, 23731.00
1249.844, 23722.19
1250.919, 23739.00
1251.994, 23650.00
1253.069, 23773.00
1254.144, 23776.00
1255.218, 23797.00
1256.292, 23861.00
1257.366, 23717.00
1258.440, 23868.00
1259.514, 23853.00
1260.587, 23940.00
1261.661, 23800.00
1262.734, 23919.00
1263.807, 24043.00
1264.880, 24050.00
1265.952, 24182.00
1267.025, 23942.00
1268.097, 24178.00
1269.170, 24054.00
1270.242, 24162.00
1271.314, 24193.00
1272.385, 24310.00
1273.457, 24317.00
1274.528, 24334.94
1275.600, 24259.00
1276.671, 24277.00
1277.742, 24373.00
1278.812, 24257.00
1279.883, 24280.00
1280.954, 24118.00
1282.024, 24105.00
1283.094, 24319.00
1284.164, 24273.00
1285.234, 24135.00
1286.303, 24029.00
1287.373, 24036.18
1288.442, 23988.15
1289.511, 24071.00
1290.580, 24070.00
1291.649, 24132.40
1292.718, 24302.00
1293.786, 24311.00
1294.855, 24322.00
1295.923, 24408.00
1296.991, 24414.00
1298.059, 24473.54
1299.126, 24343.00
1300.194, 24536.00
1301.261, 24469.00
1302.328, 24403.00
1303.395, 24451.00
1304.462, 24580.00
1305.529, 24577.00
1306.596, 24551.00
1307.662, 24427.00
1308.728, 24481.00
1309.794, 24459.32
1310.860, 24684.00
1311.926, 24530.00
1312.991, 24758.00
1314.057, 24857.00
1315.122, 24625.00
1316.187, 24687.00
1317.252, 24805.00
1318.317, 24813.00
1319.381, 24815.35
1320.446, 24828.00
1321.510, 24755.00
1322.574, 24773.00
1323.638, 24765.00
1324.702, 24788.00
1325.766, 24742.00
1326.829, 24666.00
1327.892, 24677.14
1328.956, 24609.01
1330.019, 24683.00
1331.081, 24528.00
1332.144, 24599.00
1333.206, 24587.00
1334.269, 24785.00
1335.331, 24688.00
1336.393, 24716.00
1337.455, 24637.00
1338.516, 24688.00
1339.578, 24879.00
1340.639, 24853.00
1341.701, 24812.00
1342.762, 24877.88
1343.822, 24833.00
1344.883, 24832.00
1345.944, 24898.00
1347.004, 24784.00
1348.064, 24794.00
1349.124, 24713.00
1350.184, 24636.00
1351.244, 24682.00
1352.304, 24821.00
1353.363, 24878.00
1354.422, 24806.00
1355.481, 24772.00
1356.540, 24693.00
1357.599, 24716.00
1358.657, 24980.00
1359.716, 25115.00
1360.774, 24976.00
1361.832, 24830.00
1362.890, 24845.00
1363.948, 24836.92
1365.006, 24943.00
1366.063, 24993.00
1367.120, 24907.00
1368.178, 25021.00
1369.234, 25203.00
1370.291, 25069.00
1371.348, 24928.00
1372.404, 25138.00
1373.461, 25044.00
1374.517, 24990.00
1375.573, 25130.00
1376.629, 25025.00
1377.684, 24978.00
1378.740, 25176.00
1379.795, 25133.00
1380.850, 24855.00
1381.905, 25210.00
1382.960, 25048.00
1384.015, 25034.00
1385.070, 25143.00
1386.124, 25093.00
1387.178, 25168.00
1388.232, 25268.00
1389.286, 25105.00
1390.340, 25074.00
1391.393, 25376.00
1392.447, 25253.00
1393.500, 25212.00
1394.553, 25164.00
1395.606, 25121.00
1396.659, 25157.00
1397.711, 25286.00
1398.764, 25201.00
1399.816, 25029.00
1400.868, 25211.00
1401.920, 25121.00
1402.972, 25190.00
1404.023, 25194.00
1405.075, 25210.49
1406.126, 25227.06
1407.177, 25294.00
1408.228, 25269.00
1409.279, 25318.00
1410.330, 25428.00
1411.380, 25547.00
1412.431, 25436.00
1413.481, 25389.00
1414.531, 25204.00
1415.580, 25358.00
1416.630, 25450.00
1417.680, 25360.00
1418.729, 25360.00
1419.778, 25316.00
1420.827, 25371.98
1421.876, 25330.00
1422.925, 25485.00
1423.973, 25637.00
1425.022, 25613.00
1426.070, 25426.00
1427.118, 25450.00
1428.166, 25673.00
1429.214, 25401.00
1430.261, 25642.00
1431.309, 25520.00
1432.356, 25762.00
1433.403, 25850.00
1434.450, 25775.00
1435.497, 25779.00
1436.543, 26039.00
1437.590, 25819.00
1438.636, 25982.00
1439.682, 26157.00
1440.728, 26111.00
1441.774, 26192.00
1442.819, 26266.00
1443.865, 26263.00
1444.910, 26518.00
1445.955, 26328.00
1447.000, 26463.00
1448.045, 26357.00
1449.090, 26726.00
1450.134, 26743.00
1451.178, 26678.00
1452.223, 26556.00
1453.267, 26618.00
1454.310, 26851.00
1455.354, 26713.00
1456.398, 26799.00
1457.441, 26696.00
1458.484, 26803.00
1459.527, 26665.00
1460.570, 26570.00
1461.613, 26601.00
1462.655, 26456.00
1463.698, 26522.00
1464.740, 26390.00
1465.782, 26391.00
1466.824, 26517.00
1467.866, 26388.00
1468.907, 26603.00
1469.948, 26461.00
1470.990, 26064.00
1472.031, 26238.00
1473.072, 26266.00
1474.112, 26226.00
1475.153, 26239.00
1476.194, 26262.00
1477.234, 26428.00
1478.274, 26189.00
1479.314, 26369.00
1480.354, 26528.00
1481.393, 26249.00
1482.433, 26193.00
1483.472, 26500.00
1484.511, 26243.00
1485.550, 26230.00
1486.589, 26279.00
1487.628, 26396.00
1488.666, 26410.00
1489.704, 26358.00
1490.743, 26379.00
1491.781, 26414.00
1492.819, 26224.00
1493.856, 26403.00
1494.894, 26239.00
1495.931, 26489.00
1496.968, 26328.00
1498.005, 26134.00
1499.042, 26476.00
1500.079, 26324.00
1501.115, 26373.00
1502.152, 26245.00
1503.188, 26426.00
1504.224, 26337.00
1505.260, 26357.00
1506.296, 26445.00
1507.331, 26253.00
1508.367, 26498.00
1509.402, 26572.00
1510.437, 26286.00
1511.472, 26286.00
1512.507, 26376.00
1513.541, 26461.00
1514.576, 26598.00
1515.610, 26523.00
1516.644, 26432.00
1517.678, 26477.00
1518.712, 26595.00
1519.746, 26640.00
1520.779, 26605.03
1521.813, 26679.00
1522.846, 26494.00
1523.879, 26581.00
1524.912, 26544.00
1525.944, 26580.00
1526.977, 26496.00
1528.009, 26505.49
1529.041, 26591.00
1530.073, 26487.00
1531.105, 26724.00
1532.137, 26756.00
1533.168, 26495.00
1534.200, 26889.00
1535.231, 26651.00
1536.262, 26705.00
1537.293, 26867.00
1538.324, 26822.00
1539.354, 26784.00
1540.385, 26924.00
1541.415, 26876.00
1542.445, 26828.00
1543.475, 26914.00
1544.505, 26963.00
1545.534, 27025.00
1546.564, 26795.00
1547.593, 26857.00
1548.622, 26670.00
1549.651, 26717.85
1550.680, 27124.00
1551.708, 26844.00
1552.737, 27006.00
1553.765, 27129.00
1554.793, 27062.00
1555.821, 26971.00
1556.849, 26904.00
1557.877, 26939.72
1558.904, 26911.50
1559.932, 26930.33
1560.959, 26945.00
1561.986, 26977.00
1563.013, 26969.00
1564.039, 26972.44
1565.066, 26970.34
1566.092, 27010.00
1567.119, 26977.00
1568.145, 26951.00
1569.170, 27012.00
1570.196, 26875.00
1571.222, 26764.00
1572.247, 27126.00
1573.272, 27048.00
1574.297, 27022.00
1575.322, 26905.00
1576.347, 27282.00
##END=



