##NAMES=Montebrasite
##RRUFFID=R060890
##IDEAL CHEMISTRY=LiAlPO_4_(OH)
##LOCALITY=Mount Marie, Paris, Maine, USA
##OWNER=RRUFF
##SOURCE=Bob Jenkins
##DESCRIPTION=Colorless massive
##STATUS=The identification of this mineral is confirmed by single-crystal X-ray diffraction and chemical analysis.
##URL=rruff.info/R060890
##MEASURED CHEMISTRY=Li_1.00_Al_1.00_(P_1.00_O_4_)(OH)_0.63_F_0.37_)_Î£=1_ ; Li not measured but estimated by stoichiometry
##PIN_ID=M01677
##ORIENTATION=Laser parallel to b* (0 1 0). Fiducial mark perpendicular to laser is parallel to c [0 0 1]
90.67800, 11596.00
91.91600, 11799.00
93.15500, 11800.00
94.39300, 11864.00
95.63100, 11764.00
96.86900, 11924.00
98.10600, 11776.00
99.34400, 11736.00
100.5810, 11821.00
101.8190, 11598.00
103.0560, 11599.00
104.2930, 11800.00
105.5290, 11902.00
106.7660, 12117.00
108.0020, 12204.00
109.2390, 12246.00
110.4750, 12416.00
111.7110, 12280.00
112.9460, 12273.00
114.1820, 12507.00
115.4170, 12746.00
116.6530, 12994.00
117.8880, 13262.00
119.1230, 13341.00
120.3580, 13723.00
121.5920, 14006.00
122.8270, 14426.00
124.0610, 14549.00
125.2950, 14559.00
126.5290, 14635.00
127.7630, 15031.00
128.9970, 15019.00
130.2300, 15226.00
131.4640, 14993.00
132.6970, 14601.00
133.9300, 14301.00
135.1630, 13921.00
136.3950, 13600.00
137.6280, 13284.00
138.8600, 13120.00
140.0920, 12972.00
141.3240, 12832.00
142.5560, 12731.00
143.7880, 12770.00
145.0190, 12796.00
146.2510, 12952.00
147.4820, 13013.00
148.7130, 13333.00
149.9440, 13584.00
151.1750, 14076.00
152.4050, 14579.00
153.6360, 15014.00
154.8660, 15643.00
156.0960, 16102.00
157.3260, 16816.00
158.5560, 17073.00
159.7850, 17594.00
161.0150, 18234.00
162.2440, 18613.00
163.4730, 19065.00
164.7020, 19191.00
165.9310, 19090.00
167.1590, 19284.00
168.3880, 18817.00
169.6160, 18765.00
170.8440, 18346.00
172.0720, 17894.00
173.3000, 17366.00
174.5280, 16927.00
175.7550, 16720.00
176.9820, 16196.00
178.2100, 15985.00
179.4370, 15644.00
180.6630, 15460.00
181.8900, 15196.27
183.1170, 15008.00
184.3430, 14762.00
185.5690, 14577.45
186.7950, 14294.00
188.0210, 14206.00
189.2470, 14085.00
190.4720, 13881.00
191.6970, 13807.00
192.9230, 13600.00
194.1480, 13547.00
195.3730, 13286.00
196.5970, 13118.00
197.8220, 13158.00
199.0460, 12960.00
200.2700, 12847.00
201.4940, 12772.00
202.7180, 12692.00
203.9420, 12506.00
205.1660, 12439.00
206.3890, 12302.00
207.6120, 12268.00
208.8350, 12247.00
210.0580, 12198.67
211.2810, 12208.00
212.5040, 12168.00
213.7260, 12204.00
214.9480, 12174.00
216.1700, 12203.00
217.3920, 12144.00
218.6140, 12133.00
219.8360, 12073.00
221.0570, 12024.00
222.2790, 12129.00
223.5000, 12063.00
224.7210, 12036.00
225.9410, 11868.00
227.1620, 11959.00
228.3820, 11819.00
229.6030, 12009.00
230.8230, 11903.00
232.0430, 11797.00
233.2630, 11781.00
234.4820, 11742.00
235.7020, 11747.00
236.9210, 11720.81
238.1400, 11722.00
239.3590, 11715.00
240.5780, 11771.00
241.7970, 11830.00
243.0150, 11764.00
244.2340, 11840.00
245.4520, 11925.00
246.6700, 11811.00
247.8880, 11878.00
249.1060, 11984.00
250.3230, 12105.00
251.5400, 12148.00
252.7580, 12243.00
253.9750, 12395.00
255.1920, 12565.00
256.4080, 12813.68
257.6250, 13079.00
258.8410, 13412.00
260.0580, 13710.00
261.2740, 14064.00
262.4900, 14466.00
263.7050, 14667.00
264.9210, 15225.00
266.1360, 15494.00
267.3520, 15906.00
268.5670, 16108.00
269.7820, 16233.00
270.9960, 16294.00
272.2110, 16414.00
273.4250, 16499.00
274.6400, 16334.00
275.8540, 16089.00
277.0680, 16011.00
278.2810, 16022.00
279.4950, 16003.00
280.7090, 15914.00
281.9220, 16116.00
283.1350, 16149.00
284.3480, 16563.00
285.5610, 17003.00
286.7730, 17597.00
287.9860, 18719.00
289.1980, 20109.00
290.4100, 21717.00
291.6220, 23540.00
292.8340, 25480.00
294.0460, 27521.00
295.2570, 29396.00
296.4690, 30778.00
297.6800, 31714.00
298.8910, 32684.00
300.1020, 33292.00
301.3120, 33680.00
302.5230, 33165.00
303.7330, 31757.00
304.9440, 30058.00
306.1540, 27945.00
307.3630, 25671.00
308.5730, 23729.00
309.7830, 22170.00
310.9920, 20707.00
312.2010, 19784.00
313.4100, 18757.00
314.6190, 18107.00
315.8280, 17183.00
317.0370, 16678.00
318.2450, 16098.00
319.4530, 15561.00
320.6610, 15201.00
321.8690, 14680.00
323.0770, 14528.00
324.2850, 14119.00
325.4920, 13926.00
326.6990, 13767.00
327.9060, 13617.00
329.1130, 13305.00
330.3200, 13228.00
331.5270, 13157.00
332.7330, 13251.00
333.9390, 13049.00
335.1450, 13095.00
336.3510, 12915.00
337.5570, 12738.00
338.7630, 12749.00
339.9680, 12750.00
341.1740, 12748.00
342.3790, 12754.00
343.5840, 12613.00
344.7890, 12552.00
345.9930, 12455.00
347.1980, 12583.00
348.4020, 12523.00
349.6060, 12602.00
350.8100, 12591.00
352.0140, 12583.00
353.2180, 12660.00
354.4210, 12639.00
355.6250, 12725.00
356.8280, 12546.00
358.0310, 12570.00
359.2340, 12609.17
360.4360, 12771.00
361.6390, 12777.00
362.8410, 12832.00
364.0430, 12900.43
365.2450, 12916.00
366.4470, 12974.00
367.6490, 12931.00
368.8510, 12936.00
370.0520, 12985.00
371.2530, 12988.00
372.4540, 12911.00
373.6550, 12892.00
374.8560, 12806.00
376.0560, 12893.00
377.2570, 12849.00
378.4570, 12920.00
379.6570, 12686.00
380.8570, 12672.00
382.0570, 12710.00
383.2560, 12817.00
384.4560, 12594.00
385.6550, 12681.00
386.8540, 12400.00
388.0530, 12519.00
389.2520, 12612.00
390.4510, 12491.00
391.6490, 12736.00
392.8470, 12501.00
394.0450, 12564.00
395.2430, 12509.00
396.4410, 12547.00
397.6390, 12625.00
398.8360, 12456.00
400.0340, 12654.00
401.2310, 12705.00
402.4280, 12877.00
403.6250, 12761.00
404.8210, 12765.00
406.0180, 13055.00
407.2140, 13139.00
408.4100, 13522.00
409.6060, 13753.00
410.8020, 14077.00
411.9980, 14514.00
413.1930, 15328.00
414.3890, 16581.00
415.5840, 18132.00
416.7790, 19948.00
417.9740, 22118.00
419.1680, 23495.00
420.3630, 24186.00
421.5570, 24732.00
422.7510, 25432.00
423.9450, 26127.00
425.1390, 26053.00
426.3330, 25471.00
427.5270, 23974.00
428.7200, 22028.00
429.9130, 19926.00
431.1060, 17850.00
432.2990, 16722.00
433.4920, 15572.00
434.6840, 15009.00
435.8770, 14376.00
437.0690, 14045.00
438.2610, 13831.00
439.4530, 13791.00
440.6450, 13463.00
441.8360, 13413.00
443.0280, 13455.00
444.2190, 13493.00
445.4100, 13340.00
446.6010, 13224.00
447.7920, 13251.00
448.9820, 13327.00
450.1730, 13239.00
451.3630, 13360.00
452.5530, 13237.00
453.7430, 13437.00
454.9330, 13546.00
456.1230, 13482.00
457.3120, 13499.00
458.5010, 13431.00
459.6910, 13700.00
460.8800, 13811.00
462.0680, 13919.00
463.2570, 14034.00
464.4460, 14214.00
465.6340, 14473.00
466.8220, 14692.00
468.0100, 14897.00
469.1980, 15257.00
470.3860, 15508.00
471.5730, 15785.00
472.7600, 16307.00
473.9480, 16704.00
475.1350, 16946.00
476.3210, 17249.00
477.5080, 17656.00
478.6950, 17881.00
479.8810, 18127.00
481.0670, 18281.00
482.2530, 18367.00
483.4390, 18322.00
484.6250, 18415.00
485.8100, 18329.00
486.9960, 18074.00
488.1810, 17893.00
489.3660, 17712.00
490.5510, 17543.97
491.7360, 17297.00
492.9200, 17182.00
494.1050, 16912.00
495.2890, 16552.00
496.4730, 16215.00
497.6570, 16078.00
498.8400, 15857.00
500.0240, 15684.00
501.2070, 15373.00
502.3910, 15218.00
503.5740, 14947.00
504.7570, 14784.00
505.9400, 14616.00
507.1220, 14414.00
508.3050, 14282.37
509.4870, 14106.07
510.6690, 13961.00
511.8510, 13818.00
513.0330, 13574.00
514.2140, 13484.00
515.3960, 13306.00
516.5770, 13284.00
517.7580, 13298.00
518.9390, 13119.00
520.1200, 13053.00
521.3010, 13318.00
522.4810, 13128.00
523.6610, 13126.00
524.8420, 12990.00
526.0220, 12842.00
527.2010, 12823.00
528.3810, 12884.00
529.5610, 12803.00
530.7400, 12877.00
531.9190, 12765.00
533.0980, 12757.00
534.2770, 12803.00
535.4560, 12927.00
536.6340, 12934.00
537.8120, 12890.00
538.9910, 12900.00
540.1690, 12944.00
541.3460, 12883.00
542.5240, 12875.00
543.7020, 12831.00
544.8790, 12848.00
546.0560, 12885.00
547.2330, 12893.00
548.4100, 12876.00
549.5870, 12906.00
550.7630, 12906.00
551.9400, 12892.00
553.1160, 12756.00
554.2920, 12894.00
555.4680, 12904.00
556.6440, 13098.00
557.8190, 12971.00
558.9950, 13120.00
560.1700, 13017.00
561.3450, 12891.00
562.5200, 13027.00
563.6950, 12984.00
564.8690, 13058.00
566.0440, 12995.00
567.2180, 13085.00
568.3920, 13191.00
569.5660, 13092.00
570.7400, 13212.00
571.9130, 13212.00
573.0870, 13241.00
574.2600, 13222.00
575.4330, 13242.00
576.6060, 13245.39
577.7790, 13382.00
578.9520, 13307.00
580.1240, 13243.00
581.2960, 13380.00
582.4690, 13370.00
583.6410, 13405.00
584.8120, 13565.00
585.9840, 13614.00
587.1560, 13738.00
588.3270, 13993.00
589.4980, 13969.00
590.6690, 14151.00
591.8400, 14510.00
593.0110, 15139.00
594.1810, 15342.36
595.3510, 15647.00
596.5220, 15973.00
597.6920, 16344.00
598.8610, 16545.00
600.0310, 16737.00
601.2010, 16799.00
602.3700, 16756.95
603.5390, 16661.00
604.7080, 16466.00
605.8770, 16126.00
607.0460, 15865.00
608.2140, 15423.00
609.3830, 15169.00
610.5510, 15066.00
611.7190, 14985.00
612.8870, 14815.00
614.0550, 14920.00
615.2220, 15057.00
616.3900, 14867.00
617.5570, 15399.00
618.7240, 15582.00
619.8910, 15730.00
621.0580, 16019.00
622.2240, 16509.00
623.3910, 16876.00
624.5570, 17578.00
625.7230, 17829.00
626.8890, 18413.00
628.0550, 18876.00
629.2200, 19345.00
630.3860, 19661.00
631.5510, 19964.00
632.7160, 20364.00
633.8810, 20794.00
635.0460, 21499.00
636.2100, 22263.00
637.3750, 23389.00
638.5390, 24704.00
639.7030, 26138.00
640.8670, 26944.00
642.0310, 27646.00
643.1950, 28450.00
644.3580, 28506.00
645.5210, 28434.00
646.6850, 27641.00
647.8480, 26522.00
649.0100, 24679.00
650.1730, 22411.00
651.3350, 20667.00
652.4980, 19183.00
653.6600, 18150.00
654.8220, 17240.00
655.9840, 16640.00
657.1450, 15972.00
658.3070, 15727.00
659.4680, 15370.00
660.6300, 15210.00
661.7910, 14995.00
662.9510, 14905.00
664.1120, 14694.00
665.2730, 14698.00
666.4330, 14533.00
667.5930, 14353.00
668.7530, 14309.00
669.9130, 14312.00
671.0730, 14288.00
672.2320, 14242.00
673.3920, 14212.00
674.5510, 14200.00
675.7100, 14273.00
676.8690, 14027.00
678.0280, 14133.00
679.1860, 14109.00
680.3450, 13995.00
681.5030, 14033.00
682.6610, 14050.00
683.8190, 13891.00
684.9770, 14054.00
686.1340, 14072.00
687.2920, 13944.00
688.4490, 14155.00
689.6060, 14057.00
690.7630, 13986.00
691.9200, 13916.00
693.0760, 13893.99
694.2330, 13888.00
695.3890, 13879.00
696.5450, 13932.00
697.7010, 13925.00
698.8570, 13968.00
700.0130, 13972.00
701.1680, 14059.00
702.3230, 14037.00
703.4780, 13928.00
704.6330, 13982.00
705.7880, 14117.00
706.9430, 13900.00
708.0970, 14097.00
709.2520, 14047.00
710.4060, 14003.00
711.5600, 14062.00
712.7140, 14016.00
713.8670, 14187.00
715.0210, 14018.00
716.1740, 13982.00
717.3270, 14139.00
718.4800, 14155.00
719.6330, 14157.00
720.7860, 14143.00
721.9380, 14193.00
723.0910, 14160.00
724.2430, 14253.00
725.3950, 14321.00
726.5470, 14123.00
727.6980, 14125.00
728.8500, 14295.00
730.0010, 14311.00
731.1530, 14078.00
732.3040, 14306.00
733.4550, 14049.00
734.6050, 14331.00
735.7560, 14190.00
736.9060, 14195.00
738.0560, 14342.00
739.2060, 14198.00
740.3560, 14116.00
741.5060, 14256.00
742.6560, 14290.00
743.8050, 14271.00
744.9540, 14296.00
746.1030, 14372.00
747.2520, 14384.00
748.4010, 14334.00
749.5500, 14392.00
750.6980, 14393.00
751.8460, 14458.00
752.9950, 14222.00
754.1420, 14453.00
755.2900, 14348.00
756.4380, 14428.00
757.5850, 14625.00
758.7330, 14476.00
759.8800, 14442.00
761.0270, 14527.00
762.1730, 14585.00
763.3200, 14498.00
764.4670, 14654.00
765.6130, 14599.00
766.7590, 14494.00
767.9050, 14645.00
769.0510, 14568.00
770.1960, 14643.00
771.3420, 14723.00
772.4870, 14735.00
773.6320, 14769.00
774.7770, 14833.98
775.9220, 14933.00
777.0670, 14942.00
778.2110, 14993.00
779.3560, 15033.00
780.5000, 15058.00
781.6440, 15119.00
782.7880, 15199.68
783.9320, 15301.87
785.0750, 15412.00
786.2180, 15550.00
787.3620, 15703.00
788.5050, 15818.00
789.6480, 16068.00
790.7900, 16255.00
791.9330, 16416.35
793.0750, 16620.00
794.2170, 16775.00
795.3590, 16882.00
796.5010, 17088.00
797.6430, 17220.00
798.7850, 17464.00
799.9260, 17528.00
801.0670, 17685.00
802.2080, 17834.00
803.3490, 17854.00
804.4900, 18081.00
805.6310, 17994.00
806.7710, 18304.00
807.9110, 18035.00
809.0510, 18094.00
810.1910, 18028.00
811.3310, 17869.00
812.4710, 17999.00
813.6100, 17896.00
814.7490, 17809.00
815.8880, 17850.00
817.0270, 17512.00
818.1660, 17424.00
819.3050, 17376.00
820.4430, 17130.00
821.5820, 17152.00
822.7200, 17028.00
823.8580, 16876.00
824.9950, 16627.00
826.1330, 16726.00
827.2710, 16324.00
828.4080, 16396.00
829.5450, 16210.00
830.6820, 16055.00
831.8190, 15891.00
832.9560, 15810.00
834.0920, 15821.00
835.2280, 15667.00
836.3650, 15720.00
837.5010, 15801.00
838.6360, 15660.00
839.7720, 15555.00
840.9080, 15589.00
842.0430, 15448.00
843.1780, 15401.00
844.3130, 15520.00
845.4480, 15376.00
846.5830, 15368.00
847.7170, 15423.00
848.8520, 15374.00
849.9860, 15359.00
851.1200, 15362.00
852.2540, 15398.00
853.3870, 15546.00
854.5210, 15479.00
855.6540, 15444.00
856.7880, 15177.00
857.9210, 15324.00
859.0540, 15425.00
860.1860, 15580.00
861.3190, 15299.00
862.4510, 15646.00
863.5840, 15406.00
864.7160, 15472.00
865.8480, 15573.00
866.9790, 15555.00
868.1110, 15527.00
869.2420, 15420.00
870.3740, 15597.00
871.5050, 15423.00
872.6360, 15498.00
873.7660, 15536.00
874.8970, 15450.00
876.0280, 15515.00
877.1580, 15695.00
878.2880, 15580.00
879.4180, 15641.00
880.5480, 15675.00
881.6770, 15626.00
882.8070, 15592.00
883.9360, 15612.00
885.0650, 15680.00
886.1940, 15737.00
887.3230, 15698.00
888.4520, 15753.00
889.5800, 15640.00
890.7090, 15700.00
891.8370, 15643.46
892.9650, 15561.00
894.0930, 15620.00
895.2200, 15718.00
896.3480, 15845.00
897.4750, 15801.00
898.6020, 15671.00
899.7290, 15701.00
900.8560, 15766.00
901.9830, 15745.00
903.1090, 15835.00
904.2360, 15916.00
905.3620, 15784.00
906.4880, 15902.00
907.6140, 15846.00
908.7400, 15841.00
909.8650, 15819.00
910.9900, 15916.00
912.1160, 15863.00
913.2410, 16044.00
914.3660, 16017.00
915.4900, 15908.00
916.6150, 16008.00
917.7390, 15962.00
918.8640, 15990.00
919.9880, 16082.00
921.1120, 16211.00
922.2350, 16060.00
923.3590, 16152.00
924.4820, 16133.00
925.6060, 16108.00
926.7290, 16190.00
927.8520, 16149.00
928.9740, 16144.00
930.0970, 16309.00
931.2190, 16241.00
932.3420, 16292.00
933.4640, 16190.00
934.5860, 16326.00
935.7080, 16400.00
936.8290, 16372.00
937.9510, 16238.00
939.0720, 16251.00
940.1930, 16269.12
941.3140, 16223.00
942.4350, 16395.00
943.5560, 16407.00
944.6760, 16494.00
945.7960, 16322.00
946.9170, 16564.00
948.0370, 16535.00
949.1560, 16737.00
950.2760, 16791.00
951.3960, 16709.00
952.5150, 16719.00
953.6340, 16869.00
954.7530, 16798.40
955.8720, 16724.00
956.9910, 16753.00
958.1090, 16898.00
959.2280, 16783.00
960.3460, 17009.00
961.4640, 17078.00
962.5820, 16990.00
963.6990, 17216.00
964.8170, 17046.00
965.9340, 17169.00
967.0510, 17212.00
968.1690, 17215.00
969.2850, 17133.00
970.4020, 17264.00
971.5190, 17233.66
972.6350, 17493.00
973.7510, 17385.00
974.8670, 17596.00
975.9830, 17897.00
977.0990, 17917.00
978.2150, 18056.00
979.3300, 18154.00
980.4450, 18323.00
981.5600, 18467.00
982.6750, 18659.00
983.7900, 18806.00
984.9050, 19112.51
986.0190, 19495.00
987.1340, 19798.00
988.2480, 20230.00
989.3620, 20678.00
990.4750, 21293.00
991.5890, 21989.00
992.7020, 22486.00
993.8160, 23578.00
994.9290, 24289.00
996.0420, 25375.00
997.1550, 26552.00
998.2670, 27738.00
999.3800, 28815.00
1000.492, 30161.00
1001.604, 31878.00
1002.716, 33426.00
1003.828, 34707.00
1004.940, 36374.00
1006.051, 37296.00
1007.163, 38322.00
1008.274, 38902.00
1009.385, 39014.00
1010.496, 38746.00
1011.606, 37824.00
1012.717, 36789.00
1013.827, 36035.00
1014.937, 34626.00
1016.047, 32956.00
1017.157, 31577.00
1018.267, 30059.00
1019.377, 29000.00
1020.486, 27809.00
1021.595, 26885.00
1022.704, 26016.00
1023.813, 25535.00
1024.922, 25066.00
1026.030, 24640.00
1027.139, 24617.00
1028.247, 24680.00
1029.355, 24683.00
1030.463, 24929.00
1031.571, 25049.00
1032.678, 25568.00
1033.786, 26074.00
1034.893, 26815.00
1036.000, 27413.00
1037.107, 27882.00
1038.214, 28769.00
1039.321, 29139.00
1040.427, 29838.66
1041.533, 30558.06
1042.639, 31129.00
1043.745, 31896.00
1044.851, 32644.00
1045.957, 33126.00
1047.062, 33689.00
1048.168, 34216.00
1049.273, 35439.00
1050.378, 36210.00
1051.482, 37468.00
1052.587, 38770.00
1053.692, 40561.00
1054.796, 42412.00
1055.900, 44579.00
1057.004, 47293.00
1058.108, 49112.00
1059.212, 51154.00
1060.315, 52330.00
1061.418, 52613.00
1062.522, 51877.00
1063.625, 50048.00
1064.728, 47467.00
1065.830, 44133.00
1066.933, 40597.00
1068.035, 37053.00
1069.137, 34086.00
1070.239, 31047.00
1071.341, 29001.00
1072.443, 27052.00
1073.545, 25896.00
1074.646, 24548.00
1075.747, 23434.00
1076.848, 22628.00
1077.949, 22219.00
1079.050, 21701.00
1080.150, 21165.00
1081.251, 20883.00
1082.351, 20621.00
1083.451, 20236.00
1084.551, 20210.00
1085.651, 20157.00
1086.750, 19791.00
1087.850, 19956.00
1088.949, 19679.00
1090.048, 19512.00
1091.147, 19570.00
1092.246, 19495.00
1093.345, 19658.00
1094.443, 19670.00
1095.541, 19514.00
1096.639, 19710.00
1097.737, 19709.00
1098.835, 19880.00
1099.933, 20073.00
1101.030, 20137.00
1102.128, 20246.00
1103.225, 20625.00
1104.322, 20487.00
1105.419, 21048.00
1106.515, 21182.00
1107.612, 21338.00
1108.708, 21747.00
1109.804, 21846.00
1110.900, 21900.00
1111.996, 22062.00
1113.092, 22257.00
1114.187, 22143.00
1115.283, 22386.00
1116.378, 22417.00
1117.473, 22645.00
1118.568, 22497.00
1119.662, 22514.00
1120.757, 22487.00
1121.851, 22591.00
1122.946, 22491.00
1124.040, 22316.00
1125.134, 21949.00
1126.227, 22000.00
1127.321, 21788.00
1128.414, 21722.00
1129.508, 21632.00
1130.601, 21395.00
1131.693, 21286.00
1132.786, 20920.00
1133.879, 20853.00
1134.971, 20549.00
1136.064, 20492.00
1137.156, 20063.00
1138.248, 20048.00
1139.339, 19850.00
1140.431, 19694.00
1141.522, 19253.00
1142.614, 19362.00
1143.705, 19006.00
1144.796, 19154.00
1145.887, 18892.00
1146.977, 18961.00
1148.068, 18815.00
1149.158, 18700.00
1150.248, 18836.00
1151.338, 18558.00
1152.428, 18737.00
1153.518, 18679.00
1154.607, 18525.00
1155.696, 18794.00
1156.785, 18488.00
1157.874, 18577.00
1158.963, 18556.00
1160.052, 18471.00
1161.141, 18449.00
1162.229, 18451.15
1163.317, 18516.00
1164.405, 18474.00
1165.493, 18556.00
1166.581, 18557.00
1167.668, 18674.00
1168.756, 18649.00
1169.843, 18659.00
1170.930, 18682.87
1172.017, 18636.00
1173.103, 18681.00
1174.190, 18611.00
1175.276, 18619.00
1176.363, 18786.00
1177.449, 18743.00
1178.535, 18864.00
1179.620, 18767.00
1180.706, 18860.00
1181.791, 18980.00
1182.877, 19018.00
1183.962, 18980.00
1185.047, 19251.00
1186.131, 19122.00
1187.216, 19322.00
1188.300, 19346.00
1189.385, 19452.00
1190.469, 19530.00
1191.553, 19552.00
1192.637, 19848.00
1193.720, 19650.00
1194.804, 19877.00
1195.887, 19794.00
1196.970, 19934.00
1198.053, 19883.00
1199.136, 19846.00
1200.219, 19784.00
1201.301, 19949.00
1202.383, 19947.00
1203.465, 19947.00
1204.547, 19979.00
1205.629, 19891.00
1206.711, 19729.00
1207.792, 19918.00
1208.874, 19834.00
1209.955, 19625.00
1211.036, 19753.00
1212.117, 19605.00
1213.198, 19502.00
1214.278, 19488.00
1215.359, 19474.00
1216.439, 19430.00
1217.519, 19335.00
1218.599, 19333.00
1219.678, 19127.00
1220.758, 19081.00
1221.837, 19080.00
1222.917, 18935.00
1223.996, 18917.00
1225.075, 18712.00
1226.153, 18721.00
1227.232, 18789.00
1228.310, 18823.00
1229.389, 18864.00
1230.467, 18726.00
1231.545, 18656.00
1232.622, 18603.00
1233.700, 18628.00
1234.777, 18699.00
1235.855, 18748.00
1236.932, 18704.00
1238.009, 18723.00
1239.086, 18395.00
1240.162, 18673.00
1241.239, 18546.00
1242.315, 18848.00
1243.391, 18646.00
1244.467, 18580.00
1245.543, 18810.00
1246.619, 18656.00
1247.694, 18710.00
1248.769, 18725.00
1249.844, 18647.00
1250.919, 18665.00
1251.994, 18556.00
1253.069, 18922.00
1254.144, 18534.00
1255.218, 18827.00
1256.292, 18824.00
1257.366, 18737.00
1258.440, 18672.00
1259.514, 18715.00
1260.587, 18767.00
1261.661, 18845.00
1262.734, 18787.00
1263.807, 18846.39
1264.880, 18749.00
1265.952, 18833.00
1267.025, 18780.00
1268.097, 18673.00
1269.170, 18846.00
1270.242, 18889.00
1271.314, 18771.00
1272.385, 18880.00
1273.457, 19003.00
1274.528, 18885.00
1275.600, 18877.00
1276.671, 18867.00
1277.742, 18850.00
1278.812, 18950.00
1279.883, 18896.00
1280.954, 18807.00
1282.024, 18894.00
1283.094, 18994.00
1284.164, 19025.00
1285.234, 18930.00
1286.303, 18898.00
1287.373, 18899.00
1288.442, 18863.00
1289.511, 19003.00
1290.580, 18987.00
1291.649, 19043.00
1292.718, 18922.00
1293.786, 18901.00
1294.855, 18939.65
1295.923, 18964.00
1296.991, 19041.00
1298.059, 18938.00
1299.126, 19036.00
1300.194, 19191.00
1301.261, 19057.00
1302.328, 19184.00
1303.395, 19057.00
1304.462, 19042.00
1305.529, 19165.00
1306.596, 19116.00
1307.662, 19227.00
1308.728, 18965.00
1309.794, 19245.00
1310.860, 19175.00
1311.926, 19088.00
1312.991, 19168.00
1314.057, 19234.00
1315.122, 19091.00
1316.187, 19312.00
1317.252, 19250.00
1318.317, 19383.00
1319.381, 19242.00
1320.446, 19420.00
1321.510, 19112.00
1322.574, 19164.00
1323.638, 19316.00
1324.702, 19444.00
1325.766, 19262.00
1326.829, 19346.00
1327.892, 19150.00
1328.956, 19364.00
1330.019, 19374.00
1331.081, 19307.00
1332.144, 19494.00
1333.206, 19273.00
1334.269, 19323.00
1335.331, 19326.00
1336.393, 19433.00
1337.455, 19378.00
1338.516, 19279.00
1339.578, 19458.00
1340.639, 19240.00
1341.701, 19406.00
1342.762, 19298.00
1343.822, 19489.00
1344.883, 19387.00
1345.944, 19421.00
1347.004, 19377.00
1348.064, 19457.00
1349.124, 19589.00
1350.184, 19382.00
1351.244, 19524.00
1352.304, 19644.00
1353.363, 19309.00
1354.422, 19436.00
1355.481, 19661.00
1356.540, 19458.00
1357.599, 19517.00
1358.657, 19329.00
1359.716, 19552.00
1360.774, 19407.00
1361.832, 19482.00
1362.890, 19575.00
1363.948, 19561.00
1365.006, 19407.00
1366.063, 19522.00
1367.120, 19703.00
1368.178, 19518.00
1369.234, 19614.00
1370.291, 19726.00
1371.348, 19515.00
1372.404, 19591.00
1373.461, 19572.00
1374.517, 19638.00
1375.573, 19614.00
1376.629, 19567.00
1377.684, 19704.00
1378.740, 19607.00
1379.795, 19596.00
1380.850, 19615.00
1381.905, 19592.26
1382.960, 19586.00
1384.015, 19598.00
1385.070, 19574.75
1386.124, 19658.00
1387.178, 19579.00
1388.232, 19607.00
1389.286, 19678.00
1390.340, 19537.00
1391.393, 19721.00
1392.447, 19793.00
1393.500, 19704.00
1394.553, 19828.00
1395.606, 19798.00
1396.659, 19698.00
1397.711, 19553.00
1398.764, 19619.00
1399.816, 19603.03
1400.868, 19813.00
1401.920, 19712.00
1402.972, 19703.00
1404.023, 19713.00
1405.075, 19589.00
1406.126, 19868.00
1407.177, 19863.00
1408.228, 19831.00
1409.279, 19906.00
1410.330, 19803.00
1411.380, 19976.00
1412.431, 19874.00
1413.481, 19848.00
1414.531, 19804.00
1415.580, 19695.00
1416.630, 19873.00
1417.680, 19900.00
1418.729, 19846.00
1419.778, 19995.00
1420.827, 20162.00
1421.876, 20046.00
1422.925, 19859.00
1423.973, 19927.00
1425.022, 19987.00
1426.070, 19984.00
1427.118, 19935.00
1428.166, 19859.00
1429.214, 19979.00
1430.261, 19971.00
1431.309, 20067.00
1432.356, 19958.00
1433.403, 20067.00
1434.450, 19985.00
1435.497, 20014.00
1436.543, 20153.00
1437.590, 20343.00
1438.636, 20077.00
1439.682, 20153.00
1440.728, 20150.00
1441.774, 20072.00
1442.819, 20213.00
1443.865, 20145.00
1444.910, 20133.00
1445.955, 20097.00
1447.000, 20379.00
1448.045, 20342.00
1449.090, 20317.00
1450.134, 20293.00
1451.178, 20280.08
1452.223, 20216.00
1453.267, 20255.00
1454.310, 20239.00
1455.354, 20202.00
1456.398, 20259.00
1457.441, 20308.00
1458.484, 20439.00
1459.527, 20279.00
1460.570, 20296.00
1461.613, 20196.00
1462.655, 20281.00
1463.698, 20160.00
1464.740, 20198.00
1465.782, 20231.00
1466.824, 20158.00
1467.866, 20397.00
1468.907, 20434.00
1469.948, 20140.00
1470.990, 20369.00
1472.031, 20417.00
1473.072, 20280.00
1474.112, 20403.00
1475.153, 20273.00
1476.194, 20488.00
1477.234, 20487.00
1478.274, 20338.00
1479.314, 20347.00
1480.354, 20468.00
1481.393, 20381.00
1482.433, 20225.00
1483.472, 20362.00
1484.511, 20323.00
1485.550, 20306.00
1486.589, 20348.00
1487.628, 20367.00
1488.666, 20413.00
1489.704, 20540.00
1490.743, 20433.00
1491.781, 20385.00
1492.819, 20450.00
1493.856, 20570.00
1494.894, 20575.00
1495.931, 20545.00
1496.968, 20540.00
1498.005, 20535.00
1499.042, 20441.00
1500.079, 20429.00
1501.115, 20569.00
1502.152, 20282.00
1503.188, 20569.00
1504.224, 20651.00
1505.260, 20469.00
1506.296, 20513.00
1507.331, 20495.00
1508.367, 20524.00
1509.402, 20636.00
1510.437, 20572.00
1511.472, 20514.00
1512.507, 20594.00
1513.541, 20643.00
1514.576, 20818.00
1515.610, 20485.00
1516.644, 20541.00
1517.678, 20624.00
1518.712, 20722.00
1519.746, 20727.00
1520.779, 20398.00
1521.813, 20787.00
1522.846, 20604.00
1523.879, 20798.00
1524.912, 20605.00
1525.944, 20750.00
1526.977, 20629.00
1528.009, 20503.00
1529.041, 20515.00
1530.073, 20502.00
1531.105, 20737.00
1532.137, 20683.22
1533.168, 20773.00
1534.200, 20738.00
1535.231, 20718.00
1536.262, 20754.00
1537.293, 20763.00
1538.324, 20740.00
1539.354, 20787.00
1540.385, 20860.00
1541.415, 20794.00
1542.445, 20864.00
1543.475, 20838.00
1544.505, 20633.00
1545.534, 20699.00
1546.564, 20803.00
1547.593, 20792.00
1548.622, 20898.00
1549.651, 20959.00
1550.680, 20962.00
1551.708, 20893.00
1552.737, 20933.00
1553.765, 21183.00
1554.793, 21082.00
1555.821, 21079.00
1556.849, 20894.00
1557.877, 20831.00
1558.904, 21019.00
1559.932, 20983.00
1560.959, 20964.00
1561.986, 21103.00
1563.013, 20911.00
1564.039, 21017.00
1565.066, 20960.00
1566.092, 21142.00
1567.119, 20889.00
1568.145, 20923.00
1569.170, 21064.00
##END=



