##NAMES=Montebrasite
##RRUFFID=R060890
##IDEAL CHEMISTRY=LiAlPO_4_(OH)
##LOCALITY=Mount Marie, Paris, Maine, USA
##OWNER=RRUFF
##SOURCE=Bob Jenkins
##DESCRIPTION=Colorless massive
##STATUS=The identification of this mineral is confirmed by single-crystal X-ray diffraction and chemical analysis.
##URL=rruff.info/R060890
##MEASURED CHEMISTRY=Li_1.00_Al_1.00_(P_1.00_O_4_)(OH)_0.63_F_0.37_)_Î£=1_ ; Li not measured but estimated by stoichiometry
##PIN_ID=M00747
##ORIENTATION=Laser parallel to (0 1 1). Fiducial mark perpendicular to laser is parallel to a [1 0 0]
90.67800, 38189.00
91.91600, 37754.00
93.15500, 36869.00
94.39300, 38051.00
95.63100, 37155.00
96.86900, 36662.00
98.10600, 36954.00
99.34400, 36724.00
100.5810, 35971.00
101.8190, 35280.00
103.0560, 34836.00
104.2930, 34556.00
105.5290, 34376.00
106.7660, 35099.00
108.0020, 35209.00
109.2390, 35095.00
110.4750, 36085.00
111.7110, 34815.00
112.9460, 33732.00
114.1820, 34688.00
115.4170, 34317.00
116.6530, 34688.00
117.8880, 33878.00
119.1230, 33614.00
120.3580, 34011.00
121.5920, 33887.00
122.8270, 34364.00
124.0610, 34469.00
125.2950, 33191.00
126.5290, 33306.00
127.7630, 33670.00
128.9970, 33381.00
130.2300, 34234.00
131.4640, 34152.00
132.6970, 33064.00
133.9300, 33563.00
135.1630, 32852.00
136.3950, 32430.00
137.6280, 32479.00
138.8600, 32835.00
140.0920, 32320.62
141.3240, 32920.00
142.5560, 31803.00
143.7880, 31629.00
145.0190, 31623.00
146.2510, 31504.00
147.4820, 31509.00
148.7130, 30639.00
149.9440, 30539.00
151.1750, 30309.00
152.4050, 30694.00
153.6360, 30661.92
154.8660, 31188.00
156.0960, 31174.00
157.3260, 31629.00
158.5560, 32246.00
159.7850, 31510.00
161.0150, 30969.00
162.2440, 31238.00
163.4730, 32279.00
164.7020, 31930.00
165.9310, 31857.00
167.1590, 31844.00
168.3880, 32151.00
169.6160, 31873.00
170.8440, 31725.00
172.0720, 31549.00
173.3000, 31246.00
174.5280, 30425.00
175.7550, 30482.00
176.9820, 30413.00
178.2100, 29712.00
179.4370, 29863.00
180.6630, 29449.00
181.8900, 28945.00
183.1170, 29329.00
184.3430, 29007.00
185.5690, 29035.00
186.7950, 28617.00
188.0210, 28808.00
189.2470, 28340.00
190.4720, 28569.00
191.6970, 28909.00
192.9230, 27975.00
194.1480, 27593.00
195.3730, 27789.00
196.5970, 27753.00
197.8220, 27823.00
199.0460, 27789.00
200.2700, 27318.00
201.4940, 26572.00
202.7180, 25577.00
203.9420, 25278.00
205.1660, 25597.00
206.3890, 26269.00
207.6120, 25350.00
208.8350, 25067.00
210.0580, 24631.00
211.2810, 24565.00
212.5040, 24561.00
213.7260, 24249.00
214.9480, 24603.00
216.1700, 24043.00
217.3920, 24277.00
218.6140, 24715.00
219.8360, 23865.00
221.0570, 24308.00
222.2790, 24086.00
223.5000, 24266.00
224.7210, 23888.00
225.9410, 23510.00
227.1620, 23918.00
228.3820, 23390.00
229.6030, 23523.00
230.8230, 23228.00
232.0430, 22734.00
233.2630, 23311.00
234.4820, 22751.00
235.7020, 22571.00
236.9210, 22836.00
238.1400, 22900.00
239.3590, 23011.00
240.5780, 23158.00
241.7970, 22848.10
243.0150, 23171.00
244.2340, 22314.00
245.4520, 21927.00
246.6700, 21943.00
247.8880, 22060.00
249.1060, 22084.00
250.3230, 21959.00
251.5400, 21621.00
252.7580, 21314.00
253.9750, 21214.00
255.1920, 21637.00
256.4080, 21680.00
257.6250, 21671.00
258.8410, 21446.00
260.0580, 22017.00
261.2740, 22040.00
262.4900, 22067.00
263.7050, 23022.00
264.9210, 23110.00
266.1360, 22666.00
267.3520, 23121.00
268.5670, 22897.00
269.7820, 23070.00
270.9960, 23150.00
272.2110, 23389.00
273.4250, 23251.00
274.6400, 22992.00
275.8540, 22719.00
277.0680, 22962.00
278.2810, 22569.00
279.4950, 22654.00
280.7090, 22354.00
281.9220, 22151.00
283.1350, 22522.00
284.3480, 22481.00
285.5610, 22782.00
286.7730, 23216.00
287.9860, 24005.89
289.1980, 24531.00
290.4100, 26168.00
291.6220, 27124.00
292.8340, 28483.00
294.0460, 29848.00
295.2570, 31403.00
296.4690, 32589.00
297.6800, 33668.00
298.8910, 35111.00
300.1020, 36365.00
301.3120, 36749.00
302.5230, 36431.00
303.7330, 34948.00
304.9440, 33181.00
306.1540, 32162.00
307.3630, 30361.00
308.5730, 28505.00
309.7830, 26989.00
310.9920, 26189.00
312.2010, 25520.00
313.4100, 24845.00
314.6190, 24209.00
315.8280, 23661.00
317.0370, 22950.00
318.2450, 22374.00
319.4530, 21554.00
320.6610, 21208.00
321.8690, 20555.00
323.0770, 20196.00
324.2850, 20036.00
325.4920, 19621.00
326.6990, 19628.00
327.9060, 19262.00
329.1130, 18826.00
330.3200, 18799.00
331.5270, 18608.00
332.7330, 18599.00
333.9390, 18565.00
335.1450, 18521.00
336.3510, 18330.00
337.5570, 18278.15
338.7630, 18286.00
339.9680, 18055.00
341.1740, 18038.00
342.3790, 17930.00
343.5840, 17980.00
344.7890, 17770.00
345.9930, 17485.00
347.1980, 17664.00
348.4020, 17783.00
349.6060, 17532.00
350.8100, 17337.00
352.0140, 17304.00
353.2180, 17197.00
354.4210, 17455.00
355.6250, 17564.00
356.8280, 17601.00
358.0310, 17394.00
359.2340, 17280.00
360.4360, 17143.00
361.6390, 17203.00
362.8410, 17164.00
364.0430, 17358.00
365.2450, 17364.00
366.4470, 17643.00
367.6490, 17553.00
368.8510, 17599.00
370.0520, 17440.00
371.2530, 17367.00
372.4540, 17354.00
373.6550, 17267.81
374.8560, 17141.00
376.0560, 17163.00
377.2570, 17034.36
378.4570, 17142.00
379.6570, 16888.00
380.8570, 16831.00
382.0570, 16821.00
383.2560, 16671.00
384.4560, 16724.00
385.6550, 16697.04
386.8540, 16682.00
388.0530, 16726.00
389.2520, 16585.00
390.4510, 16575.00
391.6490, 16609.00
392.8470, 16599.00
394.0450, 16866.00
395.2430, 16638.00
396.4410, 16645.00
397.6390, 16649.00
398.8360, 16375.00
400.0340, 16549.00
401.2310, 16588.00
402.4280, 16638.00
403.6250, 16624.00
404.8210, 16271.00
406.0180, 16406.00
407.2140, 16535.00
408.4100, 16410.00
409.6060, 16753.00
410.8020, 16746.00
411.9980, 16997.00
413.1930, 16728.00
414.3890, 17312.00
415.5840, 17796.00
416.7790, 18121.00
417.9740, 18864.00
419.1680, 19439.00
420.3630, 19999.00
421.5570, 20758.00
422.7510, 21136.00
423.9450, 21743.00
425.1390, 22223.00
426.3330, 22513.00
427.5270, 21977.00
428.7200, 21165.00
429.9130, 20064.00
431.1060, 19207.00
432.2990, 18290.00
433.4920, 17803.00
434.6840, 17506.00
435.8770, 17025.00
437.0690, 17096.00
438.2610, 16831.00
439.4530, 16567.00
440.6450, 16296.00
441.8360, 16418.00
443.0280, 16322.00
444.2190, 16367.00
445.4100, 15944.00
446.6010, 16348.00
447.7920, 16070.00
448.9820, 16228.00
450.1730, 16267.97
451.3630, 16309.12
452.5530, 16365.59
453.7430, 16386.63
454.9330, 16388.00
456.1230, 16431.00
457.3120, 16408.00
458.5010, 16416.00
459.6910, 16517.00
460.8800, 16337.00
462.0680, 16460.00
463.2570, 16373.00
464.4460, 16503.00
465.6340, 16526.00
466.8220, 16614.00
468.0100, 16617.00
469.1980, 16773.00
470.3860, 17217.00
471.5730, 17358.00
472.7600, 17695.00
473.9480, 17742.00
475.1350, 17857.00
476.3210, 18242.00
477.5080, 18599.00
478.6950, 18615.00
479.8810, 18897.00
481.0670, 19163.00
482.2530, 19128.00
483.4390, 19179.00
484.6250, 19231.00
485.8100, 19082.00
486.9960, 18996.00
488.1810, 18807.00
489.3660, 18706.07
490.5510, 18611.00
491.7360, 18453.00
492.9200, 18331.00
494.1050, 18176.00
495.2890, 17896.00
496.4730, 17786.00
497.6570, 17439.00
498.8400, 17265.00
500.0240, 17222.00
501.2070, 17243.00
502.3910, 17006.00
503.5740, 16585.00
504.7570, 16462.00
505.9400, 16187.00
507.1220, 16189.00
508.3050, 15901.00
509.4870, 15901.00
510.6690, 15651.00
511.8510, 15795.00
513.0330, 15479.00
514.2140, 15472.00
515.3960, 15459.00
516.5770, 15386.00
517.7580, 15325.00
518.9390, 15284.00
520.1200, 15315.00
521.3010, 15290.00
522.4810, 15187.00
523.6610, 15374.00
524.8420, 15049.00
526.0220, 15225.00
527.2010, 14960.00
528.3810, 15061.00
529.5610, 14971.00
530.7400, 15156.00
531.9190, 14956.00
533.0980, 14912.00
534.2770, 14941.00
535.4560, 14986.00
536.6340, 14840.00
537.8120, 15006.00
538.9910, 14840.00
540.1690, 14986.00
541.3460, 14918.00
542.5240, 15044.00
543.7020, 15178.00
544.8790, 15268.00
546.0560, 15223.21
547.2330, 14974.00
548.4100, 15008.00
549.5870, 15122.00
550.7630, 14917.00
551.9400, 15139.00
553.1160, 15229.00
554.2920, 15152.00
555.4680, 14990.00
556.6440, 15083.00
557.8190, 15036.00
558.9950, 15074.00
560.1700, 15061.00
561.3450, 15208.00
562.5200, 15053.00
563.6950, 15063.00
564.8690, 15178.00
566.0440, 15354.00
567.2180, 15013.00
568.3920, 15095.00
569.5660, 15214.00
570.7400, 15326.00
571.9130, 15053.00
573.0870, 15191.00
574.2600, 15160.00
575.4330, 15210.00
576.6060, 15322.00
577.7790, 15220.00
578.9520, 15247.00
580.1240, 15339.00
581.2960, 15217.00
582.4690, 15494.00
583.6410, 15598.00
584.8120, 15502.00
585.9840, 15841.00
587.1560, 15867.00
588.3270, 16010.00
589.4980, 16344.00
590.6690, 16481.00
591.8400, 16771.00
593.0110, 17082.00
594.1810, 17751.00
595.3510, 18197.00
596.5220, 18957.00
597.6920, 19345.00
598.8610, 20335.00
600.0310, 20388.00
601.2010, 20988.00
602.3700, 21211.00
603.5390, 21530.00
604.7080, 22007.00
605.8770, 20597.00
607.0460, 20072.00
608.2140, 18435.00
609.3830, 18107.00
610.5510, 17617.00
611.7190, 17402.00
612.8870, 17541.00
614.0550, 17219.00
615.2220, 17364.00
616.3900, 17583.00
617.5570, 17510.00
618.7240, 17623.00
619.8910, 18042.00
621.0580, 18270.00
622.2240, 18807.00
623.3910, 19276.00
624.5570, 19915.00
625.7230, 20505.00
626.8890, 21109.00
628.0550, 21447.00
629.2200, 21983.00
630.3860, 22230.59
631.5510, 22412.02
632.7160, 22607.00
633.8810, 22593.00
635.0460, 22622.00
636.2100, 22684.00
637.3750, 23279.00
638.5390, 23607.00
639.7030, 24561.00
640.8670, 25477.00
642.0310, 26450.00
643.1950, 27545.00
644.3580, 28125.00
645.5210, 28807.00
646.6850, 28383.00
647.8480, 27096.00
649.0100, 25377.00
650.1730, 23440.00
651.3350, 21607.00
652.4980, 20265.00
653.6600, 18987.00
654.8220, 18303.00
655.9840, 17571.00
657.1450, 17160.00
658.3070, 16941.00
659.4680, 16452.00
660.6300, 16317.00
661.7910, 16191.00
662.9510, 15975.00
664.1120, 15776.00
665.2730, 15751.00
666.4330, 15723.00
667.5930, 15515.00
668.7530, 15513.00
669.9130, 15469.00
671.0730, 15379.00
672.2320, 15460.00
673.3920, 15343.00
674.5510, 15264.00
675.7100, 15285.00
676.8690, 15353.00
678.0280, 15310.00
679.1860, 15287.00
680.3450, 15364.00
681.5030, 15316.00
682.6610, 15214.00
683.8190, 15259.00
684.9770, 15260.00
686.1340, 15434.00
687.2920, 15158.00
688.4490, 15193.00
689.6060, 15361.00
690.7630, 15132.00
691.9200, 15106.00
693.0760, 15058.00
694.2330, 15165.00
695.3890, 15074.00
696.5450, 15158.00
697.7010, 15247.00
698.8570, 15204.00
700.0130, 15271.00
701.1680, 15220.10
702.3230, 15106.00
703.4780, 15139.00
704.6330, 15118.00
705.7880, 15143.00
706.9430, 15271.00
708.0970, 15398.00
709.2520, 15415.00
710.4060, 15164.00
711.5600, 15318.00
712.7140, 15199.00
713.8670, 15315.00
715.0210, 15431.00
716.1740, 15233.00
717.3270, 15130.00
718.4800, 15274.00
719.6330, 15317.00
720.7860, 15211.00
721.9380, 15383.00
723.0910, 15245.00
724.2430, 15435.00
725.3950, 15281.00
726.5470, 15445.00
727.6980, 15417.00
728.8500, 15347.00
730.0010, 15359.00
731.1530, 15309.00
732.3040, 15330.14
733.4550, 15413.00
734.6050, 15386.00
735.7560, 15446.00
736.9060, 15482.00
738.0560, 15484.00
739.2060, 15528.40
740.3560, 15537.00
741.5060, 15564.95
742.6560, 15582.62
743.8050, 15572.00
744.9540, 15581.00
746.1030, 15627.00
747.2520, 15611.00
748.4010, 15661.00
749.5500, 15550.00
750.6980, 15702.00
751.8460, 15440.00
752.9950, 15607.00
754.1420, 15638.00
755.2900, 15647.00
756.4380, 15681.00
757.5850, 15709.63
758.7330, 15638.00
759.8800, 15769.00
761.0270, 15775.00
762.1730, 15788.00
763.3200, 15695.00
764.4670, 15758.00
765.6130, 15913.00
766.7590, 15838.00
767.9050, 15874.00
769.0510, 15869.00
770.1960, 15910.00
771.3420, 15931.00
772.4870, 16012.00
773.6320, 15965.00
774.7770, 16069.39
775.9220, 16029.00
777.0670, 16191.00
778.2110, 16192.00
779.3560, 16164.00
780.5000, 16173.00
781.6440, 16238.00
782.7880, 16404.00
783.9320, 16530.00
785.0750, 16658.00
786.2180, 16674.00
787.3620, 16869.00
788.5050, 16885.00
789.6480, 17298.00
790.7900, 17334.74
791.9330, 17692.00
793.0750, 17554.00
794.2170, 17836.00
795.3590, 17886.00
796.5010, 18152.00
797.6430, 18262.00
798.7850, 18446.00
799.9260, 18643.14
801.0670, 18811.00
802.2080, 18927.00
803.3490, 18878.00
804.4900, 18822.00
805.6310, 18868.00
806.7710, 18812.00
807.9110, 19000.00
809.0510, 18920.00
810.1910, 18882.00
811.3310, 18773.00
812.4710, 18759.00
813.6100, 18679.00
814.7490, 18675.00
815.8880, 18462.00
817.0270, 18405.00
818.1660, 18318.00
819.3050, 17986.00
820.4430, 18044.00
821.5820, 17952.00
822.7200, 17994.00
823.8580, 17777.00
824.9950, 17612.00
826.1330, 17725.00
827.2710, 17578.00
828.4080, 17369.00
829.5450, 17240.00
830.6820, 17301.00
831.8190, 17084.00
832.9560, 17180.00
834.0920, 17064.00
835.2280, 17110.00
836.3650, 17026.00
837.5010, 16953.00
838.6360, 16793.00
839.7720, 16777.00
840.9080, 16884.00
842.0430, 16786.62
843.1780, 16827.00
844.3130, 16776.00
845.4480, 16708.00
846.5830, 16736.00
847.7170, 16677.33
848.8520, 16860.00
849.9860, 16703.00
851.1200, 16781.00
852.2540, 16976.00
853.3870, 16993.00
854.5210, 16923.00
855.6540, 17084.00
856.7880, 16977.00
857.9210, 16906.00
859.0540, 17098.00
860.1860, 16984.00
861.3190, 16936.00
862.4510, 17056.00
863.5840, 17108.00
864.7160, 17047.00
865.8480, 16904.00
866.9790, 17041.00
868.1110, 17134.00
869.2420, 17174.00
870.3740, 17266.00
871.5050, 17214.00
872.6360, 17199.00
873.7660, 17264.00
874.8970, 17287.00
876.0280, 17182.00
877.1580, 17310.00
878.2880, 17330.00
879.4180, 17247.00
880.5480, 17328.00
881.6770, 17259.00
882.8070, 17295.00
883.9360, 17162.00
885.0650, 17341.00
886.1940, 17256.00
887.3230, 17455.00
888.4520, 17224.00
889.5800, 17336.00
890.7090, 17335.00
891.8370, 17352.00
892.9650, 17395.00
894.0930, 17405.57
895.2200, 17467.00
896.3480, 17478.00
897.4750, 17437.00
898.6020, 17514.00
899.7290, 17524.00
900.8560, 17487.00
901.9830, 17566.00
903.1090, 17631.00
904.2360, 17623.00
905.3620, 17485.00
906.4880, 17753.00
907.6140, 17567.00
908.7400, 17692.00
909.8650, 17655.00
910.9900, 17798.00
912.1160, 17863.00
913.2410, 17849.00
914.3660, 17589.00
915.4900, 17902.00
916.6150, 17883.00
917.7390, 17615.00
918.8640, 17973.00
919.9880, 17986.00
921.1120, 18035.00
922.2350, 17851.00
923.3590, 17880.00
924.4820, 17938.00
925.6060, 17924.00
926.7290, 17853.00
927.8520, 17940.00
928.9740, 18110.00
930.0970, 18042.00
931.2190, 18287.00
932.3420, 18169.21
933.4640, 18260.00
934.5860, 18045.00
935.7080, 18146.00
936.8290, 18209.00
937.9510, 18244.00
939.0720, 18224.00
940.1930, 18403.00
941.3140, 18187.00
942.4350, 18361.31
943.5560, 18314.62
944.6760, 18568.00
945.7960, 18344.00
946.9170, 18461.00
948.0370, 18603.00
949.1560, 18408.00
950.2760, 18646.00
951.3960, 18442.00
952.5150, 18638.00
953.6340, 18679.00
954.7530, 18504.00
955.8720, 18802.00
956.9910, 18891.00
958.1090, 18773.00
959.2280, 18785.00
960.3460, 18893.00
961.4640, 19052.00
962.5820, 19009.00
963.6990, 19288.00
964.8170, 19265.00
965.9340, 19303.00
967.0510, 19236.00
968.1690, 19314.38
969.2850, 19519.00
970.4020, 19481.00
971.5190, 19536.00
972.6350, 19697.00
973.7510, 19603.00
974.8670, 19861.00
975.9830, 19915.00
977.0990, 20138.00
978.2150, 20213.00
979.3300, 20440.00
980.4450, 20630.00
981.5600, 20628.00
982.6750, 20975.00
983.7900, 21304.00
984.9050, 21481.00
986.0190, 22030.00
987.1340, 22279.00
988.2480, 22780.00
989.3620, 23348.00
990.4750, 24118.00
991.5890, 24845.58
992.7020, 25549.00
993.8160, 26681.00
994.9290, 27720.00
996.0420, 28966.00
997.1550, 30029.00
998.2670, 31800.00
999.3800, 33384.00
1000.492, 35149.00
1001.604, 37334.00
1002.716, 39100.00
1003.828, 41403.00
1004.940, 43482.00
1006.051, 45056.00
1007.163, 46871.00
1008.274, 48087.00
1009.385, 48973.00
1010.496, 48911.00
1011.606, 48353.00
1012.717, 47389.00
1013.827, 45494.00
1014.937, 43600.00
1016.047, 41575.00
1017.157, 39510.00
1018.267, 37338.00
1019.377, 35258.00
1020.486, 33346.00
1021.595, 32151.00
1022.704, 30399.00
1023.813, 29388.00
1024.922, 28341.00
1026.030, 27902.00
1027.139, 27301.00
1028.247, 26861.00
1029.355, 26560.00
1030.463, 26197.00
1031.571, 26341.00
1032.678, 26468.00
1033.786, 26273.00
1034.893, 26606.00
1036.000, 26939.00
1037.107, 27379.00
1038.214, 27758.00
1039.321, 27939.00
1040.427, 28464.00
1041.533, 28886.00
1042.639, 29363.00
1043.745, 29896.00
1044.851, 30380.00
1045.957, 30861.00
1047.062, 32499.00
1048.168, 33591.00
1049.273, 33468.00
1050.378, 33652.00
1051.482, 34684.00
1052.587, 36195.00
1053.692, 37830.00
1054.796, 39659.00
1055.900, 41956.00
1057.004, 44193.00
1058.108, 46444.00
1059.212, 48139.00
1060.315, 49895.00
1061.418, 50485.00
1062.522, 49834.00
1063.625, 48548.00
1064.728, 46187.00
1065.830, 43150.00
1066.933, 40157.00
1068.035, 36694.00
1069.137, 33778.00
1070.239, 31342.00
1071.341, 29449.00
1072.443, 27768.00
1073.545, 26573.00
1074.646, 25655.00
1075.747, 24856.00
1076.848, 24301.00
1077.949, 23864.00
1079.050, 23354.00
1080.150, 23130.00
1081.251, 22805.00
1082.351, 22586.00
1083.451, 22406.00
1084.551, 22366.00
1085.651, 22245.00
1086.750, 22196.00
1087.850, 22481.00
1088.949, 22018.00
1090.048, 22050.00
1091.147, 21744.00
1092.246, 21889.00
1093.345, 21815.00
1094.443, 21829.00
1095.541, 21761.00
1096.639, 21857.00
1097.737, 22013.00
1098.835, 22194.00
1099.933, 22244.00
1101.030, 22480.30
1102.128, 22402.00
1103.225, 22792.00
1104.322, 22969.00
1105.419, 22920.00
1106.515, 23372.00
1107.612, 23532.00
1108.708, 23871.00
1109.804, 24032.00
1110.900, 24088.00
1111.996, 23990.00
1113.092, 24346.00
1114.187, 24247.00
1115.283, 24352.00
1116.378, 24294.00
1117.473, 24217.00
1118.568, 24212.00
1119.662, 24177.00
1120.757, 24110.00
1121.851, 24072.23
1122.946, 24069.00
1124.040, 23887.00
1125.134, 23809.00
1126.227, 23575.00
1127.321, 23673.00
1128.414, 23305.00
1129.508, 23200.00
1130.601, 23191.00
1131.693, 22901.35
1132.786, 22928.00
1133.879, 22642.00
1134.971, 22489.00
1136.064, 22620.00
1137.156, 22341.00
1138.248, 22174.00
1139.339, 22081.00
1140.431, 22023.00
1141.522, 22065.00
1142.614, 21881.00
1143.705, 21956.00
1144.796, 21732.00
1145.887, 21715.00
1146.977, 21851.00
1148.068, 21688.00
1149.158, 21649.00
1150.248, 21708.00
1151.338, 21760.00
1152.428, 21760.00
1153.518, 21680.00
1154.607, 21703.00
1155.696, 21686.00
1156.785, 21697.31
1157.874, 21720.00
1158.963, 21746.00
1160.052, 21766.00
1161.141, 21768.00
1162.229, 21554.00
1163.317, 21644.00
1164.405, 21811.00
1165.493, 21881.00
1166.581, 21630.00
1167.668, 21686.00
1168.756, 21730.00
1169.843, 21773.00
1170.930, 21721.00
1172.017, 21951.00
1173.103, 21909.00
1174.190, 21723.00
1175.276, 21917.00
1176.363, 21886.00
1177.449, 21903.00
1178.535, 21957.00
1179.620, 22030.00
1180.706, 22048.00
1181.791, 22219.00
1182.877, 22223.00
1183.962, 22180.00
1185.047, 22235.00
1186.131, 22433.00
1187.216, 22639.00
1188.300, 22659.00
1189.385, 22719.00
1190.469, 22862.00
1191.553, 23045.00
1192.637, 22797.00
1193.720, 22931.00
1194.804, 22992.00
1195.887, 22871.00
1196.970, 22967.00
1198.053, 23118.00
1199.136, 22952.00
1200.219, 23198.00
1201.301, 23160.00
1202.383, 23135.00
1203.465, 23099.00
1204.547, 22990.00
1205.629, 23106.00
1206.711, 22944.00
1207.792, 23063.00
1208.874, 23037.00
1209.955, 22829.00
1211.036, 22862.00
1212.117, 22761.00
1213.198, 22551.00
1214.278, 22620.00
1215.359, 22648.00
1216.439, 22483.00
1217.519, 22472.00
1218.599, 22518.00
1219.678, 22587.00
1220.758, 22577.43
1221.837, 22563.95
1222.917, 22524.00
1223.996, 22474.00
1225.075, 22281.00
1226.153, 22225.00
1227.232, 22675.00
1228.310, 22293.00
1229.389, 22211.00
1230.467, 22582.00
1231.545, 22333.00
1232.622, 22353.00
1233.700, 22368.00
1234.777, 22410.00
1235.855, 22457.00
1236.932, 22396.00
1238.009, 22627.00
1239.086, 22336.00
1240.162, 22586.00
1241.239, 22476.00
1242.315, 22193.00
1243.391, 22548.00
1244.467, 22265.00
1245.543, 22527.00
1246.619, 22490.00
1247.694, 22475.00
1248.769, 22667.00
1249.844, 22501.00
1250.919, 22445.00
1251.994, 22426.00
1253.069, 22469.00
1254.144, 22545.00
1255.218, 22552.31
1256.292, 22622.00
1257.366, 22587.00
1258.440, 22708.00
1259.514, 22654.00
1260.587, 22717.00
1261.661, 22700.00
1262.734, 22702.96
1263.807, 22758.00
1264.880, 22725.00
1265.952, 22661.00
1267.025, 22693.00
1268.097, 22847.00
1269.170, 22744.00
1270.242, 22816.00
1271.314, 22801.00
1272.385, 22775.00
1273.457, 22783.33
1274.528, 22803.47
1275.600, 22839.74
1276.671, 22895.00
1277.742, 22945.00
1278.812, 22985.21
1279.883, 23081.00
1280.954, 23075.00
1282.024, 23137.07
1283.094, 23193.00
1284.164, 23158.00
1285.234, 23115.00
1286.303, 23037.00
1287.373, 23097.65
1288.442, 23126.97
1289.511, 23178.00
1290.580, 23233.86
1291.649, 23262.00
1292.718, 23340.00
1293.786, 23373.00
1294.855, 23408.00
1295.923, 23429.00
1296.991, 23566.00
1298.059, 23454.00
1299.126, 23649.00
1300.194, 23703.00
1301.261, 23585.00
1302.328, 23609.00
1303.395, 23684.00
1304.462, 23533.00
1305.529, 23614.00
1306.596, 23629.37
1307.662, 23480.00
1308.728, 23683.00
1309.794, 23676.00
1310.860, 23612.00
1311.926, 23673.00
1312.991, 23663.00
1314.057, 23747.00
1315.122, 23705.00
1316.187, 23669.00
1317.252, 23676.00
1318.317, 23736.00
1319.381, 23762.00
1320.446, 23839.00
1321.510, 23801.00
1322.574, 23845.00
1323.638, 23900.00
1324.702, 23963.00
1325.766, 24033.00
1326.829, 23978.00
1327.892, 23963.00
1328.956, 23907.00
1330.019, 24017.00
1331.081, 23981.00
1332.144, 24103.00
1333.206, 24033.00
1334.269, 23940.00
1335.331, 24093.00
1336.393, 23985.00
1337.455, 24018.00
1338.516, 24096.00
1339.578, 23893.00
1340.639, 24005.07
1341.701, 24163.00
1342.762, 24091.00
1343.822, 24171.00
1344.883, 24285.00
1345.944, 24300.00
1347.004, 24343.00
1348.064, 24154.00
1349.124, 24311.00
1350.184, 24156.00
1351.244, 24203.00
1352.304, 24221.00
1353.363, 24337.00
1354.422, 24216.00
1355.481, 24400.00
1356.540, 24232.00
1357.599, 24377.00
1358.657, 24340.00
1359.716, 24332.00
1360.774, 24301.00
1361.832, 24398.00
1362.890, 24423.00
1363.948, 24457.00
1365.006, 24471.00
1366.063, 24480.54
1367.120, 24461.00
1368.178, 24471.00
1369.234, 24473.00
1370.291, 24439.00
1371.348, 24442.00
1372.404, 24462.72
1373.461, 24527.00
1374.517, 24519.00
1375.573, 24500.00
1376.629, 24518.87
1377.684, 24439.00
1378.740, 24609.00
1379.795, 24568.00
1380.850, 24595.00
1381.905, 24491.00
1382.960, 24603.18
1384.015, 24728.00
1385.070, 24795.00
1386.124, 24838.00
1387.178, 24924.00
1388.232, 24538.00
1389.286, 24764.00
1390.340, 24570.00
1391.393, 24591.00
1392.447, 24740.00
1393.500, 24961.00
1394.553, 24890.00
1395.606, 24760.00
1396.659, 24780.00
1397.711, 24756.00
1398.764, 24881.00
1399.816, 24876.00
1400.868, 24862.00
1401.920, 25050.00
1402.972, 24888.00
1404.023, 24872.00
1405.075, 24883.00
1406.126, 24941.00
1407.177, 24919.00
1408.228, 25082.00
1409.279, 24992.00
1410.330, 25155.00
1411.380, 24980.00
1412.431, 25153.00
1413.481, 25086.00
1414.531, 24946.00
1415.580, 25084.00
1416.630, 25121.06
1417.680, 25155.97
1418.729, 25307.00
1419.778, 25314.00
1420.827, 25203.00
1421.876, 25274.00
1422.925, 25310.00
1423.973, 25430.00
1425.022, 25501.00
1426.070, 25353.00
1427.118, 25562.00
1428.166, 25429.00
1429.214, 25592.00
1430.261, 25670.00
1431.309, 25701.00
1432.356, 25889.00
1433.403, 25706.00
1434.450, 25679.00
1435.497, 25707.00
1436.543, 25857.38
1437.590, 26135.00
1438.636, 26202.00
1439.682, 26327.00
1440.728, 26177.00
1441.774, 25991.00
1442.819, 26122.00
1443.865, 26229.00
1444.910, 26223.00
1445.955, 26299.00
1447.000, 26281.00
1448.045, 26263.82
1449.090, 26309.99
1450.134, 26312.44
1451.178, 26338.00
1452.223, 26358.00
1453.267, 26332.00
1454.310, 26325.00
1455.354, 26491.00
1456.398, 26256.00
1457.441, 26386.00
1458.484, 26275.00
1459.527, 26108.00
1460.570, 26180.00
1461.613, 26190.00
1462.655, 26431.00
1463.698, 26242.00
1464.740, 26164.00
1465.782, 26231.00
1466.824, 26084.00
1467.866, 26287.00
1468.907, 26125.00
1469.948, 26244.00
1470.990, 26151.00
1472.031, 26140.00
1473.072, 26233.00
1474.112, 26107.00
1475.153, 26002.00
1476.194, 26159.00
1477.234, 26203.00
1478.274, 26092.00
1479.314, 26233.00
1480.354, 26389.00
1481.393, 26205.00
1482.433, 26177.00
1483.472, 26388.00
1484.511, 26089.00
1485.550, 26377.00
1486.589, 26302.00
1487.628, 26259.00
1488.666, 26441.00
1489.704, 26486.00
1490.743, 26340.00
1491.781, 26429.00
1492.819, 26463.00
1493.856, 26416.00
1494.894, 26496.43
1495.931, 26515.00
1496.968, 26560.00
1498.005, 26632.00
1499.042, 26640.00
1500.079, 26847.00
1501.115, 26475.00
1502.152, 26756.00
1503.188, 26617.00
1504.224, 26781.00
1505.260, 26747.00
1506.296, 26759.77
1507.331, 26927.00
1508.367, 26759.00
1509.402, 26904.00
1510.437, 26820.90
1511.472, 26804.25
1512.507, 26888.00
1513.541, 26815.00
1514.576, 26786.00
1515.610, 26887.00
1516.644, 26863.00
1517.678, 26981.00
1518.712, 26940.00
1519.746, 26843.00
1520.779, 26905.00
1521.813, 26935.00
1522.846, 26991.00
1523.879, 27140.00
1524.912, 27023.00
1525.944, 27025.00
1526.977, 27182.00
1528.009, 27140.00
1529.041, 27187.00
1530.073, 27119.00
1531.105, 27018.00
1532.137, 27027.00
1533.168, 27042.00
1534.200, 27026.28
1535.231, 27010.89
1536.262, 27070.00
1537.293, 27000.00
1538.324, 27022.00
1539.354, 27120.00
1540.385, 27104.00
1541.415, 27141.00
1542.445, 27354.00
1543.475, 27342.00
1544.505, 27195.00
1545.534, 27413.00
1546.564, 27234.00
1547.593, 27196.00
1548.622, 27299.00
1549.651, 27283.00
1550.680, 27567.00
1551.708, 27447.00
1552.737, 27558.00
1553.765, 27681.00
1554.793, 27592.00
1555.821, 27653.00
1556.849, 27437.00
1557.877, 27290.00
1558.904, 27515.00
1559.932, 27575.00
1560.959, 27549.00
1561.986, 27674.54
1563.013, 27567.00
1564.039, 27747.00
1565.066, 27747.00
1566.092, 27733.00
1567.119, 27748.00
1568.145, 27658.00
1569.170, 27777.00
1570.196, 27550.00
1571.222, 27854.00
1572.247, 27724.00
1573.272, 27782.00
1574.297, 27909.00
1575.322, 27966.00
1576.347, 28014.00
##END=



