##NAMES=Natrolite
##RRUFFID=R060561
##IDEAL CHEMISTRY=Na_2_(Si_3_Al_2_)O_10_&#183;2H_2_O
##LOCALITY=California, USA
##OWNER=RRUFF
##SOURCE=Gemological Institute of America
##DESCRIPTION=White fragment
##STATUS=The identification of this mineral has been confirmed by X-ray diffraction and chemical analysis
##URL=rruff.info/R060561
##MEASURED CHEMISTRY=Na_2.00_(Si_3.00_Al_2.00_)O_10_Â·2H_2_O
##PIN_ID=L00681
##ORIENTATION=Laser parallel to a* (1 0 0). Fiducial mark perpendicular to laser is parallel to -b [0 -1 0]
90.94300, 1205.000
92.17800, 1165.000
93.41300, 1219.000
94.64800, 1253.000
95.88300, 1324.000
97.11800, 1410.000
98.35200, 1497.083
99.58700, 1590.000
100.8210, 1743.000
102.0550, 1894.000
103.2890, 2089.000
104.5220, 2360.000
105.7560, 2786.000
106.9890, 3206.000
108.2230, 3726.000
109.4560, 4335.457
110.6890, 4917.000
111.9210, 5713.000
113.1540, 6419.000
114.3870, 7198.000
115.6190, 7851.000
116.8510, 8464.000
118.0830, 9229.000
119.3150, 10412.00
120.5470, 11737.00
121.7780, 13004.00
123.0100, 13513.00
124.2410, 13441.00
125.4720, 13094.00
126.7030, 12862.00
127.9340, 12937.00
129.1640, 13188.00
130.3950, 13718.00
131.6250, 14396.00
132.8550, 15034.00
134.0850, 15936.00
135.3150, 16931.00
136.5450, 17913.00
137.7750, 18692.00
139.0040, 19633.00
140.2330, 20739.00
141.4620, 22064.00
142.6910, 23389.00
143.9200, 24600.00
145.1490, 25483.00
146.3770, 25621.00
147.6060, 25122.00
148.8340, 24399.00
150.0620, 23571.00
151.2900, 23134.00
152.5170, 22798.00
153.7450, 23195.00
154.9720, 23615.00
156.2000, 24724.00
157.4270, 25928.00
158.6540, 27661.00
159.8810, 29796.00
161.1070, 31815.00
162.3340, 34668.00
163.5600, 36466.00
164.7860, 37547.00
166.0120, 37477.00
167.2380, 35789.00
168.4640, 33780.00
169.6890, 31751.00
170.9150, 29776.00
172.1400, 28407.00
173.3650, 27720.00
174.5900, 26881.00
175.8150, 26041.00
177.0400, 25078.00
178.2640, 24282.00
179.4880, 23441.00
180.7130, 23176.00
181.9370, 22921.00
183.1600, 23062.00
184.3840, 23493.00
185.6080, 23928.00
186.8310, 24029.00
188.0540, 24066.00
189.2770, 23653.00
190.5000, 23114.00
191.7230, 22409.00
192.9460, 22025.00
194.1680, 21656.00
195.3910, 21700.00
196.6130, 21712.00
197.8350, 22081.00
199.0570, 22543.00
200.2780, 22878.00
201.5000, 23628.00
202.7210, 24317.00
203.9420, 24824.00
205.1640, 25323.00
206.3840, 25950.00
207.6050, 26523.00
208.8260, 26864.00
210.0460, 26317.00
211.2670, 25835.00
212.4870, 25158.00
213.7070, 23915.00
214.9270, 23086.00
216.1460, 22197.00
217.3660, 21581.00
218.5850, 21033.00
219.8050, 20793.00
221.0240, 20077.00
222.2430, 19863.00
223.4610, 19583.00
224.6800, 19146.00
225.8980, 18989.00
227.1170, 18872.00
228.3350, 18823.00
229.5530, 18799.00
230.7710, 18949.00
231.9880, 19138.00
233.2060, 19345.00
234.4230, 19829.00
235.6400, 19940.00
236.8570, 20181.00
238.0740, 20771.00
239.2910, 21340.00
240.5080, 21810.00
241.7240, 22196.00
242.9400, 21958.00
244.1570, 21869.00
245.3730, 20892.00
246.5880, 20405.00
247.8040, 19821.00
249.0190, 19216.00
250.2350, 18925.00
251.4500, 18813.00
252.6650, 18501.00
253.8800, 18776.00
255.0950, 18737.00
256.3090, 18588.00
257.5240, 18848.00
258.7380, 18815.00
259.9520, 19033.00
261.1660, 19295.00
262.3800, 19373.00
263.5930, 19601.00
264.8070, 19819.00
266.0200, 20067.00
267.2330, 20267.08
268.4460, 20487.15
269.6590, 20683.00
270.8720, 20781.00
272.0850, 20826.83
273.2970, 20872.00
274.5090, 20780.00
275.7210, 20597.00
276.9330, 20534.00
278.1450, 20047.00
279.3570, 20193.00
280.5680, 19667.00
281.7790, 19571.00
282.9910, 19542.00
284.2020, 19415.00
285.4120, 19454.55
286.6230, 19710.00
287.8340, 19600.00
289.0440, 19714.00
290.2540, 19958.00
291.4640, 19875.00
292.6740, 19930.00
293.8840, 20192.00
295.0940, 20528.00
296.3030, 20713.00
297.5120, 21198.00
298.7210, 21535.00
299.9300, 22175.00
301.1390, 22615.91
302.3480, 23199.63
303.5560, 23666.00
304.7650, 24158.00
305.9730, 24716.00
307.1810, 24657.00
308.3890, 24573.00
309.5970, 23780.00
310.8040, 22659.00
312.0120, 22008.00
313.2190, 21058.00
314.4260, 20790.00
315.6330, 20398.00
316.8400, 20281.00
318.0460, 20153.77
319.2530, 20251.00
320.4590, 20165.00
321.6650, 20295.00
322.8710, 20481.00
324.0770, 20508.00
325.2830, 20491.00
326.4880, 20790.00
327.6940, 20812.00
328.8990, 21005.00
330.1040, 21120.00
331.3090, 21103.00
332.5140, 21133.00
333.7180, 21317.00
334.9230, 21145.00
336.1270, 21133.00
337.3310, 20722.00
338.5350, 20729.00
339.7390, 20763.00
340.9430, 20770.00
342.1460, 20619.00
343.3500, 20678.00
344.5530, 20901.00
345.7560, 20808.00
346.9590, 21182.00
348.1620, 21039.00
349.3640, 21295.00
350.5670, 21293.00
351.7690, 21685.00
352.9710, 22038.00
354.1730, 22120.00
355.3750, 22260.00
356.5760, 22663.00
357.7780, 23056.00
358.9790, 22695.00
360.1800, 23242.00
361.3810, 23190.00
362.5820, 23402.00
363.7830, 23262.83
364.9830, 22539.00
366.1840, 22768.00
367.3840, 21924.00
368.5840, 21647.00
369.7840, 21339.00
370.9840, 21188.00
372.1830, 21202.00
373.3830, 21065.00
374.5820, 20951.00
375.7810, 21174.00
376.9800, 20993.00
378.1790, 21012.00
379.3780, 21100.00
380.5760, 21102.00
381.7750, 21227.00
382.9730, 21130.00
384.1710, 21275.00
385.3690, 21168.00
386.5660, 21039.00
387.7640, 21232.00
388.9610, 21314.00
390.1590, 21266.00
391.3560, 21434.00
392.5530, 21457.00
393.7500, 21352.00
394.9460, 21436.00
396.1430, 21485.00
397.3390, 21478.00
398.5350, 21612.00
399.7310, 21850.00
400.9270, 21989.00
402.1230, 21953.00
403.3180, 22150.00
404.5140, 22246.00
405.7090, 22277.00
406.9040, 22490.00
408.0990, 22598.97
409.2930, 22826.00
410.4880, 22907.00
411.6820, 23131.00
412.8770, 23245.00
414.0710, 23261.00
415.2650, 23646.00
416.4590, 23471.00
417.6520, 23731.00
418.8460, 23921.00
420.0390, 24218.00
421.2320, 24607.00
422.4250, 25104.00
423.6180, 25693.00
424.8110, 26403.00
426.0030, 27323.00
427.1960, 28343.00
428.3880, 29515.00
429.5800, 30653.00
430.7720, 32162.00
431.9640, 33618.00
433.1550, 35261.00
434.3470, 36449.00
435.5380, 37690.00
436.7290, 38459.00
437.9200, 38886.00
439.1110, 39093.00
440.3020, 39263.00
441.4920, 39559.00
442.6820, 39687.00
443.8730, 40573.00
445.0630, 41248.00
446.2530, 41461.00
447.4420, 41202.00
448.6320, 40695.00
449.8210, 38848.00
451.0100, 36486.00
452.2000, 34232.00
453.3880, 31760.00
454.5770, 30045.00
455.7660, 28240.00
456.9540, 27196.00
458.1430, 26543.00
459.3310, 26287.00
460.5190, 25148.00
461.7070, 24916.00
462.8940, 24848.00
464.0820, 24687.00
465.2690, 24628.00
466.4560, 24453.00
467.6430, 24296.00
468.8300, 24225.00
470.0170, 24397.00
471.2040, 24283.00
472.3900, 24340.00
473.5760, 24764.00
474.7620, 24622.00
475.9480, 24679.00
477.1340, 24686.00
478.3200, 25003.00
479.5050, 25175.00
480.6900, 25298.00
481.8750, 25426.00
483.0600, 25748.00
484.2450, 26145.00
485.4300, 26371.00
486.6140, 26671.00
487.7990, 27109.00
488.9830, 27279.00
490.1670, 27717.00
491.3510, 28173.00
492.5350, 28583.00
493.7180, 28572.00
494.9020, 28569.00
496.0850, 28592.00
497.2680, 28455.40
498.4510, 28339.00
499.6340, 28158.00
500.8160, 28062.00
501.9990, 27885.00
503.1810, 27889.00
504.3630, 27903.00
505.5450, 27995.00
506.7270, 27684.00
507.9090, 27824.00
509.0900, 28062.00
510.2720, 28060.00
511.4530, 28405.00
512.6340, 28765.00
513.8150, 28898.00
514.9950, 29032.00
516.1760, 29586.00
517.3560, 29832.00
518.5370, 30732.00
519.7170, 31325.00
520.8970, 32377.00
522.0770, 33484.00
523.2560, 35094.15
524.4360, 36966.62
525.6150, 39092.00
526.7940, 41647.00
527.9730, 44325.00
529.1520, 47420.00
530.3310, 51090.00
531.5090, 54215.00
532.6870, 56379.00
533.8660, 57391.00
535.0440, 56022.00
536.2210, 53051.00
537.3990, 49049.00
538.5770, 44601.00
539.7540, 40964.00
540.9310, 37485.00
542.1080, 35262.00
543.2850, 33188.00
544.4620, 31961.00
545.6390, 30778.00
546.8150, 29803.00
547.9920, 29079.52
549.1680, 28944.00
550.3440, 28167.00
551.5190, 28049.00
552.6950, 28134.00
553.8710, 27719.00
555.0460, 27445.00
556.2210, 27716.00
557.3960, 27263.09
558.5710, 27115.00
559.7460, 26957.00
560.9200, 26658.00
562.0950, 26815.00
563.2690, 26753.00
564.4430, 26659.00
565.6170, 26889.00
566.7910, 26634.00
567.9640, 26625.00
569.1380, 26741.00
570.3110, 26766.00
571.4840, 26631.00
572.6570, 26682.00
573.8300, 26686.00
575.0030, 26503.00
576.1750, 26871.00
577.3470, 26677.00
578.5200, 26866.00
579.6920, 26653.00
580.8630, 26788.00
582.0350, 26737.00
583.2070, 26889.00
584.3780, 26865.00
585.5490, 26942.00
586.7200, 27226.00
587.8910, 27051.00
589.0620, 27272.00
590.2330, 27351.00
591.4030, 27209.00
592.5730, 27031.00
593.7430, 27224.00
594.9130, 27316.00
596.0830, 27484.00
597.2530, 27563.00
598.4220, 27422.00
599.5920, 27660.00
600.7610, 27707.00
601.9300, 27637.00
603.0990, 27358.00
604.2670, 27493.00
605.4360, 27348.00
606.6040, 27165.00
607.7720, 27404.00
608.9400, 27120.00
610.1080, 27377.00
611.2760, 27346.00
612.4440, 27446.00
613.6110, 27159.00
614.7780, 27127.00
615.9450, 27424.00
617.1120, 27197.00
618.2790, 27283.00
619.4460, 27208.00
620.6120, 27491.00
621.7780, 27506.00
622.9450, 27398.00
624.1110, 27589.00
625.2760, 27526.00
626.4420, 27564.00
627.6080, 27571.00
628.7730, 27355.00
629.9380, 27623.00
631.1030, 27457.00
632.2680, 27690.00
633.4330, 27651.00
634.5970, 27782.00
635.7620, 27722.00
636.9260, 27582.00
638.0900, 27781.00
639.2540, 27731.00
640.4180, 27924.00
641.5810, 27744.00
642.7450, 27666.00
643.9080, 27942.00
645.0710, 28075.00
646.2340, 27761.00
647.3970, 27944.00
648.5590, 28048.00
649.7220, 27992.00
650.8840, 28055.00
652.0460, 28258.00
653.2080, 28277.00
654.3700, 28220.00
655.5320, 28115.00
656.6930, 28362.00
657.8550, 28296.00
659.0160, 28361.00
660.1770, 28527.00
661.3380, 28502.00
662.4990, 28563.00
663.6590, 28345.00
664.8200, 28575.00
665.9800, 28840.00
667.1400, 28665.00
668.3000, 28564.00
669.4600, 28677.00
670.6190, 28903.00
671.7790, 28750.00
672.9380, 28912.00
674.0970, 28772.00
675.2560, 29214.00
676.4150, 28907.00
677.5740, 29167.00
678.7320, 29220.00
679.8900, 29160.00
681.0490, 29222.00
682.2070, 29266.00
683.3640, 29336.00
684.5220, 29429.00
685.6800, 29501.00
686.8370, 29734.00
687.9940, 29943.00
689.1510, 30097.00
690.3080, 30077.00
691.4650, 30373.00
692.6220, 30413.00
693.7780, 30635.00
694.9340, 30821.00
696.0900, 31074.00
697.2460, 31302.14
698.4020, 31574.00
699.5580, 31754.00
700.7130, 31989.00
701.8680, 32126.81
703.0240, 32392.00
704.1790, 32490.00
705.3330, 32461.00
706.4880, 32599.00
707.6430, 32580.00
708.7970, 32325.00
709.9510, 32423.00
711.1050, 32012.00
712.2590, 31853.00
713.4130, 31881.00
714.5660, 31621.00
715.7200, 31696.00
716.8730, 31681.00
718.0260, 31768.00
719.1790, 31854.07
720.3320, 31790.00
721.4840, 31985.00
722.6370, 32172.00
723.7890, 32068.00
724.9410, 32313.00
726.0930, 31993.00
727.2450, 32108.00
728.3960, 32311.00
729.5480, 32131.00
730.6990, 31949.00
731.8500, 31737.00
733.0010, 31579.00
734.1520, 31435.00
735.3030, 31149.00
736.4530, 31082.00
737.6040, 30997.00
738.7540, 30711.00
739.9040, 30768.00
741.0540, 30795.00
742.2030, 30682.00
743.3530, 30623.84
744.5020, 30455.00
745.6520, 30397.00
746.8010, 30732.00
747.9490, 30732.00
749.0980, 30648.00
750.2470, 30604.00
751.3950, 30635.00
752.5440, 30619.00
753.6920, 30717.00
754.8400, 30961.00
755.9870, 30689.00
757.1350, 30899.00
758.2820, 30851.00
759.4300, 30698.00
760.5770, 30818.00
761.7240, 30890.00
762.8710, 30731.00
764.0170, 30922.00
765.1640, 30927.00
766.3100, 31091.00
767.4560, 31106.30
768.6020, 30995.00
769.7480, 31058.00
770.8940, 30944.00
772.0400, 30748.00
773.1850, 31087.00
774.3300, 31076.00
775.4750, 31213.00
776.6200, 31024.00
777.7650, 31441.00
778.9090, 31119.00
780.0540, 31262.00
781.1980, 31206.00
782.3420, 31473.00
783.4860, 31406.00
784.6300, 31376.00
785.7740, 31280.00
786.9170, 31533.00
788.0600, 31598.00
789.2030, 31723.00
790.3460, 31623.00
791.4890, 31742.95
792.6320, 31553.00
793.7740, 31863.00
794.9170, 31765.00
796.0590, 31829.00
797.2010, 31986.00
798.3430, 31841.00
799.4850, 31726.00
800.6260, 31742.00
801.7670, 32211.00
802.9090, 31854.00
804.0500, 32186.00
805.1910, 31991.00
806.3310, 32290.00
807.4720, 32273.00
808.6120, 32070.00
809.7530, 32114.00
810.8930, 32090.00
812.0330, 32195.00
813.1720, 32288.00
814.3120, 32336.00
815.4510, 32612.00
816.5910, 32368.00
817.7300, 32381.00
818.8690, 32636.00
820.0080, 32356.00
821.1460, 32457.00
822.2850, 32667.00
823.4230, 32756.00
824.5610, 32664.00
825.6990, 33021.00
826.8370, 32809.00
827.9750, 32890.00
829.1120, 33250.00
830.2500, 32962.00
831.3870, 32975.00
832.5240, 33096.00
833.6610, 33059.00
834.7980, 33054.00
835.9340, 32983.00
837.0700, 33172.00
838.2070, 33095.00
839.3430, 33125.00
840.4790, 33358.00
841.6140, 33408.00
842.7500, 33320.00
843.8850, 33327.00
845.0210, 33332.00
846.1560, 33365.07
847.2910, 33509.00
848.4260, 33479.00
849.5600, 33550.00
850.6950, 33563.00
851.8290, 33443.00
852.9630, 33703.00
854.0970, 33678.00
855.2310, 33588.00
856.3650, 33886.00
857.4980, 33605.00
858.6310, 33688.00
859.7650, 33845.00
860.8980, 33850.00
862.0310, 33922.00
863.1630, 33781.00
864.2960, 33842.00
865.4280, 33898.00
866.5600, 33915.00
867.6920, 33997.32
868.8240, 34071.00
869.9560, 34133.00
871.0880, 34091.00
872.2190, 34142.00
873.3500, 34139.00
874.4810, 34066.00
875.6120, 34169.00
876.7430, 34357.00
877.8740, 34381.00
879.0040, 34213.00
880.1340, 34537.00
881.2650, 34566.00
882.3950, 34825.00
883.5240, 34864.00
884.6540, 34625.00
885.7830, 34608.00
886.9130, 34523.00
888.0420, 34600.00
889.1710, 34769.00
890.3000, 34765.00
891.4280, 34815.00
892.5570, 34804.00
893.6850, 34605.00
894.8130, 34650.00
895.9420, 35071.00
897.0690, 34730.00
898.1970, 34977.00
899.3250, 34796.00
900.4520, 34983.00
901.5790, 35053.40
902.7060, 35150.00
903.8330, 35244.00
904.9600, 35134.00
906.0870, 35210.00
907.2130, 35294.00
908.3390, 35188.00
909.4650, 35265.00
910.5910, 35161.00
911.7170, 35573.00
912.8430, 35406.00
913.9680, 35672.00
915.0930, 35484.00
916.2180, 35596.00
917.3430, 35602.00
918.4680, 35692.00
919.5930, 35566.00
920.7170, 35739.00
921.8420, 35618.00
922.9660, 35683.00
924.0900, 35658.00
925.2140, 35568.00
926.3370, 35807.00
927.4610, 35823.00
928.5840, 36119.00
929.7070, 36022.00
930.8310, 36076.00
931.9530, 36097.00
933.0760, 36400.00
934.1990, 36221.00
935.3210, 36292.00
936.4430, 36314.00
937.5650, 36133.00
938.6870, 36458.00
939.8090, 36299.00
940.9310, 36358.00
942.0520, 36554.00
943.1730, 36478.00
944.2940, 36653.00
945.4150, 36822.00
946.5360, 36802.00
947.6570, 36853.00
948.7770, 37034.00
949.8970, 36782.00
951.0180, 36993.00
952.1370, 37135.00
953.2570, 37170.00
954.3770, 37523.00
955.4960, 37511.00
956.6160, 37763.00
957.7350, 37903.00
958.8540, 38377.00
959.9730, 38434.00
961.0910, 38950.00
962.2100, 39163.00
963.3280, 39862.00
964.4460, 40242.00
965.5640, 40807.00
966.6820, 41073.00
967.8000, 41408.00
968.9180, 41423.00
970.0350, 41167.00
971.1520, 40861.00
972.2690, 40277.00
973.3860, 39619.00
974.5030, 39201.00
975.6190, 39270.00
976.7360, 38667.00
977.8520, 38638.00
978.9680, 38287.00
980.0840, 38588.00
981.2000, 38670.00
982.3160, 38664.00
983.4310, 38595.00
984.5460, 38668.00
985.6610, 38579.00
986.7760, 38822.00
987.8910, 39066.00
989.0060, 39072.00
990.1200, 39279.00
991.2350, 39471.00
992.3490, 39325.00
993.4630, 39590.00
994.5760, 39873.00
995.6900, 39872.00
996.8040, 40121.00
997.9170, 40064.48
999.0300, 40104.00
1000.143, 39863.00
1001.256, 39997.00
1002.369, 39763.00
1003.481, 39512.00
1004.594, 39474.00
1005.706, 39415.00
1006.818, 39492.00
1007.930, 39667.00
1009.042, 39766.00
1010.153, 39990.00
1011.264, 39724.00
1012.376, 39721.00
1013.487, 39907.00
1014.598, 40336.00
1015.708, 40670.00
1016.819, 40765.00
1017.929, 41009.00
1019.040, 41788.00
1020.150, 42639.00
1021.260, 43242.00
1022.370, 44286.00
1023.479, 45510.00
1024.589, 46679.00
1025.698, 47806.00
1026.807, 47861.00
1027.916, 49133.00
1029.025, 46777.00
1030.133, 45665.00
1031.242, 44322.00
1032.350, 43346.00
1033.458, 42751.00
1034.566, 41975.00
1035.674, 42208.00
1036.782, 41793.00
1037.890, 41807.00
1038.997, 41584.00
1040.104, 41496.00
1041.211, 41500.14
1042.318, 41511.43
1043.425, 41620.00
1044.531, 41766.00
1045.638, 42078.00
1046.744, 42327.00
1047.850, 42316.00
1048.956, 42655.00
1050.061, 42615.00
1051.167, 42755.00
1052.272, 42860.00
1053.378, 42854.00
1054.483, 42625.00
1055.588, 42571.00
1056.692, 42241.00
1057.797, 42400.00
1058.901, 42338.00
1060.006, 42422.00
1061.110, 42245.00
1062.214, 42137.00
1063.318, 42207.00
1064.421, 42368.00
1065.525, 42502.00
1066.628, 42895.00
1067.731, 42951.00
1068.834, 43176.00
1069.937, 43249.00
1071.040, 43479.00
1072.142, 43549.00
1073.244, 43371.00
1074.347, 43493.00
1075.449, 43166.00
1076.550, 43070.00
1077.652, 43338.00
1078.754, 43076.00
1079.855, 43109.00
1080.956, 43461.00
1082.057, 43410.00
1083.158, 43207.00
1084.259, 43499.00
1085.359, 43659.00
1086.460, 44122.00
1087.560, 44181.00
1088.660, 44533.00
1089.760, 44317.00
1090.860, 44567.00
1091.959, 44727.00
1093.059, 44388.00
1094.158, 44314.00
1095.257, 44184.00
1096.356, 43747.00
1097.455, 43595.00
1098.553, 43264.00
1099.652, 43055.00
1100.750, 42797.00
1101.848, 42856.00
1102.946, 42826.00
1104.044, 42664.00
1105.141, 42601.00
1106.239, 42640.00
1107.336, 42648.00
1108.433, 42542.00
1109.530, 42535.00
1110.627, 42523.04
1111.724, 42354.00
1112.820, 42496.00
1113.917, 42452.00
1115.013, 42383.00
1116.109, 42589.00
1117.205, 42663.00
1118.300, 42887.00
1119.396, 42663.00
1120.491, 42837.00
1121.586, 42955.00
1122.681, 42887.00
1123.776, 43140.00
1124.871, 42871.00
1125.965, 42861.00
1127.060, 42942.00
1128.154, 43080.00
1129.248, 42864.00
1130.342, 42892.00
1131.436, 42780.00
1132.529, 43061.00
1133.623, 42945.00
1134.716, 43077.00
1135.809, 42760.00
1136.902, 42745.00
1137.995, 42957.00
1139.087, 43064.00
1140.180, 43115.00
1141.272, 43279.00
1142.364, 43218.00
1143.456, 43178.00
1144.548, 43417.00
1145.639, 43101.00
1146.731, 43184.00
1147.822, 43481.00
1148.913, 43236.00
1150.004, 43385.00
1151.095, 43591.00
1152.186, 43656.00
1153.276, 43422.00
1154.366, 43627.00
1155.457, 43541.00
1156.546, 43541.00
1157.636, 43538.00
1158.726, 43789.00
1159.815, 43511.00
1160.905, 43427.00
1161.994, 43789.00
1163.083, 43809.00
1164.172, 43928.00
1165.261, 43875.00
1166.349, 43909.00
1167.437, 43907.00
1168.526, 43957.00
1169.614, 44009.00
1170.702, 43976.00
1171.789, 44043.77
1172.877, 43989.00
1173.964, 44102.00
1175.051, 44049.00
1176.138, 44028.00
1177.225, 44068.00
1178.312, 44091.00
1179.399, 44413.00
1180.485, 44128.00
1181.571, 44224.00
1182.657, 44621.00
1183.743, 44415.00
1184.829, 44390.00
1185.915, 44437.00
1187.000, 44393.86
1188.085, 44496.59
1189.171, 44464.00
1190.255, 44716.00
1191.340, 44741.00
1192.425, 44884.00
1193.509, 45044.00
1194.594, 45043.05
1195.678, 44798.00
1196.762, 45019.00
1197.846, 44985.00
1198.929, 44803.00
1200.013, 45157.00
1201.096, 45017.00
1202.179, 45043.00
1203.262, 45287.00
1204.345, 45250.00
1205.428, 45502.00
1206.510, 45367.00
1207.593, 45309.00
1208.675, 45368.00
1209.757, 45324.00
1210.839, 45287.00
1211.920, 45416.00
1213.002, 45271.00
1214.083, 45463.00
1215.164, 45487.00
1216.245, 45778.00
1217.326, 45842.00
1218.407, 45897.50
1219.488, 45740.00
1220.568, 46001.00
1221.648, 45911.38
1222.728, 46043.00
1223.808, 46026.00
1224.888, 45972.00
1225.967, 45912.00
1227.047, 46078.00
1228.126, 45964.00
1229.205, 45827.00
1230.284, 46246.00
1231.363, 46289.00
1232.441, 46386.00
1233.520, 46036.00
1234.598, 46136.17
1235.676, 46132.85
1236.754, 46174.00
1237.832, 46181.00
1238.910, 46486.00
1239.987, 46385.00
1241.064, 46432.00
1242.141, 46635.00
1243.218, 46522.00
1244.295, 46656.00
1245.372, 46524.00
1246.448, 46668.00
1247.525, 46851.00
1248.601, 46438.00
1249.677, 46726.00
1250.753, 46595.00
1251.828, 47072.00
1252.904, 46891.00
1253.979, 46567.00
1255.054, 46934.00
1256.129, 47079.00
1257.204, 47113.00
1258.279, 46945.00
1259.353, 47194.00
1260.428, 47004.00
1261.502, 47314.00
1262.576, 46965.00
1263.650, 47346.00
1264.724, 47384.00
1265.797, 47139.00
1266.871, 47254.00
1267.944, 47359.00
1269.017, 47704.00
1270.090, 47501.00
1271.162, 47267.00
1272.235, 47671.00
1273.307, 47641.00
1274.380, 47485.00
1275.452, 47508.00
1276.524, 47704.00
1277.595, 47457.00
1278.667, 47936.00
1279.738, 47900.00
1280.810, 47820.00
1281.881, 48075.00
1282.952, 47961.00
1284.022, 48162.00
1285.093, 48041.00
1286.164, 48038.00
1287.234, 47990.00
1288.304, 47961.00
1289.374, 48212.00
1290.444, 48019.00
1291.513, 48118.00
1292.583, 48248.00
1293.652, 48220.00
1294.721, 48214.00
1295.790, 48217.00
1296.859, 48121.00
1297.928, 48500.00
1298.996, 48171.00
1300.064, 48252.00
1301.133, 48354.00
1302.201, 48061.00
1303.268, 48558.00
1304.336, 48182.00
1305.404, 48824.00
1306.471, 49129.00
1307.538, 48914.02
1308.605, 48945.00
1309.672, 48724.00
1310.739, 48804.00
1311.805, 48784.00
1312.872, 48897.00
1313.938, 48727.00
1315.004, 48913.00
1316.070, 48832.00
1317.135, 49066.00
1318.201, 49156.00
1319.266, 49139.00
1320.332, 49309.14
1321.397, 49155.00
1322.462, 49451.00
1323.526, 49429.00
1324.591, 49397.00
1325.655, 49507.00
1326.720, 49372.00
1327.784, 49469.00
1328.848, 49531.00
1329.911, 49554.00
1330.975, 49504.00
1332.038, 49505.00
1333.102, 49397.00
1334.165, 49476.00
1335.228, 49525.19
1336.290, 49718.00
1337.353, 49657.00
1338.415, 49813.00
1339.478, 49729.00
1340.540, 49704.00
1341.602, 49923.00
1342.664, 50055.00
1343.725, 49904.00
1344.787, 50041.00
1345.848, 49662.00
1346.909, 49840.00
1347.970, 50152.00
1349.031, 50124.00
1350.092, 49889.00
1351.152, 50116.00
1352.212, 50040.00
1353.273, 50195.00
1354.333, 50274.00
1355.392, 50449.00
1356.452, 50567.00
1357.512, 50600.00
1358.571, 50743.00
1359.630, 50787.00
1360.689, 50610.00
1361.748, 50676.00
1362.807, 50600.00
1363.865, 50891.00
1364.924, 50632.00
1365.982, 50884.00
1367.040, 50960.00
1368.098, 50732.00
1369.155, 51110.00
1370.213, 51007.00
1371.270, 51247.00
1372.328, 51169.00
1373.385, 51048.00
1374.442, 51174.00
1375.498, 51087.00
1376.555, 51283.00
1377.611, 51300.00
1378.668, 51497.00
1379.724, 51407.00
1380.780, 51296.00
1381.835, 51472.00
1382.891, 51427.00
1383.946, 51637.00
1385.002, 51523.00
1386.057, 51575.00
1387.112, 51507.00
1388.166, 51513.00
1389.221, 51695.00
1390.275, 51976.00
1391.330, 51796.42
1392.384, 52279.00
1393.438, 51599.00
1394.492, 51796.00
1395.545, 51859.00
1396.599, 51763.00
1397.652, 51524.00
1398.705, 52045.00
1399.758, 51955.00
1400.811, 51911.00
1401.863, 52185.00
1402.916, 51986.00
1403.968, 52236.00
1405.020, 52091.00
1406.072, 52103.00
1407.124, 52167.00
1408.176, 52343.00
1409.227, 52309.22
1410.279, 52455.00
1411.330, 52352.00
1412.381, 52438.00
1413.432, 52503.00
1414.482, 52453.00
1415.533, 52457.00
1416.583, 52257.00
1417.633, 52459.00
1418.684, 52736.00
1419.733, 52684.00
1420.783, 52600.00
1421.833, 52416.00
1422.882, 52562.00
1423.931, 52637.00
1424.980, 52549.00
1426.029, 52793.00
1427.078, 52921.00
1428.126, 53192.00
1429.175, 52910.00
1430.223, 53117.00
1431.271, 53037.00
1432.319, 53092.00
1433.367, 53020.00
1434.414, 53208.00
1435.462, 53059.00
1436.509, 53282.00
1437.556, 53332.00
1438.603, 53276.00
1439.650, 53192.00
1440.696, 53131.00
1441.743, 53423.00
1442.789, 53315.00
1443.835, 53699.00
1444.881, 53674.00
1445.927, 53443.00
1446.972, 53558.00
1448.018, 53837.00
1449.063, 53723.00
1450.108, 53790.00
1451.153, 53847.00
1452.198, 53816.51
1453.243, 53845.14
1454.287, 53830.00
1455.331, 53851.00
1456.376, 53828.00
1457.420, 53888.00
1458.463, 53885.00
1459.507, 54018.00
1460.550, 53939.00
1461.594, 54179.00
1462.637, 54301.00
1463.680, 54084.00
1464.723, 54390.00
1465.765, 54418.00
1466.808, 54092.00
1467.850, 54306.00
1468.892, 54518.00
1469.934, 54426.00
1470.976, 54399.00
1472.018, 54327.00
1473.060, 54754.00
1474.101, 54509.00
1475.142, 54936.00
1476.183, 54891.00
1477.224, 54785.00
1478.265, 54816.00
1479.305, 54816.00
1480.346, 54934.00
1481.386, 54650.00
1482.426, 54979.00
1483.466, 55036.00
1484.505, 55109.00
1485.545, 54845.00
1486.584, 55225.00
1487.624, 54931.00
1488.663, 55232.00
1489.702, 55090.00
1490.740, 55038.00
1491.779, 55304.00
1492.817, 55106.00
1493.856, 55303.00
1494.894, 55206.00
1495.932, 55730.00
1496.969, 55326.00
1498.007, 55464.00
1499.044, 55832.00
1500.082, 55556.00
1501.119, 55466.00
1502.156, 55666.00
1503.192, 55338.00
1504.229, 55818.00
1505.265, 55700.00
1506.302, 56084.00
1507.338, 56023.00
1508.374, 55659.00
1509.410, 55869.00
1510.445, 55983.00
1511.481, 56124.00
1512.516, 56220.00
1513.551, 56304.51
1514.586, 56113.00
1515.621, 56382.00
1516.655, 56297.00
1517.690, 56190.00
1518.724, 56414.00
1519.758, 56672.00
1520.792, 56432.00
1521.826, 56320.00
1522.860, 56487.00
1523.893, 56714.00
1524.927, 56556.00
1525.960, 56348.00
1526.993, 56625.00
1528.026, 56794.00
1529.058, 56513.00
1530.091, 56638.00
1531.123, 56502.00
1532.155, 56613.00
1533.187, 56858.00
1534.219, 56908.00
1535.251, 56777.00
1536.282, 56953.00
1537.314, 56965.00
1538.345, 57045.00
1539.376, 57174.00
1540.407, 57186.05
1541.438, 57272.73
1542.468, 57221.00
1543.499, 57423.00
1544.529, 57339.00
1545.559, 57491.20
1546.589, 57198.00
1547.618, 57619.00
1548.648, 57318.00
1549.677, 57490.00
1550.707, 57733.00
1551.736, 57645.00
1552.765, 57543.00
1553.793, 57360.00
1554.822, 57647.00
1555.850, 57461.00
1556.879, 57657.00
1557.907, 57558.00
1558.935, 57364.00
1559.962, 57418.00
1560.990, 57393.16
1562.017, 57602.00
1563.045, 57555.00
1564.072, 57687.00
1565.099, 57878.00
1566.125, 57883.00
1567.152, 57723.00
1568.179, 57804.00
1569.205, 57946.00
1570.231, 57883.00
1571.257, 57957.00
1572.283, 57994.00
##END=



