##NAMES=Natrolite
##RRUFFID=R060561
##IDEAL CHEMISTRY=Na_2_(Si_3_Al_2_)O_10_&#183;2H_2_O
##LOCALITY=California, USA
##OWNER=RRUFF
##SOURCE=Gemological Institute of America
##DESCRIPTION=White fragment
##STATUS=The identification of this mineral has been confirmed by X-ray diffraction and chemical analysis
##URL=rruff.info/R060561
##MEASURED CHEMISTRY=Na_2.00_(Si_3.00_Al_2.00_)O_10_Â·2H_2_O
##PIN_ID=L00568
##ORIENTATION=Laser parallel to b* (0 1 0). Fiducial mark perpendicular to laser is parallel to c [0 0 1]
92.17800, 648.0000
93.41300, 646.0000
94.64800, 674.0000
95.88300, 718.0000
97.11800, 769.0000
98.35200, 863.0000
99.58700, 947.0000
100.8210, 1143.000
102.0550, 1491.000
103.2890, 2404.000
104.5220, 3581.000
105.7560, 7075.000
106.9890, 15439.00
108.2230, 28075.00
109.4560, 24994.00
110.6890, 9032.000
111.9210, 5355.000
113.1540, 4533.000
114.3870, 4526.000
115.6190, 4453.000
116.8510, 4338.000
118.0830, 4721.000
119.3150, 4968.000
120.5470, 5407.000
121.7780, 6060.000
123.0100, 6139.000
124.2410, 5915.000
125.4720, 5610.000
126.7030, 5441.000
127.9340, 5606.000
129.1640, 5953.000
130.3950, 7920.000
131.6250, 7135.000
132.8550, 7742.000
134.0850, 8388.000
135.3150, 9064.000
136.5450, 9725.000
137.7750, 10528.00
139.0040, 11385.00
140.2330, 12641.00
141.4620, 13669.00
142.6910, 14551.00
143.9200, 14972.00
145.1490, 14458.00
146.3770, 13158.00
147.6060, 11908.00
148.8340, 10804.00
150.0620, 10319.00
151.2900, 10012.00
152.5170, 10219.00
153.7450, 10754.00
154.9720, 11449.00
156.2000, 12361.00
157.4270, 13493.00
158.6540, 14850.00
159.8810, 16793.00
161.1070, 18875.00
162.3340, 20384.00
163.5600, 20824.00
164.7860, 20014.00
166.0120, 18354.00
167.2380, 16332.00
168.4640, 14156.00
169.6890, 12632.00
170.9150, 11134.00
172.1400, 10073.00
173.3650, 9350.000
174.5900, 8706.000
175.8150, 8366.000
177.0400, 7857.000
178.2640, 7576.000
179.4880, 7338.000
180.7130, 7259.000
181.9370, 7062.000
183.1600, 6922.000
184.3840, 6859.000
185.6080, 6889.000
186.8310, 6818.000
188.0540, 6749.000
189.2770, 6810.000
190.5000, 6873.000
191.7230, 6906.000
192.9460, 7028.000
194.1680, 7164.000
195.3910, 7475.000
196.6130, 7937.000
197.8350, 8477.000
199.0570, 8073.000
200.2780, 8078.000
201.5000, 8215.000
202.7210, 8179.000
203.9420, 7978.000
205.1640, 8110.000
206.3840, 8298.000
207.6050, 8338.000
208.8260, 8239.000
210.0460, 7984.000
211.2670, 7742.000
212.4870, 7363.000
213.7070, 7068.000
214.9270, 6759.000
216.1460, 6584.000
217.3660, 6514.000
218.5850, 6381.000
219.8050, 6190.000
221.0240, 6081.000
222.2430, 6020.000
223.4610, 5943.000
224.6800, 5954.000
225.8980, 5862.000
227.1170, 5843.000
228.3350, 5819.000
229.5530, 5902.000
230.7710, 5950.000
231.9880, 6132.000
233.2060, 6225.000
234.4230, 6408.000
235.6400, 6414.000
236.8570, 6625.000
238.0740, 6900.000
239.2910, 7238.000
240.5080, 7526.000
241.7240, 7760.000
242.9400, 7619.000
244.1570, 7019.000
245.3730, 6698.000
246.5880, 6261.000
247.8040, 6023.000
249.0190, 5840.000
250.2350, 5691.000
251.4500, 5611.000
252.6650, 5502.000
253.8800, 5522.000
255.0950, 5572.000
256.3090, 5523.000
257.5240, 5497.000
258.7380, 5573.000
259.9520, 5448.000
261.1660, 5568.000
262.3800, 5560.000
263.5930, 5510.000
264.8070, 5561.000
266.0200, 5575.000
267.2330, 5595.000
268.4460, 5585.000
269.6590, 5641.000
270.8720, 5675.000
272.0850, 5710.000
273.2970, 5746.000
274.5090, 5692.000
275.7210, 5691.000
276.9330, 5740.000
278.1450, 5728.000
279.3570, 5871.000
280.5680, 5799.000
281.7790, 5839.000
282.9910, 5825.000
284.2020, 5948.000
285.4120, 5932.000
286.6230, 6023.000
287.8340, 6141.000
289.0440, 6071.000
290.2540, 6269.000
291.4640, 6292.000
292.6740, 6324.000
293.8840, 6573.000
295.0940, 7216.000
296.3030, 7010.000
297.5120, 7245.000
298.7210, 7653.000
299.9300, 7814.000
301.1390, 8226.000
302.3480, 8658.000
303.5560, 9237.000
304.7650, 9944.000
305.9730, 10645.00
307.1810, 11019.00
308.3890, 10572.00
309.5970, 9671.000
310.8040, 8650.000
312.0120, 7962.000
313.2190, 7283.000
314.4260, 6773.000
315.6330, 6424.000
316.8400, 6382.000
318.0460, 6071.000
319.2530, 6073.000
320.4590, 6133.000
321.6650, 6155.000
322.8710, 6225.000
324.0770, 6087.000
325.2830, 6227.000
326.4880, 6280.000
327.6940, 6319.000
328.8990, 6370.000
330.1040, 6512.000
331.3090, 6663.000
332.5140, 6821.000
333.7180, 6749.000
334.9230, 6861.000
336.1270, 6909.000
337.3310, 6918.000
338.5350, 7185.000
339.7390, 7133.000
340.9430, 7251.000
342.1460, 7375.000
343.3500, 7405.000
344.5530, 7618.000
345.7560, 7666.000
346.9590, 7511.000
348.1620, 7530.000
349.3640, 7567.000
350.5670, 7592.000
351.7690, 7858.000
352.9710, 8061.000
354.1730, 8242.000
355.3750, 8470.000
356.5760, 8689.000
357.7780, 8956.000
358.9790, 9190.000
360.1800, 9537.000
361.3810, 9469.000
362.5820, 9196.000
363.7830, 8774.000
364.9830, 8245.000
366.1840, 7720.000
367.3840, 7258.000
368.5840, 6977.000
369.7840, 6606.000
370.9840, 6530.000
372.1830, 6330.000
373.3830, 6174.000
374.5820, 6107.000
375.7810, 6002.000
376.9800, 6018.000
378.1790, 6003.000
379.3780, 5943.000
380.5760, 5948.000
381.7750, 5900.000
382.9730, 5827.000
384.1710, 6021.000
385.3690, 5893.000
386.5660, 5989.000
387.7640, 5978.000
388.9610, 5904.000
390.1590, 6009.000
391.3560, 6027.000
392.5530, 6002.000
393.7500, 6117.000
394.9460, 6186.000
396.1430, 6113.000
397.3390, 6269.000
398.5350, 6370.000
399.7310, 6506.000
400.9270, 6603.000
402.1230, 6876.000
403.3180, 7148.000
404.5140, 7474.000
405.7090, 7670.000
406.9040, 8105.000
408.0990, 8409.000
409.2930, 8917.000
410.4880, 9287.000
411.6820, 9752.000
412.8770, 9948.000
414.0710, 10255.00
415.2650, 10172.00
416.4590, 10078.00
417.6520, 9730.000
418.8460, 9283.000
420.0390, 9043.000
421.2320, 8670.000
422.4250, 8473.000
423.6180, 8391.000
424.8110, 8381.000
426.0030, 8416.000
427.1960, 8685.000
428.3880, 8875.000
429.5800, 9330.000
430.7720, 10180.00
431.9640, 10963.00
433.1550, 11885.00
434.3470, 13153.00
435.5380, 14511.00
436.7290, 15698.00
437.9200, 17466.00
439.1110, 19637.00
440.3020, 22023.00
441.4920, 24322.00
442.6820, 24868.00
443.8730, 23888.00
445.0630, 21203.00
446.2530, 18420.00
447.4420, 15748.00
448.6320, 13591.00
449.8210, 12056.00
451.0100, 10764.00
452.2000, 9900.000
453.3880, 9294.000
454.5770, 8874.000
455.7660, 8534.000
456.9540, 8354.000
458.1430, 8054.000
459.3310, 7980.000
460.5190, 7791.000
461.7070, 7866.000
462.8940, 7826.000
464.0820, 7686.000
465.2690, 7661.000
466.4560, 7582.000
467.6430, 7664.000
468.8300, 7685.000
470.0170, 7651.000
471.2040, 7662.000
472.3900, 7751.000
473.5760, 7789.000
474.7620, 7960.000
475.9480, 7948.000
477.1340, 7936.000
478.3200, 8059.000
479.5050, 8230.000
480.6900, 8105.000
481.8750, 8334.000
483.0600, 8326.000
484.2450, 8384.000
485.4300, 8588.000
486.6140, 8589.000
487.7990, 8759.000
488.9830, 9057.000
490.1670, 8921.000
491.3510, 9134.000
492.5350, 9184.000
493.7180, 9331.000
494.9020, 9684.000
496.0850, 9791.000
497.2680, 10057.00
498.4510, 10365.00
499.6340, 10700.00
500.8160, 11026.00
501.9990, 11424.00
503.1810, 11731.00
504.3630, 12114.00
505.5450, 12677.00
506.7270, 13105.00
507.9090, 13647.00
509.0900, 14336.00
510.2720, 14740.00
511.4530, 15264.00
512.6340, 15987.00
513.8150, 16455.00
514.9950, 17308.00
516.1760, 17775.00
517.3560, 18541.00
518.5370, 19209.00
519.7170, 20100.00
520.8970, 22131.00
522.0770, 23408.00
523.2560, 25647.00
524.4360, 28678.00
525.6150, 32306.00
526.7940, 36202.00
527.9730, 40512.00
529.1520, 45270.00
530.3310, 50721.00
531.5090, 56736.00
532.6870, 61028.00
533.8660, 63107.00
535.0440, 60489.00
536.2210, 54751.00
537.3990, 46560.00
538.5770, 38605.00
539.7540, 31684.00
540.9310, 25963.00
542.1080, 21404.00
543.2850, 18399.00
544.4620, 16153.00
545.6390, 14463.00
546.8150, 13139.00
547.9920, 12181.00
549.1680, 11249.00
550.3440, 10670.00
551.5190, 10211.00
552.6950, 10016.00
553.8710, 9559.000
555.0460, 9382.000
556.2210, 9077.000
557.3960, 8924.000
558.5710, 8739.000
559.7460, 8680.000
560.9200, 8349.000
562.0950, 8380.000
563.2690, 8299.000
564.4430, 8207.000
565.6170, 8086.000
566.7910, 8120.000
567.9640, 7874.000
569.1380, 7980.000
570.3110, 7899.000
571.4840, 7839.000
572.6570, 7826.000
573.8300, 7664.000
575.0030, 7776.000
576.1750, 7740.000
577.3470, 7514.000
578.5200, 7561.000
579.6920, 7622.000
580.8630, 7528.000
582.0350, 7533.000
583.2070, 7538.000
584.3780, 7450.000
585.5490, 7443.000
586.7200, 7527.000
587.8910, 7332.000
589.0620, 7479.000
590.2330, 7481.000
591.4030, 7523.000
592.5730, 7550.000
593.7430, 7549.000
594.9130, 7702.000
596.0830, 7735.000
597.2530, 7646.000
598.4220, 7781.000
599.5920, 7808.000
600.7610, 7695.000
601.9300, 7723.000
603.0990, 7683.000
604.2670, 7588.000
605.4360, 7654.000
606.6040, 7577.000
607.7720, 7443.000
608.9400, 7454.000
610.1080, 7442.000
611.2760, 7429.000
612.4440, 7518.000
613.6110, 7348.000
614.7780, 7481.000
615.9450, 7400.000
617.1120, 7463.000
618.2790, 7613.000
619.4460, 7443.000
620.6120, 7522.000
621.7780, 7601.000
622.9450, 7504.000
624.1110, 7681.000
625.2760, 7595.000
626.4420, 7521.000
627.6080, 7499.000
628.7730, 7437.000
629.9380, 7446.000
631.1030, 7445.000
632.2680, 7310.000
633.4330, 7393.000
634.5970, 7308.000
635.7620, 7285.000
636.9260, 7336.000
638.0900, 7390.000
639.2540, 7459.000
640.4180, 7400.000
641.5810, 7312.000
642.7450, 7372.000
643.9080, 7358.000
645.0710, 7451.000
646.2340, 7379.000
647.3970, 7511.000
648.5590, 7417.000
649.7220, 7470.000
650.8840, 7410.000
652.0460, 7326.000
653.2080, 7362.000
654.3700, 7398.000
655.5320, 7404.000
656.6930, 7387.000
657.8550, 7393.000
659.0160, 7237.000
660.1770, 7365.000
661.3380, 7318.000
662.4990, 7209.000
663.6590, 7407.000
664.8200, 7218.000
665.9800, 7252.000
667.1400, 7386.000
668.3000, 7325.000
669.4600, 7376.000
670.6190, 7390.000
671.7790, 7544.000
672.9380, 7419.000
674.0970, 7500.000
675.2560, 7437.000
676.4150, 7531.000
677.5740, 7557.000
678.7320, 7680.000
679.8900, 7658.000
681.0490, 7722.000
682.2070, 7761.000
683.3640, 7957.000
684.5220, 7963.000
685.6800, 8047.000
686.8370, 8192.000
687.9940, 8289.000
689.1510, 8305.000
690.3080, 8497.000
691.4650, 8492.000
692.6220, 8833.000
693.7780, 8869.000
694.9340, 8886.000
696.0900, 9147.000
697.2460, 9340.000
698.4020, 9444.000
699.5580, 9645.000
700.7130, 9655.000
701.8680, 9767.981
703.0240, 9813.270
704.1790, 9792.007
705.3330, 9642.271
706.4880, 9553.557
707.6430, 9376.208
708.7970, 9301.000
709.9510, 9074.000
711.1050, 8927.000
712.2590, 8890.000
713.4130, 8738.000
714.5660, 8669.000
715.7200, 8675.000
716.8730, 8525.000
718.0260, 8555.746
719.1790, 8660.891
720.3320, 8730.468
721.4840, 8765.640
722.6370, 8704.408
723.7890, 8736.370
724.9410, 8711.855
726.0930, 8671.932
727.2450, 8677.979
728.3960, 8560.562
729.5480, 8538.375
730.6990, 8459.132
731.8500, 8386.160
733.0010, 8160.000
734.1520, 7867.000
735.3030, 7963.000
736.4530, 7805.000
737.6040, 7738.000
738.7540, 7700.000
739.9040, 7624.000
741.0540, 7546.000
742.2030, 7676.000
743.3530, 7647.000
744.5020, 7474.000
745.6520, 7599.000
746.8010, 7520.000
747.9490, 7490.000
749.0980, 7459.000
750.2470, 7402.000
751.3950, 7481.000
752.5440, 7426.000
753.6920, 7442.000
754.8400, 7461.000
755.9870, 7437.000
757.1350, 7557.000
758.2820, 7553.000
759.4300, 7355.000
760.5770, 7470.000
761.7240, 7416.000
762.8710, 7383.000
764.0170, 7468.000
765.1640, 7469.000
766.3100, 7482.000
767.4560, 7570.000
768.6020, 7498.000
769.7480, 7445.000
770.8940, 7581.000
772.0400, 7537.000
773.1850, 7519.000
774.3300, 7506.000
775.4750, 7518.000
776.6200, 7427.000
777.7650, 7547.000
778.9090, 7493.000
780.0540, 7599.000
781.1980, 7554.000
782.3420, 7603.000
783.4860, 7675.000
784.6300, 7534.000
785.7740, 7561.000
786.9170, 7562.000
788.0600, 7704.000
789.2030, 7663.000
790.3460, 7650.000
791.4890, 7603.000
792.6320, 7604.000
793.7740, 7636.000
794.9170, 7657.000
796.0590, 7693.000
797.2010, 7794.000
798.3430, 7806.000
799.4850, 7693.000
800.6260, 7795.000
801.7670, 7759.000
802.9090, 7867.000
804.0500, 7951.000
805.1910, 7787.000
806.3310, 7819.000
807.4720, 7890.000
808.6120, 7896.000
809.7530, 7986.000
810.8930, 7919.000
812.0330, 7883.000
813.1720, 7903.000
814.3120, 7785.000
815.4510, 7848.000
816.5910, 7913.000
817.7300, 8023.000
818.8690, 7853.000
820.0080, 8038.000
821.1460, 7883.000
822.2850, 7884.000
823.4230, 7936.000
824.5610, 7987.000
825.6990, 8033.000
826.8370, 8046.000
827.9750, 7917.000
829.1120, 8032.000
830.2500, 8050.000
831.3870, 8004.000
832.5240, 7929.000
833.6610, 8098.000
834.7980, 8013.000
835.9340, 8043.000
837.0700, 8144.000
838.2070, 8006.000
839.3430, 8174.000
840.4790, 8152.000
841.6140, 8017.000
842.7500, 8099.000
843.8850, 8101.000
845.0210, 8068.000
846.1560, 8200.000
847.2910, 8183.000
848.4260, 8188.000
849.5600, 8145.000
850.6950, 8034.000
851.8290, 8296.000
852.9630, 8257.000
854.0970, 8244.000
855.2310, 8289.000
856.3650, 8276.000
857.4980, 8213.000
858.6310, 8406.000
859.7650, 8494.000
860.8980, 8247.000
862.0310, 8471.000
863.1630, 8395.000
864.2960, 8312.000
865.4280, 8288.000
866.5600, 8325.000
867.6920, 8273.000
868.8240, 8449.000
869.9560, 8302.000
871.0880, 8285.000
872.2190, 8254.000
873.3500, 8341.000
874.4810, 8313.000
875.6120, 8219.000
876.7430, 8217.000
877.8740, 8236.000
879.0040, 8298.000
880.1340, 8314.000
881.2650, 8417.000
882.3950, 8227.000
883.5240, 8212.000
884.6540, 8238.000
885.7830, 8226.000
886.9130, 8140.000
888.0420, 8268.000
889.1710, 8184.000
890.3000, 8175.000
891.4280, 8226.000
892.5570, 8184.000
893.6850, 8188.000
894.8130, 8195.000
895.9420, 8319.000
897.0690, 8201.000
898.1970, 8202.000
899.3250, 8239.000
900.4520, 8163.000
901.5790, 8250.000
902.7060, 8232.000
903.8330, 8268.000
904.9600, 8278.000
906.0870, 8269.000
907.2130, 8261.000
908.3390, 8293.000
909.4650, 8285.000
910.5910, 8199.000
911.7170, 8197.000
912.8430, 8252.000
913.9680, 8247.000
915.0930, 8296.000
916.2180, 8219.000
917.3430, 8289.000
918.4680, 8289.000
919.5930, 8355.000
920.7170, 8162.000
921.8420, 8228.000
922.9660, 8235.000
924.0900, 8203.000
925.2140, 8327.000
926.3370, 8189.000
927.4610, 8317.000
928.5840, 8289.000
929.7070, 8234.000
930.8310, 8353.000
931.9530, 8331.000
933.0760, 8382.000
934.1990, 8258.000
935.3210, 8324.000
936.4430, 8486.000
937.5650, 8388.000
938.6870, 8292.000
939.8090, 8338.000
940.9310, 8424.000
942.0520, 8320.000
943.1730, 8326.000
944.2940, 8358.000
945.4150, 8376.000
946.5360, 8391.193
947.6570, 8454.162
948.7770, 8495.229
949.8970, 8515.581
951.0180, 8453.189
952.1370, 8497.637
953.2570, 8499.271
954.3770, 8499.147
955.4960, 8558.634
956.6160, 8508.268
957.7350, 8566.810
958.8540, 8581.872
959.9730, 8616.835
961.0910, 8608.695
962.2100, 8613.877
963.3280, 8662.150
964.4460, 8686.557
965.5640, 8673.457
966.6820, 8709.673
967.8000, 8657.777
968.9180, 8683.201
970.0350, 8741.972
971.1520, 8731.027
972.2690, 8768.019
973.3860, 8786.754
974.5030, 8722.519
975.6190, 8802.565
976.7360, 8820.222
977.8520, 8773.793
978.9680, 8848.896
980.0840, 8811.300
981.2000, 8813.931
982.3160, 8846.834
983.4310, 8848.168
984.5460, 8899.257
985.6610, 8902.413
986.7760, 8901.287
987.8910, 8918.850
989.0060, 8883.452
990.1200, 8946.296
991.2350, 8942.036
992.3490, 8971.126
993.4630, 9007.777
994.5760, 8986.518
995.6900, 9026.566
996.8040, 8971.558
997.9170, 8996.076
999.0300, 9012.029
1000.143, 9078.821
1001.256, 9024.265
1002.369, 9046.573
1003.481, 9101.598
1004.594, 9110.840
1005.706, 9139.217
1006.818, 9110.912
1007.930, 9135.855
1009.042, 9146.122
1010.153, 9207.096
1011.264, 9208.000
1012.376, 9211.000
1013.487, 9202.000
1014.598, 9200.000
1015.708, 9235.000
1016.819, 9380.000
1017.929, 9403.000
1019.040, 9515.000
1020.150, 9437.000
1021.260, 9613.000
1022.370, 9708.000
1023.479, 9672.000
1024.589, 9780.000
1025.698, 10429.00
1026.807, 9997.000
1027.916, 10310.00
1029.025, 10500.00
1030.133, 10833.27
1031.242, 11498.39
1032.350, 12141.19
1033.458, 12763.30
1034.566, 13302.70
1035.674, 14684.00
1036.782, 15218.00
1037.890, 15992.00
1038.997, 16721.00
1040.104, 16993.00
1041.211, 16404.00
1042.318, 15539.00
1043.425, 14134.00
1044.531, 13165.00
1045.638, 12178.00
1046.744, 11571.00
1047.850, 11015.00
1048.956, 10626.00
1050.061, 10229.00
1051.167, 10073.00
1052.272, 10029.00
1053.378, 9907.000
1054.483, 9912.000
1055.588, 9636.000
1056.692, 9548.000
1057.797, 9673.000
1058.901, 9361.000
1060.006, 9369.000
1061.110, 9451.000
1062.214, 9493.000
1063.318, 9412.000
1064.421, 9493.000
1065.525, 9459.000
1066.628, 9551.000
1067.731, 9533.000
1068.834, 9597.000
1069.937, 9573.000
1071.040, 9682.000
1072.142, 9752.000
1073.244, 9810.000
1074.347, 9928.000
1075.449, 10038.00
1076.550, 10002.00
1077.652, 10259.00
1078.754, 10193.00
1079.855, 10313.00
1080.956, 10446.00
1082.057, 10410.00
1083.158, 10342.00
1084.259, 10334.00
1085.359, 10282.00
1086.460, 10234.00
1087.560, 10145.00
1088.660, 9874.000
1089.760, 9817.000
1090.860, 9884.000
1091.959, 9757.000
1093.059, 9832.000
1094.158, 9711.000
1095.257, 9496.000
1096.356, 9571.000
1097.455, 9608.000
1098.553, 9525.000
1099.652, 9614.000
1100.750, 9608.000
1101.848, 9532.000
1102.946, 9650.000
1104.044, 9615.000
1105.141, 9504.000
1106.239, 9474.000
1107.336, 9646.000
1108.433, 9445.000
1109.530, 9605.000
1110.627, 9569.000
1111.724, 9535.000
1112.820, 9523.000
1113.917, 9651.000
1115.013, 9511.000
1116.109, 9497.000
1117.205, 9688.000
1118.300, 9467.000
1119.396, 9649.000
1120.491, 9529.000
1121.586, 9522.000
1122.681, 9507.000
1123.776, 9443.000
1124.871, 9411.000
1125.965, 9307.000
1127.060, 9514.000
1128.154, 9577.000
1129.248, 9493.000
1130.342, 9488.000
1131.436, 9409.000
1132.529, 9527.000
1133.623, 9377.000
1134.716, 9326.000
1135.809, 9423.000
1136.902, 9472.000
1137.995, 9530.000
1139.087, 9435.000
1140.180, 9483.000
1141.272, 9379.000
1142.364, 9589.000
1143.456, 9441.000
1144.548, 9365.000
1145.639, 9405.000
1146.731, 9548.000
1147.822, 9399.000
1148.913, 9432.000
1150.004, 9513.000
1151.095, 9394.000
1152.186, 9441.000
1153.276, 9492.000
1154.366, 9432.000
1155.457, 9471.000
1156.546, 9388.000
1157.636, 9422.000
1158.726, 9535.000
1159.815, 9463.000
1160.905, 9423.000
1161.994, 9613.000
1163.083, 9443.000
1164.172, 9533.000
1165.261, 9522.000
1166.349, 9487.000
1167.437, 9466.000
1168.526, 9651.000
1169.614, 9576.000
1170.702, 9508.000
1171.789, 9666.000
1172.877, 9525.000
1173.964, 9551.000
1175.051, 9500.000
1176.138, 9653.000
1177.225, 9610.000
1178.312, 9524.000
1179.399, 9555.000
1180.485, 9652.000
1181.571, 9634.000
1182.657, 9641.000
1183.743, 9518.000
1184.829, 9623.000
1185.915, 9631.000
1187.000, 9565.000
1188.085, 9612.000
1189.171, 9640.000
1190.255, 9615.000
1191.340, 9724.000
1192.425, 9654.000
1193.509, 9572.000
1194.594, 9668.000
1195.678, 9787.000
1196.762, 9649.000
1197.846, 9643.000
1198.929, 9681.000
1200.013, 9669.000
1201.096, 9664.000
1202.179, 9707.000
1203.262, 9657.000
1204.345, 9692.000
1205.428, 9778.000
1206.510, 9650.000
1207.593, 9700.000
1208.675, 9585.000
1209.757, 9658.000
1210.839, 9877.000
1211.920, 9719.000
1213.002, 9841.000
1214.083, 9877.000
1215.164, 9627.000
1216.245, 9729.000
1217.326, 9718.000
1218.407, 9738.000
1219.488, 9794.000
1220.568, 9891.000
1221.648, 9841.000
1222.728, 9758.000
1223.808, 9759.000
1224.888, 9802.000
1225.967, 9771.000
1227.047, 9777.000
1228.126, 9774.000
1229.205, 9768.000
1230.284, 9947.000
1231.363, 9818.000
1232.441, 9879.000
1233.520, 9920.000
1234.598, 9917.000
1235.676, 9872.000
1236.754, 9810.000
1237.832, 9879.000
1238.910, 9883.000
1239.987, 9926.000
1241.064, 10016.00
1242.141, 9931.000
1243.218, 9982.000
1244.295, 10041.00
1245.372, 9900.000
1246.448, 9955.000
1247.525, 9952.000
1248.601, 9864.000
1249.677, 9882.000
1250.753, 10052.00
1251.828, 9977.000
1252.904, 10085.00
1253.979, 9923.000
1255.054, 9910.000
1256.129, 10144.00
1257.204, 10111.00
1258.279, 9995.000
1259.353, 9935.000
1260.428, 10047.00
1261.502, 9972.000
1262.576, 10059.00
1263.650, 10142.00
1264.724, 10047.00
1265.797, 10009.21
1266.871, 10066.58
1267.944, 10102.06
1269.017, 10116.83
1270.090, 10048.83
1271.162, 10087.70
1272.235, 10083.74
1273.307, 10078.02
1274.380, 10131.93
1275.452, 10075.97
1276.524, 10128.93
1277.595, 10138.40
1278.667, 10167.78
1279.738, 10154.06
1280.810, 10153.65
1281.881, 10196.35
1282.952, 10215.17
1284.022, 10196.49
1285.093, 10227.12
1286.164, 10169.65
1287.234, 10083.00
1288.304, 10209.00
1289.374, 10234.00
1290.444, 10074.00
1291.513, 10268.00
1292.583, 10269.00
1293.652, 10200.00
1294.721, 10173.00
1295.790, 10334.00
1296.859, 10211.00
1297.928, 10290.00
1298.996, 10341.00
1300.064, 10279.00
1301.133, 10289.00
1302.201, 10328.00
1303.268, 10343.00
1304.336, 10266.00
1305.404, 10397.00
1306.471, 10275.00
1307.538, 10353.00
1308.605, 10371.00
1309.672, 10233.00
1310.739, 10181.00
1311.805, 10401.00
1312.872, 10357.00
1313.938, 10361.00
1315.004, 10352.00
1316.070, 10536.00
1317.135, 10334.00
1318.201, 10528.00
1319.266, 10439.00
1320.332, 10313.00
1321.397, 10368.00
1322.462, 10437.00
1323.526, 10287.00
1324.591, 10521.00
1325.655, 10494.00
1326.720, 10231.00
1327.784, 10378.00
1328.848, 10300.00
1329.911, 10289.00
1330.975, 10318.00
1332.038, 10417.00
1333.102, 10249.00
1334.165, 10356.00
1335.228, 10522.00
1336.290, 10195.00
1337.353, 10284.00
1338.415, 10333.00
1339.478, 10230.00
1340.540, 10314.00
1341.602, 10389.00
1342.664, 10317.00
1343.725, 10407.00
1344.787, 10391.00
1345.848, 10416.00
1346.909, 10426.00
1347.970, 10575.00
1349.031, 10350.00
1350.092, 10397.00
1351.152, 10463.00
1352.212, 10386.00
1353.273, 10388.00
1354.333, 10458.00
1355.392, 10499.00
1356.452, 10312.00
1357.512, 10610.00
1358.571, 10407.00
1359.630, 10473.00
1360.689, 10503.00
1361.748, 10473.00
1362.807, 10410.00
1363.865, 10568.00
1364.924, 10542.00
1365.982, 10447.00
1367.040, 10701.00
1368.098, 10607.00
1369.155, 10534.00
1370.213, 10493.00
1371.270, 10603.00
1372.328, 10431.00
1373.385, 10597.00
1374.442, 10572.00
1375.498, 10640.00
1376.555, 10690.00
1377.611, 10527.00
1378.668, 10520.00
1379.724, 10405.00
1380.780, 10635.00
1381.835, 10503.00
1382.891, 10614.00
1383.946, 10758.00
1385.002, 10573.00
1386.057, 10719.00
1387.112, 10759.00
1388.166, 10590.00
1389.221, 10766.00
1390.275, 10789.00
1391.330, 10643.00
1392.384, 10674.00
1393.438, 10697.00
1394.492, 10638.00
1395.545, 10641.00
1396.599, 10656.00
1397.652, 10585.00
1398.705, 10563.00
1399.758, 10733.00
1400.811, 10686.00
1401.863, 10802.00
1402.916, 10732.00
1403.968, 10797.00
1405.020, 10744.00
1406.072, 10755.00
1407.124, 10623.00
1408.176, 10730.00
1409.227, 10741.00
1410.279, 10732.00
1411.330, 10664.00
1412.381, 10787.00
1413.432, 10782.00
1414.482, 10619.00
1415.533, 10815.00
1416.583, 10745.00
1417.633, 10736.00
1418.684, 10789.00
1419.733, 10659.00
1420.783, 10655.00
1421.833, 10828.00
1422.882, 10874.00
1423.931, 10798.00
1424.980, 10863.00
1426.029, 10810.00
1427.078, 10732.00
1428.126, 10875.00
1429.175, 10887.00
1430.223, 10751.00
1431.271, 10901.00
1432.319, 10926.00
1433.367, 10845.00
1434.414, 10855.00
1435.462, 10884.00
1436.509, 10992.00
1437.556, 11026.00
1438.603, 11075.00
1439.650, 11075.00
1440.696, 11043.00
1441.743, 11056.00
1442.789, 11212.00
1443.835, 11195.00
1444.881, 11252.00
1445.927, 11196.00
1446.972, 11186.00
1448.018, 11229.00
1449.063, 11256.00
1450.108, 11297.00
1451.153, 11250.00
1452.198, 11305.00
1453.243, 11315.00
1454.287, 11405.00
1455.331, 11340.00
1456.376, 11211.00
1457.420, 11349.00
1458.463, 11428.00
1459.507, 11262.00
1460.550, 11289.00
1461.594, 11338.00
1462.637, 11251.00
1463.680, 11232.00
1464.723, 11147.00
1465.765, 11093.00
1466.808, 11211.00
1467.850, 11218.00
1468.892, 11074.00
1469.934, 11227.00
1470.976, 11274.00
1472.018, 11195.00
1473.060, 11189.00
1474.101, 11140.00
1475.142, 11043.00
1476.183, 11071.00
1477.224, 11149.00
1478.265, 11124.00
1479.305, 11035.00
1480.346, 11175.00
1481.386, 11205.00
1482.426, 11094.00
1483.466, 11180.00
1484.505, 11260.00
1485.545, 10962.00
1486.584, 11057.00
1487.624, 11061.00
1488.663, 11074.00
1489.702, 11025.00
1490.740, 11026.00
1491.779, 11101.00
1492.817, 11239.00
1493.856, 11114.00
1494.894, 11065.00
1495.932, 11103.00
1496.969, 11158.00
1498.007, 11055.00
1499.044, 11094.00
1500.082, 11023.00
1501.119, 11048.00
1502.156, 11043.00
1503.192, 11037.00
1504.229, 11066.00
1505.265, 11005.00
1506.302, 11191.00
1507.338, 11087.00
1508.374, 11030.00
1509.410, 11144.00
1510.445, 11112.00
1511.481, 11096.00
1512.516, 11100.00
1513.551, 11051.00
1514.586, 11158.00
1515.621, 11059.00
1516.655, 11152.00
1517.690, 11139.00
1518.724, 11141.00
1519.758, 11215.00
1520.792, 11356.00
1521.826, 11282.00
1522.860, 11228.00
1523.893, 11047.00
1524.927, 11162.00
1525.960, 11299.00
1526.993, 11221.00
1528.026, 11269.00
1529.058, 11170.00
1530.091, 11270.00
1531.123, 11192.00
1532.155, 11406.00
1533.187, 11296.00
1534.219, 11155.00
1535.251, 11290.00
1536.282, 11206.00
1537.314, 11193.00
1538.345, 11310.00
1539.376, 11513.00
1540.407, 11336.00
1541.438, 11355.00
1542.468, 11414.00
1543.499, 11250.00
1544.529, 11209.00
1545.559, 11311.00
1546.589, 11260.00
1547.618, 11322.00
1548.648, 11383.00
1549.677, 11246.00
1550.707, 11289.00
1551.736, 11436.00
1552.765, 11248.00
1553.793, 11343.00
1554.822, 11387.00
1555.850, 11452.00
1556.879, 11294.00
1557.907, 11393.00
1558.935, 11446.00
1559.962, 11323.00
1560.990, 11263.00
1562.017, 11268.00
1563.045, 11258.00
1564.072, 11410.00
1565.099, 11384.00
1566.125, 11326.00
1567.152, 11431.00
1568.179, 11395.00
1569.205, 11258.00
1570.231, 11452.00
1571.257, 11428.00
1572.283, 11460.00
1573.308, 11439.00
1574.334, 11482.00
1575.359, 11510.00
1576.384, 11429.00
1577.409, 11426.00
##END=



