##NAMES=Natrolite
##RRUFFID=R060561
##IDEAL CHEMISTRY=Na_2_(Si_3_Al_2_)O_10_&#183;2H_2_O
##LOCALITY=California, USA
##OWNER=RRUFF
##SOURCE=Gemological Institute of America
##DESCRIPTION=White fragment
##STATUS=The identification of this mineral has been confirmed by X-ray diffraction and chemical analysis
##URL=rruff.info/R060561
##MEASURED CHEMISTRY=Na_2.00_(Si_3.00_Al_2.00_)O_10_Â·2H_2_O
##PIN_ID=L00568
##ORIENTATION=Laser parallel to b* (0 1 0). Fiducial mark perpendicular to laser is parallel to c [0 0 1]
97.11800, 703.0000
98.35200, 726.0000
99.58700, 787.0000
100.8210, 864.0000
102.0550, 1012.000
103.2890, 1200.000
104.5220, 1558.000
105.7560, 2136.000
106.9890, 3138.000
108.2230, 6807.000
109.4560, 11501.00
110.6890, 7296.000
111.9210, 3627.000
113.1540, 3568.000
114.3870, 3690.000
115.6190, 3950.000
116.8510, 4068.000
118.0830, 5573.000
119.3150, 4699.000
120.5470, 10811.00
121.7780, 7097.000
123.0100, 6514.000
124.2410, 6796.000
125.4720, 6924.000
126.7030, 7020.000
127.9340, 7222.000
129.1640, 7796.000
130.3950, 8467.000
131.6250, 9030.000
132.8550, 10119.00
134.0850, 11150.00
135.3150, 12374.00
136.5450, 13880.00
137.7750, 15751.00
139.0040, 17515.00
140.2330, 19578.00
141.4620, 21617.00
142.6910, 23307.00
143.9200, 23502.00
145.1490, 22554.00
146.3770, 20443.00
147.6060, 17667.00
148.8340, 15610.00
150.0620, 13814.00
151.2900, 13144.00
152.5170, 12919.00
153.7450, 13121.00
154.9720, 13727.00
156.2000, 14524.00
157.4270, 15604.00
158.6540, 17440.00
159.8810, 19101.00
161.1070, 21405.00
162.3340, 23180.00
163.5600, 23908.00
164.7860, 23340.00
166.0120, 21622.00
167.2380, 19535.00
168.4640, 17252.00
169.6890, 15507.00
170.9150, 13959.00
172.1400, 12764.00
173.3650, 12041.00
174.5900, 11368.00
175.8150, 10905.00
177.0400, 10720.00
178.2640, 10368.00
179.4880, 10180.00
180.7130, 10043.00
181.9370, 10088.00
183.1600, 10090.00
184.3840, 10017.00
185.6080, 10164.00
186.8310, 10418.00
188.0540, 10469.00
189.2770, 10612.00
190.5000, 10771.00
191.7230, 11098.00
192.9460, 11602.00
194.1680, 12009.00
195.3910, 12835.00
196.6130, 13716.00
197.8350, 14577.00
199.0570, 15148.00
200.2780, 15935.00
201.5000, 16814.00
202.7210, 17669.00
203.9420, 18831.00
205.1640, 20250.00
206.3840, 21562.00
207.6050, 22504.00
208.8260, 22585.00
210.0460, 21237.00
211.2670, 19217.00
212.4870, 17374.00
213.7070, 15453.00
214.9270, 13986.00
216.1460, 12758.00
217.3660, 12092.00
218.5850, 11278.00
219.8050, 10844.00
221.0240, 10565.00
222.2430, 10262.00
223.4610, 10089.00
224.6800, 10084.00
225.8980, 9770.000
227.1170, 9989.000
228.3350, 10007.00
229.5530, 10095.00
230.7710, 10363.00
231.9880, 10711.00
233.2060, 11129.00
234.4230, 11709.00
235.6400, 12387.00
236.8570, 12931.00
238.0740, 14273.00
239.2910, 15906.00
240.5080, 17543.00
241.7240, 18900.00
242.9400, 18870.00
244.1570, 17688.00
245.3730, 15554.00
246.5880, 13627.00
247.8040, 12223.00
249.0190, 11246.00
250.2350, 10590.00
251.4500, 10160.00
252.6650, 9801.000
253.8800, 9791.000
255.0950, 9542.000
256.3090, 9640.000
257.5240, 9688.000
258.7380, 9719.000
259.9520, 9857.000
261.1660, 10006.00
262.3800, 10292.00
263.5930, 10549.00
264.8070, 10543.00
266.0200, 10901.00
267.2330, 11330.00
268.4460, 11811.00
269.6590, 12471.00
270.8720, 13081.00
272.0850, 12992.00
273.2970, 13188.00
274.5090, 12753.00
275.7210, 11891.00
276.9330, 11393.00
278.1450, 10727.00
279.3570, 10503.00
280.5680, 10029.00
281.7790, 9856.000
282.9910, 9825.000
284.2020, 9694.000
285.4120, 9722.000
286.6230, 9644.000
287.8340, 9633.000
289.0440, 9705.000
290.2540, 9903.000
291.4640, 9995.000
292.6740, 10003.00
293.8840, 10239.00
295.0940, 10517.00
296.3030, 10945.00
297.5120, 11258.00
298.7210, 11859.00
299.9300, 12521.00
301.1390, 13166.00
302.3480, 14265.00
303.5560, 15542.00
304.7650, 17395.00
305.9730, 19150.00
307.1810, 20383.00
308.3890, 20619.00
309.5970, 19099.00
310.8040, 16845.00
312.0120, 14725.00
313.2190, 13074.00
314.4260, 11828.00
315.6330, 10926.00
316.8400, 10483.00
318.0460, 10169.00
319.2530, 9992.000
320.4590, 9860.000
321.6650, 9782.000
322.8710, 9633.000
324.0770, 9602.000
325.2830, 9534.000
326.4880, 9565.000
327.6940, 9526.000
328.8990, 9691.000
330.1040, 9587.000
331.3090, 9733.000
332.5140, 9667.000
333.7180, 9714.000
334.9230, 9685.000
336.1270, 9643.000
337.3310, 9647.000
338.5350, 9788.000
339.7390, 9711.000
340.9430, 9624.000
342.1460, 9759.000
343.3500, 9767.000
344.5530, 9920.000
345.7560, 9818.000
346.9590, 10047.00
348.1620, 9961.000
349.3640, 10073.00
350.5670, 10258.00
351.7690, 10358.00
352.9710, 10427.00
354.1730, 10705.00
355.3750, 10749.00
356.5760, 10930.00
357.7780, 11173.00
358.9790, 11344.00
360.1800, 11572.00
361.3810, 11632.00
362.5820, 11680.00
363.7830, 11383.00
364.9830, 10999.00
366.1840, 10855.00
367.3840, 10538.00
368.5840, 10339.00
369.7840, 10209.00
370.9840, 9936.000
372.1830, 9856.000
373.3830, 9980.000
374.5820, 9740.000
375.7810, 9835.000
376.9800, 9769.000
378.1790, 9700.000
379.3780, 9837.000
380.5760, 9869.000
381.7750, 9907.000
382.9730, 9822.000
384.1710, 9853.000
385.3690, 9720.000
386.5660, 9861.000
387.7640, 9917.000
388.9610, 9947.000
390.1590, 9882.000
391.3560, 9945.000
392.5530, 9885.000
393.7500, 9978.000
394.9460, 10015.00
396.1430, 10043.00
397.3390, 9959.000
398.5350, 10281.00
399.7310, 10229.00
400.9270, 10193.00
402.1230, 10432.00
403.3180, 10455.00
404.5140, 10455.00
405.7090, 10627.00
406.9040, 10719.00
408.0990, 11017.00
409.2930, 11108.00
410.4880, 11211.00
411.6820, 11385.00
412.8770, 11611.00
414.0710, 11600.00
415.2650, 11683.00
416.4590, 11691.00
417.6520, 11664.00
418.8460, 11611.00
420.0390, 11735.00
421.2320, 11734.00
422.4250, 11949.00
423.6180, 12017.00
424.8110, 12381.00
426.0030, 12864.00
427.1960, 13312.00
428.3880, 14050.00
429.5800, 15010.00
430.7720, 16261.00
431.9640, 17922.00
433.1550, 20079.00
434.3470, 22689.00
435.5380, 25880.00
436.7290, 29650.00
437.9200, 34316.00
439.1110, 40480.00
440.3020, 47099.00
441.4920, 53534.00
442.6820, 57107.00
443.8730, 55457.00
445.0630, 49822.00
446.2530, 42093.00
447.4420, 34644.00
448.6320, 28319.00
449.8210, 23814.00
451.0100, 20225.00
452.2000, 17945.00
453.3880, 16229.00
454.5770, 14888.00
455.7660, 14174.00
456.9540, 13509.00
458.1430, 13032.00
459.3310, 12762.00
460.5190, 12294.00
461.7070, 12047.00
462.8940, 11731.00
464.0820, 11655.00
465.2690, 11446.00
466.4560, 11333.00
467.6430, 11427.00
468.8300, 11400.00
470.0170, 11190.00
471.2040, 11254.00
472.3900, 11047.83
473.5760, 11039.78
474.7620, 11028.48
475.9480, 11014.56
477.1340, 10963.71
478.3200, 10980.82
479.5050, 10983.08
480.6900, 10993.20
481.8750, 11045.12
483.0600, 11045.11
484.2450, 11114.18
485.4300, 11168.03
486.6140, 11273.00
487.7990, 11269.00
488.9830, 11014.00
490.1670, 11272.00
491.3510, 11432.00
492.5350, 11345.00
493.7180, 11487.00
494.9020, 11446.00
496.0850, 11641.00
497.2680, 11818.00
498.4510, 11663.00
499.6340, 11888.00
500.8160, 11936.00
501.9990, 12106.00
503.1810, 12115.00
504.3630, 12558.00
505.5450, 12704.00
506.7270, 13708.00
507.9090, 13255.00
509.0900, 13390.00
510.2720, 13740.00
511.4530, 13904.00
512.6340, 14318.00
513.8150, 14739.00
514.9950, 15619.00
516.1760, 15608.00
517.3560, 15666.00
518.5370, 16072.00
519.7170, 16702.00
520.8970, 16853.00
522.0770, 17474.00
523.2560, 18020.00
524.4360, 18978.00
525.6150, 20009.00
526.7940, 21315.00
527.9730, 23117.00
529.1520, 24977.00
530.3310, 27704.00
531.5090, 30649.00
532.6870, 33926.00
533.8660, 35699.00
535.0440, 36079.00
536.2210, 34062.00
537.3990, 30965.00
538.5770, 27907.00
539.7540, 24445.00
540.9310, 21486.00
542.1080, 19246.00
543.2850, 17721.00
544.4620, 16555.00
545.6390, 15423.00
546.8150, 14851.00
547.9920, 14212.00
549.1680, 13806.00
550.3440, 13399.00
551.5190, 13048.00
552.6950, 13083.00
553.8710, 12749.00
555.0460, 12635.00
556.2210, 12429.00
557.3960, 12382.00
558.5710, 12182.00
559.7460, 12306.00
560.9200, 12051.00
562.0950, 12094.00
563.2690, 12198.00
564.4430, 12227.00
565.6170, 12113.00
566.7910, 12066.00
567.9640, 12079.00
569.1380, 11998.00
570.3110, 11875.00
571.4840, 11984.00
572.6570, 11991.00
573.8300, 11959.00
575.0030, 12062.00
576.1750, 11907.00
577.3470, 11984.00
578.5200, 11990.00
579.6920, 12080.00
580.8630, 12161.00
582.0350, 12079.00
583.2070, 12171.00
584.3780, 12204.00
585.5490, 12353.00
586.7200, 12401.00
587.8910, 12331.00
589.0620, 12538.00
590.2330, 12662.00
591.4030, 12802.00
592.5730, 13011.00
593.7430, 13353.00
594.9130, 13405.00
596.0830, 13537.00
597.2530, 13791.00
598.4220, 13767.00
599.5920, 13729.00
600.7610, 13630.00
601.9300, 13462.00
603.0990, 13055.00
604.2670, 12890.00
605.4360, 12594.00
606.6040, 12566.00
607.7720, 12395.00
608.9400, 12441.00
610.1080, 12190.00
611.2760, 12212.00
612.4440, 12146.00
613.6110, 12161.00
614.7780, 12331.00
615.9450, 12125.00
617.1120, 12202.00
618.2790, 12235.00
619.4460, 12176.00
620.6120, 12214.00
621.7780, 12289.00
622.9450, 12313.00
624.1110, 12411.00
625.2760, 12362.00
626.4420, 12296.00
627.6080, 12260.00
628.7730, 12098.00
629.9380, 12037.00
631.1030, 12277.00
632.2680, 12054.00
633.4330, 12261.00
634.5970, 12301.00
635.7620, 12249.00
636.9260, 12241.00
638.0900, 12230.00
639.2540, 12133.00
640.4180, 12198.00
641.5810, 12282.00
642.7450, 12281.00
643.9080, 12375.00
645.0710, 12469.00
646.2340, 12406.00
647.3970, 12488.00
648.5590, 12507.00
649.7220, 12636.00
650.8840, 12572.00
652.0460, 12476.00
653.2080, 12583.00
654.3700, 12514.00
655.5320, 12417.00
656.6930, 12591.00
657.8550, 12701.00
659.0160, 12677.00
660.1770, 12672.00
661.3380, 12574.00
662.4990, 12484.00
663.6590, 12513.00
664.8200, 12407.00
665.9800, 12469.00
667.1400, 12520.00
668.3000, 12672.00
669.4600, 12660.00
670.6190, 12453.00
671.7790, 12517.00
672.9380, 12697.00
674.0970, 12644.00
675.2560, 12640.00
676.4150, 12742.00
677.5740, 12765.00
678.7320, 12794.00
679.8900, 12812.00
681.0490, 12886.00
682.2070, 13019.00
683.3640, 13066.00
684.5220, 13256.00
685.6800, 13104.00
686.8370, 13304.00
687.9940, 13446.00
689.1510, 13728.00
690.3080, 13715.00
691.4650, 13801.00
692.6220, 14144.00
693.7780, 14405.00
694.9340, 14510.00
696.0900, 14927.00
697.2460, 15315.00
698.4020, 15525.00
699.5580, 15808.00
700.7130, 15883.00
701.8680, 16220.00
703.0240, 16510.00
704.1790, 16327.00
705.3330, 16395.00
706.4880, 16221.00
707.6430, 15888.00
708.7970, 15539.00
709.9510, 15402.00
711.1050, 15170.00
712.2590, 14997.00
713.4130, 14589.00
714.5660, 14629.00
715.7200, 14493.00
716.8730, 14415.00
718.0260, 14414.00
719.1790, 14232.00
720.3320, 14415.00
721.4840, 14323.00
722.6370, 14470.00
723.7890, 14491.00
724.9410, 14449.00
726.0930, 14568.00
727.2450, 14587.00
728.3960, 14734.00
729.5480, 14514.00
730.6990, 14399.00
731.8500, 14215.00
733.0010, 13802.00
734.1520, 13732.00
735.3030, 13706.00
736.4530, 13460.00
737.6040, 13332.00
738.7540, 13119.00
739.9040, 13193.00
741.0540, 13112.00
742.2030, 13098.00
743.3530, 12969.00
744.5020, 13009.00
745.6520, 12931.00
746.8010, 12940.00
747.9490, 12955.00
749.0980, 12876.00
750.2470, 12850.00
751.3950, 13008.00
752.5440, 12950.00
753.6920, 12881.00
754.8400, 12906.00
755.9870, 12920.00
757.1350, 13033.00
758.2820, 12970.00
759.4300, 12982.00
760.5770, 12958.00
761.7240, 12995.00
762.8710, 13035.00
764.0170, 12950.00
765.1640, 12943.00
766.3100, 13187.00
767.4560, 13082.00
768.6020, 12851.00
769.7480, 13100.00
770.8940, 13105.00
772.0400, 13011.00
773.1850, 12911.00
774.3300, 13132.00
775.4750, 13173.00
776.6200, 12957.00
777.7650, 13086.00
778.9090, 13163.00
780.0540, 13109.00
781.1980, 13014.00
782.3420, 13026.00
783.4860, 13107.00
784.6300, 13194.00
785.7740, 13122.00
786.9170, 13100.00
788.0600, 13139.00
789.2030, 13102.00
790.3460, 13242.00
791.4890, 13237.00
792.6320, 13348.00
793.7740, 13191.00
794.9170, 13255.00
796.0590, 13319.00
797.2010, 13255.00
798.3430, 13243.00
799.4850, 13309.00
800.6260, 13440.00
801.7670, 13304.00
802.9090, 13324.00
804.0500, 13538.00
805.1910, 13332.00
806.3310, 13388.00
807.4720, 13508.00
808.6120, 13418.00
809.7530, 13565.00
810.8930, 13501.00
812.0330, 13350.00
813.1720, 13409.00
814.3120, 13503.00
815.4510, 13456.00
816.5910, 13507.00
817.7300, 13599.00
818.8690, 13557.00
820.0080, 13751.00
821.1460, 13604.00
822.2850, 13628.00
823.4230, 13559.00
824.5610, 13698.00
825.6990, 14180.00
826.8370, 13945.00
827.9750, 13859.00
829.1120, 13751.00
830.2500, 13640.00
831.3870, 13723.00
832.5240, 13784.00
833.6610, 13914.00
834.7980, 13814.00
835.9340, 13856.00
837.0700, 13701.00
838.2070, 13821.00
839.3430, 13866.00
840.4790, 13869.00
841.6140, 13948.00
842.7500, 13962.00
843.8850, 14091.00
845.0210, 13980.00
846.1560, 14054.00
847.2910, 13891.00
848.4260, 13853.00
849.5600, 14003.00
850.6950, 13998.00
851.8290, 14122.00
852.9630, 14125.00
854.0970, 14216.00
855.2310, 13985.00
856.3650, 14293.00
857.4980, 14081.00
858.6310, 14352.00
859.7650, 14355.00
860.8980, 14246.00
862.0310, 14309.00
863.1630, 14297.00
864.2960, 14354.00
865.4280, 14280.00
866.5600, 14289.00
867.6920, 14305.00
868.8240, 14247.00
869.9560, 14135.00
871.0880, 14185.00
872.2190, 14237.00
873.3500, 14239.00
874.4810, 14291.00
875.6120, 14204.00
876.7430, 14219.00
877.8740, 14459.00
879.0040, 14337.00
880.1340, 14349.00
881.2650, 14273.00
882.3950, 14129.00
883.5240, 14292.00
884.6540, 14339.00
885.7830, 14411.00
886.9130, 14415.00
888.0420, 14352.00
889.1710, 14259.00
890.3000, 14238.00
891.4280, 14337.00
892.5570, 14372.00
893.6850, 14388.00
894.8130, 14331.00
895.9420, 14424.00
897.0690, 14396.00
898.1970, 14379.00
899.3250, 14410.00
900.4520, 14299.00
901.5790, 14398.00
902.7060, 14325.00
903.8330, 14499.00
904.9600, 14406.00
906.0870, 14425.00
907.2130, 14461.00
908.3390, 14434.00
909.4650, 14541.00
910.5910, 14463.00
911.7170, 14549.00
912.8430, 14561.00
913.9680, 14542.00
915.0930, 14514.00
916.2180, 14527.00
917.3430, 14488.00
918.4680, 14518.00
919.5930, 14637.00
920.7170, 14572.00
921.8420, 14586.00
922.9660, 14542.00
924.0900, 14618.00
925.2140, 14492.00
926.3370, 14562.00
927.4610, 14796.00
928.5840, 14598.00
929.7070, 14710.00
930.8310, 14540.00
931.9530, 14562.00
933.0760, 14821.00
934.1990, 14732.00
935.3210, 14781.00
936.4430, 14829.00
937.5650, 14788.00
938.6870, 14873.00
939.8090, 15052.00
940.9310, 14804.00
942.0520, 14976.00
943.1730, 14970.00
944.2940, 14969.00
945.4150, 15059.00
946.5360, 15258.00
947.6570, 15160.00
948.7770, 15275.00
949.8970, 15446.00
951.0180, 15492.00
952.1370, 15605.00
953.2570, 15796.00
954.3770, 15938.00
955.4960, 16344.00
956.6160, 16771.00
957.7350, 17041.00
958.8540, 17553.00
959.9730, 18448.00
961.0910, 19248.00
962.2100, 19956.00
963.3280, 21107.00
964.4460, 21843.00
965.5640, 22505.00
966.6820, 22412.00
967.8000, 21763.00
968.9180, 20659.00
970.0350, 19707.00
971.1520, 18788.00
972.2690, 17973.00
973.3860, 17596.00
974.5030, 16875.00
975.6190, 16676.00
976.7360, 16334.00
977.8520, 16267.00
978.9680, 15931.00
980.0840, 16081.00
981.2000, 15741.00
982.3160, 15676.00
983.4310, 15640.00
984.5460, 15652.00
985.6610, 15766.00
986.7760, 15662.00
987.8910, 15661.00
989.0060, 15756.00
990.1200, 15841.00
991.2350, 15788.00
992.3490, 16045.00
993.4630, 16167.00
994.5760, 16399.00
995.6900, 16568.00
996.8040, 16813.00
997.9170, 17103.00
999.0300, 17372.00
1000.143, 17159.00
1001.256, 16993.00
1002.369, 16972.00
1003.481, 16415.00
1004.594, 16055.00
1005.706, 16158.00
1006.818, 15887.00
1007.930, 15794.00
1009.042, 15852.00
1010.153, 15667.00
1011.264, 15731.00
1012.376, 15907.00
1013.487, 15634.00
1014.598, 15754.00
1015.708, 15821.00
1016.819, 15859.00
1017.929, 16009.00
1019.040, 15877.00
1020.150, 15887.00
1021.260, 16028.00
1022.370, 15969.00
1023.479, 16094.00
1024.589, 16190.00
1025.698, 15935.00
1026.807, 16080.00
1027.916, 16100.00
1029.025, 16269.00
1030.133, 16430.00
1031.242, 16550.00
1032.350, 16664.00
1033.458, 17096.00
1034.566, 17306.00
1035.674, 17839.00
1036.782, 18336.00
1037.890, 19074.00
1038.997, 19401.00
1040.104, 19776.00
1041.211, 19694.00
1042.318, 19393.00
1043.425, 19080.00
1044.531, 18306.00
1045.638, 17694.00
1046.744, 17643.00
1047.850, 17056.55
1048.956, 16963.36
1050.061, 16868.87
1051.167, 16773.50
1052.272, 16643.13
1053.378, 16582.46
1054.483, 16508.87
1055.588, 16444.97
1056.692, 16424.75
1057.797, 16354.40
1058.901, 16354.98
1060.006, 16342.15
1061.110, 16351.00
1062.214, 16346.68
1063.318, 16360.36
1064.421, 16408.51
1065.525, 16454.13
1066.628, 16489.62
1067.731, 16563.00
1068.834, 16598.29
1069.937, 16686.98
1071.040, 16804.76
1072.142, 16894.50
1073.244, 17021.38
1074.347, 17269.00
1075.449, 17177.00
1076.550, 17550.00
1077.652, 17518.00
1078.754, 17525.00
1079.855, 18014.00
1080.956, 18024.42
1082.057, 18219.53
1083.158, 18336.62
1084.259, 18376.35
1085.359, 18304.44
1086.460, 18225.73
1087.560, 18057.57
1088.660, 17822.67
1089.760, 17554.95
1090.860, 17379.00
1091.959, 17497.00
1093.059, 17201.00
1094.158, 17054.00
1095.257, 17005.00
1096.356, 17125.00
1097.455, 16744.00
1098.553, 16816.00
1099.652, 16734.00
1100.750, 16700.00
1101.848, 16747.00
1102.946, 16772.00
1104.044, 16579.00
1105.141, 16629.00
1106.239, 16655.00
1107.336, 16475.00
1108.433, 16373.00
1109.530, 16516.00
1110.627, 16403.00
1111.724, 16785.00
1112.820, 16586.00
1113.917, 16457.00
1115.013, 16681.00
1116.109, 16617.00
1117.205, 16603.00
1118.300, 16589.00
1119.396, 16616.00
1120.491, 16593.00
1121.586, 16693.00
1122.681, 16670.00
1123.776, 16553.00
1124.871, 16623.00
1125.965, 16728.00
1127.060, 16565.00
1128.154, 16580.00
1129.248, 16603.00
1130.342, 16687.00
1131.436, 16713.00
1132.529, 16935.00
1133.623, 16652.00
1134.716, 16548.00
1135.809, 16704.00
1136.902, 16668.00
1137.995, 16670.00
1139.087, 16681.00
1140.180, 16676.00
1141.272, 16699.00
1142.364, 16782.00
1143.456, 16691.00
1144.548, 16823.00
1145.639, 16768.00
1146.731, 16805.00
1147.822, 16815.00
1148.913, 16849.00
1150.004, 16788.00
1151.095, 16719.00
1152.186, 16785.00
1153.276, 16788.00
1154.366, 16724.00
1155.457, 16768.00
1156.546, 16730.00
1157.636, 16709.00
1158.726, 17057.00
1159.815, 16934.00
1160.905, 16805.00
1161.994, 16922.00
1163.083, 16808.00
1164.172, 16870.00
1165.261, 16960.00
1166.349, 16848.00
1167.437, 16965.00
1168.526, 17063.00
1169.614, 17006.00
1170.702, 17036.00
1171.789, 17059.00
1172.877, 16958.00
1173.964, 17046.00
1175.051, 17167.00
1176.138, 16964.00
1177.225, 17019.00
1178.312, 17169.00
1179.399, 17078.00
1180.485, 16884.00
1181.571, 17295.00
1182.657, 17235.00
1183.743, 17022.00
1184.829, 17193.00
1185.915, 17135.00
1187.000, 17135.00
1188.085, 17105.00
1189.171, 17034.00
1190.255, 17104.00
1191.340, 17007.00
1192.425, 17085.00
1193.509, 17096.00
1194.594, 17215.00
1195.678, 17139.00
1196.762, 17127.00
1197.846, 17098.00
1198.929, 17270.00
1200.013, 17235.00
1201.096, 17233.00
1202.179, 17251.00
1203.262, 17297.00
1204.345, 17195.00
1205.428, 17253.00
1206.510, 17289.00
1207.593, 17449.00
1208.675, 17254.00
1209.757, 17315.00
1210.839, 17331.00
1211.920, 17455.00
1213.002, 17327.00
1214.083, 17267.00
1215.164, 17366.00
1216.245, 17435.00
1217.326, 17567.00
1218.407, 17316.00
1219.488, 17381.00
1220.568, 17575.00
1221.648, 17595.00
1222.728, 17479.00
1223.808, 17419.00
1224.888, 17501.00
1225.967, 17444.00
1227.047, 17406.00
1228.126, 17523.00
1229.205, 17391.00
1230.284, 17518.00
1231.363, 17500.00
1232.441, 17614.00
1233.520, 17537.00
1234.598, 17579.00
1235.676, 17675.00
1236.754, 17558.00
1237.832, 17548.00
1238.910, 17572.00
1239.987, 17708.00
1241.064, 17684.00
1242.141, 17627.00
1243.218, 17764.00
1244.295, 17525.00
1245.372, 17496.00
1246.448, 17773.00
1247.525, 17731.00
1248.601, 17681.00
1249.677, 17706.00
1250.753, 17747.00
1251.828, 17770.00
1252.904, 17787.00
1253.979, 17683.00
1255.054, 17697.00
1256.129, 17689.00
1257.204, 17779.00
1258.279, 17843.00
1259.353, 17848.00
1260.428, 17895.00
1261.502, 17929.00
1262.576, 17831.00
1263.650, 17899.00
1264.724, 17818.00
1265.797, 17998.00
1266.871, 17935.00
1267.944, 17925.00
1269.017, 17990.00
1270.090, 18145.00
1271.162, 17979.00
1272.235, 18051.00
1273.307, 17892.00
1274.380, 17810.00
1275.452, 18081.00
1276.524, 18031.00
1277.595, 18016.00
1278.667, 18144.00
1279.738, 18111.00
1280.810, 18007.00
1281.881, 17981.00
1282.952, 17911.00
1284.022, 18020.00
1285.093, 18099.00
1286.164, 18158.00
1287.234, 18023.00
1288.304, 18064.00
1289.374, 18091.00
1290.444, 18217.00
1291.513, 18151.00
1292.583, 18231.00
1293.652, 18057.00
1294.721, 18179.00
1295.790, 18179.00
1296.859, 18287.00
1297.928, 18239.00
1298.996, 18151.00
1300.064, 18101.00
1301.133, 18065.00
1302.201, 18263.00
1303.268, 18073.00
1304.336, 18220.00
1305.404, 18241.00
1306.471, 18181.00
1307.538, 18301.00
1308.605, 18276.00
1309.672, 18415.00
1310.739, 18423.00
1311.805, 18435.00
1312.872, 18531.00
1313.938, 18244.00
1315.004, 18404.00
1316.070, 18528.00
1317.135, 18656.00
1318.201, 18397.00
1319.266, 18374.00
1320.332, 18439.00
1321.397, 18411.00
1322.462, 18519.00
1323.526, 18580.00
1324.591, 18477.00
1325.655, 18473.00
1326.720, 18416.00
1327.784, 18555.00
1328.848, 18573.00
1329.911, 18346.00
1330.975, 18457.00
1332.038, 18481.00
1333.102, 18492.00
1334.165, 18469.00
1335.228, 18425.00
1336.290, 18328.10
1337.353, 18565.22
1338.415, 18702.45
1339.478, 18745.15
1340.540, 18410.22
1341.602, 18562.93
1342.664, 18520.21
1343.725, 18469.46
1344.787, 18690.80
1345.848, 18410.79
1346.909, 18627.79
1347.970, 18646.40
1349.031, 18755.81
1350.092, 18668.60
1351.152, 18642.11
1352.212, 18812.30
1353.273, 18873.60
1354.333, 18763.74
1355.392, 18878.91
1356.452, 18592.02
1357.512, 18657.95
1358.571, 18876.09
1359.630, 18776.11
1360.689, 18894.87
1361.748, 18930.32
1362.807, 18587.17
1363.865, 18902.44
1364.924, 18932.97
1365.982, 18671.11
1367.040, 18963.82
1368.098, 18742.27
1369.155, 18704.28
1370.213, 18804.43
1371.270, 18760.56
1372.328, 18943.75
1373.385, 18908.20
1374.442, 18853.11
1375.498, 18883.29
1376.555, 18671.82
1377.611, 18908.68
1378.668, 18839.29
1379.724, 18922.13
1380.780, 19039.47
1381.835, 18892.59
1382.891, 19025.44
1383.946, 18724.51
1385.002, 18786.54
1386.057, 18809.47
1387.112, 19064.40
1388.166, 18765.57
1389.221, 18817.51
1390.275, 19018.78
1391.330, 19011.09
1392.384, 19090.76
1393.438, 18911.78
1394.492, 18975.79
1395.545, 18972.81
1396.599, 19201.28
1397.652, 19247.03
1398.705, 19072.43
1399.758, 18898.77
1400.811, 19143.88
1401.863, 18992.06
1402.916, 19054.39
1403.968, 18895.55
1405.020, 18927.67
1406.072, 18956.75
1407.124, 19083.73
1408.176, 18913.88
1409.227, 19129.05
1410.279, 19121.69
1411.330, 19179.88
1412.381, 19230.77
1413.432, 18983.05
1414.482, 18980.11
1415.533, 19327.46
1416.583, 19140.61
1417.633, 19061.57
1418.684, 19059.19
1419.733, 19418.52
1420.783, 19441.64
1421.833, 19062.88
1422.882, 19406.26
1423.931, 19305.36
1424.980, 19336.49
1426.029, 19319.45
1427.078, 19316.66
1428.126, 19132.50
1429.175, 19187.36
1430.223, 19436.55
1431.271, 19354.42
1432.319, 19497.43
1433.367, 19230.13
1434.414, 19206.38
1435.462, 19247.27
1436.509, 19284.00
1437.556, 19542.00
1438.603, 19654.00
1439.650, 19446.00
1440.696, 19775.00
1441.743, 19913.00
1442.789, 19780.00
1443.835, 19702.00
1444.881, 19657.00
1445.927, 19700.00
1446.972, 19744.00
1448.018, 19886.00
1449.063, 19779.00
1450.108, 19806.00
1451.153, 20006.00
1452.198, 20118.00
1453.243, 19827.00
1454.287, 19880.00
1455.331, 19998.00
1456.376, 19824.00
1457.420, 20061.00
1458.463, 19953.00
1459.507, 19781.00
1460.550, 19996.00
1461.594, 19729.00
1462.637, 19924.00
1463.680, 19825.00
1464.723, 19969.00
1465.765, 19616.00
1466.808, 19770.00
1467.850, 19999.00
1468.892, 19541.00
1469.934, 19975.00
1470.976, 19890.00
1472.018, 19780.00
1473.060, 19885.00
1474.101, 19918.00
1475.142, 19853.00
1476.183, 19773.00
1477.224, 19873.00
1478.265, 19914.00
1479.305, 19788.00
1480.346, 19779.00
1481.386, 19916.00
1482.426, 19889.00
1483.466, 19977.00
1484.505, 19959.00
1485.545, 19757.00
1486.584, 19767.00
1487.624, 19726.00
1488.663, 19898.00
1489.702, 19765.00
1490.740, 19743.00
1491.779, 19902.00
1492.817, 19862.00
1493.856, 19866.00
1494.894, 19825.00
1495.932, 19885.00
1496.969, 19953.00
1498.007, 19791.00
1499.044, 20005.00
1500.082, 20001.00
1501.119, 19847.00
1502.156, 20005.00
1503.192, 19890.00
1504.229, 19674.00
1505.265, 19971.00
1506.302, 20094.00
1507.338, 20063.00
1508.374, 19813.00
1509.410, 20125.00
1510.445, 20001.00
1511.481, 19902.00
1512.516, 19856.00
1513.551, 20031.00
1514.586, 19844.00
1515.621, 20112.00
1516.655, 20019.00
1517.690, 19936.00
1518.724, 19919.00
1519.758, 20040.00
1520.792, 19948.00
1521.826, 20243.00
1522.860, 20185.00
1523.893, 20102.00
1524.927, 20172.00
1525.960, 20453.00
1526.993, 19998.00
1528.026, 20078.00
1529.058, 20328.00
1530.091, 20082.00
1531.123, 20177.00
1532.155, 20230.00
1533.187, 20135.00
1534.219, 20217.00
1535.251, 20363.00
1536.282, 20156.00
1537.314, 20501.00
1538.345, 20475.00
1539.376, 20303.00
1540.407, 20196.00
1541.438, 20386.00
1542.468, 20270.00
1543.499, 20270.00
1544.529, 20342.00
1545.559, 20294.00
1546.589, 20293.00
1547.618, 20496.00
1548.648, 20378.00
1549.677, 20311.00
1550.707, 20467.00
1551.736, 20421.00
1552.765, 20235.00
1553.793, 20417.00
1554.822, 20453.00
1555.850, 20489.00
1556.879, 20365.00
1557.907, 20417.00
1558.935, 20161.00
1559.962, 20337.00
1560.990, 20410.00
1562.017, 20404.00
1563.045, 20291.00
1564.072, 20483.00
1565.099, 20251.00
1566.125, 20256.00
1567.152, 20526.00
1568.179, 20286.00
1569.205, 20475.00
##END=



