##NAMES=Natrolite
##RRUFFID=R060561
##IDEAL CHEMISTRY=Na_2_(Si_3_Al_2_)O_10_&#183;2H_2_O
##LOCALITY=California, USA
##OWNER=RRUFF
##SOURCE=Gemological Institute of America
##DESCRIPTION=White fragment
##STATUS=The identification of this mineral has been confirmed by X-ray diffraction and chemical analysis
##URL=rruff.info/R060561
##MEASURED CHEMISTRY=Na_2.00_(Si_3.00_Al_2.00_)O_10_Â·2H_2_O
##PIN_ID=L00568
##ORIENTATION=Laser parallel to b* (0 1 0). Fiducial mark perpendicular to laser is parallel to c [0 0 1]
97.11800, 921.0000
98.35200, 1030.000
99.58700, 1111.000
100.8210, 1318.000
102.0550, 1635.000
103.2890, 2089.000
104.5220, 3108.000
105.7560, 5130.000
106.9890, 9046.000
108.2230, 16584.00
109.4560, 21688.00
110.6890, 14317.00
111.9210, 8106.000
113.1540, 7889.000
114.3870, 8301.000
115.6190, 8495.000
116.8510, 8093.000
118.0830, 8682.000
119.3150, 9880.000
120.5470, 11936.00
121.7780, 14733.00
123.0100, 15974.00
124.2410, 14717.00
125.4720, 12838.00
126.7030, 11370.00
127.9340, 10616.00
129.1640, 10495.00
130.3950, 10877.00
131.6250, 11684.00
132.8550, 12630.00
134.0850, 13664.00
135.3150, 14708.00
136.5450, 16055.00
137.7750, 17679.00
139.0040, 19334.00
140.2330, 21242.00
141.4620, 22965.00
142.6910, 24342.00
143.9200, 24083.00
145.1490, 22914.00
146.3770, 20825.00
147.6060, 18446.00
148.8340, 16592.00
150.0620, 15416.00
151.2900, 15087.00
152.5170, 15225.00
153.7450, 15778.00
154.9720, 16417.00
156.2000, 17413.00
157.4270, 18935.00
158.6540, 20689.00
159.8810, 22927.00
161.1070, 25308.00
162.3340, 26688.00
163.5600, 27051.00
164.7860, 26152.00
166.0120, 24279.00
167.2380, 21840.00
168.4640, 19489.00
169.6890, 17658.00
170.9150, 16091.00
172.1400, 15009.00
173.3650, 14148.00
174.5900, 13543.00
175.8150, 13001.00
177.0400, 12887.00
178.2640, 12551.00
179.4880, 12453.00
180.7130, 12437.00
181.9370, 12332.00
183.1600, 12421.00
184.3840, 12917.00
185.6080, 12862.00
186.8310, 12812.00
188.0540, 12732.00
189.2770, 12588.00
190.5000, 12626.00
191.7230, 12783.00
192.9460, 12718.00
194.1680, 13390.00
195.3910, 13995.00
196.6130, 14550.00
197.8350, 15165.00
199.0570, 15920.00
200.2780, 16502.00
201.5000, 17014.00
202.7210, 17739.00
203.9420, 18472.00
205.1640, 19263.00
206.3840, 20256.00
207.6050, 20655.00
208.8260, 20416.00
210.0460, 19271.00
211.2670, 18035.00
212.4870, 16553.00
213.7070, 15414.00
214.9270, 14599.00
216.1460, 13972.00
217.3660, 13494.00
218.5850, 13399.00
219.8050, 12851.00
221.0240, 12448.00
222.2430, 11967.00
223.4610, 11722.00
224.6800, 11397.00
225.8980, 11190.00
227.1170, 11183.00
228.3350, 11051.00
229.5530, 11294.00
230.7710, 11419.00
231.9880, 11837.00
233.2060, 12101.00
234.4230, 12589.00
235.6400, 13086.00
236.8570, 13690.00
238.0740, 14579.00
239.2910, 15880.00
240.5080, 16987.00
241.7240, 17620.00
242.9400, 17578.00
244.1570, 16238.00
245.3730, 14764.00
246.5880, 13267.00
247.8040, 12305.00
249.0190, 11685.00
250.2350, 11168.00
251.4500, 10993.00
252.6650, 10758.00
253.8800, 10551.00
255.0950, 10633.00
256.3090, 10561.00
257.5240, 10724.00
258.7380, 10764.00
259.9520, 10776.00
261.1660, 10835.00
262.3800, 11245.00
263.5930, 11343.00
264.8070, 11552.00
266.0200, 11850.00
267.2330, 11977.00
268.4460, 12439.00
269.6590, 12784.00
270.8720, 13189.00
272.0850, 13220.00
273.2970, 12964.00
274.5090, 12730.00
275.7210, 12421.00
276.9330, 11950.00
278.1450, 11613.00
279.3570, 11373.00
280.5680, 11158.00
281.7790, 11158.00
282.9910, 10975.00
284.2020, 11052.00
285.4120, 11144.00
286.6230, 11179.00
287.8340, 11335.00
289.0440, 11324.00
290.2540, 11404.00
291.4640, 11445.00
292.6740, 11545.00
293.8840, 11734.00
295.0940, 11963.00
296.3030, 12413.00
297.5120, 12807.00
298.7210, 13454.00
299.9300, 13970.00
301.1390, 14559.00
302.3480, 15678.00
303.5560, 16753.00
304.7650, 18128.00
305.9730, 19570.00
307.1810, 20382.00
308.3890, 20136.00
309.5970, 18448.00
310.8040, 16556.00
312.0120, 14872.00
313.2190, 13479.00
314.4260, 12557.00
315.6330, 12191.00
316.8400, 11630.00
318.0460, 11542.00
319.2530, 11435.00
320.4590, 11408.00
321.6650, 11495.00
322.8710, 11366.00
324.0770, 11451.00
325.2830, 11423.00
326.4880, 11739.00
327.6940, 11837.00
328.8990, 12130.00
330.1040, 12334.00
331.3090, 12577.00
332.5140, 12704.00
333.7180, 12733.00
334.9230, 12454.00
336.1270, 12289.00
337.3310, 11987.00
338.5350, 11985.00
339.7390, 12005.00
340.9430, 11907.00
342.1460, 11844.00
343.3500, 11901.00
344.5530, 11790.00
345.7560, 11930.00
346.9590, 12142.00
348.1620, 12124.00
349.3640, 12256.00
350.5670, 12387.00
351.7690, 12472.00
352.9710, 12615.00
354.1730, 12872.00
355.3750, 13051.00
356.5760, 13499.00
357.7780, 13758.00
358.9790, 13858.00
360.1800, 14332.00
361.3810, 14190.00
362.5820, 13949.00
363.7830, 13546.00
364.9830, 13044.00
366.1840, 12562.00
367.3840, 12286.00
368.5840, 11957.00
369.7840, 11787.00
370.9840, 11519.00
372.1830, 11378.00
373.3830, 11269.00
374.5820, 11279.00
375.7810, 11304.00
376.9800, 11217.00
378.1790, 11081.00
379.3780, 11164.00
380.5760, 11073.00
381.7750, 11181.00
382.9730, 11148.00
384.1710, 11025.00
385.3690, 11022.00
386.5660, 11149.00
387.7640, 11223.00
388.9610, 11173.00
390.1590, 11289.00
391.3560, 11248.00
392.5530, 11403.00
393.7500, 11370.00
394.9460, 11415.00
396.1430, 11528.00
397.3390, 11559.00
398.5350, 11601.00
399.7310, 11529.18
400.9270, 11969.24
402.1230, 12336.25
403.3180, 12633.42
404.5140, 12681.74
405.7090, 13029.22
406.9040, 13243.14
408.0990, 13442.28
409.2930, 13803.99
410.4880, 13838.41
411.6820, 14178.02
412.8770, 14382.34
414.0710, 14634.38
415.2650, 14666.00
416.4590, 14456.00
417.6520, 14273.00
418.8460, 14332.00
420.0390, 14134.00
421.2320, 14446.00
422.4250, 14127.00
423.6180, 14150.00
424.8110, 14522.00
426.0030, 14803.00
427.1960, 15112.00
428.3880, 15871.00
429.5800, 16658.00
430.7720, 18109.00
431.9640, 19748.00
433.1550, 21755.00
434.3470, 24356.00
435.5380, 27262.00
436.7290, 30769.00
437.9200, 34858.00
439.1110, 40062.00
440.3020, 45474.00
441.4920, 50018.00
442.6820, 51574.00
443.8730, 49387.00
445.0630, 43728.00
446.2530, 37043.00
447.4420, 31287.00
448.6320, 26429.00
449.8210, 23037.00
451.0100, 20193.00
452.2000, 18379.00
453.3880, 16932.00
454.5770, 15854.00
455.7660, 15348.00
456.9540, 14827.00
458.1430, 14419.00
459.3310, 14118.00
460.5190, 13987.00
461.7070, 13639.00
462.8940, 13490.00
464.0820, 13404.00
465.2690, 13330.00
466.4560, 13159.00
467.6430, 13051.00
468.8300, 13036.00
470.0170, 13108.00
471.2040, 13059.00
472.3900, 13147.00
473.5760, 13236.00
474.7620, 13014.00
475.9480, 13291.00
477.1340, 13178.00
478.3200, 13145.00
479.5050, 13308.00
480.6900, 13405.00
481.8750, 13341.00
483.0600, 13389.00
484.2450, 13397.00
485.4300, 13589.00
486.6140, 13766.00
487.7990, 13700.00
488.9830, 13650.60
490.1670, 13904.26
491.3510, 14112.53
492.5350, 14278.80
493.7180, 14223.48
494.9020, 14495.31
496.0850, 14661.01
497.2680, 14839.53
498.4510, 15208.40
499.6340, 15277.38
500.8160, 15679.06
501.9990, 15973.09
503.1810, 16342.31
504.3630, 16604.76
505.5450, 16986.00
506.7270, 17431.00
507.9090, 18098.00
509.0900, 18232.00
510.2720, 18932.00
511.4530, 19316.00
512.6340, 20038.00
513.8150, 20540.00
514.9950, 20920.00
516.1760, 21675.00
517.3560, 22093.00
518.5370, 22792.00
519.7170, 23452.00
520.8970, 24480.00
522.0770, 25659.00
523.2560, 27541.00
524.4360, 29359.00
525.6150, 31999.00
526.7940, 35128.00
527.9730, 38225.00
529.1520, 42127.00
530.3310, 46230.00
531.5090, 50705.00
532.6870, 54593.00
533.8660, 56419.00
535.0440, 55328.00
536.2210, 51419.00
537.3990, 45711.00
538.5770, 39675.00
539.7540, 33980.00
540.9310, 29101.00
542.1080, 25835.00
543.2850, 22995.00
544.4620, 21075.00
545.6390, 19637.00
546.8150, 18544.00
547.9920, 17600.00
549.1680, 17003.00
550.3440, 16458.00
551.5190, 16188.00
552.6950, 15598.00
553.8710, 15377.00
555.0460, 15118.00
556.2210, 14984.00
557.3960, 14815.00
558.5710, 14711.00
559.7460, 14573.00
560.9200, 14448.00
562.0950, 14382.00
563.2690, 14418.00
564.4430, 14226.00
565.6170, 14268.00
566.7910, 14191.00
567.9640, 14057.00
569.1380, 14067.00
570.3110, 14013.00
571.4840, 13965.00
572.6570, 14020.00
573.8300, 13911.00
575.0030, 14114.00
576.1750, 13939.00
577.3470, 13935.00
578.5200, 13972.00
579.6920, 13977.00
580.8630, 13888.00
582.0350, 13804.00
583.2070, 13777.00
584.3780, 13984.00
585.5490, 14027.00
586.7200, 14201.00
587.8910, 13973.00
589.0620, 14161.00
590.2330, 14309.00
591.4030, 14511.00
592.5730, 14456.00
593.7430, 14673.00
594.9130, 14709.00
596.0830, 15021.00
597.2530, 15088.00
598.4220, 14815.00
599.5920, 15061.00
600.7610, 14878.00
601.9300, 14753.00
603.0990, 14548.00
604.2670, 14458.00
605.4360, 14335.00
606.6040, 14360.00
607.7720, 14043.00
608.9400, 14166.00
610.1080, 14002.00
611.2760, 13986.00
612.4440, 13957.00
613.6110, 14045.00
614.7780, 13953.00
615.9450, 14064.00
617.1120, 14046.00
618.2790, 14030.00
619.4460, 14029.00
620.6120, 13986.00
621.7780, 14114.00
622.9450, 14109.00
624.1110, 14024.00
625.2760, 14097.00
626.4420, 13884.00
627.6080, 13968.00
628.7730, 14095.00
629.9380, 14028.00
631.1030, 13905.00
632.2680, 13991.00
633.4330, 13749.79
634.5970, 13908.93
635.7620, 14004.76
636.9260, 14040.67
638.0900, 13837.21
639.2540, 13942.84
640.4180, 13924.60
641.5810, 13901.27
642.7450, 14050.41
643.9080, 13881.75
645.0710, 14114.00
646.2340, 14076.00
647.3970, 14061.00
648.5590, 14313.00
649.7220, 14135.00
650.8840, 14217.00
652.0460, 14189.00
653.2080, 14226.00
654.3700, 14263.00
655.5320, 14111.00
656.6930, 14228.00
657.8550, 14045.00
659.0160, 14270.00
660.1770, 14230.00
661.3380, 14100.00
662.4990, 14107.00
663.6590, 14196.00
664.8200, 14073.00
665.9800, 14227.00
667.1400, 14238.00
668.3000, 14166.00
669.4600, 14246.00
670.6190, 14329.00
671.7790, 14323.00
672.9380, 14453.00
674.0970, 14256.00
675.2560, 14440.00
676.4150, 14354.00
677.5740, 14653.00
678.7320, 14442.00
679.8900, 14589.00
681.0490, 14720.00
682.2070, 14892.00
683.3640, 14964.00
684.5220, 15001.00
685.6800, 15186.00
686.8370, 15122.00
687.9940, 15355.00
689.1510, 15589.00
690.3080, 15616.00
691.4650, 15836.00
692.6220, 15877.00
693.7780, 16271.00
694.9340, 16605.00
696.0900, 16741.00
697.2460, 16795.00
698.4020, 17256.00
699.5580, 17675.00
700.7130, 17765.00
701.8680, 17994.00
703.0240, 17984.00
704.1790, 17846.00
705.3330, 17961.00
706.4880, 17554.00
707.6430, 17355.00
708.7970, 17168.00
709.9510, 16983.00
711.1050, 16823.00
712.2590, 16530.00
713.4130, 16381.00
714.5660, 16041.00
715.7200, 16151.00
716.8730, 16169.00
718.0260, 16012.00
719.1790, 15897.00
720.3320, 16199.00
721.4840, 16215.00
722.6370, 16243.00
723.7890, 16272.00
724.9410, 16188.00
726.0930, 16215.00
727.2450, 16288.00
728.3960, 16054.00
729.5480, 16018.00
730.6990, 15840.00
731.8500, 15722.00
733.0010, 15391.00
734.1520, 15402.00
735.3030, 14962.00
736.4530, 15228.00
737.6040, 15060.00
738.7540, 14671.00
739.9040, 14798.00
741.0540, 14510.00
742.2030, 14558.00
743.3530, 14674.00
744.5020, 14742.00
745.6520, 14491.00
746.8010, 14565.00
747.9490, 14451.00
749.0980, 14589.00
750.2470, 14607.00
751.3950, 14501.00
752.5440, 14404.89
753.6920, 14563.96
754.8400, 14659.69
755.9870, 14695.46
757.1350, 14491.84
758.2820, 14597.28
759.4300, 14578.84
760.5770, 14555.28
761.7240, 14704.15
762.8710, 14535.20
764.0170, 14681.27
765.1640, 14701.56
766.3100, 14779.37
767.4560, 14732.52
768.6020, 14724.14
769.7480, 14840.41
770.8940, 14887.61
772.0400, 14826.31
773.1850, 14907.61
774.3300, 14734.02
775.4750, 14784.05
776.6200, 14930.54
777.7650, 14875.36
778.9090, 14958.79
780.0540, 14989.41
781.1980, 14779.99
782.3420, 14987.91
783.4860, 15015.31
784.6300, 14857.36
785.7740, 15050.90
786.9170, 14918.43
788.0600, 14902.28
789.2030, 14973.68
790.3460, 14953.76
791.4890, 15077.74
792.6320, 15063.04
793.7740, 15035.92
794.9170, 15062.84
796.0590, 14936.54
797.2010, 15094.40
798.3430, 15058.11
799.4850, 15118.29
800.6260, 15200.31
801.7670, 15114.83
802.9090, 15206.63
804.0500, 15023.44
805.1910, 15070.28
806.3310, 15092.32
807.4720, 15261.39
808.6120, 15079.43
809.7530, 15119.78
810.8930, 15254.76
812.0330, 15257.25
813.1720, 15315.09
814.3120, 15208.96
815.4510, 15256.81
816.5910, 15262.20
817.7300, 15414.25
818.8690, 15450.46
820.0080, 15346.97
821.1460, 15244.04
822.2850, 15406.54
823.4230, 15317.41
824.5610, 15363.98
825.6990, 15270.35
826.8370, 15297.73
827.9750, 15323.16
829.1120, 15410.60
830.2500, 15309.88
831.3870, 15453.19
832.5240, 15455.40
833.6610, 15499.15
834.7980, 15538.24
835.9340, 15388.01
837.0700, 15392.92
838.2070, 15619.86
839.3430, 15508.14
840.4790, 15464.74
841.6140, 15469.89
842.7500, 15704.31
843.8850, 15725.58
845.0210, 15492.08
846.1560, 15716.31
847.2910, 15658.89
848.4260, 15685.13
849.5600, 15680.80
850.6950, 15685.50
851.8290, 15575.19
852.9630, 15616.36
854.0970, 15780.70
855.2310, 15734.99
856.3650, 15831.96
857.4980, 15668.82
858.6310, 15660.02
859.7650, 15692.20
860.8980, 15739.28
862.0310, 15666.92
863.1630, 15833.33
864.2960, 15840.72
865.4280, 15710.29
866.5600, 15729.30
867.6920, 15723.48
868.8240, 15975.99
869.9560, 15873.25
871.0880, 15745.33
872.2190, 15898.98
873.3500, 15962.35
874.4810, 15903.66
875.6120, 15909.79
876.7430, 15792.88
877.8740, 15864.59
879.0040, 15871.38
880.1340, 15985.05
881.2650, 15868.54
882.3950, 16016.96
883.5240, 15906.54
884.6540, 16065.64
885.7830, 15949.70
886.9130, 16078.72
888.0420, 15915.29
889.1710, 15963.48
890.3000, 16028.42
891.4280, 16147.51
892.5570, 16058.27
893.6850, 16190.16
894.8130, 16127.93
895.9420, 16192.03
897.0690, 16186.02
898.1970, 16092.31
899.3250, 16245.88
900.4520, 16173.87
901.5790, 16254.12
902.7060, 16087.67
903.8330, 16221.08
904.9600, 16141.00
906.0870, 16083.00
907.2130, 16251.00
908.3390, 16178.00
909.4650, 16403.00
910.5910, 16153.00
911.7170, 16182.00
912.8430, 15998.00
913.9680, 16205.00
915.0930, 16320.00
916.2180, 16359.00
917.3430, 16281.00
918.4680, 16176.00
919.5930, 16111.00
920.7170, 16422.00
921.8420, 16273.00
922.9660, 16384.00
924.0900, 16312.00
925.2140, 16229.00
926.3370, 16398.00
927.4610, 16402.00
928.5840, 16361.00
929.7070, 16441.00
930.8310, 16361.00
931.9530, 16438.00
933.0760, 16415.00
934.1990, 16411.00
935.3210, 16578.00
936.4430, 16598.00
937.5650, 16641.00
938.6870, 16549.00
939.8090, 16638.00
940.9310, 16674.00
942.0520, 16673.00
943.1730, 16575.00
944.2940, 16862.00
945.4150, 16898.00
946.5360, 16755.00
947.6570, 16925.00
948.7770, 16874.00
949.8970, 17091.00
951.0180, 17233.00
952.1370, 17316.00
953.2570, 17289.00
954.3770, 17579.00
955.4960, 17613.00
956.6160, 18116.00
957.7350, 18384.00
958.8540, 18983.00
959.9730, 19365.00
961.0910, 20014.00
962.2100, 20669.00
963.3280, 21478.00
964.4460, 21854.00
965.5640, 21864.00
966.6820, 21838.00
967.8000, 21714.00
968.9180, 20625.00
970.0350, 20075.00
971.1520, 19644.00
972.2690, 19055.00
973.3860, 18830.00
974.5030, 18510.00
975.6190, 18561.00
976.7360, 18303.00
977.8520, 18155.00
978.9680, 17994.00
980.0840, 18011.00
981.2000, 17910.00
982.3160, 17739.00
983.4310, 17535.00
984.5460, 17815.00
985.6610, 17762.00
986.7760, 17414.00
987.8910, 17699.00
989.0060, 17687.00
990.1200, 17524.00
991.2350, 17726.00
992.3490, 17612.00
993.4630, 18073.00
994.5760, 18084.00
995.6900, 18419.00
996.8040, 18445.00
997.9170, 18583.00
999.0300, 18732.00
1000.143, 18782.00
1001.256, 18591.00
1002.369, 18534.00
1003.481, 18452.00
1004.594, 18343.00
1005.706, 18111.00
1006.818, 17998.00
1007.930, 18060.00
1009.042, 17931.00
1010.153, 17967.00
1011.264, 17979.00
1012.376, 17982.00
1013.487, 17975.00
1014.598, 17879.00
1015.708, 17859.00
1016.819, 17928.00
1017.929, 18109.00
1019.040, 17979.00
1020.150, 18190.00
1021.260, 17993.00
1022.370, 18290.00
1023.479, 18320.00
1024.589, 18388.00
1025.698, 18515.00
1026.807, 18592.00
1027.916, 18751.00
1029.025, 18936.00
1030.133, 19186.00
1031.242, 19563.00
1032.350, 19972.00
1033.458, 20368.00
1034.566, 21371.00
1035.674, 22079.00
1036.782, 23157.00
1037.890, 23804.00
1038.997, 24550.00
1040.104, 24979.00
1041.211, 24493.00
1042.318, 23732.00
1043.425, 22786.00
1044.531, 21799.00
1045.638, 20911.00
1046.744, 20240.00
1047.850, 19856.00
1048.956, 19585.00
1050.061, 19293.00
1051.167, 19169.00
1052.272, 18848.00
1053.378, 18829.00
1054.483, 18620.00
1055.588, 18659.00
1056.692, 18603.00
1057.797, 18531.00
1058.901, 18680.00
1060.006, 18720.00
1061.110, 18608.00
1062.214, 18639.00
1063.318, 18715.00
1064.421, 18694.00
1065.525, 18607.00
1066.628, 18588.00
1067.731, 18926.00
1068.834, 18796.00
1069.937, 18869.00
1071.040, 19037.00
1072.142, 19126.00
1073.244, 19091.00
1074.347, 19422.00
1075.449, 19570.00
1076.550, 19538.00
1077.652, 19567.00
1078.754, 19970.00
1079.855, 20058.00
1080.956, 20245.00
1082.057, 20240.00
1083.158, 20342.00
1084.259, 20230.00
1085.359, 20055.00
1086.460, 20155.00
1087.560, 19894.00
1088.660, 19650.00
1089.760, 19450.00
1090.860, 19541.00
1091.959, 19440.00
1093.059, 19297.00
1094.158, 19445.00
1095.257, 19038.00
1096.356, 19072.00
1097.455, 18977.00
1098.553, 18998.00
1099.652, 18831.00
1100.750, 18969.00
1101.848, 18954.00
1102.946, 18859.00
1104.044, 18821.00
1105.141, 18658.41
1106.239, 18798.97
1107.336, 18876.21
1108.433, 18893.54
1109.530, 18671.50
1110.627, 18758.56
1111.724, 18721.75
1112.820, 18679.86
1113.917, 18810.42
1115.013, 18623.20
1116.109, 18876.00
1117.205, 18797.00
1118.300, 18803.00
1119.396, 18927.00
1120.491, 18828.00
1121.586, 18740.00
1122.681, 18913.00
1123.776, 18823.00
1124.871, 18780.00
1125.965, 18714.00
1127.060, 18748.00
1128.154, 18878.00
1129.248, 18839.00
1130.342, 18768.00
1131.436, 18875.00
1132.529, 18746.00
1133.623, 18782.00
1134.716, 18805.00
1135.809, 18702.00
1136.902, 19009.00
1137.995, 18952.00
1139.087, 18985.00
1140.180, 19049.00
1141.272, 18774.00
1142.364, 18845.00
1143.456, 19036.00
1144.548, 18880.00
1145.639, 18959.00
1146.731, 18946.00
1147.822, 18938.00
1148.913, 19144.00
1150.004, 19018.00
1151.095, 18964.00
1152.186, 18936.00
1153.276, 18845.00
1154.366, 19086.00
1155.457, 18844.00
1156.546, 18961.00
1157.636, 18939.00
1158.726, 19047.00
1159.815, 19125.00
1160.905, 18900.00
1161.994, 19115.00
1163.083, 19048.00
1164.172, 19108.00
1165.261, 19072.00
1166.349, 19178.00
1167.437, 19141.00
1168.526, 19187.00
1169.614, 19311.00
1170.702, 19142.00
1171.789, 19208.00
1172.877, 19218.00
1173.964, 19236.00
1175.051, 19328.00
1176.138, 19238.00
1177.225, 19287.00
1178.312, 19318.00
1179.399, 19362.00
1180.485, 19278.00
1181.571, 19208.00
1182.657, 19270.00
1183.743, 19325.00
1184.829, 19260.00
1185.915, 19525.00
1187.000, 19463.00
1188.085, 19233.00
1189.171, 19307.00
1190.255, 19400.00
1191.340, 19352.00
1192.425, 19553.00
1193.509, 19431.00
1194.594, 19378.00
1195.678, 19285.00
1196.762, 19599.00
1197.846, 19471.00
1198.929, 19674.00
1200.013, 19341.57
1201.096, 19497.75
1202.179, 19590.60
1203.262, 19623.54
1204.345, 19417.12
1205.428, 19519.78
1206.510, 19498.57
1207.593, 19472.29
1208.675, 19618.45
1209.757, 19446.82
1210.839, 19590.25
1211.920, 19607.90
1213.002, 19683.12
1214.083, 19633.70
1215.164, 19622.77
1216.245, 19736.52
1217.326, 19781.23
1218.407, 19717.46
1219.488, 19796.33
1220.568, 19620.33
1221.648, 19667.97
1222.728, 19812.11
1223.808, 19754.59
1224.888, 19835.73
1225.967, 19864.05
1227.047, 19652.39
1228.126, 19858.09
1229.205, 19883.29
1230.284, 19723.16
1231.363, 19914.55
1232.441, 19779.96
1233.520, 19761.73
1234.598, 19831.06
1235.676, 19809.10
1236.754, 19931.06
1237.832, 19914.38
1238.910, 19885.31
1239.987, 19910.28
1241.064, 19782.07
1242.141, 19938.05
1243.218, 19899.91
1244.295, 19958.26
1245.372, 20038.48
1246.448, 19951.22
1247.525, 20041.27
1248.601, 19856.35
1249.677, 19901.50
1250.753, 19921.88
1251.828, 20089.29
1252.904, 19905.72
1253.979, 19944.47
1255.054, 20077.88
1256.129, 20078.83
1257.204, 20135.17
1258.279, 20027.55
1259.353, 20073.94
1260.428, 20077.89
1261.502, 20228.53
1262.576, 20263.36
1263.650, 20158.51
1264.724, 20054.26
1265.797, 20215.45
1266.871, 20125.04
1267.944, 20170.37
1269.017, 20075.51
1270.090, 20101.68
1271.162, 20125.93
1272.235, 20212.24
1273.307, 20110.39
1274.380, 20252.60
1275.452, 20253.75
1276.524, 20296.45
1277.595, 20334.52
1278.667, 20183.30
1279.738, 20187.25
1280.810, 20413.25
1281.881, 20300.62
1282.952, 20256.33
1284.022, 20260.62
1285.093, 20494.20
1286.164, 20514.67
1287.234, 20280.38
1288.304, 20503.85
1289.374, 20445.69
1290.444, 20471.23
1291.513, 20466.22
1292.583, 20470.26
1293.652, 20359.33
1294.721, 20399.89
1295.790, 20563.65
1296.859, 20517.39
1297.928, 20613.84
1298.996, 20450.20
1300.064, 20440.93
1301.133, 20472.66
1302.201, 20519.31
1303.268, 20446.55
1304.336, 20612.60
1305.404, 20619.65
1306.471, 20488.90
1307.538, 20507.62
1308.605, 20501.52
1309.672, 20753.79
1310.739, 20650.84
1311.805, 20522.72
1312.872, 20676.21
1313.938, 20739.44
1315.004, 20680.64
1316.070, 20686.68
1317.135, 20569.70
1318.201, 20641.38
1319.266, 20648.16
1320.332, 20761.85
1321.397, 20645.36
1322.462, 20793.85
1323.526, 20683.53
1324.591, 20842.74
1325.655, 20726.94
1326.720, 20856.13
1327.784, 20692.89
1328.848, 20741.30
1329.911, 20806.48
1330.975, 20925.85
1332.038, 20836.89
1333.102, 20838.00
1334.165, 20864.00
1335.228, 20858.00
1336.290, 20921.00
1337.353, 20999.00
1338.415, 20894.00
1339.478, 21035.00
1340.540, 20844.00
1341.602, 20717.00
1342.664, 20809.00
1343.725, 20922.00
1344.787, 21056.00
1345.848, 20985.00
1346.909, 20973.00
1347.970, 20985.00
1349.031, 20981.00
1350.092, 20844.00
1351.152, 21046.00
1352.212, 20848.00
1353.273, 21133.00
1354.333, 20977.00
1355.392, 21000.00
1356.452, 20777.00
1357.512, 21054.00
1358.571, 20954.00
1359.630, 20835.00
1360.689, 21097.00
1361.748, 21156.00
1362.807, 20946.00
1363.865, 21103.00
1364.924, 21188.00
1365.982, 21108.00
1367.040, 21230.00
1368.098, 21226.00
1369.155, 21171.00
1370.213, 21191.00
1371.270, 21261.00
1372.328, 21311.00
1373.385, 21251.00
1374.442, 21465.00
1375.498, 21099.00
1376.555, 21413.00
1377.611, 21392.00
1378.668, 21353.00
1379.724, 21307.00
1380.780, 21427.00
1381.835, 21345.00
1382.891, 21406.00
1383.946, 21477.00
1385.002, 21316.00
1386.057, 21702.00
1387.112, 21455.00
1388.166, 21506.00
1389.221, 21230.00
1390.275, 21236.00
1391.330, 21350.00
1392.384, 21600.00
1393.438, 21288.00
1394.492, 21368.00
1395.545, 21514.00
1396.599, 21465.00
1397.652, 21347.00
1398.705, 21388.00
1399.758, 21499.00
1400.811, 21458.00
1401.863, 21507.00
1402.916, 21370.00
1403.968, 21627.00
1405.020, 21581.00
1406.072, 21534.00
1407.124, 21492.00
1408.176, 21552.00
1409.227, 21540.00
1410.279, 21692.00
1411.330, 21657.00
1412.381, 21535.00
1413.432, 21647.00
1414.482, 21837.00
1415.533, 21672.00
1416.583, 21669.00
1417.633, 21637.00
1418.684, 21746.00
1419.733, 21712.00
1420.783, 21655.00
1421.833, 21748.00
1422.882, 21742.00
1423.931, 21612.00
1424.980, 21659.00
1426.029, 21793.00
1427.078, 21842.00
1428.126, 21887.00
1429.175, 21879.00
1430.223, 21812.00
1431.271, 21794.00
1432.319, 21821.00
1433.367, 21821.00
1434.414, 21828.00
1435.462, 21817.00
1436.509, 21919.00
1437.556, 21977.00
1438.603, 22043.00
1439.650, 22137.00
1440.696, 22405.00
1441.743, 22198.00
1442.789, 22387.00
1443.835, 22316.00
1444.881, 22625.00
1445.927, 22204.00
1446.972, 22400.00
1448.018, 22309.00
1449.063, 22378.00
1450.108, 22572.00
1451.153, 22432.00
1452.198, 22380.00
1453.243, 22583.00
1454.287, 22631.00
1455.331, 22687.00
1456.376, 22705.00
1457.420, 22613.00
1458.463, 22527.00
1459.507, 22418.00
1460.550, 22633.00
1461.594, 22527.00
1462.637, 22378.00
1463.680, 22693.00
1464.723, 22532.00
1465.765, 22362.00
1466.808, 22450.00
1467.850, 22504.00
1468.892, 22307.00
1469.934, 22247.00
1470.976, 22434.00
1472.018, 22432.00
1473.060, 22569.00
1474.101, 22211.00
1475.142, 22521.00
1476.183, 22528.00
1477.224, 22288.00
1478.265, 22491.00
1479.305, 22395.00
1480.346, 22220.02
1481.386, 22372.94
1482.426, 22462.54
1483.466, 22492.23
1484.505, 22282.54
1485.545, 22381.95
1486.584, 22357.48
1487.624, 22327.94
1488.663, 22470.85
1489.702, 22295.98
1490.740, 22436.14
1491.779, 22450.55
1492.817, 22522.52
1493.856, 22469.85
1494.894, 22455.67
1495.932, 22566.17
1496.969, 22607.63
1498.007, 22540.61
1499.044, 22616.22
1500.082, 22436.98
1501.119, 22481.38
1502.156, 22622.27
1503.192, 22561.49
1504.229, 22639.39
1505.265, 22664.46
1506.302, 22449.56
1507.338, 22652.01
1508.374, 22673.97
1509.410, 22510.59
1510.445, 22698.74
1511.481, 22639.00
1512.516, 22687.00
1513.551, 22755.00
1514.586, 22717.00
1515.621, 22601.00
1516.655, 22614.00
1517.690, 22677.00
1518.724, 22527.00
1519.758, 22808.00
1520.792, 22682.00
1521.826, 22681.00
1522.860, 22639.00
1523.893, 22839.00
1524.927, 22698.00
1525.960, 22640.00
1526.993, 22692.00
1528.026, 22821.00
1529.058, 22550.00
1530.091, 22849.00
1531.123, 22957.00
1532.155, 22768.00
1533.187, 22690.00
1534.219, 22668.00
1535.251, 22825.00
1536.282, 22929.00
1537.314, 22968.00
1538.345, 22881.00
1539.376, 22964.00
1540.407, 22846.00
1541.438, 22969.00
1542.468, 22926.00
1543.499, 22831.00
1544.529, 23041.00
1545.559, 23032.00
1546.589, 23143.00
1547.618, 22846.00
1548.648, 22957.00
1549.677, 22773.00
1550.707, 22839.00
1551.736, 23000.00
1552.765, 22940.00
1553.793, 22862.00
1554.822, 22851.00
1555.850, 23029.00
1556.879, 22986.00
1557.907, 23006.00
1558.935, 22918.00
1559.962, 22910.00
1560.990, 23080.00
1562.017, 23094.00
1563.045, 22797.00
1564.072, 23081.00
1565.099, 23117.00
1566.125, 22996.00
1567.152, 22955.00
1568.179, 23263.00
1569.205, 23075.00
1570.231, 22967.00
1571.257, 23151.00
1572.283, 23177.00
1573.308, 23115.00
##END=



