##NAMES=Natrolite
##RRUFFID=R040102
##IDEAL CHEMISTRY=Na_2_(Si_3_Al_2_)O_10_&#183;2H_2_O
##LOCALITY=Ross' Quarry, Northland, New Zealand
##OWNER=RRUFF
##SOURCE=University of Arizona Mineral Museum
##DESCRIPTION=Mass of colorless acicular crystals
##STATUS=The identification of this mineral has been confirmed by X-ray diffraction and chemical analysis
##URL=rruff.info/R040102
##MEASURED CHEMISTRY=(Na_0.92_Ca_0.02_)_2_(Si_3.03_Al_1.99_)O_10_Â·2H_2_O
##PIN_ID=M00475
##ORIENTATION=Laser parallel to -a* (-1 0 0). Fiducial mark perpendicular to laser is parallel to b [0 1 0]
87.519, 5032.000
88.907, 5083.000
90.296, 5079.000
91.684, 5161.000
93.072, 5407.000
94.460, 5532.000
95.848, 5602.000
97.236, 5700.000
98.623, 5831.000
100.010, 5831.000
101.397, 5928.000
102.784, 6005.000
104.171, 6032.000
105.557, 6223.000
106.943, 6542.000
108.329, 7046.000
109.715, 7290.000
111.100, 7478.000
112.486, 8057.000
113.871, 8887.000
115.256, 9725.000
116.641, 10270.000
118.025, 10530.000
119.410, 10990.000
120.794, 11810.000
122.178, 13490.000
123.562, 14790.000
124.945, 15050.000
126.329, 13840.000
127.712, 12080.000
129.095, 10610.000
130.478, 9511.000
131.860, 8853.000
133.243, 8472.000
134.625, 8517.000
136.007, 8592.000
137.389, 8999.000
138.770, 9263.000
140.152, 9556.000
141.533, 10020.000
142.914, 10190.000
144.295, 10430.000
145.675, 10318.256
147.056, 10240.000
148.436, 9754.000
149.816, 9171.000
151.196, 8590.000
152.575, 8347.000
153.955, 8653.000
155.334, 9485.000
156.713, 9798.000
158.092, 10830.000
159.471, 11670.000
160.849, 13080.000
162.227, 13910.000
163.606, 14430.000
164.983, 14070.000
166.361, 13100.000
167.739, 12020.000
169.116, 10680.000
170.493, 9663.000
171.870, 8858.000
173.247, 8387.000
174.623, 8025.000
175.999, 7693.000
177.375, 7261.000
178.751, 6952.000
180.127, 6874.000
181.503, 6725.000
182.878, 6715.000
184.253, 6860.000
185.628, 6877.000
187.003, 7048.000
188.377, 6843.000
189.751, 6566.000
191.126, 6094.000
192.500, 5806.000
193.873, 5570.000
195.247, 5373.000
196.620, 5526.000
197.993, 5503.000
199.366, 5723.000
200.739, 5806.000
202.112, 6120.000
203.484, 6379.000
204.856, 6743.000
206.228, 7011.000
207.600, 7033.000
208.972, 6935.000
210.343, 6876.000
211.714, 6664.883
213.085, 5775.000
214.456, 6113.000
215.827, 5693.000
217.197, 5296.000
218.567, 5329.000
219.937, 5231.000
221.307, 5128.000
222.677, 5005.000
224.046, 4816.000
225.416, 4672.000
226.785, 4407.000
228.154, 4219.000
229.522, 4134.000
230.891, 3968.000
232.259, 3962.000
233.627, 3900.000
234.995, 3921.000
236.363, 3898.000
237.730, 4042.000
239.098, 4121.000
240.465, 4246.000
241.832, 4229.925
243.198, 4225.000
244.565, 4130.000
245.931, 3951.000
247.297, 3815.000
248.663, 3752.000
250.029, 3641.000
251.395, 3627.000
252.760, 3522.000
254.125, 3541.000
255.490, 3605.000
256.855, 3577.000
258.220, 3603.000
259.584, 3568.000
260.948, 3684.000
262.312, 3684.000
263.676, 3768.000
265.040, 3827.000
266.403, 3780.000
267.766, 3866.000
269.129, 3946.000
270.492, 4078.000
271.855, 4137.000
273.217, 4168.000
274.580, 4251.000
275.942, 4231.000
277.304, 4251.000
278.665, 4148.000
280.027, 4143.000
281.388, 3967.000
282.749, 3884.000
284.110, 3787.000
285.471, 3811.000
286.831, 3831.000
288.192, 3797.000
289.552, 3855.000
290.912, 3894.000
292.272, 3888.000
293.631, 3926.000
294.990, 3954.000
296.350, 3952.000
297.709, 3919.000
299.067, 4009.000
300.426, 4083.000
301.784, 4198.000
303.143, 4386.000
304.501, 4559.000
305.859, 4857.000
307.216, 4940.000
308.574, 4800.000
309.931, 4558.000
311.288, 4232.000
312.645, 3972.000
314.002, 3764.000
315.358, 3674.000
316.714, 3614.000
318.070, 3591.000
319.426, 3569.000
320.782, 3579.229
322.138, 3639.000
323.493, 3667.000
324.848, 3758.000
326.203, 3879.000
327.558, 4012.000
328.912, 4185.000
330.267, 4233.000
331.621, 4430.000
332.975, 4577.000
334.329, 4448.000
335.682, 4377.000
337.036, 4238.000
338.389, 4055.000
339.742, 4019.000
341.095, 3948.000
342.448, 3924.000
343.800, 3904.000
345.152, 3959.000
346.504, 3985.000
347.856, 3944.000
349.208, 4020.000
350.560, 4041.000
351.911, 4187.000
353.262, 4193.000
354.613, 4304.000
355.964, 4374.000
357.314, 4545.000
358.665, 4574.000
360.015, 4580.000
361.365, 4630.000
362.715, 4489.000
364.064, 4366.000
365.414, 4255.000
366.763, 3990.000
368.112, 3916.000
369.461, 3795.000
370.809, 3760.000
372.158, 3653.000
373.506, 3643.000
374.854, 3547.000
376.202, 3509.000
377.550, 3523.000
378.897, 3399.000
380.245, 3472.000
381.592, 3463.000
382.939, 3428.000
384.285, 3486.000
385.632, 3392.000
386.978, 3414.000
388.324, 3438.000
389.670, 3412.000
391.016, 3465.000
392.362, 3387.000
393.707, 3430.000
395.053, 3477.000
396.398, 3457.000
397.742, 3481.000
399.087, 3468.000
400.432, 3568.000
401.776, 3530.000
403.120, 3613.000
404.464, 3665.000
405.808, 3717.000
407.151, 3895.000
408.494, 3938.000
409.838, 4066.000
411.180, 4254.000
412.523, 4285.000
413.866, 4340.000
415.208, 4363.000
416.550, 4368.168
417.892, 4305.000
419.234, 4343.000
420.576, 4316.000
421.917, 4269.000
423.259, 4436.000
424.600, 4417.000
425.941, 4498.000
427.281, 4659.000
428.622, 4802.000
429.962, 5088.000
431.302, 5376.000
432.642, 5693.000
433.982, 6432.000
435.321, 7093.000
436.661, 8315.000
438.000, 9363.000
439.339, 11060.000
440.678, 12440.000
442.016, 13520.000
443.355, 13870.000
444.693, 13210.000
446.031, 11940.000
447.369, 10530.000
448.707, 9287.000
450.044, 8171.000
451.381, 7242.475
452.718, 6512.000
454.055, 5835.000
455.392, 5442.000
456.729, 5124.000
458.065, 4777.000
459.401, 4752.000
460.737, 4524.000
462.073, 4427.000
463.409, 4390.000
464.744, 4298.000
466.079, 4322.000
467.414, 4231.000
468.749, 4321.000
470.084, 4289.000
471.418, 4331.000
472.753, 4398.000
474.087, 4382.000
475.421, 4541.000
476.754, 4585.000
478.088, 4684.000
479.421, 4880.000
480.754, 4964.000
482.087, 5067.000
483.420, 5079.000
484.753, 5156.918
486.085, 5242.000
487.417, 5221.000
488.750, 5289.000
490.081, 5257.000
491.413, 5281.000
492.745, 5266.000
494.076, 5191.000
495.407, 5202.000
496.738, 5073.000
498.069, 5113.000
499.399, 5058.000
500.730, 5013.000
502.060, 5044.000
503.390, 5095.000
504.720, 5188.000
506.049, 5211.000
507.379, 5295.000
508.708, 5458.000
510.037, 5539.000
511.366, 5704.000
512.694, 5806.000
514.023, 6062.000
515.351, 6159.000
516.679, 6462.000
518.007, 6766.000
519.335, 6810.000
520.663, 7164.000
521.990, 7621.000
523.317, 8167.000
524.644, 8902.000
525.971, 9936.000
527.298, 11510.000
528.624, 13330.000
529.951, 15760.000
531.277, 18060.000
532.603, 20170.000
533.928, 21850.000
535.254, 20800.000
536.579, 19400.000
537.904, 16660.000
539.229, 13800.000
540.554, 11700.000
541.879, 9888.000
543.203, 8622.000
544.527, 7622.000
545.851, 6862.000
547.175, 6446.000
548.499, 5926.000
549.822, 5582.000
551.146, 5376.000
552.469, 5096.000
553.792, 5000.000
555.115, 4765.000
556.437, 4748.000
557.759, 4722.000
559.082, 4534.000
560.404, 4537.000
561.725, 4458.000
563.047, 4371.000
564.369, 4307.000
565.690, 4326.000
567.011, 4279.000
568.332, 4235.000
569.653, 4294.000
570.973, 4263.000
572.293, 4240.000
573.614, 4230.000
574.934, 4201.000
576.253, 4242.000
577.573, 4193.000
578.892, 4139.000
580.212, 4195.000
581.531, 4124.000
582.850, 4129.000
584.168, 4144.000
585.487, 4146.000
586.805, 4117.000
588.123, 4068.000
589.441, 4088.057
590.759, 4108.000
592.077, 4097.000
593.394, 4140.000
594.711, 4130.000
596.028, 4217.000
597.345, 4256.000
598.662, 4223.326
599.978, 4145.000
601.295, 4139.000
602.611, 4157.000
603.927, 4081.000
605.242, 4198.000
606.558, 4056.000
607.873, 4033.000
609.189, 4078.000
610.504, 3960.000
611.818, 4018.000
613.133, 3946.000
614.448, 3883.000
615.762, 3999.000
617.076, 3914.000
618.390, 3987.000
619.704, 3941.000
621.017, 3932.000
622.330, 3950.000
623.644, 3911.000
624.957, 3986.000
626.269, 3976.000
627.582, 3983.000
628.895, 3941.000
630.207, 3985.000
631.519, 3960.000
632.831, 3983.000
634.143, 3953.000
635.454, 4027.000
636.765, 3935.000
638.077, 4006.000
639.388, 3964.000
640.698, 3971.000
642.009, 3997.000
643.320, 3970.000
644.630, 3950.000
645.940, 4010.000
647.250, 3933.000
648.560, 3978.000
649.869, 3941.000
651.178, 4013.000
652.488, 4010.000
653.797, 3993.000
655.105, 4006.000
656.414, 3974.000
657.722, 4041.000
659.031, 3979.000
660.339, 4015.000
661.647, 4041.000
662.954, 4000.000
664.262, 4009.000
665.569, 4002.000
666.876, 3982.000
668.183, 4053.000
669.490, 4008.000
670.797, 4037.000
672.103, 4060.000
673.410, 4053.000
674.716, 4112.000
676.022, 4038.000
677.327, 4195.000
678.633, 4221.000
679.938, 4157.000
681.243, 4227.000
682.548, 4228.000
683.853, 4269.000
685.158, 4295.000
686.462, 4360.000
687.766, 4377.000
689.071, 4446.000
690.374, 4466.000
691.678, 4504.000
692.982, 4575.000
694.285, 4665.000
695.588, 4659.000
696.891, 4720.000
698.194, 4779.000
699.497, 4905.000
700.799, 4951.000
702.101, 4926.000
703.404, 5058.000
704.705, 5025.000
706.007, 4998.000
707.309, 5106.000
708.610, 4947.000
709.911, 5014.000
711.212, 4909.000
712.513, 4877.000
713.814, 4898.000
715.114, 4865.000
716.415, 4902.000
717.715, 4871.000
719.015, 4899.000
720.314, 4933.000
721.614, 4945.000
722.913, 5044.000
724.213, 5007.000
725.512, 5047.000
726.810, 5067.000
728.109, 5029.000
729.408, 5069.000
730.706, 4961.498
732.004, 4854.000
733.302, 4749.000
734.600, 4678.000
735.897, 4577.000
737.195, 4486.000
738.492, 4398.000
739.789, 4431.000
741.086, 4312.000
742.383, 4353.000
743.679, 4302.000
744.975, 4249.000
746.272, 4314.000
747.568, 4166.000
748.863, 4252.000
750.159, 4210.000
751.454, 4242.000
752.750, 4297.000
754.045, 4210.000
755.340, 4265.000
756.634, 4210.000
757.929, 4212.000
759.223, 4258.000
760.518, 4257.000
761.812, 4220.000
763.105, 4291.000
764.399, 4210.000
765.692, 4309.000
766.986, 4221.000
768.279, 4208.000
769.572, 4210.000
770.865, 4201.000
772.157, 4282.000
773.450, 4236.000
774.742, 4252.000
776.034, 4228.000
777.326, 4230.000
778.617, 4235.000
779.909, 4221.000
781.200, 4228.000
782.491, 4247.000
783.782, 4190.000
785.073, 4253.000
786.364, 4244.000
787.654, 4229.000
788.944, 4267.000
790.234, 4227.000
791.524, 4291.000
792.814, 4181.000
794.104, 4217.000
795.393, 4320.000
796.682, 4175.000
797.971, 4345.000
799.260, 4276.000
800.549, 4338.000
801.837, 4343.904
803.125, 4329.000
804.414, 4288.000
805.701, 4331.000
806.989, 4256.000
808.277, 4349.000
809.564, 4291.000
810.851, 4366.000
812.139, 4355.000
813.425, 4294.000
814.712, 4340.000
815.999, 4330.000
817.285, 4294.000
818.571, 4406.000
819.857, 4328.000
821.143, 4383.000
822.429, 4373.000
823.714, 4357.000
824.999, 4398.000
826.284, 4464.000
827.569, 4367.000
828.854, 4356.000
830.139, 4340.000
831.423, 4465.000
832.707, 4434.000
833.991, 4412.000
835.275, 4391.000
836.559, 4397.000
837.842, 4401.000
839.126, 4397.000
840.409, 4486.000
841.692, 4417.000
842.975, 4335.000
844.257, 4544.000
845.540, 4376.000
846.822, 4441.000
848.104, 4517.000
849.386, 4407.000
850.668, 4490.000
851.949, 4515.000
853.231, 4420.000
854.512, 4550.000
855.793, 4492.000
857.074, 4545.000
858.355, 4572.000
859.635, 4551.000
860.915, 4632.000
862.196, 4538.000
863.476, 4504.000
864.755, 4580.000
866.035, 4530.000
867.314, 4612.000
868.594, 4570.000
869.873, 4620.000
871.152, 4635.000
872.430, 4567.000
873.709, 4620.000
874.987, 4586.000
876.266, 4627.000
877.544, 4629.000
878.822, 4563.000
880.099, 4747.000
881.377, 4629.000
882.654, 4616.000
883.931, 4688.000
885.208, 4639.000
886.485, 4662.000
887.762, 4715.000
889.038, 4575.000
890.315, 4693.000
891.591, 4672.000
892.867, 4655.000
894.142, 4738.000
895.418, 4679.000
896.693, 4716.000
897.969, 4661.000
899.244, 4702.000
900.519, 4753.000
901.793, 4676.000
903.068, 4773.000
904.342, 4711.000
905.616, 4748.000
906.890, 4700.000
908.164, 4711.000
909.438, 4787.000
910.711, 4746.000
911.985, 4744.000
913.258, 4814.000
914.531, 4825.000
915.804, 4757.000
917.076, 4835.000
918.349, 4758.000
919.621, 4917.000
920.893, 4760.000
922.165, 4835.000
923.437, 4872.000
924.708, 4787.000
925.980, 4868.000
927.251, 4859.000
928.522, 4889.000
929.793, 4858.000
931.064, 4894.000
932.334, 4911.000
933.604, 4995.000
934.875, 4944.000
936.145, 4984.000
937.414, 4924.000
938.684, 4994.000
939.954, 4971.000
941.223, 4915.000
942.492, 5007.000
943.761, 4994.000
945.030, 5137.000
946.298, 5070.000
947.567, 4982.000
948.835, 5123.000
950.103, 5077.000
951.371, 5154.000
952.639, 5174.000
953.906, 5103.000
955.174, 5250.000
956.441, 5232.000
957.708, 5248.000
958.975, 5387.000
960.242, 5354.000
961.508, 5343.000
962.775, 5497.000
964.041, 5568.000
965.307, 5669.000
966.573, 5737.000
967.838, 5760.000
969.104, 5824.000
970.369, 5682.000
971.634, 5777.000
972.899, 5759.000
974.164, 5610.000
975.429, 5795.000
976.693, 5685.000
977.957, 5734.000
979.222, 5791.000
980.486, 5628.000
981.749, 5688.000
983.013, 5735.000
984.276, 5628.000
985.540, 5650.000
986.803, 5627.000
988.066, 5699.000
989.328, 5680.622
990.591, 5634.000
991.853, 5713.000
993.115, 5663.000
994.377, 5734.000
995.639, 5762.000
996.901, 5745.000
998.163, 5877.000
999.424, 5889.000
1000.685, 5890.000
1001.946, 6040.000
1003.207, 6006.000
1004.468, 6100.000
1005.728, 6211.000
1006.988, 6156.000
1008.248, 6361.000
1009.508, 6247.000
1010.768, 6297.000
1012.028, 6291.000
1013.287, 6223.000
1014.547, 6288.000
1015.806, 6222.000
1017.065, 6196.000
1018.323, 6144.000
1019.582, 6103.000
1020.840, 6236.000
1022.099, 6177.000
1023.357, 6227.000
1024.615, 6217.000
1025.872, 6282.000
1027.130, 6348.000
1028.387, 6522.000
1029.645, 6456.000
1030.902, 6714.000
1032.159, 6798.000
1033.415, 6976.000
1034.672, 7243.000
1035.928, 7450.000
1037.184, 7937.000
1038.440, 8490.000
1039.696, 8921.000
1040.952, 9774.000
1042.208, 9864.000
1043.463, 9716.000
1044.718, 9291.000
1045.973, 8626.000
1047.228, 8164.000
1048.483, 7607.000
1049.737, 7288.000
1050.991, 7025.000
1052.245, 6758.000
1053.499, 6748.000
1054.753, 6627.000
1056.007, 6510.000
1057.260, 6507.000
1058.514, 6414.000
1059.767, 6374.000
1061.020, 6459.000
1062.273, 6320.000
1063.525, 6339.000
1064.778, 6393.000
1066.030, 6347.000
1067.282, 6371.000
1068.534, 6354.000
1069.786, 6435.000
1071.037, 6434.350
1072.289, 6345.000
1073.540, 6487.000
1074.791, 6544.000
1076.042, 6583.000
1077.293, 6741.000
1078.543, 6643.000
1079.794, 6674.000
1081.044, 6846.000
1082.294, 6772.000
1083.544, 6830.000
1084.793, 6924.000
1086.043, 6877.000
1087.292, 6954.000
1088.542, 6898.000
1089.791, 6970.000
1091.040, 7062.000
1092.288, 6892.000
1093.537, 7083.000
1094.785, 7075.000
1096.033, 6920.000
1097.281, 6957.000
1098.529, 6836.000
1099.777, 6608.000
1101.024, 6630.000
1102.272, 6462.000
1103.519, 6493.000
1104.766, 6362.000
1106.013, 6311.000
1107.259, 6436.000
1108.506, 6178.000
1109.752, 6247.000
1110.998, 6272.000
1112.244, 6139.000
1113.490, 6144.000
1114.736, 6130.000
1115.981, 6168.000
1117.227, 6177.000
1118.472, 6101.000
1119.717, 6134.000
1120.962, 6111.000
1122.206, 6064.000
1123.451, 6156.000
1124.695, 6094.000
1125.939, 6077.000
1127.183, 6113.000
1128.427, 6078.000
1129.671, 6071.000
1130.914, 6144.000
1132.157, 5940.000
1133.400, 6080.000
1134.643, 6062.000
1135.886, 6062.000
1137.129, 6135.000
1138.371, 6092.992
1139.613, 6078.000
1140.856, 6085.000
1142.098, 6021.000
1143.339, 6057.000
1144.581, 5953.000
1145.822, 6000.000
1147.064, 6102.000
1148.305, 5957.000
1149.546, 6032.000
1150.786, 6058.000
1152.027, 6031.000
1153.267, 6086.000
1154.508, 5981.000
1155.748, 6168.000
1156.988, 6060.000
1158.227, 5956.000
1159.467, 6118.000
1160.706, 6108.000
1161.946, 6016.000
1163.185, 6161.000
1164.424, 6040.000
1165.663, 6063.000
1166.901, 6125.000
1168.140, 6047.000
1169.378, 6205.000
1170.616, 6112.000
1171.854, 6080.000
1173.091, 6206.000
1174.329, 6105.000
1175.566, 6168.000
1176.804, 6164.000
1178.041, 6020.000
1179.278, 6204.000
1180.514, 6180.000
1181.751, 6013.000
1182.987, 6228.000
1184.224, 6108.000
1185.460, 6227.000
1186.696, 6308.000
1187.931, 6121.000
1189.167, 6300.000
1190.402, 6181.000
1191.638, 6166.000
1192.873, 6338.000
1194.108, 6117.000
1195.342, 6184.000
1196.577, 6322.000
1197.811, 6188.000
1199.046, 6319.000
1200.280, 6260.000
1201.514, 6217.000
1202.747, 6274.000
1203.981, 6295.000
1205.214, 6329.000
1206.447, 6386.000
1207.681, 6282.000
1208.913, 6398.000
1210.146, 6398.000
1211.379, 6275.000
1212.611, 6484.000
1213.843, 6313.000
1215.075, 6382.000
1216.307, 6428.000
1217.539, 6349.000
1218.771, 6455.000
1220.002, 6458.000
1221.233, 6377.000
1222.464, 6523.000
1223.695, 6385.000
1224.926, 6398.000
1226.157, 6530.000
1227.387, 6427.000
1228.617, 6482.000
1229.847, 6584.000
1231.077, 6400.000
1232.307, 6479.000
1233.537, 6491.000
1234.766, 6482.000
1235.995, 6586.000
1237.224, 6509.000
1238.453, 6473.000
1239.682, 6656.000
1240.911, 6521.000
1242.139, 6640.000
1243.367, 6582.000
1244.595, 6524.000
1245.823, 6653.000
1247.051, 6546.000
1248.279, 6624.000
1249.506, 6600.000
1250.733, 6545.000
1251.961, 6703.000
1253.187, 6654.000
1254.414, 6558.000
1255.641, 6835.000
1256.867, 6586.000
1258.094, 6751.000
1259.320, 6737.000
1260.546, 6616.000
1261.771, 6806.000
1262.997, 6690.000
1264.222, 6715.000
1265.448, 6709.000
1266.673, 6695.000
1267.898, 6779.000
1269.123, 6765.601
1270.347, 6655.000
1271.572, 6767.000
1272.796, 6848.000
1274.020, 6770.000
1275.244, 6923.000
1276.468, 6804.000
1277.692, 6790.000
1278.915, 6914.000
1280.138, 6746.000
1281.361, 6828.000
1282.584, 6787.000
1283.807, 6851.000
1285.030, 6937.000
1286.252, 6730.000
1287.475, 6788.000
1288.697, 7022.000
1289.919, 6825.000
1291.141, 6864.000
1292.362, 6941.000
1293.584, 6822.000
1294.805, 7032.000
1296.026, 6819.000
1297.247, 6819.000
1298.468, 7105.000
1299.689, 6924.000
1300.909, 6921.000
1302.130, 6991.000
1303.350, 6980.000
1304.570, 7025.000
1305.790, 7110.000
1307.010, 6801.000
1308.229, 7163.000
1309.448, 6942.000
1310.668, 6980.000
1311.887, 7111.000
1313.106, 6955.000
1314.324, 7138.000
1315.543, 7195.000
1316.761, 7046.000
1317.979, 7168.000
1319.198, 6995.000
1320.415, 7182.000
1321.633, 7247.000
1322.851, 7124.000
1324.068, 7156.000
1325.285, 7288.000
1326.502, 7107.000
1327.719, 7332.000
1328.936, 7254.000
1330.153, 7137.000
1331.369, 7351.000
1332.585, 7225.000
1333.801, 7158.000
1335.017, 7469.000
1336.233, 7216.000
1337.449, 7412.000
1338.664, 7524.000
1339.880, 7574.000
1341.095, 7398.000
1342.310, 7322.000
1343.524, 7218.000
1344.739, 7515.000
1345.954, 7324.000
1347.168, 7361.000
1348.382, 7547.000
1349.596, 7302.000
1350.810, 7446.000
1352.023, 7489.000
1353.237, 7390.000
1354.450, 7589.000
1355.663, 7562.000
1356.877, 7547.000
1358.089, 7615.000
1359.302, 7431.000
1360.515, 7455.000
1361.727, 7664.000
1362.939, 7441.000
1364.151, 7708.000
1365.363, 7668.000
1366.575, 7468.000
1367.786, 7761.000
1368.998, 7612.000
1370.209, 7664.000
1371.420, 7889.000
1372.631, 7623.000
1373.842, 7599.000
1375.052, 7734.000
1376.263, 7714.000
1377.473, 7705.000
1378.683, 7673.000
1379.893, 7554.000
1381.103, 7833.000
1382.312, 7673.000
1383.522, 7694.000
1384.731, 7854.000
1385.940, 7681.000
1387.149, 7856.000
1388.358, 7898.000
1389.566, 7770.000
1390.775, 7991.000
1391.983, 8206.000
1393.191, 7863.000
1394.399, 8020.000
1395.607, 7865.000
1396.815, 7936.000
1398.022, 8039.000
1399.230, 7785.000
1400.437, 8056.000
1401.644, 8097.000
1402.851, 7858.000
1404.058, 8185.000
1405.264, 7999.000
1406.470, 7987.000
1407.677, 8263.000
1408.883, 8037.000
1410.089, 8061.000
1411.294, 8211.000
1412.500, 8035.000
1413.705, 8234.000
1414.911, 8327.000
1416.116, 8019.000
1417.321, 8323.000
1418.525, 8107.000
1419.730, 8135.000
1420.934, 8451.000
1422.139, 8169.000
1423.343, 8269.000
1424.547, 8401.000
1425.751, 8153.000
1426.954, 8205.000
1428.158, 8296.000
1429.361, 8205.000
1430.564, 8422.000
1431.767, 8250.000
1432.970, 8332.000
1434.173, 8580.000
1435.375, 8282.000
1436.578, 8357.000
1437.780, 8531.000
1438.982, 8349.000
1440.184, 8521.000
1441.385, 8509.000
1442.587, 8351.000
1443.788, 8634.000
1444.990, 8512.000
1446.191, 8452.000
1447.392, 8674.000
1448.592, 8402.000
1449.793, 8623.000
1450.993, 8759.000
1452.194, 8437.000
1453.394, 8719.000
1454.594, 8799.000
1455.794, 8427.000
1456.993, 8766.000
1458.193, 8675.000
1459.392, 8524.000
1460.591, 8952.000
1461.790, 8584.000
1462.989, 8679.000
1464.188, 8975.000
1465.386, 8634.000
1466.585, 8817.000
1467.783, 8987.000
1468.981, 8584.000
1470.179, 9018.000
1471.377, 8929.000
1472.574, 8828.000
1473.771, 9112.000
1474.969, 8913.000
1476.166, 8775.000
1477.363, 9166.000
1478.560, 8868.000
1479.756, 8982.000
1480.953, 9026.000
1482.149, 8876.000
1483.345, 9212.000
1484.541, 9010.000
1485.737, 8881.000
1486.932, 9235.000
1488.128, 9110.000
1489.323, 8919.000
1490.518, 9346.000
1491.714, 9033.000
1492.908, 9080.000
1494.103, 9289.000
1495.298, 8944.000
1496.492, 9097.000
1497.686, 9341.000
1498.880, 8940.000
1500.074, 9385.000
1501.268, 9220.000
1502.462, 9070.000
1503.655, 9371.000
1504.848, 9114.000
1506.041, 9183.000
1507.234, 9460.000
1508.427, 9090.000
1509.620, 9336.000
1510.812, 9540.000
1512.005, 9120.000
1513.197, 9467.000
1514.389, 9451.000
1515.581, 9243.000
1516.772, 9681.000
1517.964, 9347.000
1519.155, 9391.000
1520.346, 9516.000
1521.538, 9250.000
1522.728, 9290.000
1523.919, 9708.000
1525.110, 9298.000
1526.300, 9486.000
1527.490, 9644.000
1528.681, 9321.000
1529.871, 9667.000
1531.060, 9516.000
1532.250, 9367.000
1533.439, 9698.000
##END=



