##NAMES=Nepheline
##RRUFFID=R060581
##IDEAL CHEMISTRY=Na_3_K(Al_4_Si_4_O_16_)
##LOCALITY=Capo di Bova, Via Appia Antica, Rome, Italy
##OWNER=RRUFF
##SOURCE=Michael Scott
##DESCRIPTION=Colorless hexagonal prisms
##STATUS=The identification of this mineral is confirmed by single-crystal X-ray diffraction and chemical analysis.
##URL=rruff.info/R060581
##MEASURED CHEMISTRY=(Na_0.66_K_0.27_Ca_0.04_)_Î£=0.97_Al_0.98_Si_1.01_O_4_
##PIN_ID=M01882
##ORIENTATION=Laser parallel to c* (0 0 1). Fiducial mark perpendicular to laser is parallel to b [0 1 0]
119.1520, 33262.00
120.3870, 33345.00
121.6220, 33710.00
122.8560, 33556.00
124.0900, 33478.00
125.3240, 33245.00
126.5580, 33215.00
127.7920, 32960.00
129.0260, 33160.00
130.2590, 33291.00
131.4920, 33335.00
132.7250, 33316.00
133.9580, 33325.00
135.1910, 33237.00
136.4230, 33123.00
137.6560, 33245.00
138.8880, 33124.00
140.1200, 33312.00
141.3520, 33148.00
142.5830, 32691.00
143.8150, 33008.00
145.0460, 32591.00
146.2770, 32881.00
147.5080, 32830.00
148.7390, 32903.00
149.9700, 32658.00
151.2000, 32517.00
152.4310, 32829.00
153.6610, 32538.00
154.8910, 32742.00
156.1210, 32674.00
157.3500, 32656.00
158.5800, 32869.00
159.8090, 32831.00
161.0380, 32974.00
162.2670, 33080.00
163.4960, 33468.00
164.7240, 33575.00
165.9530, 33729.00
167.1810, 33808.00
168.4090, 34083.00
169.6370, 34310.00
170.8650, 34332.00
172.0920, 34737.00
173.3200, 35029.00
174.5470, 35391.00
175.7740, 35532.00
177.0010, 35851.00
178.2280, 36009.00
179.4540, 36390.00
180.6810, 36803.00
181.9070, 37096.00
183.1330, 37512.00
184.3590, 37974.00
185.5850, 38560.00
186.8100, 39100.00
188.0350, 39761.00
189.2610, 40405.00
190.4860, 41207.00
191.7110, 41860.00
192.9350, 42838.00
194.1600, 43365.00
195.3840, 44326.00
196.6080, 45065.00
197.8320, 45750.00
199.0560, 46213.00
200.2800, 46489.00
201.5030, 46943.00
202.7270, 47060.00
203.9500, 46851.00
205.1730, 46351.00
206.3950, 45919.00
207.6180, 45658.00
208.8410, 44332.00
210.0630, 43841.00
211.2850, 43137.00
212.5070, 42678.00
213.7290, 42220.00
214.9500, 41681.00
216.1720, 41322.92
217.3930, 41155.00
218.6140, 40661.00
219.8350, 40465.00
221.0560, 40338.00
222.2770, 40692.00
223.4970, 40646.00
224.7170, 40490.00
225.9370, 40468.00
227.1570, 40442.00
228.3770, 40250.00
229.5970, 40026.00
230.8160, 39210.00
232.0350, 38921.00
233.2540, 37905.00
234.4730, 37289.00
235.6920, 36322.00
236.9110, 35846.00
238.1290, 35033.00
239.3470, 34410.00
240.5650, 33661.00
241.7830, 33120.00
243.0010, 32604.78
244.2180, 32325.00
245.4360, 31828.00
246.6530, 31422.00
247.8700, 31304.00
249.0870, 31299.00
250.3040, 31422.00
251.5200, 31506.00
252.7370, 31817.00
253.9530, 32052.00
255.1690, 32664.00
256.3850, 33423.00
257.6000, 33766.00
258.8160, 34359.00
260.0310, 34900.00
261.2460, 35566.00
262.4610, 35940.00
263.6760, 36038.00
264.8910, 36257.00
266.1050, 36179.00
267.3200, 35663.00
268.5340, 35219.00
269.7480, 34288.00
270.9620, 33784.00
272.1750, 33107.00
273.3890, 32268.00
274.6020, 31652.00
275.8150, 31040.00
277.0280, 30335.00
278.2410, 29866.00
279.4540, 29136.00
280.6660, 28871.00
281.8790, 28615.00
283.0910, 28434.00
284.3030, 28046.00
285.5140, 27906.00
286.7260, 27889.00
287.9380, 27643.00
289.1490, 27671.00
290.3600, 27610.68
291.5710, 27648.00
292.7820, 27631.00
293.9920, 27643.00
295.2030, 27749.00
296.4130, 27600.44
297.6230, 27683.00
298.8330, 27332.00
300.0430, 27518.00
301.2520, 27368.00
302.4620, 27580.00
303.6710, 27483.00
304.8800, 27333.00
306.0890, 27408.00
307.2980, 27434.00
308.5070, 27531.00
309.7150, 27526.00
310.9230, 27759.00
312.1310, 27628.00
313.3390, 28034.00
314.5470, 28118.00
315.7550, 28324.00
316.9620, 28183.00
318.1690, 28548.00
319.3760, 28703.00
320.5830, 28964.00
321.7900, 29257.00
322.9960, 29692.00
324.2030, 29612.00
325.4090, 30234.00
326.6150, 30670.00
327.8210, 30493.00
329.0270, 30934.00
330.2320, 31455.00
331.4380, 31538.00
332.6430, 32009.00
333.8480, 32313.00
335.0530, 32804.00
336.2580, 33237.00
337.4620, 34036.00
338.6670, 34993.00
339.8710, 35769.14
341.0750, 36918.00
342.2790, 37800.00
343.4820, 38580.00
344.6860, 39845.00
345.8890, 41121.00
347.0920, 42558.00
348.2960, 43814.00
349.4980, 44788.00
350.7010, 45643.00
351.9040, 45965.00
353.1060, 46014.00
354.3080, 46154.00
355.5100, 46049.00
356.7120, 45790.00
357.9140, 45327.00
359.1150, 45025.00
360.3170, 45085.00
361.5180, 45263.00
362.7190, 45725.00
363.9200, 46416.00
365.1200, 46564.00
366.3210, 47407.00
367.5210, 48766.00
368.7210, 49936.00
369.9210, 51804.00
371.1210, 53169.00
372.3210, 55555.00
373.5200, 57532.00
374.7200, 59831.00
375.9190, 62626.00
377.1180, 65308.00
378.3170, 68488.00
379.5150, 71323.00
380.7140, 74823.00
381.9120, 78023.00
383.1110, 81425.00
384.3090, 84850.00
385.5060, 88405.00
386.7040, 91669.00
387.9020, 94340.00
389.0990, 96578.00
390.2960, 98884.00
391.4930, 100064.0
392.6900, 101340.0
393.8860, 101339.0
395.0830, 101138.0
396.2790, 99313.00
397.4750, 98144.00
398.6710, 96183.00
399.8670, 94266.00
401.0630, 91868.00
402.2580, 89713.00
403.4540, 87237.00
404.6490, 85234.00
405.8440, 83374.00
407.0390, 82027.00
408.2330, 80975.00
409.4280, 79978.00
410.6220, 79067.00
411.8160, 78371.00
413.0100, 78332.00
414.2040, 78055.00
415.3980, 77799.00
416.5910, 78237.00
417.7850, 77700.00
418.9780, 77442.00
420.1710, 76388.00
421.3640, 75561.00
422.5560, 74025.00
423.7490, 72279.00
424.9410, 70969.00
426.1330, 68748.00
427.3250, 66848.00
428.5170, 64656.00
429.7090, 62209.00
430.9000, 60293.00
432.0910, 58237.75
433.2820, 56310.00
434.4730, 54662.00
435.6640, 53215.00
436.8550, 51920.00
438.0450, 51269.00
439.2360, 50097.00
440.4260, 49324.00
441.6160, 48883.00
442.8060, 47980.00
443.9950, 47594.00
445.1850, 47087.00
446.3740, 46882.00
447.5630, 46025.00
448.7520, 45911.00
449.9410, 45925.00
451.1300, 45441.00
452.3180, 45873.00
453.5060, 46241.00
454.6950, 46646.00
455.8830, 47455.00
457.0700, 48681.00
458.2580, 49841.00
459.4450, 50728.00
460.6330, 51236.00
461.8200, 51071.00
463.0070, 50531.00
464.1940, 49292.00
465.3800, 47302.00
466.5670, 45264.00
467.7530, 43532.00
468.9390, 41795.00
470.1250, 40648.00
471.3110, 39041.00
472.4970, 38339.00
473.6820, 37285.00
474.8680, 36765.00
476.0530, 36489.00
477.2380, 36010.00
478.4230, 35979.00
479.6070, 35798.00
480.7920, 35879.00
481.9760, 36115.00
483.1600, 36464.60
484.3440, 36954.00
485.5280, 37657.00
486.7120, 38411.00
487.8950, 39317.00
489.0780, 40610.00
490.2620, 41843.00
491.4450, 43256.00
492.6270, 44845.00
493.8100, 45708.00
494.9920, 46243.00
496.1750, 46200.00
497.3570, 45233.00
498.5390, 43944.00
499.7210, 42661.00
500.9020, 41030.00
502.0840, 40088.00
503.2650, 39109.00
504.4460, 38179.00
505.6270, 37503.00
506.8080, 36896.00
507.9890, 36352.34
509.1690, 36036.00
510.3500, 35619.00
511.5300, 35373.00
512.7100, 35235.00
513.8900, 34818.00
515.0690, 34695.00
516.2490, 34260.00
517.4280, 34426.00
518.6070, 34240.00
519.7860, 34270.00
520.9650, 33975.00
522.1440, 34059.00
523.3220, 34107.00
524.5010, 34011.00
525.6790, 34060.50
526.8570, 33986.00
528.0350, 34014.00
529.2130, 34035.00
530.3900, 33982.00
531.5670, 33967.00
532.7450, 34085.00
533.9220, 33983.00
535.0980, 33669.00
536.2750, 33598.00
537.4520, 33634.00
538.6280, 33737.00
539.8040, 33352.00
540.9800, 33544.00
542.1560, 33480.00
543.3320, 33173.00
544.5070, 33354.00
545.6830, 33195.00
546.8580, 33342.00
548.0330, 33145.00
549.2080, 33185.00
550.3830, 33340.00
551.5570, 33208.00
552.7310, 33330.00
553.9060, 33303.00
555.0800, 33367.00
556.2540, 33353.00
557.4270, 33264.00
558.6010, 33545.00
559.7740, 33596.00
560.9470, 33567.00
562.1210, 33783.00
563.2930, 33974.00
564.4660, 34079.77
565.6390, 34262.81
566.8110, 34446.00
567.9830, 34540.00
569.1550, 34798.00
570.3270, 34931.00
571.4990, 35300.00
572.6710, 35510.00
573.8420, 36027.00
575.0130, 36454.00
576.1840, 36631.00
577.3550, 36802.00
578.5260, 36846.48
579.6970, 36946.00
580.8670, 36605.00
582.0370, 36277.00
583.2070, 35864.00
584.3770, 35704.00
585.5470, 35425.00
586.7170, 35283.00
587.8860, 35256.00
589.0550, 35198.00
590.2240, 35105.00
591.3930, 35073.00
592.5620, 35123.00
593.7310, 35014.00
594.8990, 34895.00
596.0670, 35215.00
597.2350, 35148.00
598.4030, 35339.00
599.5710, 35424.00
600.7390, 35522.00
601.9060, 35830.00
603.0740, 35508.00
604.2410, 35574.00
605.4080, 35772.00
606.5740, 36009.00
607.7410, 36119.00
608.9080, 36117.00
610.0740, 36372.00
611.2400, 36297.00
612.4060, 36269.00
613.5720, 36407.00
614.7370, 35987.00
615.9030, 35951.00
617.0680, 35938.62
618.2330, 35736.92
619.3980, 35767.31
620.5630, 35997.59
621.7280, 36131.72
622.8920, 36174.86
624.0570, 35854.50
625.2210, 36003.52
626.3850, 35964.43
627.5490, 35917.63
628.7120, 36132.70
629.8760, 35865.20
631.0390, 36076.12
632.2020, 36096.05
633.3650, 36203.40
634.5280, 35842.00
635.6910, 36087.00
636.8530, 36216.00
638.0160, 35934.00
639.1780, 36125.00
640.3400, 36014.00
641.5020, 36283.00
642.6640, 36318.00
643.8250, 36336.00
644.9870, 36249.00
646.1480, 36328.97
647.3090, 36311.52
648.4700, 36425.00
649.6300, 36336.00
650.7910, 36393.00
651.9510, 36383.20
653.1120, 36378.00
654.2720, 36385.00
655.4320, 36609.00
656.5910, 36419.00
657.7510, 36493.00
658.9100, 36241.00
660.0690, 36678.00
661.2290, 36542.00
662.3880, 36521.00
663.5460, 36535.00
664.7050, 36526.00
665.8630, 36624.00
667.0220, 36729.00
668.1800, 36689.82
669.3380, 36742.00
670.4950, 36709.00
671.6530, 36834.00
672.8100, 36975.00
673.9680, 36871.00
675.1250, 36980.00
676.2820, 37014.00
677.4390, 36967.00
678.5950, 37143.00
679.7520, 37262.00
680.9080, 37770.00
682.0640, 37424.00
683.2200, 37680.00
684.3760, 37346.00
685.5320, 37509.00
686.6870, 37307.00
687.8420, 37894.00
688.9980, 37559.00
690.1530, 37665.00
691.3070, 38040.00
692.4620, 37820.00
693.6170, 37925.00
694.7710, 37948.00
695.9250, 37854.00
697.0790, 38217.00
698.2330, 38102.00
699.3870, 37928.00
700.5400, 38131.00
701.6940, 38188.00
702.8470, 38279.00
704.0000, 38475.00
705.1530, 38621.00
706.3050, 38543.00
707.4580, 38654.00
708.6100, 38914.00
709.7630, 38580.00
710.9150, 38697.00
712.0660, 38921.00
713.2180, 38892.00
714.3700, 38843.00
715.5210, 38526.00
716.6720, 39155.00
717.8240, 39118.00
718.9740, 38879.00
720.1250, 39068.00
721.2760, 38942.00
722.4260, 38954.00
723.5770, 39214.00
724.7270, 39047.00
725.8770, 39114.00
727.0260, 39144.11
728.1760, 39100.06
729.3250, 39170.00
730.4750, 39143.00
731.6240, 39212.00
732.7730, 39304.00
733.9220, 39161.00
735.0700, 39259.00
736.2190, 39304.00
737.3670, 39251.00
738.5150, 39377.00
739.6630, 39434.00
740.8110, 39400.00
741.9590, 39560.00
743.1060, 39645.00
744.2540, 39677.88
745.4010, 39805.00
746.5480, 39825.00
747.6950, 39884.00
748.8410, 40043.00
749.9880, 39732.00
751.1340, 39736.00
752.2800, 39949.00
753.4260, 39819.00
754.5720, 39859.79
755.7180, 39837.00
756.8640, 39751.00
758.0090, 39861.00
759.1540, 39750.00
760.2990, 39704.00
761.4440, 39851.00
762.5890, 39754.00
763.7340, 39935.00
764.8780, 39951.00
766.0220, 40022.00
767.1660, 39931.00
768.3100, 40093.00
769.4540, 40055.78
770.5980, 40133.00
771.7410, 40068.00
772.8840, 40068.00
774.0280, 40060.00
775.1700, 40142.00
776.3130, 40101.00
777.4560, 40130.00
778.5980, 40216.00
779.7410, 39994.00
780.8830, 40349.00
782.0250, 39934.00
783.1670, 40219.00
784.3080, 40345.00
785.4500, 40281.00
786.5910, 40432.29
787.7320, 40690.00
788.8730, 40597.00
790.0140, 40421.00
791.1550, 40705.00
792.2950, 40366.00
793.4360, 40520.00
794.5760, 40898.00
795.7160, 40925.00
796.8560, 40914.00
797.9960, 40952.00
799.1350, 41091.00
800.2750, 40881.00
801.4140, 41102.00
802.5530, 40966.00
803.6920, 40982.00
804.8310, 41256.00
805.9690, 41453.00
807.1080, 41219.00
808.2460, 41224.00
809.3840, 41229.00
810.5220, 41453.00
811.6600, 41423.00
812.7970, 41400.00
813.9350, 41689.00
815.0720, 41619.00
816.2090, 41499.00
817.3460, 41701.00
818.4830, 41774.00
819.6200, 41916.00
820.7560, 41886.00
821.8930, 41740.00
823.0290, 42023.00
824.1650, 41992.00
825.3010, 42086.00
826.4360, 41919.00
827.5720, 41924.00
828.7070, 42043.00
829.8420, 42024.00
830.9770, 42123.00
832.1120, 42134.00
833.2470, 42346.00
834.3820, 42281.00
835.5160, 42501.00
836.6500, 42530.00
837.7840, 42638.00
838.9180, 42748.00
840.0520, 42467.00
841.1860, 42455.00
842.3190, 42446.00
843.4520, 42507.33
844.5850, 42960.00
845.7180, 42834.00
846.8510, 42882.00
847.9840, 43044.00
849.1160, 42832.00
850.2490, 43127.00
851.3810, 42888.00
852.5130, 43158.00
853.6450, 43175.00
854.7760, 43221.00
855.9080, 43464.00
857.0390, 43408.00
858.1700, 43435.00
859.3010, 43522.11
860.4320, 43756.00
861.5630, 43644.00
862.6930, 43816.00
863.8240, 43994.00
864.9540, 43996.00
866.0840, 43914.00
867.2140, 43552.00
868.3440, 44012.00
869.4730, 43683.00
870.6030, 43969.00
871.7320, 43882.00
872.8610, 44039.00
873.9900, 44191.00
875.1190, 44081.00
876.2470, 44216.00
877.3760, 44213.00
878.5040, 44228.00
879.6320, 44221.00
880.7600, 44246.59
881.8880, 44668.00
883.0150, 44373.00
884.1430, 44509.00
885.2700, 44746.00
886.3970, 44646.00
887.5240, 44855.00
888.6510, 44968.00
889.7780, 44993.00
890.9040, 45232.00
892.0310, 45351.00
893.1570, 45354.00
894.2830, 45374.00
895.4090, 45375.00
896.5350, 45389.00
897.6600, 45618.00
898.7860, 45635.00
899.9110, 45767.00
901.0360, 45625.00
902.1610, 46042.00
903.2860, 46334.00
904.4100, 46215.00
905.5350, 46337.27
906.6590, 46725.98
907.7830, 47013.16
908.9070, 47199.80
910.0310, 47232.76
911.1540, 47274.54
912.2780, 47196.90
913.4010, 47035.16
914.5240, 47363.00
915.6470, 47682.00
916.7700, 47631.00
917.8930, 47641.00
919.0150, 47928.00
920.1380, 48052.00
921.2600, 48241.07
922.3820, 48284.72
923.5040, 48309.60
924.6260, 48316.73
925.7470, 48252.93
926.8690, 48280.72
927.9900, 48271.81
929.1110, 48261.39
930.2320, 48457.00
931.3530, 48316.00
932.4730, 48349.00
933.5940, 48077.00
934.7140, 48354.00
935.8340, 48356.00
936.9540, 48164.00
938.0740, 48274.00
939.1930, 48190.00
940.3130, 48121.00
941.4320, 47924.00
942.5510, 48165.00
943.6700, 48170.00
944.7890, 47964.00
945.9080, 48650.00
947.0260, 48488.00
948.1450, 48572.00
949.2630, 48441.00
950.3810, 49001.00
951.4990, 48893.00
952.6170, 49458.00
953.7340, 49629.00
954.8520, 49959.00
955.9690, 50295.00
957.0860, 50419.00
958.2030, 51001.00
959.3200, 51289.00
960.4360, 51332.00
961.5530, 51809.00
962.6690, 52071.00
963.7850, 52659.00
964.9010, 52880.00
966.0170, 53039.00
967.1330, 53836.00
968.2480, 53834.00
969.3630, 54628.00
970.4790, 54957.00
971.5940, 55589.00
972.7080, 56430.00
973.8230, 57007.00
974.9380, 57712.00
976.0520, 58317.00
977.1660, 59305.00
978.2800, 60498.00
979.3940, 61306.00
980.5080, 62416.00
981.6220, 63110.00
982.7350, 63923.00
983.8480, 64842.00
984.9610, 65403.00
986.0740, 66212.00
987.1870, 66694.00
988.3000, 66980.00
989.4120, 67529.00
990.5250, 67465.00
991.6370, 67914.00
992.7490, 67653.00
993.8610, 67216.00
994.9720, 67632.00
996.0840, 66968.00
997.1950, 66481.00
998.3060, 65375.00
999.4170, 64889.00
1000.528, 63523.00
1001.639, 62283.00
1002.750, 61252.00
1003.860, 60226.00
1004.970, 59112.00
1006.080, 58175.00
1007.190, 57362.16
1008.300, 56634.10
1009.410, 55996.00
1010.519, 55549.00
1011.628, 55128.00
1012.738, 54831.92
1013.846, 54328.49
1014.955, 54192.24
1016.064, 53990.07
1017.172, 53479.95
1018.281, 53401.80
1019.389, 53171.59
1020.497, 52949.44
1021.605, 52975.02
1022.713, 52586.57
1023.820, 52638.43
1024.928, 52535.36
1026.035, 52524.98
1027.142, 52361.28
1028.249, 52264.45
1029.356, 52350.81
1030.462, 52358.93
1031.569, 52120.00
1032.675, 52213.00
1033.781, 51992.00
1034.887, 51883.00
1035.993, 51621.00
1037.098, 51558.00
1038.204, 51132.00
1039.309, 51092.00
1040.415, 51206.00
1041.520, 51204.00
1042.624, 50839.00
1043.729, 50732.00
1044.834, 50856.00
1045.938, 50605.00
1047.042, 50638.00
1048.146, 50619.00
1049.250, 50932.00
1050.354, 50900.00
1051.458, 50584.00
1052.561, 50619.00
1053.664, 51178.00
1054.767, 50947.00
1055.870, 51084.00
1056.973, 50670.00
1058.076, 50853.00
1059.178, 50993.00
1060.281, 51021.00
1061.383, 51307.00
1062.485, 51121.00
1063.587, 51232.00
1064.688, 51469.00
1065.790, 51243.00
1066.891, 51743.00
1067.993, 51785.00
1069.094, 51477.00
1070.195, 51998.00
1071.295, 51964.00
1072.396, 52154.00
1073.496, 52363.00
1074.597, 52367.00
1075.697, 52419.00
1076.797, 52675.00
1077.897, 52512.00
1078.996, 53277.00
1080.096, 53235.22
1081.195, 53335.00
1082.294, 53370.00
1083.393, 53529.00
1084.492, 53478.66
1085.591, 53441.00
1086.689, 53380.00
1087.788, 53366.00
1088.886, 53265.00
1089.984, 52925.36
1091.082, 52961.95
1092.180, 52924.21
1093.277, 52816.89
1094.375, 52397.46
1095.472, 52406.52
1096.569, 52259.52
1097.666, 52116.77
1098.763, 52217.96
1099.860, 51901.31
1100.956, 52021.11
1102.053, 51982.23
1103.149, 52032.20
1104.245, 51925.04
1105.341, 51880.96
1106.436, 52016.29
1107.532, 51753.00
1108.627, 51773.00
1109.723, 51559.00
1110.818, 51356.00
1111.913, 51606.00
1113.007, 51612.00
1114.102, 51472.00
1115.197, 51280.00
1116.291, 51210.00
1117.385, 51125.93
1118.479, 51076.00
1119.573, 51063.00
1120.666, 50984.00
1121.760, 50997.00
1122.853, 51107.00
1123.947, 50901.00
1125.040, 50977.00
1126.132, 51113.00
1127.225, 50713.00
1128.318, 50872.00
1129.410, 50959.00
1130.502, 51289.00
1131.595, 50963.00
1132.687, 51127.00
1133.778, 51151.00
1134.870, 50830.00
1135.961, 51137.00
1137.053, 50846.00
1138.144, 50931.00
1139.235, 50628.25
1140.326, 50783.00
1141.416, 50423.00
1142.507, 50420.00
1143.597, 50577.70
1144.688, 50566.98
1145.778, 50902.00
1146.868, 50902.00
1147.957, 50956.00
1149.047, 51117.00
1150.136, 50720.00
1151.226, 50971.00
1152.315, 50680.00
1153.404, 50954.00
1154.493, 50846.00
1155.581, 51360.00
1156.670, 51083.00
1157.758, 50820.00
1158.846, 51076.00
1159.934, 50887.00
1161.022, 51312.00
1162.110, 51159.00
1163.198, 50962.00
1164.285, 50848.00
1165.372, 51032.00
1166.459, 51176.00
1167.546, 50904.00
1168.633, 51134.00
1169.720, 50936.00
1170.806, 50947.00
1171.892, 51216.00
1172.979, 51105.00
1174.065, 51503.00
1175.150, 51240.00
1176.236, 51435.00
1177.322, 51227.00
1178.407, 51528.00
1179.492, 51412.00
1180.577, 51565.00
1181.662, 51368.00
1182.747, 51254.00
1183.832, 51488.00
1184.916, 51528.00
1186.000, 51317.00
1187.084, 51819.00
1188.168, 51349.00
1189.252, 51418.11
1190.336, 51454.00
1191.419, 51260.00
1192.503, 51205.00
1193.586, 51253.00
1194.669, 51637.00
1195.752, 51838.00
1196.835, 51849.00
1197.917, 51630.00
1199.000, 51612.00
1200.082, 51626.00
1201.164, 51735.00
1202.246, 51662.00
1203.328, 51730.00
1204.409, 51650.00
1205.491, 51768.00
1206.572, 51922.00
1207.653, 51861.00
1208.734, 51604.00
1209.815, 52022.00
1210.896, 52249.00
1211.976, 51618.00
1213.057, 52307.00
1214.137, 52134.00
1215.217, 52124.00
1216.297, 51999.00
1217.377, 52080.79
1218.456, 52503.00
1219.536, 52319.00
1220.615, 52381.00
1221.694, 52556.00
1222.773, 52177.00
1223.852, 52261.00
1224.931, 52380.00
1226.009, 52143.00
1227.088, 52343.00
1228.166, 52167.00
1229.244, 52232.97
1230.322, 52566.00
1231.400, 52400.00
1232.477, 52275.00
1233.555, 52463.00
1234.632, 52413.00
1235.709, 52700.00
1236.786, 52733.30
1237.863, 52571.00
1238.939, 52883.00
1240.016, 52733.00
1241.092, 52726.00
1242.168, 52694.70
1243.245, 52665.75
1244.320, 52676.60
1245.396, 52711.00
1246.472, 52663.00
1247.547, 52748.00
1248.622, 52680.00
1249.697, 52775.00
1250.772, 52862.00
1251.847, 52808.43
1252.922, 52897.86
1253.996, 52735.00
1255.071, 52917.00
1256.145, 52830.00
1257.219, 52720.00
1258.293, 52927.00
1259.366, 52842.00
1260.440, 53138.00
1261.513, 53163.00
1262.587, 52905.00
1263.660, 53247.00
1264.733, 52879.00
1265.805, 53023.00
1266.878, 53318.00
1267.951, 53023.00
1269.023, 52951.00
1270.095, 53095.00
1271.167, 52902.00
1272.239, 53383.00
1273.311, 53103.00
1274.382, 53240.00
1275.454, 53351.00
1276.525, 53371.00
1277.596, 53390.00
1278.667, 53258.00
1279.738, 53256.00
1280.808, 53149.00
1281.879, 53215.00
1282.949, 53430.00
1284.019, 53450.00
1285.089, 53516.00
1286.159, 53407.00
1287.229, 53409.00
1288.298, 53281.00
1289.368, 53337.00
1290.437, 53418.00
1291.506, 53505.00
1292.575, 53490.98
1293.644, 53694.00
1294.712, 53508.00
1295.781, 53467.00
1296.849, 53576.00
1297.917, 53566.00
1298.985, 53724.00
1300.053, 53704.00
1301.121, 53412.00
1302.188, 53791.00
1303.255, 53980.00
1304.323, 53598.00
1305.390, 53559.00
1306.457, 53706.00
1307.523, 53486.00
1308.590, 54002.00
1309.656, 53880.00
1310.723, 54164.00
1311.789, 53698.00
1312.855, 53243.00
1313.921, 53767.00
1314.986, 53750.00
1316.052, 53865.00
1317.117, 53904.00
1318.182, 53896.47
1319.248, 53839.00
1320.312, 53876.00
1321.377, 53863.00
1322.442, 53839.00
1323.506, 54192.00
1324.571, 54046.00
1325.635, 54237.00
1326.699, 54257.36
1327.762, 54156.00
1328.826, 54152.00
1329.890, 54122.00
1330.953, 54120.99
1332.016, 53985.00
1333.079, 54135.00
1334.142, 54269.00
1335.205, 54220.26
1336.268, 53815.00
1337.330, 54003.00
1338.392, 54034.00
1339.454, 53801.00
1340.516, 54041.00
1341.578, 53887.00
1342.640, 53974.00
1343.701, 53879.00
1344.763, 54002.00
1345.824, 54121.00
1346.885, 54123.00
1347.946, 54174.00
1349.007, 54161.00
1350.067, 54363.00
1351.128, 54455.00
1352.188, 54344.00
1353.248, 54516.00
1354.308, 54342.00
1355.368, 54679.00
1356.428, 54449.00
1357.487, 54653.00
1358.547, 54348.00
1359.606, 54207.00
1360.665, 54396.00
1361.724, 54604.00
1362.783, 54468.00
1363.841, 54786.00
1364.900, 54453.00
1365.958, 54667.00
1367.016, 54369.00
1368.074, 54511.00
1369.132, 54559.00
1370.190, 54783.00
1371.247, 54539.00
1372.304, 54956.00
1373.362, 54518.00
1374.419, 54706.00
1375.476, 54636.00
1376.532, 54740.00
1377.589, 55020.00
1378.645, 54874.00
1379.702, 54652.00
1380.758, 54603.00
1381.814, 54888.00
1382.870, 54883.00
1383.925, 55238.00
1384.981, 55264.00
1386.036, 54867.00
1387.092, 54982.00
1388.147, 55001.00
1389.202, 55209.00
1390.256, 54844.00
1391.311, 54943.00
1392.365, 54928.00
1393.420, 55122.00
1394.474, 55086.00
1395.528, 54820.00
1396.582, 54797.00
1397.636, 54830.00
1398.689, 54789.00
1399.742, 55059.00
1400.796, 55326.00
1401.849, 55125.00
1402.902, 55126.00
1403.955, 55266.00
1405.007, 54875.00
1406.060, 54890.00
1407.112, 54933.00
1408.164, 55302.00
1409.216, 55115.00
1410.268, 55401.00
1411.320, 55318.00
1412.371, 55275.00
1413.423, 55226.00
1414.474, 55489.00
1415.525, 55398.00
1416.576, 55448.00
1417.627, 55418.00
1418.678, 55268.00
1419.728, 55330.32
1420.778, 55285.00
1421.829, 55360.00
1422.879, 55331.00
1423.928, 55394.00
1424.978, 55453.00
1426.028, 55424.93
1427.077, 55455.00
1428.126, 55447.00
1429.176, 55333.00
1430.225, 55427.00
1431.273, 55550.00
1432.322, 55792.00
1433.371, 55565.00
1434.419, 55517.00
1435.467, 55532.00
1436.515, 55699.00
1437.563, 55415.00
1438.611, 55425.00
1439.658, 55888.00
1440.706, 55396.00
1441.753, 55402.00
1442.800, 56010.00
1443.847, 55685.00
1444.894, 55571.00
1445.941, 55792.00
1446.987, 55714.00
1448.034, 55553.00
1449.080, 55736.00
1450.126, 55773.00
1451.172, 55665.00
1452.218, 55761.00
1453.263, 55849.00
1454.309, 55596.00
1455.354, 55970.00
1456.399, 55696.00
1457.444, 55712.00
1458.489, 55983.00
1459.534, 55602.00
1460.579, 55972.00
1461.623, 55681.00
1462.667, 55705.00
1463.711, 55882.00
1464.755, 55275.00
1465.799, 55629.00
1466.843, 55656.00
1467.886, 55664.00
1468.930, 55654.00
1469.973, 55676.50
1471.016, 55716.00
1472.059, 55657.00
1473.101, 55611.00
1474.144, 55506.00
1475.186, 55745.00
1476.229, 55524.00
1477.271, 55867.00
1478.313, 55649.00
1479.355, 55846.00
1480.396, 55776.00
1481.438, 55666.00
1482.479, 55708.00
1483.520, 55377.00
1484.561, 55767.00
1485.602, 55816.00
1486.643, 55789.00
1487.684, 55600.00
1488.724, 55802.00
1489.765, 55794.00
1490.805, 55501.00
1491.845, 55426.00
1492.885, 55853.00
1493.924, 55649.00
1494.964, 55830.00
1496.003, 55547.00
1497.042, 55414.00
1498.082, 55844.00
1499.120, 55673.00
1500.159, 55445.00
1501.198, 55446.00
1502.236, 55423.00
1503.275, 55569.00
1504.313, 55463.00
1505.351, 55795.00
1506.389, 55310.00
1507.427, 55391.00
1508.464, 55665.00
1509.502, 55631.00
1510.539, 55559.00
1511.576, 55630.00
1512.613, 55928.00
1513.650, 55646.00
1514.687, 55352.00
1515.723, 55833.00
1516.759, 55640.00
1517.796, 55701.00
1518.832, 55657.00
1519.868, 55643.00
1520.903, 55714.00
1521.939, 55661.00
1522.975, 55706.00
1524.010, 55845.00
1525.045, 55857.00
1526.080, 55671.00
1527.115, 56058.00
1528.150, 55952.00
1529.184, 56089.00
1530.219, 55819.00
1531.253, 55884.00
1532.287, 55561.00
1533.321, 55705.00
1534.355, 55797.00
1535.388, 55708.00
1536.422, 55893.00
1537.455, 55833.00
1538.488, 55918.00
1539.522, 56035.00
1540.554, 55802.00
1541.587, 56112.00
1542.620, 55951.00
1543.652, 56076.00
1544.685, 55819.00
1545.717, 55610.00
1546.749, 55655.00
1547.781, 55560.00
1548.812, 55610.00
1549.844, 55639.49
1550.875, 56084.00
1551.906, 55794.00
1552.938, 56139.00
1553.968, 56348.00
1554.999, 56055.00
1556.030, 56304.00
1557.060, 56086.47
1558.091, 55862.00
1559.121, 55727.00
1560.151, 56183.00
1561.181, 56035.00
1562.211, 56029.00
1563.240, 56289.00
1564.270, 56172.00
1565.299, 56138.00
1566.328, 56013.00
1567.357, 56063.00
1568.386, 55924.00
1569.415, 56334.00
1570.443, 55962.00
1571.472, 56277.00
1572.500, 56028.00
1573.528, 55902.00
1574.556, 55930.00
1575.584, 56024.00
1576.611, 56286.00
1577.639, 55911.00
1578.666, 55974.00
##END=



