##NAMES=Nepheline
##RRUFFID=R060581
##IDEAL CHEMISTRY=Na_3_K(Al_4_Si_4_O_16_)
##LOCALITY=Capo di Bova, Via Appia Antica, Rome, Italy
##OWNER=RRUFF
##SOURCE=Michael Scott
##DESCRIPTION=Colorless hexagonal prisms
##STATUS=The identification of this mineral is confirmed by single-crystal X-ray diffraction and chemical analysis.
##URL=rruff.info/R060581
##MEASURED CHEMISTRY=(Na_0.66_K_0.27_Ca_0.04_)_Î£=0.97_Al_0.98_Si_1.01_O_4_
##PIN_ID=M01882
##ORIENTATION=Laser parallel to c* (0 0 1). Fiducial mark perpendicular to laser is parallel to b [0 1 0]
120.3870, 36880.00
121.6220, 36578.00
122.8560, 36662.00
124.0900, 36818.00
125.3240, 36880.00
126.5580, 36868.19
127.7920, 36700.00
129.0260, 36819.00
130.2590, 36636.00
131.4920, 36682.00
132.7250, 36810.00
133.9580, 36705.00
135.1910, 36799.44
136.4230, 36811.00
137.6560, 36878.00
138.8880, 36798.00
140.1200, 36862.00
141.3520, 36799.16
142.5830, 36717.73
143.8150, 36671.00
145.0460, 36509.00
146.2770, 36403.00
147.5080, 36274.00
148.7390, 36361.00
149.9700, 36127.00
151.2000, 36522.00
152.4310, 36050.00
153.6610, 36304.00
154.8910, 36175.00
156.1210, 36531.00
157.3500, 36832.00
158.5800, 36436.00
159.8090, 36925.00
161.0380, 36782.29
162.2670, 36866.88
163.4960, 36853.00
164.7240, 37204.00
165.9530, 37488.00
167.1810, 37989.00
168.4090, 38021.00
169.6370, 38132.00
170.8650, 38502.00
172.0920, 38712.00
173.3200, 38960.00
174.5470, 38993.00
175.7740, 39683.00
177.0010, 39817.00
178.2280, 40328.00
179.4540, 40508.00
180.6810, 40904.00
181.9070, 41097.00
183.1330, 41594.45
184.3590, 42153.00
185.5850, 42678.00
186.8100, 43376.00
188.0350, 44082.00
189.2610, 44926.00
190.4860, 45757.00
191.7110, 46501.00
192.9350, 47378.00
194.1600, 48086.00
195.3840, 49109.00
196.6080, 49641.00
197.8320, 50305.00
199.0560, 50717.00
200.2800, 51058.71
201.5030, 51652.00
202.7270, 51501.00
203.9500, 51216.00
205.1730, 51261.00
206.3950, 50653.00
207.6180, 50277.00
208.8410, 49444.00
210.0630, 48616.00
211.2850, 47882.00
212.5070, 47123.00
213.7290, 46589.00
214.9500, 46045.00
216.1720, 45729.00
217.3930, 45406.00
218.6140, 45296.00
219.8350, 45266.00
221.0560, 44989.00
222.2770, 45143.00
223.4970, 45007.00
224.7170, 45271.00
225.9370, 45354.00
227.1570, 45334.00
228.3770, 44797.00
229.5970, 44381.00
230.8160, 43811.00
232.0350, 43232.00
233.2540, 42668.00
234.4730, 41597.00
235.6920, 40967.00
236.9110, 40051.00
238.1290, 39417.00
239.3470, 38484.00
240.5650, 37785.00
241.7830, 36975.00
243.0010, 36650.00
244.2180, 36113.00
245.4360, 35966.00
246.6530, 35632.00
247.8700, 35435.00
249.0870, 35503.00
250.3040, 35611.00
251.5200, 35665.00
252.7370, 36160.00
253.9530, 36536.00
255.1690, 37137.00
256.3850, 37618.00
257.6000, 38181.00
258.8160, 38979.00
260.0310, 39467.00
261.2460, 40036.00
262.4610, 40362.00
263.6760, 40856.00
264.8910, 40777.00
266.1050, 40586.00
267.3200, 39994.00
268.5340, 39794.00
269.7480, 39027.00
270.9620, 38325.00
272.1750, 37519.00
273.3890, 36659.00
274.6020, 35835.00
275.8150, 35162.00
277.0280, 34222.00
278.2410, 34159.00
279.4540, 33388.00
280.6660, 33273.00
281.8790, 32527.00
283.0910, 32499.00
284.3030, 32121.00
285.5140, 32066.00
286.7260, 32145.00
287.9380, 31658.00
289.1490, 31902.00
290.3600, 32025.00
291.5710, 31780.00
292.7820, 31857.00
293.9920, 31892.00
295.2030, 31744.00
296.4130, 31822.00
297.6230, 31985.00
298.8330, 31683.00
300.0430, 31515.00
301.2520, 31927.00
302.4620, 31772.00
303.6710, 31479.00
304.8800, 31684.00
306.0890, 31724.00
307.2980, 31614.00
308.5070, 31643.00
309.7150, 31762.00
310.9230, 31975.00
312.1310, 32085.00
313.3390, 32260.00
314.5470, 32379.00
315.7550, 32575.00
316.9620, 32579.00
318.1690, 32975.00
319.3760, 32910.00
320.5830, 33324.00
321.7900, 33688.00
322.9960, 34109.00
324.2030, 34203.00
325.4090, 34623.00
326.6150, 34944.00
327.8210, 35076.00
329.0270, 35775.00
330.2320, 35968.00
331.4380, 36197.00
332.6430, 36560.00
333.8480, 37229.00
335.0530, 37637.51
336.2580, 38243.00
337.4620, 38790.00
338.6670, 39758.00
339.8710, 40385.00
341.0750, 41477.00
342.2790, 42887.00
343.4820, 43552.00
344.6860, 44996.00
345.8890, 46616.00
347.0920, 48071.00
348.2960, 49116.00
349.4980, 50149.00
350.7010, 51130.00
351.9040, 51217.00
353.1060, 51611.00
354.3080, 51586.00
355.5100, 51230.00
356.7120, 51166.00
357.9140, 50895.00
359.1150, 50673.00
360.3170, 50697.00
361.5180, 50919.00
362.7190, 51062.00
363.9200, 51458.00
365.1200, 52339.00
366.3210, 53344.00
367.5210, 54830.00
368.7210, 56159.00
369.9210, 57798.00
371.1210, 59580.00
372.3210, 61481.00
373.5200, 64246.00
374.7200, 66375.00
375.9190, 69444.00
377.1180, 72144.00
378.3170, 75255.00
379.5150, 78767.00
380.7140, 82409.00
381.9120, 85740.00
383.1110, 89426.00
384.3090, 93053.00
385.5060, 96048.00
386.7040, 99787.00
387.9020, 103139.0
389.0990, 106003.0
390.2960, 107933.0
391.4930, 109345.0
392.6900, 110414.0
393.8860, 109904.0
395.0830, 109817.0
396.2790, 108714.0
397.4750, 106501.0
398.6710, 104862.0
399.8670, 102387.0
401.0630, 99824.00
402.2580, 97812.00
403.4540, 95502.00
404.6490, 92803.00
405.8440, 91292.00
407.0390, 90239.00
408.2330, 88238.00
409.4280, 87411.00
410.6220, 86484.00
411.8160, 85952.00
413.0100, 86035.00
414.2040, 85380.00
415.3980, 85620.00
416.5910, 85657.00
417.7850, 85044.00
418.9780, 84614.00
420.1710, 84142.00
421.3640, 83353.00
422.5560, 81771.00
423.7490, 80020.00
424.9410, 78218.00
426.1330, 75842.00
427.3250, 73811.00
428.5170, 71252.00
429.7090, 69001.00
430.9000, 66660.00
432.0910, 64672.00
433.2820, 62850.00
434.4730, 61047.00
435.6640, 59439.00
436.8550, 58103.00
438.0450, 57405.00
439.2360, 56323.00
440.4260, 55611.00
441.6160, 54824.00
442.8060, 53727.00
443.9950, 53500.00
445.1850, 52912.00
446.3740, 52458.00
447.5630, 52326.00
448.7520, 51612.00
449.9410, 51801.00
451.1300, 51281.00
452.3180, 51430.00
453.5060, 52118.00
454.6950, 52569.00
455.8830, 53675.00
457.0700, 54823.00
458.2580, 56221.00
459.4450, 57147.00
460.6330, 57183.52
461.8200, 56965.87
463.0070, 56320.00
464.1940, 54685.00
465.3800, 53258.00
466.5670, 50820.00
467.7530, 48964.00
468.9390, 47188.00
470.1250, 45734.00
471.3110, 44616.00
472.4970, 43462.00
473.6820, 42684.00
474.8680, 42111.00
476.0530, 41629.00
477.2380, 41273.00
478.4230, 41223.00
479.6070, 41078.92
480.7920, 41373.00
481.9760, 41444.00
483.1600, 41629.00
484.3440, 42443.00
485.5280, 43316.00
486.7120, 44221.00
487.8950, 45072.00
489.0780, 46395.00
490.2620, 48031.00
491.4450, 49110.00
492.6270, 50695.00
493.8100, 51893.00
494.9920, 52666.00
496.1750, 52404.00
497.3570, 51291.00
498.5390, 49947.00
499.7210, 48816.00
500.9020, 46972.00
502.0840, 45829.00
503.2650, 44603.00
504.4460, 43955.00
505.6270, 43011.00
506.8080, 42085.00
507.9890, 41590.00
509.1690, 41059.10
510.3500, 41157.00
511.5300, 40563.00
512.7100, 40398.00
513.8900, 40451.00
515.0690, 40036.00
516.2490, 39962.00
517.4280, 39783.00
518.6070, 39696.00
519.7860, 39822.00
520.9650, 39670.00
522.1440, 39618.00
523.3220, 39631.00
524.5010, 39539.00
525.6790, 39558.12
526.8570, 39572.00
528.0350, 39489.00
529.2130, 39495.00
530.3900, 39301.00
531.5670, 39405.00
532.7450, 39263.00
533.9220, 39500.00
535.0980, 39392.00
536.2750, 39338.00
537.4520, 39263.00
538.6280, 39050.00
539.8040, 38765.00
540.9800, 39119.00
542.1560, 39091.00
543.3320, 38766.00
544.5070, 38929.00
545.6830, 38801.00
546.8580, 38794.00
548.0330, 38585.00
549.2080, 38612.00
550.3830, 38541.00
551.5570, 38607.00
552.7310, 38770.00
553.9060, 38710.00
555.0800, 38948.00
556.2540, 38838.00
557.4270, 38730.00
558.6010, 39264.00
559.7740, 39078.00
560.9470, 38830.00
562.1210, 39175.00
563.2930, 39424.00
564.4660, 39362.00
565.6390, 39646.00
566.8110, 39778.00
567.9830, 40038.00
569.1550, 40646.00
570.3270, 40580.00
571.4990, 41312.00
572.6710, 41411.00
573.8420, 41789.00
575.0130, 42404.00
576.1840, 42452.00
577.3550, 42783.00
578.5260, 42429.00
579.6970, 42631.00
580.8670, 42261.00
582.0370, 41974.00
583.2070, 41767.00
584.3770, 41396.00
585.5470, 41208.00
586.7170, 41129.00
587.8860, 40941.00
589.0550, 40921.68
590.2240, 40892.00
591.3930, 40849.00
592.5620, 40982.00
593.7310, 40870.00
594.8990, 40915.00
596.0670, 41280.00
597.2350, 41149.00
598.4030, 40970.00
599.5710, 41334.00
600.7390, 41504.00
601.9060, 41467.00
603.0740, 41854.00
604.2410, 41548.00
605.4080, 42107.00
606.5740, 42169.00
607.7410, 41964.00
608.9080, 42177.00
610.0740, 42323.00
611.2400, 42355.00
612.4060, 42150.00
613.5720, 41840.00
614.7370, 41816.00
615.9030, 41946.00
617.0680, 42067.00
618.2330, 41839.00
619.3980, 41663.00
620.5630, 41886.00
621.7280, 41659.00
622.8920, 41651.00
624.0570, 42047.00
625.2210, 42129.00
626.3850, 41782.00
627.5490, 42102.00
628.7120, 41943.00
629.8760, 42159.00
631.0390, 41940.00
632.2020, 42076.00
633.3650, 42215.00
634.5280, 42134.00
635.6910, 42057.00
636.8530, 42003.00
638.0160, 42144.00
639.1780, 41804.00
640.3400, 42448.00
641.5020, 42546.00
642.6640, 42516.00
643.8250, 42363.00
644.9870, 42190.00
646.1480, 42518.00
647.3090, 42204.00
648.4700, 42334.00
649.6300, 42243.00
650.7910, 42642.00
651.9510, 42505.00
653.1120, 42481.00
654.2720, 42655.00
655.4320, 42469.00
656.5910, 42666.00
657.7510, 42718.00
658.9100, 42542.00
660.0690, 42533.00
661.2290, 42783.00
662.3880, 42812.00
663.5460, 42803.00
664.7050, 42809.00
665.8630, 42984.00
667.0220, 42906.00
668.1800, 42875.00
669.3380, 43138.00
670.4950, 43230.00
671.6530, 43058.00
672.8100, 43269.00
673.9680, 43354.00
675.1250, 43401.00
676.2820, 43522.00
677.4390, 43563.34
678.5950, 43689.00
679.7520, 43698.00
680.9080, 43735.00
682.0640, 43852.00
683.2200, 44005.00
684.3760, 44039.00
685.5320, 43832.00
686.6870, 43978.00
687.8420, 44048.00
688.9980, 44377.00
690.1530, 44272.00
691.3070, 44578.00
692.4620, 44582.00
693.6170, 44284.00
694.7710, 44579.00
695.9250, 44627.00
697.0790, 44432.00
698.2330, 44608.00
699.3870, 44713.00
700.5400, 44751.00
701.6940, 44742.00
702.8470, 45029.00
704.0000, 44996.00
705.1530, 45121.00
706.3050, 44833.00
707.4580, 45126.00
708.6100, 45164.00
709.7630, 45601.00
710.9150, 45363.00
712.0660, 45373.00
713.2180, 45390.00
714.3700, 45338.00
715.5210, 45221.46
716.6720, 45166.00
717.8240, 44947.00
718.9740, 44840.00
720.1250, 44790.00
721.2760, 44854.14
722.4260, 44897.00
723.5770, 45181.00
724.7270, 45283.00
725.8770, 45525.00
727.0260, 45588.00
728.1760, 45636.00
729.3250, 45679.00
730.4750, 45748.70
731.6240, 45783.00
732.7730, 45869.26
733.9220, 45942.00
735.0700, 45980.00
736.2190, 45946.00
737.3670, 45993.02
738.5150, 46020.00
739.6630, 46121.00
740.8110, 46329.00
741.9590, 46410.00
743.1060, 46505.00
744.2540, 46223.00
745.4010, 46369.00
746.5480, 46688.00
747.6950, 46394.00
748.8410, 46767.00
749.9880, 46831.00
751.1340, 46736.00
752.2800, 46741.00
753.4260, 46647.00
754.5720, 46640.36
755.7180, 46598.00
756.8640, 46643.00
758.0090, 46788.00
759.1540, 46857.00
760.2990, 46696.00
761.4440, 46986.00
762.5890, 46848.00
763.7340, 47197.00
764.8780, 46924.00
766.0220, 46980.00
767.1660, 46835.00
768.3100, 47115.00
769.4540, 46911.00
770.5980, 47097.00
771.7410, 47024.00
772.8840, 46971.00
774.0280, 47356.00
775.1700, 47081.00
776.3130, 47315.00
777.4560, 47306.00
778.5980, 47324.00
779.7410, 47433.00
780.8830, 47406.00
782.0250, 47166.00
783.1670, 47325.00
784.3080, 47259.00
785.4500, 47655.00
786.5910, 47792.00
787.7320, 47888.00
788.8730, 47885.00
790.0140, 47767.00
791.1550, 47781.00
792.2950, 47856.00
793.4360, 47733.00
794.5760, 47724.00
795.7160, 48035.00
796.8560, 48188.00
797.9960, 48425.00
799.1350, 47953.00
800.2750, 48333.00
801.4140, 48169.00
802.5530, 48594.00
803.6920, 48215.00
804.8310, 48508.00
805.9690, 48316.00
807.1080, 48391.00
808.2460, 48493.00
809.3840, 48672.00
810.5220, 48917.00
811.6600, 48875.00
812.7970, 49048.00
813.9350, 48762.00
815.0720, 49054.00
816.2090, 49009.00
817.3460, 49150.00
818.4830, 49014.00
819.6200, 49117.00
820.7560, 49177.00
821.8930, 49293.00
823.0290, 49132.00
824.1650, 49131.00
825.3010, 49207.00
826.4360, 49277.00
827.5720, 49363.00
828.7070, 49688.00
829.8420, 49565.00
830.9770, 49453.00
832.1120, 49748.00
833.2470, 49894.00
834.3820, 49798.00
835.5160, 49840.00
836.6500, 49711.00
837.7840, 50003.00
838.9180, 50358.00
840.0520, 50036.00
841.1860, 50317.00
842.3190, 49891.00
843.4520, 50212.00
844.5850, 50229.00
845.7180, 50113.00
846.8510, 50404.00
847.9840, 50237.00
849.1160, 50496.00
850.2490, 50587.00
851.3810, 50596.00
852.5130, 50752.52
853.6450, 50701.00
854.7760, 50877.00
855.9080, 51019.00
857.0390, 51017.00
858.1700, 51019.00
859.3010, 51289.00
860.4320, 50873.00
861.5630, 51278.00
862.6930, 51635.00
863.8240, 51298.00
864.9540, 51391.00
866.0840, 51446.00
867.2140, 51978.00
868.3440, 51490.00
869.4730, 51695.00
870.6030, 51799.00
871.7320, 51255.00
872.8610, 51939.00
873.9900, 51562.00
875.1190, 52279.00
876.2470, 52043.00
877.3760, 52297.00
878.5040, 52087.00
879.6320, 52092.00
880.7600, 52367.00
881.8880, 52070.00
883.0150, 52385.00
884.1430, 52427.00
885.2700, 52440.00
886.3970, 52435.00
887.5240, 52565.00
888.6510, 52589.46
889.7780, 52948.00
890.9040, 52731.00
892.0310, 53031.00
893.1570, 53115.00
894.2830, 53168.00
895.4090, 53709.00
896.5350, 54090.00
897.6600, 53946.00
898.7860, 53768.00
899.9110, 53873.00
901.0360, 53916.00
902.1610, 54388.00
903.2860, 53992.00
904.4100, 54329.00
905.5350, 54726.00
906.6590, 54602.00
907.7830, 54855.00
908.9070, 55107.00
910.0310, 55139.00
911.1540, 55346.00
912.2780, 55360.00
913.4010, 55551.00
914.5240, 55650.00
915.6470, 55976.00
916.7700, 55708.00
917.8930, 55822.00
919.0150, 55843.00
920.1380, 56425.00
921.2600, 56613.00
922.3820, 56381.00
923.5040, 56953.00
924.6260, 56822.00
925.7470, 56871.00
926.8690, 56638.00
927.9900, 56562.00
929.1110, 56583.20
930.2320, 56505.66
931.3530, 56652.00
932.4730, 56530.00
933.5940, 56625.00
934.7140, 56651.00
935.8340, 56711.00
936.9540, 56611.00
938.0740, 56609.55
939.1930, 56562.80
940.3130, 56510.00
941.4320, 56495.00
942.5510, 56480.00
943.6700, 56548.00
944.7890, 56565.00
945.9080, 56764.00
947.0260, 56850.00
948.1450, 57330.00
949.2630, 57359.00
950.3810, 57587.00
951.4990, 57688.00
952.6170, 57879.00
953.7340, 57962.00
954.8520, 58358.00
955.9690, 58778.00
957.0860, 59055.00
958.2030, 59349.00
959.3200, 59644.00
960.4360, 59935.00
961.5530, 60180.00
962.6690, 60513.38
963.7850, 60992.00
964.9010, 61250.00
966.0170, 61862.00
967.1330, 62460.00
968.2480, 62880.00
969.3630, 63552.00
970.4790, 63950.00
971.5940, 64541.00
972.7080, 65383.00
973.8230, 65835.00
974.9380, 66494.00
976.0520, 67766.00
977.1660, 68685.00
978.2800, 69928.00
979.3940, 70321.00
980.5080, 71688.00
981.6220, 72677.00
982.7350, 73819.00
983.8480, 74987.00
984.9610, 74993.00
986.0740, 76270.00
987.1870, 76598.00
988.3000, 77397.00
989.4120, 77463.00
990.5250, 77532.00
991.6370, 77742.00
992.7490, 77810.00
993.8610, 77655.00
994.9720, 77355.64
996.0840, 76602.00
997.1950, 76221.00
998.3060, 75328.00
999.4170, 74333.00
1000.528, 73455.00
1001.639, 71683.00
1002.750, 70756.00
1003.860, 69375.00
1004.970, 68622.00
1006.080, 67571.00
1007.190, 66477.00
1008.300, 65554.00
1009.410, 65224.00
1010.519, 64487.00
1011.628, 64408.00
1012.738, 63524.00
1013.846, 63520.00
1014.955, 63223.00
1016.064, 62959.00
1017.172, 62822.00
1018.281, 62398.00
1019.389, 61767.00
1020.497, 62415.00
1021.605, 61783.00
1022.713, 61785.00
1023.820, 61042.00
1024.928, 61215.00
1026.035, 61227.00
1027.142, 60881.00
1028.249, 61032.00
1029.356, 61340.00
1030.462, 61244.00
1031.569, 60915.00
1032.675, 60996.00
1033.781, 60797.00
1034.887, 60878.00
1035.993, 60735.00
1037.098, 60495.00
1038.204, 60409.00
1039.309, 60025.00
1040.415, 59989.00
1041.520, 60343.00
1042.624, 59949.00
1043.729, 59815.00
1044.834, 59905.00
1045.938, 59676.00
1047.042, 59686.00
1048.146, 59919.00
1049.250, 59732.00
1050.354, 59789.00
1051.458, 59644.00
1052.561, 59926.00
1053.664, 59777.00
1054.767, 60180.00
1055.870, 60015.00
1056.973, 60088.00
1058.076, 60177.00
1059.178, 60322.00
1060.281, 60330.00
1061.383, 60332.00
1062.485, 60313.00
1063.587, 60373.50
1064.688, 60402.00
1065.790, 60523.00
1066.891, 60678.00
1067.993, 60832.00
1069.094, 60832.00
1070.195, 60953.00
1071.295, 61179.00
1072.396, 61163.00
1073.496, 61332.00
1074.597, 61587.96
1075.697, 61721.75
1076.797, 62209.00
1077.897, 62050.00
1078.996, 62462.00
1080.096, 62389.00
1081.195, 62728.00
1082.294, 62644.00
1083.393, 62583.00
1084.492, 62588.00
1085.591, 62464.18
1086.689, 62770.00
1087.788, 62406.00
1088.886, 62501.11
1089.984, 62790.64
1091.082, 62946.48
1092.180, 62974.37
1093.277, 62572.17
1094.375, 62663.36
1095.472, 62518.99
1096.569, 62339.06
1097.666, 62422.49
1098.763, 61943.82
1099.860, 61968.61
1100.956, 61754.83
1102.053, 61718.54
1103.149, 61840.00
1104.245, 61220.00
1105.341, 61382.00
1106.436, 61162.00
1107.532, 60898.00
1108.627, 60993.00
1109.723, 60978.00
1110.818, 60804.70
1111.913, 60907.00
1113.007, 60645.00
1114.102, 60534.00
1115.197, 60663.00
1116.291, 60822.00
1117.385, 60457.00
1118.479, 60661.00
1119.573, 60638.00
1120.666, 60474.00
1121.760, 60773.00
1122.853, 60739.00
1123.947, 60276.00
1125.040, 60480.00
1126.132, 60302.00
1127.225, 60383.00
1128.318, 60352.00
1129.410, 60043.00
1130.502, 60309.00
1131.595, 60462.00
1132.687, 60036.00
1133.778, 60048.00
1134.870, 60276.00
1135.961, 60300.00
1137.053, 60304.00
1138.144, 60173.00
1139.235, 60070.00
1140.326, 60244.00
1141.416, 60448.00
1142.507, 60486.00
1143.597, 60486.00
1144.688, 60535.45
1145.778, 60534.59
1146.868, 60516.00
1147.957, 60524.00
1149.047, 60554.00
1150.136, 60508.00
1151.226, 60828.00
1152.315, 60578.00
1153.404, 60767.00
1154.493, 60958.00
1155.581, 60637.00
1156.670, 60900.00
1157.758, 60607.00
1158.846, 60984.00
1159.934, 60660.00
1161.022, 61076.00
1162.110, 60881.00
1163.198, 60947.00
1164.285, 60895.00
1165.372, 60950.00
1166.459, 60719.00
1167.546, 60591.00
1168.633, 61126.00
1169.720, 60965.00
1170.806, 60958.00
1171.892, 60644.00
1172.979, 61202.00
1174.065, 60863.00
1175.150, 60704.00
1176.236, 61095.00
1177.322, 61487.00
1178.407, 60986.00
1179.492, 61144.00
1180.577, 61372.00
1181.662, 61345.00
1182.747, 61449.29
1183.832, 61061.00
1184.916, 61438.00
1186.000, 61353.00
1187.084, 61239.00
1188.168, 61598.00
1189.252, 61335.00
1190.336, 61372.00
1191.419, 61097.00
1192.503, 61487.00
1193.586, 61244.00
1194.669, 61470.00
1195.752, 61558.00
1196.835, 61698.00
1197.917, 61821.83
1199.000, 61704.00
1200.082, 61800.00
1201.164, 61830.00
1202.246, 61331.00
1203.328, 61934.00
1204.409, 61986.00
1205.491, 61384.00
1206.572, 61781.00
1207.653, 61617.00
1208.734, 61912.00
1209.815, 62073.00
1210.896, 62121.00
1211.976, 62374.00
1213.057, 61885.00
1214.137, 62044.00
1215.217, 62052.16
1216.297, 62047.50
1217.377, 62289.00
1218.456, 62219.00
1219.536, 62561.00
1220.615, 62454.00
1221.694, 62293.00
1222.773, 62639.00
1223.852, 62192.00
1224.931, 62352.00
1226.009, 62705.00
1227.088, 62673.00
1228.166, 62985.00
1229.244, 62809.00
1230.322, 62703.00
1231.400, 62579.00
1232.477, 62655.00
1233.555, 62845.00
1234.632, 62758.00
1235.709, 62882.00
1236.786, 62845.00
1237.863, 62637.00
1238.939, 62909.00
1240.016, 63020.00
1241.092, 62875.34
1242.168, 62956.98
1243.245, 62721.00
1244.320, 62855.00
1245.396, 62882.00
1246.472, 62922.00
1247.547, 63033.00
1248.622, 62895.00
1249.697, 62826.00
1250.772, 62970.00
1251.847, 63253.00
1252.922, 63153.00
1253.996, 63059.00
1255.071, 62806.00
1256.145, 63406.00
1257.219, 62890.00
1258.293, 62837.00
1259.366, 63350.00
1260.440, 63248.00
1261.513, 63219.00
1262.587, 63352.00
1263.660, 63533.00
1264.733, 63556.00
1265.805, 63512.00
1266.878, 63612.00
1267.951, 63679.00
1269.023, 63719.00
1270.095, 63544.00
1271.167, 63697.00
1272.239, 63372.00
1273.311, 63802.00
1274.382, 63660.00
1275.454, 63928.00
1276.525, 63521.00
1277.596, 63914.00
1278.667, 63713.00
1279.738, 63762.00
1280.808, 63679.00
1281.879, 63588.00
1282.949, 63456.00
1284.019, 63901.00
1285.089, 63861.00
1286.159, 63770.00
1287.229, 63807.00
1288.298, 63620.00
1289.368, 63912.00
1290.437, 63726.00
1291.506, 64243.00
1292.575, 63872.00
1293.644, 64286.00
1294.712, 63914.00
1295.781, 64139.00
1296.849, 64252.00
1297.917, 64141.00
1298.985, 64583.00
1300.053, 64313.00
1301.121, 64394.00
1302.188, 64009.00
1303.255, 64250.00
1304.323, 64465.00
1305.390, 64213.00
1306.457, 64415.00
1307.523, 64476.25
1308.590, 64736.79
1309.656, 64890.98
1310.723, 64944.60
1311.789, 64595.43
1312.855, 64767.02
1313.921, 64730.33
1314.986, 64685.36
1316.052, 64931.10
1317.117, 64642.01
1318.182, 64883.71
1319.248, 64913.96
1320.312, 65041.38
1321.377, 64959.24
1322.442, 64942.23
1323.506, 65135.42
1324.571, 65212.68
1325.635, 65107.54
1326.699, 65242.89
1327.762, 64949.36
1328.826, 65032.73
1329.890, 65278.87
1330.953, 65185.73
1332.016, 65326.36
1333.079, 65378.36
1334.142, 65026.54
1335.205, 65377.80
1336.268, 65425.42
1337.330, 65161.25
1338.392, 65489.28
1339.454, 65268.71
1340.516, 65244.36
1341.578, 65367.74
1342.640, 65337.71
1343.701, 65550.28
1344.763, 65529.70
1345.824, 65488.54
1346.885, 65538.70
1347.946, 65505.18
1349.007, 65602.54
1350.067, 65547.26
1351.128, 65654.77
1352.188, 65799.39
1353.248, 65662.30
1354.308, 65824.04
1355.368, 65523.09
1356.428, 65609.83
1357.487, 65655.12
1358.547, 65948.34
1359.606, 65650.78
1360.665, 65727.90
1361.724, 65964.70
1362.783, 65978.75
1363.841, 66086.32
1364.900, 65918.14
1365.958, 66009.56
1367.016, 66029.80
1368.074, 66297.34
1369.132, 66370.16
1370.190, 66281.68
1371.247, 65945.00
1372.304, 66010.00
1373.362, 65973.00
1374.419, 65790.00
1375.476, 65752.00
1376.532, 65892.00
1377.589, 65969.00
1378.645, 65711.00
1379.702, 66057.00
1380.758, 65905.00
1381.814, 66009.00
1382.870, 66237.00
1383.925, 65672.00
1384.981, 66590.00
1386.036, 65848.00
1387.092, 66403.00
1388.147, 66176.00
1389.202, 66097.00
1390.256, 66101.00
1391.311, 66234.00
1392.365, 66428.00
1393.420, 66020.00
1394.474, 66047.00
1395.528, 66681.00
1396.582, 66291.00
1397.636, 66272.00
1398.689, 66223.00
1399.742, 66003.00
1400.796, 66059.00
1401.849, 66513.00
1402.902, 66642.00
1403.955, 66560.00
1405.007, 65923.00
1406.060, 66587.00
1407.112, 66428.00
1408.164, 66808.00
1409.216, 66469.00
1410.268, 66523.00
1411.320, 66450.00
1412.371, 66636.00
1413.423, 66495.00
1414.474, 66710.00
1415.525, 66816.00
1416.576, 66655.00
1417.627, 66698.00
1418.678, 66886.00
1419.728, 66850.00
1420.778, 66581.00
1421.829, 66845.00
1422.879, 66422.00
1423.928, 66903.00
1424.978, 66516.00
1426.028, 66707.00
1427.077, 66880.00
1428.126, 66866.00
1429.176, 67246.00
1430.225, 67147.00
1431.273, 66724.00
1432.322, 67150.00
1433.371, 66904.00
1434.419, 67522.00
1435.467, 67298.00
1436.515, 66999.00
1437.563, 67425.00
1438.611, 66707.00
1439.658, 67279.00
1440.706, 67209.00
1441.753, 67001.00
1442.800, 67130.00
1443.847, 66825.00
1444.894, 67013.00
1445.941, 67360.00
1446.987, 66933.00
1448.034, 67500.00
1449.080, 66818.00
1450.126, 67224.00
1451.172, 67373.00
1452.218, 67220.00
1453.263, 67462.00
1454.309, 67278.00
1455.354, 67228.00
1456.399, 67325.00
1457.444, 67230.00
1458.489, 67492.00
1459.534, 67319.00
1460.579, 67278.00
1461.623, 67267.00
1462.667, 67031.00
1463.711, 67619.00
1464.755, 67114.00
1465.799, 67570.00
1466.843, 67429.00
1467.886, 67096.00
1468.930, 67642.00
1469.973, 66897.00
1471.016, 67526.00
1472.059, 67219.00
1473.101, 67169.00
1474.144, 67097.00
1475.186, 67214.00
1476.229, 67159.00
1477.271, 67190.00
1478.313, 67407.00
1479.355, 67408.00
1480.396, 67574.00
1481.438, 67101.00
1482.479, 67530.00
1483.520, 67288.00
1484.561, 67897.00
1485.602, 67354.00
1486.643, 67513.00
1487.684, 67168.00
1488.724, 67275.00
1489.765, 67458.00
1490.805, 67056.00
1491.845, 67610.00
1492.885, 67914.00
1493.924, 67375.00
1494.964, 67625.00
1496.003, 67897.00
1497.042, 67587.00
1498.082, 67621.00
1499.120, 67261.00
1500.159, 67623.00
1501.198, 67352.00
1502.236, 67701.00
1503.275, 67898.00
1504.313, 67634.00
1505.351, 67755.00
1506.389, 67540.00
1507.427, 67625.00
1508.464, 67903.00
1509.502, 67782.00
1510.539, 67726.00
1511.576, 67876.00
1512.613, 67200.00
1513.650, 67905.00
1514.687, 67438.00
1515.723, 67949.00
1516.759, 67795.00
1517.796, 67584.00
1518.832, 67910.00
1519.868, 67366.00
1520.903, 67896.00
1521.939, 67930.00
1522.975, 67555.00
1524.010, 67962.00
1525.045, 67732.00
1526.080, 68049.00
1527.115, 67695.00
1528.150, 67872.00
1529.184, 67863.00
1530.219, 67921.00
1531.253, 68125.00
1532.287, 68089.00
1533.321, 67906.00
1534.355, 68183.00
1535.388, 67753.00
1536.422, 68000.00
1537.455, 68522.00
1538.488, 67938.00
1539.522, 68043.00
1540.554, 68016.00
1541.587, 68190.00
1542.620, 68094.00
1543.652, 68047.00
1544.685, 68407.00
1545.717, 67520.00
1546.749, 68342.00
1547.781, 68193.00
1548.812, 67684.00
1549.844, 68015.00
1550.875, 68274.00
1551.906, 68106.00
1552.938, 68251.00
1553.968, 68433.00
1554.999, 68477.00
1556.030, 68545.00
1557.060, 68150.00
1558.091, 68641.00
1559.121, 68423.31
1560.151, 68236.00
1561.181, 68385.00
1562.211, 68557.00
1563.240, 68565.00
1564.270, 68419.00
1565.299, 68575.00
1566.328, 68159.00
1567.357, 68307.00
1568.386, 68492.00
1569.415, 68825.00
1570.443, 68800.00
1571.472, 68871.09
1572.500, 68244.00
1573.528, 68854.00
1574.556, 68283.00
1575.584, 68387.00
1576.611, 68107.00
1577.639, 68272.00
1578.666, 68604.00
##END=



