##NAMES=Nepheline
##RRUFFID=R060581
##IDEAL CHEMISTRY=Na_3_K(Al_4_Si_4_O_16_)
##LOCALITY=Capo di Bova, Via Appia Antica, Rome, Italy
##OWNER=RRUFF
##SOURCE=Michael Scott
##DESCRIPTION=Colorless hexagonal prisms
##STATUS=The identification of this mineral is confirmed by single-crystal X-ray diffraction and chemical analysis.
##URL=rruff.info/R060581
##MEASURED CHEMISTRY=(Na_0.66_K_0.27_Ca_0.04_)_Î£=0.97_Al_0.98_Si_1.01_O_4_
##PIN_ID=M01882
##ORIENTATION=Laser parallel to c* (0 0 1). Fiducial mark perpendicular to laser is parallel to b [0 1 0]
120.3870, 31970.39
121.6220, 32023.76
122.8560, 31991.00
124.0900, 31906.00
125.3240, 31805.00
126.5580, 31830.66
127.7920, 31626.00
129.0260, 31839.00
130.2590, 31926.00
131.4920, 31884.00
132.7250, 31688.00
133.9580, 31545.00
135.1910, 31792.00
136.4230, 31706.00
137.6560, 31729.00
138.8880, 31706.00
140.1200, 31630.30
141.3520, 31411.00
142.5830, 31524.00
143.8150, 31370.00
145.0460, 31377.00
146.2770, 31155.00
147.5080, 31329.00
148.7390, 31315.00
149.9700, 31248.00
151.2000, 31294.00
152.4310, 31118.00
153.6610, 31097.00
154.8910, 31353.00
156.1210, 31255.00
157.3500, 31405.00
158.5800, 31327.00
159.8090, 31521.00
161.0380, 31524.00
162.2670, 31718.00
163.4960, 31885.00
164.7240, 32003.00
165.9530, 32142.00
167.1810, 32333.17
168.4090, 32637.00
169.6370, 32730.00
170.8650, 33119.00
172.0920, 33362.00
173.3200, 33753.00
174.5470, 33843.00
175.7740, 33970.00
177.0010, 34338.00
178.2280, 34601.00
179.4540, 34865.00
180.6810, 35269.00
181.9070, 35430.00
183.1330, 36125.00
184.3590, 36708.00
185.5850, 37060.00
186.8100, 37759.00
188.0350, 38626.00
189.2610, 39021.00
190.4860, 40156.00
191.7110, 40594.00
192.9350, 41511.00
194.1600, 42192.00
195.3840, 43048.00
196.6080, 43504.00
197.8320, 44356.50
199.0560, 44971.70
200.2800, 45390.28
201.5030, 45612.56
202.7270, 45617.32
203.9500, 45470.45
205.1730, 45234.76
206.3950, 44880.00
207.6180, 44283.00
208.8410, 43644.00
210.0630, 42800.00
211.2850, 42209.00
212.5070, 41518.00
213.7290, 40825.00
214.9500, 40286.00
216.1720, 39782.00
217.3930, 39637.00
218.6140, 39630.00
219.8350, 38972.00
221.0560, 39215.00
222.2770, 39053.00
223.4970, 39199.00
224.7170, 39258.00
225.9370, 39345.00
227.1570, 39030.00
228.3770, 38726.00
229.5970, 38326.00
230.8160, 37720.00
232.0350, 37272.00
233.2540, 36768.00
234.4730, 35981.00
235.6920, 35107.00
236.9110, 34350.00
238.1290, 33628.00
239.3470, 33156.00
240.5650, 32381.00
241.7830, 31575.00
243.0010, 30912.00
244.2180, 30613.00
245.4360, 30078.00
246.6530, 30049.00
247.8700, 29804.00
249.0870, 29586.00
250.3040, 29735.00
251.5200, 29896.00
252.7370, 29978.00
253.9530, 30510.00
255.1690, 30708.00
256.3850, 31769.00
257.6000, 32204.00
258.8160, 32692.00
260.0310, 33217.00
261.2460, 33700.00
262.4610, 34307.00
263.6760, 34665.00
264.8910, 34689.00
266.1050, 34480.00
267.3200, 34020.00
268.5340, 33552.00
269.7480, 32847.00
270.9620, 32190.00
272.1750, 31276.00
273.3890, 30760.00
274.6020, 29890.00
275.8150, 29339.00
277.0280, 28526.00
278.2410, 28263.00
279.4540, 27723.00
280.6660, 27282.00
281.8790, 26815.00
283.0910, 26617.00
284.3030, 26253.00
285.5140, 25970.00
286.7260, 25750.00
287.9380, 26045.00
289.1490, 25725.00
290.3600, 25997.00
291.5710, 25748.00
292.7820, 25844.00
293.9920, 26046.00
295.2030, 25660.00
296.4130, 25686.00
297.6230, 25674.00
298.8330, 25415.00
300.0430, 25789.00
301.2520, 25705.00
302.4620, 25550.00
303.6710, 25658.59
304.8800, 25607.09
306.0890, 25630.00
307.2980, 25616.00
308.5070, 25740.00
309.7150, 25782.08
310.9230, 25876.96
312.1310, 25953.00
313.3390, 26103.00
314.5470, 26183.00
315.7550, 26320.00
316.9620, 26431.00
318.1690, 26816.00
319.3760, 26849.00
320.5830, 27161.00
321.7900, 27289.00
322.9960, 27534.00
324.2030, 27930.00
325.4090, 27949.00
326.6150, 28259.00
327.8210, 28646.00
329.0270, 29217.00
330.2320, 29628.00
331.4380, 29524.00
332.6430, 29876.00
333.8480, 30480.00
335.0530, 30912.00
336.2580, 31356.00
337.4620, 32095.00
338.6670, 32586.00
339.8710, 33597.00
341.0750, 34558.00
342.2790, 35702.00
343.4820, 37073.00
344.6860, 38338.00
345.8890, 39576.00
347.0920, 41041.00
348.2960, 41979.00
349.4980, 43091.00
350.7010, 43786.00
351.9040, 44490.00
353.1060, 44487.00
354.3080, 44427.00
355.5100, 44383.00
356.7120, 43959.00
357.9140, 43937.00
359.1150, 43704.00
360.3170, 43502.00
361.5180, 43599.00
362.7190, 43835.00
363.9200, 44781.00
365.1200, 45033.00
366.3210, 45981.00
367.5210, 46842.00
368.7210, 48588.00
369.9210, 50194.00
371.1210, 51812.00
372.3210, 53864.00
373.5200, 56326.00
374.7200, 58703.46
375.9190, 61391.00
377.1180, 64246.00
378.3170, 67281.00
379.5150, 70320.00
380.7140, 73299.00
381.9120, 76971.00
383.1110, 80430.00
384.3090, 84339.00
385.5060, 87478.00
386.7040, 91119.00
387.9020, 93784.00
389.0990, 96097.00
390.2960, 98891.00
391.4930, 100665.0
392.6900, 101159.0
393.8860, 101463.0
395.0830, 100653.0
396.2790, 99627.00
397.4750, 98553.00
398.6710, 96394.00
399.8670, 94422.00
401.0630, 92167.00
402.2580, 89290.00
403.4540, 87326.00
404.6490, 84988.00
405.8440, 83692.00
407.0390, 81486.00
408.2330, 80214.00
409.4280, 78981.00
410.6220, 78473.00
411.8160, 77806.00
413.0100, 77425.00
414.2040, 77365.00
415.3980, 77205.00
416.5910, 76899.00
417.7850, 76888.00
418.9780, 76258.22
420.1710, 75760.00
421.3640, 74813.00
422.5560, 73360.00
423.7490, 72085.00
424.9410, 70138.00
426.1330, 67720.00
427.3250, 65574.00
428.5170, 63414.00
429.7090, 61016.00
430.9000, 59126.00
432.0910, 56887.00
433.2820, 54752.00
434.4730, 53235.00
435.6640, 51531.00
436.8550, 50568.00
438.0450, 49601.00
439.2360, 48095.00
440.4260, 47724.00
441.6160, 47012.00
442.8060, 46264.00
443.9950, 45664.00
445.1850, 45249.00
446.3740, 44765.00
447.5630, 44511.00
448.7520, 44096.00
449.9410, 43821.00
451.1300, 43683.00
452.3180, 43929.00
453.5060, 44406.00
454.6950, 44608.00
455.8830, 45691.00
457.0700, 46428.00
458.2580, 47722.00
459.4450, 48712.00
460.6330, 49469.00
461.8200, 49381.00
463.0070, 48463.00
464.1940, 47281.00
465.3800, 45364.00
466.5670, 43354.00
467.7530, 41790.00
468.9390, 39919.00
470.1250, 38251.00
471.3110, 37229.00
472.4970, 36024.00
473.6820, 35256.00
474.8680, 34410.00
476.0530, 33978.00
477.2380, 33765.00
478.4230, 33814.00
479.6070, 33782.00
480.7920, 33732.00
481.9760, 33876.00
483.1600, 34124.00
484.3440, 34802.00
485.5280, 35329.00
486.7120, 36225.34
487.8950, 37110.00
489.0780, 38451.00
490.2620, 39616.00
491.4450, 41176.00
492.6270, 42471.00
493.8100, 43605.00
494.9920, 44094.00
496.1750, 44074.00
497.3570, 43302.00
498.5390, 42153.00
499.7210, 40592.00
500.9020, 39327.00
502.0840, 38101.00
503.2650, 36965.40
504.4460, 35957.00
505.6270, 35157.00
506.8080, 34504.00
507.9890, 34066.00
509.1690, 33607.00
510.3500, 33212.00
511.5300, 32921.00
512.7100, 32585.32
513.8900, 32242.00
515.0690, 32113.00
516.2490, 31908.00
517.4280, 31815.00
518.6070, 31847.00
519.7860, 31815.00
520.9650, 31740.58
522.1440, 31635.00
523.3220, 31632.00
524.5010, 31437.00
525.6790, 31439.00
526.8570, 31378.00
528.0350, 31465.00
529.2130, 31319.00
530.3900, 31459.00
531.5670, 31541.00
532.7450, 31279.00
533.9220, 31198.00
535.0980, 31176.00
536.2750, 30999.00
537.4520, 31176.00
538.6280, 31078.00
539.8040, 31082.00
540.9800, 30900.00
542.1560, 30821.00
543.3320, 30720.00
544.5070, 30785.00
545.6830, 30653.00
546.8580, 30665.00
548.0330, 30778.00
549.2080, 30474.00
550.3830, 30377.00
551.5570, 30698.00
552.7310, 30610.00
553.9060, 30623.00
555.0800, 30513.00
556.2540, 30590.00
557.4270, 30708.00
558.6010, 30511.00
559.7740, 30825.00
560.9470, 30895.00
562.1210, 31035.00
563.2930, 31099.00
564.4660, 31239.86
565.6390, 31584.00
566.8110, 31547.00
567.9830, 31695.00
569.1550, 31924.00
570.3270, 32455.00
571.4990, 32556.00
572.6710, 33180.00
573.8420, 33160.00
575.0130, 33584.00
576.1840, 34001.00
577.3550, 34106.00
578.5260, 33943.00
579.6970, 33850.00
580.8670, 33597.00
582.0370, 33399.00
583.2070, 33072.00
584.3770, 32991.00
585.5470, 32762.00
586.7170, 32471.00
587.8860, 32631.00
589.0550, 32289.00
590.2240, 32077.00
591.3930, 32463.00
592.5620, 32447.00
593.7310, 32279.00
594.8990, 32400.00
596.0670, 32470.00
597.2350, 32243.00
598.4030, 32469.00
599.5710, 32494.00
600.7390, 32762.00
601.9060, 32891.00
603.0740, 32718.00
604.2410, 32940.00
605.4080, 32843.00
606.5740, 33348.00
607.7410, 33573.00
608.9080, 33310.00
610.0740, 33534.00
611.2400, 33310.00
612.4060, 33365.00
613.5720, 33105.00
614.7370, 33284.00
615.9030, 33276.00
617.0680, 33278.00
618.2330, 33245.00
619.3980, 32839.00
620.5630, 32805.00
621.7280, 33065.00
622.8920, 33268.00
624.0570, 32922.00
625.2210, 33136.00
626.3850, 33174.00
627.5490, 33001.00
628.7120, 33120.00
629.8760, 32996.00
631.0390, 33155.00
632.2020, 33244.00
633.3650, 32954.00
634.5280, 33274.00
635.6910, 32973.00
636.8530, 32984.00
638.0160, 33263.00
639.1780, 33150.00
640.3400, 33139.00
641.5020, 33090.00
642.6640, 33238.00
643.8250, 33281.00
644.9870, 33455.00
646.1480, 33346.00
647.3090, 33489.00
648.4700, 33215.00
649.6300, 33394.00
650.7910, 33462.00
651.9510, 33377.00
653.1120, 33468.00
654.2720, 33401.00
655.4320, 33324.00
656.5910, 33554.00
657.7510, 33309.00
658.9100, 33349.00
660.0690, 33538.00
661.2290, 33610.00
662.3880, 33613.00
663.5460, 33613.00
664.7050, 33617.00
665.8630, 33740.00
667.0220, 33809.00
668.1800, 33839.00
669.3380, 33884.00
670.4950, 33713.00
671.6530, 33889.00
672.8100, 33896.00
673.9680, 33773.00
675.1250, 33859.00
676.2820, 34450.00
677.4390, 34171.00
678.5950, 34311.00
679.7520, 34553.00
680.9080, 34403.00
682.0640, 34482.00
683.2200, 34468.00
684.3760, 34559.00
685.5320, 34428.00
686.6870, 34731.00
687.8420, 34671.00
688.9980, 34976.00
690.1530, 34804.00
691.3070, 34649.00
692.4620, 34942.00
693.6170, 34889.00
694.7710, 34694.00
695.9250, 34835.00
697.0790, 34787.00
698.2330, 35042.00
699.3870, 35251.00
700.5400, 35178.00
701.6940, 35086.00
702.8470, 35310.00
704.0000, 35250.00
705.1530, 35468.00
706.3050, 35690.00
707.4580, 35731.00
708.6100, 35677.00
709.7630, 35585.00
710.9150, 35801.00
712.0660, 35997.00
713.2180, 36004.00
714.3700, 36018.00
715.5210, 36005.00
716.6720, 36051.00
717.8240, 36055.51
718.9740, 36160.00
720.1250, 36020.00
721.2760, 35988.00
722.4260, 35806.00
723.5770, 35770.00
724.7270, 35693.00
725.8770, 35983.00
727.0260, 35683.00
728.1760, 36269.00
729.3250, 36147.00
730.4750, 35856.00
731.6240, 36098.00
732.7730, 36062.00
733.9220, 36338.00
735.0700, 36217.00
736.2190, 36039.00
737.3670, 36373.00
738.5150, 36333.00
739.6630, 36245.00
740.8110, 36269.00
741.9590, 36219.00
743.1060, 36404.00
744.2540, 36329.00
745.4010, 36572.00
746.5480, 36680.00
747.6950, 36495.00
748.8410, 36894.00
749.9880, 36502.00
751.1340, 36656.00
752.2800, 36857.00
753.4260, 36791.00
754.5720, 36727.00
755.7180, 36463.00
756.8640, 36649.00
758.0090, 36634.00
759.1540, 36487.00
760.2990, 36644.00
761.4440, 36746.00
762.5890, 36584.00
763.7340, 36744.00
764.8780, 36583.00
766.0220, 36597.00
767.1660, 36716.00
768.3100, 36995.00
769.4540, 37026.61
770.5980, 37046.92
771.7410, 37170.00
772.8840, 36962.00
774.0280, 36822.00
775.1700, 36807.00
776.3130, 36753.40
777.4560, 36862.00
778.5980, 36837.00
779.7410, 37014.00
780.8830, 37135.00
782.0250, 36844.00
783.1670, 37136.00
784.3080, 37086.00
785.4500, 37126.00
786.5910, 37482.00
787.7320, 37570.00
788.8730, 37478.00
790.0140, 37738.00
791.1550, 37553.00
792.2950, 37245.00
793.4360, 37246.00
794.5760, 37408.00
795.7160, 37646.00
796.8560, 37612.00
797.9960, 37595.00
799.1350, 37602.00
800.2750, 37629.00
801.4140, 37706.00
802.5530, 37791.00
803.6920, 37755.00
804.8310, 37974.00
805.9690, 37846.00
807.1080, 37905.00
808.2460, 37910.00
809.3840, 37768.00
810.5220, 37932.00
811.6600, 38077.00
812.7970, 38006.00
813.9350, 38161.66
815.0720, 38162.00
816.2090, 38264.00
817.3460, 38355.00
818.4830, 38324.00
819.6200, 38484.00
820.7560, 38591.00
821.8930, 38636.00
823.0290, 38687.02
824.1650, 38654.00
825.3010, 38807.00
826.4360, 38709.00
827.5720, 39003.00
828.7070, 38919.13
829.8420, 38688.00
830.9770, 39003.00
832.1120, 38816.00
833.2470, 39112.00
834.3820, 39024.00
835.5160, 38924.00
836.6500, 39048.00
837.7840, 39073.00
838.9180, 39357.00
840.0520, 39340.00
841.1860, 39298.00
842.3190, 39073.00
843.4520, 39397.00
844.5850, 39358.00
845.7180, 39566.00
846.8510, 39152.00
847.9840, 39495.00
849.1160, 39584.00
850.2490, 39979.00
851.3810, 39635.00
852.5130, 39767.00
853.6450, 39645.00
854.7760, 39967.00
855.9080, 40110.00
857.0390, 40076.00
858.1700, 39964.00
859.3010, 40290.00
860.4320, 40259.00
861.5630, 40094.00
862.6930, 40257.00
863.8240, 40162.00
864.9540, 40316.00
866.0840, 40336.00
867.2140, 40168.00
868.3440, 40279.00
869.4730, 40295.50
870.6030, 40396.49
871.7320, 40468.00
872.8610, 40689.00
873.9900, 40812.00
875.1190, 40906.00
876.2470, 40662.00
877.3760, 40832.00
878.5040, 40862.00
879.6320, 40863.00
880.7600, 40993.00
881.8880, 41013.00
883.0150, 40961.00
884.1430, 41191.00
885.2700, 41035.00
886.3970, 41170.00
887.5240, 41476.00
888.6510, 41234.00
889.7780, 41283.00
890.9040, 41443.00
892.0310, 41515.00
893.1570, 41731.00
894.2830, 41914.00
895.4090, 42160.00
896.5350, 42136.00
897.6600, 42065.00
898.7860, 42373.00
899.9110, 42492.00
901.0360, 42526.00
902.1610, 42877.00
903.2860, 42654.00
904.4100, 42889.00
905.5350, 42793.00
906.6590, 43099.00
907.7830, 43202.00
908.9070, 43455.00
910.0310, 43740.00
911.1540, 43537.00
912.2780, 43575.00
913.4010, 43942.00
914.5240, 44119.00
915.6470, 44341.00
916.7700, 44398.00
917.8930, 44431.00
919.0150, 44686.00
920.1380, 44764.48
921.2600, 44772.00
922.3820, 45026.00
923.5040, 44979.00
924.6260, 44974.00
925.7470, 45035.00
926.8690, 45045.00
927.9900, 44909.00
929.1110, 44874.19
930.2320, 44813.00
931.3530, 44749.77
932.4730, 44722.94
933.5940, 44670.15
934.7140, 44676.22
935.8340, 44653.51
936.9540, 44667.96
938.0740, 44667.53
939.1930, 44666.47
940.3130, 44686.16
941.4320, 44661.00
942.5510, 44605.00
943.6700, 44535.00
944.7890, 44511.00
945.9080, 44691.23
947.0260, 44775.00
948.1450, 45179.00
949.2630, 45192.00
950.3810, 45502.00
951.4990, 45863.00
952.6170, 45893.00
953.7340, 46081.00
954.8520, 46233.00
955.9690, 46574.00
957.0860, 46815.70
958.2030, 47148.00
959.3200, 47534.00
960.4360, 47664.00
961.5530, 48214.00
962.6690, 48506.00
963.7850, 49168.00
964.9010, 49334.00
966.0170, 49665.00
967.1330, 50171.00
968.2480, 50784.00
969.3630, 51156.00
970.4790, 51544.00
971.5940, 52133.51
972.7080, 52690.05
973.8230, 53437.00
974.9380, 54051.00
976.0520, 55176.00
977.1660, 55993.00
978.2800, 57052.00
979.3940, 58304.00
980.5080, 58942.00
981.6220, 60139.00
982.7350, 61003.00
983.8480, 61843.00
984.9610, 62415.00
986.0740, 63192.00
987.1870, 63811.00
988.3000, 64420.00
989.4120, 64668.30
990.5250, 64646.00
991.6370, 64932.00
992.7490, 64729.00
993.8610, 64775.00
994.9720, 64287.00
996.0840, 64043.00
997.1950, 63604.00
998.3060, 62769.10
999.4170, 61622.00
1000.528, 60889.00
1001.639, 59485.00
1002.750, 58333.00
1003.860, 56977.00
1004.970, 55882.00
1006.080, 54866.00
1007.190, 53964.00
1008.300, 53195.89
1009.410, 52471.00
1010.519, 51974.00
1011.628, 51552.00
1012.738, 51207.00
1013.846, 50748.00
1014.955, 50178.00
1016.064, 50314.00
1017.172, 49536.00
1018.281, 49438.00
1019.389, 49614.00
1020.497, 49594.00
1021.605, 49081.00
1022.713, 49058.00
1023.820, 48845.00
1024.928, 48941.00
1026.035, 48842.00
1027.142, 48896.00
1028.249, 48560.00
1029.356, 48604.00
1030.462, 48809.00
1031.569, 48477.00
1032.675, 48508.00
1033.781, 47950.00
1034.887, 47935.00
1035.993, 48139.00
1037.098, 47820.00
1038.204, 47764.00
1039.309, 47678.00
1040.415, 47691.00
1041.520, 47499.25
1042.624, 47098.00
1043.729, 47138.00
1044.834, 47029.00
1045.938, 46845.00
1047.042, 47106.00
1048.146, 46993.00
1049.250, 47036.00
1050.354, 46964.00
1051.458, 47221.00
1052.561, 47084.00
1053.664, 47143.00
1054.767, 47081.00
1055.870, 47158.00
1056.973, 47056.00
1058.076, 47194.00
1059.178, 47309.00
1060.281, 47234.00
1061.383, 47480.00
1062.485, 47772.00
1063.587, 47774.00
1064.688, 47811.00
1065.790, 47668.00
1066.891, 47721.00
1067.993, 47962.00
1069.094, 48156.00
1070.195, 48280.00
1071.295, 48375.00
1072.396, 48357.00
1073.496, 48532.53
1074.597, 48762.00
1075.697, 48740.00
1076.797, 48981.00
1077.897, 48963.00
1078.996, 49180.00
1080.096, 49422.00
1081.195, 49462.00
1082.294, 49538.00
1083.393, 49601.97
1084.492, 49584.18
1085.591, 49626.00
1086.689, 49559.00
1087.788, 49560.00
1088.886, 49590.00
1089.984, 49371.00
1091.082, 49322.00
1092.180, 49265.00
1093.277, 49147.00
1094.375, 48996.00
1095.472, 48954.00
1096.569, 48786.00
1097.666, 48775.00
1098.763, 48686.74
1099.860, 48376.00
1100.956, 48490.00
1102.053, 48344.00
1103.149, 48083.00
1104.245, 48146.00
1105.341, 48107.00
1106.436, 47940.00
1107.532, 47807.00
1108.627, 47852.00
1109.723, 47710.00
1110.818, 47802.00
1111.913, 47665.00
1113.007, 47340.00
1114.102, 47024.00
1115.197, 47542.00
1116.291, 47160.00
1117.385, 47523.00
1118.479, 47327.00
1119.573, 46988.00
1120.666, 47416.00
1121.760, 47151.00
1122.853, 47194.00
1123.947, 46936.00
1125.040, 47205.00
1126.132, 46777.00
1127.225, 47009.00
1128.318, 47017.00
1129.410, 46959.00
1130.502, 47048.00
1131.595, 46953.00
1132.687, 46914.00
1133.778, 47072.00
1134.870, 46807.00
1135.961, 46932.00
1137.053, 46854.00
1138.144, 46932.00
1139.235, 46964.00
1140.326, 46632.00
1141.416, 46840.00
1142.507, 46739.00
1143.597, 47039.00
1144.688, 46854.00
1145.778, 46828.00
1146.868, 46962.00
1147.957, 46833.00
1149.047, 47061.00
1150.136, 47019.00
1151.226, 47168.00
1152.315, 47243.08
1153.404, 47154.00
1154.493, 47321.00
1155.581, 47114.00
1156.670, 46994.00
1157.758, 47115.00
1158.846, 46993.00
1159.934, 47155.00
1161.022, 47129.00
1162.110, 46887.00
1163.198, 46846.00
1164.285, 46922.00
1165.372, 47073.00
1166.459, 46967.00
1167.546, 47349.00
1168.633, 47271.00
1169.720, 47185.00
1170.806, 47081.00
1171.892, 47324.00
1172.979, 47271.00
1174.065, 47086.00
1175.150, 46998.00
1176.236, 47407.00
1177.322, 47534.00
1178.407, 47600.00
1179.492, 47600.00
1180.577, 47316.00
1181.662, 47248.00
1182.747, 47373.00
1183.832, 47461.00
1184.916, 47430.90
1186.000, 47423.61
1187.084, 47472.00
1188.168, 47312.00
1189.252, 47403.00
1190.336, 47445.00
1191.419, 47432.00
1192.503, 47556.00
1193.586, 47526.00
1194.669, 47480.00
1195.752, 47533.00
1196.835, 47560.00
1197.917, 47329.00
1199.000, 47800.00
1200.082, 47512.00
1201.164, 47704.00
1202.246, 47583.00
1203.328, 47749.00
1204.409, 47768.00
1205.491, 47831.00
1206.572, 47662.00
1207.653, 47927.00
1208.734, 47849.00
1209.815, 47835.00
1210.896, 47947.80
1211.976, 48021.00
1213.057, 48015.00
1214.137, 48202.00
1215.217, 48193.00
1216.297, 48033.00
1217.377, 47880.00
1218.456, 47872.00
1219.536, 48124.00
1220.615, 48299.00
1221.694, 48461.00
1222.773, 48088.00
1223.852, 47999.00
1224.931, 48410.00
1226.009, 48085.00
1227.088, 48269.00
1228.166, 48529.00
1229.244, 48553.00
1230.322, 48500.00
1231.400, 48618.49
1232.477, 48599.14
1233.555, 48678.00
1234.632, 48626.00
1235.709, 48677.00
1236.786, 48653.00
1237.863, 48412.00
1238.939, 48542.00
1240.016, 48327.00
1241.092, 48476.00
1242.168, 48598.00
1243.245, 48699.00
1244.320, 48710.00
1245.396, 48366.00
1246.472, 48300.00
1247.547, 48099.00
1248.622, 48342.00
1249.697, 48811.00
1250.772, 48764.00
1251.847, 48399.00
1252.922, 48675.00
1253.996, 48507.00
1255.071, 48849.00
1256.145, 48828.00
1257.219, 48770.00
1258.293, 48553.00
1259.366, 48770.00
1260.440, 48709.00
1261.513, 48935.00
1262.587, 48879.00
1263.660, 48823.00
1264.733, 48859.00
1265.805, 48759.00
1266.878, 48549.00
1267.951, 48854.00
1269.023, 48982.00
1270.095, 49053.00
1271.167, 49547.00
1272.239, 49057.00
1273.311, 48857.00
1274.382, 48733.00
1275.454, 49460.00
1276.525, 49044.00
1277.596, 49366.00
1278.667, 49124.00
1279.738, 49095.00
1280.808, 49098.00
1281.879, 49282.00
1282.949, 49276.00
1284.019, 49172.00
1285.089, 49203.00
1286.159, 49232.00
1287.229, 48930.00
1288.298, 49371.00
1289.368, 49483.00
1290.437, 48933.00
1291.506, 49067.00
1292.575, 49360.00
1293.644, 49378.00
1294.712, 49184.00
1295.781, 49249.00
1296.849, 49317.00
1297.917, 49360.00
1298.985, 49336.00
1300.053, 49299.00
1301.121, 49512.00
1302.188, 49382.00
1303.255, 49383.00
1304.323, 49720.00
1305.390, 49577.00
1306.457, 49248.00
1307.523, 49440.00
1308.590, 49352.00
1309.656, 49693.00
1310.723, 49882.00
1311.789, 49635.00
1312.855, 49287.00
1313.921, 49660.00
1314.986, 49715.00
1316.052, 49813.00
1317.117, 49456.00
1318.182, 49467.00
1319.248, 49575.00
1320.312, 49895.00
1321.377, 49716.00
1322.442, 49643.00
1323.506, 49649.00
1324.571, 49630.00
1325.635, 49784.00
1326.699, 49674.00
1327.762, 49588.00
1328.826, 49626.00
1329.890, 49484.00
1330.953, 49772.00
1332.016, 49886.00
1333.079, 49853.00
1334.142, 49924.41
1335.205, 49546.00
1336.268, 49848.00
1337.330, 49770.00
1338.392, 49764.00
1339.454, 49917.00
1340.516, 49867.00
1341.578, 49667.00
1342.640, 50045.00
1343.701, 50133.00
1344.763, 49933.00
1345.824, 49884.00
1346.885, 50097.00
1347.946, 50012.00
1349.007, 50063.00
1350.067, 49973.00
1351.128, 50027.00
1352.188, 50136.00
1353.248, 50022.00
1354.308, 49962.00
1355.368, 50113.00
1356.428, 50101.00
1357.487, 50148.00
1358.547, 50146.00
1359.606, 50171.21
1360.665, 50233.97
1361.724, 50235.00
1362.783, 50299.00
1363.841, 50368.00
1364.900, 50263.00
1365.958, 50324.00
1367.016, 50540.00
1368.074, 50308.00
1369.132, 50295.00
1370.190, 50354.00
1371.247, 50579.00
1372.304, 50505.00
1373.362, 50457.00
1374.419, 50270.00
1375.476, 50685.00
1376.532, 50546.00
1377.589, 50868.00
1378.645, 50239.00
1379.702, 50697.00
1380.758, 50458.00
1381.814, 50691.00
1382.870, 50628.00
1383.925, 50733.00
1384.981, 50519.00
1386.036, 50607.00
1387.092, 50543.89
1388.147, 50679.00
1389.202, 50507.00
1390.256, 50685.00
1391.311, 50771.00
1392.365, 50966.00
1393.420, 50764.00
1394.474, 50654.00
1395.528, 50761.00
1396.582, 51060.00
1397.636, 50459.00
1398.689, 50804.00
1399.742, 50570.00
1400.796, 51092.00
1401.849, 50769.00
1402.902, 50613.00
1403.955, 51116.00
1405.007, 50680.00
1406.060, 50645.00
1407.112, 50914.00
1408.164, 50854.00
1409.216, 50989.00
1410.268, 50804.00
1411.320, 50940.00
1412.371, 50791.00
1413.423, 50914.00
1414.474, 51104.00
1415.525, 51044.00
1416.576, 51374.00
1417.627, 51032.00
1418.678, 50967.00
1419.728, 51274.00
1420.778, 51229.00
1421.829, 50963.00
1422.879, 51154.00
1423.928, 51164.00
1424.978, 51057.00
1426.028, 50840.00
1427.077, 50819.00
1428.126, 50885.00
1429.176, 50857.05
1430.225, 51072.00
1431.273, 50980.00
1432.322, 51138.00
1433.371, 51176.00
1434.419, 51224.00
1435.467, 51050.00
1436.515, 50835.00
1437.563, 51179.00
1438.611, 51373.00
1439.658, 51215.00
1440.706, 51209.00
1441.753, 51119.00
1442.800, 51392.00
1443.847, 51201.00
1444.894, 51325.00
1445.941, 51113.00
1446.987, 51271.00
1448.034, 51347.00
1449.080, 51208.00
1450.126, 51263.00
1451.172, 51283.00
1452.218, 51267.00
1453.263, 51414.00
1454.309, 51584.00
1455.354, 51591.00
1456.399, 51526.00
1457.444, 51126.00
1458.489, 51363.00
1459.534, 51190.50
1460.579, 51213.80
1461.623, 51317.00
1462.667, 51177.00
1463.711, 51208.39
1464.755, 51273.00
1465.799, 51177.00
1466.843, 51149.00
1467.886, 51243.00
1468.930, 51296.00
1469.973, 51005.00
1471.016, 51221.00
1472.059, 51320.00
1473.101, 50950.00
1474.144, 51112.00
1475.186, 51393.00
1476.229, 51301.00
1477.271, 51120.00
1478.313, 50995.00
1479.355, 51256.00
1480.396, 51309.00
1481.438, 51004.00
1482.479, 51500.00
1483.520, 50999.00
1484.561, 51134.00
1485.602, 51163.00
1486.643, 51345.00
1487.684, 51380.00
1488.724, 51156.00
1489.765, 51648.00
1490.805, 51387.00
1491.845, 52027.00
1492.885, 51265.00
1493.924, 51169.00
1494.964, 51218.00
1496.003, 51228.00
1497.042, 51292.00
1498.082, 51306.00
1499.120, 51536.00
1500.159, 51421.00
1501.198, 51354.00
1502.236, 51162.00
1503.275, 51237.00
1504.313, 51136.00
1505.351, 51118.00
1506.389, 51159.00
1507.427, 51196.00
1508.464, 51448.00
1509.502, 51130.00
1510.539, 51255.00
1511.576, 51259.00
1512.613, 51568.00
1513.650, 51482.22
1514.687, 51171.00
1515.723, 51396.00
1516.759, 51282.00
1517.796, 51152.00
1518.832, 51484.00
1519.868, 51295.00
1520.903, 51457.00
1521.939, 51503.00
1522.975, 51201.00
1524.010, 51007.00
1525.045, 51275.00
1526.080, 51221.00
1527.115, 51005.00
1528.150, 51447.00
1529.184, 51298.00
1530.219, 50873.00
1531.253, 51566.00
1532.287, 51342.00
1533.321, 51319.00
1534.355, 51339.00
1535.388, 51312.00
1536.422, 51612.00
1537.455, 51592.00
1538.488, 51599.00
1539.522, 51720.00
1540.554, 51599.00
1541.587, 51191.00
1542.620, 51342.00
1543.652, 51034.00
1544.685, 51498.00
1545.717, 51565.00
1546.749, 51141.00
1547.781, 51640.00
1548.812, 51428.00
1549.844, 51597.00
1550.875, 51438.00
1551.906, 51607.00
1552.938, 51529.00
1553.968, 51627.00
1554.999, 51530.77
1556.030, 51697.00
1557.060, 51370.00
1558.091, 51160.00
1559.121, 51223.00
1560.151, 51770.00
1561.181, 51348.00
1562.211, 51418.00
1563.240, 51808.00
1564.270, 51553.00
1565.299, 51895.00
1566.328, 51662.00
1567.357, 51622.00
1568.386, 51514.00
1569.415, 51513.00
1570.443, 51560.00
1571.472, 51695.00
1572.500, 51706.00
1573.528, 51785.00
1574.556, 51721.00
1575.584, 51549.00
1576.611, 51783.00
1577.639, 51406.00
1578.666, 51567.00
##END=



