##NAMES=Olivenite
##RRUFFID=R040181
##IDEAL CHEMISTRY=Cu^2+^_2_As^5+^O_4_(OH)
##LOCALITY=Majuba Hill, Pershing County, Nevada, USA
##OWNER=RRUFF
##SOURCE=University of Arizona Mineral Museum
##DESCRIPTION=Greenish blue prismatic, untwinned. Structure for this sample reported in Li et al (2008).
##STATUS=The identification of this mineral has been confirmed by X-ray diffraction and chemical analysis
##URL=rruff.info/R040181
##MEASURED CHEMISTRY=(Cu_0.98_[box]_0.02_)_2_(As_0.90_P_0.10_O_4_)(OH)_0.92_
##PIN_ID=S00027
##ORIENTATION=Laser parallel to -c* (0 0 -1). Fiducial mark perpendicular to laser is parallel to a [1 0 0]
63.58900, 347.0000
64.83300, 419.0000
66.07600, 414.0000
67.32000, 429.0000
68.56300, 490.0000
69.80600, 491.0000
71.04900, 457.0000
72.29100, 551.0000
73.53400, 591.0000
74.77600, 667.0000
76.01800, 795.0000
77.26000, 1035.000
78.50200, 1203.000
79.74300, 1514.000
80.98500, 1814.000
82.22600, 2368.000
83.46700, 2933.000
84.70800, 3674.000
85.94900, 4352.000
87.18900, 5218.000
88.42900, 5913.000
89.67000, 6547.000
90.91000, 6932.166
92.14900, 7212.296
93.38900, 7347.000
94.62900, 7342.000
95.86800, 7274.000
97.10700, 7074.000
98.34600, 7082.000
99.58500, 7150.000
100.8230, 7316.000
102.0620, 7574.000
103.3000, 7915.000
104.5380, 8331.000
105.7760, 8685.000
107.0140, 9203.000
108.2510, 9353.000
109.4890, 9568.000
110.7260, 9609.000
111.9630, 9636.000
113.2000, 9648.000
114.4360, 9517.000
115.6730, 9490.000
116.9090, 9306.000
118.1450, 9027.000
119.3810, 8815.000
120.6170, 8787.000
121.8530, 8581.000
123.0880, 8509.000
124.3230, 8329.000
125.5590, 8114.000
126.7930, 8056.000
128.0280, 8070.000
129.2630, 8212.000
130.4970, 8123.000
131.7310, 8449.000
132.9650, 8418.000
134.1990, 8814.000
135.4330, 8751.000
136.6670, 8782.000
137.9000, 9049.000
139.1330, 9547.000
140.3660, 10110.00
141.5990, 10805.00
142.8320, 11959.00
144.0640, 13388.00
145.2960, 15249.00
146.5290, 17468.00
147.7610, 20083.00
148.9920, 23088.00
150.2240, 26532.00
151.4550, 29243.00
152.6870, 32268.00
153.9180, 35129.00
155.1490, 37417.00
156.3800, 38911.00
157.6100, 39007.00
158.8400, 38785.00
160.0710, 37531.00
161.3010, 35419.00
162.5310, 32393.00
163.7600, 29065.00
164.9900, 25291.00
166.2190, 22129.00
167.4480, 19467.00
168.6770, 17864.00
169.9060, 16680.00
171.1350, 15801.00
172.3630, 15617.00
173.5920, 15505.00
174.8200, 15245.00
176.0480, 15254.00
177.2760, 14894.00
178.5030, 14545.00
179.7310, 13856.00
180.9580, 13490.00
182.1850, 12962.00
183.4120, 12383.00
184.6390, 11955.00
185.8650, 11387.00
187.0920, 10965.00
188.3180, 10462.00
189.5440, 10059.00
190.7700, 9560.000
191.9960, 9312.000
193.2210, 8900.000
194.4470, 8615.000
195.6720, 8582.000
196.8970, 8588.000
198.1220, 8847.000
199.3460, 9157.000
200.5710, 9623.000
201.7950, 10402.00
203.0190, 10928.00
204.2430, 11705.00
205.4670, 13037.00
206.6910, 14315.00
207.9140, 15976.00
209.1370, 17710.00
210.3610, 19721.00
211.5840, 21906.00
212.8060, 24322.00
214.0290, 26461.00
215.2510, 28691.00
216.4740, 30733.00
217.6960, 32236.00
218.9180, 33255.00
220.1390, 33647.00
221.3610, 33355.00
222.5820, 32446.00
223.8030, 31227.00
225.0240, 29135.00
226.2450, 27022.00
227.4660, 24657.00
228.6870, 22716.00
229.9070, 20684.00
231.1270, 18996.00
232.3470, 17629.00
233.5670, 16540.00
234.7870, 15383.00
236.0060, 14541.00
237.2250, 13804.00
238.4440, 12855.00
239.6630, 12094.00
240.8820, 11351.00
242.1010, 10709.00
243.3190, 10039.00
244.5380, 9478.391
245.7560, 8974.000
246.9740, 8511.000
248.1910, 8058.000
249.4090, 7766.000
250.6260, 7573.000
251.8440, 7505.000
253.0610, 7274.000
254.2780, 7217.000
255.4940, 7190.000
256.7110, 7347.000
257.9270, 7368.000
259.1430, 7448.000
260.3600, 7531.000
261.5750, 7780.000
262.7910, 8047.000
264.0070, 8272.000
265.2220, 8772.000
266.4370, 9357.000
267.6520, 10033.00
268.8670, 10852.00
270.0820, 12272.00
271.2960, 13816.00
272.5100, 15507.00
273.7250, 17932.00
274.9390, 20635.00
276.1520, 23796.00
277.3660, 27185.00
278.5790, 30922.00
279.7930, 34483.00
281.0060, 37485.00
282.2190, 40065.00
283.4320, 41634.00
284.6440, 42160.00
285.8570, 41659.00
287.0690, 40092.00
288.2810, 37292.00
289.4930, 34303.00
290.7050, 30531.00
291.9160, 27179.00
293.1270, 24277.00
294.3390, 21788.00
295.5500, 19987.00
296.7610, 18594.00
297.9710, 17775.00
299.1820, 17175.00
300.3920, 17023.00
301.6020, 17434.00
302.8120, 17497.00
304.0220, 17991.00
305.2320, 18530.00
306.4410, 19060.00
307.6510, 19704.00
308.8600, 19925.00
310.0690, 20365.00
311.2780, 20088.00
312.4860, 20261.00
313.6950, 19516.00
314.9030, 18860.00
316.1110, 18077.00
317.3190, 16919.00
318.5270, 15976.00
319.7350, 15071.00
320.9420, 14093.00
322.1490, 13287.00
323.3570, 12665.00
324.5630, 12132.00
325.7700, 11634.98
326.9770, 11360.00
328.1830, 10985.00
329.3900, 10796.00
330.5960, 10753.00
331.8020, 10608.00
333.0070, 10561.88
334.2130, 10507.00
335.4180, 10507.00
336.6230, 10620.00
337.8290, 10640.00
339.0330, 10802.00
340.2380, 10849.00
341.4430, 11039.00
342.6470, 10969.00
343.8510, 11277.00
345.0550, 11228.00
346.2590, 11423.00
347.4630, 11239.00
348.6660, 11061.00
349.8700, 10726.00
351.0730, 10326.00
352.2760, 9913.000
353.4790, 9277.000
354.6810, 8926.000
355.8840, 8467.000
357.0860, 8091.000
358.2880, 7666.000
359.4900, 7491.000
360.6920, 7360.000
361.8940, 7063.000
363.0950, 6922.000
364.2960, 6939.000
365.4980, 6968.000
366.6990, 6692.000
367.8990, 6813.000
369.1000, 6579.000
370.3000, 6618.000
371.5010, 6479.000
372.7010, 6368.000
373.9010, 6238.000
375.1010, 6078.000
376.3000, 5891.000
377.5000, 5902.000
378.6990, 5801.000
379.8980, 5798.000
381.0970, 5706.000
382.2960, 5705.000
383.4940, 5604.000
384.6920, 5562.000
385.8910, 5352.000
387.0890, 5194.000
388.2870, 5165.000
389.4840, 4900.000
390.6820, 4810.000
391.8790, 4745.000
393.0770, 4756.000
394.2740, 4585.000
395.4700, 4509.000
396.6670, 4532.000
397.8640, 4415.000
399.0600, 4465.000
400.2560, 4483.000
401.4520, 4514.000
402.6480, 4541.000
403.8440, 4578.000
405.0390, 4687.000
406.2350, 4871.000
407.4300, 4803.000
408.6250, 5080.000
409.8200, 5134.000
411.0140, 5385.000
412.2090, 5606.000
413.4030, 5733.000
414.5970, 6108.000
415.7910, 6384.000
416.9850, 6724.000
418.1790, 6894.000
419.3720, 7128.000
420.5660, 7244.000
421.7590, 7520.000
422.9520, 7553.000
424.1440, 7490.813
425.3370, 7480.000
426.5300, 7243.000
427.7220, 6962.000
428.9140, 6902.000
430.1060, 6655.000
431.2980, 6497.000
432.4890, 6213.000
433.6810, 6049.000
434.8720, 5896.000
436.0630, 5728.000
437.2540, 5553.000
438.4450, 5460.000
439.6350, 5313.000
440.8260, 5259.000
442.0160, 5249.000
443.2060, 5148.000
444.3960, 4974.000
445.5860, 4948.689
446.7750, 4956.808
447.9650, 4948.883
449.1540, 4925.822
450.3430, 4842.197
451.5320, 4836.778
452.7210, 4800.017
453.9090, 4761.996
455.0980, 4767.583
456.2860, 4692.791
457.4740, 4697.711
458.6620, 4670.812
459.8500, 4730.000
461.0370, 4711.000
462.2250, 4663.000
463.4120, 4684.000
464.5990, 4682.000
465.7860, 4765.000
466.9720, 4666.000
468.1590, 4750.000
469.3450, 4783.000
470.5320, 4965.000
471.7180, 5040.000
472.9030, 5014.000
474.0890, 5155.000
475.2750, 5274.000
476.4600, 5443.000
477.6450, 5597.020
478.8300, 5785.497
480.0150, 5941.000
481.2000, 6204.000
482.3840, 6394.000
483.5690, 6633.000
484.7530, 7067.000
485.9370, 7402.000
487.1210, 7935.000
488.3040, 8364.000
489.4880, 8861.000
490.6710, 9376.000
491.8540, 10032.00
493.0370, 10661.00
494.2200, 11246.00
495.4030, 11734.00
496.5850, 12329.00
497.7680, 12717.00
498.9500, 12994.00
500.1320, 13123.00
501.3140, 13070.00
502.4950, 12981.00
503.6770, 12717.00
504.8580, 12266.00
506.0390, 11954.00
507.2200, 11267.00
508.4010, 11131.00
509.5820, 10602.00
510.7620, 10276.00
511.9420, 10133.00
513.1230, 10014.00
514.3030, 9983.884
515.4820, 10027.00
516.6620, 10153.00
517.8420, 10430.00
519.0210, 10664.00
520.2000, 10811.00
521.3790, 11111.00
522.5580, 11223.00
523.7360, 11344.00
524.9150, 11594.00
526.0930, 11639.00
527.2710, 11539.46
528.4490, 11411.00
529.6270, 11101.00
530.8050, 10683.00
531.9820, 10261.00
533.1590, 9947.000
534.3360, 9560.000
535.5130, 9086.000
536.6900, 8645.000
537.8670, 8245.000
539.0430, 7934.812
540.2200, 7629.314
541.3960, 7448.000
542.5720, 7221.000
543.7470, 7084.000
544.9230, 7071.000
546.0980, 6966.000
547.2740, 6833.000
548.4490, 6903.000
549.6240, 6751.000
550.7990, 6742.000
551.9730, 6788.000
553.1480, 6779.000
554.3220, 6787.000
555.4960, 6647.000
556.6700, 6670.000
557.8440, 6486.000
559.0170, 6469.000
560.1910, 6347.277
561.3640, 6299.000
562.5370, 6102.000
563.7100, 5963.000
564.8830, 5832.000
566.0550, 5549.000
567.2280, 5521.000
568.4000, 5345.000
569.5720, 5041.000
570.7440, 4810.000
571.9160, 4653.000
573.0870, 4600.000
574.2590, 4386.000
575.4300, 4270.000
576.6010, 4207.000
577.7720, 4085.000
578.9430, 4013.000
580.1140, 3879.000
581.2840, 3800.000
582.4540, 3837.000
583.6240, 3646.000
584.7940, 3712.000
585.9640, 3570.000
587.1340, 3587.000
588.3030, 3533.000
589.4720, 3554.000
590.6410, 3424.000
591.8100, 3474.000
592.9790, 3439.000
594.1480, 3371.000
595.3160, 3425.000
596.4840, 3421.000
597.6520, 3329.000
598.8200, 3356.000
599.9880, 3353.644
601.1560, 3494.000
602.3230, 3359.000
603.4900, 3351.000
604.6570, 3261.000
605.8240, 3340.000
606.9910, 3255.000
608.1580, 3342.000
609.3240, 3315.000
610.4900, 3410.000
611.6570, 3402.000
612.8230, 3371.000
613.9880, 3225.000
615.1540, 3310.000
616.3190, 3213.000
617.4850, 3332.000
618.6500, 3335.000
619.8150, 3395.000
620.9790, 3300.000
622.1440, 3311.000
623.3080, 3371.000
624.4730, 3348.000
625.6370, 3396.000
626.8010, 3243.000
627.9640, 3383.000
629.1280, 3492.000
630.2910, 3332.000
631.4550, 3394.000
632.6180, 3413.000
633.7810, 3396.000
634.9440, 3416.000
636.1060, 3424.000
637.2690, 3424.000
638.4310, 3401.000
639.5930, 3391.000
640.7550, 3370.771
641.9170, 3433.000
643.0780, 3339.000
644.2400, 3394.000
645.4010, 3414.000
646.5620, 3395.000
647.7230, 3389.000
648.8840, 3453.000
650.0450, 3496.000
651.2050, 3490.000
652.3650, 3430.000
653.5250, 3439.000
654.6850, 3480.000
655.8450, 3521.000
657.0050, 3516.000
658.1640, 3523.000
659.3230, 3525.000
660.4830, 3644.000
661.6420, 3648.000
662.8000, 3560.000
663.9590, 3633.000
665.1170, 3584.000
666.2760, 3624.000
667.4340, 3569.000
668.5920, 3565.000
669.7500, 3619.000
670.9070, 3575.000
672.0650, 3669.000
673.2220, 3734.000
674.3790, 3584.000
675.5360, 3602.000
676.6930, 3623.000
677.8500, 3656.000
679.0060, 3726.000
680.1620, 3778.000
681.3190, 3733.000
682.4750, 3658.000
683.6300, 3733.000
684.7860, 3732.000
685.9420, 3717.000
687.0970, 3782.000
688.2520, 3775.000
689.4070, 3819.000
690.5620, 3853.000
691.7170, 3779.000
692.8710, 3806.000
694.0250, 3780.000
695.1800, 3816.000
696.3340, 3751.000
697.4870, 3871.000
698.6410, 3868.000
699.7950, 3839.000
700.9480, 3871.000
702.1010, 3831.000
703.2540, 3857.506
704.4070, 3973.000
705.5600, 3924.000
706.7120, 3954.000
707.8640, 4047.000
709.0170, 4020.000
710.1690, 4185.000
711.3210, 4250.000
712.4720, 4211.000
713.6240, 4318.000
714.7750, 4410.000
715.9260, 4365.000
717.0770, 4514.000
718.2280, 4475.000
719.3790, 4639.000
720.5290, 4675.000
721.6800, 4733.000
722.8300, 4806.000
723.9800, 4856.000
725.1300, 4921.000
726.2800, 4985.000
727.4290, 4989.262
728.5790, 4887.000
729.7280, 4967.000
730.8770, 4873.000
732.0260, 4801.000
733.1750, 4814.000
734.3230, 4729.000
735.4720, 4679.000
736.6200, 4557.000
737.7680, 4638.000
738.9160, 4569.000
740.0640, 4562.000
741.2110, 4539.000
742.3590, 4502.000
743.5060, 4493.433
744.6530, 4413.000
745.8000, 4461.000
746.9470, 4453.000
748.0930, 4442.000
749.2400, 4556.000
750.3860, 4389.000
751.5320, 4435.000
752.6780, 4499.000
753.8240, 4475.000
754.9690, 4467.000
756.1150, 4441.000
757.2600, 4524.000
758.4050, 4533.000
759.5500, 4585.000
760.6950, 4572.000
761.8400, 4583.000
762.9840, 4585.000
764.1280, 4623.000
765.2730, 4642.000
766.4170, 4668.000
767.5600, 4730.000
768.7040, 4697.000
769.8470, 4871.000
770.9910, 4910.000
772.1340, 4883.000
773.2770, 5021.000
774.4200, 5053.000
775.5620, 5187.000
776.7050, 5122.000
777.8470, 5256.000
778.9890, 5314.000
780.1310, 5398.000
781.2730, 5517.079
782.4150, 5605.000
783.5570, 5788.000
784.6980, 5949.000
785.8390, 6193.000
786.9800, 6365.466
788.1210, 6593.000
789.2620, 6786.000
790.4020, 7045.000
791.5430, 7316.000
792.6830, 7442.000
793.8230, 7747.000
794.9630, 8018.000
796.1020, 8206.000
797.2420, 8357.000
798.3810, 8430.000
799.5210, 8643.000
800.6600, 8859.000
801.7990, 8866.000
802.9370, 8906.000
804.0760, 9017.000
805.2140, 9169.000
806.3530, 9180.000
807.4910, 9260.000
808.6290, 9454.000
809.7660, 9667.000
810.9040, 9836.027
812.0420, 10104.00
813.1790, 10318.00
814.3160, 10602.00
815.4530, 10978.00
816.5900, 11419.00
817.7260, 11840.00
818.8630, 12294.00
819.9990, 12724.00
821.1350, 13179.00
822.2710, 13753.00
823.4070, 14141.00
824.5430, 14842.00
825.6780, 15826.00
826.8130, 16897.00
827.9490, 17781.00
829.0840, 19471.00
830.2180, 21104.00
831.3530, 22949.00
832.4880, 25229.00
833.6220, 28195.00
834.7560, 31263.00
835.8900, 34679.00
837.0240, 38860.00
838.1580, 43245.00
839.2910, 47567.00
840.4250, 52749.00
841.5580, 58132.00
842.6910, 64165.00
843.8240, 71389.00
844.9560, 80133.00
846.0890, 90471.00
847.2210, 103233.0
848.3540, 118751.0
849.4860, 136956.0
850.6180, 157402.0
851.7490, 177542.0
852.8810, 195634.0
854.0120, 210178.0
855.1440, 216504.0
856.2750, 216131.0
857.4060, 205920.0
858.5360, 188335.0
859.6670, 164511.0
860.7980, 140030.0
861.9280, 116464.0
863.0580, 96136.00
864.1880, 79487.00
865.3180, 65470.00
866.4470, 55033.00
867.5770, 46603.00
868.7060, 40421.00
869.8350, 35084.00
870.9640, 30926.00
872.0930, 27513.00
873.2220, 24766.00
874.3500, 22778.00
875.4790, 20583.00
876.6070, 19025.00
877.7350, 17811.00
878.8630, 16411.00
879.9900, 15407.00
881.1180, 14440.00
882.2450, 13730.00
883.3730, 13060.00
884.5000, 12525.00
885.6260, 11878.71
886.7530, 11333.00
887.8800, 10786.00
889.0060, 10304.00
890.1320, 9910.000
891.2580, 9568.000
892.3840, 9350.000
893.5100, 8995.000
894.6360, 8661.000
895.7610, 8404.295
896.8860, 8055.000
898.0120, 7836.000
899.1360, 7633.000
900.2610, 7347.000
901.3860, 7118.000
902.5100, 6953.000
903.6350, 6792.000
904.7590, 6584.771
905.8830, 6415.000
907.0070, 6209.000
908.1300, 6148.000
909.2540, 5979.000
910.3770, 5852.000
911.5000, 5773.000
912.6230, 5591.000
913.7460, 5681.000
914.8690, 5491.000
915.9910, 5489.000
917.1140, 5505.000
918.2360, 5398.000
919.3580, 5444.000
920.4800, 5453.000
921.6020, 5361.000
922.7230, 5249.000
923.8440, 5258.000
924.9660, 5231.200
926.0870, 5271.000
927.2080, 5259.000
928.3280, 5236.000
929.4490, 5211.000
930.5700, 5116.000
931.6900, 5126.000
932.8100, 5213.000
933.9300, 5094.000
935.0500, 5059.000
936.1690, 5120.000
937.2890, 5052.000
938.4080, 5145.000
939.5270, 5118.000
940.6460, 5054.000
941.7650, 5152.000
942.8840, 5092.000
944.0020, 5143.000
945.1200, 5189.000
946.2390, 5382.000
947.3570, 5373.000
948.4750, 5486.000
949.5920, 5513.000
950.7100, 5670.776
951.8270, 5787.000
952.9440, 6052.000
954.0610, 6164.000
955.1780, 6428.000
956.2950, 6430.000
957.4120, 6520.000
958.5280, 6423.000
959.6440, 6390.000
960.7600, 6319.000
961.8760, 6144.000
962.9920, 5922.000
964.1080, 5815.000
965.2230, 5620.000
966.3380, 5328.000
967.4540, 5141.000
968.5690, 4938.000
969.6830, 4764.669
970.7980, 4697.000
971.9120, 4520.000
973.0270, 4471.000
974.1410, 4443.000
975.2550, 4419.000
976.3690, 4419.000
977.4820, 4240.000
978.5960, 4098.000
979.7090, 4155.000
980.8230, 4079.000
981.9360, 4089.000
983.0490, 3997.000
984.1610, 3949.000
985.2740, 4027.000
986.3860, 3900.000
987.4980, 3963.000
988.6110, 3850.000
989.7220, 3843.000
990.8340, 3826.000
991.9460, 3810.000
993.0570, 3841.000
994.1690, 3787.000
995.2800, 3782.000
996.3910, 3856.000
997.5010, 3982.000
998.6120, 3801.000
999.7230, 3902.000
1000.833, 3882.000
1001.943, 3858.000
1003.053, 3959.000
1004.163, 3973.000
1005.273, 3824.000
1006.382, 3935.000
1007.492, 3821.000
1008.601, 3971.000
1009.710, 3904.000
1010.819, 3934.000
1011.927, 3864.000
1013.036, 3919.000
1014.144, 3826.000
1015.253, 3866.000
1016.361, 3907.000
1017.469, 3941.000
1018.576, 3945.897
1019.684, 3954.986
1020.791, 3951.000
1021.899, 3893.000
1023.006, 3910.000
1024.113, 3779.000
1025.220, 3894.000
1026.326, 3775.000
1027.433, 3947.000
1028.539, 3887.000
1029.645, 3828.000
1030.751, 3878.000
1031.857, 3908.000
1032.963, 3866.000
1034.068, 3895.000
1035.174, 3818.000
1036.279, 3854.000
1037.384, 3843.000
1038.489, 3842.000
1039.594, 3757.000
1040.698, 3676.000
1041.803, 3742.000
1042.907, 3644.000
1044.011, 3737.000
1045.115, 3669.000
1046.219, 3621.000
1047.323, 3661.000
1048.426, 3559.000
1049.529, 3722.000
1050.632, 3712.000
1051.735, 3639.000
1052.838, 3688.000
1053.941, 3643.000
1055.043, 3627.000
1056.146, 3612.000
1057.248, 3673.000
1058.350, 3688.000
1059.452, 3644.000
1060.554, 3659.000
1061.655, 3631.000
1062.757, 3709.000
1063.858, 3626.000
1064.959, 3635.000
1066.060, 3645.000
1067.161, 3577.000
1068.261, 3623.000
1069.362, 3534.000
1070.462, 3646.000
1071.562, 3687.000
1072.662, 3713.000
1073.762, 3702.000
1074.862, 3682.000
1075.961, 3694.685
1077.061, 3680.907
1078.160, 3694.000
1079.259, 3681.000
1080.358, 3678.000
1081.456, 3695.000
1082.555, 3671.000
1083.653, 3667.000
1084.751, 3599.000
1085.850, 3601.841
1086.947, 3627.000
1088.045, 3581.000
1089.143, 3592.000
1090.240, 3596.000
1091.338, 3605.000
1092.435, 3491.000
1093.532, 3476.000
1094.628, 3474.000
1095.725, 3438.000
1096.822, 3410.000
1097.918, 3442.000
1099.014, 3413.000
1100.110, 3452.000
1101.206, 3451.668
1102.302, 3389.000
1103.397, 3477.000
1104.493, 3401.000
1105.588, 3426.000
1106.683, 3430.000
1107.778, 3372.000
1108.873, 3410.000
1109.967, 3390.000
1111.062, 3364.000
1112.156, 3308.000
1113.250, 3421.000
1114.344, 3360.000
1115.438, 3399.000
1116.531, 3386.000
1117.625, 3369.867
1118.718, 3395.000
1119.811, 3347.000
1120.904, 3359.000
1121.997, 3339.000
1123.090, 3319.000
1124.183, 3337.000
1125.275, 3318.000
1126.367, 3348.000
1127.459, 3264.000
1128.551, 3316.000
1129.643, 3325.000
1130.735, 3298.000
1131.826, 3348.000
1132.917, 3306.000
1134.008, 3242.000
1135.099, 3225.000
1136.190, 3228.000
1137.281, 3188.000
1138.371, 3190.000
1139.462, 3261.000
1140.552, 3159.000
1141.642, 3176.000
1142.732, 3156.000
1143.821, 3226.000
1144.911, 3252.000
1146.000, 3165.000
1147.090, 3113.000
1148.179, 3093.000
1149.268, 3068.000
1150.356, 3092.000
1151.445, 2991.000
1152.533, 2940.000
1153.622, 3006.000
1154.710, 3070.000
1155.798, 3050.000
1156.886, 2868.000
1157.973, 2907.000
1159.061, 2911.000
1160.148, 3033.000
1161.235, 2825.000
1162.322, 2857.000
1163.409, 2853.000
1164.496, 2786.000
1165.583, 2779.426
1166.669, 2773.000
1167.755, 2725.000
1168.841, 2801.000
1169.927, 2848.000
1171.013, 2770.000
1172.099, 2792.000
1173.184, 2756.000
1174.269, 2859.000
1175.355, 2713.000
1176.440, 2819.000
1177.524, 2692.000
1178.609, 2783.000
1179.694, 2864.000
1180.778, 2798.000
1181.862, 2759.000
1182.946, 2792.000
1184.030, 2754.000
1185.114, 2766.584
1186.197, 2797.000
1187.281, 2775.000
1188.364, 2793.000
1189.447, 2783.000
1190.530, 2779.000
1191.613, 2812.000
1192.696, 2801.000
1193.778, 2784.000
1194.860, 2833.000
1195.943, 2827.000
1197.025, 2790.000
1198.107, 2824.000
1199.188, 2853.000
1200.270, 2820.000
1201.351, 2771.000
1202.432, 2747.000
1203.514, 2732.000
1204.594, 2724.630
1205.675, 2818.000
1206.756, 2759.000
1207.836, 2761.000
1208.917, 2824.000
1209.997, 2752.000
1211.077, 2824.000
1212.157, 2820.000
1213.236, 2812.000
1214.316, 2738.000
1215.395, 2700.000
1216.474, 2750.000
1217.553, 2811.000
1218.632, 2828.000
1219.711, 2767.000
1220.790, 2821.000
1221.868, 2782.000
1222.946, 2816.000
1224.024, 2871.000
1225.102, 2799.000
1226.180, 2841.000
1227.258, 2747.000
1228.335, 2755.000
1229.413, 2792.000
1230.490, 2858.000
1231.567, 2734.000
1232.644, 2782.000
1233.720, 2759.000
1234.797, 2735.000
1235.873, 2746.000
1236.950, 2780.000
1238.026, 2836.000
1239.102, 2812.068
1240.177, 2810.717
1241.253, 2781.000
1242.328, 2764.000
1243.404, 2748.000
1244.479, 2758.000
1245.554, 2694.000
1246.629, 2725.000
1247.703, 2714.000
1248.778, 2830.000
1249.852, 2802.000
1250.926, 2774.000
1252.001, 2797.000
1253.074, 2709.000
1254.148, 2772.000
1255.222, 2742.000
1256.295, 2807.000
1257.369, 2744.000
1258.442, 2794.000
1259.515, 2850.000
1260.587, 2832.000
1261.660, 2808.000
1262.733, 2847.000
1263.805, 2779.000
1264.877, 2779.000
1265.949, 2857.000
1267.021, 2844.000
1268.093, 2807.000
1269.164, 2826.000
1270.236, 2850.000
1271.307, 2820.000
1272.378, 2774.000
1273.449, 2824.000
1274.520, 2871.000
1275.591, 2781.000
1276.661, 2869.000
1277.731, 2851.000
1278.802, 2828.000
1279.872, 2869.000
1280.941, 2884.000
1282.011, 2879.000
1283.081, 2887.816
1284.150, 2814.000
1285.219, 2861.000
1286.288, 2858.000
1287.357, 2822.000
1288.426, 2877.000
1289.495, 2874.000
1290.563, 2820.000
1291.632, 2810.000
1292.700, 2859.000
1293.768, 2841.000
1294.836, 2820.000
1295.903, 2774.000
1296.971, 2918.000
1298.038, 2868.000
1299.106, 2894.000
1300.173, 2865.000
1301.240, 2776.000
1302.306, 2841.000
1303.373, 2864.000
1304.439, 2935.000
1305.506, 2857.000
1306.572, 2786.000
1307.638, 2890.000
1308.704, 2901.000
1309.769, 2813.000
1310.835, 2973.000
1311.900, 2894.000
1312.965, 2823.000
1314.031, 2874.000
1315.095, 2858.000
1316.160, 2789.000
1317.225, 2764.000
1318.289, 2864.000
1319.354, 2847.000
1320.418, 2938.000
1321.482, 2861.000
1322.546, 2864.000
1323.609, 2912.000
1324.673, 2951.000
1325.736, 2887.000
1326.799, 2908.000
1327.862, 2830.000
1328.925, 2901.000
1329.988, 2904.000
1331.051, 2872.250
1332.113, 3033.000
1333.175, 2853.000
1334.238, 2846.000
1335.300, 2883.000
1336.361, 2986.000
1337.423, 2948.000
1338.485, 2937.000
1339.546, 2995.000
1340.607, 2870.000
1341.668, 2894.000
1342.729, 2931.000
1343.790, 2915.000
1344.850, 2926.000
1345.911, 2896.000
1346.971, 2934.000
1348.031, 2954.000
1349.091, 2959.000
1350.151, 2838.000
1351.211, 2950.000
1352.270, 2923.000
1353.330, 2910.000
1354.389, 2966.000
1355.448, 2982.000
1356.507, 3029.000
1357.566, 2906.000
1358.624, 2966.000
1359.683, 3074.000
1360.741, 2900.000
1361.799, 3027.000
1362.857, 2925.000
1363.915, 3004.000
1364.973, 2973.000
1366.030, 2958.000
1367.087, 3027.000
1368.145, 3059.000
1369.202, 2911.000
1370.259, 2936.000
1371.315, 2912.000
1372.372, 2960.000
1373.428, 2921.000
1374.485, 2943.000
1375.541, 2893.000
1376.597, 2934.000
1377.653, 2939.166
1378.708, 2949.527
1379.764, 2976.000
1380.819, 2988.000
1381.874, 2991.000
1382.930, 2990.000
1383.984, 3007.000
1385.039, 3001.815
1386.094, 3011.783
1387.148, 3004.000
1388.203, 3021.000
1389.257, 3029.890
1390.311, 3024.988
1391.365, 3069.000
1392.418, 2984.000
1393.472, 3053.000
1394.525, 3003.000
1395.578, 2969.000
1396.631, 3029.000
1397.684, 3027.000
1398.737, 3005.000
1399.790, 3047.000
1400.842, 2959.000
1401.895, 2961.000
1402.947, 2980.834
1403.999, 3027.000
1405.051, 3021.000
1406.102, 3025.000
1407.154, 3029.000
1408.205, 3034.000
1409.256, 3069.000
1410.308, 2959.000
1411.358, 3055.000
1412.409, 2954.000
1413.460, 3059.000
1414.510, 3036.000
1415.561, 3112.000
1416.611, 3067.000
1417.661, 3023.000
1418.711, 3024.000
1419.760, 2985.000
1420.810, 2990.000
1421.859, 3028.000
1422.909, 3092.000
1423.958, 3046.000
1425.007, 3053.000
1426.055, 3034.000
1427.104, 3076.000
1428.153, 3038.000
1429.201, 3148.000
1430.249, 3177.000
1431.297, 3052.000
1432.345, 3189.000
1433.393, 3125.000
1434.440, 3113.000
1435.488, 3092.000
1436.535, 3038.000
1437.582, 3076.000
1438.629, 3071.669
1439.676, 3167.000
1440.723, 3107.000
1441.769, 3212.000
1442.815, 3205.000
1443.862, 3194.000
1444.908, 3145.000
1445.954, 3095.000
1446.999, 3199.000
1448.045, 3190.000
1449.090, 3171.000
1450.136, 3148.000
1451.181, 3107.000
1452.226, 3098.000
1453.271, 3148.000
1454.315, 3135.000
1455.360, 3209.000
1456.404, 3027.000
1457.448, 3001.000
1458.492, 2980.000
1459.536, 3069.000
1460.580, 3088.000
1461.624, 3009.000
1462.667, 3073.000
1463.711, 3026.000
1464.754, 3071.000
1465.797, 3056.000
1466.840, 3107.000
1467.882, 2962.000
1468.925, 3087.000
1469.967, 3017.000
1471.010, 3017.000
1472.052, 3094.000
1473.094, 2967.000
1474.135, 3051.000
1475.177, 3125.000
1476.218, 3033.000
1477.260, 3011.000
1478.301, 3082.000
1479.342, 3125.000
1480.383, 3036.000
1481.424, 3034.000
1482.464, 2968.000
1483.505, 3054.000
1484.545, 2971.000
1485.585, 3039.000
1486.625, 3065.000
1487.665, 3026.000
1488.705, 3017.000
1489.744, 2890.000
1490.783, 2964.000
1491.823, 3003.000
1492.862, 2912.000
1493.901, 3002.000
1494.939, 3008.000
1495.978, 2970.000
1497.016, 3010.000
1498.055, 2979.000
1499.093, 3010.000
1500.131, 3058.000
1501.169, 2921.000
1502.206, 2960.000
1503.244, 2977.000
1504.281, 2966.000
1505.319, 2975.000
1506.356, 2989.000
1507.393, 2987.049
1508.430, 3030.000
1509.466, 3013.000
1510.503, 3014.000
1511.539, 3060.000
1512.575, 3112.000
1513.611, 3109.997
1514.647, 3087.112
1515.683, 3162.000
1516.718, 2991.000
1517.754, 3074.000
1518.789, 3047.000
1519.824, 3040.000
1520.859, 2959.000
1521.894, 2965.505
1522.929, 2960.486
1523.963, 2959.000
1524.998, 2966.000
1526.032, 3004.000
1527.066, 2968.000
1528.100, 2934.000
1529.134, 2929.000
1530.167, 2968.000
1531.201, 2941.000
1532.234, 3013.000
1533.267, 3019.000
1534.300, 2969.000
1535.333, 3000.000
1536.366, 3004.194
1537.398, 2986.847
1538.431, 3026.000
1539.463, 3003.000
1540.495, 2961.000
1541.527, 3028.000
1542.559, 2910.000
1543.591, 2991.000
1544.622, 3043.000
1545.654, 2921.000
1546.685, 3065.000
1547.716, 3002.000
1548.747, 2999.000
1549.778, 3064.000
1550.808, 3092.000
1551.839, 3134.000
1552.869, 3127.299
1553.899, 3128.413
1554.929, 3086.000
1555.959, 3079.000
1556.989, 3049.000
1558.018, 2992.000
1559.048, 3006.000
1560.077, 3059.000
1561.106, 2997.000
1562.135, 3049.000
1563.164, 3031.000
1564.192, 3078.000
1565.221, 3009.000
1566.249, 3016.000
1567.277, 3020.000
1568.306, 3061.000
1569.333, 3070.000
1570.361, 3101.000
1571.389, 3069.000
1572.416, 3049.000
1573.444, 3086.000
1574.471, 3106.000
1575.498, 3158.000
1576.525, 3093.000
1577.551, 3051.000
1578.578, 3096.000
1579.604, 3038.000
##END=



