##NAMES=Olivenite
##RRUFFID=R040181
##IDEAL CHEMISTRY=Cu^2+^_2_As^5+^O_4_(OH)
##LOCALITY=Majuba Hill, Pershing County, Nevada, USA
##OWNER=RRUFF
##SOURCE=University of Arizona Mineral Museum
##DESCRIPTION=Greenish blue prismatic, untwinned. Structure for this sample reported in Li et al (2008).
##STATUS=The identification of this mineral has been confirmed by X-ray diffraction and chemical analysis
##URL=rruff.info/R040181
##MEASURED CHEMISTRY=(Cu_0.98_[box]_0.02_)_2_(As_0.90_P_0.10_O_4_)(OH)_0.92_
##PIN_ID=S00027
##ORIENTATION=Laser parallel to -c* (0 0 -1). Fiducial mark perpendicular to laser is parallel to a [1 0 0]
63.58900, 364.0000
64.83300, 425.0000
66.07600, 421.0000
67.32000, 483.0000
68.56300, 477.0000
69.80600, 499.0000
71.04900, 545.0000
72.29100, 641.0000
73.53400, 696.0000
74.77600, 854.0000
76.01800, 1046.000
77.26000, 1380.000
78.50200, 1766.000
79.74300, 2358.000
80.98500, 3025.000
82.22600, 4014.000
83.46700, 5054.000
84.70800, 6261.000
85.94900, 7647.000
87.18900, 9157.000
88.42900, 10694.00
89.67000, 11086.00
90.91000, 11555.00
92.14900, 11876.00
93.38900, 11602.00
94.62900, 11038.00
95.86800, 10423.00
97.10700, 9690.000
98.34600, 9352.000
99.58500, 8949.000
100.8230, 8683.000
102.0620, 8732.000
103.3000, 8592.000
104.5380, 8882.000
105.7760, 8983.143
107.0140, 9029.987
108.2510, 9060.803
109.4890, 9076.468
110.7260, 9031.560
111.9630, 9073.000
113.2000, 8947.000
114.4360, 8828.000
115.6730, 8873.000
116.9090, 8713.000
118.1450, 8527.000
119.3810, 8420.000
120.6170, 8215.000
121.8530, 8314.000
123.0880, 8165.000
124.3230, 8207.000
125.5590, 8309.000
126.7930, 8360.000
128.0280, 8641.000
129.2630, 8863.000
130.4970, 9032.000
131.7310, 9358.341
132.9650, 9796.000
134.1990, 10042.00
135.4330, 10783.00
136.6670, 11340.00
137.9000, 12606.00
139.1330, 14056.00
140.3660, 16011.00
141.5990, 18572.00
142.8320, 21709.00
144.0640, 25768.00
145.2960, 30233.00
146.5290, 35927.00
147.7610, 42024.00
148.9920, 48493.00
150.2240, 54966.00
151.4550, 61518.00
152.6870, 67425.00
153.9180, 71937.00
155.1490, 75211.00
156.3800, 75757.00
157.6100, 75405.00
158.8400, 72748.00
160.0710, 68561.00
161.3010, 62863.00
162.5310, 55805.00
163.7600, 48389.00
164.9900, 40172.00
166.2190, 33384.00
167.4480, 27843.00
168.6770, 23614.00
169.9060, 20616.00
171.1350, 18136.00
172.3630, 16454.00
173.5920, 15017.00
174.8200, 13890.00
176.0480, 13176.00
177.2760, 12256.00
178.5030, 11645.00
179.7310, 10697.00
180.9580, 10254.00
182.1850, 9732.000
183.4120, 9357.000
184.6390, 8758.000
185.8650, 8524.000
187.0920, 8290.000
188.3180, 7880.000
189.5440, 7736.000
190.7700, 7647.000
191.9960, 7453.000
193.2210, 7486.000
194.4470, 7389.000
195.6720, 7400.000
196.8970, 7526.000
198.1220, 7688.000
199.3460, 8019.000
200.5710, 8845.000
201.7950, 8937.000
203.0190, 9665.000
204.2430, 10135.00
205.4670, 11381.00
206.6910, 12639.00
207.9140, 14059.00
209.1370, 15727.00
210.3610, 17667.00
211.5840, 19524.00
212.8060, 21954.00
214.0290, 24299.00
215.2510, 26209.00
216.4740, 27957.00
217.6960, 29395.00
218.9180, 30082.00
220.1390, 30437.00
221.3610, 30182.00
222.5820, 29469.00
223.8030, 28178.00
225.0240, 26626.00
226.2450, 24877.00
227.4660, 23108.00
228.6870, 21355.00
229.9070, 19730.00
231.1270, 18467.00
232.3470, 17411.00
233.5670, 16727.00
234.7870, 15804.00
236.0060, 15004.00
237.2250, 14209.00
238.4440, 13774.00
239.6630, 12990.00
240.8820, 12348.00
242.1010, 11638.00
243.3190, 10862.00
244.5380, 10364.00
245.7560, 9685.000
246.9740, 9177.000
248.1910, 8770.000
249.4090, 8492.000
250.6260, 8100.000
251.8440, 7919.000
253.0610, 7799.000
254.2780, 7537.000
255.4940, 7653.000
256.7110, 7484.000
257.9270, 7595.000
259.1430, 7545.000
260.3600, 7640.000
261.5750, 7600.000
262.7910, 8016.000
264.0070, 8102.000
265.2220, 8291.000
266.4370, 8721.000
267.6520, 9336.000
268.8670, 9966.000
270.0820, 11007.00
271.2960, 12100.00
272.5100, 13719.00
273.7250, 15427.00
274.9390, 17650.00
276.1520, 19921.00
277.3660, 22093.00
278.5790, 24505.00
279.7930, 26345.00
281.0060, 28327.00
282.2190, 29448.00
283.4320, 29940.00
284.6440, 29624.00
285.8570, 28639.00
287.0690, 27472.00
288.2810, 25275.00
289.4930, 22749.00
290.7050, 20348.00
291.9160, 18163.00
293.1270, 16365.00
294.3390, 14971.00
295.5500, 13779.28
296.7610, 12888.00
297.9710, 12441.00
299.1820, 12238.00
300.3920, 12339.00
301.6020, 12436.00
302.8120, 12622.00
304.0220, 13035.00
305.2320, 13692.00
306.4410, 13962.00
307.6510, 14403.00
308.8600, 14824.00
310.0690, 15028.00
311.2780, 15168.00
312.4860, 14997.00
313.6950, 14759.00
314.9030, 14451.00
316.1110, 13801.00
317.3190, 13252.00
318.5270, 12534.00
319.7350, 12027.00
320.9420, 11474.00
322.1490, 10964.00
323.3570, 10526.00
324.5630, 10185.00
325.7700, 9896.000
326.9770, 9785.000
328.1830, 9550.000
329.3900, 9595.000
330.5960, 9572.000
331.8020, 9685.000
333.0070, 9752.000
334.2130, 9933.336
335.4180, 10147.00
336.6230, 10512.00
337.8290, 11115.00
339.0330, 11741.00
340.2380, 11974.00
341.4430, 12524.00
342.6470, 12912.00
343.8510, 13166.00
345.0550, 13570.00
346.2590, 13532.00
347.4630, 13524.00
348.6660, 13157.00
349.8700, 12925.00
351.0730, 12075.00
352.2760, 11369.00
353.4790, 10422.00
354.6810, 9937.000
355.8840, 9190.000
357.0860, 8742.147
358.2880, 8326.000
359.4900, 8078.000
360.6920, 7712.000
361.8940, 7613.000
363.0950, 7526.000
364.2960, 7548.000
365.4980, 7566.000
366.6990, 7630.000
367.8990, 7395.000
369.1000, 7436.000
370.3000, 7440.000
371.5010, 7454.000
372.7010, 7180.000
373.9010, 7140.000
375.1010, 6922.000
376.3000, 6710.000
377.5000, 6677.000
378.6990, 6498.000
379.8980, 6447.000
381.0970, 6254.000
382.2960, 6137.000
383.4940, 6167.000
384.6920, 5999.000
385.8910, 5934.000
387.0890, 5576.000
388.2870, 5600.000
389.4840, 5424.000
390.6820, 5197.000
391.8790, 5251.000
393.0770, 5127.000
394.2740, 5032.000
395.4700, 5120.000
396.6670, 5087.000
397.8640, 5071.000
399.0600, 5253.000
400.2560, 5295.000
401.4520, 5391.000
402.6480, 5627.000
403.8440, 5669.000
405.0390, 5898.000
406.2350, 6148.000
407.4300, 6384.000
408.6250, 6818.000
409.8200, 7191.000
411.0140, 7765.000
412.2090, 8294.000
413.4030, 8881.000
414.5970, 9579.000
415.7910, 10342.00
416.9850, 10954.15
418.1790, 11795.00
419.3720, 12173.00
420.5660, 12506.00
421.7590, 12861.00
422.9520, 12995.00
424.1440, 12916.00
425.3370, 12695.00
426.5300, 12415.00
427.7220, 12428.00
428.9140, 11508.00
430.1060, 10571.00
431.2980, 10199.00
432.4890, 9464.000
433.6810, 9047.000
434.8720, 8428.000
436.0630, 8021.000
437.2540, 7685.000
438.4450, 7225.000
439.6350, 6904.000
440.8260, 6653.000
442.0160, 6419.000
443.2060, 6187.000
444.3960, 6004.000
445.5860, 5730.000
446.7750, 5614.000
447.9650, 5433.000
449.1540, 5334.000
450.3430, 5215.000
451.5320, 5069.000
452.7210, 5060.000
453.9090, 4909.266
455.0980, 4698.000
456.2860, 4655.000
457.4740, 4641.000
458.6620, 4447.000
459.8500, 4365.000
461.0370, 4317.000
462.2250, 4205.000
463.4120, 4262.000
464.5990, 4166.000
465.7860, 4141.000
466.9720, 4209.000
468.1590, 4062.000
469.3450, 4060.000
470.5320, 4062.000
471.7180, 4074.000
472.9030, 3928.000
474.0890, 3997.000
475.2750, 4093.000
476.4600, 3980.000
477.6450, 4034.000
478.8300, 4035.000
480.0150, 4068.000
481.2000, 4047.000
482.3840, 4022.000
483.5690, 4118.000
484.7530, 4241.000
485.9370, 4206.000
487.1210, 4340.000
488.3040, 4210.000
489.4880, 4308.000
490.6710, 4377.000
491.8540, 4396.000
493.0370, 4329.000
494.2200, 4488.000
495.4030, 4423.000
496.5850, 4531.000
497.7680, 4538.000
498.9500, 4722.000
500.1320, 4580.000
501.3140, 4650.000
502.4950, 4689.000
503.6770, 4645.000
504.8580, 4771.000
506.0390, 4814.000
507.2200, 4789.000
508.4010, 4914.000
509.5820, 5090.000
510.7620, 5119.000
511.9420, 5281.217
513.1230, 5377.467
514.3030, 5544.000
515.4820, 5596.000
516.6620, 5757.000
517.8420, 5889.000
519.0210, 6097.000
520.2000, 6188.000
521.3790, 6429.000
522.5580, 6556.000
523.7360, 6651.000
524.9150, 6692.245
526.0930, 6708.000
527.2710, 6603.000
528.4490, 6546.000
529.6270, 6390.394
530.8050, 6245.000
531.9820, 6056.000
533.1590, 5969.000
534.3360, 5736.000
535.5130, 5650.000
536.6900, 5553.000
537.8670, 5376.000
539.0430, 5326.000
540.2200, 5181.000
541.3960, 5167.000
542.5720, 5172.000
543.7470, 5067.000
544.9230, 5276.000
546.0980, 5144.000
547.2740, 5236.000
548.4490, 5377.000
549.6240, 5361.000
550.7990, 5535.000
551.9730, 5664.000
553.1480, 5766.000
554.3220, 6045.000
555.4960, 6061.000
556.6700, 6121.000
557.8440, 6255.000
559.0170, 6216.000
560.1910, 6226.225
561.3640, 6070.000
562.5370, 6113.000
563.7100, 5917.000
564.8830, 5797.000
566.0550, 5603.000
567.2280, 5479.000
568.4000, 5245.000
569.5720, 5037.000
570.7440, 4891.000
571.9160, 4602.000
573.0870, 4478.000
574.2590, 4405.000
575.4300, 4184.000
576.6010, 4124.000
577.7720, 3945.000
578.9430, 3788.000
580.1140, 3801.000
581.2840, 3610.000
582.4540, 3567.000
583.6240, 3516.000
584.7940, 3338.000
585.9640, 3310.000
587.1340, 3430.000
588.3030, 3299.000
589.4720, 3336.140
590.6410, 3390.000
591.8100, 3325.000
592.9790, 3143.000
594.1480, 3172.000
595.3160, 3110.000
596.4840, 3231.000
597.6520, 3145.000
598.8200, 3143.000
599.9880, 3104.000
601.1560, 3135.000
602.3230, 3102.000
603.4900, 3162.000
604.6570, 3016.000
605.8240, 3144.000
606.9910, 3104.000
608.1580, 3044.000
609.3240, 3101.000
610.4900, 3214.000
611.6570, 3143.000
612.8230, 3119.000
613.9880, 3059.000
615.1540, 3149.000
616.3190, 3100.000
617.4850, 3186.000
618.6500, 3185.000
619.8150, 3111.000
620.9790, 3097.000
622.1440, 3226.000
623.3080, 3230.000
624.4730, 3156.000
625.6370, 3237.000
626.8010, 3217.318
627.9640, 3257.000
629.1280, 3281.000
630.2910, 3184.000
631.4550, 3263.000
632.6180, 3256.000
633.7810, 3245.000
634.9440, 3276.000
636.1060, 3294.000
637.2690, 3261.000
638.4310, 3253.000
639.5930, 3217.000
640.7550, 3245.360
641.9170, 3298.000
643.0780, 3310.000
644.2400, 3338.000
645.4010, 3376.000
646.5620, 3332.000
647.7230, 3317.000
648.8840, 3277.000
650.0450, 3323.000
651.2050, 3379.000
652.3650, 3394.000
653.5250, 3397.000
654.6850, 3469.000
655.8450, 3449.000
657.0050, 3485.000
658.1640, 3469.000
659.3230, 3467.000
660.4830, 3522.000
661.6420, 3620.000
662.8000, 3513.000
663.9590, 3419.000
665.1170, 3523.000
666.2760, 3623.000
667.4340, 3506.000
668.5920, 3596.000
669.7500, 3650.000
670.9070, 3606.000
672.0650, 3686.000
673.2220, 3679.000
674.3790, 3665.000
675.5360, 3639.000
676.6930, 3577.000
677.8500, 3634.000
679.0060, 3608.000
680.1620, 3708.000
681.3190, 3668.000
682.4750, 3696.000
683.6300, 3738.000
684.7860, 3654.000
685.9420, 3699.000
687.0970, 3788.000
688.2520, 3664.000
689.4070, 3710.000
690.5620, 3670.000
691.7170, 3733.000
692.8710, 3812.000
694.0250, 3756.000
695.1800, 3684.000
696.3340, 3716.000
697.4870, 3710.000
698.6410, 3780.000
699.7950, 3798.000
700.9480, 3730.000
702.1010, 3891.000
703.2540, 3826.000
704.4070, 3960.000
705.5600, 3940.000
706.7120, 3934.000
707.8640, 3929.000
709.0170, 4095.769
710.1690, 4207.396
711.3210, 4303.002
712.4720, 4383.386
713.6240, 4403.273
714.7750, 4501.300
715.9260, 4567.985
717.0770, 4633.385
718.2280, 4742.418
719.3790, 4880.000
720.5290, 4890.000
721.6800, 5051.000
722.8300, 5116.000
723.9800, 5145.000
725.1300, 5224.000
726.2800, 5202.000
727.4290, 5308.000
728.5790, 5331.000
729.7280, 5221.000
730.8770, 4997.000
732.0260, 4986.000
733.1750, 4904.000
734.3230, 4834.000
735.4720, 4752.608
736.6200, 4637.000
737.7680, 4545.000
738.9160, 4463.201
740.0640, 4393.401
741.2110, 4357.000
742.3590, 4299.000
743.5060, 4295.000
744.6530, 4287.000
745.8000, 4188.000
746.9470, 4097.000
748.0930, 4171.000
749.2400, 4148.000
750.3860, 4152.000
751.5320, 4100.000
752.6780, 4149.000
753.8240, 4210.000
754.9690, 4113.000
756.1150, 4142.000
757.2600, 4184.000
758.4050, 4228.000
759.5500, 4169.000
760.6950, 4163.000
761.8400, 4144.000
762.9840, 4196.000
764.1280, 4272.000
765.2730, 4308.000
766.4170, 4410.000
767.5600, 4435.000
768.7040, 4396.000
769.8470, 4470.000
770.9910, 4504.000
772.1340, 4517.000
773.2770, 4607.000
774.4200, 4684.000
775.5620, 4716.000
776.7050, 4826.348
777.8470, 4877.000
778.9890, 5031.000
780.1310, 5163.000
781.2730, 5306.000
782.4150, 5396.000
783.5570, 5594.000
784.6980, 5760.000
785.8390, 6086.000
786.9800, 6179.000
788.1210, 6461.000
789.2620, 6786.000
790.4020, 6997.000
791.5430, 7212.000
792.6830, 7522.000
793.8230, 7919.000
794.9630, 8121.000
796.1020, 8325.000
797.2420, 8381.000
798.3810, 8507.000
799.5210, 8615.000
800.6600, 8608.000
801.7990, 8556.000
802.9370, 8633.000
804.0760, 8645.000
805.2140, 8626.000
806.3530, 8767.000
807.4910, 8789.000
808.6290, 8977.000
809.7660, 9333.000
810.9040, 9697.000
812.0420, 10026.00
813.1790, 10601.00
814.3160, 10999.00
815.4530, 11684.00
816.5900, 12240.00
817.7260, 12800.00
818.8630, 13285.00
819.9990, 13860.00
821.1350, 14249.00
822.2710, 14757.00
823.4070, 15359.00
824.5430, 15823.00
825.6780, 16520.00
826.8130, 17306.00
827.9490, 18277.00
829.0840, 19382.00
830.2180, 20867.00
831.3530, 22349.00
832.4880, 24347.00
833.6220, 26862.00
834.7560, 29976.00
835.8900, 32443.00
837.0240, 36354.00
838.1580, 39964.00
839.2910, 44652.00
840.4250, 49388.00
841.5580, 54859.00
842.6910, 61589.00
843.8240, 70064.00
844.9560, 80342.00
846.0890, 93796.00
847.2210, 110658.0
848.3540, 132249.0
849.4860, 157327.0
850.6180, 185148.0
851.7490, 212333.0
852.8810, 237019.0
854.0120, 254412.0
855.1440, 261596.0
856.2750, 258517.0
857.4060, 243129.0
858.5360, 219240.0
859.6670, 189023.0
860.7980, 158082.0
861.9280, 129588.0
863.0580, 105122.0
864.1880, 86174.00
865.3180, 70866.00
866.4470, 58855.00
867.5770, 49437.00
868.7060, 42416.00
869.8350, 36993.00
870.9640, 32489.00
872.0930, 28597.00
873.2220, 25664.00
874.3500, 23375.00
875.4790, 21184.00
876.6070, 19559.00
877.7350, 17951.00
878.8630, 16784.00
879.9900, 15730.00
881.1180, 14675.00
882.2450, 13912.00
883.3730, 13109.00
884.5000, 12477.00
885.6260, 11661.00
886.7530, 11205.00
887.8800, 10554.00
889.0060, 10186.00
890.1320, 9821.000
891.2580, 9373.000
892.3840, 9099.000
893.5100, 8761.000
894.6360, 8456.000
895.7610, 8160.000
896.8860, 7936.000
898.0120, 7597.000
899.1360, 7320.000
900.2610, 7143.000
901.3860, 6831.000
902.5100, 6713.000
903.6350, 6580.000
904.7590, 6284.000
905.8830, 6093.000
907.0070, 6047.000
908.1300, 5879.000
909.2540, 5674.000
910.3770, 5535.000
911.5000, 5432.646
912.6230, 5396.000
913.7460, 5297.757
914.8690, 5294.626
915.9910, 5275.512
917.1140, 5241.203
918.2360, 5146.365
919.3580, 5129.735
920.4800, 5081.761
921.6020, 5032.502
922.7230, 5026.911
923.8440, 4940.918
924.9660, 4934.601
926.0870, 4896.500
927.2080, 4872.961
928.3280, 4817.923
929.4490, 4772.591
930.5700, 4758.802
931.6900, 4727.583
932.8100, 4668.915
933.9300, 4646.337
935.0500, 4559.277
936.1690, 4528.836
937.2890, 4637.000
938.4080, 4581.000
939.5270, 4677.000
940.6460, 4705.000
941.7650, 4737.002
942.8840, 4802.706
944.0020, 4844.000
945.1200, 4905.000
946.2390, 4977.000
947.3570, 5038.000
948.4750, 5238.000
949.5920, 5411.000
950.7100, 5474.000
951.8270, 5560.000
952.9440, 5924.000
954.0610, 6071.000
955.1780, 6262.000
956.2950, 6264.000
957.4120, 6282.000
958.5280, 6264.000
959.6440, 6111.000
960.7600, 6026.000
961.8760, 5820.000
962.9920, 5692.000
964.1080, 5473.000
965.2230, 5241.000
966.3380, 5003.000
967.4540, 4941.000
968.5690, 4593.000
969.6830, 4566.000
970.7980, 4372.000
971.9120, 4267.000
973.0270, 4129.000
974.1410, 4130.000
975.2550, 4099.000
976.3690, 4070.000
977.4820, 3995.000
978.5960, 3938.000
979.7090, 3876.000
980.8230, 3828.000
981.9360, 3821.000
983.0490, 3859.000
984.1610, 3694.000
985.2740, 3717.000
986.3860, 3623.000
987.4980, 3643.000
988.6110, 3552.000
989.7220, 3576.000
990.8340, 3531.000
991.9460, 3553.000
993.0570, 3525.000
994.1690, 3471.000
995.2800, 3459.000
996.3910, 3528.000
997.5010, 3572.000
998.6120, 3474.000
999.7230, 3564.000
1000.833, 3571.000
1001.943, 3460.000
1003.053, 3594.000
1004.163, 3628.000
1005.273, 3450.000
1006.382, 3604.000
1007.492, 3490.000
1008.601, 3627.000
1009.710, 3528.000
1010.819, 3609.000
1011.927, 3595.000
1013.036, 3582.000
1014.144, 3520.000
1015.253, 3587.000
1016.361, 3535.000
1017.469, 3581.000
1018.576, 3492.000
1019.684, 3535.000
1020.791, 3612.000
1021.899, 3484.000
1023.006, 3599.000
1024.113, 3494.000
1025.220, 3395.000
1026.326, 3533.000
1027.433, 3668.000
1028.539, 3620.000
1029.645, 3589.000
1030.751, 3535.000
1031.857, 3512.000
1032.963, 3574.000
1034.068, 3545.000
1035.174, 3580.000
1036.279, 3545.000
1037.384, 3465.000
1038.489, 3435.000
1039.594, 3433.000
1040.698, 3430.000
1041.803, 3442.000
1042.907, 3422.036
1044.011, 3397.000
1045.115, 3399.000
1046.219, 3317.000
1047.323, 3323.000
1048.426, 3336.000
1049.529, 3410.000
1050.632, 3398.000
1051.735, 3277.000
1052.838, 3369.000
1053.941, 3289.000
1055.043, 3330.000
1056.146, 3354.000
1057.248, 3434.000
1058.350, 3309.000
1059.452, 3372.000
1060.554, 3334.000
1061.655, 3330.000
1062.757, 3333.000
1063.858, 3393.000
1064.959, 3414.000
1066.060, 3429.000
1067.161, 3435.000
1068.261, 3377.000
1069.362, 3393.000
1070.462, 3381.000
1071.562, 3514.000
1072.662, 3466.000
1073.762, 3530.000
1074.862, 3391.000
1075.961, 3479.000
1077.061, 3493.000
1078.160, 3592.000
1079.259, 3567.000
1080.358, 3614.000
1081.456, 3569.000
1082.555, 3614.000
1083.653, 3614.000
1084.751, 3545.000
1085.850, 3551.000
1086.947, 3466.000
1088.045, 3490.000
1089.143, 3340.000
1090.240, 3291.000
1091.338, 3315.000
1092.435, 3147.000
1093.532, 3143.000
1094.628, 3156.000
1095.725, 3202.000
1096.822, 3154.514
1097.918, 3088.000
1099.014, 3058.000
1100.110, 3024.064
1101.206, 2929.000
1102.302, 3002.000
1103.397, 2988.000
1104.493, 2955.000
1105.588, 3049.000
1106.683, 3063.000
1107.778, 2984.000
1108.873, 3020.000
1109.967, 2945.000
1111.062, 2924.000
1112.156, 2911.000
1113.250, 2883.000
1114.344, 2931.000
1115.438, 2898.000
1116.531, 2873.000
1117.625, 2781.000
1118.718, 2998.000
1119.811, 2876.000
1120.904, 2948.000
1121.997, 2901.000
1123.090, 2847.000
1124.183, 2897.116
1125.275, 2955.000
1126.367, 2953.000
1127.459, 2780.000
1128.551, 2825.000
1129.643, 2744.000
1130.735, 2831.000
1131.826, 2758.000
1132.917, 2790.000
1134.008, 2760.000
1135.099, 2735.000
1136.190, 2721.000
1137.281, 2706.000
1138.371, 2646.000
1139.462, 2723.000
1140.552, 2631.000
1141.642, 2743.000
1142.732, 2646.000
1143.821, 2636.000
1144.911, 2609.000
1146.000, 2549.000
1147.090, 2501.000
1148.179, 2512.000
1149.268, 2531.000
1150.356, 2427.000
1151.445, 2385.000
1152.533, 2422.000
1153.622, 2419.000
1154.710, 2493.000
1155.798, 2317.000
1156.886, 2403.000
1157.973, 2335.000
1159.061, 2289.000
1160.148, 2243.000
1161.235, 2201.000
1162.322, 2148.000
1163.409, 2277.000
1164.496, 2122.000
1165.583, 2213.000
1166.669, 2150.000
1167.755, 2206.000
1168.841, 2120.000
1169.927, 2188.000
1171.013, 2167.000
1172.099, 2173.000
1173.184, 2099.000
1174.269, 2153.000
1175.355, 2117.000
1176.440, 2126.000
1177.524, 2080.000
1178.609, 2071.000
1179.694, 2136.000
1180.778, 2147.000
1181.862, 2125.000
1182.946, 2131.000
1184.030, 2109.000
1185.114, 2045.000
1186.197, 2187.000
1187.281, 2135.000
1188.364, 2086.000
1189.447, 2131.000
1190.530, 2069.000
1191.613, 2070.000
1192.696, 2026.000
1193.778, 2146.000
1194.860, 2074.000
1195.943, 2132.000
1197.025, 2084.000
1198.107, 2072.000
1199.188, 2086.000
1200.270, 2115.000
1201.351, 2107.000
1202.432, 2109.000
1203.514, 2020.000
1204.594, 2069.000
1205.675, 2086.000
1206.756, 1986.000
1207.836, 2081.000
1208.917, 2095.000
1209.997, 2047.000
1211.077, 2033.000
1212.157, 2070.000
1213.236, 2036.000
1214.316, 1971.000
1215.395, 1978.000
1216.474, 2013.000
1217.553, 2062.000
1218.632, 2132.000
1219.711, 2115.268
1220.790, 2141.910
1221.868, 2094.000
1222.946, 2107.000
1224.024, 2107.000
1225.102, 2032.000
1226.180, 2012.000
1227.258, 2039.000
1228.335, 1987.000
1229.413, 2065.000
1230.490, 2061.000
1231.567, 1971.000
1232.644, 2041.000
1233.720, 2047.000
1234.797, 1982.000
1235.873, 2009.000
1236.950, 1932.000
1238.026, 2004.000
1239.102, 1954.000
1240.177, 1984.000
1241.253, 1999.000
1242.328, 2054.000
1243.404, 1900.000
1244.479, 1900.000
1245.554, 1869.000
1246.629, 2005.000
1247.703, 1962.000
1248.778, 1993.000
1249.852, 2027.000
1250.926, 1944.000
1252.001, 1983.000
1253.074, 1951.000
1254.148, 1927.000
1255.222, 1917.000
1256.295, 1989.000
1257.369, 1944.000
1258.442, 1989.000
1259.515, 1968.000
1260.587, 2110.000
1261.660, 2058.000
1262.733, 2020.000
1263.805, 2064.000
1264.877, 2012.000
1265.949, 2014.000
1267.021, 1972.000
1268.093, 2056.000
1269.164, 2059.000
1270.236, 2054.000
1271.307, 2054.000
1272.378, 2030.000
1273.449, 2003.000
1274.520, 2010.000
1275.591, 2012.000
1276.661, 2121.000
1277.731, 1958.000
1278.802, 2030.000
1279.872, 2032.000
1280.941, 1958.000
1282.011, 2005.000
1283.081, 1990.000
1284.150, 2125.000
1285.219, 2045.983
1286.288, 2073.000
1287.357, 1964.000
1288.426, 2038.000
1289.495, 2056.000
1290.563, 1958.000
1291.632, 2047.000
1292.700, 1981.000
1293.768, 2019.000
1294.836, 2001.000
1295.903, 2004.000
1296.971, 2066.000
1298.038, 2020.000
1299.106, 2119.000
1300.173, 2028.000
1301.240, 2026.000
1302.306, 2074.000
1303.373, 2025.000
1304.439, 2106.000
1305.506, 2016.000
1306.572, 2084.000
1307.638, 2065.000
1308.704, 2056.000
1309.769, 2013.000
1310.835, 2079.000
1311.900, 2007.000
1312.965, 2074.000
1314.031, 2120.000
1315.095, 2096.000
1316.160, 2053.000
1317.225, 1980.000
1318.289, 2044.000
1319.354, 2099.000
1320.418, 2112.000
1321.482, 2061.000
1322.546, 2076.000
1323.609, 2077.000
1324.673, 2053.093
1325.736, 2053.000
1326.799, 2042.000
1327.862, 2052.000
1328.925, 2076.000
1329.988, 2077.000
1331.051, 2071.000
1332.113, 2041.000
1333.175, 2119.000
1334.238, 2066.000
1335.300, 2148.000
1336.361, 2206.000
1337.423, 2117.000
1338.485, 2090.000
1339.546, 2078.000
1340.607, 2063.000
1341.668, 2099.000
1342.729, 2117.000
1343.790, 2075.000
1344.850, 2066.000
1345.911, 2143.000
1346.971, 2144.000
1348.031, 2133.000
1349.091, 2091.000
1350.151, 2136.000
1351.211, 2120.000
1352.270, 2095.000
1353.330, 2127.000
1354.389, 2088.000
1355.448, 2119.000
1356.507, 2176.000
1357.566, 2078.000
1358.624, 2122.000
1359.683, 2270.000
1360.741, 2062.000
1361.799, 2164.000
1362.857, 2141.000
1363.915, 2103.000
1364.973, 2120.000
1366.030, 2122.000
1367.087, 2108.779
1368.145, 2111.754
1369.202, 2098.000
1370.259, 2120.000
1371.315, 2112.000
1372.372, 2166.000
1373.428, 2172.000
1374.485, 2117.000
1375.541, 2067.000
1376.597, 2117.000
1377.653, 2144.000
1378.708, 2206.000
1379.764, 2198.000
1380.819, 2191.000
1381.874, 2146.000
1382.930, 2161.000
1383.984, 2175.000
1385.039, 2183.000
1386.094, 2142.000
1387.148, 2124.000
1388.203, 2228.000
1389.257, 2162.000
1390.311, 2198.000
1391.365, 2182.000
1392.418, 2154.000
1393.472, 2206.000
1394.525, 2121.000
1395.578, 2181.000
1396.631, 2227.000
1397.684, 2202.000
1398.737, 2189.000
1399.790, 2157.000
1400.842, 2185.000
1401.895, 2092.000
1402.947, 2175.000
1403.999, 2194.000
1405.051, 2113.000
1406.102, 2173.000
1407.154, 2177.000
1408.205, 2180.000
1409.256, 2216.000
1410.308, 2143.000
1411.358, 2206.000
1412.409, 2128.000
1413.460, 2146.000
1414.510, 2177.000
1415.561, 2214.000
1416.611, 2266.000
1417.661, 2149.000
1418.711, 2103.000
1419.760, 2202.000
1420.810, 2107.000
1421.859, 2165.000
1422.909, 2186.000
1423.958, 2157.000
1425.007, 2188.000
1426.055, 2196.000
1427.104, 2172.000
1428.153, 2142.000
1429.201, 2166.004
1430.249, 2211.000
1431.297, 2215.000
1432.345, 2223.000
1433.393, 2278.000
1434.440, 2251.000
1435.488, 2320.000
1436.535, 2300.000
1437.582, 2314.706
1438.629, 2350.000
1439.676, 2319.000
1440.723, 2281.000
1441.769, 2259.000
1442.815, 2251.000
1443.862, 2239.000
1444.908, 2217.000
1445.954, 2233.333
1446.999, 2232.012
1448.045, 2266.000
1449.090, 2239.000
1450.136, 2258.000
1451.181, 2225.000
1452.226, 2193.000
1453.271, 2253.000
1454.315, 2231.000
1455.360, 2296.000
1456.404, 2179.000
1457.448, 2187.000
1458.492, 2146.000
1459.536, 2097.000
1460.580, 2171.000
1461.624, 2096.000
1462.667, 2157.000
1463.711, 2163.000
1464.754, 2129.000
1465.797, 2114.000
1466.840, 2127.000
1467.882, 2076.000
1468.925, 2089.450
1469.967, 2120.000
1471.010, 2073.000
1472.052, 2094.000
1473.094, 2056.000
1474.135, 2116.000
1475.177, 2101.000
1476.218, 2072.000
1477.260, 2081.000
1478.301, 2105.000
1479.342, 2125.000
1480.383, 2070.000
1481.424, 2076.000
1482.464, 2032.000
1483.505, 2020.000
1484.545, 2035.000
1485.585, 2114.000
1486.625, 2099.000
1487.665, 2042.000
1488.705, 2063.000
1489.744, 1994.000
1490.783, 2036.000
1491.823, 2097.000
1492.862, 1994.000
1493.901, 2055.000
1494.939, 2069.000
1495.978, 2065.000
1497.016, 2094.000
1498.055, 2083.000
1499.093, 2053.000
1500.131, 2126.000
1501.169, 2009.000
1502.206, 2067.000
1503.244, 2097.000
1504.281, 1992.000
1505.319, 1971.000
1506.356, 1993.000
1507.393, 2045.651
1508.430, 2077.680
1509.466, 2093.694
1510.503, 2094.543
1511.539, 2034.834
1512.575, 2053.330
1513.611, 2040.485
1514.647, 2026.354
1515.683, 2055.857
1516.718, 2004.961
1517.754, 2033.772
1518.789, 2030.768
1519.824, 2042.327
1520.859, 2022.351
1521.894, 2012.115
1522.929, 2033.425
1523.963, 2037.271
1524.998, 2013.665
1526.032, 2026.155
1527.066, 1974.161
1528.100, 1978.752
1529.134, 2007.756
1530.167, 1985.745
1531.201, 1998.810
1532.234, 1998.519
1533.267, 1937.508
1534.300, 1982.095
1535.333, 1981.015
1536.366, 1933.043
1537.398, 1974.017
1538.431, 1937.000
1539.463, 1830.000
1540.495, 1894.000
1541.527, 1860.000
1542.559, 1915.000
1543.591, 1855.000
1544.622, 1925.000
1545.654, 1811.000
1546.685, 1900.000
1547.716, 1930.000
1548.747, 1890.000
1549.778, 1896.000
1550.808, 1991.000
1551.839, 2016.000
1552.869, 1967.000
1553.899, 1955.000
1554.929, 2001.000
1555.959, 1905.000
1556.989, 1989.000
1558.018, 1918.000
1559.048, 1884.000
1560.077, 1934.974
1561.106, 1973.013
1562.135, 1995.032
1563.164, 2001.891
1564.192, 1948.186
1565.221, 1972.687
1566.249, 1965.845
1567.277, 1957.719
1568.306, 1993.227
1569.333, 1948.328
1570.361, 1983.143
1571.389, 1986.139
1572.416, 2003.696
1573.444, 1989.719
1574.471, 1985.482
1575.498, 2012.789
1576.525, 2022.630
1577.551, 2005.020
1578.578, 2023.503
1579.604, 1932.000
##END=



