##NAMES=Orthoclase
##RRUFFID=R040055
##IDEAL CHEMISTRY=KAlSi_3_O_8_
##LOCALITY=Madagascar
##OWNER=RRUFF
##SOURCE=Bob Downs
##DESCRIPTION=Pale yellow fragments
##STATUS=The identification of this mineral has been confirmed by X-ray diffraction and chemical analysis
##URL=rruff.info/R040055
##MEASURED CHEMISTRY=K_0.96_(Al_0.96_Si_0.03_Fe_0.02_)Si_3.00_O_8_; = light material. (K_0.90_Na_0.02_)(Al_0.91_Si_0.08_Fe_0.02_)Si_3.00_O_8_ = dark
##PIN_ID=L00124
##ORIENTATION=Laser parallel to b* (0 1 0). Fiducial mark perpendicular to laser is parallel to c [0 0 1]
92.409, 8508.000
93.811, 8906.000
95.213, 9269.000
96.614, 9353.000
98.015, 9605.000
99.416, 9603.000
100.817, 9707.000
102.217, 9687.000
103.617, 9702.000
105.017, 9940.000
106.417, 10030.000
107.816, 10260.000
109.215, 10500.000
110.614, 10920.000
112.013, 11360.000
113.412, 12000.000
114.810, 12350.000
116.208, 12250.000
117.605, 12150.000
119.003, 12030.000
120.400, 11800.000
121.797, 11700.000
123.194, 11400.000
124.590, 11470.000
125.987, 11510.000
127.383, 11840.000
128.778, 12070.000
130.174, 12760.000
131.569, 13330.000
132.964, 14030.000
134.359, 14700.000
135.754, 15340.000
137.148, 15860.000
138.542, 16120.000
139.936, 16610.000
141.330, 17290.000
142.723, 18080.000
144.116, 19650.000
145.509, 21220.000
146.902, 23500.000
148.294, 25620.000
149.686, 27680.000
151.078, 29230.000
152.470, 29450.000
153.861, 29150.000
155.252, 27620.000
156.643, 25910.000
158.034, 23790.000
159.424, 21650.000
160.815, 19350.000
162.205, 17600.000
163.594, 16240.000
164.984, 14820.000
166.373, 13950.000
167.762, 13210.000
169.151, 12610.000
170.540, 12270.000
171.928, 11650.000
173.316, 11540.000
174.704, 11090.000
176.091, 10940.000
177.479, 10770.000
178.866, 10560.000
180.253, 10500.000
181.639, 10230.000
183.026, 10170.000
184.412, 9986.000
185.798, 9829.000
187.184, 9902.000
188.569, 9776.000
189.954, 9761.000
191.339, 9626.000
192.724, 9598.327
194.108, 9539.000
195.493, 9544.000
196.877, 9500.000
198.261, 9513.000
199.644, 9546.000
201.027, 9496.000
202.410, 9409.000
203.793, 9441.000
205.176, 9470.000
206.558, 9332.000
207.940, 9396.000
209.322, 9469.000
210.704, 9431.000
212.085, 9513.000
213.466, 9590.000
214.847, 9542.000
216.228, 9476.000
217.608, 9437.000
218.989, 9650.000
220.368, 9543.000
221.748, 9650.000
223.128, 9729.000
224.507, 9658.000
225.886, 9640.000
227.265, 9685.000
228.643, 9707.000
230.022, 9740.918
231.400, 9797.000
232.777, 9828.000
234.155, 9917.000
235.532, 9958.000
236.910, 9949.000
238.286, 10100.000
239.663, 10120.000
241.039, 10310.000
242.416, 10430.000
243.792, 10540.000
245.167, 10610.000
246.543, 10770.000
247.918, 10950.000
249.293, 11040.000
250.668, 11270.000
252.042, 11400.000
253.416, 11490.000
254.790, 11550.000
256.164, 11690.000
257.538, 11921.581
258.911, 12120.000
260.284, 12490.000
261.657, 12850.000
263.030, 13190.000
264.402, 13580.000
265.774, 13990.000
267.146, 14700.000
268.518, 15250.000
269.889, 16080.000
271.261, 17160.000
272.632, 17780.000
274.002, 18910.000
275.373, 19570.000
276.743, 20460.000
278.113, 20630.000
279.483, 20860.000
280.852, 20630.000
282.222, 20220.000
283.591, 19660.000
284.960, 18630.000
286.328, 18000.000
287.697, 16950.000
289.065, 15950.000
290.433, 15370.000
291.801, 14440.000
293.168, 13980.000
294.535, 13290.000
295.902, 12860.000
297.269, 12620.000
298.635, 12090.000
300.002, 12040.000
301.368, 11620.000
302.734, 11520.000
304.099, 11280.000
305.465, 11070.000
306.830, 11170.000
308.195, 11020.000
309.559, 10950.000
310.924, 10840.000
312.288, 10790.000
313.652, 10830.000
315.015, 10600.000
316.379, 10820.000
317.742, 10690.000
319.105, 10710.000
320.468, 10650.000
321.830, 10700.000
323.193, 10770.000
324.555, 10670.000
325.917, 10790.000
327.278, 10650.000
328.640, 10660.000
330.001, 10730.000
331.362, 10690.000
332.722, 10670.000
334.083, 10610.000
335.443, 10710.000
336.803, 10590.000
338.163, 10700.000
339.522, 10610.000
340.882, 10600.000
342.241, 10600.000
343.599, 10630.000
344.958, 10630.000
346.316, 10610.000
347.674, 10560.000
349.032, 10690.000
350.390, 10610.000
351.747, 10810.000
353.105, 10710.000
354.462, 10900.000
355.818, 10960.000
357.175, 10810.000
358.531, 11160.000
359.887, 10980.000
361.243, 11030.000
362.598, 11050.000
363.954, 10990.000
365.309, 11000.000
366.664, 10820.000
368.018, 10820.000
369.373, 10720.000
370.727, 10640.000
372.081, 10800.000
373.435, 10440.000
374.788, 10570.000
376.141, 10440.000
377.494, 10510.000
378.847, 10590.000
380.200, 10500.000
381.552, 10500.000
382.904, 10510.000
384.256, 10540.000
385.608, 10460.000
386.959, 10530.000
388.310, 10700.000
389.661, 10560.000
391.012, 10680.000
392.363, 10670.000
393.713, 10870.000
395.063, 10820.000
396.413, 10910.000
397.762, 11210.000
399.112, 11340.000
400.461, 11550.000
401.810, 11640.000
403.158, 11650.000
404.507, 11701.922
405.855, 11550.000
407.203, 11590.000
408.550, 11440.000
409.898, 11230.000
411.245, 11130.000
412.592, 10980.000
413.939, 11000.000
415.286, 10930.000
416.632, 10830.000
417.978, 10830.000
419.324, 10730.000
420.670, 10800.000
422.015, 10700.000
423.360, 10850.000
424.705, 10750.000
426.050, 10830.000
427.395, 10800.000
428.739, 10960.000
430.083, 10900.000
431.427, 10890.000
432.770, 11090.000
434.114, 11220.000
435.457, 11240.000
436.800, 11520.000
438.143, 11570.000
439.485, 11860.000
440.827, 12090.000
442.169, 12290.000
443.511, 12680.000
444.853, 13060.000
446.194, 13360.000
447.535, 13720.000
448.876, 14050.000
450.217, 14250.000
451.557, 14370.000
452.897, 14610.000
454.237, 14490.000
455.577, 14660.000
456.916, 14800.000
458.256, 14670.000
459.595, 14960.000
460.933, 15020.000
462.272, 15580.000
463.610, 16300.000
464.949, 17370.000
466.286, 18350.000
467.624, 19670.000
468.962, 21220.000
470.299, 22850.000
471.636, 23830.000
472.973, 24380.000
474.309, 24210.000
475.646, 23560.000
476.982, 22290.000
478.317, 20950.000
479.653, 19560.000
480.989, 18350.000
482.324, 17630.000
483.659, 16720.000
484.993, 16560.000
486.328, 16080.000
487.662, 15560.000
488.996, 15480.000
490.330, 15200.000
491.664, 15234.049
492.997, 15370.000
494.330, 15590.000
495.663, 16050.000
496.996, 16500.000
498.328, 17630.000
499.661, 18470.000
500.993, 20230.000
502.324, 22410.000
503.656, 24850.000
504.987, 28700.000
506.318, 33300.000
507.649, 37710.000
508.980, 42620.000
510.310, 46060.000
511.641, 47330.000
512.971, 45100.000
514.300, 41890.000
515.630, 37040.000
516.959, 32160.000
518.288, 28210.000
519.617, 24854.391
520.946, 21950.000
522.274, 19880.000
523.603, 18300.000
524.931, 17380.000
526.258, 16370.000
527.586, 15690.000
528.913, 15180.000
530.240, 14680.000
531.567, 14380.000
532.894, 14040.000
534.220, 13850.000
535.546, 13510.000
536.872, 13470.000
538.198, 13250.000
539.523, 13200.000
540.849, 13040.000
542.174, 12840.000
543.499, 12960.000
544.823, 12740.000
546.148, 12740.000
547.472, 12680.000
548.796, 12470.000
550.119, 12700.000
551.443, 12510.000
552.766, 12460.000
554.089, 12530.000
555.412, 12320.000
556.735, 12490.000
558.057, 12500.000
559.379, 12310.000
560.701, 12430.000
562.023, 12390.000
563.344, 12530.000
564.665, 12340.000
565.986, 12490.000
567.307, 12450.000
568.628, 12450.000
569.948, 12380.000
571.268, 12300.000
572.588, 12480.000
573.908, 12510.000
575.227, 12390.000
576.547, 12570.000
577.866, 12440.000
579.185, 12690.000
580.503, 12440.000
581.822, 12410.000
583.140, 12600.000
584.458, 12390.000
585.775, 12630.000
587.093, 12600.000
588.410, 12500.000
589.727, 12710.000
591.044, 12460.000
592.360, 12650.000
593.677, 12520.000
594.993, 12520.000
596.309, 12710.000
597.625, 12600.000
598.940, 12700.000
600.255, 12680.000
601.570, 12740.000
602.885, 12780.000
604.200, 12760.000
605.514, 12760.000
606.828, 12720.000
608.142, 12590.000
609.456, 12910.000
610.769, 12750.000
612.083, 12920.000
613.396, 12810.000
614.708, 12810.000
616.021, 12850.000
617.333, 12870.000
618.646, 12850.000
619.957, 13020.000
621.269, 12940.000
622.581, 13050.000
623.892, 12960.000
625.203, 13100.000
626.514, 13120.000
627.824, 13040.000
629.135, 13100.000
630.445, 13050.000
631.755, 13120.000
633.065, 13180.000
634.374, 13130.000
635.684, 13100.000
636.993, 13123.937
638.301, 13076.087
639.610, 13130.000
640.918, 13030.000
642.227, 13020.000
643.535, 13000.000
644.842, 13200.000
646.150, 13010.000
647.457, 13130.000
648.764, 13020.000
650.071, 13020.000
651.378, 13190.000
652.684, 13120.000
653.991, 13070.000
655.297, 13220.000
656.602, 13160.000
657.908, 13230.000
659.213, 13130.000
660.518, 13260.000
661.823, 13260.000
663.128, 13140.000
664.432, 13480.000
665.737, 13190.000
667.041, 13190.000
668.344, 13260.000
669.648, 13120.000
670.951, 13410.000
672.255, 13360.000
673.557, 13300.000
674.860, 13350.000
676.163, 13140.000
677.465, 13410.000
678.767, 13260.000
680.069, 13240.000
681.370, 13350.000
682.672, 13320.000
683.973, 13550.000
685.274, 13380.000
686.575, 13430.000
687.875, 13630.000
689.176, 13230.000
690.476, 13490.000
691.776, 13390.000
693.075, 13510.000
694.375, 13630.000
695.674, 13490.000
696.973, 13700.000
698.272, 13610.000
699.570, 13620.000
700.869, 13740.000
702.167, 13600.000
703.465, 13860.000
704.762, 13680.000
706.060, 13810.000
707.357, 13980.000
708.654, 13770.000
709.951, 13790.000
711.248, 13930.000
712.544, 14060.000
713.840, 14060.000
715.136, 13940.000
716.432, 14170.000
717.727, 14000.000
719.023, 14250.000
720.318, 14310.000
721.613, 14120.000
722.907, 14370.000
724.202, 14280.000
725.496, 14170.000
726.790, 14290.000
728.084, 14280.000
729.377, 14660.000
730.671, 14380.000
731.964, 14610.000
733.257, 14580.000
734.550, 14550.000
735.842, 14960.000
737.134, 14710.000
738.426, 14990.000
739.718, 14910.000
741.010, 15050.000
742.301, 15270.000
743.593, 15190.000
744.884, 15190.000
746.174, 15010.000
747.465, 15090.000
748.755, 15055.248
750.045, 15160.000
751.335, 15100.000
752.625, 15200.000
753.915, 15240.000
755.204, 15290.000
756.493, 15210.000
757.782, 15230.000
759.070, 15390.000
760.359, 15200.000
761.647, 15310.000
762.935, 15210.000
764.223, 15150.000
765.510, 15430.000
766.798, 14930.000
768.085, 15310.000
769.372, 15210.000
770.658, 15150.000
771.945, 15250.000
773.231, 15000.000
774.517, 15270.000
775.803, 15050.000
777.088, 14960.000
778.374, 15110.000
779.659, 14920.000
780.944, 15050.000
782.229, 14940.000
783.513, 14980.000
784.798, 14970.000
786.082, 14930.000
787.366, 15080.000
788.649, 15100.000
789.933, 15080.000
791.216, 15230.000
792.499, 15100.000
793.782, 15150.000
795.065, 15270.000
796.347, 15100.000
797.629, 15390.000
798.911, 15260.000
800.193, 15350.000
801.475, 15340.000
802.756, 15350.000
804.037, 15510.000
805.318, 15460.000
806.599, 15490.000
807.879, 15550.000
809.159, 15390.000
810.439, 15600.000
811.719, 15450.000
812.999, 15600.000
814.278, 15440.000
815.558, 15290.000
816.837, 15270.000
818.115, 15260.000
819.394, 15160.000
820.672, 15220.000
821.950, 14990.000
823.228, 15210.000
824.506, 15130.000
825.784, 14930.000
827.061, 15160.000
828.338, 15040.000
829.615, 15090.000
830.891, 15020.000
832.168, 14850.000
833.444, 15040.000
834.720, 14890.000
835.996, 15250.000
837.272, 15250.000
838.547, 15180.000
839.822, 15200.000
841.097, 15270.000
842.372, 15140.000
843.646, 15250.000
844.921, 14930.000
846.195, 15250.000
847.469, 15290.000
848.742, 15150.000
850.016, 15280.000
851.289, 15050.000
852.562, 15290.000
853.835, 15460.000
855.108, 15200.000
856.380, 15470.000
857.652, 15240.000
858.924, 15390.000
860.196, 15390.000
861.468, 15300.000
862.739, 15420.000
864.010, 15410.000
865.281, 15340.000
866.552, 15400.000
867.823, 15340.000
869.093, 15490.000
870.363, 15270.000
871.633, 15520.000
872.903, 15460.000
874.172, 15340.000
875.441, 15670.000
876.710, 15560.000
877.979, 15340.000
879.248, 15590.000
880.516, 15530.000
881.784, 15660.000
883.052, 15550.000
884.320, 15560.000
885.588, 15740.000
886.855, 15560.000
888.122, 15650.000
889.389, 15590.000
890.656, 15550.000
891.923, 15900.000
893.189, 15730.000
894.455, 15690.000
895.721, 15850.000
896.987, 15620.000
898.252, 15690.000
899.517, 15750.000
900.783, 15770.000
902.047, 15820.000
903.312, 15720.000
904.576, 15790.000
905.841, 15920.000
907.105, 15830.000
908.369, 16050.000
909.632, 15810.000
910.896, 15800.000
912.159, 16080.000
913.422, 15750.000
914.684, 15990.000
915.947, 15740.000
917.209, 15870.000
918.472, 16110.000
919.733, 15950.000
920.995, 16130.000
922.257, 16090.000
923.518, 15920.000
924.779, 16330.000
926.040, 15990.000
927.301, 16260.000
928.561, 16280.000
929.821, 15980.000
931.081, 16350.000
932.341, 16060.000
933.601, 16360.000
934.860, 16270.000
936.120, 16400.000
937.379, 16490.000
938.637, 16230.000
939.896, 16450.000
941.154, 16460.000
942.413, 16390.000
943.671, 16540.000
944.928, 16600.000
946.186, 16480.000
947.443, 16710.000
948.700, 16610.000
949.957, 16710.000
951.214, 16790.000
952.471, 16768.039
953.727, 16950.000
954.983, 16830.000
956.239, 16970.000
957.495, 17050.000
958.750, 16830.000
960.005, 17020.000
961.261, 16960.000
962.515, 16900.000
963.770, 17100.000
965.025, 16760.000
966.279, 17310.000
967.533, 17220.000
968.787, 16960.000
970.040, 17460.000
971.294, 17010.000
972.547, 17110.000
973.800, 17740.000
975.053, 17100.000
976.305, 17500.000
977.558, 17460.000
978.810, 17250.000
980.062, 17710.000
981.314, 17280.000
982.565, 17560.000
983.817, 17630.000
985.068, 17490.000
986.319, 17850.000
987.569, 17360.000
988.820, 17640.000
990.070, 17770.000
991.320, 17560.000
992.570, 17850.000
993.820, 17650.000
995.070, 17710.000
996.319, 17910.000
997.568, 17430.000
998.817, 18130.000
1000.066, 18010.000
1001.314, 17750.000
1002.562, 17840.000
1003.810, 17870.000
1005.058, 17890.000
1006.306, 18030.000
1007.553, 17740.000
1008.801, 17850.000
1010.048, 17900.000
1011.294, 17940.000
1012.541, 17960.000
1013.787, 17920.000
1015.034, 17850.000
1016.280, 17790.000
1017.526, 17830.000
1018.771, 17980.000
1020.017, 17700.000
1021.262, 17920.000
1022.507, 17700.000
1023.752, 17940.000
1024.996, 17880.000
1026.241, 17820.000
1027.485, 17850.000
1028.729, 17890.000
1029.972, 17650.000
1031.216, 17970.000
1032.459, 17860.000
1033.703, 17720.000
1034.945, 17890.000
1036.188, 17660.000
1037.431, 17820.000
1038.673, 17770.000
1039.915, 17650.000
1041.157, 17750.000
1042.399, 17830.000
1043.640, 17920.000
1044.882, 17820.000
1046.123, 17770.000
1047.364, 18020.000
1048.604, 17940.000
1049.845, 17760.000
1051.085, 17970.000
1052.325, 17790.000
1053.565, 17740.000
1054.805, 17890.000
1056.044, 17730.000
1057.284, 17740.000
1058.523, 17770.000
1059.762, 17660.000
1061.000, 17709.061
1062.239, 17440.000
1063.477, 17700.000
1064.715, 17600.000
1065.953, 17540.000
1067.191, 17700.000
1068.428, 17530.000
1069.665, 17700.000
1070.902, 17840.000
1072.139, 17690.000
1073.376, 17770.000
1074.612, 17860.000
1075.849, 17790.000
1077.085, 17960.000
1078.321, 17820.000
1079.556, 17900.000
1080.792, 18030.000
1082.027, 18000.000
1083.262, 18110.000
1084.497, 18280.000
1085.731, 18030.000
1086.966, 18410.000
1088.200, 18230.000
1089.434, 18130.000
1090.668, 18370.000
1091.901, 18270.000
1093.135, 18660.000
1094.368, 18400.000
1095.601, 18560.000
1096.834, 18760.000
1098.066, 18410.000
1099.299, 18940.000
1100.531, 18980.000
1101.763, 18680.000
1102.995, 19050.000
1104.226, 19210.000
1105.458, 19300.000
1106.689, 19370.000
1107.920, 19100.000
1109.151, 19580.000
1110.381, 19590.000
1111.612, 19440.000
1112.842, 20160.000
1114.072, 19870.000
1115.302, 20140.000
1116.531, 20480.000
1117.761, 20430.000
1118.990, 20760.000
1120.219, 20930.000
1121.448, 20800.000
1122.676, 21010.000
1123.905, 20820.000
1125.133, 20840.000
1126.361, 20830.000
1127.589, 20440.000
1128.816, 21030.000
1130.044, 20760.000
1131.271, 20460.000
1132.498, 20580.000
1133.725, 20360.000
1134.951, 20360.000
1136.178, 20470.000
1137.404, 19910.000
1138.630, 20220.000
1139.855, 19880.000
1141.081, 19950.000
1142.306, 19920.000
1143.532, 19460.000
1144.757, 19830.000
1145.981, 19540.000
1147.206, 19240.000
1148.430, 19570.000
1149.655, 19110.000
1150.879, 19110.000
1152.102, 19200.000
1153.326, 18920.000
1154.549, 18930.000
1155.772, 18850.000
1156.995, 18640.000
1158.218, 19050.000
1159.441, 18460.000
1160.663, 18650.000
1161.885, 18650.000
1163.107, 18460.000
1164.329, 18610.000
1165.551, 18420.000
1166.772, 18340.000
1167.993, 18710.000
1169.214, 18310.000
1170.435, 18250.000
1171.656, 18610.000
1172.876, 18270.000
1174.096, 18480.000
1175.316, 18440.000
1176.536, 18210.000
1177.756, 18500.000
1178.975, 18300.000
1180.194, 18050.000
1181.413, 18370.000
1182.632, 18030.000
1183.851, 18260.000
1185.069, 18240.000
1186.287, 18200.000
1187.505, 18370.000
1188.723, 18060.000
1189.941, 18220.000
1191.158, 18150.000
1192.375, 17970.000
1193.593, 18270.000
1194.809, 18300.000
1196.026, 18060.000
1197.242, 18420.000
1198.459, 18160.000
1199.675, 18230.000
1200.891, 18260.000
1202.106, 18120.000
1203.322, 18340.000
1204.537, 18180.000
1205.752, 18200.000
1206.967, 18370.000
1208.181, 18210.000
1209.396, 18290.000
1210.610, 18440.000
1211.824, 18280.000
1213.038, 18440.000
1214.252, 18390.000
1215.465, 18400.000
1216.678, 18430.000
1217.892, 18430.000
1219.104, 18486.494
1220.317, 18500.000
1221.530, 18550.000
1222.742, 18600.000
1223.954, 18530.000
1225.166, 18490.000
1226.378, 18520.000
1227.589, 18650.000
1228.800, 18480.000
1230.011, 18630.000
1231.222, 18450.000
1232.433, 18710.000
1233.644, 18660.000
1234.854, 18560.000
1236.064, 18850.000
1237.274, 18690.000
1238.484, 18700.000
1239.693, 18720.000
1240.903, 18700.000
1242.112, 18690.000
1243.321, 18830.000
1244.529, 18480.000
1245.738, 18930.000
1246.946, 18640.000
1248.155, 18750.000
1249.363, 18900.000
1250.570, 18780.000
1251.778, 18890.000
1252.985, 18880.000
1254.192, 18750.000
1255.399, 18810.650
1256.606, 19020.000
1257.813, 18770.000
1259.019, 18920.000
1260.225, 18890.000
1261.432, 18930.000
1262.637, 19040.000
1263.843, 18950.000
1265.048, 19000.000
1266.254, 18890.000
1267.459, 18830.000
1268.663, 18940.000
1269.868, 18810.000
1271.073, 19200.000
1272.277, 18950.000
1273.481, 18730.000
1274.685, 19380.000
1275.888, 19200.000
1277.092, 18930.000
1278.295, 19290.000
1279.498, 18990.000
1280.701, 18820.000
1281.904, 19390.000
1283.106, 18750.000
1284.309, 19280.000
1285.511, 19160.000
1286.713, 19040.000
1287.915, 19140.000
1289.116, 19040.000
1290.317, 19060.000
1291.519, 19230.000
1292.719, 19100.000
1293.920, 19100.000
1295.121, 19300.000
1296.321, 19040.000
1297.521, 19550.000
1298.721, 19120.000
1299.921, 19020.000
1301.121, 19430.000
1302.320, 19170.000
1303.519, 19190.000
1304.718, 19430.000
1305.917, 18990.000
1307.116, 19670.000
1308.314, 19480.000
1309.512, 19170.000
1310.711, 19580.000
1311.908, 19370.000
1313.106, 19230.000
1314.303, 19570.000
1315.501, 19430.000
1316.698, 19670.000
1317.895, 19760.000
1319.091, 19370.000
1320.288, 19720.000
1321.484, 19650.000
1322.680, 19430.000
1323.876, 20080.000
1325.072, 19730.000
1326.268, 19650.000
1327.463, 20000.000
1328.658, 19670.000
1329.853, 19860.000
1331.048, 20090.000
1332.242, 19700.000
1333.437, 20060.000
1334.631, 19880.000
1335.825, 19870.000
1337.019, 20340.000
1338.212, 19990.000
1339.406, 20030.000
1340.599, 20400.000
1341.792, 20090.000
1342.985, 20240.000
1344.177, 20140.000
1345.370, 20200.000
1346.562, 20390.000
1347.754, 20260.000
1348.946, 20110.000
1350.138, 20500.000
1351.329, 20290.000
1352.521, 20420.000
1353.712, 20570.000
1354.903, 20270.000
1356.093, 20770.000
1357.284, 20560.000
1358.474, 20370.000
1359.664, 20590.000
1360.854, 20620.000
1362.044, 20510.000
1363.234, 20380.000
1364.423, 20420.000
1365.612, 20550.000
1366.801, 20540.000
1367.990, 20420.000
1369.179, 20660.000
1370.367, 20440.000
1371.555, 20620.000
1372.743, 21020.000
1373.931, 20550.000
1375.119, 21050.000
1376.306, 21170.000
1377.494, 20880.000
1378.681, 21110.000
1379.868, 21080.000
1381.054, 20890.000
1382.241, 21280.000
1383.427, 20930.000
1384.613, 21110.000
1385.799, 21420.000
1386.985, 21010.000
1388.171, 21410.000
1389.356, 21400.000
1390.541, 20940.000
1391.726, 21420.000
1392.911, 21410.000
1394.096, 21180.000
1395.280, 21590.000
1396.464, 21100.000
1397.648, 21270.000
1398.832, 21760.000
1400.016, 21360.000
1401.199, 21340.000
1402.383, 21690.000
1403.566, 21150.000
1404.749, 21800.000
1405.931, 21760.000
1407.114, 21840.000
1408.296, 21967.287
1409.478, 21550.000
1410.660, 21810.000
1411.842, 21730.000
1413.024, 21470.000
1414.205, 21910.000
1415.386, 21710.000
1416.567, 21580.000
1417.748, 21990.000
1418.929, 21820.000
1420.109, 21720.000
1421.289, 22120.000
1422.469, 21680.000
1423.649, 22080.000
1424.829, 22160.000
1426.008, 21840.000
1427.188, 22230.000
1428.367, 22210.000
1429.546, 22030.000
1430.725, 22330.000
1431.903, 22050.000
1433.081, 22080.000
1434.260, 22540.000
1435.438, 22250.000
1436.615, 22220.000
1437.793, 22550.000
1438.970, 22160.000
1440.148, 22550.000
1441.325, 22490.000
1442.501, 22470.000
1443.678, 22670.000
1444.855, 22610.000
1446.031, 22622.426
1447.207, 22950.000
1448.383, 22550.000
1449.559, 22810.000
1450.734, 22790.000
1451.910, 22580.000
1453.085, 22860.000
1454.260, 22870.000
1455.434, 22540.000
1456.609, 23210.000
1457.783, 22950.000
1458.958, 22790.000
1460.132, 23200.000
1461.305, 22920.000
1462.479, 23010.000
1463.653, 23310.000
1464.826, 22820.000
1465.999, 23510.000
1467.172, 23240.000
1468.345, 22950.000
1469.517, 23350.000
1470.689, 23110.000
1471.862, 23050.000
1473.034, 23490.000
1474.205, 23390.000
1475.377, 23180.000
1476.548, 23580.000
1477.720, 23090.000
1478.891, 23320.000
1480.061, 23320.000
1481.232, 23160.000
1482.402, 23580.000
1483.573, 23520.000
1484.743, 23150.000
1485.913, 23850.000
1487.082, 23310.000
1488.252, 23270.000
1489.421, 23840.000
1490.591, 23420.000
1491.759, 23340.000
1492.928, 23870.000
1494.097, 23440.000
1495.265, 23560.000
1496.433, 23780.000
1497.602, 23340.000
1498.769, 23960.000
1499.937, 23810.000
1501.105, 23430.000
1502.272, 24000.000
1503.439, 23520.000
1504.606, 23500.000
1505.773, 24000.000
1506.939, 23710.000
1508.105, 23830.000
1509.272, 24090.000
1510.438, 23640.000
##END=



