##NAMES=Orthoclase
##RRUFFID=R040055
##IDEAL CHEMISTRY=KAlSi_3_O_8_
##LOCALITY=Madagascar
##OWNER=RRUFF
##SOURCE=Bob Downs
##DESCRIPTION=Pale yellow fragments
##STATUS=The identification of this mineral has been confirmed by X-ray diffraction and chemical analysis
##URL=rruff.info/R040055
##MEASURED CHEMISTRY=K_0.96_(Al_0.96_Si_0.03_Fe_0.02_)Si_3.00_O_8_; = light material. (K_0.90_Na_0.02_)(Al_0.91_Si_0.08_Fe_0.02_)Si_3.00_O_8_ = dark
##PIN_ID=L00124
##ORIENTATION=Laser parallel to b* (0 1 0). Fiducial mark perpendicular to laser is parallel to c [0 0 1]
53.228, 2204.000
54.634, 2220.000
56.040, 2175.000
57.445, 2199.000
58.850, 2164.000
60.254, 2100.000
61.659, 2078.000
63.063, 2067.000
64.467, 2092.000
65.871, 2085.000
67.274, 2003.000
68.678, 1987.000
70.081, 1973.000
71.484, 1990.000
72.886, 1920.000
74.288, 1976.000
75.690, 2021.000
77.092, 2058.000
78.494, 2161.000
79.895, 2253.000
81.296, 2355.000
82.697, 2398.000
84.097, 2490.000
85.498, 2607.000
86.898, 2620.000
88.298, 2712.000
89.697, 2915.000
91.097, 3188.000
92.496, 3520.000
93.895, 3921.000
95.293, 4298.000
96.692, 4700.000
98.090, 5123.000
99.488, 5417.000
100.885, 5723.000
102.283, 5888.000
103.680, 5904.000
105.077, 5947.000
106.473, 6018.000
107.870, 6116.000
109.266, 6247.000
110.662, 6357.000
112.057, 6683.000
113.453, 7030.000
114.848, 7725.000
116.243, 8416.000
117.638, 9132.000
119.032, 9334.000
120.426, 9258.000
121.820, 9138.000
123.214, 8851.000
124.608, 8918.000
126.001, 8503.000
127.394, 8497.000
128.787, 8659.000
130.179, 8899.000
131.571, 9564.000
132.963, 10450.000
134.355, 11600.000
135.747, 12920.000
137.138, 14620.000
138.529, 16070.000
139.920, 16990.000
141.311, 17900.000
142.701, 17770.000
144.091, 18300.000
145.481, 18570.000
146.870, 19440.000
148.260, 20590.000
149.649, 22370.000
151.038, 25150.000
152.426, 27260.000
153.815, 30580.000
155.203, 32600.000
156.591, 34190.000
157.979, 35020.000
159.366, 33570.000
160.753, 32230.000
162.140, 28930.000
163.527, 26090.000
164.913, 22440.000
166.300, 19540.000
167.686, 17100.000
169.071, 14910.000
170.457, 13360.000
171.842, 12010.000
173.227, 11270.000
174.612, 10170.000
175.996, 9575.000
177.381, 9017.000
178.765, 8376.000
180.149, 8216.000
181.532, 7685.000
182.915, 7448.000
184.299, 7113.000
185.681, 6972.000
187.064, 6727.000
188.446, 6508.000
189.828, 6346.000
191.210, 6164.000
192.592, 6100.000
193.973, 5928.000
195.355, 5764.000
196.736, 5788.000
198.116, 5497.000
199.497, 5545.000
200.877, 5309.000
202.257, 5343.000
203.637, 5270.000
205.016, 5221.000
206.395, 5245.000
207.774, 5144.000
209.153, 5120.000
210.532, 5106.000
211.910, 5124.000
213.288, 5129.000
214.666, 5121.000
216.043, 5210.000
217.421, 5100.000
218.798, 5135.000
220.175, 5128.000
221.551, 5132.000
222.928, 5104.000
224.304, 5132.000
225.680, 5214.000
227.055, 5228.000
228.431, 5228.000
229.806, 5236.000
231.181, 5299.000
232.556, 5414.000
233.930, 5324.000
235.304, 5455.000
236.678, 5382.000
238.052, 5502.000
239.426, 5571.000
240.799, 5597.000
242.172, 5793.000
243.545, 5829.000
244.917, 5983.000
246.290, 6106.000
247.662, 6286.000
249.034, 6522.000
250.405, 6633.000
251.777, 6969.000
253.148, 7198.000
254.519, 7572.000
255.889, 7831.000
257.260, 8100.000
258.630, 8647.000
260.000, 8918.000
261.370, 9522.000
262.739, 9922.000
264.108, 10570.000
265.477, 10940.000
266.846, 11440.000
268.215, 12310.000
269.583, 12640.000
270.951, 13530.000
272.319, 14430.000
273.686, 15550.000
275.054, 16500.000
276.421, 17660.000
277.788, 19270.000
279.154, 19980.000
280.521, 21630.000
281.887, 21790.000
283.253, 22120.000
284.619, 22120.000
285.984, 20860.000
287.349, 20010.000
288.714, 18400.000
290.079, 16910.000
291.444, 15420.000
292.808, 14040.000
294.172, 12760.000
295.536, 11490.000
296.899, 10720.000
298.263, 9873.000
299.626, 9218.000
300.989, 8691.000
302.351, 8150.000
303.714, 7809.000
305.076, 7360.000
306.438, 7204.000
307.799, 6948.000
309.161, 6667.000
310.522, 6546.000
311.883, 6378.000
313.244, 6285.000
314.604, 6144.000
315.965, 6058.000
317.325, 6041.000
318.684, 5892.000
320.044, 5948.000
321.403, 5823.000
322.762, 5888.000
324.121, 5821.000
325.480, 5928.000
326.838, 5933.000
328.196, 5856.000
329.554, 5975.000
330.912, 5884.000
332.270, 5913.000
333.627, 5870.000
334.984, 5856.000
336.341, 5890.000
337.697, 5800.000
339.053, 5920.000
340.409, 5838.000
341.765, 5802.000
343.121, 5852.000
344.476, 5730.000
345.831, 5861.000
347.186, 5809.000
348.541, 5835.000
349.895, 5928.000
351.250, 5776.000
352.604, 5939.000
353.957, 5889.000
355.311, 5963.000
356.664, 5972.000
358.017, 5949.000
359.370, 5998.000
360.722, 5923.000
362.075, 6030.000
363.427, 5907.000
364.779, 5906.000
366.130, 5896.000
367.482, 5741.000
368.833, 5751.000
370.184, 5478.000
371.535, 5507.000
372.885, 5404.000
374.235, 5334.000
375.585, 5337.000
376.935, 5191.000
378.285, 5173.000
379.634, 5052.000
380.983, 5076.000
382.332, 5048.000
383.680, 5030.000
385.029, 4987.000
386.377, 4996.000
387.725, 4984.000
389.073, 4951.000
390.420, 4926.000
391.767, 4961.000
393.114, 4897.000
394.461, 5006.000
395.808, 4906.000
397.154, 4988.000
398.500, 5016.000
399.846, 5260.000
401.191, 5242.000
402.537, 5052.000
403.882, 5180.000
405.227, 5210.000
406.571, 5212.000
407.916, 5244.000
409.260, 5092.000
410.604, 5120.000
411.948, 5089.000
413.291, 4959.000
414.635, 4981.000
415.978, 4851.000
417.321, 4924.000
418.663, 4787.000
420.006, 4868.000
421.348, 4871.000
422.690, 4758.000
424.031, 4807.000
425.373, 4800.000
426.714, 4838.000
428.055, 4812.000
429.396, 4810.000
430.736, 4990.000
432.077, 4872.000
433.417, 5123.000
434.757, 5121.000
436.096, 5167.000
437.436, 5381.000
438.775, 5450.000
440.114, 5648.000
441.452, 5809.000
442.791, 5994.000
444.129, 6193.000
445.467, 6417.000
446.805, 6926.000
448.142, 7004.000
449.480, 7488.000
450.817, 7767.000
452.154, 8000.000
453.490, 8289.000
454.827, 8223.000
456.163, 8267.000
457.499, 8186.000
458.835, 8119.000
460.170, 8270.000
461.505, 8020.000
462.840, 8171.000
464.175, 8166.000
465.510, 8618.000
466.844, 9012.000
468.178, 9645.000
469.512, 10510.000
470.846, 11470.000
472.179, 12650.000
473.512, 13810.000
474.845, 14680.000
476.178, 15300.000
477.511, 14860.000
478.843, 14640.000
480.175, 13580.000
481.507, 12630.000
482.839, 11760.000
484.170, 10900.000
485.501, 10580.000
486.832, 10000.000
488.163, 9683.000
489.493, 9619.000
490.823, 9283.000
492.153, 9268.000
493.483, 9195.000
494.813, 9236.000
496.142, 9270.000
497.471, 9499.000
498.800, 10020.000
500.129, 10520.000
501.457, 11550.000
502.785, 12830.000
504.113, 14450.000
505.441, 16970.000
506.769, 19560.000
508.096, 23720.000
509.423, 28260.000
510.750, 33710.000
512.077, 39440.000
513.403, 42820.000
514.729, 45260.000
516.055, 42620.000
517.381, 38570.000
518.706, 33380.000
520.032, 27370.000
521.357, 22910.000
522.681, 19190.000
524.006, 16290.000
525.330, 14170.000
526.655, 12400.000
527.978, 11280.000
529.302, 10220.000
530.626, 9472.000
531.949, 8798.000
533.272, 8395.000
534.595, 8094.000
535.917, 7608.000
537.239, 7444.000
538.562, 7116.000
539.883, 6928.000
541.205, 6809.000
542.527, 6628.000
543.848, 6580.000
545.169, 6385.000
546.489, 6342.000
547.810, 6305.000
549.130, 6062.000
550.450, 6052.000
551.770, 5899.000
553.090, 5874.000
554.409, 5912.000
555.728, 5751.000
557.047, 5743.000
558.366, 5780.000
559.685, 5680.000
561.003, 5688.000
562.321, 5647.000
563.639, 5634.000
564.956, 5626.000
566.274, 5652.000
567.591, 5627.000
568.908, 5500.000
570.225, 5652.000
571.541, 5538.000
572.857, 5638.000
574.173, 5588.000
575.489, 5593.000
576.805, 5613.000
578.120, 5578.000
579.435, 5574.000
580.750, 5568.000
582.065, 5508.000
583.380, 5570.000
584.694, 5541.000
586.008, 5518.000
587.322, 5521.000
588.635, 5488.000
589.949, 5597.000
591.262, 5419.000
592.575, 5573.000
593.887, 5511.000
595.200, 5476.000
596.512, 5528.000
597.824, 5494.000
599.136, 5654.000
600.447, 5478.000
601.759, 5529.000
603.070, 5590.000
604.381, 5589.000
605.692, 5554.000
607.002, 5574.000
608.312, 5559.000
609.622, 5586.000
610.932, 5515.000
612.242, 5661.000
613.551, 5571.000
614.860, 5608.000
616.169, 5594.000
617.478, 5582.000
618.786, 5705.000
620.094, 5577.000
621.402, 5662.000
622.710, 5793.000
624.018, 5706.000
625.325, 5839.000
626.632, 5818.000
627.939, 5818.000
629.246, 5880.000
630.552, 5863.000
631.859, 5894.000
633.165, 5844.000
634.471, 5852.000
635.776, 5855.000
637.082, 5760.000
638.387, 5812.000
639.692, 5676.000
640.996, 5729.000
642.301, 5634.000
643.605, 5584.000
644.909, 5542.000
646.213, 5530.000
647.516, 5519.000
648.820, 5478.000
650.123, 5469.000
651.426, 5583.000
652.729, 5446.000
654.031, 5548.000
655.333, 5519.000
656.636, 5440.000
657.937, 5489.000
659.239, 5419.000
660.540, 5526.000
661.842, 5420.000
663.142, 5474.000
664.443, 5489.000
665.744, 5472.000
667.044, 5504.000
668.344, 5465.000
669.644, 5389.000
670.944, 5431.000
672.243, 5444.000
673.542, 5386.000
674.841, 5404.000
676.140, 5324.000
677.438, 5421.000
678.737, 5400.000
680.035, 5411.000
681.333, 5385.000
682.630, 5415.000
683.928, 5343.000
685.225, 5330.000
686.522, 5386.000
687.819, 5343.000
689.115, 5390.000
690.412, 5467.000
691.708, 5324.000
693.004, 5422.000
694.300, 5396.000
695.595, 5373.000
696.890, 5430.000
698.185, 5364.000
699.480, 5427.000
700.775, 5398.000
702.069, 5435.000
703.363, 5487.000
704.657, 5494.000
705.951, 5534.000
707.244, 5521.000
708.538, 5472.000
709.831, 5540.000
711.124, 5609.000
712.416, 5577.000
713.709, 5671.000
715.001, 5695.000
716.293, 5679.000
717.585, 5654.000
718.876, 5657.000
720.167, 5726.000
721.459, 5706.000
722.749, 5772.000
724.040, 5738.000
725.331, 5835.000
726.621, 5850.000
727.911, 5789.000
729.201, 5883.000
730.490, 5961.000
731.780, 5985.000
733.069, 5985.000
734.358, 5994.000
735.646, 6127.000
736.935, 6183.000
738.223, 6060.000
739.511, 6179.000
740.799, 6172.000
742.087, 6341.000
743.374, 6355.000
744.661, 6308.000
745.948, 6388.000
747.235, 6324.000
748.522, 6373.000
749.808, 6388.000
751.094, 6379.000
752.380, 6433.000
753.666, 6367.000
754.951, 6503.000
756.236, 6493.000
757.521, 6452.000
758.806, 6583.000
760.091, 6532.000
761.375, 6571.000
762.659, 6588.000
763.943, 6619.000
765.227, 6767.000
766.511, 6623.000
767.794, 6690.000
769.077, 6692.000
770.360, 6661.000
771.643, 6745.000
772.925, 6579.000
774.207, 6673.000
775.489, 6620.000
776.771, 6544.000
778.053, 6568.000
779.334, 6419.000
780.615, 6543.000
781.896, 6460.000
783.177, 6397.000
784.457, 6452.000
785.738, 6416.000
787.018, 6438.000
788.298, 6562.000
789.577, 6429.000
790.857, 6706.000
792.136, 6607.000
793.415, 6648.000
794.694, 6860.000
795.972, 6675.000
797.251, 6834.000
798.529, 6888.000
799.807, 6861.000
801.084, 6876.000
802.362, 6946.000
803.639, 6983.000
804.916, 7045.000
806.193, 7110.000
807.470, 7266.000
808.746, 7263.000
810.022, 7330.000
811.298, 7306.000
812.574, 7189.000
813.850, 7156.000
815.125, 6916.000
816.400, 6840.000
817.675, 6690.000
818.950, 6514.000
820.224, 6560.000
821.499, 6356.000
822.773, 6267.000
824.047, 6254.000
825.320, 6130.000
826.594, 6186.000
827.867, 6124.000
829.140, 6037.000
830.413, 6119.000
831.685, 6058.000
832.958, 6160.000
834.230, 6090.000
835.502, 6122.000
836.774, 6230.000
838.045, 6179.000
839.316, 6277.000
840.588, 6187.000
841.858, 6032.000
843.129, 6246.000
844.400, 6111.000
845.670, 6153.000
846.940, 6109.000
848.210, 6059.000
849.479, 6130.000
850.749, 6112.000
852.018, 6099.000
853.287, 6162.000
854.556, 6104.000
855.824, 6086.000
857.093, 6116.000
858.361, 6022.000
859.629, 6214.000
860.896, 6068.000
862.164, 6190.000
863.431, 6121.000
864.698, 6068.000
865.965, 6204.000
867.232, 6102.000
868.498, 6123.000
869.764, 6135.000
871.030, 6092.000
872.296, 6152.000
873.562, 6035.000
874.827, 6137.000
876.092, 6169.000
877.357, 6082.000
878.622, 6252.000
879.886, 6089.000
881.151, 6153.000
882.415, 6229.000
883.679, 6140.000
884.942, 6229.000
886.206, 6177.000
887.469, 6171.000
888.732, 6245.000
889.995, 6133.000
891.258, 6281.000
892.520, 6234.000
893.782, 6217.000
895.044, 6302.000
896.306, 6159.000
897.568, 6257.000
898.829, 6247.000
900.090, 6223.000
901.351, 6267.000
902.612, 6213.000
903.872, 6290.000
905.133, 6326.000
906.393, 6227.000
907.653, 6369.000
908.912, 6239.000
910.172, 6215.000
911.431, 6334.000
912.690, 6238.000
913.949, 6357.000
915.208, 6398.000
916.466, 6353.000
917.724, 6380.000
918.982, 6293.000
920.240, 6342.000
921.498, 6464.000
922.755, 6321.000
924.012, 6447.000
925.269, 6388.000
926.526, 6456.000
927.782, 6409.000
929.039, 6437.000
930.295, 6464.000
931.551, 6512.000
932.806, 6438.000
934.062, 6598.000
935.317, 6438.000
936.572, 6581.000
937.827, 6585.000
939.082, 6388.000
940.336, 6718.000
941.590, 6590.000
942.844, 6684.000
944.098, 6780.000
945.352, 6598.000
946.605, 6789.000
947.859, 6711.000
949.112, 6743.000
950.364, 6869.000
951.617, 6823.000
952.869, 6944.000
954.121, 6985.000
955.373, 6877.000
956.625, 7086.000
957.877, 6979.000
959.128, 7080.000
960.379, 7120.000
961.630, 7097.000
962.881, 7147.000
964.131, 7123.000
965.381, 7200.000
966.631, 7238.000
967.881, 7245.000
969.131, 7353.000
970.380, 7387.000
971.630, 7329.000
972.879, 7505.000
974.128, 7390.000
975.376, 7405.000
976.625, 7607.000
977.873, 7474.000
979.121, 7590.000
980.369, 7642.000
981.616, 7534.000
982.864, 7721.000
984.111, 7593.000
985.358, 7728.000
986.605, 7783.000
987.851, 7674.000
989.097, 7877.000
990.344, 7714.000
991.589, 7775.000
992.835, 7908.000
994.081, 7719.000
995.326, 7975.000
996.571, 8007.000
997.816, 7991.000
999.061, 8187.000
1000.305, 8000.000
1001.550, 8100.000
1002.794, 8256.000
1004.037, 8025.000
1005.281, 8260.000
1006.525, 8174.000
1007.768, 8138.000
1009.011, 8214.000
1010.254, 8173.000
1011.496, 8192.000
1012.739, 8215.000
1013.981, 8106.000
1015.223, 8170.000
1016.465, 8054.000
1017.706, 8222.000
1018.948, 8106.000
1020.189, 8105.000
1021.430, 8167.000
1022.671, 8109.000
1023.911, 8046.000
1025.152, 8198.000
1026.392, 8002.000
1027.632, 8169.000
1028.872, 8055.000
1030.111, 8108.000
1031.350, 8176.000
1032.590, 7991.000
1033.829, 8057.000
1035.067, 8100.000
1036.306, 7834.000
1037.544, 8000.000
1038.782, 7892.000
1040.020, 7840.000
1041.258, 7840.000
1042.495, 7746.000
1043.733, 7746.000
1044.970, 7678.000
1046.207, 7671.000
1047.443, 7697.000
1048.680, 7663.000
1049.916, 7581.000
1051.152, 7580.000
1052.388, 7532.000
1053.624, 7714.000
1054.859, 7476.000
1056.094, 7514.000
1057.329, 7557.000
1058.564, 7402.000
1059.799, 7463.000
1061.033, 7498.000
1062.268, 7436.000
1063.502, 7401.000
1064.735, 7379.000
1065.969, 7361.000
1067.202, 7472.000
1068.436, 7362.000
1069.669, 7510.000
1070.902, 7533.000
1072.134, 7514.000
1073.367, 7771.000
1074.599, 7532.000
1075.831, 7684.000
1077.062, 7842.000
1078.294, 7577.000
1079.525, 7828.000
1080.757, 7833.000
1081.988, 7820.000
1083.218, 8012.000
1084.449, 7946.000
1085.679, 7992.000
1086.909, 8099.000
1088.139, 8073.000
1089.369, 8060.000
1090.599, 8170.000
1091.828, 7986.000
1093.057, 8233.000
1094.286, 8178.000
1095.515, 8217.000
1096.744, 8310.000
1097.972, 8193.000
1099.200, 8385.000
1100.428, 8306.000
1101.656, 8462.000
1102.883, 8621.000
1104.111, 8327.000
1105.338, 8609.000
1106.565, 8577.000
1107.791, 8485.000
1109.018, 8683.000
1110.244, 8593.000
1111.470, 8693.000
1112.696, 8824.000
1113.922, 8768.000
1115.147, 8999.000
1116.373, 9041.000
1117.598, 8975.000
1118.823, 9368.000
1120.047, 9159.000
1121.272, 9318.000
1122.496, 9466.000
1123.720, 9290.000
1124.944, 9529.000
1126.168, 9618.000
1127.391, 9404.000
1128.615, 9651.000
1129.838, 9445.000
1131.061, 9593.000
1132.283, 9579.000
1133.506, 9331.000
1134.728, 9545.000
1135.950, 9542.000
1137.172, 9331.000
1138.394, 9500.000
1139.615, 9322.000
1140.837, 9292.000
1142.058, 9411.000
1143.279, 9055.000
1144.499, 9099.000
1145.720, 8946.000
1146.940, 8921.000
1148.160, 8923.000
1149.380, 8617.000
1150.600, 8814.000
1151.819, 8709.000
1153.038, 8533.000
1154.257, 8614.000
1155.476, 8440.000
1156.695, 8365.000
1157.913, 8494.000
1159.132, 8284.000
1160.350, 8118.000
1161.568, 8274.000
1162.785, 8055.000
1164.003, 8266.000
1165.220, 8120.000
1166.437, 8012.000
1167.654, 8121.000
1168.871, 7873.000
1170.087, 8015.000
1171.304, 8010.000
1172.520, 7852.000
1173.736, 8013.000
1174.951, 7844.000
1176.167, 7674.000
1177.382, 7922.000
1178.597, 7727.000
1179.812, 7811.000
1181.027, 7801.000
1182.241, 7561.000
1183.455, 7841.000
1184.669, 7611.000
1185.883, 7526.000
1187.097, 7813.000
1188.311, 7470.000
1189.524, 7573.000
1190.737, 7628.000
1191.950, 7427.000
1193.162, 7622.000
1194.375, 7495.000
1195.587, 7444.000
1196.799, 7538.000
1198.011, 7397.000
1199.223, 7466.000
1200.434, 7581.000
1201.646, 7362.000
1202.857, 7678.000
1204.068, 7462.000
1205.279, 7383.000
1206.489, 7605.000
1207.699, 7379.000
1208.909, 7446.000
1210.119, 7582.000
1211.329, 7418.000
1212.539, 7590.000
1213.748, 7482.000
1214.957, 7540.000
1216.166, 7620.000
1217.375, 7460.000
1218.583, 7525.000
1219.792, 7631.000
1221.000, 7455.000
1222.208, 7593.000
1223.415, 7630.000
1224.623, 7408.000
1225.830, 7665.000
1227.037, 7608.000
1228.244, 7542.000
1229.451, 7630.000
1230.658, 7508.000
1231.864, 7576.000
1233.070, 7745.000
1234.276, 7547.000
1235.482, 7692.000
1236.687, 7590.000
1237.893, 7689.000
1239.098, 7664.000
1240.303, 7582.000
1241.508, 7719.000
1242.712, 7704.000
1243.917, 7530.000
1245.121, 7769.000
1246.325, 7620.000
1247.529, 7604.000
1248.732, 7823.000
1249.936, 7530.000
1251.139, 7753.000
1252.342, 7651.000
1253.545, 7561.000
1254.747, 7867.000
1255.950, 7767.000
1257.152, 7647.000
1258.354, 7932.000
1259.556, 7612.000
1260.758, 7812.000
1261.959, 7812.000
1263.160, 7605.000
1264.361, 7745.000
1265.562, 7733.000
1266.763, 7719.000
1267.963, 7936.000
1269.164, 7732.000
1270.364, 7727.000
1271.563, 7932.000
1272.763, 7661.000
1273.963, 7813.000
1275.162, 7747.000
1276.361, 7783.000
1277.560, 7902.000
1278.759, 7645.000
1279.957, 7830.000
1281.155, 7914.000
1282.354, 7682.000
1283.551, 7899.000
1284.749, 7761.000
1285.947, 7613.000
1287.144, 7896.000
1288.341, 7775.000
1289.538, 7740.000
1290.735, 7911.000
1291.931, 7792.000
1293.128, 7809.000
1294.324, 7887.000
1295.520, 7725.000
1296.716, 7861.000
1297.911, 7963.000
1299.107, 7771.000
1300.302, 8020.000
1301.497, 7759.000
1302.692, 7857.000
1303.886, 8015.000
1305.081, 7754.000
1306.275, 8003.000
1307.469, 8030.000
1308.663, 7748.000
1309.856, 8084.000
1311.050, 7958.000
1312.243, 7982.000
1313.436, 8186.000
1314.629, 7813.000
1315.822, 8042.000
1317.014, 8109.000
1318.206, 7852.000
1319.398, 8143.000
1320.590, 8133.000
1321.782, 7958.000
1322.974, 8225.000
1324.165, 7954.000
1325.356, 7952.000
1326.547, 8312.000
1327.738, 7914.000
1328.928, 8247.000
1330.119, 8195.000
1331.309, 7916.000
1332.499, 8264.000
1333.688, 8087.000
1334.878, 8007.000
1336.067, 8252.000
1337.256, 8065.000
1338.445, 8201.000
1339.634, 8278.000
1340.823, 8081.000
1342.011, 8381.000
1343.199, 8263.000
1344.388, 8051.000
1345.575, 8434.000
1346.763, 8168.000
1347.950, 8156.000
1349.138, 8496.000
1350.325, 8135.000
1351.512, 8309.000
1352.698, 8516.000
1353.885, 8157.000
1355.071, 8471.000
1356.257, 8427.000
1357.443, 8226.000
1358.629, 8603.000
1359.814, 8203.000
1361.000, 8343.000
1362.185, 8589.000
1363.370, 8286.000
1364.554, 8374.000
1365.739, 8551.000
1366.923, 8252.000
1368.107, 8499.000
1369.291, 8347.000
1370.475, 8189.000
1371.659, 8513.000
1372.842, 8205.000
1374.025, 8349.000
1375.208, 8562.000
1376.391, 8257.000
1377.574, 8578.000
1378.756, 8580.000
1379.939, 8461.000
1381.121, 8770.000
1382.303, 8580.000
1383.484, 8532.000
1384.666, 8841.000
1385.847, 8433.000
1387.028, 8645.000
1388.209, 8765.000
1389.390, 8381.000
1390.570, 8787.000
1391.751, 8712.000
1392.931, 8500.000
1394.111, 8859.000
1395.291, 8569.000
1396.470, 8575.000
1397.649, 8975.000
1398.829, 8511.000
1400.008, 8787.000
1401.187, 8688.000
1402.365, 8477.000
1403.544, 8965.000
1404.722, 8813.000
1405.900, 8517.000
1407.078, 9094.000
1408.255, 8709.000
1409.433, 8741.000
1410.610, 9090.000
1411.787, 8591.000
1412.964, 8852.000
1414.141, 8949.000
1415.317, 8750.000
1416.494, 8871.000
1417.670, 8964.000
1418.846, 8836.000
1420.022, 9065.000
1421.197, 8856.000
1422.373, 8808.000
1423.548, 9204.000
1424.723, 8848.000
1425.898, 8970.000
1427.072, 9077.000
1428.247, 8859.000
1429.421, 9086.000
1430.595, 9108.000
1431.769, 8909.000
1432.942, 9235.000
1434.116, 9003.000
1435.289, 9094.000
1436.462, 9291.000
1437.635, 8913.000
1438.808, 9254.000
1439.981, 9400.000
1441.153, 8939.000
1442.325, 9473.000
1443.497, 9312.000
1444.669, 9089.000
1445.840, 9418.000
1447.012, 9329.000
1448.183, 9121.000
1449.354, 9659.000
1450.525, 9047.000
1451.696, 9328.000
1452.866, 9568.000
1454.036, 9130.000
1455.206, 9411.000
1456.376, 9465.000
1457.546, 9132.000
1458.716, 9608.000
1459.885, 9408.000
1461.054, 9253.000
1462.223, 9709.000
1463.392, 9270.000
1464.560, 9395.000
1465.729, 9701.000
1466.897, 9273.000
1468.065, 9522.000
1469.233, 9632.000
1470.400, 9295.000
1471.568, 9639.000
1472.735, 9573.000
1473.902, 9282.000
1475.069, 9710.000
1476.236, 9570.000
1477.402, 9414.000
1478.569, 9850.000
1479.735, 9320.000
1480.901, 9608.000
1482.066, 9739.000
1483.232, 9386.000
1484.397, 9704.000
1485.562, 9761.000
1486.727, 9350.000
1487.892, 9927.000
1489.057, 9438.000
1490.221, 9493.000
1491.386, 9876.000
1492.550, 9474.000
1493.714, 9685.000
1494.877, 9710.000
1496.041, 9301.000
1497.204, 9812.000
1498.367, 9822.000
1499.530, 9299.000
1500.693, 9860.000
1501.856, 9623.000
1503.018, 9444.000
1504.180, 9968.000
1505.342, 9565.000
1506.504, 9664.000
1507.666, 9954.000
1508.827, 9553.000
1509.988, 9744.000
1511.149, 9909.000
1512.310, 9570.000
1513.471, 9918.000
1514.631, 9922.000
1515.792, 9515.000
1516.952, 10110.000
1518.112, 9802.000
1519.272, 9645.000
1520.431, 10080.000
1521.591, 10000.000
##END=



