##NAMES=Osumilite
##RRUFFID=R060385
##IDEAL CHEMISTRY=KFe^2+^_2_(Al_5_Si_10_)O_30_
##LOCALITY=Funtanafigu Quarry, Monte Arci, near Oristano, Sardinia
##OWNER=RRUFF
##SOURCE=Michael Scott
##DESCRIPTION=Black tabular distorted hexagonal crystals associated with colorless tridymite
##STATUS=The identification of this mineral is confirmed by single-crystal X-ray diffraction and chemical analysis.
##URL=rruff.info/R060385
##MEASURED CHEMISTRY=(K_0.72_Na_0.15_Ca_0.01_)_Σ=0.88_(Fe^2+^_1.07_Mg_0.93_Mn_0.06_)_Σ=2.06_(Al_2.69_Fe^3+^_0.31_)_Σ=3_(Si_10.28_Al_1.72_)_Σ=12_O_30_
##PIN_ID=M01364
##ORIENTATION=Laser parallel to c* (0 0 1). Fiducial mark perpendicular to laser is parallel to a [1 0 0]
184.3430, 13653.40
185.5690, 13969.00
186.7950, 13772.00
188.0210, 14161.00
189.2470, 14446.00
190.4720, 14245.00
191.6970, 14473.00
192.9230, 14567.00
194.1480, 14228.00
195.3730, 14196.00
196.5970, 14079.00
197.8220, 14047.00
199.0460, 14137.00
200.2700, 13776.00
201.4940, 13674.00
202.7180, 13656.00
203.9420, 13191.00
205.1660, 12993.00
206.3890, 12663.00
207.6120, 12430.00
208.8350, 12571.00
210.0580, 12298.00
211.2810, 12279.00
212.5040, 12047.00
213.7260, 12207.00
214.9480, 11903.00
216.1700, 12110.00
217.3920, 12016.00
218.6140, 12106.00
219.8360, 12131.00
221.0570, 11825.00
222.2790, 11663.00
223.5000, 11572.00
224.7210, 11687.00
225.9410, 11434.00
227.1620, 11357.00
228.3820, 11418.00
229.6030, 11327.00
230.8230, 11350.00
232.0430, 11410.00
233.2630, 11279.00
234.4820, 11294.20
235.7020, 11244.66
236.9210, 11192.00
238.1400, 11130.00
239.3590, 10992.23
240.5780, 11057.13
241.7970, 11083.67
243.0150, 11074.05
244.2340, 10913.82
245.4520, 10952.66
246.6700, 10914.55
247.8880, 10875.20
249.1060, 10947.80
250.3230, 10819.83
251.5400, 10821.92
252.7580, 10911.67
253.9750, 10969.23
255.1920, 10996.76
256.4080, 10879.83
257.6250, 10968.14
258.8410, 10985.62
260.0580, 11008.05
261.2740, 11520.00
262.4900, 11640.00
263.7050, 11723.00
264.9210, 12070.00
266.1360, 12009.00
267.3520, 12180.00
268.5670, 12637.00
269.7820, 12927.00
270.9960, 13243.00
272.2110, 13338.00
273.4250, 13734.00
274.6400, 13848.55
275.8540, 14366.00
277.0680, 14142.00
278.2810, 14375.00
279.4950, 14494.00
280.7090, 13930.00
281.9220, 13441.00
283.1350, 13175.00
284.3480, 12594.00
285.5610, 11984.00
286.7730, 11473.00
287.9860, 11228.00
289.1980, 10726.00
290.4100, 10396.00
291.6220, 9917.000
292.8340, 9671.000
294.0460, 9532.000
295.2570, 9132.000
296.4690, 8971.000
297.6800, 8818.000
298.8910, 8750.000
300.1020, 8611.000
301.3120, 8501.000
302.5230, 8489.000
303.7330, 8402.000
304.9440, 8294.000
306.1540, 8178.000
307.3630, 8173.000
308.5730, 8186.000
309.7830, 8106.000
310.9920, 8071.485
312.2010, 7967.000
313.4100, 7933.000
314.6190, 7906.000
315.8280, 7839.000
317.0370, 7837.127
318.2450, 7954.000
319.4530, 7820.000
320.6610, 7909.000
321.8690, 7920.000
323.0770, 7797.000
324.2850, 7505.000
325.4920, 7591.000
326.6990, 7518.506
327.9060, 7570.000
329.1130, 7634.000
330.3200, 7439.000
331.5270, 7558.000
332.7330, 7444.000
333.9390, 7537.000
335.1450, 7457.000
336.3510, 7434.000
337.5570, 7652.000
338.7630, 7634.000
339.9680, 7803.000
341.1740, 7669.000
342.3790, 7791.000
343.5840, 7849.000
344.7890, 7657.000
345.9930, 7630.000
347.1980, 7650.000
348.4020, 7488.000
349.6060, 7507.000
350.8100, 7672.000
352.0140, 7599.000
353.2180, 7481.000
354.4210, 7734.000
355.6250, 7627.883
356.8280, 7591.000
358.0310, 7656.000
359.2340, 7833.000
360.4360, 7845.000
361.6390, 8067.000
362.8410, 8140.000
364.0430, 8432.000
365.2450, 8667.000
366.4470, 8776.000
367.6490, 8967.000
368.8510, 9111.000
370.0520, 9257.572
371.2530, 9494.000
372.4540, 9567.000
373.6550, 9800.000
374.8560, 9978.000
376.0560, 10038.00
377.2570, 10189.00
378.4570, 10158.00
379.6570, 10189.66
380.8570, 10131.00
382.0570, 10128.00
383.2560, 9968.000
384.4560, 9881.000
385.6550, 9698.000
386.8540, 9631.516
388.0530, 9636.000
389.2520, 9464.000
390.4510, 9329.000
391.6490, 9203.000
392.8470, 9026.000
394.0450, 8936.000
395.2430, 8831.000
396.4410, 8693.000
397.6390, 8744.000
398.8360, 8817.000
400.0340, 8646.000
401.2310, 8510.000
402.4280, 8590.000
403.6250, 8698.000
404.8210, 8487.000
406.0180, 8471.000
407.2140, 8499.000
408.4100, 8504.000
409.6060, 8507.000
410.8020, 8551.000
411.9980, 8629.000
413.1930, 8628.000
414.3890, 8647.000
415.5840, 8624.000
416.7790, 8660.491
417.9740, 8525.000
419.1680, 8676.000
420.3630, 8668.000
421.5570, 8578.000
422.7510, 8720.000
423.9450, 8674.000
425.1390, 8653.000
426.3330, 8798.000
427.5270, 8895.000
428.7200, 8817.000
429.9130, 8781.000
431.1060, 8917.000
432.2990, 8707.000
433.4920, 8864.000
434.6840, 9003.000
435.8770, 8969.000
437.0690, 9092.000
438.2610, 9052.000
439.4530, 9317.000
440.6450, 9318.000
441.8360, 9512.000
443.0280, 9607.000
444.2190, 9649.000
445.4100, 9915.000
446.6010, 10147.00
447.7920, 10238.00
448.9820, 10404.00
450.1730, 10737.00
451.3630, 10956.00
452.5530, 11302.00
453.7430, 11513.00
454.9330, 11828.00
456.1230, 12205.00
457.3120, 12588.00
458.5010, 12989.00
459.6910, 13394.00
460.8800, 14051.00
462.0680, 14642.00
463.2570, 15156.00
464.4460, 15615.00
465.6340, 16819.00
466.8220, 17478.00
468.0100, 18126.00
469.1980, 19228.00
470.3860, 19882.00
471.5730, 20664.00
472.7600, 21409.00
473.9480, 21788.00
475.1350, 21972.00
476.3210, 21778.00
477.5080, 21290.00
478.6950, 20620.00
479.8810, 19833.00
481.0670, 18831.00
482.2530, 17678.00
483.4390, 16306.00
484.6250, 15168.00
485.8100, 14103.00
486.9960, 13000.00
488.1810, 12143.00
489.3660, 11641.00
490.5510, 11013.00
491.7360, 10787.00
492.9200, 10452.00
494.1050, 9945.000
495.2890, 9815.000
496.4730, 9454.000
497.6570, 9598.000
498.8400, 9259.000
500.0240, 9390.000
501.2070, 9326.000
502.3910, 9184.000
503.5740, 9328.000
504.7570, 9412.000
505.9400, 9392.000
507.1220, 9565.000
508.3050, 9770.000
509.4870, 9843.000
510.6690, 10019.00
511.8510, 10234.00
513.0330, 10403.00
514.2140, 10540.00
515.3960, 10776.00
516.5770, 10965.00
517.7580, 11181.00
518.9390, 11269.00
520.1200, 11481.61
521.3010, 11548.00
522.4810, 11820.00
523.6610, 11942.00
524.8420, 12087.00
526.0220, 12312.00
527.2010, 12450.00
528.3810, 12608.00
529.5610, 12842.00
530.7400, 13015.00
531.9190, 13152.00
533.0980, 13299.00
534.2770, 13376.00
535.4560, 13495.00
536.6340, 13771.00
537.8120, 13882.00
538.9910, 14115.00
540.1690, 14361.00
541.3460, 14606.00
542.5240, 14561.00
543.7020, 14723.00
544.8790, 14718.00
546.0560, 14649.00
547.2330, 14544.00
548.4100, 14393.00
549.5870, 14348.00
550.7630, 14099.00
551.9400, 13890.00
553.1160, 13469.00
554.2920, 13217.00
555.4680, 12938.00
556.6440, 12601.00
557.8190, 12513.00
558.9950, 12300.00
560.1700, 12206.00
561.3450, 12220.00
562.5200, 11893.00
563.6950, 11830.00
564.8690, 11661.10
566.0440, 11729.00
567.2180, 11372.00
568.3920, 11380.00
569.5660, 11337.00
570.7400, 11101.00
571.9130, 10939.00
573.0870, 10738.00
574.2600, 10694.00
575.4330, 10493.00
576.6060, 10373.00
577.7790, 10239.00
578.9520, 9923.000
580.1240, 9849.579
581.2960, 9828.000
582.4690, 9561.000
583.6410, 9509.000
584.8120, 9344.000
585.9840, 9056.000
587.1560, 8991.000
588.3270, 8967.000
589.4980, 8978.000
590.6690, 8889.000
591.8400, 8980.000
593.0110, 8821.000
594.1810, 8916.000
595.3510, 8871.000
596.5220, 8893.000
597.6920, 8903.000
598.8610, 9021.000
600.0310, 8975.000
601.2010, 8970.000
602.3700, 8994.000
603.5390, 8972.000
604.7080, 8958.000
605.8770, 9107.000
607.0460, 9204.000
608.2140, 9143.000
609.3830, 9215.000
610.5510, 9250.000
611.7190, 9424.000
612.8870, 9477.000
614.0550, 9620.000
615.2220, 9637.000
616.3900, 9840.000
617.5570, 9926.018
618.7240, 10012.00
619.8910, 10176.00
621.0580, 10279.00
622.2240, 10417.00
623.3910, 10533.03
624.5570, 10585.00
625.7230, 10716.00
626.8890, 10780.00
628.0550, 10787.00
629.2200, 10867.00
630.3860, 10995.00
631.5510, 10755.00
632.7160, 10811.00
633.8810, 10772.00
635.0460, 10575.00
636.2100, 10656.00
637.3750, 10418.00
638.5390, 10249.00
639.7030, 10172.00
640.8670, 9915.000
642.0310, 9755.000
643.1950, 9536.000
644.3580, 9594.000
645.5210, 9306.000
646.6850, 9291.000
647.8480, 9073.000
649.0100, 8989.000
650.1730, 8900.000
651.3350, 8824.000
652.4980, 8642.000
653.6600, 8666.000
654.8220, 8535.000
655.9840, 8536.000
657.1450, 8402.000
658.3070, 8319.000
659.4680, 8362.000
660.6300, 8178.000
661.7910, 8238.000
662.9510, 8033.000
664.1120, 8001.000
665.2730, 8034.000
666.4330, 7841.000
667.5930, 7851.000
668.7530, 7826.000
669.9130, 7746.000
671.0730, 7627.000
672.2320, 7674.000
673.3920, 7707.000
674.5510, 7558.000
675.7100, 7595.000
676.8690, 7558.000
678.0280, 7477.000
679.1860, 7588.000
680.3450, 7499.000
681.5030, 7563.000
682.6610, 7406.000
683.8190, 7418.000
684.9770, 7408.000
686.1340, 7382.000
687.2920, 7347.000
688.4490, 7463.000
689.6060, 7330.000
690.7630, 7372.680
691.9200, 7425.000
693.0760, 7310.000
694.2330, 7486.000
695.3890, 7372.000
696.5450, 7342.000
697.7010, 7409.000
698.8570, 7360.677
700.0130, 7400.000
701.1680, 7358.000
702.3230, 7322.000
703.4780, 7254.000
704.6330, 7347.000
705.7880, 7318.000
706.9430, 7341.000
708.0970, 7366.014
709.2520, 7271.000
710.4060, 7335.000
711.5600, 7305.000
712.7140, 7175.000
713.8670, 7225.000
715.0210, 7251.000
716.1740, 7213.000
717.3270, 7329.000
718.4800, 7172.000
719.6330, 7231.000
720.7860, 7411.000
721.9380, 7325.000
723.0910, 7262.000
724.2430, 7254.000
725.3950, 7245.000
726.5470, 7235.329
727.6980, 7264.000
728.8500, 7255.000
730.0010, 7342.000
731.1530, 7366.000
732.3040, 7327.000
733.4550, 7400.000
734.6050, 7245.000
735.7560, 7470.000
736.9060, 7378.000
738.0560, 7482.000
739.2060, 7465.000
740.3560, 7373.000
741.5060, 7511.000
742.6560, 7533.000
743.8050, 7597.000
744.9540, 7533.000
746.1030, 7474.000
747.2520, 7422.000
748.4010, 7548.000
749.5500, 7433.000
750.6980, 7636.000
751.8460, 7503.000
752.9950, 7642.000
754.1420, 7583.000
755.2900, 7530.000
756.4380, 7656.000
757.5850, 7538.000
758.7330, 7643.000
759.8800, 7726.000
761.0270, 7711.000
762.1730, 7700.000
763.3200, 7707.000
764.4670, 7845.000
765.6130, 7726.000
766.7590, 7727.000
767.9050, 7667.000
769.0510, 7825.000
770.1960, 7802.000
771.3420, 7795.000
772.4870, 7735.000
773.6320, 7791.000
774.7770, 7838.000
775.9220, 7810.000
777.0670, 7816.000
778.2110, 7872.000
779.3560, 7833.000
780.5000, 7908.000
781.6440, 7857.000
782.7880, 7803.000
783.9320, 7750.000
785.0750, 7838.000
786.2180, 7868.000
787.3620, 7732.000
788.5050, 7841.000
789.6480, 7772.000
790.7900, 7743.000
791.9330, 7714.000
793.0750, 7762.000
794.2170, 7770.000
795.3590, 7616.000
796.5010, 7853.000
797.6430, 7654.000
798.7850, 7613.000
799.9260, 7684.000
801.0670, 7544.000
802.2080, 7520.000
803.3490, 7515.000
804.4900, 7373.000
805.6310, 7450.000
806.7710, 7404.000
807.9110, 7268.000
809.0510, 7290.000
810.1910, 7261.000
811.3310, 7164.000
812.4710, 7159.000
813.6100, 7020.000
814.7490, 7092.000
815.8880, 7118.000
817.0270, 6970.000
818.1660, 7073.000
819.3050, 6997.000
820.4430, 7112.000
821.5820, 6968.000
822.7200, 6979.000
823.8580, 7046.000
824.9950, 6919.000
826.1330, 6949.223
827.2710, 6959.247
828.4080, 6897.000
829.5450, 6928.000
830.6820, 6913.000
831.8190, 6738.000
832.9560, 6646.000
834.0920, 6680.000
835.2280, 6634.000
836.3650, 6540.000
837.5010, 6631.000
838.6360, 6582.000
839.7720, 6523.000
840.9080, 6661.000
842.0430, 6680.000
843.1780, 6544.000
844.3130, 6548.000
845.4480, 6666.000
846.5830, 6571.000
847.7170, 6549.000
848.8520, 6515.000
849.9860, 6581.000
851.1200, 6637.000
852.2540, 6615.000
853.3870, 6644.000
854.5210, 6667.113
855.6540, 6601.000
856.7880, 6693.000
857.9210, 6662.000
859.0540, 6633.000
860.1860, 6603.000
861.3190, 6620.000
862.4510, 6630.000
863.5840, 6580.000
864.7160, 6739.000
865.8480, 6703.000
866.9790, 6720.000
868.1110, 6815.000
869.2420, 6742.000
870.3740, 6716.000
871.5050, 6640.000
872.6360, 6757.000
873.7660, 6692.000
874.8970, 6755.000
876.0280, 6736.000
877.1580, 6747.000
878.2880, 6784.000
879.4180, 6825.000
880.5480, 6921.000
881.6770, 6803.000
882.8070, 6773.000
883.9360, 6748.000
885.0650, 6813.000
886.1940, 6829.000
887.3230, 6914.000
888.4520, 6903.000
889.5800, 6832.000
890.7090, 6941.000
891.8370, 6916.000
892.9650, 6964.000
894.0930, 7038.000
895.2200, 7022.000
896.3480, 7015.000
897.4750, 7068.000
898.6020, 7142.000
899.7290, 7070.000
900.8560, 7137.000
901.9830, 7122.000
903.1090, 7225.000
904.2360, 7270.000
905.3620, 7266.000
906.4880, 7216.000
907.6140, 7230.000
908.7400, 7252.000
909.8650, 7303.000
910.9900, 7316.000
912.1160, 7409.000
913.2410, 7441.000
914.3660, 7463.000
915.4900, 7387.000
916.6150, 7584.000
917.7390, 7439.000
918.8640, 7516.000
919.9880, 7577.000
921.1120, 7570.000
922.2350, 7519.000
923.3590, 7755.000
924.4820, 7746.000
925.6060, 7555.000
926.7290, 7730.000
927.8520, 7684.000
928.9740, 7680.000
930.0970, 7799.000
931.2190, 7824.000
932.3420, 7819.000
933.4640, 7960.000
934.5860, 7853.000
935.7080, 8042.000
936.8290, 7988.000
937.9510, 8032.000
939.0720, 7988.000
940.1930, 7981.000
941.3140, 8091.000
942.4350, 8002.000
943.5560, 8120.000
944.6760, 8098.000
945.7960, 8184.000
946.9170, 8363.000
948.0370, 8220.000
949.1560, 8280.000
950.2760, 8206.000
951.3960, 8326.000
952.5150, 8313.000
953.6340, 8333.000
954.7530, 8416.000
955.8720, 8458.000
956.9910, 8516.000
958.1090, 8540.000
959.2280, 8537.000
960.3460, 8387.000
961.4640, 8500.000
962.5820, 8474.000
963.6990, 8685.000
964.8170, 8594.000
965.9340, 8736.000
967.0510, 8689.000
968.1690, 8698.000
969.2850, 8645.000
970.4020, 8844.000
971.5190, 8819.000
972.6350, 8894.000
973.7510, 8713.000
974.8670, 8840.000
975.9830, 8790.000
977.0990, 8917.000
978.2150, 8900.000
979.3300, 9022.000
980.4450, 9058.000
981.5600, 9033.000
982.6750, 8991.000
983.7900, 8993.327
984.9050, 8970.716
986.0190, 8949.000
987.1340, 8962.000
988.2480, 8937.000
989.3620, 8953.000
990.4750, 8877.000
991.5890, 8886.000
992.7020, 8870.000
993.8160, 8799.000
994.9290, 8697.000
996.0420, 8666.000
997.1550, 8559.000
998.2670, 8449.000
999.3800, 8419.000
1000.492, 8406.000
1001.604, 8478.000
1002.716, 8293.000
1003.828, 8424.000
1004.940, 8228.000
1006.051, 8224.000
1007.163, 8156.000
1008.274, 8273.000
1009.385, 8221.000
1010.496, 8271.000
1011.606, 8143.000
1012.717, 8168.000
1013.827, 8191.000
1014.937, 8074.000
1016.047, 8103.000
1017.157, 8162.000
1018.267, 8104.000
1019.377, 8061.000
1020.486, 8088.000
1021.595, 8066.000
1022.704, 7958.000
1023.813, 7980.000
1024.922, 8094.000
1026.030, 8009.000
1027.139, 8078.000
1028.247, 8073.000
1029.355, 8209.000
1030.463, 8185.000
1031.571, 8142.000
1032.678, 8111.000
1033.786, 8042.000
1034.893, 8066.000
1036.000, 8018.000
1037.107, 8086.000
1038.214, 8158.000
1039.321, 8070.000
1040.427, 8073.000
1041.533, 8011.000
1042.639, 8146.000
1043.745, 8126.000
1044.851, 8189.000
1045.957, 8176.000
1047.062, 8097.000
1048.168, 8168.000
1049.273, 8234.000
1050.378, 8177.000
1051.482, 8205.000
1052.587, 8208.000
1053.692, 8273.000
1054.796, 8328.000
1055.900, 8304.000
1057.004, 8290.000
1058.108, 8447.000
1059.212, 8418.000
1060.315, 8399.000
1061.418, 8520.000
1062.522, 8497.000
1063.625, 8526.670
1064.728, 8585.000
1065.830, 8570.000
1066.933, 8567.000
1068.035, 8631.000
1069.137, 8580.000
1070.239, 8567.000
1071.341, 8576.000
1072.443, 8545.231
1073.545, 8544.067
1074.646, 8553.000
1075.747, 8484.000
1076.848, 8552.000
1077.949, 8442.000
1079.050, 8363.000
1080.150, 8484.000
1081.251, 8289.000
1082.351, 8286.000
1083.451, 8175.000
1084.551, 8033.000
1085.651, 8168.000
1086.750, 8113.000
1087.850, 8075.000
1088.949, 8081.000
1090.048, 8044.000
1091.147, 7974.000
1092.246, 7904.000
1093.345, 7893.871
1094.443, 7845.000
1095.541, 7878.000
1096.639, 7872.000
1097.737, 7888.729
1098.835, 7904.000
1099.933, 7894.000
1101.030, 7915.756
1102.128, 7883.000
1103.225, 7940.000
1104.322, 7900.000
1105.419, 7905.000
1106.515, 7814.000
1107.612, 7872.143
1108.708, 8069.000
1109.804, 7905.000
1110.900, 7951.000
1111.996, 7848.000
1113.092, 8040.000
1114.187, 7910.000
1115.283, 7977.000
1116.378, 8152.000
1117.473, 8115.000
1118.568, 8015.000
1119.662, 8075.000
1120.757, 8034.000
1121.851, 8074.000
1122.946, 8055.000
1124.040, 8152.000
1125.134, 8080.000
1126.227, 8029.000
1127.321, 8159.000
1128.414, 8212.000
1129.508, 8175.000
1130.601, 8258.000
1131.693, 8262.713
1132.786, 8242.000
1133.879, 8285.000
1134.971, 8234.000
1136.064, 8182.000
1137.156, 8130.000
1138.248, 8235.000
1139.339, 8281.000
1140.431, 8382.000
1141.522, 8374.630
1142.614, 8267.000
1143.705, 8332.000
1144.796, 8343.000
1145.887, 8290.000
1146.977, 8369.000
1148.068, 8423.000
1149.158, 8484.000
1150.248, 8428.000
1151.338, 8469.947
1152.428, 8447.000
1153.518, 8434.000
1154.607, 8502.000
1155.696, 8419.000
1156.785, 8378.000
1157.874, 8370.000
1158.963, 8471.000
1160.052, 8530.000
1161.141, 8488.000
1162.229, 8556.000
1163.317, 8465.000
1164.405, 8537.000
1165.493, 8473.000
1166.581, 8487.000
1167.668, 8545.000
1168.756, 8352.000
1169.843, 8375.000
1170.930, 8434.000
1172.017, 8544.000
1173.103, 8297.000
1174.190, 8266.000
1175.276, 8393.000
1176.363, 8223.000
1177.449, 8334.000
1178.535, 8206.000
1179.620, 8113.000
1180.706, 8233.000
1181.791, 8159.000
1182.877, 8223.000
1183.962, 8100.000
1185.047, 8177.000
1186.131, 8052.000
1187.216, 8087.000
1188.300, 7940.000
1189.385, 8000.000
1190.469, 7988.000
1191.553, 8036.000
1192.637, 7896.000
1193.720, 7804.000
1194.804, 7753.000
1195.887, 7962.000
1196.970, 7742.000
1198.053, 7777.044
1199.136, 7772.000
1200.219, 7660.000
1201.301, 7592.000
1202.383, 7535.000
1203.465, 7447.000
1204.547, 7474.000
1205.629, 7411.000
1206.711, 7375.000
1207.792, 7274.000
1208.874, 7206.000
1209.955, 7203.000
1211.036, 7061.000
1212.117, 7214.000
1213.198, 7109.000
1214.278, 7175.000
1215.359, 7005.000
1216.439, 6931.000
1217.519, 6980.000
1218.599, 6926.000
1219.678, 6963.000
1220.758, 6894.000
1221.837, 6867.000
1222.917, 6818.000
1223.996, 6818.000
1225.075, 6799.000
1226.153, 6749.000
1227.232, 6750.000
1228.310, 6689.000
1229.389, 6665.000
1230.467, 6750.000
1231.545, 6728.000
1232.622, 6682.000
1233.700, 6652.000
1234.777, 6642.000
1235.855, 6635.000
1236.932, 6644.000
1238.009, 6545.000
1239.086, 6571.000
1240.162, 6608.000
1241.239, 6562.000
1242.315, 6622.000
1243.391, 6532.000
1244.467, 6614.000
1245.543, 6407.000
1246.619, 6412.000
1247.694, 6615.000
1248.769, 6493.000
1249.844, 6527.000
1250.919, 6521.000
1251.994, 6548.000
1253.069, 6527.000
1254.144, 6515.000
1255.218, 6370.000
1256.292, 6470.000
1257.366, 6377.000
1258.440, 6437.000
1259.514, 6510.000
1260.587, 6431.000
1261.661, 6444.000
1262.734, 6461.000
1263.807, 6541.000
1264.880, 6495.000
1265.952, 6418.000
1267.025, 6475.000
1268.097, 6334.000
1269.170, 6489.000
1270.242, 6505.000
1271.314, 6424.000
1272.385, 6377.000
1273.457, 6452.000
1274.528, 6311.000
1275.600, 6366.000
1276.671, 6421.000
1277.742, 6325.000
1278.812, 6498.000
1279.883, 6324.000
1280.954, 6359.000
1282.024, 6394.000
1283.094, 6373.000
1284.164, 6368.000
1285.234, 6366.000
1286.303, 6378.000
1287.373, 6279.000
1288.442, 6323.000
1289.511, 6360.000
1290.580, 6451.000
1291.649, 6283.000
1292.718, 6377.000
1293.786, 6354.000
1294.855, 6332.000
1295.923, 6322.000
1296.991, 6419.000
1298.059, 6315.000
1299.126, 6340.000
1300.194, 6408.000
1301.261, 6335.000
1302.328, 6292.732
1303.395, 6360.451
1304.462, 6399.161
1305.529, 6410.420
1306.596, 6312.013
1307.662, 6355.216
1308.728, 6341.668
1309.794, 6325.792
1310.860, 6388.927
1311.926, 6306.470
1312.991, 6368.350
1314.057, 6372.614
1315.122, 6403.247
1316.187, 6376.777
1317.252, 6348.000
1318.317, 6334.000
1319.381, 6336.000
1320.446, 6291.000
1321.510, 6374.000
1322.574, 6328.000
1323.638, 6221.000
1324.702, 6360.000
1325.766, 6256.000
1326.829, 6322.000
1327.892, 6266.000
1328.956, 6324.000
1330.019, 6319.000
1331.081, 6376.000
1332.144, 6415.000
1333.206, 6391.000
1334.269, 6323.000
1335.331, 6360.000
1336.393, 6365.000
1337.455, 6322.000
1338.516, 6317.000
1339.578, 6296.000
1340.639, 6364.000
1341.701, 6367.000
1342.762, 6230.000
1343.822, 6296.000
1344.883, 6285.000
1345.944, 6446.000
1347.004, 6304.000
1348.064, 6238.000
1349.124, 6275.000
1350.184, 6205.000
1351.244, 6342.000
1352.304, 6316.000
1353.363, 6337.000
1354.422, 6374.000
1355.481, 6342.747
1356.540, 6261.000
1357.599, 6297.000
1358.657, 6223.000
1359.716, 6167.000
1360.774, 6286.000
1361.832, 6215.000
1362.890, 6235.000
1363.948, 6266.000
1365.006, 6305.000
1366.063, 6289.601
1367.120, 6282.275
1368.178, 6284.000
1369.234, 6223.000
1370.291, 6267.000
1371.348, 6248.000
1372.404, 6191.000
1373.461, 6217.000
1374.517, 6193.422
1375.573, 6287.000
1376.629, 6199.000
1377.684, 6218.000
1378.740, 6240.000
1379.795, 6188.000
1380.850, 6205.522
1381.905, 6163.000
1382.960, 6183.000
1384.015, 6258.000
1385.070, 6246.000
1386.124, 6248.000
1387.178, 6265.000
1388.232, 6300.000
1389.286, 6292.000
1390.340, 6307.000
1391.393, 6292.313
1392.447, 6287.456
1393.500, 6259.000
1394.553, 6256.000
1395.606, 6261.000
1396.659, 6225.000
1397.711, 6271.000
1398.764, 6188.000
1399.816, 6187.000
1400.868, 6207.000
1401.920, 6212.000
1402.972, 6230.146
1404.023, 6227.379
1405.075, 6273.000
1406.126, 6230.000
1407.177, 6255.000
1408.228, 6281.000
1409.279, 6242.000
1410.330, 6204.000
1411.380, 6241.000
1412.431, 6196.956
1413.481, 6121.000
1414.531, 6189.000
1415.580, 6189.000
1416.630, 6181.614
1417.680, 6246.488
1418.729, 6282.354
1419.778, 6290.771
1420.827, 6189.520
1421.876, 6229.881
1422.925, 6213.491
1423.973, 6194.775
1425.022, 6255.067
1426.070, 6169.769
1427.118, 6228.810
1428.166, 6230.233
1429.214, 6258.026
1430.261, 6228.719
1431.309, 6217.047
1432.356, 6262.497
1433.403, 6276.319
1434.450, 6240.438
1435.497, 6269.909
1436.543, 6182.619
1437.590, 6197.788
1438.636, 6257.165
1439.682, 6224.156
1440.728, 6298.000
1441.774, 6296.000
1442.819, 6277.000
1443.865, 6283.090
1444.910, 6264.085
1445.955, 6227.000
1447.000, 6265.000
1448.045, 6246.000
1449.090, 6314.000
1450.134, 6284.000
1451.178, 6209.000
1452.223, 6246.000
1453.267, 6199.000
1454.310, 6235.000
1455.354, 6177.000
1456.398, 6254.000
1457.441, 6251.000
1458.484, 6210.000
1459.527, 6139.000
1460.570, 6112.000
1461.613, 6102.132
1462.655, 6217.000
1463.698, 6167.000
1464.740, 6141.000
1465.782, 6292.000
1466.824, 6265.000
1467.866, 6303.000
1468.907, 6228.000
1469.948, 6267.000
1470.990, 6259.000
1472.031, 6285.000
1473.072, 6303.000
1474.112, 6236.000
1475.153, 6258.000
1476.194, 6261.000
1477.234, 6181.000
1478.274, 6340.000
1479.314, 6254.000
1480.354, 6329.000
1481.393, 6308.000
1482.433, 6294.000
1483.472, 6328.235
1484.511, 6303.000
1485.550, 6340.000
1486.589, 6299.000
1487.628, 6275.000
1488.666, 6198.000
1489.704, 6252.000
1490.743, 6252.000
1491.781, 6300.000
1492.819, 6305.000
1493.856, 6279.000
1494.894, 6426.000
1495.931, 6345.000
1496.968, 6367.000
1498.005, 6246.000
1499.042, 6301.000
1500.079, 6356.000
1501.115, 6345.000
1502.152, 6366.914
1503.188, 6302.000
1504.224, 6344.000
1505.260, 6389.000
1506.296, 6361.507
1507.331, 6253.000
1508.367, 6300.000
1509.402, 6313.000
1510.437, 6330.000
1511.472, 6356.000
1512.507, 6302.000
1513.541, 6299.000
1514.576, 6321.000
1515.610, 6292.000
1516.644, 6365.000
1517.678, 6361.000
1518.712, 6333.000
1519.746, 6374.000
1520.779, 6394.000
1521.813, 6384.000
1522.846, 6382.000
1523.879, 6289.000
1524.912, 6351.000
1525.944, 6324.000
1526.977, 6402.000
1528.009, 6333.000
1529.041, 6311.000
1530.073, 6278.000
1531.105, 6344.000
1532.137, 6335.000
1533.168, 6328.000
1534.200, 6318.000
1535.231, 6349.000
1536.262, 6317.000
1537.293, 6310.733
1538.324, 6377.222
1539.354, 6414.701
1540.385, 6424.730
1541.415, 6325.093
1542.445, 6367.067
1543.475, 6352.290
1544.505, 6335.185
1545.534, 6397.090
1546.564, 6313.404
1547.593, 6374.056
1548.622, 6377.090
1549.651, 6406.495
1550.680, 6378.798
1551.708, 6368.737
1552.737, 6415.797
1553.765, 6431.229
1554.793, 6396.958
1555.821, 6428.039
1556.849, 6342.357
1557.877, 6359.136
1558.904, 6420.122
1559.932, 6388.722
1560.959, 6420.846
1561.986, 6428.777
1563.013, 6326.758
1564.039, 6415.952
1565.066, 6422.454
1566.092, 6344.046
1567.119, 6426.689
1568.145, 6409.000
1569.170, 6412.000
1570.196, 6411.000
1571.222, 6427.095
1572.247, 6308.000
1573.272, 6421.000
1574.297, 6343.000
1575.322, 6290.000
1576.347, 6313.000
1577.372, 6240.000
##END=



