##NAMES=Osumilite
##RRUFFID=R060385
##IDEAL CHEMISTRY=KFe^2+^_2_(Al_5_Si_10_)O_30_
##LOCALITY=Funtanafigu Quarry, Monte Arci, near Oristano, Sardinia
##OWNER=RRUFF
##SOURCE=Michael Scott
##DESCRIPTION=Black tabular distorted hexagonal crystals associated with colorless tridymite
##STATUS=The identification of this mineral is confirmed by single-crystal X-ray diffraction and chemical analysis.
##URL=rruff.info/R060385
##MEASURED CHEMISTRY=(K_0.72_Na_0.15_Ca_0.01_)_Σ=0.88_(Fe^2+^_1.07_Mg_0.93_Mn_0.06_)_Σ=2.06_(Al_2.69_Fe^3+^_0.31_)_Σ=3_(Si_10.28_Al_1.72_)_Σ=12_O_30_
##PIN_ID=M01364
##ORIENTATION=Laser parallel to c* (0 0 1). Fiducial mark perpendicular to laser is parallel to a [1 0 0]
132.6970, 13882.00
133.9300, 13917.00
135.1630, 13816.00
136.3950, 13864.00
137.6280, 13963.00
138.8600, 13954.00
140.0920, 14266.00
141.3240, 14359.00
142.5560, 14446.00
143.7880, 14528.00
145.0190, 14606.00
146.2510, 14721.00
147.4820, 14906.53
148.7130, 15067.00
149.9440, 15424.00
151.1750, 15683.00
152.4050, 16148.00
153.6360, 16314.00
154.8660, 16564.00
156.0960, 17046.00
157.3260, 17105.00
158.5560, 17781.00
159.7850, 17543.00
161.0150, 17697.00
162.2440, 17619.00
163.4730, 17444.00
164.7020, 16803.00
165.9310, 16494.00
167.1590, 16173.00
168.3880, 16129.00
169.6160, 16026.00
170.8440, 15842.00
172.0720, 16080.00
173.3000, 15874.87
174.5280, 15817.00
175.7550, 15712.00
176.9820, 15638.00
178.2100, 15545.00
179.4370, 15561.00
180.6630, 15516.00
181.8900, 15664.00
183.1170, 15639.00
184.3430, 15706.00
185.5690, 15634.00
186.7950, 15380.00
188.0210, 15451.00
189.2470, 16040.00
190.4720, 15983.00
191.6970, 15862.00
192.9230, 15957.00
194.1480, 15746.00
195.3730, 15611.00
196.5970, 15529.00
197.8220, 15518.00
199.0460, 15481.00
200.2700, 15345.00
201.4940, 15329.00
202.7180, 15095.00
203.9420, 14863.00
205.1660, 14409.00
206.3890, 14326.00
207.6120, 14188.00
208.8350, 14281.00
210.0580, 14113.00
211.2810, 13897.00
212.5040, 13854.00
213.7260, 13864.00
214.9480, 13844.00
216.1700, 13815.00
217.3920, 13815.00
218.6140, 13636.00
219.8360, 13759.00
221.0570, 13596.00
222.2790, 13418.00
223.5000, 13395.00
224.7210, 13423.00
225.9410, 13176.00
227.1620, 13178.00
228.3820, 13340.00
229.6030, 13162.00
230.8230, 13068.00
232.0430, 13204.00
233.2630, 13261.00
234.4820, 13146.00
235.7020, 13231.00
236.9210, 12913.00
238.1400, 12961.00
239.3590, 13037.00
240.5780, 13054.00
241.7970, 13122.00
243.0150, 13173.00
244.2340, 12768.00
245.4520, 12864.00
246.6700, 12744.00
247.8880, 12840.00
249.1060, 12647.00
250.3230, 12850.00
251.5400, 12830.00
252.7580, 12834.00
253.9750, 12766.00
255.1920, 12748.00
256.4080, 12848.00
257.6250, 12950.00
258.8410, 12998.00
260.0580, 13093.00
261.2740, 13364.00
262.4900, 13268.00
263.7050, 13332.00
264.9210, 13720.00
266.1360, 13730.00
267.3520, 13959.00
268.5670, 14327.00
269.7820, 14539.00
270.9960, 14946.00
272.2110, 15415.00
273.4250, 15738.00
274.6400, 15964.00
275.8540, 16123.00
277.0680, 16195.00
278.2810, 16135.00
279.4950, 16053.72
280.7090, 15903.00
281.9220, 15593.00
283.1350, 15087.00
284.3480, 14607.00
285.5610, 14186.00
286.7730, 13672.00
287.9860, 13135.00
289.1980, 12620.00
290.4100, 12388.00
291.6220, 11915.00
292.8340, 11713.00
294.0460, 11510.00
295.2570, 11310.00
296.4690, 11068.00
297.6800, 10952.00
298.8910, 10738.00
300.1020, 10590.00
301.3120, 10563.00
302.5230, 10429.00
303.7330, 10339.00
304.9440, 10266.60
306.1540, 10103.00
307.3630, 10125.00
308.5730, 10033.00
309.7830, 10018.00
310.9920, 9876.000
312.2010, 9903.000
313.4100, 10106.00
314.6190, 9924.000
315.8280, 9803.000
317.0370, 9987.000
318.2450, 9903.000
319.4530, 9811.000
320.6610, 9823.000
321.8690, 9778.000
323.0770, 9657.000
324.2850, 9813.000
325.4920, 9604.000
326.6990, 9717.000
327.9060, 9675.000
329.1130, 9556.000
330.3200, 9564.000
331.5270, 9476.000
332.7330, 9530.000
333.9390, 9549.000
335.1450, 9555.000
336.3510, 9540.000
337.5570, 9562.000
338.7630, 9486.000
339.9680, 9551.974
341.1740, 9708.000
342.3790, 9611.000
343.5840, 9706.000
344.7890, 9662.000
345.9930, 9522.000
347.1980, 9619.000
348.4020, 9502.000
349.6060, 9615.000
350.8100, 9653.000
352.0140, 9691.000
353.2180, 9632.000
354.4210, 9610.000
355.6250, 9706.000
356.8280, 9744.000
358.0310, 9829.000
359.2340, 9894.000
360.4360, 10034.00
361.6390, 10123.00
362.8410, 10387.00
364.0430, 10521.00
365.2450, 10799.00
366.4470, 10840.00
367.6490, 11035.00
368.8510, 11285.00
370.0520, 11447.00
371.2530, 11616.00
372.4540, 11688.00
373.6550, 11897.00
374.8560, 11984.00
376.0560, 12100.00
377.2570, 12209.11
378.4570, 12260.73
379.6570, 12305.00
380.8570, 12314.00
382.0570, 12210.00
383.2560, 12121.00
384.4560, 12086.00
385.6550, 11949.69
386.8540, 11835.00
388.0530, 11713.00
389.2520, 11525.00
390.4510, 11396.28
391.6490, 11373.00
392.8470, 11197.00
394.0450, 11187.00
395.2430, 11111.00
396.4410, 10985.00
397.6390, 10942.00
398.8360, 10817.00
400.0340, 10840.00
401.2310, 10724.00
402.4280, 10691.00
403.6250, 10538.00
404.8210, 10774.00
406.0180, 10730.00
407.2140, 10829.00
408.4100, 10772.00
409.6060, 10805.00
410.8020, 10833.00
411.9980, 10784.00
413.1930, 10825.00
414.3890, 10810.00
415.5840, 10868.00
416.7790, 10905.00
417.9740, 10765.00
419.1680, 10933.00
420.3630, 10880.00
421.5570, 10783.00
422.7510, 11015.00
423.9450, 10903.00
425.1390, 10943.17
426.3330, 11001.00
427.5270, 10987.00
428.7200, 11018.00
429.9130, 11144.00
431.1060, 11192.00
432.2990, 11167.00
433.4920, 11190.00
434.6840, 11240.40
435.8770, 11358.00
437.0690, 11357.00
438.2610, 11370.00
439.4530, 11446.00
440.6450, 11670.00
441.8360, 11692.00
443.0280, 11743.00
444.2190, 11850.00
445.4100, 12173.00
446.6010, 12479.00
447.7920, 12550.00
448.9820, 12660.00
450.1730, 12943.00
451.3630, 13070.00
452.5530, 13475.00
453.7430, 13638.00
454.9330, 13997.00
456.1230, 14238.00
457.3120, 14660.00
458.5010, 15060.00
459.6910, 15477.00
460.8800, 15977.00
462.0680, 16614.00
463.2570, 17324.00
464.4460, 17986.00
465.6340, 18713.00
466.8220, 19534.00
468.0100, 20222.00
469.1980, 21116.00
470.3860, 21881.00
471.5730, 22608.00
472.7600, 23462.00
473.9480, 24178.00
475.1350, 24225.00
476.3210, 24520.00
477.5080, 23881.00
478.6950, 23305.00
479.8810, 22537.00
481.0670, 21520.00
482.2530, 20399.84
483.4390, 19055.00
484.6250, 17840.00
485.8100, 16739.00
486.9960, 15653.00
488.1810, 14766.00
489.3660, 14151.00
490.5510, 13687.00
491.7360, 13018.00
492.9200, 12723.00
494.1050, 12334.00
495.2890, 12159.00
496.4730, 12089.00
497.6570, 11943.00
498.8400, 11867.00
500.0240, 11631.00
501.2070, 11599.00
502.3910, 11606.00
503.5740, 11499.00
504.7570, 11741.00
505.9400, 11939.00
507.1220, 11985.00
508.3050, 11975.00
509.4870, 12298.00
510.6690, 12362.00
511.8510, 12555.00
513.0330, 12536.00
514.2140, 12812.00
515.3960, 12991.00
516.5770, 13146.00
517.7580, 13362.97
518.9390, 13605.00
520.1200, 13732.00
521.3010, 13828.00
522.4810, 14022.27
523.6610, 14383.00
524.8420, 14423.00
526.0220, 14684.00
527.2010, 14878.00
528.3810, 15050.00
529.5610, 15132.00
530.7400, 15299.36
531.9190, 15521.00
533.0980, 15520.00
534.2770, 15758.00
535.4560, 15810.00
536.6340, 16143.00
537.8120, 16375.00
538.9910, 16383.00
540.1690, 16806.00
541.3460, 16916.00
542.5240, 17054.00
543.7020, 17005.00
544.8790, 17142.00
546.0560, 17260.00
547.2330, 16879.00
548.4100, 17032.00
549.5870, 16917.00
550.7630, 16489.00
551.9400, 16233.00
553.1160, 16006.00
554.2920, 15591.00
555.4680, 15366.00
556.6440, 15248.00
557.8190, 15065.00
558.9950, 15080.00
560.1700, 14748.28
561.3450, 14264.00
562.5200, 14227.00
563.6950, 14161.00
564.8690, 14084.00
566.0440, 14087.00
567.2180, 13957.00
568.3920, 13544.59
569.5660, 13620.29
570.7400, 13602.15
571.9130, 13495.34
573.0870, 13033.73
574.2600, 13030.24
575.4330, 12843.21
576.6060, 12682.65
577.7790, 12669.90
578.9520, 12610.23
580.1240, 12506.28
581.2960, 12224.97
582.4690, 12172.58
583.6410, 12028.51
584.8120, 11880.78
585.9840, 11860.73
587.1560, 11605.22
588.3270, 11462.00
589.4980, 11524.00
590.6690, 11455.00
591.8400, 11675.00
593.0110, 11427.00
594.1810, 11587.00
595.3510, 11546.00
596.5220, 11540.00
597.6920, 11441.00
598.8610, 11435.00
600.0310, 11492.00
601.2010, 11458.00
602.3700, 11500.00
603.5390, 11596.00
604.7080, 11512.00
605.8770, 11638.00
607.0460, 11754.00
608.2140, 11642.00
609.3830, 11772.00
610.5510, 11939.00
611.7190, 12022.00
612.8870, 12178.00
614.0550, 12099.00
615.2220, 12369.00
616.3900, 12235.00
617.5570, 12482.00
618.7240, 12699.00
619.8910, 12652.00
621.0580, 12831.00
622.2240, 13033.00
623.3910, 13060.00
624.5570, 13221.52
625.7230, 13322.00
626.8890, 13322.00
628.0550, 13432.00
629.2200, 13473.58
630.3860, 13508.00
631.5510, 13554.00
632.7160, 13503.00
633.8810, 13475.00
635.0460, 13248.00
636.2100, 13212.00
637.3750, 12982.00
638.5390, 12775.00
639.7030, 12719.00
640.8670, 12670.00
642.0310, 12505.00
643.1950, 12405.84
644.3580, 12140.00
645.5210, 12095.00
646.6850, 11953.00
647.8480, 11758.00
649.0100, 11690.00
650.1730, 11577.00
651.3350, 11541.00
652.4980, 11442.00
653.6600, 11320.00
654.8220, 11198.00
655.9840, 11174.00
657.1450, 11145.00
658.3070, 10972.00
659.4680, 10899.00
660.6300, 10910.00
661.7910, 10888.00
662.9510, 10850.00
664.1120, 10610.00
665.2730, 10694.00
666.4330, 10583.00
667.5930, 10490.00
668.7530, 10487.00
669.9130, 10439.00
671.0730, 10530.00
672.2320, 10387.00
673.3920, 10479.00
674.5510, 10425.48
675.7100, 10379.00
676.8690, 10378.00
678.0280, 10275.00
679.1860, 10286.00
680.3450, 10212.00
681.5030, 10291.00
682.6610, 10317.00
683.8190, 10209.00
684.9770, 10095.00
686.1340, 10235.00
687.2920, 10091.00
688.4490, 10125.00
689.6060, 10135.00
690.7630, 10222.00
691.9200, 10169.00
693.0760, 10125.00
694.2330, 10190.00
695.3890, 10165.00
696.5450, 10064.00
697.7010, 10195.00
698.8570, 10160.00
700.0130, 10154.00
701.1680, 9990.000
702.3230, 10034.00
703.4780, 10045.00
704.6330, 10144.00
705.7880, 10014.00
706.9430, 9993.000
708.0970, 10022.00
709.2520, 10054.00
710.4060, 10172.00
711.5600, 10005.00
712.7140, 10078.00
713.8670, 10139.00
715.0210, 9934.000
716.1740, 10025.00
717.3270, 10082.00
718.4800, 10105.00
719.6330, 10071.00
720.7860, 10023.00
721.9380, 10039.00
723.0910, 10087.00
724.2430, 10026.00
725.3950, 10148.00
726.5470, 10023.00
727.6980, 10093.00
728.8500, 10082.30
730.0010, 10209.10
731.1530, 10289.02
732.3040, 10324.52
733.4550, 10182.67
734.6050, 10269.82
735.7560, 10265.20
736.9060, 10256.80
738.0560, 10376.19
739.2060, 10260.11
740.3560, 10377.47
741.5060, 10401.64
742.6560, 10468.46
743.8050, 10442.92
744.9540, 10445.90
746.1030, 10541.25
747.2520, 10341.00
748.4010, 10381.00
749.5500, 10577.00
750.6980, 10410.00
751.8460, 10550.00
752.9950, 10590.00
754.1420, 10418.00
755.2900, 10429.00
756.4380, 10547.00
757.5850, 10471.00
758.7330, 10413.00
759.8800, 10555.00
761.0270, 10436.00
762.1730, 10573.00
763.3200, 10545.00
764.4670, 10453.00
765.6130, 10537.00
766.7590, 10713.00
767.9050, 10621.00
769.0510, 10576.00
770.1960, 10604.14
771.3420, 10679.65
772.4870, 10728.33
773.6320, 10751.65
774.7770, 10673.62
775.9220, 10726.46
777.0670, 10726.85
778.2110, 10725.08
779.3560, 10796.34
780.5000, 10733.04
781.6440, 10721.00
782.7880, 10816.00
783.9320, 10694.00
785.0750, 10722.00
786.2180, 10782.00
787.3620, 10635.00
788.5050, 10718.00
789.6480, 10702.00
790.7900, 10606.00
791.9330, 10652.00
793.0750, 10715.00
794.2170, 10621.00
795.3590, 10675.00
796.5010, 10507.00
797.6430, 10705.00
798.7850, 10395.00
799.9260, 10576.00
801.0670, 10448.00
802.2080, 10411.12
803.3490, 10457.57
804.4900, 10457.11
805.6310, 10412.25
806.7710, 10190.10
807.9110, 10196.96
809.0510, 10112.04
810.1910, 10023.36
811.3310, 10279.00
812.4710, 10131.00
813.6100, 10021.00
814.7490, 10165.00
815.8880, 9973.000
817.0270, 10058.00
818.1660, 9968.000
819.3050, 10002.00
820.4430, 9955.000
821.5820, 9995.000
822.7200, 10007.00
823.8580, 9979.000
824.9950, 9823.000
826.1330, 9944.000
827.2710, 9857.000
828.4080, 9791.000
829.5450, 9817.000
830.6820, 9910.000
831.8190, 9846.652
832.9560, 9902.000
834.0920, 9840.000
835.2280, 9766.000
836.3650, 9826.000
837.5010, 9594.000
838.6360, 9547.000
839.7720, 9468.000
840.9080, 9547.000
842.0430, 9617.000
843.1780, 9503.000
844.3130, 9699.000
845.4480, 9567.000
846.5830, 9727.000
847.7170, 9673.000
848.8520, 9653.000
849.9860, 9604.000
851.1200, 9654.000
852.2540, 9724.000
853.3870, 9708.000
854.5210, 9776.000
855.6540, 9762.535
856.7880, 9680.000
857.9210, 9764.000
859.0540, 9798.000
860.1860, 9851.561
861.3190, 9768.000
862.4510, 9875.000
863.5840, 9826.000
864.7160, 9714.000
865.8480, 9789.000
866.9790, 9784.000
868.1110, 9849.000
869.2420, 9774.000
870.3740, 9817.000
871.5050, 9812.000
872.6360, 9846.000
873.7660, 9737.000
874.8970, 9818.000
876.0280, 9872.000
877.1580, 9774.000
878.2880, 9848.000
879.4180, 9860.000
880.5480, 9753.000
881.6770, 9869.000
882.8070, 9945.000
883.9360, 9892.000
885.0650, 9874.000
886.1940, 9965.000
887.3230, 10022.00
888.4520, 9981.000
889.5800, 10072.00
890.7090, 10134.00
891.8370, 9948.000
892.9650, 10124.00
894.0930, 10122.00
895.2200, 10038.00
896.3480, 10184.00
897.4750, 10251.00
898.6020, 10267.00
899.7290, 10303.44
900.8560, 10250.00
901.9830, 10296.00
903.1090, 10266.00
904.2360, 10299.00
905.3620, 10292.00
906.4880, 10399.00
907.6140, 10510.00
908.7400, 10538.00
909.8650, 10517.00
910.9900, 10553.00
912.1160, 10505.00
913.2410, 10529.00
914.3660, 10510.00
915.4900, 10706.00
916.6150, 10757.00
917.7390, 10813.00
918.8640, 10687.00
919.9880, 10733.00
921.1120, 10847.00
922.2350, 10652.00
923.3590, 10656.00
924.4820, 10726.60
925.6060, 10826.25
926.7290, 10899.06
927.8520, 10946.50
928.9740, 10892.55
930.0970, 10969.51
931.2190, 10993.99
932.3420, 11016.36
933.4640, 11111.70
934.5860, 11072.50
935.7080, 11166.69
936.8290, 11200.00
937.9510, 11302.92
939.0720, 11346.29
940.1930, 11412.00
941.3140, 11374.00
942.4350, 11421.00
943.5560, 11341.00
944.6760, 11407.00
945.7960, 11386.00
946.9170, 11411.72
948.0370, 11487.17
949.1560, 11535.79
950.2760, 11559.07
951.3960, 11481.00
952.5150, 11533.78
953.6340, 11534.12
954.7530, 11532.31
955.8720, 11603.51
956.9910, 11540.17
958.1090, 11610.20
959.2280, 11626.99
960.3460, 11668.15
961.4640, 11705.00
962.5820, 11796.00
963.6990, 11818.00
964.8170, 11712.66
965.9340, 11847.03
967.0510, 11938.47
968.1690, 11987.34
969.2850, 11974.59
970.4020, 11958.35
971.5190, 11892.75
972.6350, 12080.00
973.7510, 12038.00
974.8670, 12113.16
975.9830, 12031.00
977.0990, 12241.00
978.2150, 12171.00
979.3300, 12246.00
980.4450, 12241.00
981.5600, 12350.00
982.6750, 12388.00
983.7900, 12262.00
984.9050, 12218.00
986.0190, 12348.00
987.1340, 12184.00
988.2480, 12271.00
989.3620, 12182.00
990.4750, 12145.00
991.5890, 12177.00
992.7020, 12218.00
993.8160, 12100.76
994.9290, 12094.00
996.0420, 11922.00
997.1550, 11918.00
998.2670, 11925.00
999.3800, 11890.00
1000.492, 11717.00
1001.604, 11799.00
1002.716, 11679.00
1003.828, 11689.00
1004.940, 11713.00
1006.051, 11618.00
1007.163, 11712.00
1008.274, 11492.00
1009.385, 11661.00
1010.496, 11449.00
1011.606, 11557.00
1012.717, 11508.00
1013.827, 11510.00
1014.937, 11454.00
1016.047, 11464.00
1017.157, 11522.00
1018.267, 11525.00
1019.377, 11360.00
1020.486, 11489.00
1021.595, 11418.00
1022.704, 11399.00
1023.813, 11501.00
1024.922, 11462.00
1026.030, 11534.00
1027.139, 11506.00
1028.247, 11414.00
1029.355, 11483.00
1030.463, 11440.00
1031.571, 11413.00
1032.678, 11493.00
1033.786, 11445.00
1034.893, 11539.00
1036.000, 11379.00
1037.107, 11391.00
1038.214, 11458.00
1039.321, 11520.00
1040.427, 11505.00
1041.533, 11519.00
1042.639, 11550.96
1043.745, 11527.00
1044.851, 11554.00
1045.957, 11581.00
1047.062, 11595.79
1048.168, 11671.00
1049.273, 11627.00
1050.378, 11658.00
1051.482, 11611.00
1052.587, 11607.00
1053.692, 11710.00
1054.796, 11721.00
1055.900, 11734.21
1057.004, 11801.00
1058.108, 11752.00
1059.212, 11849.00
1060.315, 11889.00
1061.418, 12062.00
1062.522, 11978.00
1063.625, 11996.00
1064.728, 12169.00
1065.830, 12032.00
1066.933, 12033.00
1068.035, 12027.00
1069.137, 12002.00
1070.239, 12117.00
1071.341, 12040.00
1072.443, 12077.00
1073.545, 12030.00
1074.646, 12079.00
1075.747, 12146.00
1076.848, 12050.00
1077.949, 11981.00
1079.050, 11941.00
1080.150, 11816.00
1081.251, 11904.00
1082.351, 11786.00
1083.451, 11780.00
1084.551, 11617.00
1085.651, 11649.00
1086.750, 11623.00
1087.850, 11607.00
1088.949, 11572.72
1090.048, 11431.00
1091.147, 11489.00
1092.246, 11378.00
1093.345, 11370.00
1094.443, 11299.00
1095.541, 11337.00
1096.639, 11280.00
1097.737, 11504.00
1098.835, 11360.00
1099.933, 11381.00
1101.030, 11188.00
1102.128, 11333.00
1103.225, 11283.00
1104.322, 11509.00
1105.419, 11341.00
1106.515, 11355.00
1107.612, 11465.00
1108.708, 11602.00
1109.804, 11443.00
1110.900, 11465.00
1111.996, 11482.00
1113.092, 11458.01
1114.187, 11484.00
1115.283, 11512.00
1116.378, 11614.00
1117.473, 11640.00
1118.568, 11461.00
1119.662, 11562.00
1120.757, 11583.00
1121.851, 11774.00
1122.946, 11671.00
1124.040, 11613.00
1125.134, 11778.00
1126.227, 11580.00
1127.321, 11719.00
1128.414, 11728.00
1129.508, 11769.00
1130.601, 11756.00
1131.693, 11789.07
1132.786, 11902.00
1133.879, 11843.00
1134.971, 11830.00
1136.064, 11872.00
1137.156, 11760.00
1138.248, 11846.00
1139.339, 11927.00
1140.431, 11865.00
1141.522, 11807.00
1142.614, 11975.00
1143.705, 11895.00
1144.796, 11856.00
1145.887, 12019.00
1146.977, 11987.00
1148.068, 11921.00
1149.158, 12024.00
1150.248, 11973.00
1151.338, 12040.00
1152.428, 12076.00
1153.518, 12130.00
1154.607, 12143.11
1155.696, 12255.00
1156.785, 12124.00
1157.874, 12101.00
1158.963, 12020.00
1160.052, 12118.00
1161.141, 12107.00
1162.229, 12217.00
1163.317, 12145.00
1164.405, 12173.00
1165.493, 12043.00
1166.581, 12139.00
1167.668, 12094.00
1168.756, 12056.00
1169.843, 12176.00
1170.930, 12074.00
1172.017, 11994.00
1173.103, 12158.00
1174.190, 12166.00
1175.276, 12123.00
1176.363, 12082.00
1177.449, 11997.00
1178.535, 12029.00
1179.620, 11898.00
1180.706, 11814.00
1181.791, 11929.00
1182.877, 11907.00
1183.962, 11923.00
1185.047, 11679.00
1186.131, 11799.00
1187.216, 11716.00
1188.300, 11787.00
1189.385, 11575.00
1190.469, 11592.00
1191.553, 11678.00
1192.637, 11604.00
1193.720, 11620.00
1194.804, 11440.00
1195.887, 11421.00
1196.970, 11536.00
1198.053, 11382.00
1199.136, 11418.00
1200.219, 11521.00
1201.301, 11410.00
1202.383, 11408.00
1203.465, 11332.29
1204.547, 11239.87
1205.629, 11173.00
1206.711, 11058.00
1207.792, 11074.00
1208.874, 11009.00
1209.955, 11034.00
1211.036, 10981.00
1212.117, 10913.00
1213.198, 10897.00
1214.278, 10866.00
1215.359, 10828.05
1216.439, 10887.00
1217.519, 10778.00
1218.599, 10776.00
1219.678, 10770.00
1220.758, 10692.00
1221.837, 10701.00
1222.917, 10656.00
1223.996, 10593.00
1225.075, 10572.00
1226.153, 10508.00
1227.232, 10585.00
1228.310, 10528.00
1229.389, 10495.00
1230.467, 10633.00
1231.545, 10545.00
1232.622, 10489.00
1233.700, 10494.00
1234.777, 10378.00
1235.855, 10502.00
1236.932, 10451.00
1238.009, 10438.00
1239.086, 10377.00
1240.162, 10453.00
1241.239, 10288.00
1242.315, 10382.00
1243.391, 10277.00
1244.467, 10493.00
1245.543, 10335.00
1246.619, 10358.00
1247.694, 10419.00
1248.769, 10383.00
1249.844, 10312.00
1250.919, 10451.00
1251.994, 10277.00
1253.069, 10362.00
1254.144, 10441.00
1255.218, 10383.00
1256.292, 10306.00
1257.366, 10330.42
1258.440, 10321.98
1259.514, 10294.00
1260.587, 10380.00
1261.661, 10369.00
1262.734, 10384.00
1263.807, 10303.00
1264.880, 10324.00
1265.952, 10303.00
1267.025, 10349.00
1268.097, 10361.00
1269.170, 10249.45
1270.242, 10357.41
1271.314, 10418.46
1272.385, 10435.12
1273.457, 10274.42
1274.528, 10342.74
1275.600, 10319.27
1276.671, 10292.05
1277.742, 10392.60
1278.812, 10257.70
1279.883, 10356.22
1280.954, 10361.56
1282.024, 10409.55
1283.094, 10365.20
1284.164, 10349.36
1285.234, 10425.90
1286.303, 10451.29
1287.373, 10396.31
1288.442, 10447.01
1289.511, 10308.88
1290.580, 10336.45
1291.649, 10435.51
1292.718, 10385.16
1293.786, 10437.55
1294.855, 10450.81
1295.923, 10286.26
1296.991, 10430.94
1298.059, 10441.89
1299.126, 10315.52
1300.194, 10449.61
1301.261, 10342.17
1302.328, 10320.95
1303.395, 10364.59
1304.462, 10340.61
1305.529, 10423.26
1306.596, 10403.18
1307.662, 10373.93
1308.728, 10384.72
1309.794, 10282.02
1310.860, 10389.88
1311.926, 10353.91
1312.991, 10389.43
1314.057, 10441.17
1315.122, 10368.81
1316.187, 10427.82
1317.252, 10283.11
1318.317, 10308.86
1319.381, 10316.26
1320.446, 10432.61
1321.510, 10365.00
1322.574, 10365.00
1323.638, 10465.00
1324.702, 10369.00
1325.766, 10368.78
1326.829, 10299.00
1327.892, 10369.00
1328.956, 10332.00
1330.019, 10374.68
1331.081, 10409.00
1332.144, 10439.00
1333.206, 10439.00
1334.269, 10407.00
1335.331, 10325.00
1336.393, 10330.91
1337.455, 10341.00
1338.516, 10284.00
1339.578, 10406.00
1340.639, 10373.00
1341.701, 10428.00
1342.762, 10373.00
1343.822, 10293.00
1344.883, 10443.00
1345.944, 10351.00
1347.004, 10263.00
1348.064, 10304.00
1349.124, 10323.00
1350.184, 10347.00
1351.244, 10496.00
1352.304, 10404.00
1353.363, 10480.00
1354.422, 10462.69
1355.481, 10405.00
1356.540, 10414.00
1357.599, 10402.00
1358.657, 10386.00
1359.716, 10433.00
1360.774, 10350.00
1361.832, 10364.00
1362.890, 10451.00
1363.948, 10432.00
1365.006, 10459.00
1366.063, 10383.00
1367.120, 10405.00
1368.178, 10328.00
1369.234, 10346.00
1370.291, 10408.00
1371.348, 10476.00
1372.404, 10493.00
1373.461, 10500.65
1374.517, 10462.00
1375.573, 10445.00
1376.629, 10461.00
1377.684, 10389.00
1378.740, 10498.00
1379.795, 10444.00
1380.850, 10331.00
1381.905, 10428.00
1382.960, 10346.00
1384.015, 10369.00
1385.070, 10462.00
1386.124, 10407.00
1387.178, 10458.38
1388.232, 10429.00
1389.286, 10491.00
1390.340, 10439.00
1391.393, 10456.63
1392.447, 10493.00
1393.500, 10397.00
1394.553, 10388.00
1395.606, 10427.00
1396.659, 10373.00
1397.711, 10430.37
1398.764, 10357.00
1399.816, 10487.00
1400.868, 10507.00
1401.920, 10478.00
1402.972, 10429.00
1404.023, 10524.00
1405.075, 10501.00
1406.126, 10479.11
1407.177, 10516.00
1408.228, 10431.00
1409.279, 10417.00
1410.330, 10430.00
1411.380, 10442.00
1412.431, 10550.00
1413.481, 10372.00
1414.531, 10477.00
1415.580, 10451.00
1416.630, 10363.00
1417.680, 10439.00
1418.729, 10453.00
1419.778, 10401.00
1420.827, 10454.00
1421.876, 10441.00
1422.925, 10527.00
1423.973, 10483.00
1425.022, 10494.00
1426.070, 10521.00
1427.118, 10388.05
1428.166, 10497.76
1429.214, 10560.55
1430.261, 10578.95
1431.309, 10420.00
1432.356, 10490.06
1433.403, 10468.34
1434.450, 10442.86
1435.497, 10545.15
1436.543, 10411.99
1437.590, 10512.25
1438.636, 10519.34
1439.682, 10569.07
1440.728, 10526.45
1441.774, 10512.36
1442.819, 10590.64
1443.865, 10617.78
1444.910, 10509.00
1445.955, 10503.00
1447.000, 10485.00
1448.045, 10518.00
1449.090, 10515.00
1450.134, 10467.00
1451.178, 10647.00
1452.223, 10587.00
1453.267, 10497.00
1454.310, 10673.00
1455.354, 10602.00
1456.398, 10507.00
1457.441, 10606.00
1458.484, 10505.00
1459.527, 10418.00
1460.570, 10661.00
1461.613, 10534.00
1462.655, 10605.00
1463.698, 10521.00
1464.740, 10451.00
1465.782, 10509.00
1466.824, 10679.00
1467.866, 10559.00
1468.907, 10546.00
1469.948, 10709.00
1470.990, 10477.00
1472.031, 10665.00
1473.072, 10451.00
1474.112, 10636.00
1475.153, 10648.00
1476.194, 10510.00
1477.234, 10478.00
1478.274, 10568.00
1479.314, 10617.00
1480.354, 10660.00
1481.393, 10700.00
1482.433, 10519.00
1483.472, 10705.00
1484.511, 10584.00
1485.550, 10671.00
1486.589, 10752.00
1487.628, 10669.00
1488.666, 10574.00
1489.704, 10717.00
1490.743, 10578.00
1491.781, 10622.00
1492.819, 10675.00
1493.856, 10821.00
1494.894, 10603.00
1495.931, 10829.00
1496.968, 10809.00
1498.005, 10685.00
1499.042, 10744.00
1500.079, 10601.00
1501.115, 10663.00
1502.152, 10793.00
1503.188, 10697.00
1504.224, 10675.00
1505.260, 10853.00
1506.296, 10745.00
1507.331, 10741.00
1508.367, 10887.00
1509.402, 10788.00
1510.437, 10721.00
1511.472, 10709.00
1512.507, 10774.00
1513.541, 10735.00
1514.576, 10861.00
1515.610, 10705.00
1516.644, 10852.00
1517.678, 10862.00
1518.712, 10882.00
1519.746, 10930.22
1520.779, 10736.00
1521.813, 10938.00
1522.846, 10795.00
1523.879, 10755.00
1524.912, 10923.00
1525.944, 10859.00
1526.977, 10792.00
1528.009, 10723.00
1529.041, 10762.00
1530.073, 10847.00
1531.105, 10714.00
1532.137, 10946.00
1533.168, 10841.00
1534.200, 10900.00
1535.231, 10852.00
1536.262, 10878.00
1537.293, 10835.00
1538.324, 10806.00
1539.354, 10851.00
1540.385, 10840.64
1541.415, 10897.00
1542.445, 10899.00
1543.475, 10898.00
1544.505, 10947.00
1545.534, 10784.76
1546.564, 10891.71
1547.593, 10951.75
1548.622, 10967.40
1549.651, 10805.69
1550.680, 10873.00
1551.708, 10848.53
1552.737, 10820.29
1553.765, 10919.83
1554.793, 10783.92
1555.821, 10881.44
1556.849, 10885.77
1557.877, 10932.75
1558.904, 10887.39
1559.932, 10870.55
1560.959, 10946.08
1561.986, 10970.46
1563.013, 10914.47
1564.039, 10964.16
1565.066, 10825.02
1566.092, 10851.59
1567.119, 10949.64
1568.145, 10908.00
1569.170, 10971.00
1570.196, 10847.00
1571.222, 10784.00
1572.247, 10907.00
1573.272, 10798.00
1574.297, 10854.00
1575.322, 10882.00
1576.347, 10898.00
1577.372, 10930.00
##END=



