##NAMES=Osumilite
##RRUFFID=R060385
##IDEAL CHEMISTRY=KFe^2+^_2_(Al_5_Si_10_)O_30_
##LOCALITY=Funtanafigu Quarry, Monte Arci, near Oristano, Sardinia
##OWNER=RRUFF
##SOURCE=Michael Scott
##DESCRIPTION=Black tabular distorted hexagonal crystals associated with colorless tridymite
##STATUS=The identification of this mineral is confirmed by single-crystal X-ray diffraction and chemical analysis.
##URL=rruff.info/R060385
##MEASURED CHEMISTRY=(K_0.72_Na_0.15_Ca_0.01_)_Σ=0.88_(Fe^2+^_1.07_Mg_0.93_Mn_0.06_)_Σ=2.06_(Al_2.69_Fe^3+^_0.31_)_Σ=3_(Si_10.28_Al_1.72_)_Σ=12_O_30_
##PIN_ID=M01656
##ORIENTATION=Laser parallel to a* (1 0 0). Fiducial mark perpendicular to laser is parallel to c [0 0 1]
152.4050, 9257.000
153.6360, 9301.000
154.8660, 9384.000
156.0960, 9674.000
157.3260, 9527.000
158.5560, 9674.000
159.7850, 9679.000
161.0150, 9885.000
162.2440, 9875.000
163.4730, 9977.000
164.7020, 9749.000
165.9310, 9710.000
167.1590, 9865.000
168.3880, 9873.000
169.6160, 9962.000
170.8440, 9940.000
172.0720, 9928.000
173.3000, 9959.000
174.5280, 9961.000
175.7550, 9981.000
176.9820, 9952.646
178.2100, 9964.000
179.4370, 9884.000
180.6630, 9915.000
181.8900, 9890.000
183.1170, 10119.00
184.3430, 10258.00
185.5690, 10086.00
186.7950, 10031.00
188.0210, 10198.00
189.2470, 10363.00
190.4720, 10285.00
191.6970, 10402.00
192.9230, 10503.00
194.1480, 10379.00
195.3730, 10414.00
196.5970, 10400.00
197.8220, 10452.00
199.0460, 10469.00
200.2700, 10441.09
201.4940, 10450.69
202.7180, 10353.00
203.9420, 10355.00
205.1660, 10249.00
206.3890, 10073.00
207.6120, 10084.00
208.8350, 10016.00
210.0580, 10066.00
211.2810, 9975.000
212.5040, 10130.00
213.7260, 10171.00
214.9480, 10099.00
216.1700, 10271.00
217.3920, 10118.00
218.6140, 10131.00
219.8360, 10242.00
221.0570, 10272.00
222.2790, 10095.00
223.5000, 10060.00
224.7210, 10038.00
225.9410, 10025.00
227.1620, 9980.000
228.3820, 10070.00
229.6030, 9957.000
230.8230, 10066.00
232.0430, 10017.00
233.2630, 10157.00
234.4820, 10098.00
235.7020, 10228.00
236.9210, 10313.00
238.1400, 10073.00
239.3590, 10202.00
240.5780, 10148.00
241.7970, 10211.00
243.0150, 10143.00
244.2340, 10241.00
245.4520, 10121.00
246.6700, 10270.00
247.8880, 10150.00
249.1060, 10179.00
250.3230, 10322.00
251.5400, 10394.00
252.7580, 10452.00
253.9750, 10197.00
255.1920, 10253.00
256.4080, 10180.00
257.6250, 10349.00
258.8410, 10243.00
260.0580, 10363.00
261.2740, 10500.00
262.4900, 10568.00
263.7050, 10422.00
264.9210, 10754.00
266.1360, 10687.00
267.3520, 10629.00
268.5670, 10987.00
269.7820, 10835.00
270.9960, 10759.00
272.2110, 10938.00
273.4250, 11028.00
274.6400, 11113.00
275.8540, 11085.00
277.0680, 11177.00
278.2810, 11033.00
279.4950, 11132.00
280.7090, 10964.00
281.9220, 10968.00
283.1350, 10874.00
284.3480, 10786.00
285.5610, 10732.15
286.7730, 10553.00
287.9860, 10558.00
289.1980, 10464.00
290.4100, 10342.00
291.6220, 10381.00
292.8340, 10344.00
294.0460, 10234.00
295.2570, 10227.00
296.4690, 10220.00
297.6800, 10199.00
298.8910, 10054.00
300.1020, 10117.00
301.3120, 10092.00
302.5230, 10186.00
303.7330, 10189.00
304.9440, 10288.00
306.1540, 10251.67
307.3630, 10349.00
308.5730, 10202.00
309.7830, 10160.00
310.9920, 10183.00
312.2010, 10280.00
313.4100, 10158.00
314.6190, 10117.00
315.8280, 10283.00
317.0370, 10171.00
318.2450, 10207.00
319.4530, 10283.00
320.6610, 10418.00
321.8690, 10295.00
323.0770, 10328.00
324.2850, 10234.00
325.4920, 10092.00
326.6990, 10206.00
327.9060, 10128.00
329.1130, 10311.00
330.3200, 10317.00
331.5270, 10285.33
332.7330, 10279.00
333.9390, 10198.00
335.1450, 10324.00
336.3510, 10267.00
337.5570, 10300.00
338.7630, 10427.00
339.9680, 10361.00
341.1740, 10535.00
342.3790, 10401.00
343.5840, 10446.00
344.7890, 10536.00
345.9930, 10533.00
347.1980, 10336.00
348.4020, 10517.00
349.6060, 10387.00
350.8100, 10539.00
352.0140, 10481.00
353.2180, 10506.00
354.4210, 10421.00
355.6250, 10386.00
356.8280, 10479.00
358.0310, 10581.00
359.2340, 10529.00
360.4360, 10672.00
361.6390, 10605.00
362.8410, 10710.00
364.0430, 10804.00
365.2450, 10854.00
366.4470, 10799.00
367.6490, 10871.00
368.8510, 10856.00
370.0520, 11106.00
371.2530, 11042.00
372.4540, 11121.00
373.6550, 11135.00
374.8560, 11122.15
376.0560, 11184.00
377.2570, 11134.00
378.4570, 11157.00
379.6570, 11194.00
380.8570, 11175.00
382.0570, 11050.00
383.2560, 11023.00
384.4560, 11173.00
385.6550, 11076.00
386.8540, 11128.00
388.0530, 11061.00
389.2520, 11001.00
390.4510, 11082.00
391.6490, 10970.00
392.8470, 10947.00
394.0450, 11002.00
395.2430, 11024.00
396.4410, 11130.00
397.6390, 11205.00
398.8360, 11168.00
400.0340, 11042.00
401.2310, 11080.00
402.4280, 10911.00
403.6250, 10974.00
404.8210, 11134.00
406.0180, 10891.00
407.2140, 11066.00
408.4100, 11127.00
409.6060, 11152.00
410.8020, 11142.00
411.9980, 11109.00
413.1930, 11158.00
414.3890, 11196.00
415.5840, 11270.00
416.7790, 11234.00
417.9740, 11159.00
419.1680, 11156.00
420.3630, 11277.00
421.5570, 11329.00
422.7510, 11339.00
423.9450, 11352.00
425.1390, 11266.00
426.3330, 11280.00
427.5270, 11264.00
428.7200, 11330.00
429.9130, 11330.00
431.1060, 11390.00
432.2990, 11342.00
433.4920, 11457.00
434.6840, 11453.00
435.8770, 11407.00
437.0690, 11580.00
438.2610, 11564.00
439.4530, 11602.00
440.6450, 11606.00
441.8360, 11581.00
443.0280, 11602.00
444.2190, 11678.00
445.4100, 11781.00
446.6010, 11751.00
447.7920, 11906.00
448.9820, 11844.00
450.1730, 11855.00
451.3630, 11955.00
452.5530, 12022.00
453.7430, 12150.00
454.9330, 12139.00
456.1230, 12392.00
457.3120, 12409.00
458.5010, 12598.00
459.6910, 12699.00
460.8800, 12780.00
462.0680, 12888.00
463.2570, 13134.00
464.4460, 13160.00
465.6340, 13234.00
466.8220, 13550.00
468.0100, 13712.00
469.1980, 13742.00
470.3860, 13947.00
471.5730, 14172.00
472.7600, 14451.00
473.9480, 14317.00
475.1350, 14209.00
476.3210, 14154.00
477.5080, 14035.00
478.6950, 13961.00
479.8810, 13833.00
481.0670, 13569.00
482.2530, 13291.00
483.4390, 13104.00
484.6250, 13008.00
485.8100, 12697.00
486.9960, 12600.00
488.1810, 12576.00
489.3660, 12310.00
490.5510, 12267.00
491.7360, 12324.00
492.9200, 12171.00
494.1050, 12274.00
495.2890, 12274.00
496.4730, 12148.00
497.6570, 12173.00
498.8400, 12154.00
500.0240, 12076.00
501.2070, 12285.00
502.3910, 12178.00
503.5740, 12115.00
504.7570, 12284.00
505.9400, 12229.00
507.1220, 12166.00
508.3050, 12338.00
509.4870, 12391.00
510.6690, 12377.00
511.8510, 12328.00
513.0330, 12516.00
514.2140, 12553.00
515.3960, 12661.00
516.5770, 12497.00
517.7580, 12772.00
518.9390, 12695.00
520.1200, 12864.00
521.3010, 12930.00
522.4810, 12862.00
523.6610, 12817.00
524.8420, 12906.00
526.0220, 13071.00
527.2010, 13033.00
528.3810, 13245.00
529.5610, 12998.00
530.7400, 13279.00
531.9190, 13218.00
533.0980, 13248.00
534.2770, 13345.00
535.4560, 13312.00
536.6340, 13267.00
537.8120, 13456.00
538.9910, 13569.00
540.1690, 13486.00
541.3460, 13513.00
542.5240, 13684.00
543.7020, 13789.00
544.8790, 13657.00
546.0560, 13672.00
547.2330, 13654.27
548.4100, 13683.00
549.5870, 13605.00
550.7630, 13575.00
551.9400, 13564.00
553.1160, 13459.00
554.2920, 13456.00
555.4680, 13492.00
556.6440, 13412.00
557.8190, 13320.00
558.9950, 13350.00
560.1700, 13288.00
561.3450, 13316.00
562.5200, 13182.00
563.6950, 13285.00
564.8690, 13332.00
566.0440, 13262.00
567.2180, 13321.00
568.3920, 13364.00
569.5660, 13340.00
570.7400, 13325.00
571.9130, 13344.00
573.0870, 13298.00
574.2600, 13265.00
575.4330, 13232.00
576.6060, 13145.00
577.7790, 13133.75
578.9520, 13060.00
580.1240, 13041.00
581.2960, 13037.00
582.4690, 12916.00
583.6410, 12988.00
584.8120, 12869.00
585.9840, 12872.00
587.1560, 12710.00
588.3270, 12808.00
589.4980, 12691.00
590.6690, 12798.00
591.8400, 12832.00
593.0110, 12856.00
594.1810, 12874.00
595.3510, 12973.00
596.5220, 12960.00
597.6920, 12993.00
598.8610, 12922.00
600.0310, 13004.00
601.2010, 12821.00
602.3700, 12967.00
603.5390, 12955.00
604.7080, 12947.00
605.8770, 13007.00
607.0460, 13036.00
608.2140, 13066.00
609.3830, 13054.00
610.5510, 13118.00
611.7190, 12996.00
612.8870, 13194.00
614.0550, 13244.00
615.2220, 13304.00
616.3900, 13230.00
617.5570, 13323.00
618.7240, 13153.00
619.8910, 13348.00
621.0580, 13426.00
622.2240, 13373.00
623.3910, 13564.00
624.5570, 13491.00
625.7230, 13566.00
626.8890, 13453.00
628.0550, 13461.00
629.2200, 13604.00
630.3860, 13570.00
631.5510, 13594.00
632.7160, 13596.00
633.8810, 13543.00
635.0460, 13632.00
636.2100, 13666.00
637.3750, 13619.00
638.5390, 13532.00
639.7030, 13466.00
640.8670, 13348.00
642.0310, 13396.00
643.1950, 13404.00
644.3580, 13292.00
645.5210, 13479.00
646.6850, 13335.00
647.8480, 13466.00
649.0100, 13416.00
650.1730, 13408.00
651.3350, 13331.00
652.4980, 13318.65
653.6600, 13371.00
654.8220, 13261.00
655.9840, 13292.00
657.1450, 13249.00
658.3070, 13241.00
659.4680, 13364.00
660.6300, 13262.00
661.7910, 13179.00
662.9510, 13311.00
664.1120, 13424.00
665.2730, 13369.00
666.4330, 13328.00
667.5930, 13254.00
668.7530, 13313.00
669.9130, 13440.00
671.0730, 13405.00
672.2320, 13388.00
673.3920, 13431.00
674.5510, 13420.00
675.7100, 13352.00
676.8690, 13345.00
678.0280, 13431.00
679.1860, 13439.00
680.3450, 13483.00
681.5030, 13460.00
682.6610, 13486.75
683.8190, 13394.00
684.9770, 13502.00
686.1340, 13480.00
687.2920, 13467.00
688.4490, 13591.00
689.6060, 13460.00
690.7630, 13520.00
691.9200, 13508.00
693.0760, 13403.00
694.2330, 13459.46
695.3890, 13451.00
696.5450, 13398.00
697.7010, 13560.00
698.8570, 13382.00
700.0130, 13531.00
701.1680, 13495.00
702.3230, 13503.00
703.4780, 13576.00
704.6330, 13564.00
705.7880, 13593.00
706.9430, 13513.00
708.0970, 13594.00
709.2520, 13630.00
710.4060, 13761.00
711.5600, 13521.00
712.7140, 13794.00
713.8670, 13524.00
715.0210, 13775.00
716.1740, 13791.00
717.3270, 13774.00
718.4800, 13706.00
719.6330, 13671.00
720.7860, 13708.00
721.9380, 13734.00
723.0910, 13733.30
724.2430, 13762.00
725.3950, 13773.00
726.5470, 13777.00
727.6980, 13819.00
728.8500, 13920.00
730.0010, 13967.00
731.1530, 13981.00
732.3040, 13860.00
733.4550, 13919.00
734.6050, 13893.00
735.7560, 13916.00
736.9060, 13965.00
738.0560, 14050.00
739.2060, 13991.00
740.3560, 14075.00
741.5060, 14135.00
742.6560, 14077.00
743.8050, 14057.00
744.9540, 14028.00
746.1030, 14012.61
747.2520, 14102.00
748.4010, 14033.00
749.5500, 14096.00
750.6980, 14179.00
751.8460, 14191.00
752.9950, 14275.00
754.1420, 14098.00
755.2900, 13974.00
756.4380, 14054.07
757.5850, 14270.00
758.7330, 14135.00
759.8800, 14191.00
761.0270, 14212.00
762.1730, 14236.00
763.3200, 14375.00
764.4670, 14379.00
765.6130, 14246.00
766.7590, 14335.00
767.9050, 14390.00
769.0510, 14267.00
770.1960, 14425.00
771.3420, 14454.00
772.4870, 14453.00
773.6320, 14486.00
774.7770, 14482.79
775.9220, 14436.00
777.0670, 14471.00
778.2110, 14462.00
779.3560, 14434.00
780.5000, 14434.00
781.6440, 14458.83
782.7880, 14489.00
783.9320, 14486.00
785.0750, 14551.00
786.2180, 14473.00
787.3620, 14517.00
788.5050, 14559.00
789.6480, 14596.00
790.7900, 14629.00
791.9330, 14623.00
793.0750, 14548.00
794.2170, 14718.00
795.3590, 14671.00
796.5010, 14547.00
797.6430, 14688.00
798.7850, 14541.00
799.9260, 14586.00
801.0670, 14588.00
802.2080, 14620.00
803.3490, 14654.00
804.4900, 14597.00
805.6310, 14719.00
806.7710, 14689.00
807.9110, 14739.00
809.0510, 14627.00
810.1910, 14824.00
811.3310, 14588.00
812.4710, 14607.00
813.6100, 14610.00
814.7490, 14785.00
815.8880, 14689.00
817.0270, 14649.00
818.1660, 14843.00
819.3050, 14823.00
820.4430, 14648.00
821.5820, 14732.00
822.7200, 14923.00
823.8580, 14792.00
824.9950, 14676.00
826.1330, 14758.00
827.2710, 14654.00
828.4080, 14819.00
829.5450, 14906.00
830.6820, 14768.00
831.8190, 14734.00
832.9560, 14859.00
834.0920, 15005.00
835.2280, 14723.00
836.3650, 14912.00
837.5010, 14847.00
838.6360, 14749.00
839.7720, 14826.00
840.9080, 14810.00
842.0430, 14792.00
843.1780, 14921.00
844.3130, 14886.00
845.4480, 14961.00
846.5830, 14882.00
847.7170, 15037.00
848.8520, 14982.00
849.9860, 14948.00
851.1200, 15055.00
852.2540, 15075.00
853.3870, 15021.00
854.5210, 15232.00
855.6540, 14857.00
856.7880, 15146.00
857.9210, 15004.00
859.0540, 15121.00
860.1860, 15155.00
861.3190, 15029.00
862.4510, 15082.00
863.5840, 15032.00
864.7160, 15111.00
865.8480, 15146.00
866.9790, 15176.00
868.1110, 15197.00
869.2420, 15152.00
870.3740, 15284.00
871.5050, 15250.00
872.6360, 15262.00
873.7660, 15413.00
874.8970, 15289.00
876.0280, 15359.00
877.1580, 15368.00
878.2880, 15245.00
879.4180, 15316.00
880.5480, 15476.00
881.6770, 15407.00
882.8070, 15382.00
883.9360, 15453.00
885.0650, 15469.00
886.1940, 15363.00
887.3230, 15675.00
888.4520, 15488.00
889.5800, 15464.00
890.7090, 15568.00
891.8370, 15507.00
892.9650, 15581.00
894.0930, 15506.00
895.2200, 15722.00
896.3480, 15450.00
897.4750, 15644.00
898.6020, 15731.00
899.7290, 15711.00
900.8560, 15550.00
901.9830, 15610.00
903.1090, 15822.00
904.2360, 15683.00
905.3620, 15753.00
906.4880, 15744.00
907.6140, 15799.00
908.7400, 15766.00
909.8650, 15962.00
910.9900, 15706.00
912.1160, 15733.00
913.2410, 15906.00
914.3660, 15929.00
915.4900, 15739.00
916.6150, 15946.00
917.7390, 15880.00
918.8640, 15991.00
919.9880, 15978.00
921.1120, 15880.00
922.2350, 16063.00
923.3590, 16087.00
924.4820, 15998.00
925.6060, 15884.00
926.7290, 16199.00
927.8520, 16218.00
928.9740, 16117.00
930.0970, 16112.00
931.2190, 16163.00
932.3420, 16280.00
933.4640, 16123.00
934.5860, 16223.00
935.7080, 16198.00
936.8290, 16046.00
937.9510, 16144.00
939.0720, 16468.00
940.1930, 16406.00
941.3140, 16386.00
942.4350, 16321.00
943.5560, 16296.00
944.6760, 16238.00
945.7960, 16406.00
946.9170, 16380.00
948.0370, 16465.00
949.1560, 16363.00
950.2760, 16596.00
951.3960, 16339.00
952.5150, 16484.00
953.6340, 16582.00
954.7530, 16490.00
955.8720, 16589.00
956.9910, 16621.00
958.1090, 16505.00
959.2280, 16433.00
960.3460, 16484.00
961.4640, 16542.00
962.5820, 16652.00
963.6990, 16722.00
964.8170, 16749.75
965.9340, 16811.00
967.0510, 16780.00
968.1690, 16727.00
969.2850, 16715.60
970.4020, 16624.00
971.5190, 16789.00
972.6350, 16775.00
973.7510, 16949.00
974.8670, 16673.00
975.9830, 16837.00
977.0990, 16936.00
978.2150, 16897.00
979.3300, 17157.00
980.4450, 17068.00
981.5600, 17059.00
982.6750, 16922.00
983.7900, 17014.00
984.9050, 17042.00
986.0190, 16967.00
987.1340, 17142.00
988.2480, 17031.00
989.3620, 17090.00
990.4750, 17099.00
991.5890, 17008.00
992.7020, 17061.00
993.8160, 17067.00
994.9290, 17063.00
996.0420, 17003.00
997.1550, 17150.00
998.2670, 17055.00
999.3800, 17005.00
1000.492, 17137.00
1001.604, 16999.00
1002.716, 17206.00
1003.828, 17077.00
1004.940, 17057.00
1006.051, 17247.00
1007.163, 17209.00
1008.274, 17098.00
1009.385, 17090.00
1010.496, 17101.00
1011.606, 17066.80
1012.717, 17066.69
1013.827, 17099.00
1014.937, 17085.00
1016.047, 17152.00
1017.157, 17258.00
1018.267, 17237.00
1019.377, 17396.00
1020.486, 17281.00
1021.595, 17109.00
1022.704, 17341.00
1023.813, 17290.00
1024.922, 17287.00
1026.030, 17341.00
1027.139, 17270.00
1028.247, 17375.00
1029.355, 17405.00
1030.463, 17333.00
1031.571, 17358.00
1032.678, 17445.00
1033.786, 17528.00
1034.893, 17425.00
1036.000, 17372.00
1037.107, 17557.00
1038.214, 17378.00
1039.321, 17494.00
1040.427, 17508.00
1041.533, 17456.00
1042.639, 17536.00
1043.745, 17467.00
1044.851, 17585.00
1045.957, 17641.00
1047.062, 17580.00
1048.168, 17630.00
1049.273, 17588.00
1050.378, 17587.00
1051.482, 17826.00
1052.587, 17698.00
1053.692, 17817.00
1054.796, 17664.00
1055.900, 17770.00
1057.004, 17611.00
1058.108, 17703.00
1059.212, 17913.00
1060.315, 17920.00
1061.418, 17930.00
1062.522, 17895.00
1063.625, 17941.00
1064.728, 17869.00
1065.830, 18043.00
1066.933, 18074.00
1068.035, 17858.00
1069.137, 17928.00
1070.239, 18122.00
1071.341, 18155.00
1072.443, 18052.00
1073.545, 18099.02
1074.646, 18057.00
1075.747, 17998.00
1076.848, 18173.00
1077.949, 18162.00
1079.050, 18153.00
1080.150, 18052.00
1081.251, 18048.00
1082.351, 18008.56
1083.451, 18155.00
1084.551, 18006.00
1085.651, 18070.00
1086.750, 18184.00
1087.850, 17994.00
1088.949, 18140.00
1090.048, 18030.00
1091.147, 18108.00
1092.246, 18116.00
1093.345, 18113.00
1094.443, 18126.00
1095.541, 18044.00
1096.639, 18212.00
1097.737, 18277.00
1098.835, 18219.00
1099.933, 18292.00
1101.030, 18320.00
1102.128, 18328.00
1103.225, 18294.00
1104.322, 18280.00
1105.419, 18308.15
1106.515, 18298.00
1107.612, 18400.00
1108.708, 18332.00
1109.804, 18440.36
1110.900, 18542.00
1111.996, 18451.00
1113.092, 18452.00
1114.187, 18399.00
1115.283, 18713.00
1116.378, 18443.00
1117.473, 18563.00
1118.568, 18520.00
1119.662, 18419.00
1120.757, 18637.00
1121.851, 18486.00
1122.946, 18869.00
1124.040, 18567.00
1125.134, 18745.00
1126.227, 18687.00
1127.321, 18685.00
1128.414, 18585.00
1129.508, 18600.00
1130.601, 18740.00
1131.693, 18664.00
1132.786, 18820.00
1133.879, 18778.00
1134.971, 18717.00
1136.064, 18885.00
1137.156, 18748.00
1138.248, 18752.00
1139.339, 18984.00
1140.431, 18865.00
1141.522, 18855.00
1142.614, 18950.00
1143.705, 18882.00
1144.796, 18925.20
1145.887, 18815.00
1146.977, 18935.00
1148.068, 18895.00
1149.158, 18868.00
1150.248, 19021.00
1151.338, 19261.00
1152.428, 19119.00
1153.518, 19198.00
1154.607, 18982.00
1155.696, 19070.00
1156.785, 19254.00
1157.874, 19121.00
1158.963, 19033.00
1160.052, 19113.00
1161.141, 19319.00
1162.229, 19193.00
1163.317, 19134.00
1164.405, 19314.00
1165.493, 19245.00
1166.581, 19370.00
1167.668, 19262.00
1168.756, 19255.00
1169.843, 19253.00
1170.930, 19147.00
1172.017, 19265.00
1173.103, 19096.00
1174.190, 19309.00
1175.276, 19484.00
1176.363, 19539.00
1177.449, 19343.00
1178.535, 19400.00
1179.620, 19255.00
1180.706, 19257.00
1181.791, 19272.00
1182.877, 19294.00
1183.962, 19237.00
1185.047, 19226.00
1186.131, 19391.00
1187.216, 19398.00
1188.300, 19293.00
1189.385, 19442.00
1190.469, 19413.00
1191.553, 19398.00
1192.637, 19520.00
1193.720, 19580.00
1194.804, 19596.82
1195.887, 19625.00
1196.970, 19553.00
1198.053, 19628.00
1199.136, 19404.00
1200.219, 19418.00
1201.301, 19480.00
1202.383, 19508.00
1203.465, 19542.00
1204.547, 19578.00
1205.629, 19697.00
1206.711, 19610.00
1207.792, 19606.00
1208.874, 19687.00
1209.955, 19324.00
1211.036, 19607.00
1212.117, 19681.00
1213.198, 19461.00
1214.278, 19677.00
1215.359, 19547.00
1216.439, 19637.00
1217.519, 19790.00
1218.599, 19704.00
1219.678, 19742.00
1220.758, 19705.00
1221.837, 19732.00
1222.917, 19564.00
1223.996, 19607.00
1225.075, 19472.00
1226.153, 19635.00
1227.232, 19875.00
1228.310, 19802.00
1229.389, 19803.00
1230.467, 19804.00
1231.545, 19812.00
1232.622, 19807.00
1233.700, 19948.00
1234.777, 19857.00
1235.855, 19808.00
1236.932, 19901.00
1238.009, 19720.00
1239.086, 19913.00
1240.162, 19837.00
1241.239, 19961.00
1242.315, 19741.00
1243.391, 19986.00
1244.467, 19736.00
1245.543, 19915.00
1246.619, 20082.00
1247.694, 20067.00
1248.769, 20051.00
1249.844, 19899.00
1250.919, 19861.00
1251.994, 19856.00
1253.069, 20036.00
1254.144, 20040.00
1255.218, 20065.00
1256.292, 20118.00
1257.366, 20038.00
1258.440, 20139.00
1259.514, 20260.00
1260.587, 20097.00
1261.661, 20144.00
1262.734, 20043.00
1263.807, 20261.00
1264.880, 20030.00
1265.952, 20202.00
1267.025, 20331.00
1268.097, 20065.00
1269.170, 20218.00
1270.242, 20230.00
1271.314, 20310.00
1272.385, 20204.00
1273.457, 20232.00
1274.528, 20448.00
1275.600, 20332.00
1276.671, 20259.00
1277.742, 20457.00
1278.812, 20334.00
1279.883, 20350.00
1280.954, 20473.00
1282.024, 20493.00
1283.094, 20477.45
1284.164, 20515.00
1285.234, 20447.00
1286.303, 20506.00
1287.373, 20585.63
1288.442, 20547.16
1289.511, 20551.00
1290.580, 20578.00
1291.649, 20561.39
1292.718, 20570.93
1293.786, 20598.00
1294.855, 20533.00
1295.923, 20609.00
1296.991, 20520.00
1298.059, 20695.00
1299.126, 20500.00
1300.194, 20673.00
1301.261, 20531.00
1302.328, 20604.00
1303.395, 20521.00
1304.462, 20770.00
1305.529, 20540.00
1306.596, 20601.00
1307.662, 20508.00
1308.728, 20570.00
1309.794, 20614.00
1310.860, 20833.00
1311.926, 20805.00
1312.991, 20818.00
1314.057, 20669.00
1315.122, 20743.00
1316.187, 20885.00
1317.252, 20836.00
1318.317, 20893.00
1319.381, 20882.00
1320.446, 20881.00
1321.510, 20940.00
1322.574, 20869.00
1323.638, 20826.00
1324.702, 20956.00
1325.766, 21055.00
1326.829, 21009.00
1327.892, 21062.00
1328.956, 20967.00
1330.019, 20972.00
1331.081, 21001.00
1332.144, 20980.14
1333.206, 21118.00
1334.269, 21017.00
1335.331, 21155.00
1336.393, 21185.00
1337.455, 20975.00
1338.516, 21302.00
1339.578, 21150.00
1340.639, 21192.00
1341.701, 21182.00
1342.762, 21160.00
1343.822, 21259.00
1344.883, 21220.00
1345.944, 21183.00
1347.004, 21276.00
1348.064, 21354.00
1349.124, 21311.00
1350.184, 21355.00
1351.244, 21283.00
1352.304, 21288.00
1353.363, 21244.00
1354.422, 21370.00
1355.481, 21325.00
1356.540, 21407.00
1357.599, 21325.00
1358.657, 21475.00
1359.716, 21464.00
1360.774, 21419.00
1361.832, 21481.00
1362.890, 21514.00
1363.948, 21437.00
1365.006, 21488.00
1366.063, 21484.00
1367.120, 21613.00
1368.178, 21499.00
1369.234, 21554.00
1370.291, 21663.00
1371.348, 21412.00
1372.404, 21522.00
1373.461, 21547.00
1374.517, 21292.00
1375.573, 21575.00
1376.629, 21678.00
1377.684, 21653.00
1378.740, 21456.00
1379.795, 21507.00
1380.850, 21686.00
1381.905, 21606.00
1382.960, 21800.00
1384.015, 21591.00
1385.070, 21822.00
1386.124, 21765.00
1387.178, 21928.00
1388.232, 21828.00
1389.286, 21786.00
1390.340, 21995.00
1391.393, 21804.00
1392.447, 21646.00
1393.500, 21728.00
1394.553, 21830.00
1395.606, 21798.00
1396.659, 21888.00
1397.711, 21739.00
1398.764, 22039.00
1399.816, 21775.00
1400.868, 21881.00
1401.920, 21916.00
1402.972, 22064.00
1404.023, 22101.00
1405.075, 22036.00
1406.126, 21865.00
1407.177, 22098.00
1408.228, 22028.00
1409.279, 21872.00
1410.330, 22088.00
1411.380, 21863.00
1412.431, 21877.00
1413.481, 22048.00
1414.531, 22066.00
1415.580, 22185.00
1416.630, 22112.00
1417.680, 22091.00
1418.729, 22048.00
1419.778, 22010.00
1420.827, 22073.60
1421.876, 22019.34
1422.925, 22217.00
1423.973, 22075.00
1425.022, 22129.00
1426.070, 22355.00
1427.118, 22187.00
1428.166, 22406.00
1429.214, 22441.00
1430.261, 22388.00
1431.309, 22196.00
1432.356, 22428.00
1433.403, 22219.00
1434.450, 22143.00
1435.497, 22224.00
1436.543, 22281.00
1437.590, 22383.00
1438.636, 22297.00
1439.682, 22240.00
1440.728, 22232.00
1441.774, 22264.41
1442.819, 22465.00
1443.865, 22447.00
1444.910, 22413.00
1445.955, 22580.00
1447.000, 22454.00
1448.045, 22473.00
1449.090, 22443.00
1450.134, 22696.00
1451.178, 22535.00
1452.223, 22638.00
1453.267, 22505.00
1454.310, 22574.00
1455.354, 22602.00
1456.398, 22732.00
1457.441, 22722.00
1458.484, 22796.00
1459.527, 22542.00
1460.570, 22826.00
1461.613, 22532.00
1462.655, 22676.00
1463.698, 22888.00
1464.740, 22750.00
1465.782, 22656.00
1466.824, 22604.00
1467.866, 22843.00
1468.907, 22979.00
1469.948, 22698.00
1470.990, 22897.00
1472.031, 22770.00
1473.072, 22773.00
1474.112, 22732.00
1475.153, 22737.00
1476.194, 22814.00
1477.234, 22917.00
1478.274, 22843.00
1479.314, 23096.00
1480.354, 22965.00
1481.393, 23000.00
1482.433, 22998.00
1483.472, 23003.00
1484.511, 23017.47
1485.550, 23112.00
1486.589, 23021.00
1487.628, 22979.00
1488.666, 22955.00
1489.704, 23115.00
1490.743, 23131.00
1491.781, 23114.58
1492.819, 23264.00
1493.856, 23114.00
1494.894, 23191.00
1495.931, 23330.00
1496.968, 23076.00
1498.005, 23327.00
1499.042, 23158.00
1500.079, 23423.00
1501.115, 23279.00
1502.152, 23313.00
1503.188, 23168.00
1504.224, 23370.00
1505.260, 23266.00
1506.296, 23558.00
1507.331, 23293.00
1508.367, 23382.00
1509.402, 23483.00
1510.437, 23396.00
1511.472, 23365.00
1512.507, 23472.00
1513.541, 23437.00
1514.576, 23527.00
1515.610, 23677.00
1516.644, 23615.00
1517.678, 23580.00
1518.712, 23380.00
1519.746, 23557.00
1520.779, 23517.00
1521.813, 23652.00
1522.846, 23717.00
1523.879, 23734.08
1524.912, 23732.00
1525.944, 23821.00
1526.977, 23661.00
1528.009, 23726.00
1529.041, 23735.00
1530.073, 23771.00
1531.105, 23761.53
1532.137, 23794.23
1533.168, 23738.00
1534.200, 23806.00
1535.231, 23839.00
1536.262, 23766.00
1537.293, 23848.00
1538.324, 23906.00
1539.354, 23764.00
1540.385, 23813.00
1541.415, 23811.00
1542.445, 23602.00
1543.475, 23815.00
1544.505, 23835.00
1545.534, 23874.00
1546.564, 24022.00
1547.593, 23883.00
1548.622, 24031.00
1549.651, 23994.00
1550.680, 24043.00
1551.708, 23988.00
1552.737, 23914.00
1553.765, 23843.00
1554.793, 24013.00
1555.821, 23922.00
1556.849, 23848.00
1557.877, 24118.00
1558.904, 24117.00
1559.932, 24050.00
1560.959, 23949.00
1561.986, 24182.00
1563.013, 24238.00
1564.039, 24320.00
1565.066, 24020.00
1566.092, 24052.00
1567.119, 24066.00
1568.145, 24028.00
1569.170, 24073.92
1570.196, 24080.00
1571.222, 24098.00
1572.247, 24091.00
1573.272, 24046.00
1574.297, 24309.00
1575.322, 24241.00
1576.347, 24217.00
1577.372, 24207.00
##END=



