##NAMES=Osumilite
##RRUFFID=R060385
##IDEAL CHEMISTRY=KFe^2+^_2_(Al_5_Si_10_)O_30_
##LOCALITY=Funtanafigu Quarry, Monte Arci, near Oristano, Sardinia
##OWNER=RRUFF
##SOURCE=Michael Scott
##DESCRIPTION=Black tabular distorted hexagonal crystals associated with colorless tridymite
##STATUS=The identification of this mineral is confirmed by single-crystal X-ray diffraction and chemical analysis.
##URL=rruff.info/R060385
##MEASURED CHEMISTRY=(K_0.72_Na_0.15_Ca_0.01_)_Σ=0.88_(Fe^2+^_1.07_Mg_0.93_Mn_0.06_)_Σ=2.06_(Al_2.69_Fe^3+^_0.31_)_Σ=3_(Si_10.28_Al_1.72_)_Σ=12_O_30_
##PIN_ID=M01364
##ORIENTATION=Laser parallel to c* (0 0 1). Fiducial mark perpendicular to laser is parallel to a [1 0 0]
141.3240, 11344.00
142.5560, 11241.00
143.7880, 11520.00
145.0190, 11657.00
146.2510, 11800.00
147.4820, 12192.00
148.7130, 12340.00
149.9440, 12523.00
151.1750, 13042.00
152.4050, 13408.00
153.6360, 13377.00
154.8660, 13957.00
156.0960, 14137.00
157.3260, 14513.00
158.5560, 14625.00
159.7850, 14772.00
161.0150, 14755.00
162.2440, 14628.00
163.4730, 14395.00
164.7020, 13931.00
165.9310, 13534.00
167.1590, 13185.00
168.3880, 13090.00
169.6160, 13064.00
170.8440, 12910.00
172.0720, 12965.00
173.3000, 12911.00
174.5280, 12868.49
175.7550, 12893.00
176.9820, 12827.00
178.2100, 12770.00
179.4370, 12767.00
180.6630, 12665.00
181.8900, 12749.00
183.1170, 12693.00
184.3430, 12798.00
185.5690, 12621.00
186.7950, 12779.00
188.0210, 12786.00
189.2470, 12668.00
190.4720, 12793.00
191.6970, 12757.00
192.9230, 12814.00
194.1480, 12650.00
195.3730, 12731.00
196.5970, 12679.00
197.8220, 12699.00
199.0460, 12535.00
200.2700, 12746.00
201.4940, 12524.00
202.7180, 12528.00
203.9420, 12281.00
205.1660, 11859.00
206.3890, 11679.00
207.6120, 11627.00
208.8350, 11472.45
210.0580, 11434.84
211.2810, 11387.62
212.5040, 11331.41
213.7260, 11232.64
214.9480, 11194.03
216.1700, 11134.44
217.3920, 11076.14
218.6140, 11052.38
219.8360, 10971.34
221.0570, 10951.58
222.2790, 10910.47
223.5000, 10882.41
224.7210, 10833.23
225.9410, 10803.00
227.1620, 10764.00
228.3820, 10745.00
229.6030, 10732.00
230.8230, 10638.00
232.0430, 10747.00
233.2630, 10551.00
234.4820, 10619.00
235.7020, 10591.00
236.9210, 10538.00
238.1400, 10512.00
239.3590, 10612.00
240.5780, 10450.00
241.7970, 10512.00
243.0150, 10474.00
244.2340, 10402.00
245.4520, 10437.00
246.6700, 10390.39
247.8880, 10390.47
249.1060, 10338.00
250.3230, 10413.00
251.5400, 10347.00
252.7580, 10396.00
253.9750, 10498.00
255.1920, 10356.00
256.4080, 10385.00
257.6250, 10558.00
258.8410, 10645.00
260.0580, 10651.00
261.2740, 10916.00
262.4900, 11059.00
263.7050, 11128.00
264.9210, 11237.00
266.1360, 11487.00
267.3520, 11893.00
268.5670, 12172.00
269.7820, 12467.00
270.9960, 12733.00
272.2110, 13100.00
273.4250, 13395.00
274.6400, 13621.00
275.8540, 13721.00
277.0680, 13770.00
278.2810, 13786.00
279.4950, 13609.57
280.7090, 13477.00
281.9220, 13053.00
283.1350, 12715.00
284.3480, 12239.00
285.5610, 11771.00
286.7730, 11320.00
287.9860, 10875.00
289.1980, 10508.00
290.4100, 10083.02
291.6220, 9768.052
292.8340, 9387.000
294.0460, 9178.000
295.2570, 9032.000
296.4690, 8788.000
297.6800, 8732.000
298.8910, 8552.460
300.1020, 8405.000
301.3120, 8290.000
302.5230, 8312.000
303.7330, 8207.872
304.9440, 8115.000
306.1540, 7936.000
307.3630, 8026.000
308.5730, 7799.000
309.7830, 7763.000
310.9920, 7804.000
312.2010, 7749.000
313.4100, 7689.000
314.6190, 7656.000
315.8280, 7667.000
317.0370, 7679.000
318.2450, 7645.000
319.4530, 7648.999
320.6610, 7620.000
321.8690, 7600.000
323.0770, 7536.000
324.2850, 7461.000
325.4920, 7452.503
326.6990, 7406.000
327.9060, 7428.000
329.1130, 7410.000
330.3200, 7432.000
331.5270, 7395.000
332.7330, 7304.000
333.9390, 7293.000
335.1450, 7373.000
336.3510, 7268.000
337.5570, 7360.000
338.7630, 7434.000
339.9680, 7335.000
341.1740, 7489.000
342.3790, 7352.000
343.5840, 7472.000
344.7890, 7425.000
345.9930, 7455.000
347.1980, 7451.000
348.4020, 7348.000
349.6060, 7359.000
350.8100, 7429.000
352.0140, 7437.000
353.2180, 7568.000
354.4210, 7611.000
355.6250, 7575.000
356.8280, 7648.000
358.0310, 7661.000
359.2340, 7841.000
360.4360, 7843.000
361.6390, 8088.000
362.8410, 8212.000
364.0430, 8377.000
365.2450, 8512.000
366.4470, 8710.000
367.6490, 8887.000
368.8510, 9127.000
370.0520, 9318.000
371.2530, 9466.000
372.4540, 9644.177
373.6550, 9841.000
374.8560, 9889.000
376.0560, 10026.00
377.2570, 10054.00
378.4570, 10049.00
379.6570, 10199.00
380.8570, 10254.00
382.0570, 10109.00
383.2560, 9994.000
384.4560, 10007.00
385.6550, 9730.000
386.8540, 9717.000
388.0530, 9552.000
389.2520, 9439.000
390.4510, 9296.000
391.6490, 9290.000
392.8470, 9089.000
394.0450, 9101.000
395.2430, 9165.852
396.4410, 8926.039
397.6390, 8878.446
398.8360, 8643.000
400.0340, 8615.000
401.2310, 8656.000
402.4280, 8649.000
403.6250, 8567.000
404.8210, 8541.000
406.0180, 8622.000
407.2140, 8664.000
408.4100, 8778.000
409.6060, 8636.000
410.8020, 8683.000
411.9980, 8626.000
413.1930, 8625.000
414.3890, 8749.000
415.5840, 8811.000
416.7790, 8770.000
417.9740, 8751.000
419.1680, 8705.000
420.3630, 8795.000
421.5570, 8766.000
422.7510, 8787.000
423.9450, 8851.000
425.1390, 8831.000
426.3330, 8960.000
427.5270, 8972.000
428.7200, 8829.000
429.9130, 8897.000
431.1060, 8997.000
432.2990, 8943.000
433.4920, 9053.000
434.6840, 9108.000
435.8770, 9139.000
437.0690, 9310.000
438.2610, 9212.000
439.4530, 9514.000
440.6450, 9372.000
441.8360, 9604.000
443.0280, 9615.000
444.2190, 9857.000
445.4100, 10002.00
446.6010, 10211.00
447.7920, 10406.00
448.9820, 10600.00
450.1730, 10887.00
451.3630, 11091.00
452.5530, 11338.00
453.7430, 11733.00
454.9330, 11887.00
456.1230, 12238.00
457.3120, 12615.00
458.5010, 13077.00
459.6910, 13561.00
460.8800, 13917.00
462.0680, 14785.00
463.2570, 15465.00
464.4460, 15917.00
465.6340, 16755.00
466.8220, 17475.00
468.0100, 18241.00
469.1980, 19231.00
470.3860, 20101.00
471.5730, 20809.00
472.7600, 21393.00
473.9480, 21663.00
475.1350, 21998.00
476.3210, 21998.00
477.5080, 21683.00
478.6950, 21057.00
479.8810, 20083.00
481.0670, 18873.00
482.2530, 17585.00
483.4390, 16417.00
484.6250, 15291.00
485.8100, 14455.00
486.9960, 13323.00
488.1810, 12403.00
489.3660, 11838.00
490.5510, 11135.00
491.7360, 10942.00
492.9200, 10486.00
494.1050, 10129.00
495.2890, 9905.000
496.4730, 9667.000
497.6570, 9615.000
498.8400, 9557.000
500.0240, 9373.000
501.2070, 9428.000
502.3910, 9362.000
503.5740, 9250.000
504.7570, 9501.000
505.9400, 9398.000
507.1220, 9573.000
508.3050, 9614.000
509.4870, 9903.000
510.6690, 10007.00
511.8510, 10218.00
513.0330, 10398.00
514.2140, 10505.00
515.3960, 10824.00
516.5770, 11041.38
517.7580, 11152.45
518.9390, 11535.00
520.1200, 11486.00
521.3010, 11539.00
522.4810, 11910.00
523.6610, 11945.00
524.8420, 12171.00
526.0220, 12374.00
527.2010, 12477.00
528.3810, 12670.00
529.5610, 12700.00
530.7400, 13028.00
531.9190, 13093.00
533.0980, 13125.00
534.2770, 13332.00
535.4560, 13575.00
536.6340, 13654.00
537.8120, 13912.00
538.9910, 14104.00
540.1690, 14198.00
541.3460, 14397.00
542.5240, 14397.00
543.7020, 14686.00
544.8790, 14616.00
546.0560, 14486.00
547.2330, 14518.00
548.4100, 14331.00
549.5870, 14160.00
550.7630, 13740.00
551.9400, 13537.00
553.1160, 13476.00
554.2920, 13066.00
555.4680, 12871.00
556.6440, 12602.82
557.8190, 12357.00
558.9950, 12061.00
560.1700, 12047.00
561.3450, 11868.00
562.5200, 11762.00
563.6950, 11480.00
564.8690, 11419.00
566.0440, 11245.00
567.2180, 11120.00
568.3920, 11055.00
569.5660, 11019.00
570.7400, 10939.00
571.9130, 10754.00
573.0870, 10539.00
574.2600, 10533.00
575.4330, 10506.00
576.6060, 10224.00
577.7790, 10291.00
578.9520, 10074.00
580.1240, 9931.000
581.2960, 9750.000
582.4690, 9887.000
583.6410, 9699.000
584.8120, 9722.000
585.9840, 9550.000
587.1560, 9489.000
588.3270, 9408.000
589.4980, 9437.000
590.6690, 9410.000
591.8400, 9360.000
593.0110, 9323.000
594.1810, 9338.000
595.3510, 9259.000
596.5220, 9253.000
597.6920, 9318.000
598.8610, 9353.000
600.0310, 9335.000
601.2010, 9482.000
602.3700, 9323.000
603.5390, 9437.000
604.7080, 9516.000
605.8770, 9496.000
607.0460, 9646.000
608.2140, 9667.000
609.3830, 9700.000
610.5510, 9677.000
611.7190, 9843.000
612.8870, 9840.000
614.0550, 9984.000
615.2220, 10085.00
616.3900, 10175.00
617.5570, 10318.64
618.7240, 10552.00
619.8910, 10557.00
621.0580, 10769.00
622.2240, 10846.00
623.3910, 10990.00
624.5570, 11112.00
625.7230, 11176.01
626.8890, 11311.00
628.0550, 11294.00
629.2200, 11291.87
630.3860, 11306.00
631.5510, 11186.00
632.7160, 11175.31
633.8810, 11165.00
635.0460, 11035.00
636.2100, 10888.00
637.3750, 10758.50
638.5390, 10671.00
639.7030, 10482.00
640.8670, 10346.00
642.0310, 10178.00
643.1950, 10209.00
644.3580, 9839.000
645.5210, 9741.000
646.6850, 9873.000
647.8480, 9651.000
649.0100, 9413.000
650.1730, 9521.000
651.3350, 9451.000
652.4980, 9184.000
653.6600, 9212.000
654.8220, 9069.000
655.9840, 8964.000
657.1450, 9019.000
658.3070, 8831.000
659.4680, 8743.000
660.6300, 8640.000
661.7910, 8653.000
662.9510, 8495.000
664.1120, 8480.000
665.2730, 8463.000
666.4330, 8410.000
667.5930, 8372.000
668.7530, 8339.150
669.9130, 8297.637
671.0730, 8268.000
672.2320, 8238.000
673.3920, 8208.000
674.5510, 8201.000
675.7100, 8159.321
676.8690, 8039.000
678.0280, 8094.000
679.1860, 8014.000
680.3450, 7986.000
681.5030, 7983.000
682.6610, 8041.000
683.8190, 7963.000
684.9770, 8021.000
686.1340, 8043.000
687.2920, 7913.000
688.4490, 7810.000
689.6060, 7927.000
690.7630, 7914.000
691.9200, 7929.000
693.0760, 7905.000
694.2330, 7950.000
695.3890, 7896.000
696.5450, 7958.000
697.7010, 7867.000
698.8570, 7960.000
700.0130, 7890.000
701.1680, 7844.000
702.3230, 7886.000
703.4780, 7956.000
704.6330, 7817.000
705.7880, 7901.000
706.9430, 7868.000
708.0970, 7928.000
709.2520, 7886.000
710.4060, 7890.532
711.5600, 7759.000
712.7140, 7884.000
713.8670, 7753.000
715.0210, 7765.000
716.1740, 7712.000
717.3270, 7757.000
718.4800, 7799.000
719.6330, 7785.000
720.7860, 7763.000
721.9380, 7752.000
723.0910, 7807.000
724.2430, 7775.519
725.3950, 7850.000
726.5470, 7766.000
727.6980, 7790.000
728.8500, 7793.000
730.0010, 7828.000
731.1530, 7961.000
732.3040, 7936.000
733.4550, 7965.000
734.6050, 7984.000
735.7560, 7939.000
736.9060, 8012.000
738.0560, 8029.000
739.2060, 8023.000
740.3560, 8026.000
741.5060, 8037.936
742.6560, 7981.000
743.8050, 8053.000
744.9540, 8045.000
746.1030, 8041.000
747.2520, 8128.000
748.4010, 8192.000
749.5500, 8147.000
750.6980, 8160.000
751.8460, 8143.000
752.9950, 8151.000
754.1420, 8197.000
755.2900, 8168.000
756.4380, 8178.000
757.5850, 8269.000
758.7330, 8230.000
759.8800, 8292.000
761.0270, 8241.000
762.1730, 8324.000
763.3200, 8330.309
764.4670, 8294.000
765.6130, 8385.000
766.7590, 8312.000
767.9050, 8339.000
769.0510, 8389.000
770.1960, 8421.000
771.3420, 8375.000
772.4870, 8452.000
773.6320, 8410.000
774.7770, 8387.000
775.9220, 8394.773
777.0670, 8386.130
778.2110, 8379.000
779.3560, 8410.000
780.5000, 8452.000
781.6440, 8471.000
782.7880, 8457.089
783.9320, 8470.000
785.0750, 8454.047
786.2180, 8466.000
787.3620, 8408.000
788.5050, 8364.000
789.6480, 8314.000
790.7900, 8369.000
791.9330, 8491.000
793.0750, 8450.000
794.2170, 8317.000
795.3590, 8304.000
796.5010, 8192.000
797.6430, 8160.000
798.7850, 8160.000
799.9260, 8154.000
801.0670, 8084.000
802.2080, 8043.000
803.3490, 8154.000
804.4900, 8048.000
805.6310, 8020.000
806.7710, 8047.000
807.9110, 7973.000
809.0510, 7928.000
810.1910, 7849.000
811.3310, 7875.000
812.4710, 7888.000
813.6100, 7851.356
814.7490, 7728.000
815.8880, 7810.000
817.0270, 7673.000
818.1660, 7615.000
819.3050, 7652.000
820.4430, 7650.000
821.5820, 7586.000
822.7200, 7579.000
823.8580, 7559.000
824.9950, 7592.000
826.1330, 7482.000
827.2710, 7420.000
828.4080, 7481.000
829.5450, 7494.000
830.6820, 7426.000
831.8190, 7346.000
832.9560, 7416.000
834.0920, 7291.000
835.2280, 7263.000
836.3650, 7381.000
837.5010, 7172.000
838.6360, 7210.000
839.7720, 7307.000
840.9080, 7169.000
842.0430, 7352.000
843.1780, 7244.000
844.3130, 7250.000
845.4480, 7306.000
846.5830, 7178.000
847.7170, 7222.000
848.8520, 7252.000
849.9860, 7255.000
851.1200, 7320.000
852.2540, 7210.000
853.3870, 7325.000
854.5210, 7278.000
855.6540, 7277.000
856.7880, 7282.000
857.9210, 7275.000
859.0540, 7283.000
860.1860, 7370.000
861.3190, 7195.000
862.4510, 7333.000
863.5840, 7335.000
864.7160, 7272.000
865.8480, 7468.000
866.9790, 7334.000
868.1110, 7328.000
869.2420, 7380.000
870.3740, 7348.000
871.5050, 7343.000
872.6360, 7384.000
873.7660, 7360.000
874.8970, 7402.000
876.0280, 7491.000
877.1580, 7372.000
878.2880, 7594.000
879.4180, 7356.000
880.5480, 7575.000
881.6770, 7501.000
882.8070, 7518.000
883.9360, 7409.000
885.0650, 7433.000
886.1940, 7601.000
887.3230, 7568.000
888.4520, 7635.000
889.5800, 7626.000
890.7090, 7630.000
891.8370, 7547.000
892.9650, 7583.000
894.0930, 7682.000
895.2200, 7592.000
896.3480, 7905.000
897.4750, 7689.000
898.6020, 7798.000
899.7290, 7899.000
900.8560, 7887.000
901.9830, 7859.000
903.1090, 7905.000
904.2360, 7982.174
905.3620, 7954.365
906.4880, 7970.562
907.6140, 7953.000
908.7400, 7947.000
909.8650, 7947.000
910.9900, 7972.000
912.1160, 7958.000
913.2410, 8072.000
914.3660, 8136.000
915.4900, 8078.000
916.6150, 8188.000
917.7390, 8215.000
918.8640, 8219.000
919.9880, 8388.000
921.1120, 8292.000
922.2350, 8354.000
923.3590, 8331.000
924.4820, 8517.000
925.6060, 8442.000
926.7290, 8418.000
927.8520, 8500.000
928.9740, 8371.000
930.0970, 8532.000
931.2190, 8494.000
932.3420, 8412.000
933.4640, 8458.000
934.5860, 8568.000
935.7080, 8605.000
936.8290, 8703.000
937.9510, 8735.800
939.0720, 8705.000
940.1930, 8786.000
941.3140, 8770.000
942.4350, 8768.000
943.5560, 8918.000
944.6760, 8887.000
945.7960, 8791.000
946.9170, 8871.000
948.0370, 8835.000
949.1560, 8927.000
950.2760, 8978.000
951.3960, 9113.000
952.5150, 8948.000
953.6340, 9009.000
954.7530, 9167.000
955.8720, 9102.000
956.9910, 9210.000
958.1090, 9214.000
959.2280, 9204.000
960.3460, 9218.000
961.4640, 9145.000
962.5820, 9205.395
963.6990, 9217.000
964.8170, 9296.000
965.9340, 9313.000
967.0510, 9370.000
968.1690, 9376.000
969.2850, 9404.000
970.4020, 9499.000
971.5190, 9418.000
972.6350, 9631.000
973.7510, 9449.000
974.8670, 9535.000
975.9830, 9538.000
977.0990, 9545.000
978.2150, 9677.000
979.3300, 9693.000
980.4450, 9725.000
981.5600, 9791.000
982.6750, 9666.000
983.7900, 9806.000
984.9050, 9772.000
986.0190, 9657.000
987.1340, 9710.000
988.2480, 9562.000
989.3620, 9772.000
990.4750, 9531.000
991.5890, 9518.000
992.7020, 9590.000
993.8160, 9371.000
994.9290, 9505.000
996.0420, 9367.000
997.1550, 9297.000
998.2670, 9271.000
999.3800, 9196.000
1000.492, 9233.000
1001.604, 9087.000
1002.716, 9174.000
1003.828, 9061.000
1004.940, 9029.000
1006.051, 8999.000
1007.163, 9037.000
1008.274, 8965.000
1009.385, 8955.000
1010.496, 8916.986
1011.606, 9064.000
1012.717, 8899.000
1013.827, 8856.000
1014.937, 9012.000
1016.047, 8787.000
1017.157, 8887.000
1018.267, 8824.000
1019.377, 8841.000
1020.486, 8773.000
1021.595, 8842.000
1022.704, 8759.000
1023.813, 8816.000
1024.922, 8798.000
1026.030, 8849.000
1027.139, 8941.000
1028.247, 8777.000
1029.355, 8878.000
1030.463, 8952.000
1031.571, 8770.000
1032.678, 8767.000
1033.786, 8729.000
1034.893, 8741.000
1036.000, 8731.623
1037.107, 8758.404
1038.214, 8751.000
1039.321, 8805.000
1040.427, 8856.000
1041.533, 8820.000
1042.639, 8897.000
1043.745, 8906.000
1044.851, 8896.000
1045.957, 8905.000
1047.062, 8848.000
1048.168, 8851.000
1049.273, 8814.000
1050.378, 8893.000
1051.482, 8896.000
1052.587, 9089.000
1053.692, 9095.000
1054.796, 8920.000
1055.900, 9110.000
1057.004, 9102.000
1058.108, 9234.000
1059.212, 9191.000
1060.315, 9195.000
1061.418, 9231.000
1062.522, 9195.000
1063.625, 9257.000
1064.728, 9256.000
1065.830, 9356.000
1066.933, 9282.000
1068.035, 9299.000
1069.137, 9403.000
1070.239, 9314.000
1071.341, 9374.000
1072.443, 9356.000
1073.545, 9381.000
1074.646, 9297.000
1075.747, 9292.000
1076.848, 9283.000
1077.949, 9236.000
1079.050, 9304.000
1080.150, 9270.000
1081.251, 9024.000
1082.351, 9073.000
1083.451, 8987.000
1084.551, 8939.000
1085.651, 8888.000
1086.750, 8748.000
1087.850, 8911.000
1088.949, 8732.000
1090.048, 8832.000
1091.147, 8731.000
1092.246, 8607.000
1093.345, 8665.000
1094.443, 8668.000
1095.541, 8691.000
1096.639, 8593.000
1097.737, 8577.000
1098.835, 8573.000
1099.933, 8576.000
1101.030, 8563.000
1102.128, 8656.000
1103.225, 8517.000
1104.322, 8706.000
1105.419, 8607.000
1106.515, 8624.000
1107.612, 8570.000
1108.708, 8636.000
1109.804, 8634.000
1110.900, 8650.080
1111.996, 8642.000
1113.092, 8706.000
1114.187, 8774.000
1115.283, 8820.000
1116.378, 8799.000
1117.473, 8769.000
1118.568, 8876.000
1119.662, 8833.000
1120.757, 8881.000
1121.851, 8791.000
1122.946, 8893.000
1124.040, 8840.000
1125.134, 8965.000
1126.227, 8949.000
1127.321, 8887.000
1128.414, 8881.000
1129.508, 8961.000
1130.601, 8936.000
1131.693, 9040.000
1132.786, 9004.000
1133.879, 8982.000
1134.971, 9013.000
1136.064, 9098.000
1137.156, 8956.000
1138.248, 9085.000
1139.339, 9187.000
1140.431, 9129.000
1141.522, 9118.000
1142.614, 9027.000
1143.705, 9015.000
1144.796, 8942.000
1145.887, 9025.676
1146.977, 9197.000
1148.068, 9170.000
1149.158, 9283.000
1150.248, 9239.000
1151.338, 9289.000
1152.428, 9234.000
1153.518, 9239.191
1154.607, 9242.000
1155.696, 9249.000
1156.785, 9251.000
1157.874, 9312.000
1158.963, 9338.000
1160.052, 9237.000
1161.141, 9334.000
1162.229, 9280.000
1163.317, 9382.000
1164.405, 9309.000
1165.493, 9179.000
1166.581, 9405.000
1167.668, 9299.000
1168.756, 9284.000
1169.843, 9217.000
1170.930, 9263.000
1172.017, 9202.199
1173.103, 9169.996
1174.190, 9156.000
1175.276, 9107.000
1176.363, 9136.000
1177.449, 9164.000
1178.535, 9027.000
1179.620, 9029.000
1180.706, 9060.000
1181.791, 8961.000
1182.877, 8976.000
1183.962, 9003.000
1185.047, 8740.000
1186.131, 8982.000
1187.216, 8762.000
1188.300, 8775.000
1189.385, 8854.000
1190.469, 8742.000
1191.553, 8803.000
1192.637, 8648.000
1193.720, 8761.000
1194.804, 8594.000
1195.887, 8588.000
1196.970, 8574.000
1198.053, 8501.000
1199.136, 8517.000
1200.219, 8424.000
1201.301, 8381.000
1202.383, 8228.000
1203.465, 8300.000
1204.547, 8221.000
1205.629, 8283.000
1206.711, 8136.000
1207.792, 8139.000
1208.874, 8029.000
1209.955, 8093.000
1211.036, 8099.000
1212.117, 7922.000
1213.198, 7957.000
1214.278, 8049.000
1215.359, 7775.000
1216.439, 7908.000
1217.519, 7880.000
1218.599, 7810.000
1219.678, 7750.000
1220.758, 7741.000
1221.837, 7777.000
1222.917, 7686.000
1223.996, 7740.000
1225.075, 7590.000
1226.153, 7589.000
1227.232, 7580.000
1228.310, 7534.000
1229.389, 7564.000
1230.467, 7509.000
1231.545, 7474.000
1232.622, 7484.000
1233.700, 7508.000
1234.777, 7462.000
1235.855, 7534.000
1236.932, 7501.000
1238.009, 7496.890
1239.086, 7483.000
1240.162, 7488.000
1241.239, 7471.000
1242.315, 7504.000
1243.391, 7418.000
1244.467, 7362.000
1245.543, 7411.000
1246.619, 7348.000
1247.694, 7387.000
1248.769, 7249.000
1249.844, 7419.000
1250.919, 7371.000
1251.994, 7197.000
1253.069, 7359.000
1254.144, 7335.000
1255.218, 7439.000
1256.292, 7266.000
1257.366, 7330.000
1258.440, 7345.000
1259.514, 7372.000
1260.587, 7378.000
1261.661, 7376.000
1262.734, 7282.000
1263.807, 7373.000
1264.880, 7383.000
1265.952, 7207.000
1267.025, 7426.000
1268.097, 7293.000
1269.170, 7371.000
1270.242, 7285.000
1271.314, 7296.000
1272.385, 7307.000
1273.457, 7267.000
1274.528, 7325.000
1275.600, 7341.000
1276.671, 7347.000
1277.742, 7297.000
1278.812, 7289.000
1279.883, 7280.240
1280.954, 7255.000
1282.024, 7280.000
1283.094, 7239.000
1284.164, 7264.000
1285.234, 7288.159
1286.303, 7305.000
1287.373, 7327.000
1288.442, 7274.000
1289.511, 7220.000
1290.580, 7228.179
1291.649, 7207.108
1292.718, 7207.000
1293.786, 7239.000
1294.855, 7227.000
1295.923, 7285.000
1296.991, 7278.295
1298.059, 7266.000
1299.126, 7308.000
1300.194, 7252.000
1301.261, 7303.000
1302.328, 7223.000
1303.395, 7221.000
1304.462, 7259.000
1305.529, 7220.000
1306.596, 7285.000
1307.662, 7229.000
1308.728, 7306.000
1309.794, 7155.000
1310.860, 7278.000
1311.926, 7233.000
1312.991, 7222.000
1314.057, 7288.000
1315.122, 7272.000
1316.187, 7241.000
1317.252, 7285.000
1318.317, 7238.000
1319.381, 7279.000
1320.446, 7285.000
1321.510, 7213.000
1322.574, 7309.000
1323.638, 7336.000
1324.702, 7221.000
1325.766, 7280.000
1326.829, 7196.000
1327.892, 7272.000
1328.956, 7282.000
1330.019, 7308.000
1331.081, 7387.000
1332.144, 7318.000
1333.206, 7352.285
1334.269, 7284.000
1335.331, 7307.000
1336.393, 7338.000
1337.455, 7258.000
1338.516, 7302.000
1339.578, 7278.000
1340.639, 7196.000
1341.701, 7191.000
1342.762, 7238.000
1343.822, 7229.000
1344.883, 7274.000
1345.944, 7247.000
1347.004, 7146.000
1348.064, 7198.000
1349.124, 7153.399
1350.184, 7341.000
1351.244, 7166.000
1352.304, 7162.000
1353.363, 7219.000
1354.422, 7115.000
1355.481, 7193.000
1356.540, 7179.000
1357.599, 7160.000
1358.657, 7138.000
1359.716, 7127.000
1360.774, 7122.823
1361.832, 7126.838
1362.890, 7135.000
1363.948, 7169.000
1365.006, 7199.000
1366.063, 7260.000
1367.120, 7256.000
1368.178, 7297.000
1369.234, 7245.000
1370.291, 7163.000
1371.348, 7174.000
1372.404, 7235.000
1373.461, 7164.000
1374.517, 7222.000
1375.573, 7246.000
1376.629, 7184.000
1377.684, 7187.000
1378.740, 7159.000
1379.795, 7161.000
1380.850, 7166.000
1381.905, 7197.000
1382.960, 7118.000
1384.015, 7245.000
1385.070, 7113.000
1386.124, 7221.000
1387.178, 7261.000
1388.232, 7151.000
1389.286, 7211.000
1390.340, 7211.000
1391.393, 7205.000
1392.447, 7217.000
1393.500, 7114.000
1394.553, 7218.000
1395.606, 7112.000
1396.659, 7169.630
1397.711, 7205.166
1398.764, 7207.000
1399.816, 7270.000
1400.868, 7186.000
1401.920, 7158.000
1402.972, 7205.000
1404.023, 7190.000
1405.075, 7241.000
1406.126, 7242.576
1407.177, 7173.000
1408.228, 7243.000
1409.279, 7176.000
1410.330, 7139.000
1411.380, 7191.000
1412.431, 7199.000
1413.481, 7072.000
1414.531, 7150.000
1415.580, 7171.000
1416.630, 7252.000
1417.680, 7125.000
1418.729, 7243.000
1419.778, 7172.000
1420.827, 7195.000
1421.876, 7170.000
1422.925, 7160.000
1423.973, 7147.000
1425.022, 7161.000
1426.070, 7166.000
1427.118, 7223.000
1428.166, 7240.000
1429.214, 7298.000
1430.261, 7230.000
1431.309, 7215.000
1432.356, 7210.000
1433.403, 7219.000
1434.450, 7230.278
1435.497, 7226.604
1436.543, 7246.000
1437.590, 7245.000
1438.636, 7191.000
1439.682, 7234.000
1440.728, 7126.000
1441.774, 7165.000
1442.819, 7237.000
1443.865, 7142.000
1444.910, 7263.000
1445.955, 7208.000
1447.000, 7226.000
1448.045, 7202.000
1449.090, 7132.000
1450.134, 7248.000
1451.178, 7098.000
1452.223, 7125.000
1453.267, 7164.000
1454.310, 7157.000
1455.354, 7114.000
1456.398, 7306.000
1457.441, 7327.000
1458.484, 7258.000
1459.527, 7216.000
1460.570, 7318.000
1461.613, 7386.000
1462.655, 7292.000
1463.698, 7210.000
1464.740, 7216.000
1465.782, 7169.000
1466.824, 7289.000
1467.866, 7201.000
1468.907, 7280.000
1469.948, 7186.000
1470.990, 7203.000
1472.031, 7311.000
1473.072, 7274.000
1474.112, 7236.000
1475.153, 7170.000
1476.194, 7215.000
1477.234, 7257.000
1478.274, 7370.000
1479.314, 7215.000
1480.354, 7335.000
1481.393, 7196.000
1482.433, 7208.000
1483.472, 7286.000
1484.511, 7310.000
1485.550, 7303.000
1486.589, 7215.000
1487.628, 7279.000
1488.666, 7275.000
1489.704, 7280.000
1490.743, 7294.000
1491.781, 7372.000
1492.819, 7286.000
1493.856, 7364.000
1494.894, 7290.000
1495.931, 7238.000
1496.968, 7210.000
1498.005, 7363.000
1499.042, 7305.000
1500.079, 7379.000
1501.115, 7288.000
1502.152, 7319.000
1503.188, 7313.000
1504.224, 7265.000
1505.260, 7380.000
1506.296, 7395.000
1507.331, 7302.000
1508.367, 7378.000
1509.402, 7298.000
1510.437, 7443.000
1511.472, 7471.000
1512.507, 7290.000
1513.541, 7270.000
1514.576, 7383.000
1515.610, 7370.000
1516.644, 7374.000
1517.678, 7334.000
1518.712, 7405.000
1519.746, 7264.000
1520.779, 7359.000
1521.813, 7434.000
1522.846, 7350.000
1523.879, 7363.000
1524.912, 7479.000
1525.944, 7453.000
1526.977, 7386.000
1528.009, 7360.000
1529.041, 7460.000
1530.073, 7407.000
1531.105, 7362.000
1532.137, 7298.000
1533.168, 7452.000
1534.200, 7432.000
1535.231, 7337.514
1536.262, 7417.698
1537.293, 7462.259
1538.324, 7473.113
1539.354, 7349.300
1540.385, 7399.381
1541.415, 7379.774
1542.445, 7357.309
1543.475, 7431.867
1544.505, 7327.640
1545.534, 7400.660
1546.564, 7402.926
1547.593, 7437.575
1548.622, 7402.104
1549.651, 7388.291
1550.680, 7444.620
1551.708, 7462.112
1552.737, 7418.569
1553.765, 7455.278
1554.793, 7348.604
1555.821, 7367.750
1556.849, 7441.182
1557.877, 7401.166
1558.904, 7439.157
1559.932, 7447.438
1560.959, 7320.705
1561.986, 7428.778
1563.013, 7435.305
1564.039, 7337.567
1565.066, 7437.594
1566.092, 7354.230
1567.119, 7336.325
1568.145, 7367.684
1569.170, 7347.689
1570.196, 7408.660
1571.222, 7391.630
1572.247, 7367.632
1573.272, 7374.047
1574.297, 7294.280
1575.322, 7374.398
1576.347, 7345.301
1577.372, 7485.000
##END=



