##NAMES=Osumilite
##RRUFFID=R060385
##IDEAL CHEMISTRY=KFe^2+^_2_(Al_5_Si_10_)O_30_
##LOCALITY=Funtanafigu Quarry, Monte Arci, near Oristano, Sardinia
##OWNER=RRUFF
##SOURCE=Michael Scott
##DESCRIPTION=Black tabular distorted hexagonal crystals associated with colorless tridymite
##STATUS=The identification of this mineral is confirmed by single-crystal X-ray diffraction and chemical analysis.
##URL=rruff.info/R060385
##MEASURED CHEMISTRY=(K_0.72_Na_0.15_Ca_0.01_)_Σ=0.88_(Fe^2+^_1.07_Mg_0.93_Mn_0.06_)_Σ=2.06_(Al_2.69_Fe^3+^_0.31_)_Σ=3_(Si_10.28_Al_1.72_)_Σ=12_O_30_
##PIN_ID=M01656
##ORIENTATION=Laser parallel to a* (1 0 0). Fiducial mark perpendicular to laser is parallel to c [0 0 1]
131.4640, 5245.000
132.6970, 5360.000
133.9300, 5391.567
135.1630, 5437.951
136.3950, 5453.000
137.6280, 5456.000
138.8600, 5464.000
140.0920, 5500.000
141.3240, 5543.357
142.5560, 5639.000
143.7880, 5677.000
145.0190, 5765.000
146.2510, 5864.000
147.4820, 5950.000
148.7130, 6054.000
149.9440, 6173.654
151.1750, 6316.000
152.4050, 6432.000
153.6360, 6609.000
154.8660, 6755.000
156.0960, 7120.000
157.3260, 7240.000
158.5560, 7469.000
159.7850, 7889.000
161.0150, 7820.000
162.2440, 7842.000
163.4730, 7524.000
164.7020, 7296.000
165.9310, 7097.000
167.1590, 6937.000
168.3880, 6747.000
169.6160, 6694.000
170.8440, 6722.000
172.0720, 6580.000
173.3000, 6675.000
174.5280, 6534.000
175.7550, 6615.000
176.9820, 6569.000
178.2100, 6588.000
179.4370, 6632.000
180.6630, 6657.000
181.8900, 6692.000
183.1170, 6697.000
184.3430, 6845.000
185.5690, 6801.000
186.7950, 6947.000
188.0210, 6947.000
189.2470, 6935.000
190.4720, 6951.000
191.6970, 7050.000
192.9230, 7075.000
194.1480, 7104.373
195.3730, 7102.572
196.5970, 7143.000
197.8220, 7072.000
199.0460, 7077.000
200.2700, 7120.000
201.4940, 7088.000
202.7180, 6962.000
203.9420, 6963.000
205.1660, 7005.000
206.3890, 6891.000
207.6120, 6941.000
208.8350, 6965.000
210.0580, 6980.000
211.2810, 6912.000
212.5040, 7028.000
213.7260, 6936.000
214.9480, 6974.000
216.1700, 6980.000
217.3920, 7004.000
218.6140, 6916.000
219.8360, 6981.000
221.0570, 7134.000
222.2790, 7017.000
223.5000, 7081.000
224.7210, 7118.000
225.9410, 7054.000
227.1620, 7129.000
228.3820, 7141.000
229.6030, 7130.000
230.8230, 7206.000
232.0430, 7162.000
233.2630, 7230.000
234.4820, 7270.000
235.7020, 7200.000
236.9210, 7305.000
238.1400, 7316.000
239.3590, 7174.000
240.5780, 7292.000
241.7970, 7274.000
243.0150, 7233.000
244.2340, 7266.000
245.4520, 7244.159
246.6700, 7246.000
247.8880, 7256.000
249.1060, 7304.000
250.3230, 7338.000
251.5400, 7399.000
252.7580, 7399.000
253.9750, 7400.000
255.1920, 7331.000
256.4080, 7386.000
257.6250, 7371.000
258.8410, 7406.000
260.0580, 7525.000
261.2740, 7463.000
262.4900, 7473.000
263.7050, 7583.000
264.9210, 7643.000
266.1360, 7724.000
267.3520, 7794.123
268.5670, 7752.000
269.7820, 7903.000
270.9960, 7896.000
272.2110, 7910.000
273.4250, 8096.000
274.6400, 8134.000
275.8540, 8181.000
277.0680, 8266.000
278.2810, 8386.000
279.4950, 8329.000
280.7090, 8220.000
281.9220, 8154.000
283.1350, 8192.000
284.3480, 8095.000
285.5610, 8029.000
286.7730, 7939.000
287.9860, 7909.000
289.1980, 7883.000
290.4100, 7786.000
291.6220, 7849.000
292.8340, 7705.000
294.0460, 7630.000
295.2570, 7581.000
296.4690, 7676.000
297.6800, 7722.000
298.8910, 7654.000
300.1020, 7609.000
301.3120, 7576.000
302.5230, 7567.000
303.7330, 7649.000
304.9440, 7631.000
306.1540, 7649.000
307.3630, 7572.000
308.5730, 7696.000
309.7830, 7582.000
310.9920, 7642.000
312.2010, 7592.000
313.4100, 7644.000
314.6190, 7555.000
315.8280, 7684.000
317.0370, 7656.000
318.2450, 7727.000
319.4530, 7694.000
320.6610, 7576.000
321.8690, 7706.000
323.0770, 7773.000
324.2850, 7654.000
325.4920, 7622.000
326.6990, 7631.000
327.9060, 7626.000
329.1130, 7699.000
330.3200, 7760.000
331.5270, 7819.000
332.7330, 7753.000
333.9390, 7865.000
335.1450, 7744.000
336.3510, 7737.000
337.5570, 7771.000
338.7630, 7821.000
339.9680, 7912.000
341.1740, 7705.000
342.3790, 7818.000
343.5840, 7939.000
344.7890, 8035.000
345.9930, 7852.000
347.1980, 7897.000
348.4020, 7817.000
349.6060, 7834.000
350.8100, 7777.000
352.0140, 7820.000
353.2180, 7792.000
354.4210, 7798.000
355.6250, 7785.000
356.8280, 7815.000
358.0310, 7848.000
359.2340, 7904.000
360.4360, 7901.000
361.6390, 7826.000
362.8410, 7808.000
364.0430, 7921.000
365.2450, 7856.000
366.4470, 7934.000
367.6490, 7813.000
368.8510, 8030.000
370.0520, 8059.000
371.2530, 8023.000
372.4540, 8064.000
373.6550, 8104.000
374.8560, 8063.000
376.0560, 8123.817
377.2570, 8244.000
378.4570, 8184.000
379.6570, 8229.000
380.8570, 8247.000
382.0570, 8132.000
383.2560, 8288.000
384.4560, 8366.000
385.6550, 8276.000
386.8540, 8327.000
388.0530, 8287.000
389.2520, 8219.000
390.4510, 8215.000
391.6490, 8123.000
392.8470, 8212.000
394.0450, 8220.000
395.2430, 8142.000
396.4410, 8357.000
397.6390, 8247.000
398.8360, 8296.000
400.0340, 8291.000
401.2310, 8280.000
402.4280, 8187.000
403.6250, 8301.000
404.8210, 8207.000
406.0180, 8305.000
407.2140, 8405.000
408.4100, 8308.000
409.6060, 8348.000
410.8020, 8380.000
411.9980, 8418.000
413.1930, 8450.000
414.3890, 8510.000
415.5840, 8373.000
416.7790, 8466.000
417.9740, 8453.000
419.1680, 8515.000
420.3630, 8484.000
421.5570, 8510.000
422.7510, 8552.000
423.9450, 8573.300
425.1390, 8633.000
426.3330, 8668.000
427.5270, 8717.000
428.7200, 8772.000
429.9130, 8770.000
431.1060, 8724.000
432.2990, 8707.000
433.4920, 8900.000
434.6840, 8956.000
435.8770, 9063.000
437.0690, 9076.000
438.2610, 9171.000
439.4530, 9119.000
440.6450, 9200.000
441.8360, 9276.000
443.0280, 9254.000
444.2190, 9387.000
445.4100, 9515.000
446.6010, 9719.000
447.7920, 9815.000
448.9820, 10035.00
450.1730, 10260.00
451.3630, 10489.00
452.5530, 10709.00
453.7430, 11094.00
454.9330, 11483.00
456.1230, 11718.00
457.3120, 12107.00
458.5010, 12428.00
459.6910, 13084.00
460.8800, 13702.00
462.0680, 14317.00
463.2570, 15244.00
464.4460, 15976.00
465.6340, 16789.00
466.8220, 17594.00
468.0100, 18683.00
469.1980, 19700.00
470.3860, 20806.00
471.5730, 21555.00
472.7600, 22248.00
473.9480, 23282.00
475.1350, 23332.00
476.3210, 23372.00
477.5080, 22983.00
478.6950, 22430.00
479.8810, 21554.00
481.0670, 20000.00
482.2530, 18786.00
483.4390, 17317.00
484.6250, 16117.00
485.8100, 14950.00
486.9960, 13866.00
488.1810, 12972.00
489.3660, 12223.00
490.5510, 11597.00
491.7360, 11237.00
492.9200, 10821.00
494.1050, 10559.00
495.2890, 10221.00
496.4730, 10013.96
497.6570, 9820.987
498.8400, 9750.633
500.0240, 9660.646
501.2070, 9553.317
502.3910, 9319.927
503.5740, 9292.318
504.7570, 9208.570
505.9400, 9140.518
507.1220, 9195.539
508.3050, 9077.123
509.4870, 9167.979
510.6690, 9201.521
511.8510, 9197.000
513.0330, 9208.000
514.2140, 9252.000
515.3960, 9203.000
516.5770, 9219.000
517.7580, 9293.000
518.9390, 9218.000
520.1200, 9279.000
521.3010, 9372.000
522.4810, 9283.000
523.6610, 9322.000
524.8420, 9271.000
526.0220, 9402.000
527.2010, 9241.000
528.3810, 9315.000
529.5610, 9383.000
530.7400, 9541.000
531.9190, 9595.000
533.0980, 9679.000
534.2770, 9733.148
535.4560, 9775.000
536.6340, 9800.000
537.8120, 9801.000
538.9910, 9844.000
540.1690, 9924.000
541.3460, 9993.000
542.5240, 10154.00
543.7020, 10184.29
544.8790, 10430.50
546.0560, 10553.15
547.2330, 10555.34
548.4100, 10274.28
549.5870, 10207.48
550.7630, 10078.00
551.9400, 9988.000
553.1160, 9806.000
554.2920, 9803.000
555.4680, 9666.000
556.6440, 9734.000
557.8190, 9722.000
558.9950, 9652.000
560.1700, 9607.000
561.3450, 9462.000
562.5200, 9539.000
563.6950, 9389.000
564.8690, 9367.000
566.0440, 9410.000
567.2180, 9378.000
568.3920, 9576.000
569.5660, 9442.000
570.7400, 9407.000
571.9130, 9457.000
573.0870, 9266.000
574.2600, 9479.000
575.4330, 9341.000
576.6060, 9414.000
577.7790, 9335.000
578.9520, 9221.000
580.1240, 9389.000
581.2960, 9378.000
582.4690, 9160.000
583.6410, 9237.000
584.8120, 9412.000
585.9840, 9218.000
587.1560, 9358.000
588.3270, 9408.000
589.4980, 9210.000
590.6690, 9327.000
591.8400, 9274.000
593.0110, 9198.000
594.1810, 9366.000
595.3510, 9335.000
596.5220, 9364.000
597.6920, 9321.000
598.8610, 9405.000
600.0310, 9286.000
601.2010, 9426.000
602.3700, 9338.000
603.5390, 9289.000
604.7080, 9400.000
605.8770, 9395.000
607.0460, 9213.000
608.2140, 9446.000
609.3830, 9520.000
610.5510, 9355.000
611.7190, 9466.000
612.8870, 9581.000
614.0550, 9574.000
615.2220, 9535.000
616.3900, 9580.000
617.5570, 9583.962
618.7240, 9657.000
619.8910, 9643.000
621.0580, 9682.000
622.2240, 9711.000
623.3910, 9795.000
624.5570, 9836.500
625.7230, 9874.951
626.8890, 9918.000
628.0550, 9968.000
629.2200, 9925.000
630.3860, 10013.00
631.5510, 9982.000
632.7160, 10035.00
633.8810, 9944.946
635.0460, 9967.325
636.2100, 9968.006
637.3750, 9947.977
638.5390, 9853.021
639.7030, 9848.955
640.8670, 9804.865
642.0310, 9842.000
643.1950, 9744.000
644.3580, 9791.000
645.5210, 9809.000
646.6850, 9858.000
647.8480, 9857.000
649.0100, 9853.435
650.1730, 9794.000
651.3350, 9808.000
652.4980, 9783.247
653.6600, 9662.000
654.8220, 9747.000
655.9840, 9737.000
657.1450, 9692.000
658.3070, 9793.000
659.4680, 9736.000
660.6300, 9703.000
661.7910, 9641.000
662.9510, 9751.000
664.1120, 9799.000
665.2730, 9848.000
666.4330, 9727.000
667.5930, 9688.000
668.7530, 9707.000
669.9130, 9753.000
671.0730, 9609.000
672.2320, 9682.000
673.3920, 9699.000
674.5510, 9787.000
675.7100, 9892.000
676.8690, 9671.000
678.0280, 9802.000
679.1860, 9659.000
680.3450, 9724.000
681.5030, 9534.000
682.6610, 9774.000
683.8190, 9732.000
684.9770, 9624.000
686.1340, 9621.000
687.2920, 9613.488
688.4490, 9611.563
689.6060, 9667.000
690.7630, 9691.000
691.9200, 9738.000
693.0760, 9748.253
694.2330, 9788.000
695.3890, 9754.000
696.5450, 9786.672
697.7010, 9776.000
698.8570, 9784.000
700.0130, 9798.574
701.1680, 9792.755
702.3230, 9809.000
703.4780, 9811.000
704.6330, 9794.000
705.7880, 9836.000
706.9430, 9819.075
708.0970, 9876.000
709.2520, 9828.000
710.4060, 9760.000
711.5600, 9784.000
712.7140, 9775.743
713.8670, 9672.000
715.0210, 9836.000
716.1740, 9888.000
717.3270, 9935.000
718.4800, 9826.000
719.6330, 9834.000
720.7860, 10005.00
721.9380, 9962.000
723.0910, 9749.000
724.2430, 9728.000
725.3950, 9903.000
726.5470, 9827.000
727.6980, 9858.000
728.8500, 9885.000
730.0010, 9777.000
731.1530, 9917.000
732.3040, 9855.000
733.4550, 9931.000
734.6050, 9922.000
735.7560, 9914.000
736.9060, 9867.000
738.0560, 10004.00
739.2060, 9908.000
740.3560, 9971.000
741.5060, 10086.00
742.6560, 10055.00
743.8050, 10056.00
744.9540, 10038.00
746.1030, 10062.00
747.2520, 10093.00
748.4010, 9983.000
749.5500, 9978.000
750.6980, 10019.00
751.8460, 9927.000
752.9950, 10135.00
754.1420, 10137.00
755.2900, 10122.00
756.4380, 10035.00
757.5850, 10010.00
758.7330, 9982.000
759.8800, 10034.00
761.0270, 10097.00
762.1730, 10021.00
763.3200, 10090.00
764.4670, 10093.00
765.6130, 10162.00
766.7590, 10091.00
767.9050, 10038.00
769.0510, 10136.00
770.1960, 10149.00
771.3420, 10120.00
772.4870, 10072.00
773.6320, 10092.00
774.7770, 10097.00
775.9220, 10161.00
777.0670, 10147.00
778.2110, 10197.00
779.3560, 10096.00
780.5000, 10151.00
781.6440, 10137.19
782.7880, 10235.00
783.9320, 10188.00
785.0750, 10188.00
786.2180, 10302.00
787.3620, 10338.00
788.5050, 10375.00
789.6480, 10234.00
790.7900, 10222.00
791.9330, 10226.00
793.0750, 10167.00
794.2170, 10296.00
795.3590, 10212.00
796.5010, 10363.00
797.6430, 10376.00
798.7850, 10447.00
799.9260, 10187.00
801.0670, 10279.00
802.2080, 10244.00
803.3490, 10356.00
804.4900, 10340.00
805.6310, 10350.00
806.7710, 10389.00
807.9110, 10337.00
809.0510, 10510.00
810.1910, 10412.00
811.3310, 10657.00
812.4710, 10490.00
813.6100, 10408.00
814.7490, 10584.00
815.8880, 10555.00
817.0270, 10686.00
818.1660, 10639.00
819.3050, 10746.00
820.4430, 10905.00
821.5820, 10986.00
822.7200, 10974.00
823.8580, 11172.00
824.9950, 11356.00
826.1330, 11340.00
827.2710, 11245.00
828.4080, 11255.00
829.5450, 11176.22
830.6820, 11132.00
831.8190, 11035.00
832.9560, 10983.00
834.0920, 10886.00
835.2280, 10846.00
836.3650, 10821.00
837.5010, 10670.00
838.6360, 10587.00
839.7720, 10678.00
840.9080, 10511.00
842.0430, 10519.00
843.1780, 10597.00
844.3130, 10561.00
845.4480, 10520.00
846.5830, 10670.00
847.7170, 10677.00
848.8520, 10608.00
849.9860, 10688.00
851.1200, 10661.00
852.2540, 10638.00
853.3870, 10564.00
854.5210, 10588.00
855.6540, 10647.00
856.7880, 10626.00
857.9210, 10620.00
859.0540, 10673.68
860.1860, 10575.00
861.3190, 10737.00
862.4510, 10752.00
863.5840, 10737.00
864.7160, 10822.00
865.8480, 10771.00
866.9790, 10802.00
868.1110, 10696.00
869.2420, 10641.00
870.3740, 10607.00
871.5050, 10877.00
872.6360, 10817.00
873.7660, 10958.00
874.8970, 10830.00
876.0280, 10859.00
877.1580, 10814.00
878.2880, 10828.00
879.4180, 10855.00
880.5480, 10917.00
881.6770, 10825.00
882.8070, 10859.00
883.9360, 10839.00
885.0650, 10733.00
886.1940, 10932.00
887.3230, 10893.00
888.4520, 10977.00
889.5800, 10892.00
890.7090, 11124.00
891.8370, 10952.00
892.9650, 11034.00
894.0930, 10953.00
895.2200, 10830.00
896.3480, 10904.00
897.4750, 10976.00
898.6020, 11005.00
899.7290, 11064.00
900.8560, 10993.00
901.9830, 11011.00
903.1090, 10986.00
904.2360, 11160.00
905.3620, 11105.00
906.4880, 11175.00
907.6140, 10996.00
908.7400, 11074.00
909.8650, 11112.00
910.9900, 11093.00
912.1160, 11168.00
913.2410, 11082.00
914.3660, 11240.00
915.4900, 11174.00
916.6150, 11192.00
917.7390, 11290.00
918.8640, 11222.00
919.9880, 11333.00
921.1120, 11273.00
922.2350, 11203.00
923.3590, 11225.00
924.4820, 11346.00
925.6060, 11195.00
926.7290, 11354.00
927.8520, 11255.00
928.9740, 11287.00
930.0970, 11442.00
931.2190, 11359.00
932.3420, 11297.00
933.4640, 11476.00
934.5860, 11349.00
935.7080, 11435.00
936.8290, 11305.00
937.9510, 11437.00
939.0720, 11275.00
940.1930, 11352.00
941.3140, 11374.00
942.4350, 11418.00
943.5560, 11492.00
944.6760, 11488.00
945.7960, 11513.00
946.9170, 11510.95
948.0370, 11460.00
949.1560, 11463.00
950.2760, 11453.00
951.3960, 11400.00
952.5150, 11611.00
953.6340, 11626.00
954.7530, 11467.00
955.8720, 11709.00
956.9910, 11573.00
958.1090, 11519.00
959.2280, 11539.00
960.3460, 11441.00
961.4640, 11527.00
962.5820, 11653.00
963.6990, 11498.00
964.8170, 11437.00
965.9340, 11530.00
967.0510, 11546.00
968.1690, 11677.00
969.2850, 11525.00
970.4020, 11590.00
971.5190, 11569.00
972.6350, 11617.00
973.7510, 11608.00
974.8670, 11558.00
975.9830, 11677.00
977.0990, 11495.00
978.2150, 11708.00
979.3300, 11573.00
980.4450, 11743.00
981.5600, 11757.00
982.6750, 11867.00
983.7900, 11723.00
984.9050, 11756.00
986.0190, 11760.00
987.1340, 11894.00
988.2480, 11878.00
989.3620, 11790.00
990.4750, 11720.00
991.5890, 11819.00
992.7020, 11737.00
993.8160, 11704.00
994.9290, 11880.00
996.0420, 11847.00
997.1550, 11863.00
998.2670, 11900.00
999.3800, 11829.00
1000.492, 11857.00
1001.604, 11890.00
1002.716, 11716.00
1003.828, 11812.00
1004.940, 11617.00
1006.051, 11622.00
1007.163, 11791.00
1008.274, 11837.00
1009.385, 11863.00
1010.496, 11893.00
1011.606, 11924.00
1012.717, 11815.00
1013.827, 11886.00
1014.937, 11848.00
1016.047, 12018.00
1017.157, 11908.00
1018.267, 11908.00
1019.377, 11927.00
1020.486, 11840.00
1021.595, 11908.00
1022.704, 12035.00
1023.813, 12010.00
1024.922, 12043.00
1026.030, 12014.00
1027.139, 11980.00
1028.247, 12049.00
1029.355, 12004.00
1030.463, 11924.00
1031.571, 11990.00
1032.678, 12017.00
1033.786, 12174.00
1034.893, 12018.00
1036.000, 12112.00
1037.107, 12168.00
1038.214, 12107.00
1039.321, 12306.00
1040.427, 12072.00
1041.533, 12102.00
1042.639, 12138.00
1043.745, 12276.00
1044.851, 12379.00
1045.957, 12389.29
1047.062, 12311.00
1048.168, 12426.00
1049.273, 12335.00
1050.378, 12358.00
1051.482, 12545.00
1052.587, 12553.00
1053.692, 12365.00
1054.796, 12642.00
1055.900, 12483.00
1057.004, 12461.00
1058.108, 12579.00
1059.212, 12634.00
1060.315, 12687.30
1061.418, 12756.14
1062.522, 12792.00
1063.625, 12809.00
1064.728, 12788.00
1065.830, 12712.00
1066.933, 12826.00
1068.035, 12902.00
1069.137, 12750.00
1070.239, 12763.00
1071.341, 12867.00
1072.443, 13024.00
1073.545, 12835.00
1074.646, 12901.00
1075.747, 12778.00
1076.848, 13000.00
1077.949, 12864.00
1079.050, 12798.00
1080.150, 12906.00
1081.251, 12742.00
1082.351, 12750.00
1083.451, 12568.00
1084.551, 12691.00
1085.651, 12632.00
1086.750, 12623.00
1087.850, 12670.00
1088.949, 12591.00
1090.048, 12613.00
1091.147, 12562.00
1092.246, 12574.00
1093.345, 12551.00
1094.443, 12393.00
1095.541, 12476.00
1096.639, 12359.00
1097.737, 12373.00
1098.835, 12544.00
1099.933, 12447.00
1101.030, 12448.00
1102.128, 12527.00
1103.225, 12561.00
1104.322, 12583.00
1105.419, 12705.00
1106.515, 12675.00
1107.612, 12517.00
1108.708, 12483.62
1109.804, 12632.19
1110.900, 12723.33
1111.996, 12760.12
1113.092, 12579.77
1114.187, 12679.79
1115.283, 12667.46
1116.378, 12650.51
1117.473, 12789.99
1118.568, 12641.21
1119.662, 12778.20
1120.757, 12801.12
1121.851, 12876.24
1122.946, 12838.32
1124.040, 12835.29
1125.134, 12945.37
1126.227, 12992.81
1127.321, 12941.85
1128.414, 13020.27
1129.508, 12867.53
1130.601, 13039.00
1131.693, 12935.00
1132.786, 12937.00
1133.879, 12922.00
1134.971, 12993.00
1136.064, 12882.00
1137.156, 13052.00
1138.248, 13090.00
1139.339, 12982.00
1140.431, 13051.00
1141.522, 13161.00
1142.614, 13050.00
1143.705, 13161.00
1144.796, 12999.00
1145.887, 13214.00
1146.977, 13183.00
1148.068, 13082.00
1149.158, 13209.00
1150.248, 13112.00
1151.338, 13127.00
1152.428, 13099.00
1153.518, 13224.00
1154.607, 13170.00
1155.696, 13250.00
1156.785, 13296.00
1157.874, 13213.00
1158.963, 13140.00
1160.052, 13098.00
1161.141, 13075.53
1162.229, 13307.00
1163.317, 13088.00
1164.405, 13260.00
1165.493, 13313.00
1166.581, 13244.00
1167.668, 13217.00
1168.756, 13154.00
1169.843, 13147.00
1170.930, 13131.00
1172.017, 13135.00
1173.103, 13248.00
1174.190, 13163.00
1175.276, 13058.00
1176.363, 13094.00
1177.449, 13211.00
1178.535, 13127.00
1179.620, 12964.00
1180.706, 13210.00
1181.791, 13045.00
1182.877, 13089.00
1183.962, 13090.00
1185.047, 13251.00
1186.131, 13081.00
1187.216, 13212.00
1188.300, 13066.00
1189.385, 12927.00
1190.469, 13011.00
1191.553, 13007.00
1192.637, 12992.00
1193.720, 13001.00
1194.804, 13040.42
1195.887, 13139.00
1196.970, 13105.00
1198.053, 13264.00
1199.136, 13223.00
1200.219, 13077.00
1201.301, 13213.00
1202.383, 13109.00
1203.465, 13207.00
1204.547, 12973.00
1205.629, 13238.00
1206.711, 13073.00
1207.792, 13168.00
1208.874, 13236.00
1209.955, 13063.00
1211.036, 13186.00
1212.117, 13199.00
1213.198, 13223.00
1214.278, 13161.00
1215.359, 13090.00
1216.439, 13133.00
1217.519, 13113.00
1218.599, 13147.02
1219.678, 13180.36
1220.758, 13246.00
1221.837, 13238.00
1222.917, 13291.00
1223.996, 13277.00
1225.075, 13138.00
1226.153, 13268.00
1227.232, 13141.00
1228.310, 13135.00
1229.389, 13192.00
1230.467, 13140.00
1231.545, 13253.00
1232.622, 13223.00
1233.700, 13213.00
1234.777, 13230.00
1235.855, 13285.00
1236.932, 13204.00
1238.009, 13251.00
1239.086, 13202.00
1240.162, 13422.00
1241.239, 13281.00
1242.315, 13169.00
1243.391, 13318.00
1244.467, 13108.00
1245.543, 13275.00
1246.619, 13357.00
1247.694, 13253.00
1248.769, 13322.00
1249.844, 13274.00
1250.919, 13218.00
1251.994, 13442.00
1253.069, 13312.00
1254.144, 13265.00
1255.218, 13201.00
1256.292, 13359.00
1257.366, 13157.00
1258.440, 13379.00
1259.514, 13470.00
1260.587, 13232.00
1261.661, 13451.00
1262.734, 13317.00
1263.807, 13460.00
1264.880, 13414.00
1265.952, 13327.00
1267.025, 13450.00
1268.097, 13546.00
1269.170, 13456.00
1270.242, 13519.00
1271.314, 13403.00
1272.385, 13428.00
1273.457, 13421.00
1274.528, 13483.00
1275.600, 13393.00
1276.671, 13511.00
1277.742, 13547.00
1278.812, 13630.00
1279.883, 13400.00
1280.954, 13547.00
1282.024, 13518.00
1283.094, 13731.00
1284.164, 13669.00
1285.234, 13570.00
1286.303, 13393.00
1287.373, 13546.00
1288.442, 13412.00
1289.511, 13397.00
1290.580, 13603.00
1291.649, 13651.00
1292.718, 13610.00
1293.786, 13527.00
1294.855, 13543.00
1295.923, 13561.00
1296.991, 13629.00
1298.059, 13583.00
1299.126, 13563.00
1300.194, 13679.00
1301.261, 13675.00
1302.328, 13744.00
1303.395, 13737.00
1304.462, 13678.00
1305.529, 13746.00
1306.596, 13601.00
1307.662, 13687.00
1308.728, 13744.00
1309.794, 13658.00
1310.860, 13642.00
1311.926, 13745.00
1312.991, 13808.00
1314.057, 13654.00
1315.122, 13695.00
1316.187, 13733.00
1317.252, 13800.00
1318.317, 13930.00
1319.381, 13829.00
1320.446, 13702.00
1321.510, 13843.00
1322.574, 13826.00
1323.638, 13702.00
1324.702, 13906.00
1325.766, 13639.00
1326.829, 13889.00
1327.892, 13794.00
1328.956, 13867.00
1330.019, 13821.00
1331.081, 13849.00
1332.144, 13789.00
1333.206, 13711.00
1334.269, 13923.00
1335.331, 13943.00
1336.393, 13859.00
1337.455, 13903.00
1338.516, 13882.00
1339.578, 13872.00
1340.639, 13929.00
1341.701, 13934.00
1342.762, 13942.58
1343.822, 14065.00
1344.883, 13954.00
1345.944, 13955.00
1347.004, 13961.00
1348.064, 14113.00
1349.124, 14004.00
1350.184, 13943.00
1351.244, 14023.00
1352.304, 13881.00
1353.363, 13995.00
1354.422, 13900.00
1355.481, 14032.00
1356.540, 14144.00
1357.599, 14214.00
1358.657, 14163.00
1359.716, 14214.00
1360.774, 14327.00
1361.832, 14085.00
1362.890, 14011.00
1363.948, 14082.00
1365.006, 14081.00
1366.063, 14127.00
1367.120, 14126.00
1368.178, 14255.00
1369.234, 14093.00
1370.291, 14266.00
1371.348, 14266.00
1372.404, 14372.00
1373.461, 14363.65
1374.517, 14276.00
1375.573, 14259.00
1376.629, 14233.00
1377.684, 14076.00
1378.740, 14211.00
1379.795, 14156.00
1380.850, 14401.00
1381.905, 14312.00
1382.960, 14221.00
1384.015, 14171.00
1385.070, 14183.00
1386.124, 14229.00
1387.178, 14286.00
1388.232, 14238.00
1389.286, 14347.00
1390.340, 14190.00
1391.393, 14354.00
1392.447, 14373.00
1393.500, 14230.00
1394.553, 14373.00
1395.606, 14365.00
1396.659, 14407.00
1397.711, 14406.00
1398.764, 14438.00
1399.816, 14421.26
1400.868, 14357.00
1401.920, 14389.00
1402.972, 14249.00
1404.023, 14243.00
1405.075, 14304.00
1406.126, 14360.00
1407.177, 14371.00
1408.228, 14435.00
1409.279, 14277.00
1410.330, 14398.00
1411.380, 14403.00
1412.431, 14285.00
1413.481, 14493.00
1414.531, 14557.00
1415.580, 14296.00
1416.630, 14360.00
1417.680, 14453.00
1418.729, 14456.00
1419.778, 14524.00
1420.827, 14493.00
1421.876, 14545.00
1422.925, 14546.00
1423.973, 14558.00
1425.022, 14633.00
1426.070, 14687.00
1427.118, 14589.00
1428.166, 14576.00
1429.214, 14643.00
1430.261, 14526.00
1431.309, 14569.00
1432.356, 14477.00
1433.403, 14586.00
1434.450, 14555.00
1435.497, 14661.00
1436.543, 14560.00
1437.590, 14506.00
1438.636, 14639.00
1439.682, 14717.00
1440.728, 14704.00
1441.774, 14618.00
1442.819, 14597.00
1443.865, 14596.00
1444.910, 14718.00
1445.955, 14686.00
1447.000, 14807.00
1448.045, 14699.00
1449.090, 14788.00
1450.134, 14635.00
1451.178, 14855.00
1452.223, 14808.00
1453.267, 14805.00
1454.310, 14875.00
1455.354, 14783.00
1456.398, 14708.00
1457.441, 14710.00
1458.484, 14739.00
1459.527, 14713.00
1460.570, 14683.00
1461.613, 14692.00
1462.655, 14794.00
1463.698, 14781.00
1464.740, 14849.00
1465.782, 14889.00
1466.824, 14700.00
1467.866, 14816.00
1468.907, 14708.00
1469.948, 14833.00
1470.990, 14755.00
1472.031, 14950.00
1473.072, 14879.00
1474.112, 14955.00
1475.153, 14987.00
1476.194, 14976.00
1477.234, 14868.00
1478.274, 14946.00
1479.314, 14771.00
1480.354, 15062.00
1481.393, 14875.00
1482.433, 14909.00
1483.472, 15084.00
1484.511, 14989.00
1485.550, 15109.00
1486.589, 15064.00
1487.628, 15107.00
1488.666, 15025.00
1489.704, 15082.00
1490.743, 15079.00
1491.781, 15096.00
1492.819, 15087.00
1493.856, 14968.00
1494.894, 14959.00
1495.931, 15130.00
1496.968, 14921.00
1498.005, 14971.00
1499.042, 15137.00
1500.079, 15126.00
1501.115, 15062.00
1502.152, 15254.00
1503.188, 15207.00
1504.224, 15300.00
1505.260, 15330.94
1506.296, 15278.00
1507.331, 15303.00
1508.367, 15189.00
1509.402, 15049.00
1510.437, 15045.00
1511.472, 15089.00
1512.507, 15132.00
1513.541, 15199.00
1514.576, 15318.00
1515.610, 15178.00
1516.644, 15302.00
1517.678, 15137.00
1518.712, 15276.00
1519.746, 15262.00
1520.779, 15182.00
1521.813, 15262.00
1522.846, 15283.00
1523.879, 15224.00
1524.912, 15154.00
1525.944, 15209.00
1526.977, 15185.00
1528.009, 15204.00
1529.041, 15406.00
1530.073, 15501.00
1531.105, 15360.00
1532.137, 15228.00
1533.168, 15256.00
1534.200, 15403.00
1535.231, 15316.00
1536.262, 15342.00
1537.293, 15273.00
1538.324, 15446.00
1539.354, 15288.00
1540.385, 15507.00
1541.415, 15562.00
1542.445, 15477.00
1543.475, 15587.00
1544.505, 15528.00
1545.534, 15549.00
1546.564, 15556.00
1547.593, 15302.00
1548.622, 15431.00
1549.651, 15388.00
1550.680, 15434.00
1551.708, 15463.00
1552.737, 15375.00
1553.765, 15542.00
1554.793, 15658.00
1555.821, 15662.00
1556.849, 15693.56
1557.877, 15459.00
1558.904, 15587.00
1559.932, 15627.00
1560.959, 15513.00
1561.986, 15621.00
1563.013, 15438.00
1564.039, 15653.00
1565.066, 15469.00
1566.092, 15570.00
1567.119, 15444.00
1568.145, 15660.00
1569.170, 15570.00
1570.196, 15445.00
1571.222, 15638.00
1572.247, 15647.00
1573.272, 15686.00
1574.297, 15611.00
1575.322, 15783.00
1576.347, 15786.00
1577.372, 15675.00
##END=



