##NAMES=Paravauxite
##RRUFFID=R040179
##IDEAL CHEMISTRY=Fe^2+^Al_2_(PO_4_)_2_(OH)_2_&#183;8H_2_O
##LOCALITY=Mina Siglo XX, Llallagua, Bolivia
##OWNER=RRUFF
##SOURCE=University of Arizona Mineral Museum
##DESCRIPTION=Colorless short prismatic crystals in subparallel groups
##STATUS=The identification of this mineral has been confirmed by X-ray diffraction and chemical analysis
##URL=rruff.info/R040179
##MEASURED CHEMISTRY=(Fe_0.93_Mg_0.03_Mn_0.02_)Al_1.94_(P_2.05_O_4_)_2_((OH)_0.99_F_0.01_)_2_Â·8H_2_O
##PIN_ID=M01446
##ORIENTATION=Laser parallel to (-1 0 -1). Fiducial mark perpendicular to laser is parallel to b [0 1 0]
62.17000, 743.0000
63.41600, 800.0000
64.66100, 813.0000
65.90700, 811.0000
67.15200, 851.0000
68.39700, 848.0000
69.64100, 812.0000
70.88600, 918.0000
72.13000, 859.0000
73.37400, 914.0000
74.61800, 959.0000
75.86200, 1143.000
77.10600, 1209.000
78.34900, 1317.000
79.59300, 1449.000
80.83600, 1740.000
82.07900, 1975.000
83.32100, 2229.000
84.56400, 2670.000
85.80600, 3082.000
87.04800, 3579.000
88.29000, 4278.000
89.53200, 4945.000
90.77400, 5783.000
92.01500, 6741.000
93.25700, 7852.000
94.49800, 8861.000
95.73900, 10095.00
96.98000, 11371.00
98.22000, 12917.00
99.46100, 14128.00
100.7010, 15631.00
101.9410, 17094.00
103.1810, 18614.00
104.4210, 19894.00
105.6600, 21392.91
106.9000, 22861.00
108.1390, 24112.00
109.3780, 25313.00
110.6170, 26367.00
111.8550, 27433.00
113.0940, 28547.00
114.3320, 29439.00
115.5700, 30547.00
116.8080, 31335.00
118.0460, 31780.00
119.2830, 32537.00
120.5210, 33573.00
121.7580, 33960.00
122.9950, 34239.00
124.2320, 34134.00
125.4690, 34310.00
126.7050, 34156.00
127.9410, 34255.00
129.1780, 34321.00
130.4140, 34334.00
131.6490, 34341.00
132.8850, 34239.00
134.1200, 34478.00
135.3560, 34088.00
136.5910, 34647.00
137.8260, 34673.00
139.0610, 34641.00
140.2950, 34327.00
141.5290, 34353.00
142.7640, 34201.00
143.9980, 34317.00
145.2320, 33877.00
146.4650, 33426.00
147.6990, 33396.00
148.9320, 33110.00
150.1650, 32784.00
151.3980, 32391.00
152.6310, 32232.00
153.8640, 32394.00
155.0960, 32442.00
156.3280, 32606.00
157.5600, 33152.00
158.7920, 33768.00
160.0240, 34550.00
161.2560, 35384.00
162.4870, 36003.00
163.7180, 36965.00
164.9490, 37376.00
166.1800, 37871.00
167.4110, 37953.00
168.6410, 37562.00
169.8720, 37303.00
171.1020, 36636.00
172.3320, 36275.00
173.5620, 35636.00
174.7910, 35529.00
176.0210, 35027.00
177.2500, 34633.00
178.4790, 34779.00
179.7080, 34705.00
180.9370, 34722.00
182.1650, 34659.00
183.3940, 34966.00
184.6220, 34564.00
185.8500, 35101.00
187.0780, 35392.00
188.3050, 35358.00
189.5330, 35820.00
190.7600, 36151.00
191.9870, 36156.00
193.2140, 36516.00
194.4410, 36589.00
195.6680, 36736.00
196.8940, 36826.00
198.1200, 36714.00
199.3470, 36344.00
200.5720, 35609.00
201.7980, 34956.00
203.0240, 34263.00
204.2490, 34073.00
205.4740, 34133.00
206.6990, 33832.00
207.9240, 33739.00
209.1490, 33307.00
210.3740, 33562.00
211.5980, 33571.00
212.8220, 33485.00
214.0460, 33659.00
215.2700, 33659.00
216.4930, 33777.00
217.7170, 34019.00
218.9400, 34370.00
220.1630, 34700.25
221.3860, 34983.00
222.6090, 35663.00
223.8320, 36407.00
225.0540, 37165.00
226.2760, 38363.00
227.4980, 39755.00
228.7200, 40621.00
229.9420, 41706.00
231.1630, 42333.00
232.3850, 43601.00
233.6060, 44238.00
234.8270, 44741.00
236.0480, 44659.00
237.2690, 44266.00
238.4890, 43564.00
239.7090, 42487.00
240.9290, 41690.00
242.1490, 40585.00
243.3690, 39529.00
244.5890, 38370.00
245.8080, 37753.00
247.0270, 37346.00
248.2470, 36591.00
249.4650, 36229.00
250.6840, 35834.00
251.9030, 35344.00
253.1210, 35426.00
254.3390, 35292.00
255.5570, 35187.00
256.7750, 35151.00
257.9930, 35048.00
259.2100, 35286.00
260.4280, 35186.00
261.6450, 35427.00
262.8620, 35503.00
264.0790, 35503.00
265.2950, 35890.00
266.5120, 36226.00
267.7280, 36572.00
268.9440, 37091.00
270.1600, 38016.00
271.3760, 38446.00
272.5920, 39430.00
273.8070, 40705.00
275.0220, 41529.00
276.2370, 42914.00
277.4520, 43702.00
278.6670, 45154.00
279.8820, 45656.00
281.0960, 46376.00
282.3100, 46868.00
283.5240, 47244.00
284.7380, 46736.00
285.9520, 46292.00
287.1650, 45794.00
288.3780, 45316.00
289.5920, 44518.00
290.8050, 43956.00
292.0170, 43863.00
293.2300, 43462.00
294.4430, 43390.00
295.6550, 43125.00
296.8670, 43031.00
298.0790, 42359.00
299.2910, 42221.00
300.5020, 41810.00
301.7140, 40986.00
302.9250, 40343.00
304.1360, 39794.00
305.3470, 39497.00
306.5580, 38919.00
307.7680, 38518.00
308.9780, 37744.00
310.1890, 37569.00
311.3990, 37330.00
312.6090, 37043.00
313.8180, 36944.00
315.0280, 36812.00
316.2370, 36596.00
317.4460, 36462.00
318.6550, 36470.00
319.8640, 36345.00
321.0730, 35997.00
322.2810, 36321.00
323.4890, 36106.00
324.6980, 35877.00
325.9060, 36122.00
327.1130, 35694.00
328.3210, 36092.00
329.5280, 35704.00
330.7360, 35717.00
331.9430, 35929.00
333.1500, 35794.00
334.3560, 35710.00
335.5630, 35943.00
336.7690, 35771.00
337.9760, 35532.00
339.1820, 35549.00
340.3870, 35416.00
341.5930, 35642.00
342.7990, 35597.00
344.0040, 35743.00
345.2090, 35740.88
346.4140, 35657.00
347.6190, 35733.00
348.8240, 35762.00
350.0280, 35815.00
351.2330, 35520.00
352.4370, 35861.00
353.6410, 36160.00
354.8440, 36036.00
356.0480, 35860.00
357.2520, 36140.00
358.4550, 36205.00
359.6580, 36453.00
360.8610, 36570.00
362.0640, 36718.00
363.2660, 36704.00
364.4690, 36949.00
365.6710, 37342.00
366.8730, 37337.00
368.0750, 37328.00
369.2770, 37665.00
370.4780, 38092.00
371.6800, 38113.00
372.8810, 38460.00
374.0820, 38316.00
375.2830, 38637.00
376.4830, 38703.00
377.6840, 39077.00
378.8840, 39141.00
380.0840, 39258.00
381.2840, 39510.00
382.4840, 39412.00
383.6840, 39699.00
384.8830, 39482.00
386.0830, 39601.00
387.2820, 40076.00
388.4810, 40007.00
389.6800, 39669.00
390.8780, 40262.00
392.0770, 40592.00
393.2750, 40668.00
394.4730, 41136.00
395.6710, 41407.00
396.8690, 41519.00
398.0660, 41770.00
399.2640, 42233.00
400.4610, 42611.00
401.6580, 42858.00
402.8550, 42717.00
404.0520, 42932.00
405.2490, 42676.00
406.4450, 42928.00
407.6410, 42845.00
408.8370, 42787.00
410.0330, 42776.00
411.2290, 42683.42
412.4240, 42338.00
413.6200, 42516.00
414.8150, 42424.00
416.0100, 42285.00
417.2050, 42447.00
418.4000, 42733.00
419.5940, 43026.00
420.7880, 43336.95
421.9830, 43743.48
423.1770, 44110.00
424.3700, 44605.00
425.5640, 45125.00
426.7580, 45567.00
427.9510, 45939.00
429.1440, 46565.00
430.3370, 46894.00
431.5300, 47157.00
432.7220, 47300.00
433.9150, 47173.00
435.1070, 46910.00
436.2990, 46398.00
437.4910, 45854.00
438.6830, 45300.00
439.8750, 44626.00
441.0660, 44429.00
442.2570, 44209.00
443.4480, 43422.00
444.6390, 43525.00
445.8300, 43365.00
447.0210, 43376.00
448.2110, 43089.00
449.4010, 42895.00
450.5910, 43050.00
451.7810, 43169.00
452.9710, 43325.00
454.1610, 43342.00
455.3500, 43830.00
456.5390, 43862.00
457.7280, 44000.00
458.9170, 44427.00
460.1060, 44835.00
461.2940, 45065.23
462.4830, 45651.00
463.6710, 45744.00
464.8590, 46110.00
466.0470, 46647.00
467.2350, 46981.00
468.4220, 47376.00
469.6090, 47717.22
470.7970, 48020.98
471.9840, 48262.00
473.1700, 48491.00
474.3570, 48652.00
475.5440, 48629.00
476.7300, 48614.62
477.9160, 48491.00
479.1020, 48345.00
480.2880, 48335.00
481.4740, 48178.00
482.6590, 47637.00
483.8440, 47688.00
485.0300, 47363.00
486.2140, 46544.00
487.3990, 46540.00
488.5840, 46265.00
489.7680, 46138.00
490.9530, 45786.00
492.1370, 45475.66
493.3210, 45383.88
494.5040, 45246.55
495.6880, 45066.76
496.8720, 44661.87
498.0550, 44590.79
499.2380, 44412.24
500.4210, 44247.27
501.6040, 44276.72
502.7860, 44001.23
503.9690, 44065.37
505.1510, 44144.00
506.3330, 43953.00
507.5150, 44252.00
508.6970, 43947.00
509.8780, 44316.00
511.0600, 44044.00
512.2410, 44435.00
513.4220, 44258.00
514.6030, 44503.00
515.7840, 44307.00
516.9640, 44792.00
518.1440, 44640.00
519.3250, 44847.00
520.5050, 45131.00
521.6850, 45736.00
522.8640, 45754.00
524.0440, 45945.00
525.2230, 46033.00
526.4020, 46276.00
527.5820, 46628.00
528.7600, 46977.00
529.9390, 47269.00
531.1180, 47663.00
532.2960, 47827.00
533.4740, 48141.68
534.6520, 48606.00
535.8300, 48682.00
537.0080, 48814.00
538.1850, 49145.00
539.3630, 49397.00
540.5400, 49832.00
541.7170, 50076.00
542.8940, 50251.34
544.0700, 50526.00
545.2470, 50657.00
546.4230, 50261.00
547.5990, 50719.00
548.7750, 50635.00
549.9510, 50993.00
551.1270, 50990.00
552.3020, 51097.00
553.4780, 51322.00
554.6530, 51569.00
555.8280, 51800.00
557.0030, 51818.00
558.1770, 52220.00
559.3520, 52165.00
560.5260, 52473.00
561.7000, 53162.00
562.8740, 53032.00
564.0480, 54001.00
565.2220, 54078.00
566.3950, 54207.00
567.5680, 54497.00
568.7420, 54233.00
569.9150, 54195.00
571.0870, 54574.00
572.2600, 54337.00
573.4320, 54593.00
574.6050, 54528.00
575.7770, 54284.00
576.9490, 54127.00
578.1210, 54105.55
579.2920, 54142.00
580.4640, 54060.00
581.6350, 54034.00
582.8060, 54002.00
583.9770, 53694.00
585.1480, 53534.00
586.3190, 53723.00
587.4890, 53050.00
588.6590, 52988.00
589.8290, 52410.00
590.9990, 52561.00
592.1690, 51845.00
593.3390, 51767.00
594.5080, 51424.00
595.6770, 51023.00
596.8470, 51035.00
598.0160, 50444.00
599.1840, 50411.00
600.3530, 49850.00
601.5210, 49914.00
602.6900, 49372.00
603.8580, 48841.00
605.0260, 49056.00
606.1930, 48547.00
607.3610, 48498.00
608.5280, 48174.00
609.6960, 48285.00
610.8630, 48037.00
612.0300, 47818.00
613.1970, 47656.00
614.3630, 47487.00
615.5300, 47176.00
616.6960, 47156.97
617.8620, 47305.00
619.0280, 47036.00
620.1940, 47175.00
621.3590, 47107.00
622.5250, 47271.00
623.6900, 47072.00
624.8550, 47422.00
626.0200, 47498.00
627.1850, 47619.00
628.3490, 47962.00
629.5140, 47769.00
630.6780, 47814.00
631.8420, 48375.00
633.0060, 48435.00
634.1700, 48314.00
635.3330, 49114.00
636.4970, 48946.00
637.6600, 49330.00
638.8230, 49646.00
639.9860, 49595.00
641.1490, 49850.00
642.3110, 50237.00
643.4740, 50388.00
644.6360, 50140.00
645.7980, 50580.00
646.9600, 50239.00
648.1220, 50336.00
649.2840, 50065.00
650.4450, 50346.00
651.6060, 49748.00
652.7670, 49877.00
653.9280, 50153.00
655.0890, 49699.00
656.2500, 49801.00
657.4100, 49355.00
658.5700, 49222.00
659.7300, 49037.00
660.8900, 49282.00
662.0500, 48897.00
663.2100, 49147.00
664.3690, 48798.00
665.5280, 48794.00
666.6880, 48597.00
667.8460, 48750.00
669.0050, 48922.00
670.1640, 48756.00
671.3220, 48855.34
672.4810, 48629.53
673.6390, 48729.14
674.7970, 48767.70
675.9540, 48562.39
677.1120, 48671.99
678.2690, 48655.38
679.4270, 48633.61
680.5840, 48787.52
681.7410, 48617.67
682.8980, 48768.79
684.0540, 48791.77
685.2110, 48873.40
686.3670, 48828.05
687.5230, 48821.91
688.6790, 48914.00
689.8350, 49304.00
690.9900, 49024.00
692.1460, 49126.00
693.3010, 48903.00
694.4560, 49459.00
695.6110, 49121.00
696.7660, 49445.00
697.9210, 49406.00
699.0750, 49326.00
700.2290, 49483.00
701.3840, 49798.00
702.5370, 49530.00
703.6910, 49978.00
704.8450, 49715.00
705.9980, 50196.00
707.1520, 50050.00
708.3050, 50117.00
709.4580, 50267.00
710.6110, 50255.00
711.7630, 50623.00
712.9160, 50334.00
714.0680, 50725.00
715.2200, 50449.00
716.3720, 50623.00
717.5240, 50643.00
718.6760, 50685.00
719.8270, 50960.00
720.9780, 50821.00
722.1300, 51064.00
723.2810, 50820.00
724.4310, 50929.00
725.5820, 50743.00
726.7330, 51006.00
727.8830, 51132.00
729.0330, 50759.00
730.1830, 51167.00
731.3330, 51036.00
732.4830, 51161.00
733.6320, 51344.00
734.7810, 51156.00
735.9310, 51309.00
737.0800, 51386.00
738.2290, 51365.00
739.3770, 51451.00
740.5260, 51565.00
741.6740, 51334.00
742.8220, 51727.00
743.9700, 51416.00
745.1180, 51520.00
746.2660, 51661.00
747.4130, 51784.00
748.5610, 51660.00
749.7080, 51860.00
750.8550, 51882.00
752.0020, 52124.00
753.1490, 51960.00
754.2950, 51951.00
755.4420, 52014.00
756.5880, 52261.00
757.7340, 52432.00
758.8800, 52210.00
760.0250, 52124.00
761.1710, 52039.00
762.3160, 52097.00
763.4620, 52126.37
764.6070, 52289.00
765.7520, 52229.00
766.8960, 52443.00
768.0410, 52308.00
769.1850, 52528.00
770.3300, 52595.00
771.4740, 52820.00
772.6180, 52643.00
773.7610, 52696.00
774.9050, 53115.00
776.0480, 52520.00
777.1920, 52953.00
778.3350, 52769.00
779.4780, 53031.00
780.6200, 53091.00
781.7630, 53471.00
782.9060, 53448.00
784.0480, 53224.00
785.1900, 53396.00
786.3320, 53424.00
787.4740, 53183.00
788.6150, 53400.00
789.7570, 53580.00
790.8980, 53580.00
792.0390, 53313.00
793.1800, 53382.00
794.3210, 53570.00
795.4620, 53756.00
796.6020, 54001.00
797.7420, 53774.00
798.8830, 53818.00
800.0230, 53979.00
801.1620, 54088.00
802.3020, 54502.00
803.4420, 54188.00
804.5810, 53931.00
805.7200, 54594.00
806.8590, 54334.00
807.9980, 54525.00
809.1370, 54541.00
810.2750, 54714.00
811.4140, 54754.00
812.5520, 54830.00
813.6900, 54741.00
814.8280, 54878.68
815.9650, 54879.00
817.1030, 55167.00
818.2400, 55210.00
819.3780, 55554.00
820.5150, 55338.00
821.6520, 55442.00
822.7880, 55329.00
823.9250, 55414.00
825.0610, 55732.00
826.1980, 55675.00
827.3340, 56007.00
828.4700, 55704.00
829.6050, 55979.00
830.7410, 55938.00
831.8760, 55960.00
833.0120, 56001.00
834.1470, 56114.00
835.2820, 56076.00
836.4160, 56202.00
837.5510, 56626.00
838.6860, 56479.00
839.8200, 56642.00
840.9540, 56440.00
842.0880, 56843.00
843.2220, 56953.00
844.3550, 56510.00
845.4890, 57004.00
846.6220, 57160.00
847.7550, 57359.00
848.8880, 57233.00
850.0210, 57096.00
851.1540, 57129.00
852.2860, 57445.00
853.4190, 57418.00
854.5510, 57418.00
855.6830, 57595.00
856.8150, 57465.00
857.9460, 57608.00
859.0780, 57631.17
860.2090, 57630.60
861.3410, 57714.00
862.4720, 57767.00
863.6020, 57810.00
864.7330, 58052.00
865.8640, 58177.00
866.9940, 58212.00
868.1240, 58064.00
869.2540, 58358.00
870.3840, 58310.00
871.5140, 58195.00
872.6440, 58605.00
873.7730, 58505.00
874.9020, 58645.00
876.0320, 58364.00
877.1600, 58429.00
878.2890, 58320.00
879.4180, 58940.00
880.5460, 58820.00
881.6750, 58854.00
882.8030, 59042.00
883.9310, 58719.00
885.0590, 58856.00
886.1860, 59008.00
887.3140, 59309.00
888.4410, 59127.00
889.5680, 59381.00
890.6950, 59485.00
891.8220, 59765.00
892.9490, 59739.00
894.0750, 59647.00
895.2020, 59976.00
896.3280, 60122.00
897.4540, 60288.00
898.5800, 59745.00
899.7050, 60126.00
900.8310, 60156.00
901.9560, 60202.00
903.0820, 60691.00
904.2070, 60640.00
905.3320, 60740.00
906.4560, 60812.00
907.5810, 60916.00
908.7050, 61225.00
909.8300, 61025.00
910.9540, 61218.00
912.0780, 61558.00
913.2010, 61565.03
914.3250, 61691.23
915.4480, 61802.00
916.5720, 61811.00
917.6950, 61700.00
918.8180, 61898.00
919.9410, 62006.00
921.0630, 62038.00
922.1860, 62528.00
923.3080, 62370.00
924.4300, 62695.00
925.5520, 62804.00
926.6740, 62880.00
927.7960, 63046.75
928.9170, 63117.75
930.0390, 63223.00
931.1600, 63305.00
932.2810, 63385.00
933.4020, 63480.33
934.5230, 63686.00
935.6430, 63719.00
936.7640, 63936.00
937.8840, 63988.00
939.0040, 64012.00
940.1240, 64540.00
941.2440, 64780.00
942.3630, 64605.00
943.4830, 64597.00
944.6020, 64861.00
945.7210, 65208.00
946.8400, 65046.00
947.9590, 65087.00
949.0770, 65641.00
950.1960, 65282.00
951.3140, 65463.00
952.4320, 65652.00
953.5500, 66109.00
954.6680, 66374.00
955.7860, 66858.00
956.9030, 66489.00
958.0210, 67115.00
959.1380, 67146.00
960.2550, 67286.00
961.3720, 68122.00
962.4890, 68411.00
963.6050, 68887.00
964.7220, 69414.00
965.8380, 69739.00
966.9540, 69765.00
968.0700, 70819.00
969.1860, 71511.00
970.3010, 71764.00
971.4170, 72702.00
972.5320, 73322.00
973.6470, 74567.42
974.7620, 76107.41
975.8770, 77594.73
976.9910, 79064.00
978.1060, 81092.00
979.2200, 83754.00
980.3340, 86937.00
981.4480, 90551.00
982.5620, 94433.00
983.6760, 99756.00
984.7890, 105813.0
985.9030, 110970.0
987.0160, 118412.0
988.1290, 124291.0
989.2420, 129789.0
990.3550, 133369.0
991.4670, 135465.0
992.5800, 134484.0
993.6920, 132742.0
994.8040, 129014.0
995.9160, 123662.0
997.0280, 118543.0
998.1390, 113245.0
999.2510, 107910.0
1000.362, 103723.0
1001.473, 98705.00
1002.584, 94398.00
1003.695, 90256.00
1004.805, 86577.62
1005.916, 82908.00
1007.026, 80285.00
1008.136, 77862.00
1009.246, 75451.00
1010.356, 74257.00
1011.466, 72814.00
1012.576, 71778.00
1013.685, 70812.00
1014.794, 69798.00
1015.903, 69421.00
1017.012, 68936.00
1018.121, 68545.00
1019.229, 68173.00
1020.338, 67969.00
1021.446, 68098.00
1022.554, 67513.00
1023.662, 67385.00
1024.770, 67447.00
1025.878, 67088.00
1026.985, 67107.00
1028.092, 66992.00
1029.200, 67026.00
1030.307, 66981.00
1031.413, 66566.00
1032.520, 66666.00
1033.627, 66764.00
1034.733, 67015.00
1035.839, 67007.49
1036.945, 67027.00
1038.051, 67012.00
1039.157, 67001.02
1040.262, 67095.00
1041.368, 67002.00
1042.473, 67171.00
1043.578, 67269.00
1044.683, 67260.00
1045.788, 67446.00
1046.893, 67907.00
1047.997, 68045.00
1049.101, 68339.00
1050.205, 68506.00
1051.309, 68920.16
1052.413, 69314.00
1053.517, 69817.00
1054.621, 70246.00
1055.724, 70754.00
1056.827, 70802.00
1057.930, 70880.00
1059.033, 70768.00
1060.136, 70677.71
1061.238, 70479.30
1062.341, 70309.00
1063.443, 69910.00
1064.545, 69653.00
1065.647, 69283.19
1066.749, 69028.00
1067.850, 68730.00
1068.952, 68411.00
1070.053, 68183.00
1071.154, 68557.00
1072.255, 68418.00
1073.356, 68261.00
1074.457, 67919.00
1075.557, 68125.00
1076.658, 68189.00
1077.758, 68179.00
1078.858, 68202.00
1079.958, 68266.00
1081.057, 68404.00
1082.157, 68451.45
1083.256, 68634.00
1084.356, 68469.00
1085.455, 68624.00
1086.554, 68647.20
1087.653, 68879.00
1088.751, 68713.61
1089.850, 68823.00
1090.948, 68791.00
1092.046, 68911.00
1093.144, 69012.00
1094.242, 68850.00
1095.340, 68883.00
1096.437, 68930.00
1097.534, 69297.00
1098.632, 69504.00
1099.729, 69524.00
1100.826, 69247.00
1101.922, 69583.00
1103.019, 69363.00
1104.115, 69532.00
1105.212, 69662.00
1106.308, 69832.00
1107.404, 69687.00
1108.499, 69686.00
1109.595, 69679.17
1110.691, 69616.64
1111.786, 69662.00
1112.881, 69605.00
1113.976, 69734.00
1115.071, 69821.00
1116.166, 69826.31
1117.260, 69780.00
1118.355, 69857.00
1119.449, 70009.00
1120.543, 69945.00
1121.637, 70302.00
1122.731, 69668.00
1123.824, 70219.00
1124.918, 69951.00
1126.011, 70436.00
1127.104, 69958.00
1128.197, 70269.00
1129.290, 70185.00
1130.382, 70307.00
1131.475, 70357.00
1132.567, 70418.00
1133.659, 70414.00
1134.751, 70544.00
1135.843, 70659.00
1136.935, 70770.00
1138.027, 70771.88
1139.118, 70833.80
1140.209, 70728.00
1141.300, 70934.00
1142.391, 70918.00
1143.482, 71120.00
1144.573, 71235.00
1145.663, 70869.00
1146.754, 71350.00
1147.844, 71423.00
1148.934, 71202.00
1150.024, 71967.00
1151.113, 71538.00
1152.203, 71636.00
1153.292, 71898.00
1154.381, 71909.00
1155.470, 72189.00
1156.559, 72195.66
1157.648, 72223.97
1158.737, 72310.00
1159.825, 72253.00
1160.913, 72454.00
1162.001, 72613.00
1163.089, 72708.67
1164.177, 72678.00
1165.265, 73049.00
1166.352, 72984.00
1167.440, 73210.00
1168.527, 73170.00
1169.614, 72898.00
1170.701, 72800.00
1171.788, 73138.00
1172.874, 73138.00
1173.961, 73148.00
1175.047, 73324.00
1176.133, 73287.00
1177.219, 72992.00
1178.305, 73278.00
1179.390, 72943.00
1180.476, 72858.00
1181.561, 72949.00
1182.646, 72932.00
1183.731, 73168.00
1184.816, 73304.00
1185.901, 73675.00
1186.985, 73121.00
1188.070, 73163.00
1189.154, 73347.00
1190.238, 73159.00
1191.322, 73600.00
1192.406, 73458.00
1193.489, 73454.00
1194.573, 73454.00
1195.656, 73257.00
1196.739, 73523.00
1197.822, 73588.00
1198.905, 73566.00
1199.988, 73546.00
1201.070, 73668.74
1202.153, 73595.00
1203.235, 73960.00
1204.317, 73906.00
1205.399, 74178.00
1206.481, 73796.00
1207.562, 73696.00
1208.644, 74005.00
1209.725, 74155.00
1210.806, 74424.00
1211.887, 74018.00
1212.968, 74280.00
1214.049, 74268.00
1215.129, 74256.00
1216.209, 74272.00
1217.290, 74362.00
1218.370, 74409.00
1219.450, 74143.00
1220.529, 74617.00
1221.609, 74403.00
1222.688, 74575.00
1223.768, 74678.00
1224.847, 74927.00
1225.926, 74887.00
1227.005, 74934.00
1228.083, 75273.00
1229.162, 74971.00
1230.240, 75195.95
1231.318, 75214.00
1232.396, 75256.00
1233.474, 75435.00
1234.552, 75300.00
1235.629, 75259.00
1236.707, 75138.00
1237.784, 75241.24
1238.861, 75439.05
1239.938, 75572.37
1241.015, 75644.65
1242.092, 75473.06
1243.168, 75616.32
1244.244, 75633.38
1245.321, 75645.33
1246.397, 75832.91
1247.473, 75696.75
1248.548, 75881.49
1249.624, 75938.17
1250.699, 76053.45
1251.775, 76041.78
1252.850, 76124.32
1253.925, 76090.00
1254.999, 76211.00
1256.074, 76327.00
1257.148, 76343.00
1258.223, 76288.00
1259.297, 76279.00
1260.371, 76467.00
1261.445, 76235.00
1262.519, 76657.00
1263.592, 76796.00
1264.666, 76357.00
1265.739, 76573.00
1266.812, 76532.00
1267.885, 76973.00
1268.958, 77049.00
1270.030, 76880.00
1271.103, 77302.00
1272.175, 77188.00
1273.247, 77191.00
1274.319, 77409.00
1275.391, 77352.00
1276.463, 77459.00
1277.535, 77598.00
1278.606, 77610.00
1279.677, 77440.00
1280.748, 77366.00
1281.819, 77427.00
1282.890, 77568.00
1283.961, 77628.00
1285.031, 77758.00
1286.102, 77913.00
1287.172, 77638.00
1288.242, 78011.00
1289.312, 77984.00
1290.381, 77781.00
1291.451, 78435.00
1292.520, 78317.00
1293.590, 78079.00
1294.659, 78350.00
1295.728, 78163.00
1296.797, 78642.00
1297.865, 78436.00
1298.934, 78589.00
1300.002, 78458.00
1301.070, 78434.00
1302.138, 78253.00
1303.206, 78586.00
1304.274, 78674.00
1305.341, 78777.00
1306.409, 78780.00
1307.476, 78859.00
1308.543, 78905.00
1309.610, 78989.00
1310.677, 79042.00
1311.744, 79077.24
1312.810, 79193.23
1313.877, 79178.00
1314.943, 79370.00
1316.009, 79520.00
1317.075, 79532.00
1318.140, 79338.00
1319.206, 79532.00
1320.272, 79799.00
1321.337, 79389.00
1322.402, 79706.00
1323.467, 79931.00
1324.532, 79700.00
1325.596, 79757.00
1326.661, 80056.00
1327.725, 80010.63
1328.790, 80088.70
1329.854, 80039.00
1330.918, 80239.00
1331.981, 80258.54
1333.045, 80118.00
1334.108, 80442.00
1335.172, 80155.00
1336.235, 80274.00
1337.298, 80387.00
1338.361, 80301.00
1339.423, 80355.00
1340.486, 80256.00
1341.548, 80879.00
1342.611, 80678.00
1343.673, 80733.00
1344.735, 80689.00
1345.796, 80469.00
1346.858, 80657.00
1347.919, 80699.00
1348.981, 80988.00
1350.042, 80865.00
1351.103, 81111.00
1352.164, 81085.00
1353.225, 81100.00
1354.285, 81237.00
1355.346, 81261.00
1356.406, 81160.00
1357.466, 81730.00
1358.526, 81933.00
1359.586, 81782.00
1360.645, 81216.00
1361.705, 81533.00
1362.764, 81431.00
1363.823, 81217.00
1364.882, 81754.00
1365.941, 81733.00
1367.000, 82235.00
1368.059, 82114.00
1369.117, 82080.00
1370.175, 81889.00
1371.233, 82107.00
1372.291, 82024.00
1373.349, 81955.00
1374.407, 82369.00
1375.464, 82071.00
1376.522, 81875.00
1377.579, 82114.00
1378.636, 82357.00
1379.693, 82089.00
1380.750, 82011.00
1381.806, 82547.00
1382.863, 82269.00
1383.919, 82577.00
1384.975, 82257.00
1386.031, 82576.00
1387.087, 82217.00
1388.143, 82699.00
1389.199, 82718.00
1390.254, 83002.00
1391.309, 83020.00
1392.364, 83320.00
1393.419, 82976.00
1394.474, 83083.00
1395.529, 83033.00
1396.583, 83129.00
1397.638, 83210.28
1398.692, 83666.00
1399.746, 83452.73
1400.800, 83437.00
1401.853, 83641.00
1402.907, 83009.00
1403.960, 83385.00
1405.014, 83142.00
1406.067, 83638.00
1407.120, 83688.00
1408.173, 83837.00
1409.225, 83911.00
1410.278, 84213.00
1411.330, 83852.00
1412.383, 83388.00
1413.435, 84034.00
1414.487, 84201.00
1415.538, 83894.00
1416.590, 84139.00
1417.641, 84280.00
1418.693, 83940.00
1419.744, 84247.00
1420.795, 84209.00
1421.846, 84337.00
1422.897, 84234.00
1423.947, 84358.10
1424.998, 84448.00
1426.048, 84487.00
1427.098, 84663.00
1428.148, 84610.00
1429.198, 84890.00
1430.247, 85244.00
1431.297, 85058.00
1432.346, 84910.00
1433.396, 85396.00
1434.445, 85072.00
1435.494, 85513.00
1436.542, 85189.00
1437.591, 85084.00
1438.639, 85300.00
1439.688, 85391.00
1440.736, 85850.00
1441.784, 85641.00
1442.832, 85787.00
1443.880, 85816.00
1444.927, 85542.00
1445.975, 86290.00
1447.022, 85558.00
1448.069, 86059.00
1449.116, 86304.00
1450.163, 86292.00
1451.209, 86184.00
1452.256, 86316.00
1453.302, 86367.00
1454.348, 86532.00
1455.394, 86290.00
1456.440, 86793.00
1457.486, 86713.00
1458.532, 86092.00
1459.577, 86243.00
1460.623, 86356.00
1461.668, 86593.00
1462.713, 86630.33
1463.758, 86488.00
1464.802, 86800.00
1465.847, 86993.00
1466.891, 87191.00
1467.936, 86681.00
1468.980, 87120.00
1470.024, 86688.00
1471.067, 86873.00
1472.111, 86863.00
1473.155, 86918.00
1474.198, 86880.00
1475.241, 87359.00
1476.284, 87234.00
1477.327, 87489.00
1478.370, 87102.00
1479.413, 87330.00
1480.455, 87137.00
1481.497, 87254.00
1482.540, 87604.00
1483.582, 87028.00
1484.624, 87782.00
1485.665, 87624.00
1486.707, 87563.00
1487.748, 87379.00
1488.790, 87168.00
1489.831, 87390.00
1490.872, 87951.00
1491.912, 87600.00
1492.953, 87743.00
1493.994, 87718.00
1495.034, 87746.00
1496.074, 87967.00
1497.114, 87702.00
1498.154, 88108.00
1499.194, 87927.00
1500.234, 88264.00
1501.273, 88216.00
1502.313, 88189.00
1503.352, 88080.00
1504.391, 88681.00
1505.430, 88773.00
1506.468, 88488.00
1507.507, 88820.00
1508.545, 88383.00
1509.584, 88614.00
1510.622, 89077.00
1511.660, 88702.00
1512.698, 88856.00
1513.735, 88948.00
1514.773, 89276.00
1515.810, 89251.38
1516.848, 89336.00
1517.885, 89238.00
1518.922, 89435.00
1519.958, 89297.00
1520.995, 89248.00
1522.032, 89706.00
1523.068, 89567.00
1524.104, 89631.00
1525.140, 89788.00
1526.176, 89307.00
1527.212, 89828.00
1528.248, 89149.00
1529.283, 89700.00
1530.318, 89922.00
1531.353, 90179.00
1532.389, 89914.00
1533.423, 89900.00
1534.458, 89878.00
1535.493, 89946.00
1536.527, 89901.74
1537.561, 90298.00
1538.596, 89999.00
1539.630, 90017.00
1540.663, 90347.00
1541.697, 89884.00
1542.731, 90574.00
1543.764, 90214.00
1544.797, 90813.00
1545.830, 90531.00
1546.863, 90467.00
1547.896, 90725.00
1548.929, 90976.00
1549.961, 90604.00
1550.994, 90927.00
1552.026, 90662.00
1553.058, 91265.00
1554.090, 90909.00
1555.121, 90734.00
1556.153, 91264.00
1557.185, 90951.00
1558.216, 91286.00
1559.247, 91293.00
1560.278, 91300.00
1561.309, 91301.00
1562.340, 90916.00
1563.370, 91388.00
1564.401, 91435.00
1565.431, 91198.00
1566.461, 91649.00
1567.491, 91113.00
1568.521, 90745.00
1569.551, 91230.00
1570.580, 91635.00
1571.610, 91698.00
1572.639, 91411.00
1573.668, 91924.00
1574.697, 91733.00
1575.726, 91800.00
1576.754, 92133.00
1577.783, 92083.00
1578.811, 92464.00
1579.839, 92018.00
##END=



