##NAMES=Paravauxite
##RRUFFID=R040179
##IDEAL CHEMISTRY=Fe^2+^Al_2_(PO_4_)_2_(OH)_2_&#183;8H_2_O
##LOCALITY=Mina Siglo XX, Llallagua, Bolivia
##OWNER=RRUFF
##SOURCE=University of Arizona Mineral Museum
##DESCRIPTION=Colorless short prismatic crystals in subparallel groups
##STATUS=The identification of this mineral has been confirmed by X-ray diffraction and chemical analysis
##URL=rruff.info/R040179
##MEASURED CHEMISTRY=(Fe_0.93_Mg_0.03_Mn_0.02_)Al_1.94_(P_2.05_O_4_)_2_((OH)_0.99_F_0.01_)_2_Â·8H_2_O
##PIN_ID=M01446
##ORIENTATION=Laser parallel to (-1 0 -1). Fiducial mark perpendicular to laser is parallel to b [0 1 0]
62.17000, 808.0000
63.41600, 865.0000
64.66100, 785.0000
65.90700, 851.0000
67.15200, 918.0000
68.39700, 925.0000
69.64100, 880.0000
70.88600, 930.0000
72.13000, 959.0000
73.37400, 944.0000
74.61800, 1065.000
75.86200, 1158.000
77.10600, 1234.347
78.34900, 1411.985
79.59300, 1523.000
80.83600, 1784.000
82.07900, 2107.000
83.32100, 2362.000
84.56400, 2794.000
85.80600, 3245.000
87.04800, 3826.000
88.29000, 4506.000
89.53200, 5329.000
90.77400, 6117.000
92.01500, 7109.000
93.25700, 8255.000
94.49800, 9555.000
95.73900, 10780.00
96.98000, 12180.00
98.22000, 13558.00
99.46100, 15078.00
100.7010, 16597.00
101.9410, 18167.00
103.1810, 19479.00
104.4210, 21076.00
105.6600, 22549.00
106.9000, 23533.00
108.1390, 24982.00
109.3780, 26316.00
110.6170, 27756.00
111.8550, 28365.00
113.0940, 29363.00
114.3320, 30224.00
115.5700, 31239.00
116.8080, 31961.00
118.0460, 32802.00
119.2830, 33322.00
120.5210, 34194.00
121.7580, 34590.00
122.9950, 34578.00
124.2320, 34730.00
125.4690, 34458.00
126.7050, 34602.00
127.9410, 34647.00
129.1780, 34614.13
130.4140, 34700.87
131.6490, 34687.00
132.8850, 34745.00
134.1200, 34738.00
135.3560, 34722.00
136.5910, 34918.00
137.8260, 34855.00
139.0610, 35050.00
140.2950, 34810.00
141.5290, 34903.00
142.7640, 35051.00
143.9980, 35006.00
145.2320, 34868.41
146.4650, 34446.00
147.6990, 34407.00
148.9320, 34232.00
150.1650, 33989.00
151.3980, 33989.00
152.6310, 34255.00
153.8640, 34676.00
155.0960, 34927.00
156.3280, 35164.00
157.5600, 35856.00
158.7920, 36954.00
160.0240, 37594.00
161.2560, 38717.00
162.4870, 39508.00
163.7180, 40476.00
164.9490, 41044.00
166.1800, 41313.00
167.4110, 41481.00
168.6410, 41673.00
169.8720, 41277.00
171.1020, 41139.00
172.3320, 40568.00
173.5620, 40025.00
174.7910, 39984.00
176.0210, 40183.00
177.2500, 39966.00
178.4790, 40243.00
179.7080, 40558.00
180.9370, 40310.00
182.1650, 40470.00
183.3940, 40308.00
184.6220, 40382.00
185.8500, 40121.00
187.0780, 39804.00
188.3050, 39816.00
189.5330, 39611.00
190.7600, 39329.00
191.9870, 38949.00
193.2140, 38733.00
194.4410, 38890.00
195.6680, 38696.00
196.8940, 38125.00
198.1200, 38390.00
199.3470, 37914.00
200.5720, 37689.00
201.7980, 37500.00
203.0240, 37304.00
204.2490, 36896.00
205.4740, 36788.00
206.6990, 36723.40
207.9240, 36726.28
209.1490, 36873.00
210.3740, 36930.00
211.5980, 37246.00
212.8220, 37230.00
214.0460, 37421.00
215.2700, 37698.00
216.4930, 37704.00
217.7170, 38169.00
218.9400, 38650.00
220.1630, 39319.00
221.3860, 39702.00
222.6090, 40743.00
223.8320, 41733.00
225.0540, 42962.00
226.2760, 44468.00
227.4980, 45880.00
228.7200, 47513.00
229.9420, 49115.00
231.1630, 50644.00
232.3850, 51613.00
233.6060, 52163.00
234.8270, 52490.09
236.0480, 52251.17
237.2690, 51932.00
238.4890, 50730.00
239.7090, 49573.00
240.9290, 47907.00
242.1490, 46558.00
243.3690, 44822.00
244.5890, 43915.00
245.8080, 42654.00
247.0270, 41964.00
248.2470, 40730.00
249.4650, 40280.00
250.6840, 39637.00
251.9030, 39667.00
253.1210, 39338.00
254.3390, 39162.00
255.5570, 39076.00
256.7750, 38974.00
257.9930, 39008.73
259.2100, 39047.00
260.4280, 39200.00
261.6450, 39442.00
262.8620, 39644.00
264.0790, 39957.00
265.2950, 40638.00
266.5120, 41027.00
267.7280, 41690.00
268.9440, 42665.00
270.1600, 43637.00
271.3760, 45223.00
272.5920, 46627.00
273.8070, 48482.00
275.0220, 50059.00
276.2370, 52371.00
277.4520, 53876.00
278.6670, 55940.00
279.8820, 56980.00
281.0960, 58195.00
282.3100, 58554.00
283.5240, 59069.00
284.7380, 58351.00
285.9520, 57401.00
287.1650, 56363.00
288.3780, 54913.00
289.5920, 54190.00
290.8050, 53220.00
292.0170, 53186.00
293.2300, 52770.00
294.4430, 52428.00
295.6550, 51913.00
296.8670, 51345.54
298.0790, 50710.89
299.2910, 49964.00
300.5020, 49189.00
301.7140, 48249.00
302.9250, 47324.00
304.1360, 46505.00
305.3470, 45524.00
306.5580, 44920.00
307.7680, 44099.00
308.9780, 43392.00
310.1890, 42507.00
311.3990, 42159.00
312.6090, 41493.00
313.8180, 40841.00
315.0280, 40623.00
316.2370, 40389.00
317.4460, 40171.00
318.6550, 39981.08
319.8640, 39735.00
321.0730, 39599.00
322.2810, 39490.00
323.4890, 39274.00
324.6980, 39288.00
325.9060, 39204.00
327.1130, 39323.00
328.3210, 39146.00
329.5280, 39341.00
330.7360, 39223.00
331.9430, 39107.00
333.1500, 39232.00
334.3560, 39145.00
335.5630, 39270.00
336.7690, 39092.00
337.9760, 39348.00
339.1820, 39416.00
340.3870, 39274.00
341.5930, 39347.00
342.7990, 39059.00
344.0040, 39409.00
345.2090, 39413.00
346.4140, 39260.00
347.6190, 39788.00
348.8240, 39622.00
350.0280, 39584.00
351.2330, 39543.00
352.4370, 39584.98
353.6410, 39941.00
354.8440, 39943.00
356.0480, 40150.00
357.2520, 40704.00
358.4550, 40282.00
359.6580, 40662.00
360.8610, 40338.00
362.0640, 40667.00
363.2660, 40905.00
364.4690, 41098.00
365.6710, 41363.43
366.8730, 41489.00
368.0750, 41813.00
369.2770, 42000.00
370.4780, 42234.00
371.6800, 42395.82
372.8810, 42592.00
374.0820, 42669.00
375.2830, 43058.00
376.4830, 43243.00
377.6840, 43516.00
378.8840, 43496.00
380.0840, 43937.00
381.2840, 43787.00
382.4840, 44033.00
383.6840, 44041.00
384.8830, 44072.00
386.0830, 44264.00
387.2820, 44125.83
388.4810, 44590.59
389.6800, 44931.36
390.8780, 45154.64
392.0770, 44909.29
393.2750, 45269.12
394.4730, 45386.36
395.6710, 45493.66
396.8690, 45938.69
398.0660, 45761.23
399.2640, 46200.90
400.4610, 46098.00
401.6580, 46480.00
402.8550, 46736.00
404.0520, 47159.00
405.2490, 47414.00
406.4450, 47523.02
407.6410, 47682.00
408.8370, 47512.00
410.0330, 47362.00
411.2290, 47046.00
412.4240, 47236.00
413.6200, 47103.00
414.8150, 47356.00
416.0100, 47310.00
417.2050, 47239.00
418.4000, 47532.00
419.5940, 47430.00
420.7880, 47451.00
421.9830, 47836.00
423.1770, 48185.00
424.3700, 48604.00
425.5640, 49017.00
426.7580, 49257.00
427.9510, 49635.00
429.1440, 49966.00
430.3370, 50443.00
431.5300, 50300.00
432.7220, 50323.00
433.9150, 50220.00
435.1070, 50005.00
436.2990, 49430.00
437.4910, 48996.00
438.6830, 48368.00
439.8750, 47805.00
441.0660, 47558.00
442.2570, 46756.00
443.4480, 46364.00
444.6390, 46165.00
445.8300, 45621.00
447.0210, 45488.00
448.2110, 45429.00
449.4010, 45126.00
450.5910, 45274.00
451.7810, 45037.00
452.9710, 44910.00
454.1610, 45170.00
455.3500, 44901.00
456.5390, 44968.00
457.7280, 44974.00
458.9170, 45053.00
460.1060, 45082.00
461.2940, 45126.00
462.4830, 44910.00
463.6710, 45090.00
464.8590, 45430.00
466.0470, 45112.00
467.2350, 45502.00
468.4220, 45426.00
469.6090, 45401.00
470.7970, 45490.00
471.9840, 45683.00
473.1700, 45361.00
474.3570, 45893.00
475.5440, 46154.00
476.7300, 46314.00
477.9160, 45752.00
479.1020, 45742.00
480.2880, 46194.00
481.4740, 45582.00
482.6590, 45861.00
483.8440, 45827.00
485.0300, 45982.00
486.2140, 45860.00
487.3990, 45602.00
488.5840, 45799.00
489.7680, 45466.05
490.9530, 45716.98
492.1370, 45854.51
493.3210, 45885.29
494.5040, 45457.85
495.6880, 45646.31
496.8720, 45602.75
498.0550, 45559.79
499.2380, 45865.12
500.4210, 45558.66
501.6040, 45879.73
502.7860, 45965.01
503.9690, 46173.62
505.1510, 46148.62
506.3330, 46209.54
507.5150, 46525.16
508.6970, 46624.00
509.8780, 46585.00
511.0600, 46796.00
512.2410, 47066.00
513.4220, 46866.00
514.6030, 47143.00
515.7840, 47041.00
516.9640, 47483.00
518.1440, 47676.00
519.3250, 47959.00
520.5050, 47956.00
521.6850, 48290.00
522.8640, 48484.00
524.0440, 48796.00
525.2230, 49139.00
526.4020, 49453.84
527.5820, 49777.29
528.7600, 50218.00
529.9390, 50349.00
531.1180, 50780.00
532.2960, 50925.00
533.4740, 51444.00
534.6520, 52035.00
535.8300, 52322.00
537.0080, 52482.00
538.1850, 53091.00
539.3630, 53281.00
540.5400, 53620.00
541.7170, 53684.00
542.8940, 54331.00
544.0700, 54615.00
545.2470, 54639.00
546.4230, 55029.00
547.5990, 54992.00
548.7750, 55315.00
549.9510, 55600.00
551.1270, 55841.22
552.3020, 56452.00
553.4780, 56619.00
554.6530, 56727.39
555.8280, 57371.53
557.0030, 57891.68
558.1770, 58294.19
559.3520, 58644.46
560.5260, 58767.29
561.7000, 59063.77
562.8740, 59440.00
564.0480, 59514.00
565.2220, 59751.00
566.3950, 59682.00
567.5680, 59744.00
568.7420, 59284.00
569.9150, 58604.00
571.0870, 57871.00
572.2600, 57554.00
573.4320, 56199.00
574.6050, 55432.00
575.7770, 54859.00
576.9490, 54256.00
578.1210, 53718.93
579.2920, 53210.05
580.4640, 52914.00
581.6350, 52221.00
582.8060, 52128.00
583.9770, 51615.00
585.1480, 51559.00
586.3190, 51542.00
587.4890, 51455.00
588.6590, 51311.00
589.8290, 50838.00
590.9990, 50975.00
592.1690, 50649.00
593.3390, 50955.00
594.5080, 50935.00
595.6770, 50804.00
596.8470, 50770.00
598.0160, 50663.00
599.1840, 50516.00
600.3530, 50652.00
601.5210, 50563.00
602.6900, 50685.00
603.8580, 50625.00
605.0260, 50503.00
606.1930, 50555.00
607.3610, 50324.00
608.5280, 50649.00
609.6960, 50803.00
610.8630, 50566.00
612.0300, 50735.00
613.1970, 50546.00
614.3630, 50617.00
615.5300, 50657.00
616.6960, 50376.00
617.8620, 50169.07
619.0280, 50507.19
620.1940, 50721.31
621.3590, 50818.06
622.5250, 50446.08
623.6900, 50679.37
624.8550, 50670.08
626.0200, 50650.84
627.1850, 50969.33
628.3490, 50665.45
629.5140, 51405.00
630.6780, 51246.00
631.8420, 51277.00
633.0060, 51560.00
634.1700, 51528.00
635.3330, 51708.00
636.4970, 52023.00
637.6600, 52221.00
638.8230, 52362.00
639.9860, 52340.00
641.1490, 52607.00
642.3110, 52579.00
643.4740, 52776.00
644.6360, 52688.00
645.7980, 52934.00
646.9600, 52638.00
648.1220, 52900.00
649.2840, 53026.00
650.4450, 53185.00
651.6060, 53153.81
652.7670, 52981.00
653.9280, 53014.00
655.0890, 52856.00
656.2500, 52841.00
657.4100, 52960.00
658.5700, 52680.00
659.7300, 53017.00
660.8900, 52863.66
662.0500, 52766.00
663.2100, 52677.00
664.3690, 52629.34
665.5280, 52557.00
666.6880, 52656.00
667.8460, 52553.00
669.0050, 52700.00
670.1640, 52676.18
671.3220, 52642.00
672.4810, 52620.00
673.6390, 52753.00
674.7970, 52566.00
675.9540, 52471.00
677.1120, 52622.87
678.2690, 52840.64
679.4270, 52982.15
680.5840, 53051.41
681.7410, 52832.20
682.8980, 52985.49
684.0540, 52989.46
685.2110, 52987.35
686.3670, 53193.04
687.5230, 53015.75
688.6790, 53027.00
689.8350, 53123.00
690.9900, 53376.00
692.1460, 53296.79
693.3010, 53500.61
694.4560, 53377.00
695.6110, 53677.00
696.7660, 53745.00
697.9210, 53662.00
699.0750, 53568.00
700.2290, 53946.00
701.3840, 54218.00
702.5370, 54010.00
703.6910, 54236.00
704.8450, 54129.00
705.9980, 54408.00
707.1520, 54394.00
708.3050, 54598.00
709.4580, 54555.76
710.6110, 54827.00
711.7630, 54559.00
712.9160, 54716.00
714.0680, 55012.00
715.2200, 55108.00
716.3720, 55327.00
717.5240, 55205.00
718.6760, 55488.00
719.8270, 55403.00
720.9780, 55136.00
722.1300, 55711.00
723.2810, 55335.00
724.4310, 55323.00
725.5820, 55298.00
726.7330, 55603.00
727.8830, 55499.00
729.0330, 55645.00
730.1830, 55589.00
731.3330, 55486.00
732.4830, 55337.00
733.6320, 55364.53
734.7810, 55713.00
735.9310, 55475.00
737.0800, 55676.00
738.2290, 55935.00
739.3770, 55747.00
740.5260, 56109.00
741.6740, 55760.00
742.8220, 56102.00
743.9700, 56247.00
745.1180, 56129.00
746.2660, 56217.00
747.4130, 56279.00
748.5610, 56281.00
749.7080, 56267.00
750.8550, 56364.00
752.0020, 56336.00
753.1490, 56223.00
754.2950, 56176.00
755.4420, 56517.00
756.5880, 56415.00
757.7340, 56590.00
758.8800, 56516.00
760.0250, 56699.00
761.1710, 56579.00
762.3160, 56480.00
763.4620, 56870.00
764.6070, 56449.00
765.7520, 56803.00
766.8960, 56780.00
768.0410, 56764.00
769.1850, 56778.00
770.3300, 56787.37
771.4740, 56779.29
772.6180, 56893.00
773.7610, 56866.00
774.9050, 57029.00
776.0480, 57094.81
777.1920, 57225.92
778.3350, 57334.00
779.4780, 57408.00
780.6200, 57605.00
781.7630, 57428.00
782.9060, 57304.00
784.0480, 57353.00
785.1900, 57587.00
786.3320, 57474.00
787.4740, 57682.00
788.6150, 57735.00
789.7570, 57732.00
790.8980, 57640.00
792.0390, 57954.00
793.1800, 57670.00
794.3210, 57848.00
795.4620, 58194.00
796.6020, 58218.00
797.7420, 58099.00
798.8830, 58067.00
800.0230, 58271.00
801.1620, 58390.00
802.3020, 58490.00
803.4420, 58739.00
804.5810, 58499.00
805.7200, 58850.00
806.8590, 58536.00
807.9980, 58845.00
809.1370, 58816.00
810.2750, 59249.00
811.4140, 58919.00
812.5520, 59506.00
813.6900, 59555.00
814.8280, 59523.00
815.9650, 59420.00
817.1030, 59515.00
818.2400, 59557.00
819.3780, 59974.00
820.5150, 59831.00
821.6520, 59743.00
822.7880, 59954.00
823.9250, 59754.00
825.0610, 60038.00
826.1980, 60105.00
827.3340, 60420.00
828.4700, 60285.00
829.6050, 60628.00
830.7410, 60345.00
831.8760, 60908.00
833.0120, 60536.00
834.1470, 60679.00
835.2820, 60727.00
836.4160, 60719.00
837.5510, 60889.00
838.6860, 61145.00
839.8200, 60951.00
840.9540, 61184.00
842.0880, 61207.00
843.2220, 61690.00
844.3550, 61344.00
845.4890, 61636.00
846.6220, 61884.00
847.7550, 61916.00
848.8880, 62053.81
850.0210, 62264.00
851.1540, 62079.00
852.2860, 62084.00
853.4190, 62023.00
854.5510, 62214.00
855.6830, 62508.00
856.8150, 62468.00
857.9460, 62579.00
859.0780, 62587.74
860.2090, 62916.86
861.3410, 63122.01
862.4720, 63209.79
863.6020, 62828.76
864.7330, 63053.09
865.8640, 63034.84
866.9940, 63006.60
868.1240, 63316.08
869.2540, 63003.23
870.3840, 63307.36
871.5140, 63365.21
872.6440, 63535.77
873.7730, 63462.21
874.9020, 63464.04
876.0320, 63710.07
877.1600, 63820.83
878.2890, 63719.17
879.4180, 63896.86
880.5460, 63575.41
881.6750, 63691.96
882.8030, 63997.44
883.9310, 63908.02
885.0590, 64090.13
886.1860, 64168.78
887.3140, 64212.00
888.4410, 64256.00
889.5680, 64260.00
890.6950, 64439.00
891.8220, 64726.00
892.9490, 64721.00
894.0750, 64542.00
895.2020, 65064.00
896.3280, 65038.00
897.4540, 65616.00
898.5800, 65343.00
899.7050, 65169.00
900.8310, 65927.00
901.9560, 65666.00
903.0820, 65634.00
904.2070, 65494.00
905.3320, 65820.00
906.4560, 65967.00
907.5810, 66359.00
908.7050, 66433.00
909.8300, 66083.00
910.9540, 66172.00
912.0780, 66304.00
913.2010, 66732.00
914.3250, 66745.00
915.4480, 67023.00
916.5720, 67118.00
917.6950, 67151.00
918.8180, 67560.00
919.9410, 67095.00
921.0630, 67494.00
922.1860, 67374.00
923.3080, 67756.00
924.4300, 67806.00
925.5520, 68064.00
926.6740, 68642.00
927.7960, 68065.00
928.9170, 69077.00
930.0390, 68646.00
931.1600, 69087.00
932.2810, 69114.00
933.4020, 69145.00
934.5230, 68961.00
935.6430, 69408.00
936.7640, 69629.00
937.8840, 69594.00
939.0040, 69776.00
940.1240, 69956.00
941.2440, 70097.14
942.3630, 70406.00
943.4830, 70523.00
944.6020, 70935.00
945.7210, 71188.00
946.8400, 71175.00
947.9590, 71484.00
949.0770, 71590.00
950.1960, 72004.00
951.3140, 72145.00
952.4320, 72426.00
953.5500, 72489.00
954.6680, 73054.00
955.7860, 73544.00
956.9030, 73763.00
958.0210, 74251.00
959.1380, 74340.00
960.2550, 74849.00
961.3720, 75390.00
962.4890, 75921.00
963.6050, 76637.00
964.7220, 77365.00
965.8380, 77991.00
966.9540, 78745.80
968.0700, 79562.00
969.1860, 80330.00
970.3010, 81437.00
971.4170, 82551.00
972.5320, 83839.00
973.6470, 85428.00
974.7620, 87249.00
975.8770, 89402.00
976.9910, 92058.00
978.1060, 95295.00
979.2200, 98985.00
980.3340, 103206.0
981.4480, 108627.0
982.5620, 115589.0
983.6760, 122858.0
984.7890, 131109.0
985.9030, 140074.0
987.0160, 150893.0
988.1290, 157882.0
989.2420, 165115.0
990.3550, 169411.0
991.4670, 170846.0
992.5800, 168643.0
993.6920, 163502.0
994.8040, 156350.0
995.9160, 148983.0
997.0280, 140289.0
998.1390, 131641.0
999.2510, 124827.0
1000.362, 117850.0
1001.473, 111659.0
1002.584, 105697.0
1003.695, 100179.0
1004.805, 95379.00
1005.916, 90912.00
1007.026, 87508.00
1008.136, 84754.00
1009.246, 82116.00
1010.356, 80782.00
1011.466, 78889.00
1012.576, 77500.00
1013.685, 76791.00
1014.794, 75239.00
1015.903, 74756.00
1017.012, 74315.00
1018.121, 73986.00
1019.229, 73433.00
1020.338, 72723.00
1021.446, 72567.00
1022.554, 72159.00
1023.662, 72205.00
1024.770, 71893.91
1025.878, 71330.00
1026.985, 71515.00
1028.092, 71205.00
1029.200, 71116.00
1030.307, 70957.00
1031.413, 71337.00
1032.520, 70473.00
1033.627, 71131.00
1034.733, 70989.00
1035.839, 70702.00
1036.945, 71042.00
1038.051, 70784.00
1039.157, 71233.00
1040.262, 70861.00
1041.368, 70818.00
1042.473, 70663.00
1043.578, 70572.00
1044.683, 71395.00
1045.788, 71604.00
1046.893, 71586.00
1047.997, 71241.00
1049.101, 71943.00
1050.205, 71763.00
1051.309, 71936.00
1052.413, 72614.00
1053.517, 72753.00
1054.621, 72937.00
1055.724, 73169.00
1056.827, 73187.00
1057.930, 73460.00
1059.033, 73224.00
1060.136, 73526.00
1061.238, 73411.00
1062.341, 73289.00
1063.443, 73073.00
1064.545, 72957.30
1065.647, 72727.00
1066.749, 72624.00
1067.850, 72335.00
1068.952, 72094.00
1070.053, 72255.00
1071.154, 72323.00
1072.255, 72079.00
1073.356, 72028.00
1074.457, 71671.00
1075.557, 72134.00
1076.658, 72443.00
1077.758, 71888.00
1078.858, 72192.00
1079.958, 72286.00
1081.057, 72372.00
1082.157, 72455.13
1083.256, 72535.53
1084.356, 72525.00
1085.455, 72632.00
1086.554, 72787.00
1087.653, 72723.00
1088.751, 72643.00
1089.850, 73311.00
1090.948, 73119.00
1092.046, 73167.00
1093.144, 73575.00
1094.242, 73328.00
1095.340, 73374.00
1096.437, 73619.00
1097.534, 73794.00
1098.632, 73593.00
1099.729, 73941.81
1100.826, 73959.00
1101.922, 74313.17
1103.019, 74473.77
1104.115, 74558.07
1105.212, 74570.15
1106.308, 74293.77
1107.404, 74389.88
1108.499, 74336.73
1109.595, 74277.45
1110.691, 74549.00
1111.786, 73954.00
1112.881, 74508.00
1113.976, 74428.00
1115.071, 74121.00
1116.166, 74210.00
1117.260, 74330.00
1118.355, 74263.00
1119.449, 74182.00
1120.543, 74240.43
1121.637, 74398.00
1122.731, 74224.00
1123.824, 74321.00
1124.918, 74256.00
1126.011, 74302.00
1127.104, 74062.00
1128.197, 74504.00
1129.290, 74758.00
1130.382, 74607.00
1131.475, 74227.00
1132.567, 74414.00
1133.659, 74761.00
1134.751, 74565.44
1135.843, 74613.00
1136.935, 74629.00
1138.027, 74673.00
1139.118, 74826.00
1140.209, 74910.11
1141.300, 74805.00
1142.391, 75166.00
1143.482, 74996.00
1144.573, 75051.00
1145.663, 75174.44
1146.754, 75314.00
1147.844, 75290.00
1148.934, 75513.00
1150.024, 75545.00
1151.113, 75571.06
1152.203, 75416.00
1153.292, 75569.00
1154.381, 75740.00
1155.470, 75693.00
1156.559, 75463.00
1157.648, 76214.00
1158.737, 75789.00
1159.825, 76411.00
1160.913, 76387.00
1162.001, 76475.00
1163.089, 76743.00
1164.177, 76503.00
1165.265, 76386.00
1166.352, 76547.00
1167.440, 76816.00
1168.527, 76755.00
1169.614, 77014.00
1170.701, 77042.00
1171.788, 76630.00
1172.874, 76824.00
1173.961, 76932.00
1175.047, 76629.00
1176.133, 76795.00
1177.219, 76937.00
1178.305, 77092.00
1179.390, 77187.69
1180.476, 76947.00
1181.561, 77327.00
1182.646, 76942.00
1183.731, 76899.00
1184.816, 76937.00
1185.901, 77183.00
1186.985, 76797.00
1188.070, 77396.00
1189.154, 77233.00
1190.238, 77086.00
1191.322, 76858.00
1192.406, 77150.00
1193.489, 77312.00
1194.573, 76741.00
1195.656, 77300.00
1196.739, 77531.00
1197.822, 77187.00
1198.905, 77635.00
1199.988, 77178.00
1201.070, 77328.00
1202.153, 77403.00
1203.235, 77415.00
1204.317, 77592.00
1205.399, 77441.00
1206.481, 77442.00
1207.562, 77873.00
1208.644, 77802.00
1209.725, 77631.00
1210.806, 77594.00
1211.887, 77853.00
1212.968, 77999.00
1214.049, 78159.00
1215.129, 78192.00
1216.209, 78197.00
1217.290, 78218.00
1218.370, 78076.00
1219.450, 77962.00
1220.529, 78279.00
1221.609, 78138.00
1222.688, 78425.00
1223.768, 78302.00
1224.847, 78731.00
1225.926, 78615.00
1227.005, 78610.00
1228.083, 78682.00
1229.162, 78620.00
1230.240, 78721.00
1231.318, 78840.00
1232.396, 78777.00
1233.474, 78684.00
1234.552, 78611.00
1235.629, 78872.00
1236.707, 79075.00
1237.784, 78775.00
1238.861, 79180.00
1239.938, 78848.00
1241.015, 79388.00
1242.092, 78825.00
1243.168, 79210.00
1244.244, 79499.00
1245.321, 79230.00
1246.397, 79394.00
1247.473, 79581.00
1248.548, 79429.14
1249.624, 79653.07
1250.699, 79800.65
1251.775, 79876.06
1252.850, 79662.96
1253.925, 79822.37
1254.999, 79832.44
1256.074, 79836.43
1257.148, 80048.22
1258.223, 79877.08
1259.297, 80085.56
1260.371, 80142.49
1261.445, 80268.79
1262.519, 80244.88
1263.592, 80267.32
1264.666, 80440.06
1265.739, 80529.55
1266.812, 80323.00
1267.885, 80531.00
1268.958, 80343.00
1270.030, 80385.35
1271.103, 80782.00
1272.175, 80409.00
1273.247, 80706.00
1274.319, 80960.00
1275.391, 80734.00
1276.463, 80761.00
1277.535, 81147.00
1278.606, 80901.00
1279.677, 81212.00
1280.748, 81168.00
1281.819, 81232.00
1282.890, 81670.00
1283.961, 81268.00
1285.031, 81033.00
1286.102, 81581.00
1287.172, 81425.00
1288.242, 81747.00
1289.312, 81456.00
1290.381, 81586.00
1291.451, 82229.00
1292.520, 81408.00
1293.590, 81447.00
1294.659, 81549.00
1295.728, 81995.00
1296.797, 81966.00
1297.865, 81788.00
1298.934, 82026.00
1300.002, 82498.00
1301.070, 82179.00
1302.138, 81792.00
1303.206, 82488.00
1304.274, 82606.00
1305.341, 82307.00
1306.409, 82303.00
1307.476, 82391.00
1308.543, 82307.00
1309.610, 82479.00
1310.677, 82582.00
1311.744, 82728.00
1312.810, 82769.38
1313.877, 82576.00
1314.943, 82892.00
1316.009, 82631.00
1317.075, 82817.00
1318.140, 83032.00
1319.206, 82899.00
1320.272, 83209.00
1321.337, 82941.00
1322.402, 83192.00
1323.467, 82946.00
1324.532, 83251.00
1325.596, 83243.00
1326.661, 83209.00
1327.725, 83435.00
1328.790, 83628.00
1329.854, 83579.00
1330.918, 83359.00
1331.981, 83467.00
1333.045, 83493.00
1334.108, 83488.00
1335.172, 83742.00
1336.235, 83732.00
1337.298, 83508.00
1338.361, 84124.00
1339.423, 83914.00
1340.486, 83426.00
1341.548, 83638.00
1342.611, 84135.00
1343.673, 84092.00
1344.735, 83999.00
1345.796, 84090.00
1346.858, 84304.00
1347.919, 84272.00
1348.981, 84166.00
1350.042, 84158.00
1351.103, 84893.00
1352.164, 84639.00
1353.225, 84682.00
1354.285, 84535.00
1355.346, 84274.00
1356.406, 84532.00
1357.466, 84498.00
1358.526, 84576.00
1359.586, 84903.00
1360.645, 84591.00
1361.705, 84808.00
1362.764, 84977.00
1363.823, 84999.00
1364.882, 84869.00
1365.941, 85199.00
1367.000, 85461.00
1368.059, 84879.00
1369.117, 84948.00
1370.175, 85536.00
1371.233, 85367.00
1372.291, 85416.00
1373.349, 85141.00
1374.407, 85715.00
1375.464, 85360.00
1376.522, 85113.00
1377.579, 85946.00
1378.636, 85289.00
1379.693, 85590.00
1380.750, 85493.00
1381.806, 85554.00
1382.863, 86015.00
1383.919, 85715.00
1384.975, 85773.00
1386.031, 85865.00
1387.087, 86057.00
1388.143, 85820.00
1389.199, 86201.00
1390.254, 86421.00
1391.309, 86275.00
1392.364, 85964.00
1393.419, 86416.00
1394.474, 86343.00
1395.529, 86692.00
1396.583, 86366.00
1397.638, 86340.00
1398.692, 86459.00
1399.746, 86878.00
1400.800, 86596.00
1401.853, 86624.00
1402.907, 86522.00
1403.960, 86686.38
1405.014, 86913.00
1406.067, 87126.00
1407.120, 86977.00
1408.173, 87091.00
1409.225, 87114.00
1410.278, 86878.00
1411.330, 87102.00
1412.383, 87133.00
1413.435, 86688.00
1414.487, 87380.00
1415.538, 87563.00
1416.590, 87299.00
1417.641, 87349.00
1418.693, 87430.00
1419.744, 87518.00
1420.795, 87457.00
1421.846, 87482.00
1422.897, 87500.00
1423.947, 87634.00
1424.998, 87623.84
1426.048, 87782.00
1427.098, 87764.00
1428.148, 87767.00
1429.198, 88020.00
1430.247, 88025.26
1431.297, 88253.88
1432.346, 88406.15
1433.396, 88486.27
1434.445, 88277.85
1435.494, 88441.95
1436.542, 88456.70
1437.591, 88465.38
1438.639, 88681.86
1439.688, 88515.40
1440.736, 88728.57
1441.784, 88790.19
1442.832, 88921.16
1443.880, 88901.93
1444.927, 88929.05
1445.975, 89106.46
1447.022, 89200.63
1448.069, 89164.06
1449.116, 89299.40
1450.163, 89127.59
1451.209, 89225.25
1452.256, 89439.25
1453.302, 89410.18
1454.348, 89548.21
1455.394, 89622.60
1456.440, 89407.77
1457.486, 89695.91
1458.532, 89766.54
1459.577, 89613.77
1460.623, 89725.00
1461.668, 89672.38
1462.713, 89640.00
1463.758, 89733.00
1464.802, 89721.00
1465.847, 89953.00
1466.891, 90091.00
1467.936, 89842.00
1468.980, 90226.00
1470.024, 90079.00
1471.067, 90306.00
1472.111, 90153.00
1473.155, 89895.00
1474.198, 90129.00
1475.241, 90339.00
1476.284, 90287.00
1477.327, 90514.00
1478.370, 90307.00
1479.413, 90338.00
1480.455, 90619.00
1481.497, 90342.00
1482.540, 90316.00
1483.582, 90637.00
1484.624, 90822.00
1485.665, 90357.00
1486.707, 90476.00
1487.748, 90398.00
1488.790, 90644.00
1489.831, 90311.00
1490.872, 90670.00
1491.912, 90888.00
1492.953, 90708.00
1493.994, 90818.00
1495.034, 90953.00
1496.074, 91130.00
1497.114, 91113.00
1498.154, 91057.00
1499.194, 90870.00
1500.234, 91204.00
1501.273, 90988.58
1502.313, 91223.83
1503.352, 91382.70
1504.391, 91469.37
1505.430, 91267.57
1506.468, 91438.21
1507.507, 91459.62
1508.545, 91474.86
1509.584, 91697.98
1510.622, 91538.08
1511.660, 91757.86
1512.698, 91826.07
1513.735, 91963.59
1514.773, 91950.95
1515.810, 91984.67
1516.848, 92168.69
1517.885, 92269.45
1518.922, 92239.48
1519.958, 92381.34
1520.995, 92216.13
1522.032, 92320.45
1523.068, 92540.98
1524.104, 92518.49
1525.140, 92663.11
1526.176, 92298.00
1527.212, 92688.00
1528.248, 92432.00
1529.283, 92770.00
1530.318, 92911.00
1531.353, 92834.00
1532.389, 92950.00
1533.423, 93117.00
1534.458, 92808.00
1535.493, 92677.00
1536.527, 92970.00
1537.561, 93218.00
1538.596, 92629.00
1539.630, 93094.00
1540.663, 93117.00
1541.697, 93326.00
1542.731, 93523.00
1543.764, 93277.00
1544.797, 93379.00
1545.830, 93129.00
1546.863, 93124.50
1547.896, 93339.70
1548.929, 93561.05
1549.961, 93706.05
1550.994, 93778.88
1552.026, 93563.20
1553.058, 93720.02
1554.090, 93727.55
1555.121, 93728.92
1556.153, 93938.16
1557.185, 93764.45
1558.216, 93970.34
1559.247, 94024.69
1560.278, 94148.40
1561.309, 94121.91
1562.340, 94141.80
1563.370, 94311.91
1564.401, 94398.87
1565.431, 94355.04
1566.461, 94483.11
1567.491, 94304.04
1568.521, 94394.49
1569.551, 94601.23
1570.580, 94564.91
1571.610, 94695.73
1572.639, 94762.87
1573.668, 94540.77
1574.697, 94821.67
1575.726, 94885.04
1576.754, 94725.02
1577.783, 94988.68
1578.811, 94859.45
1579.839, 95108.00
##END=



