##NAMES=Pectolite
##RRUFFID=R050396
##IDEAL CHEMISTRY=NaCa_2_Si_3_O_8_(OH)
##LOCALITY=Jeffrey Quarry, Asbestos, Quebec, Canada
##OWNER=RRUFF
##SOURCE=Marcus Origlieri
##DESCRIPTION=Colorless to gray columnar blocky crystals
##STATUS=The identification of this mineral has been confirmed by X-ray diffraction and chemical analysis
##URL=rruff.info/R050396
##MEASURED CHEMISTRY=Na_1.00_Ca_2.00_Si_3.00_O_8_(OH)
##PIN_ID=M00091
##ORIENTATION=Laser parallel to (0 -1 -1). Fiducial mark perpendicular to laser is parallel to a [1 0 0]
116.4580, 3369.000
117.6970, 3486.000
118.9350, 3482.000
120.1730, 3418.000
121.4100, 3474.000
122.6480, 3426.000
123.8850, 3522.000
125.1230, 3597.000
126.3600, 3583.000
127.5960, 3608.000
128.8330, 3696.000
130.0700, 3825.000
131.3060, 3973.000
132.5420, 4168.000
133.7780, 4297.000
135.0140, 4511.602
136.2500, 4603.000
137.4850, 4919.000
138.7200, 5117.000
139.9550, 5300.000
141.1900, 5383.000
142.4250, 5459.000
143.6600, 5303.000
144.8940, 5216.000
146.1280, 5079.000
147.3620, 4854.000
148.5960, 4765.000
149.8300, 4658.000
151.0630, 4359.000
152.2960, 4242.000
153.5300, 4240.000
154.7620, 4017.000
155.9950, 3935.000
157.2280, 3866.000
158.4600, 3792.000
159.6920, 3857.000
160.9250, 3803.000
162.1560, 3753.000
163.3880, 3730.000
164.6200, 3705.000
165.8510, 3702.000
167.0820, 3732.000
168.3130, 3729.000
169.5440, 3779.000
170.7750, 3815.000
172.0050, 3850.000
173.2350, 3749.000
174.4650, 3775.000
175.6950, 3823.000
176.9250, 3861.000
178.1550, 3894.215
179.3840, 3928.609
180.6130, 3961.000
181.8420, 3977.000
183.0710, 4002.000
184.3000, 4006.000
185.5280, 4010.000
186.7570, 4038.000
187.9850, 3938.000
189.2130, 3864.000
190.4400, 3934.000
191.6680, 3911.000
192.8960, 3957.000
194.1230, 3919.000
195.3500, 3980.000
196.5770, 3944.000
197.8030, 3984.000
199.0300, 3998.000
200.2560, 4069.000
201.4830, 3974.000
202.7090, 3963.000
203.9340, 3971.000
205.1600, 4011.000
206.3860, 4072.000
207.6110, 4037.000
208.8360, 3969.000
210.0610, 4001.000
211.2860, 4030.000
212.5100, 4074.000
213.7350, 4066.000
214.9590, 4090.000
216.1830, 4194.000
217.4070, 4175.000
218.6310, 4205.000
219.8540, 4270.000
221.0780, 4245.000
222.3010, 4326.000
223.5240, 4304.000
224.7470, 4287.000
225.9690, 4367.000
227.1920, 4252.000
228.4140, 4329.000
229.6360, 4281.000
230.8580, 4322.000
232.0800, 4266.000
233.3020, 4292.000
234.5230, 4254.000
235.7440, 4399.000
236.9650, 4332.000
238.1860, 4321.000
239.4070, 4455.000
240.6280, 4309.000
241.8480, 4237.000
243.0680, 4321.000
244.2880, 4268.000
245.5080, 4305.000
246.7280, 4261.000
247.9470, 4332.000
249.1660, 4360.000
250.3860, 4359.000
251.6040, 4357.000
252.8230, 4422.000
254.0420, 4419.000
255.2600, 4432.000
256.4790, 4506.000
257.6970, 4567.000
258.9150, 4491.000
260.1320, 4542.000
261.3500, 4512.000
262.5670, 4548.435
263.7840, 4655.000
265.0010, 4635.000
266.2180, 4699.000
267.4350, 4728.000
268.6510, 4783.000
269.8680, 4814.252
271.0840, 4826.000
272.3000, 4862.000
273.5160, 4882.000
274.7310, 4881.000
275.9470, 4854.000
277.1620, 4911.000
278.3770, 4957.000
279.5920, 4877.000
280.8070, 4919.000
282.0210, 4806.000
283.2360, 4842.000
284.4500, 4729.000
285.6640, 4673.000
286.8780, 4807.000
288.0920, 4779.000
289.3050, 4735.000
290.5180, 4813.000
291.7320, 4799.000
292.9450, 4807.000
294.1570, 4786.000
295.3700, 4814.000
296.5830, 4824.123
297.7950, 4877.000
299.0070, 4861.000
300.2190, 4849.000
301.4310, 4847.000
302.6420, 4886.000
303.8540, 4960.000
305.0650, 4901.000
306.2760, 5094.000
307.4870, 4957.000
308.6980, 4992.000
309.9080, 5114.000
311.1190, 5206.000
312.3290, 5364.000
313.5390, 5271.000
314.7490, 5337.000
315.9580, 5308.000
317.1680, 5336.000
318.3770, 5310.000
319.5860, 5305.535
320.7950, 5291.000
322.0040, 5283.000
323.2130, 5328.000
324.4210, 5314.000
325.6290, 5283.000
326.8380, 5151.000
328.0460, 5226.000
329.2530, 5104.000
330.4610, 5151.000
331.6680, 5106.000
332.8760, 5144.000
334.0830, 5123.000
335.2890, 5121.000
336.4960, 5171.000
337.7030, 5169.000
338.9090, 5177.436
340.1150, 5133.000
341.3210, 5165.000
342.5270, 5217.000
343.7330, 5183.000
344.9380, 5263.000
346.1440, 5245.000
347.3490, 5297.000
348.5540, 5284.000
349.7590, 5345.000
350.9630, 5352.000
352.1680, 5392.000
353.3720, 5503.000
354.5760, 5469.000
355.7800, 5543.000
356.9840, 5641.000
358.1870, 5571.000
359.3910, 5495.000
360.5940, 5354.000
361.7970, 5513.000
363.0000, 5469.000
364.2030, 5563.000
365.4050, 5507.000
366.6080, 5574.000
367.8100, 5717.000
369.0120, 5736.000
370.2140, 5764.000
371.4150, 5846.000
372.6170, 5873.000
373.8180, 5911.000
375.0190, 5964.000
376.2200, 6079.000
377.4210, 6044.000
378.6220, 6142.000
379.8220, 6088.000
381.0230, 5953.000
382.2230, 5834.000
383.4230, 5829.000
384.6220, 5835.000
385.8220, 5752.000
387.0220, 5746.000
388.2210, 5844.000
389.4200, 5734.000
390.6190, 5904.000
391.8180, 5782.000
393.0160, 5817.000
394.2150, 5827.000
395.4130, 5840.000
396.6110, 5844.000
397.8090, 5897.000
399.0060, 5869.000
400.2040, 5858.000
401.4010, 6070.000
402.5980, 6015.000
403.7950, 6081.000
404.9920, 6145.000
406.1890, 6180.000
407.3860, 6164.000
408.5820, 6280.000
409.7780, 6251.000
410.9740, 6314.000
412.1700, 6311.000
413.3650, 6308.000
414.5610, 6299.000
415.7560, 6278.000
416.9510, 6262.000
418.1460, 6215.000
419.3410, 6195.000
420.5360, 6175.000
421.7300, 6046.000
422.9240, 6086.000
424.1180, 6043.000
425.3120, 6200.000
426.5060, 6106.000
427.7000, 6107.000
428.8930, 6231.000
430.0860, 6070.000
431.2790, 6245.000
432.4720, 6074.000
433.6650, 6158.000
434.8580, 6125.000
436.0500, 6109.000
437.2420, 6083.000
438.4340, 6103.653
439.6260, 6135.329
440.8180, 6168.000
442.0090, 6252.000
443.2010, 6310.000
444.3920, 6392.000
445.5830, 6390.902
446.7740, 6411.000
447.9640, 6389.000
449.1550, 6324.000
450.3450, 6350.000
451.5350, 6356.176
452.7250, 6515.000
453.9150, 6433.000
455.1050, 6467.000
456.2940, 6522.000
457.4830, 6509.000
458.6720, 6540.000
459.8610, 6510.000
461.0500, 6552.000
462.2390, 6541.000
463.4270, 6619.000
464.6150, 6632.000
465.8040, 6580.000
466.9910, 6631.000
468.1790, 6626.000
469.3670, 6672.000
470.5540, 6691.056
471.7410, 6762.000
472.9280, 6707.000
474.1150, 6770.000
475.3020, 6720.000
476.4890, 6704.000
477.6750, 6789.000
478.8610, 6805.000
480.0470, 6842.000
481.2330, 6845.000
482.4190, 6828.000
483.6040, 6847.000
484.7900, 6924.000
485.9750, 6937.000
487.1600, 6911.000
488.3450, 6889.000
489.5290, 6993.000
490.7140, 6998.000
491.8980, 7106.000
493.0820, 7048.000
494.2660, 7106.000
495.4500, 7165.000
496.6340, 7140.000
497.8170, 7233.000
499.0010, 7236.000
500.1840, 7170.000
501.3670, 7229.000
502.5500, 7286.000
503.7320, 7402.000
504.9150, 7261.000
506.0970, 7346.000
507.2790, 7356.000
508.4610, 7373.000
509.6430, 7242.000
510.8250, 7396.000
512.0060, 7354.000
513.1870, 7417.000
514.3680, 7448.000
515.5490, 7385.000
516.7300, 7424.000
517.9110, 7397.000
519.0910, 7478.000
520.2710, 7570.000
521.4510, 7482.000
522.6310, 7578.000
523.8110, 7497.000
524.9910, 7522.000
526.1700, 7516.000
527.3490, 7487.000
528.5280, 7605.000
529.7070, 7666.000
530.8860, 7674.000
532.0650, 7612.000
533.2430, 7635.000
534.4210, 7710.000
535.5990, 7646.000
536.7770, 7730.000
537.9550, 7608.000
539.1320, 7797.000
540.3100, 7718.000
541.4870, 7727.000
542.6640, 7645.000
543.8410, 7774.000
545.0170, 7767.000
546.1940, 7771.000
547.3700, 7866.000
548.5470, 7774.000
549.7230, 7820.000
550.8980, 7987.000
552.0740, 7857.000
553.2500, 7895.000
554.4250, 8023.000
555.6000, 7994.000
556.7750, 7885.000
557.9500, 7915.000
559.1250, 7879.000
560.2990, 7922.000
561.4730, 8035.000
562.6480, 8038.000
563.8220, 8053.000
564.9950, 8058.000
566.1690, 8018.000
567.3430, 8069.000
568.5160, 8081.000
569.6890, 8195.000
570.8620, 8079.000
572.0350, 8198.000
573.2070, 8201.000
574.3800, 8218.000
575.5520, 8348.000
576.7240, 8246.000
577.8960, 8390.000
579.0680, 8279.000
580.2400, 8351.000
581.4110, 8374.000
582.5830, 8420.000
583.7540, 8392.000
584.9250, 8494.000
586.0950, 8410.000
587.2660, 8514.000
588.4370, 8565.000
589.6070, 8428.000
590.7770, 8484.000
591.9470, 8661.000
593.1170, 8500.000
594.2860, 8441.000
595.4560, 8650.000
596.6250, 8612.000
597.7940, 8716.000
598.9630, 8758.000
600.1320, 8805.000
601.3000, 8749.000
602.4690, 8737.000
603.6370, 8696.000
604.8050, 8849.000
605.9730, 8928.000
607.1410, 8936.000
608.3090, 8903.000
609.4760, 8999.000
610.6430, 8954.000
611.8100, 8969.000
612.9770, 8918.000
614.1440, 9058.000
615.3110, 9120.000
616.4770, 9161.000
617.6430, 9141.000
618.8090, 9227.000
619.9750, 9203.000
621.1410, 9256.000
622.3070, 9302.000
623.4720, 9324.000
624.6370, 9451.000
625.8020, 9296.000
626.9670, 9641.000
628.1320, 9447.000
629.2970, 9587.000
630.4610, 9660.000
631.6250, 9727.000
632.7890, 9743.000
633.9530, 9869.000
635.1170, 9954.000
636.2810, 9995.000
637.4440, 10184.00
638.6070, 10346.00
639.7700, 10447.00
640.9330, 10701.00
642.0960, 10990.00
643.2590, 11385.00
644.4210, 11629.00
645.5830, 11957.00
646.7450, 12406.00
647.9070, 12643.00
649.0690, 13092.00
650.2310, 13162.00
651.3920, 13322.00
652.5530, 13242.00
653.7140, 13026.00
654.8750, 12568.00
656.0360, 12046.00
657.1970, 11653.00
658.3570, 11260.00
659.5170, 10912.00
660.6770, 10784.00
661.8370, 10625.00
662.9970, 10465.00
664.1570, 10369.00
665.3160, 10361.00
666.4750, 10315.09
667.6340, 10336.00
668.7930, 10345.00
669.9520, 10269.00
671.1110, 10279.00
672.2690, 10375.00
673.4270, 10317.00
674.5850, 10400.00
675.7430, 10472.00
676.9010, 10508.00
678.0590, 10559.50
679.2160, 10584.00
680.3730, 10624.00
681.5300, 10613.00
682.6870, 10643.00
683.8440, 10687.27
685.0010, 10804.00
686.1570, 10754.00
687.3130, 10833.00
688.4690, 10800.00
689.6250, 10832.00
690.7810, 10840.66
691.9370, 10857.00
693.0920, 10846.00
694.2470, 10843.00
695.4020, 10854.00
696.5570, 10908.00
697.7120, 10899.83
698.8670, 10913.00
700.0210, 10890.00
701.1750, 10897.00
702.3290, 10828.00
703.4830, 11021.00
704.6370, 10955.00
705.7910, 11061.00
706.9440, 11070.00
708.0970, 11111.00
709.2510, 11099.00
710.4030, 11158.00
711.5560, 11212.00
712.7090, 11292.00
713.8610, 11293.20
715.0140, 11289.00
716.1660, 11300.00
717.3180, 11310.00
718.4690, 11318.00
719.6210, 11431.00
720.7730, 11412.00
721.9240, 11430.00
723.0750, 11489.00
724.2260, 11431.00
725.3770, 11521.00
726.5270, 11622.00
727.6780, 11582.00
728.8280, 11625.00
729.9780, 11770.00
731.1280, 11757.00
732.2780, 11668.00
733.4280, 11752.00
734.5770, 11732.00
735.7260, 11819.00
736.8760, 11831.00
738.0250, 11779.00
739.1730, 11853.00
740.3220, 11888.00
741.4700, 11831.00
742.6190, 11830.00
743.7670, 12008.00
744.9150, 11992.00
746.0630, 12003.00
747.2100, 12085.00
748.3580, 11988.00
749.5050, 12153.00
750.6520, 12124.00
751.7990, 12119.00
752.9460, 12140.00
754.0930, 12167.00
755.2390, 12340.00
756.3860, 12388.00
757.5320, 12367.00
758.6780, 12534.00
759.8240, 12443.00
760.9690, 12387.00
762.1150, 12436.00
763.2600, 12435.83
764.4060, 12671.00
765.5510, 12562.00
766.6950, 12639.00
767.8400, 12728.00
768.9850, 12556.00
770.1290, 12748.00
771.2730, 12701.00
772.4170, 12760.00
773.5610, 12815.00
774.7050, 12738.00
775.8480, 12932.00
776.9920, 12944.00
778.1350, 12923.00
779.2780, 13123.00
780.4210, 12915.00
781.5640, 13205.00
782.7060, 13104.00
783.8490, 13153.00
784.9910, 13321.00
786.1330, 13044.00
787.2750, 13253.00
788.4170, 13334.00
789.5580, 13255.00
790.7000, 13257.00
791.8410, 13209.00
792.9820, 13242.00
794.1230, 13384.00
795.2640, 13473.00
796.4040, 13510.00
797.5450, 13530.00
798.6850, 13483.00
799.8250, 13674.00
800.9650, 13615.00
802.1050, 13466.00
803.2450, 13686.00
804.3840, 13718.00
805.5230, 13694.00
806.6630, 13889.00
807.8020, 13957.00
808.9400, 13998.00
810.0790, 13879.00
811.2170, 13908.00
812.3560, 13996.00
813.4940, 14039.00
814.6320, 14092.17
815.7700, 14132.00
816.9070, 14179.00
818.0450, 14283.00
819.1820, 14295.00
820.3190, 14324.00
821.4560, 14319.00
822.5930, 14337.25
823.7300, 14380.36
824.8670, 14369.00
826.0030, 14484.00
827.1390, 14534.00
828.2750, 14609.00
829.4110, 14781.00
830.5470, 14701.00
831.6820, 14526.00
832.8180, 14731.00
833.9530, 14724.00
835.0880, 14899.00
836.2230, 14794.00
837.3580, 14787.00
838.4920, 15000.00
839.6270, 14993.00
840.7610, 15012.00
841.8950, 15069.00
843.0290, 15068.00
844.1630, 15052.00
845.2960, 15077.00
846.4300, 15178.00
847.5630, 15221.00
848.6960, 15365.00
849.8290, 15371.00
850.9620, 15413.00
852.0940, 15432.00
853.2270, 15367.00
854.3590, 15446.00
855.4910, 15460.24
856.6230, 15625.00
857.7550, 15559.00
858.8870, 15708.00
860.0180, 15765.00
861.1500, 15832.00
862.2810, 15824.00
863.4120, 15851.00
864.5430, 15776.00
865.6730, 15831.00
866.8040, 15860.00
867.9340, 15917.66
869.0640, 15992.00
870.1940, 16073.00
871.3240, 16147.00
872.4540, 16163.00
873.5830, 16243.00
874.7130, 16320.00
875.8420, 16192.00
876.9710, 16377.00
878.1000, 16393.00
879.2290, 16373.00
880.3570, 16512.00
881.4860, 16532.00
882.6140, 16403.00
883.7420, 16580.00
884.8700, 16462.00
885.9980, 16576.00
887.1250, 16704.00
888.2530, 16683.00
889.3800, 16913.00
890.5070, 16878.00
891.6340, 17039.00
892.7610, 16999.00
893.8880, 16999.00
895.0140, 17070.00
896.1400, 16937.00
897.2670, 17154.00
898.3930, 17124.00
899.5180, 17275.00
900.6440, 17360.00
901.7700, 17425.00
902.8950, 17516.00
904.0200, 17591.48
905.1450, 17629.91
906.2700, 17720.00
907.3950, 17719.00
908.5190, 17710.00
909.6440, 17793.00
910.7680, 17791.00
911.8920, 17910.00
913.0160, 17838.00
914.1400, 17916.00
915.2630, 17895.00
916.3870, 18114.00
917.5100, 17856.00
918.6330, 18174.00
919.7560, 18033.00
920.8790, 18185.00
922.0010, 18148.00
923.1240, 18328.00
924.2460, 18087.00
925.3680, 18259.00
926.4900, 18275.00
927.6120, 18453.00
928.7340, 18494.00
929.8550, 18541.00
930.9760, 18468.00
932.0980, 18725.00
933.2190, 18602.00
934.3390, 18729.00
935.4600, 18738.00
936.5810, 18819.00
937.7010, 18959.00
938.8210, 18969.00
939.9410, 19064.00
941.0610, 19125.50
942.1810, 19152.00
943.3010, 19193.00
944.4200, 19251.00
945.5390, 19189.00
946.6580, 19357.00
947.7770, 19356.00
948.8960, 19527.00
950.0150, 19732.00
951.1330, 19697.00
952.2510, 19892.00
953.3690, 19888.00
954.4870, 19865.00
955.6050, 19874.00
956.7230, 19979.75
957.8400, 20139.00
958.9580, 20279.00
960.0750, 20476.00
961.1920, 20726.00
962.3090, 20437.00
963.4250, 20876.00
964.5420, 20930.00
965.6580, 20942.00
966.7740, 21222.00
967.8900, 21323.00
969.0060, 21360.00
970.1220, 21319.00
971.2380, 21435.70
972.3530, 21606.00
973.4680, 21612.00
974.5830, 21717.00
975.6980, 21857.00
976.8130, 21636.00
977.9280, 21510.00
979.0420, 21757.00
980.1560, 21734.00
981.2710, 21700.00
982.3850, 22045.00
983.4980, 21982.00
984.6120, 21986.00
985.7260, 21971.00
986.8390, 21941.00
987.9520, 22016.67
989.0650, 22177.00
990.1780, 22170.00
991.2910, 22214.00
992.4030, 22294.00
993.5160, 22213.00
994.6280, 22290.00
995.7400, 22529.00
996.8520, 22459.00
997.9640, 22490.00
999.0750, 22660.00
1000.187, 22517.00
1001.298, 22717.00
1002.409, 22832.00
1003.520, 22793.00
1004.631, 22956.00
1005.741, 22998.00
1006.852, 22960.00
1007.962, 22752.00
1009.072, 22875.00
1010.182, 22864.00
1011.292, 22920.00
1012.402, 23173.00
1013.511, 23094.00
1014.621, 23280.00
1015.730, 23437.00
1016.839, 23759.00
1017.948, 23910.00
1019.056, 24007.00
1020.165, 24359.00
1021.273, 24707.00
1022.382, 24772.00
1023.490, 24870.00
1024.598, 25087.00
1025.706, 25227.00
1026.813, 24958.00
1027.921, 24892.00
1029.028, 24719.00
1030.135, 24306.00
1031.242, 24404.00
1032.349, 24203.00
1033.456, 24186.00
1034.562, 24127.00
1035.668, 24139.00
1036.775, 24079.00
1037.881, 24145.00
1038.987, 24227.00
1040.092, 24146.00
1041.198, 24142.00
1042.303, 24117.00
1043.408, 24138.49
1044.514, 24093.00
1045.618, 24255.00
1046.723, 24260.00
1047.828, 24382.00
1048.932, 24435.00
1050.037, 24438.00
1051.141, 24688.00
1052.245, 24593.00
1053.349, 24638.00
1054.452, 24658.00
1055.556, 24831.00
1056.659, 24864.00
1057.762, 24906.00
1058.865, 24874.00
1059.968, 24997.00
1061.071, 25001.46
1062.174, 25211.00
1063.276, 25084.00
1064.378, 25362.00
1065.480, 25421.00
1066.582, 25271.00
1067.684, 25187.00
1068.786, 25424.00
1069.887, 25518.00
1070.988, 25787.00
1072.090, 25594.00
1073.191, 25563.00
1074.291, 25732.00
1075.392, 25835.00
1076.493, 25903.00
1077.593, 25954.00
1078.693, 25967.00
1079.793, 26034.00
1080.893, 26292.00
1081.993, 26320.00
1083.092, 26374.00
1084.192, 26789.00
1085.291, 26653.00
1086.390, 26726.00
1087.489, 26674.00
1088.588, 26693.00
1089.686, 26719.00
1090.785, 26813.00
1091.883, 26871.00
1092.981, 26672.00
1094.079, 26927.00
1095.177, 26921.00
1096.275, 27137.00
1097.373, 27169.00
1098.470, 27230.00
1099.567, 27342.00
1100.664, 27217.00
1101.761, 27314.00
1102.858, 27484.00
1103.954, 27427.00
1105.051, 27581.00
1106.147, 27481.00
1107.243, 27536.13
1108.339, 27753.00
1109.435, 27610.00
1110.531, 27690.00
1111.626, 27809.00
1112.722, 28022.00
1113.817, 28103.17
1114.912, 28082.00
1116.007, 28345.00
1117.101, 28446.00
1118.196, 28551.00
1119.290, 28456.00
1120.385, 28633.00
1121.479, 28651.00
1122.573, 28801.00
1123.666, 28838.01
1124.760, 28737.00
1125.853, 28933.00
1126.947, 28852.00
1128.040, 28942.00
1129.133, 28730.00
1130.226, 29164.00
1131.318, 29333.00
1132.411, 29057.00
1133.503, 29241.00
1134.596, 29427.00
1135.688, 29485.00
1136.780, 29526.00
1137.871, 29691.00
1138.963, 29755.00
1140.054, 29923.00
1141.146, 29856.00
1142.237, 29822.00
1143.328, 29843.00
1144.419, 29968.00
1145.509, 29965.00
1146.600, 30020.39
1147.690, 30148.00
1148.780, 30082.00
1149.870, 30134.00
1150.960, 30153.10
1152.050, 30600.00
1153.139, 30344.00
1154.229, 30514.00
1155.318, 30806.00
1156.407, 30536.00
1157.496, 30588.00
1158.585, 30813.00
1159.674, 30864.00
1160.762, 31051.00
1161.850, 31172.00
1162.939, 31146.00
1164.027, 31200.00
1165.114, 31210.00
1166.202, 31213.00
1167.290, 31442.00
1168.377, 31562.00
1169.464, 31598.00
1170.551, 31582.00
1171.638, 31741.00
1172.725, 31848.00
1173.812, 31873.00
1174.898, 32077.00
1175.984, 31988.00
1177.071, 31992.00
1178.157, 32464.00
1179.242, 32087.00
1180.328, 32334.00
1181.414, 32454.00
1182.499, 32381.00
1183.584, 32280.00
1184.669, 32380.00
1185.754, 32557.00
1186.839, 32635.00
##END=



