##NAMES=Pectolite
##RRUFFID=R060101
##IDEAL CHEMISTRY=NaCa_2_Si_3_O_8_(OH)
##LOCALITY=West Patterson, New Jersey, USA
##OWNER=RRUFF
##SOURCE=University of Arizona Mineral Museum
##DESCRIPTION=Tufts of white acicular sprays
##STATUS=The identification of this mineral has been confirmed by X-ray diffraction and chemical analysis
##URL=rruff.info/R060101
##MEASURED CHEMISTRY=Na_1.02_Ca_2.00_Si_2.99_O_8_(OH)
##PIN_ID=M00210
##ORIENTATION=Laser parallel to -b* (0 -1 0). Fiducial mark perpendicular to laser is parallel to c [0 0 1]
118.9350, 1633.000
120.1730, 1594.000
121.4100, 1572.000
122.6480, 1629.000
123.8850, 1625.000
125.1230, 1595.000
126.3600, 1617.000
127.5960, 1601.000
128.8330, 1631.000
130.0700, 1717.000
131.3060, 1662.000
132.5420, 1739.000
133.7780, 1683.000
135.0140, 1718.000
136.2500, 1741.000
137.4850, 1793.000
138.7200, 1831.000
139.9550, 1801.000
141.1900, 1820.000
142.4250, 1884.000
143.6600, 1916.000
144.8940, 1889.000
146.1280, 1863.000
147.3620, 1847.000
148.5960, 1835.000
149.8300, 1869.000
151.0630, 1879.000
152.2960, 1832.000
153.5300, 1790.000
154.7620, 1790.000
155.9950, 1819.000
157.2280, 1862.000
158.4600, 1842.000
159.6920, 1784.000
160.9250, 1819.000
162.1560, 1794.000
163.3880, 1794.000
164.6200, 1755.000
165.8510, 1776.054
167.0820, 1836.000
168.3130, 1818.000
169.5440, 1808.000
170.7750, 1841.000
172.0050, 1836.000
173.2350, 1847.000
174.4650, 1866.000
175.6950, 1829.000
176.9250, 1874.000
178.1550, 1870.000
179.3840, 1860.000
180.6130, 1886.000
181.8420, 1919.000
183.0710, 1911.000
184.3000, 1933.000
185.5280, 1956.000
186.7570, 1998.000
187.9850, 1925.000
189.2130, 2000.000
190.4400, 1889.000
191.6680, 1968.000
192.8960, 1948.000
194.1230, 1986.000
195.3500, 1928.000
196.5770, 2003.000
197.8030, 2014.000
199.0300, 2012.000
200.2560, 1969.000
201.4830, 2000.000
202.7090, 1978.000
203.9340, 2007.000
205.1600, 1990.000
206.3860, 2024.000
207.6110, 2017.000
208.8360, 2042.000
210.0610, 2015.000
211.2860, 2082.000
212.5100, 2035.000
213.7350, 2044.000
214.9590, 2152.000
216.1830, 2070.000
217.4070, 2061.000
218.6310, 2117.000
219.8540, 2063.000
221.0780, 2064.000
222.3010, 2148.000
223.5240, 2143.000
224.7470, 2191.000
225.9690, 2113.000
227.1920, 2184.000
228.4140, 2174.000
229.6360, 2155.000
230.8580, 2185.000
232.0800, 2136.000
233.3020, 2195.000
234.5230, 2166.000
235.7440, 2119.000
236.9650, 2221.000
238.1860, 2142.000
239.4070, 2224.000
240.6280, 2150.000
241.8480, 2171.000
243.0680, 2187.000
244.2880, 2216.000
245.5080, 2219.000
246.7280, 2225.000
247.9470, 2238.000
249.1660, 2275.000
250.3860, 2278.000
251.6040, 2286.000
252.8230, 2293.523
254.0420, 2282.000
255.2600, 2285.000
256.4790, 2326.000
257.6970, 2313.000
258.9150, 2333.000
260.1320, 2283.000
261.3500, 2397.000
262.5670, 2381.000
263.7840, 2339.000
265.0010, 2396.000
266.2180, 2295.000
267.4350, 2393.000
268.6510, 2434.000
269.8680, 2429.000
271.0840, 2423.000
272.3000, 2466.000
273.5160, 2494.000
274.7310, 2433.000
275.9470, 2438.000
277.1620, 2495.000
278.3770, 2469.000
279.5920, 2475.000
280.8070, 2479.000
282.0210, 2533.000
283.2360, 2505.000
284.4500, 2508.000
285.6640, 2441.000
286.8780, 2544.000
288.0920, 2498.000
289.3050, 2521.000
290.5180, 2506.000
291.7320, 2472.000
292.9450, 2550.000
294.1570, 2535.000
295.3700, 2544.000
296.5830, 2530.000
297.7950, 2529.000
299.0070, 2578.000
300.2190, 2630.000
301.4310, 2599.000
302.6420, 2572.000
303.8540, 2606.000
305.0650, 2674.000
306.2760, 2572.000
307.4870, 2687.000
308.6980, 2637.000
309.9080, 2663.000
311.1190, 2711.000
312.3290, 2716.000
313.5390, 2730.000
314.7490, 2706.000
315.9580, 2810.000
317.1680, 2827.000
318.3770, 2826.000
319.5860, 2778.000
320.7950, 2793.000
322.0040, 2847.000
323.2130, 2838.000
324.4210, 2784.000
325.6290, 2734.000
326.8380, 2748.000
328.0460, 2807.000
329.2530, 2816.000
330.4610, 2830.000
331.6680, 2817.000
332.8760, 2850.000
334.0830, 2833.000
335.2890, 2843.000
336.4960, 2881.000
337.7030, 2825.000
338.9090, 2814.000
340.1150, 2898.000
341.3210, 2880.000
342.5270, 2847.000
343.7330, 2924.000
344.9380, 2915.000
346.1440, 2896.000
347.3490, 2962.000
348.5540, 2970.000
349.7590, 2881.000
350.9630, 3018.000
352.1680, 2960.000
353.3720, 2999.000
354.5760, 3011.000
355.7800, 3041.000
356.9840, 3035.000
358.1870, 2975.000
359.3910, 2995.000
360.5940, 3064.000
361.7970, 3028.000
363.0000, 3083.000
364.2030, 3054.000
365.4050, 3081.000
366.6080, 3087.000
367.8100, 3107.000
369.0120, 3094.000
370.2140, 3114.387
371.4150, 3178.000
372.6170, 3141.000
373.8180, 3153.000
375.0190, 3168.000
376.2200, 3237.000
377.4210, 3219.000
378.6220, 3215.000
379.8220, 3231.000
381.0230, 3213.000
382.2230, 3187.000
383.4230, 3191.000
384.6220, 3196.000
385.8220, 3231.000
387.0220, 3200.000
388.2210, 3320.000
389.4200, 3245.000
390.6190, 3320.000
391.8180, 3246.000
393.0160, 3300.000
394.2150, 3321.000
395.4130, 3275.000
396.6110, 3357.000
397.8090, 3309.000
399.0060, 3357.000
400.2040, 3381.000
401.4010, 3401.000
402.5980, 3452.000
403.7950, 3387.000
404.9920, 3417.000
406.1890, 3396.000
407.3860, 3498.000
408.5820, 3477.000
409.7780, 3576.000
410.9740, 3500.000
412.1700, 3494.000
413.3650, 3466.000
414.5610, 3496.000
415.7560, 3547.000
416.9510, 3544.000
418.1460, 3536.000
419.3410, 3593.000
420.5360, 3479.000
421.7300, 3606.000
422.9240, 3553.000
424.1180, 3601.000
425.3120, 3643.000
426.5060, 3586.000
427.7000, 3641.000
428.8930, 3629.000
430.0860, 3636.000
431.2790, 3595.000
432.4720, 3717.000
433.6650, 3644.000
434.8580, 3698.000
436.0500, 3672.000
437.2420, 3726.000
438.4340, 3772.000
439.6260, 3784.000
440.8180, 3785.000
442.0090, 3733.000
443.2010, 3837.000
444.3920, 3744.000
445.5830, 3822.000
446.7740, 3804.000
447.9640, 3809.000
449.1550, 3797.000
450.3450, 3931.000
451.5350, 3845.000
452.7250, 3867.000
453.9150, 3962.000
455.1050, 3897.000
456.2940, 3970.000
457.4830, 3972.000
458.6720, 3965.000
459.8610, 3984.000
461.0500, 4062.000
462.2390, 3979.000
463.4270, 3999.000
464.6150, 3984.000
465.8040, 4069.000
466.9910, 4093.000
468.1790, 4038.000
469.3670, 4073.000
470.5540, 4085.000
471.7410, 4032.000
472.9280, 4101.000
474.1150, 4167.000
475.3020, 4169.000
476.4890, 4125.000
477.6750, 4175.000
478.8610, 4141.000
480.0470, 4159.750
481.2330, 4256.000
482.4190, 4203.000
483.6040, 4256.000
484.7900, 4309.000
485.9750, 4285.000
487.1600, 4270.000
488.3450, 4323.000
489.5290, 4243.000
490.7140, 4370.000
491.8980, 4335.000
493.0820, 4342.000
494.2660, 4439.000
495.4500, 4408.000
496.6340, 4477.000
497.8170, 4440.000
499.0010, 4503.000
500.1840, 4507.000
501.3670, 4466.000
502.5500, 4553.000
503.7320, 4519.000
504.9150, 4507.000
506.0970, 4562.000
507.2790, 4555.000
508.4610, 4592.000
509.6430, 4610.145
510.8250, 4534.000
512.0060, 4630.000
513.1870, 4601.000
514.3680, 4577.000
515.5490, 4717.000
516.7300, 4713.000
517.9110, 4768.000
519.0910, 4680.000
520.2710, 4652.000
521.4510, 4709.000
522.6310, 4734.000
523.8110, 4804.000
524.9910, 4837.000
526.1700, 4854.000
527.3490, 4889.668
528.5280, 4876.000
529.7070, 4927.000
530.8860, 4909.000
532.0650, 4928.544
533.2430, 4838.000
534.4210, 4908.000
535.5990, 4920.000
536.7770, 4903.000
537.9550, 4947.000
539.1320, 4969.000
540.3100, 4921.000
541.4870, 5041.000
542.6640, 5031.000
543.8410, 5150.000
545.0170, 5152.946
546.1940, 5038.000
547.3700, 5142.000
548.5470, 5144.000
549.7230, 5076.000
550.8980, 5171.000
552.0740, 5202.000
553.2500, 5252.000
554.4250, 5219.000
555.6000, 5263.000
556.7750, 5278.997
557.9500, 5242.000
559.1250, 5309.000
560.2990, 5289.000
561.4730, 5266.000
562.6480, 5476.000
563.8220, 5346.000
564.9950, 5418.000
566.1690, 5390.000
567.3430, 5419.000
568.5160, 5431.823
569.6890, 5485.000
570.8620, 5453.000
572.0350, 5467.000
573.2070, 5499.000
574.3800, 5543.000
575.5520, 5499.000
576.7240, 5656.000
577.8960, 5623.000
579.0680, 5575.000
580.2400, 5540.000
581.4110, 5645.000
582.5830, 5656.000
583.7540, 5665.000
584.9250, 5737.000
586.0950, 5658.000
587.2660, 5698.000
588.4370, 5740.000
589.6070, 5768.000
590.7770, 5779.000
591.9470, 5828.000
593.1170, 5797.000
594.2860, 5870.000
595.4560, 5902.000
596.6250, 5899.000
597.7940, 5843.000
598.9630, 5993.000
600.1320, 5899.000
601.3000, 6004.000
602.4690, 5954.000
603.6370, 6025.000
604.8050, 5979.000
605.9730, 6023.000
607.1410, 6112.000
608.3090, 6166.000
609.4760, 6034.000
610.6430, 6077.000
611.8100, 6065.000
612.9770, 6126.000
614.1440, 6247.000
615.3110, 6209.000
616.4770, 6259.000
617.6430, 6275.000
618.8090, 6216.000
619.9750, 6322.000
621.1410, 6320.000
622.3070, 6432.000
623.4720, 6500.000
624.6370, 6380.000
625.8020, 6413.000
626.9670, 6486.000
628.1320, 6477.000
629.2970, 6467.000
630.4610, 6479.000
631.6250, 6568.000
632.7890, 6565.000
633.9530, 6662.000
635.1170, 6795.000
636.2810, 6721.000
637.4440, 6832.000
638.6070, 6774.000
639.7700, 6867.000
640.9330, 6886.000
642.0960, 7024.000
643.2590, 7029.000
644.4210, 7189.000
645.5830, 7280.000
646.7450, 7321.000
647.9070, 7551.000
649.0690, 7501.000
650.2310, 7583.000
651.3920, 7651.000
652.5530, 7585.000
653.7140, 7658.000
654.8750, 7380.000
656.0360, 7415.000
657.1970, 7373.000
658.3570, 7291.000
659.5170, 7304.000
660.6770, 7302.000
661.8370, 7310.000
662.9970, 7284.000
664.1570, 7253.000
665.3160, 7283.000
666.4750, 7281.000
667.6340, 7306.000
668.7930, 7279.000
669.9520, 7270.000
671.1110, 7449.000
672.2690, 7315.000
673.4270, 7522.000
674.5850, 7386.000
675.7430, 7483.000
676.9010, 7487.000
678.0590, 7575.000
679.2160, 7614.000
680.3730, 7506.000
681.5300, 7593.000
682.6870, 7602.000
683.8440, 7579.000
685.0010, 7728.000
686.1570, 7695.000
687.3130, 7707.000
688.4690, 7861.000
689.6250, 7701.000
690.7810, 7776.000
691.9370, 7880.000
693.0920, 7766.000
694.2470, 7849.000
695.4020, 7936.000
696.5570, 7783.000
697.7120, 7931.000
698.8670, 7897.000
700.0210, 7972.000
701.1750, 8036.000
702.3290, 8042.000
703.4830, 8009.000
704.6370, 8040.000
705.7910, 8033.000
706.9440, 8144.000
708.0970, 8141.000
709.2510, 8194.000
710.4030, 8242.000
711.5560, 8293.000
712.7090, 8246.000
713.8610, 8256.000
715.0140, 8307.000
716.1660, 8466.000
717.3180, 8405.000
718.4690, 8481.000
719.6210, 8477.000
720.7730, 8511.000
721.9240, 8501.000
723.0750, 8463.000
724.2260, 8521.000
725.3770, 8503.993
726.5270, 8582.000
727.6780, 8515.000
728.8280, 8665.000
729.9780, 8655.000
731.1280, 8689.000
732.2780, 8734.000
733.4280, 8705.000
734.5770, 8868.000
735.7260, 8929.000
736.8760, 8894.000
738.0250, 8870.000
739.1730, 8848.000
740.3220, 8995.000
741.4700, 8933.000
742.6190, 8973.000
743.7670, 9121.000
744.9150, 9146.000
746.0630, 9089.000
747.2100, 9117.000
748.3580, 9129.374
749.5050, 9193.000
750.6520, 9201.000
751.7990, 9239.000
752.9460, 9321.000
754.0930, 9259.000
755.2390, 9332.000
756.3860, 9274.000
757.5320, 9464.000
758.6780, 9502.000
759.8240, 9487.000
760.9690, 9510.000
762.1150, 9566.000
763.2600, 9502.000
764.4060, 9675.000
765.5510, 9767.000
766.6950, 9568.000
767.8400, 9757.000
768.9850, 9855.000
770.1290, 9761.000
771.2730, 9885.000
772.4170, 9803.000
773.5610, 9870.000
774.7050, 9987.000
775.8480, 9915.000
776.9920, 10059.00
778.1350, 9913.000
779.2780, 10061.00
780.4210, 10214.00
781.5640, 10050.00
782.7060, 10181.00
783.8490, 10133.00
784.9910, 10280.00
786.1330, 10194.00
787.2750, 10268.00
788.4170, 10317.00
789.5580, 10209.00
790.7000, 10350.00
791.8410, 10250.00
792.9820, 10427.00
794.1230, 10534.00
795.2640, 10498.00
796.4040, 10651.00
797.5450, 10536.00
798.6850, 10631.00
799.8250, 10594.00
800.9650, 10706.00
802.1050, 10606.00
803.2450, 10677.00
804.3840, 10930.00
805.5230, 10752.00
806.6630, 10903.00
807.8020, 10881.00
808.9400, 11034.00
810.0790, 10983.00
811.2170, 10962.00
812.3560, 11023.00
813.4940, 11125.00
814.6320, 11233.00
815.7700, 11231.00
816.9070, 11184.00
818.0450, 11126.00
819.1820, 11267.00
820.3190, 11239.00
821.4560, 11308.00
822.5930, 11390.00
823.7300, 11421.00
824.8670, 11475.00
826.0030, 11457.00
827.1390, 11486.00
828.2750, 11545.00
829.4110, 11645.00
830.5470, 11578.00
831.6820, 11818.00
832.8180, 11763.00
833.9530, 11760.00
835.0880, 11731.00
836.2230, 11975.00
837.3580, 11894.00
838.4920, 11969.00
839.6270, 12056.00
840.7610, 11945.00
841.8950, 11993.00
843.0290, 11987.00
844.1630, 11942.00
845.2960, 12026.24
846.4300, 12439.00
847.5630, 12199.00
848.6960, 12268.00
849.8290, 12454.00
850.9620, 12321.00
852.0940, 12459.00
853.2270, 12397.00
854.3590, 12380.00
855.4910, 12593.00
856.6230, 12644.00
857.7550, 12552.00
858.8870, 12703.00
860.0180, 12551.00
861.1500, 12732.00
862.2810, 12788.00
863.4120, 12819.00
864.5430, 12907.00
865.6730, 12815.00
866.8040, 13089.00
867.9340, 12931.00
869.0640, 13090.00
870.1940, 12987.00
871.3240, 13060.00
872.4540, 13158.00
873.5830, 13323.00
874.7130, 13177.00
875.8420, 13303.00
876.9710, 13333.00
878.1000, 13486.00
879.2290, 13433.00
880.3570, 13514.00
881.4860, 13433.00
882.6140, 13523.00
883.7420, 13711.00
884.8700, 13591.00
885.9980, 13602.00
887.1250, 13762.00
888.2530, 13673.00
889.3800, 13862.00
890.5070, 13797.00
891.6340, 13943.00
892.7610, 13967.00
893.8880, 13886.00
895.0140, 14051.00
896.1400, 13885.00
897.2670, 14031.00
898.3930, 14109.00
899.5180, 14143.00
900.6440, 14358.00
901.7700, 14344.00
902.8950, 14434.00
904.0200, 14413.00
905.1450, 14436.86
906.2700, 14510.00
907.3950, 14463.00
908.5190, 14601.00
909.6440, 14642.00
910.7680, 14674.00
911.8920, 14707.00
913.0160, 14705.00
914.1400, 14781.00
915.2630, 14724.00
916.3870, 14977.00
917.5100, 15002.00
918.6330, 14987.00
919.7560, 14967.00
920.8790, 15106.00
922.0010, 15044.00
923.1240, 15051.00
924.2460, 15203.00
925.3680, 15202.00
926.4900, 15328.00
927.6120, 15357.00
928.7340, 15389.00
929.8550, 15549.00
930.9760, 15316.00
932.0980, 15551.00
933.2190, 15560.00
934.3390, 15607.00
935.4600, 15818.00
936.5810, 15772.00
937.7010, 15800.00
938.8210, 15925.00
939.9410, 16007.00
941.0610, 16057.07
942.1810, 15978.00
943.3010, 16109.00
944.4200, 16166.00
945.5390, 16059.00
946.6580, 16175.00
947.7770, 16240.00
948.8960, 16200.00
950.0150, 16426.00
951.1330, 16319.00
952.2510, 16558.00
953.3690, 16530.00
954.4870, 16548.00
955.6050, 16603.00
956.7230, 16766.00
957.8400, 16688.00
958.9580, 16693.00
960.0750, 17009.00
961.1920, 16848.00
962.3090, 16863.00
963.4250, 17162.00
964.5420, 17172.00
965.6580, 17251.00
966.7740, 17322.00
967.8900, 17484.00
969.0060, 17607.00
970.1220, 17528.00
971.2380, 17456.00
972.3530, 17792.00
973.4680, 17607.00
974.5830, 17646.00
975.6980, 17770.00
976.8130, 17882.00
977.9280, 17792.00
979.0420, 17792.00
980.1560, 17857.00
981.2710, 17899.00
982.3850, 17936.00
983.4980, 17992.39
984.6120, 18072.00
985.7260, 18070.00
986.8390, 18123.00
987.9520, 18119.75
989.0650, 18224.00
990.1780, 18177.00
991.2910, 18316.00
992.4030, 18434.00
993.5160, 18599.00
994.6280, 18447.00
995.7400, 18537.00
996.8520, 18602.00
997.9640, 18801.00
999.0750, 18628.00
1000.187, 18723.00
1001.298, 18855.00
1002.409, 19054.00
1003.520, 18946.00
1004.631, 19043.00
1005.741, 19159.00
1006.852, 19284.00
1007.962, 19326.16
1009.072, 19361.00
1010.182, 19364.00
1011.292, 19359.00
1012.402, 19273.00
1013.511, 19478.00
1014.621, 19418.00
1015.730, 19642.00
1016.839, 19796.00
1017.948, 19901.00
1019.056, 19898.00
1020.165, 20015.00
1021.273, 20235.00
1022.382, 20200.00
1023.490, 20306.00
1024.598, 20293.00
1025.706, 20252.00
1026.813, 20310.82
1027.921, 20352.00
1029.028, 20359.00
1030.135, 20464.00
1031.242, 20522.00
1032.349, 20418.00
1033.456, 20384.00
1034.562, 20471.00
1035.668, 20610.00
1036.775, 20636.00
1037.881, 20741.70
1038.987, 20803.00
1040.092, 20871.00
1041.198, 20914.00
1042.303, 20922.87
1043.408, 21016.00
1044.514, 21042.00
1045.618, 21046.00
1046.723, 21158.00
1047.828, 21038.00
1048.932, 21265.00
1050.037, 21180.00
1051.141, 21494.00
1052.245, 21469.00
1053.349, 21533.00
1054.452, 21637.00
1055.556, 21442.00
1056.659, 21758.00
1057.762, 21678.00
1058.865, 21919.00
1059.968, 21890.00
1061.071, 21806.00
1062.174, 21889.00
1063.276, 22043.00
1064.378, 22161.00
1065.480, 22148.00
1066.582, 22317.00
1067.684, 22146.00
1068.786, 22315.00
1069.887, 22392.00
1070.988, 22586.00
1072.090, 22536.00
1073.191, 22647.00
1074.291, 22860.00
1075.392, 22885.00
1076.493, 22713.00
1077.593, 22744.00
1078.693, 22725.00
1079.793, 23055.00
1080.893, 23145.00
1081.993, 23174.00
1083.092, 23399.00
1084.192, 23251.00
1085.291, 23377.00
1086.390, 23468.00
1087.489, 23379.00
1088.588, 23398.00
1089.686, 23520.00
1090.785, 23710.00
1091.883, 23559.00
1092.981, 23913.00
1094.079, 24004.00
1095.177, 23870.00
1096.275, 24079.00
1097.373, 24090.00
1098.470, 24184.00
1099.567, 24160.00
1100.664, 24301.00
1101.761, 24492.00
1102.858, 24390.00
1103.954, 24651.00
1105.051, 24699.00
1106.147, 24505.00
1107.243, 24705.00
1108.339, 24573.00
1109.435, 24564.00
1110.531, 24870.00
1111.626, 24877.00
1112.722, 24986.00
1113.817, 24895.00
1114.912, 25197.00
1116.007, 25306.00
1117.101, 25416.00
1118.196, 25300.00
1119.290, 25542.00
1120.385, 25364.00
1121.479, 25530.00
1122.573, 25616.00
1123.666, 25626.00
1124.760, 25589.00
1125.853, 26002.00
1126.947, 25902.00
1128.040, 26120.00
1129.133, 26143.00
1130.226, 26211.00
1131.318, 26332.00
1132.411, 26385.00
1133.503, 26457.64
1134.596, 26503.00
1135.688, 26559.00
1136.780, 26593.20
1137.871, 26642.38
1138.963, 26675.00
1140.054, 26706.00
1141.146, 26804.00
1142.237, 26789.00
1143.328, 26873.90
1144.419, 27120.00
1145.509, 27044.00
1146.600, 27141.00
1147.690, 27320.00
1148.780, 27329.00
1149.870, 27245.00
1150.960, 27480.00
1152.050, 27593.00
1153.139, 27371.00
1154.229, 27674.00
1155.318, 27722.00
1156.407, 27892.00
1157.496, 27888.00
1158.585, 27959.00
1159.674, 27946.00
1160.762, 27772.00
1161.850, 28063.00
1162.939, 28109.00
1164.027, 28099.00
1165.114, 28595.00
1166.202, 28248.00
1167.290, 28559.00
1168.377, 28642.00
1169.464, 28695.00
1170.551, 28713.00
1171.638, 28808.00
1172.725, 28905.00
1173.812, 29125.00
1174.898, 29121.00
1175.984, 29299.00
1177.071, 29239.00
1178.157, 29064.00
1179.242, 29485.00
1180.328, 29335.00
1181.414, 29411.00
1182.499, 29557.00
1183.584, 29646.00
1184.669, 29754.00
1185.754, 29723.00
1186.839, 29896.00
1187.924, 29739.00
1189.008, 30045.00
1190.092, 29924.00
1191.177, 30117.00
1192.260, 30179.00
1193.344, 30412.00
1194.428, 30471.00
1195.512, 30367.00
##END=



