##NAMES=Pectolite
##RRUFFID=R050396
##IDEAL CHEMISTRY=NaCa_2_Si_3_O_8_(OH)
##LOCALITY=Jeffrey Quarry, Asbestos, Quebec, Canada
##OWNER=RRUFF
##SOURCE=Marcus Origlieri
##DESCRIPTION=Colorless to gray columnar blocky crystals
##STATUS=The identification of this mineral has been confirmed by X-ray diffraction and chemical analysis
##URL=rruff.info/R050396
##MEASURED CHEMISTRY=Na_1.00_Ca_2.00_Si_3.00_O_8_(OH)
##PIN_ID=M00439
##ORIENTATION=Laser parallel to -c* (0 0 -1). Fiducial mark perpendicular to laser is parallel to a [1 0 0]
125.2990, 3238.000
126.5330, 3255.000
127.7670, 3254.804
129.0000, 3268.000
130.2340, 3304.000
131.4670, 3360.000
132.7000, 3441.000
133.9330, 3560.000
135.1660, 3653.000
136.3990, 3977.000
137.6310, 4159.000
138.8640, 4341.000
140.0960, 4541.000
141.3280, 4680.000
142.5600, 4944.000
143.7910, 5125.000
145.0230, 5616.000
146.2540, 5902.000
147.4850, 6478.000
148.7160, 6741.000
149.9470, 7033.000
151.1780, 7006.000
152.4080, 6624.000
153.6380, 6230.000
154.8690, 5510.000
156.0980, 4887.000
157.3280, 4432.000
158.5580, 4175.000
159.7870, 3969.000
161.0170, 3809.000
162.2460, 3702.000
163.4750, 3687.000
164.7030, 3655.000
165.9320, 3682.000
167.1600, 3601.000
168.3890, 3584.000
169.6170, 3594.000
170.8450, 3622.000
172.0730, 3632.000
173.3000, 3631.000
174.5280, 3636.927
175.7550, 3574.000
176.9820, 3612.000
178.2090, 3618.000
179.4350, 3573.000
180.6620, 3657.000
181.8880, 3666.000
183.1150, 3674.000
184.3410, 3749.000
185.5670, 3691.000
186.7920, 3763.000
188.0180, 3753.000
189.2430, 3710.000
190.4690, 3729.000
191.6940, 3688.000
192.9180, 3695.000
194.1430, 3642.000
195.3680, 3674.000
196.5920, 3719.000
197.8160, 3744.000
199.0400, 3722.000
200.2640, 3771.000
201.4880, 3794.000
202.7110, 3784.000
203.9350, 3843.000
205.1580, 3754.000
206.3810, 3772.000
207.6040, 3731.000
208.8270, 3732.000
210.0490, 3778.000
211.2710, 3845.000
212.4940, 3737.000
213.7160, 3835.000
214.9370, 3838.000
216.1590, 3846.000
217.3810, 3934.000
218.6020, 3937.000
219.8230, 3845.000
221.0440, 3953.000
222.2650, 3983.000
223.4860, 4086.000
224.7060, 4183.000
225.9260, 4202.000
227.1470, 4173.000
228.3670, 4136.000
229.5860, 4224.000
230.8060, 4207.000
232.0260, 4204.000
233.2450, 4234.000
234.4640, 4257.000
235.6830, 4280.000
236.9020, 4277.000
238.1200, 4239.000
239.3390, 4225.000
240.5570, 4187.000
241.7750, 4183.000
242.9930, 4218.000
244.2110, 4196.000
245.4290, 4224.000
246.6460, 4252.663
247.8630, 4366.000
249.0810, 4308.000
250.2980, 4318.000
251.5140, 4314.000
252.7310, 4440.000
253.9470, 4500.000
255.1640, 4644.000
256.3800, 4666.000
257.5960, 4831.000
258.8120, 4799.000
260.0270, 4858.000
261.2430, 4930.000
262.4580, 4786.000
263.6730, 4785.000
264.8880, 4769.000
266.1030, 4759.000
267.3170, 4701.000
268.5320, 4872.000
269.7460, 4891.000
270.9600, 4957.000
272.1740, 5120.000
273.3880, 4936.000
274.6010, 4952.000
275.8150, 5021.000
277.0280, 4986.000
278.2410, 5056.000
279.4540, 5026.000
280.6670, 4880.000
281.8790, 4851.000
283.0920, 4706.000
284.3040, 4726.000
285.5160, 4613.000
286.7280, 4533.000
287.9400, 4554.000
289.1510, 4537.000
290.3630, 4577.000
291.5740, 4485.000
292.7850, 4489.000
293.9960, 4465.000
295.2070, 4482.000
296.4170, 4592.000
297.6280, 4615.000
298.8380, 4634.000
300.0480, 4628.000
301.2580, 4679.000
302.4680, 4743.000
303.6770, 4849.000
304.8870, 4918.000
306.0960, 4921.000
307.3050, 4957.000
308.5140, 5126.000
309.7230, 5233.000
310.9310, 5387.000
312.1400, 5432.000
313.3480, 5531.000
314.5560, 5728.000
315.7640, 5953.000
316.9720, 6037.000
318.1790, 6126.000
319.3870, 6025.000
320.5940, 5992.000
321.8010, 5924.000
323.0080, 5874.188
324.2150, 5904.000
325.4210, 5818.000
326.6280, 5688.000
327.8340, 5713.000
329.0400, 5509.000
330.2460, 5363.000
331.4510, 5314.000
332.6570, 5264.000
333.8620, 5206.000
335.0680, 5162.000
336.2730, 5139.000
337.4780, 5130.000
338.6820, 5113.266
339.8870, 5118.556
341.0910, 5115.000
342.2950, 5143.000
343.5000, 5166.356
344.7030, 5194.000
345.9070, 5258.000
347.1110, 5335.000
348.3140, 5399.000
349.5170, 5492.000
350.7200, 5435.000
351.9230, 5602.000
353.1260, 5734.000
354.3290, 5735.000
355.5310, 5934.000
356.7330, 6067.000
357.9350, 6155.000
359.1370, 6097.000
360.3390, 6091.000
361.5400, 6269.000
362.7420, 6171.000
363.9430, 6293.000
365.1440, 6334.000
366.3450, 6598.000
367.5460, 6963.000
368.7460, 7417.000
369.9470, 7717.000
371.1470, 8056.000
372.3470, 8576.000
373.5470, 9239.000
374.7460, 10135.00
375.9460, 11051.00
377.1450, 11638.00
378.3450, 12084.00
379.5440, 11839.00
380.7430, 11144.00
381.9410, 10036.00
383.1400, 9106.000
384.3380, 8124.000
385.5370, 7582.000
386.7350, 7061.000
387.9320, 6653.000
389.1300, 6524.000
390.3280, 6393.000
391.5250, 6373.000
392.7220, 6371.000
393.9190, 6354.000
395.1160, 6490.000
396.3130, 6560.461
397.5100, 6590.000
398.7060, 6861.000
399.9020, 7011.000
401.0980, 7236.000
402.2940, 7564.000
403.4900, 7713.000
404.6860, 8196.000
405.8810, 8780.000
407.0760, 8992.000
408.2710, 9568.000
409.4660, 10022.00
410.6610, 10767.00
411.8550, 10967.00
413.0500, 11351.00
414.2440, 11140.00
415.4380, 11134.00
416.6320, 10487.00
417.8260, 9936.000
419.0190, 9208.000
420.2130, 8635.000
421.4060, 8031.000
422.5990, 7552.000
423.7920, 7204.000
424.9850, 6897.351
426.1770, 6819.000
427.3700, 6585.000
428.5620, 6559.000
429.7540, 6582.000
430.9460, 6408.000
432.1380, 6404.000
433.3290, 6313.000
434.5210, 6291.000
435.7120, 6208.000
436.9030, 6288.000
438.0940, 6237.000
439.2850, 6223.000
440.4750, 6278.000
441.6660, 6287.000
442.8560, 6219.000
444.0460, 6326.000
445.2360, 6297.000
446.4260, 6299.000
447.6160, 6338.000
448.8050, 6300.000
449.9940, 6319.000
451.1830, 6377.000
452.3720, 6435.000
453.5610, 6436.148
454.7500, 6395.000
455.9380, 6433.000
457.1260, 6453.000
458.3150, 6416.000
459.5020, 6506.000
460.6900, 6403.000
461.8780, 6588.000
463.0650, 6645.000
464.2530, 6476.000
465.4400, 6644.000
466.6270, 6597.000
467.8130, 6547.000
469.0000, 6659.000
470.1870, 6691.000
471.3730, 6672.000
472.5590, 6632.000
473.7450, 6855.000
474.9310, 6751.000
476.1160, 6761.000
477.3020, 6853.000
478.4870, 6802.000
479.6720, 6780.000
480.8570, 6765.000
482.0420, 6771.000
483.2270, 6734.000
484.4110, 6859.000
485.5960, 6785.000
486.7800, 6960.000
487.9640, 6851.000
489.1480, 6955.000
490.3310, 7002.000
491.5150, 7032.000
492.6980, 7107.000
493.8810, 7165.000
495.0640, 7196.000
496.2470, 7346.000
497.4300, 7377.000
498.6120, 7502.000
499.7950, 7509.000
500.9770, 7607.000
502.1590, 7645.000
503.3410, 7529.000
504.5220, 7332.000
505.7040, 7454.000
506.8850, 7403.000
508.0660, 7234.000
509.2470, 7385.000
510.4280, 7258.000
511.6090, 7283.000
512.7890, 7275.000
513.9700, 7317.000
515.1500, 7425.000
516.3300, 7354.000
517.5100, 7448.000
518.6900, 7378.000
519.8690, 7487.000
521.0490, 7494.000
522.2280, 7444.000
523.4070, 7510.000
524.5860, 7689.000
525.7640, 7734.000
526.9430, 7717.000
528.1210, 7728.000
529.3000, 7931.000
530.4780, 7786.000
531.6560, 8023.000
532.8330, 8080.000
534.0110, 8144.000
535.1880, 8151.000
536.3650, 8252.000
537.5430, 8327.000
538.7190, 8347.702
539.8960, 8279.000
541.0730, 8393.000
542.2490, 8360.000
543.4250, 8336.000
544.6020, 8363.000
545.7780, 8195.000
546.9530, 8224.000
548.1290, 8339.000
549.3040, 8167.000
550.4800, 8116.000
551.6550, 8209.000
552.8300, 8223.000
554.0040, 8265.000
555.1790, 8285.000
556.3540, 8257.000
557.5280, 8252.000
558.7020, 8230.000
559.8760, 8212.000
561.0500, 8252.288
562.2230, 8261.414
563.3970, 8347.000
564.5700, 8370.000
565.7430, 8430.000
566.9160, 8466.583
568.0890, 8406.000
569.2620, 8501.000
570.4340, 8561.000
571.6070, 8521.000
572.7790, 8437.000
573.9510, 8561.000
575.1230, 8610.000
576.2940, 8632.000
577.4660, 8694.000
578.6370, 8637.000
579.8080, 8558.000
580.9790, 8526.000
582.1500, 8588.000
583.3210, 8749.000
584.4910, 8745.000
585.6620, 8845.000
586.8320, 8775.000
588.0020, 8660.000
589.1720, 8845.000
590.3410, 8856.000
591.5110, 8963.000
592.6800, 8899.000
593.8500, 8946.000
595.0190, 9053.000
596.1880, 9046.000
597.3560, 9052.000
598.5250, 9105.000
599.6930, 9097.000
600.8620, 9134.000
602.0300, 9177.266
603.1970, 9188.397
604.3650, 9272.000
605.5330, 9272.000
606.7000, 9321.000
607.8680, 9436.000
609.0350, 9467.000
610.2020, 9550.000
611.3680, 9519.000
612.5350, 9554.000
613.7010, 9579.000
614.8680, 9599.994
616.0340, 9712.000
617.2000, 9700.000
618.3660, 9839.000
619.5310, 9951.000
620.6970, 9927.000
621.8620, 10045.00
623.0270, 10220.00
624.1920, 10190.00
625.3570, 10376.00
626.5220, 10501.00
627.6860, 10547.00
628.8500, 10726.00
630.0140, 10715.00
631.1780, 10783.00
632.3420, 10969.00
633.5060, 11123.00
634.6700, 11431.00
635.8330, 11761.00
636.9960, 12171.00
638.1590, 12471.00
639.3220, 13144.00
640.4850, 13723.00
641.6470, 14642.00
642.8100, 15670.00
643.9720, 16966.00
645.1340, 18246.00
646.2960, 19794.00
647.4570, 21391.00
648.6190, 23246.00
649.7800, 24904.00
650.9420, 26640.00
652.1030, 27341.00
653.2640, 27319.00
654.4240, 25782.00
655.5850, 23781.00
656.7450, 21133.00
657.9060, 18823.00
659.0660, 16884.00
660.2260, 15544.00
661.3850, 14213.00
662.5450, 13546.00
663.7040, 12953.00
664.8640, 12578.00
666.0230, 12312.00
667.1820, 11947.00
668.3410, 11831.00
669.4990, 11613.00
670.6580, 11549.00
671.8160, 11535.00
672.9740, 11496.00
674.1320, 11412.00
675.2900, 11272.00
676.4480, 11482.00
677.6050, 11481.00
678.7630, 11122.00
679.9200, 11323.00
681.0770, 11292.00
682.2340, 11415.00
683.3900, 11278.00
684.5470, 11347.00
685.7030, 11361.00
686.8590, 11307.00
688.0150, 11406.00
689.1710, 11314.00
690.3270, 11522.00
691.4830, 11551.00
692.6380, 11621.00
693.7930, 11497.00
694.9480, 11518.00
696.1030, 11564.00
697.2580, 11588.00
698.4130, 11693.00
699.5670, 11584.00
700.7210, 11708.00
701.8750, 11594.00
703.0290, 11749.00
704.1830, 11797.00
705.3370, 11748.00
706.4900, 11870.00
707.6430, 11886.00
708.7970, 11971.00
709.9490, 11938.00
711.1020, 11930.00
712.2550, 12014.00
713.4070, 11992.00
714.5600, 11988.00
715.7120, 11959.00
716.8640, 12012.58
718.0160, 12133.00
719.1670, 12146.00
720.3190, 12184.00
721.4700, 12288.00
722.6210, 12281.00
723.7720, 12374.00
724.9230, 12265.00
726.0740, 12392.00
727.2250, 12325.00
728.3750, 12524.00
729.5250, 12431.00
730.6750, 12485.00
731.8250, 12475.00
732.9750, 12551.00
734.1240, 12579.00
735.2740, 12591.26
736.4230, 12577.00
737.5720, 12622.00
738.7210, 12648.33
739.8700, 12687.97
741.0190, 12757.00
742.1670, 12788.00
743.3150, 12883.00
744.4630, 12929.00
745.6110, 13017.00
746.7590, 12966.00
747.9070, 13173.00
749.0540, 13315.00
750.2020, 13107.00
751.3490, 13281.00
752.4960, 13309.00
753.6430, 13292.00
754.7890, 13324.00
755.9360, 13360.00
757.0820, 13380.00
758.2280, 13449.73
759.3740, 13509.00
760.5200, 13580.00
761.6660, 13616.00
762.8120, 13660.00
763.9570, 13645.00
765.1020, 13734.00
766.2470, 13699.00
767.3920, 13903.00
768.5370, 13854.00
769.6810, 13857.00
770.8260, 14003.00
771.9700, 14019.00
773.1140, 14097.00
774.2580, 14102.00
775.4020, 14053.00
776.5460, 14131.00
777.6890, 14181.00
778.8320, 14333.00
779.9750, 14260.00
781.1180, 14231.00
782.2610, 14342.00
783.4040, 14468.00
784.5460, 14493.00
785.6890, 14467.00
786.8310, 14518.00
787.9730, 14482.00
789.1150, 14384.00
790.2560, 14610.00
791.3980, 14536.00
792.5390, 14705.00
793.6810, 14853.00
794.8220, 14980.00
795.9630, 14925.00
797.1030, 14875.00
798.2440, 14897.00
799.3840, 14877.00
800.5240, 14968.00
801.6650, 15118.00
802.8040, 15076.00
803.9440, 15199.00
805.0840, 15329.00
806.2230, 15412.00
807.3630, 15405.00
808.5020, 15272.00
809.6410, 15485.00
810.7790, 15676.00
811.9180, 15477.00
813.0570, 15725.00
814.1950, 15687.00
815.3330, 15668.00
816.4710, 15866.00
817.6090, 15763.00
818.7470, 15845.00
819.8840, 15777.00
821.0220, 15896.00
822.1590, 15878.00
823.2960, 15994.00
824.4330, 16190.00
825.5690, 16184.00
826.7060, 16337.00
827.8420, 16410.40
828.9790, 16195.00
830.1150, 16500.00
831.2510, 16390.00
832.3860, 16290.00
833.5220, 16515.00
834.6570, 16526.00
835.7930, 16445.00
836.9280, 16524.00
838.0630, 16631.00
839.1980, 16865.00
840.3320, 16856.00
841.4670, 16876.00
842.6010, 16972.00
843.7350, 16768.00
844.8690, 17099.00
846.0030, 17137.00
847.1370, 17067.00
848.2700, 17245.00
849.4040, 17294.00
850.5370, 17285.00
851.6700, 17322.00
852.8030, 17385.00
853.9360, 17513.00
855.0680, 17587.00
856.2000, 17576.00
857.3330, 17606.00
858.4650, 17590.00
859.5970, 17730.00
860.7290, 17899.00
861.8600, 17638.00
862.9920, 17901.00
864.1230, 17885.00
865.2540, 17952.00
866.3850, 18045.00
867.5160, 18053.00
868.6460, 18179.00
869.7770, 18187.00
870.9070, 18260.00
872.0370, 18231.00
873.1670, 18322.00
874.2970, 18148.00
875.4270, 18420.00
876.5570, 18348.00
877.6860, 18350.00
878.8150, 18471.00
879.9440, 18553.00
881.0730, 18702.00
882.2020, 18603.00
883.3300, 18744.00
884.4590, 18558.00
885.5870, 18729.00
886.7150, 18959.00
887.8430, 19011.00
888.9710, 18983.00
890.0990, 19045.00
891.2260, 19005.00
892.3530, 19341.00
893.4810, 19226.00
894.6080, 19390.00
895.7340, 19411.00
896.8610, 19709.00
897.9880, 19529.00
899.1140, 19696.00
900.2400, 19705.00
901.3660, 19878.00
902.4920, 20073.00
903.6180, 20462.00
904.7430, 20411.00
905.8690, 20584.00
906.9940, 20621.00
908.1190, 21154.00
909.2440, 21076.00
910.3690, 21205.00
911.4930, 21206.00
912.6180, 21180.00
913.7420, 21160.62
914.8660, 20865.00
915.9900, 20957.00
917.1140, 20850.00
918.2380, 20629.00
919.3610, 20788.00
920.4850, 20802.00
921.6080, 20719.00
922.7310, 20710.00
923.8540, 20770.48
924.9760, 20791.95
926.0990, 20939.00
927.2210, 20948.00
928.3440, 21072.00
929.4660, 21164.00
930.5880, 21204.00
931.7090, 21211.00
932.8310, 21337.00
933.9520, 21434.00
935.0740, 21399.00
936.1950, 21692.00
937.3160, 21471.00
938.4360, 21709.00
939.5570, 21742.00
940.6780, 21635.00
941.7980, 21978.00
942.9180, 21763.00
944.0380, 22125.00
945.1580, 22131.00
946.2780, 22037.00
947.3970, 22293.00
948.5170, 22216.00
949.6360, 22532.00
950.7550, 22609.00
951.8740, 22727.00
952.9930, 22792.00
954.1110, 23070.00
955.2300, 23243.00
956.3480, 23074.00
957.4660, 23516.00
958.5840, 23702.00
959.7020, 23934.00
960.8190, 24323.00
961.9370, 24612.00
963.0540, 24647.00
964.1710, 25138.00
965.2880, 25402.00
966.4050, 25996.00
967.5220, 26252.00
968.6380, 26484.00
969.7550, 26642.00
970.8710, 27097.00
971.9870, 27391.00
973.1030, 27390.00
974.2190, 27326.00
975.3340, 27356.00
976.4500, 27514.00
977.5650, 27174.00
978.6800, 27216.00
979.7950, 26957.00
980.9100, 26916.00
982.0250, 26864.00
983.1390, 27022.00
984.2530, 26976.00
985.3680, 27014.00
986.4820, 27259.00
987.5950, 27404.00
988.7090, 27639.00
989.8230, 27811.00
990.9360, 28103.00
992.0490, 28357.00
993.1620, 28484.00
994.2750, 28570.00
995.3880, 28858.00
996.5010, 28839.00
997.6130, 28710.00
998.7250, 28857.00
999.8370, 29119.00
1000.949, 29268.00
1002.061, 29739.00
1003.173, 30316.00
1004.284, 30612.00
1005.396, 30409.00
1006.507, 30170.00
1007.618, 29488.00
1008.729, 28879.00
1009.839, 28705.00
1010.950, 28606.00
1012.060, 28671.00
1013.171, 28902.00
1014.281, 29238.22
1015.391, 29638.00
1016.500, 30306.00
1017.610, 31075.00
1018.719, 31835.00
1019.829, 32670.00
1020.938, 33651.00
1022.047, 34791.00
1023.156, 35298.00
1024.264, 35887.00
1025.373, 36306.00
1026.481, 35603.00
1027.589, 35195.00
1028.697, 34520.00
1029.805, 33041.00
1030.913, 32087.00
1032.020, 31013.00
1033.128, 30133.00
1034.235, 29751.00
1035.342, 29276.00
1036.449, 29140.00
1037.556, 28641.00
1038.663, 28384.00
1039.769, 28568.00
1040.875, 28319.00
1041.981, 28220.00
1043.087, 28466.00
1044.193, 28381.00
1045.299, 28309.00
1046.404, 28108.00
1047.510, 28173.00
1048.615, 28355.00
1049.720, 28622.00
1050.825, 28251.00
1051.930, 28461.00
1053.034, 28567.00
1054.139, 28484.00
1055.243, 28547.00
1056.347, 28754.00
1057.451, 28651.00
1058.555, 28753.00
1059.658, 29049.00
1060.762, 29058.00
1061.865, 28968.00
1062.968, 28879.00
1064.071, 29116.00
1065.174, 29119.00
1066.277, 29379.00
1067.380, 29303.00
1068.482, 29349.00
1069.584, 29629.00
1070.686, 29603.00
1071.788, 29740.00
1072.890, 29697.00
1073.992, 29844.00
1075.093, 29727.00
1076.194, 29704.00
1077.295, 29937.00
1078.396, 30099.00
1079.497, 30190.00
1080.598, 30353.77
1081.698, 30427.21
1082.799, 30504.00
1083.899, 30555.00
1084.999, 30458.00
1086.099, 30462.00
1087.199, 30773.00
1088.298, 30702.00
1089.398, 30822.00
1090.497, 30829.00
1091.596, 30997.00
1092.695, 31016.00
1093.794, 31172.00
1094.892, 31091.00
1095.991, 31164.00
1097.089, 31404.00
1098.187, 31158.00
1099.285, 31343.00
1100.383, 31536.00
1101.481, 31702.00
1102.579, 31592.00
1103.676, 31737.00
1104.773, 31791.00
1105.870, 31972.00
1106.967, 32153.00
1108.064, 32180.00
1109.161, 32059.00
1110.257, 32250.00
1111.353, 32355.00
1112.449, 32114.00
1113.545, 32211.00
1114.641, 32524.00
1115.737, 32460.00
1116.832, 32932.00
1117.928, 32692.00
1119.023, 32994.00
1120.118, 32832.00
1121.213, 33068.00
1122.308, 33135.00
1123.402, 33226.00
1124.497, 33285.00
1125.591, 33326.81
1126.685, 33399.61
1127.779, 33421.00
1128.873, 33562.00
1129.967, 33684.00
1131.060, 33872.00
1132.153, 33831.00
1133.247, 33726.00
1134.340, 33972.00
1135.433, 33851.00
1136.525, 33934.00
1137.618, 34090.00
1138.710, 34250.00
1139.802, 34315.00
1140.895, 34530.00
1141.987, 34561.00
1143.078, 34474.00
1144.170, 34810.00
1145.261, 34590.00
1146.353, 34528.00
1147.444, 34825.00
1148.535, 34847.00
1149.626, 34955.00
1150.716, 35157.00
1151.807, 35178.00
1152.897, 35297.95
1153.988, 35256.00
1155.078, 35447.00
1156.168, 35520.00
1157.257, 35597.00
1158.347, 35715.00
1159.436, 35936.00
1160.526, 35946.00
1161.615, 36219.00
1162.704, 36176.00
1163.793, 36243.00
1164.881, 36290.00
1165.970, 36352.00
1167.058, 36374.00
1168.147, 36382.00
1169.235, 36421.00
1170.323, 36402.00
1171.410, 36572.55
1172.498, 36811.00
1173.585, 36891.00
1174.673, 36996.00
1175.760, 37077.00
1176.847, 37098.00
1177.934, 37047.00
1179.020, 37307.00
1180.107, 37314.00
1181.193, 37531.00
1182.279, 37626.00
1183.365, 37469.00
1184.451, 37866.00
1185.537, 37821.00
1186.623, 38021.00
1187.708, 37789.00
1188.793, 38119.00
1189.878, 38089.00
1190.963, 38087.00
1192.048, 38249.00
1193.133, 38384.00
1194.217, 38339.00
1195.302, 38348.00
1196.386, 38590.00
1197.470, 38771.00
1198.554, 38835.00
1199.638, 38945.00
1200.721, 39034.00
1201.805, 39041.00
1202.888, 39125.00
1203.971, 39488.00
1205.054, 39429.00
1206.137, 39502.00
1207.219, 39475.00
1208.302, 39445.00
1209.384, 39742.00
1210.466, 39998.00
1211.548, 39734.00
1212.630, 40133.00
1213.712, 39797.00
1214.794, 40154.00
1215.875, 40321.00
1216.956, 39958.00
1218.037, 40448.00
1219.118, 40590.00
1220.199, 40559.00
1221.280, 40970.00
1222.360, 40728.00
1223.441, 40797.00
1224.521, 40753.00
1225.601, 40889.00
1226.681, 41041.00
1227.760, 41000.00
1228.840, 41200.01
1229.919, 41306.00
1230.999, 41444.00
1232.078, 41563.00
1233.157, 41606.00
1234.236, 41902.00
1235.314, 41971.00
1236.393, 41894.00
1237.471, 42216.00
1238.549, 41948.00
1239.627, 42122.00
1240.705, 42666.00
1241.783, 42345.00
1242.860, 42501.00
1243.938, 42536.00
1245.015, 42835.00
1246.092, 42701.00
1247.169, 42829.00
1248.246, 42904.00
1249.323, 42843.00
1250.399, 42929.00
1251.475, 43265.00
1252.552, 43406.00
1253.628, 43517.00
1254.703, 43538.00
1255.779, 43553.00
1256.855, 43786.00
##END=



