##NAMES=Pectolite
##RRUFFID=R050396
##IDEAL CHEMISTRY=NaCa_2_Si_3_O_8_(OH)
##LOCALITY=Jeffrey Quarry, Asbestos, Quebec, Canada
##OWNER=RRUFF
##SOURCE=Marcus Origlieri
##DESCRIPTION=Colorless to gray columnar blocky crystals
##STATUS=The identification of this mineral has been confirmed by X-ray diffraction and chemical analysis
##URL=rruff.info/R050396
##MEASURED CHEMISTRY=Na_1.00_Ca_2.00_Si_3.00_O_8_(OH)
##PIN_ID=L00632
##ORIENTATION=Laser parallel to (-1 0 -1). Fiducial mark perpendicular to laser is parallel to b [0 1 0]
111.5030, 5184.000
112.7420, 5169.000
113.9810, 5140.000
115.2200, 5077.000
116.4580, 5297.000
117.6970, 5254.000
118.9350, 5313.000
120.1730, 5232.000
121.4100, 5341.000
122.6480, 5377.000
123.8850, 5512.000
125.1230, 5561.000
126.3600, 5560.000
127.5960, 5568.000
128.8330, 5558.000
130.0700, 5713.000
131.3060, 5805.000
132.5420, 5805.000
133.7780, 6028.000
135.0140, 5973.000
136.2500, 6126.000
137.4850, 6136.000
138.7200, 6233.000
139.9550, 6401.000
141.1900, 6475.000
142.4250, 6660.000
143.6600, 6776.000
144.8940, 6764.000
146.1280, 7003.000
147.3620, 7084.000
148.5960, 7060.000
149.8300, 7188.000
151.0630, 7221.000
152.2960, 7097.000
153.5300, 6897.000
154.7620, 6627.000
155.9950, 6537.000
157.2280, 6359.000
158.4600, 6314.000
159.6920, 6190.000
160.9250, 6100.000
162.1560, 6186.000
163.3880, 6068.000
164.6200, 6126.000
165.8510, 6152.000
167.0820, 6208.000
168.3130, 6182.000
169.5440, 6192.848
170.7750, 6213.000
172.0050, 6195.000
173.2350, 6182.000
174.4650, 6253.000
175.6950, 6237.000
176.9250, 6364.000
178.1550, 6275.000
179.3840, 6337.000
180.6130, 6414.000
181.8420, 6528.000
183.0710, 6590.000
184.3000, 6644.000
185.5280, 6836.000
186.7570, 6782.000
187.9850, 6799.000
189.2130, 6748.000
190.4400, 6617.000
191.6680, 6630.000
192.8960, 6614.000
194.1230, 6615.946
195.3500, 6624.000
196.5770, 6681.000
197.8030, 6756.000
199.0300, 6769.000
200.2560, 6958.000
201.4830, 6899.000
202.7090, 6998.000
203.9340, 6967.000
205.1600, 6820.000
206.3860, 6867.000
207.6110, 6811.000
208.8360, 6793.000
210.0610, 6789.000
211.2860, 6787.942
212.5100, 6798.976
213.7350, 6862.000
214.9590, 6863.000
216.1830, 6976.000
217.4070, 7073.000
218.6310, 7181.000
219.8540, 7274.483
221.0780, 7344.000
222.3010, 7463.000
223.5240, 7497.000
224.7470, 7507.013
225.9690, 7604.000
227.1920, 7418.000
228.4140, 7291.000
229.6360, 7127.000
230.8580, 7132.000
232.0800, 7163.000
233.3020, 7074.000
234.5230, 7199.000
235.7440, 6987.000
236.9650, 7142.000
238.1860, 7090.000
239.4070, 6959.000
240.6280, 7164.000
241.8480, 7003.000
243.0680, 7056.000
244.2880, 7069.000
245.5080, 7178.000
246.7280, 7210.000
247.9470, 7269.051
249.1660, 7272.000
250.3860, 7372.000
251.6040, 7380.000
252.8230, 7407.000
254.0420, 7395.000
255.2600, 7501.000
256.4790, 7590.000
257.6970, 7681.000
258.9150, 7614.000
260.1320, 7546.000
261.3500, 7743.000
262.5670, 7880.000
263.7840, 7732.000
265.0010, 7888.000
266.2180, 7984.000
267.4350, 8036.000
268.6510, 8188.000
269.8680, 8214.000
271.0840, 8440.000
272.3000, 8414.000
273.5160, 8558.000
274.7310, 8514.000
275.9470, 8512.000
277.1620, 8630.000
278.3770, 8562.000
279.5920, 8513.000
280.8070, 8310.000
282.0210, 8136.000
283.2360, 7985.000
284.4500, 7893.000
285.6640, 7841.000
286.8780, 7749.000
288.0920, 7801.000
289.3050, 7680.000
290.5180, 7692.000
291.7320, 7713.000
292.9450, 7692.000
294.1570, 7764.000
295.3700, 7827.000
296.5830, 7770.000
297.7950, 7860.000
299.0070, 7893.000
300.2190, 7914.000
301.4310, 7896.000
302.6420, 7914.000
303.8540, 7867.000
305.0650, 7885.000
306.2760, 7950.813
307.4870, 8015.000
308.6980, 8113.000
309.9080, 8253.000
311.1190, 8333.000
312.3290, 8572.000
313.5390, 8748.000
314.7490, 8777.000
315.9580, 8942.000
317.1680, 8945.000
318.3770, 8853.000
319.5860, 8991.000
320.7950, 8915.000
322.0040, 9029.000
323.2130, 9031.000
324.4210, 9012.000
325.6290, 8850.000
326.8380, 8834.000
328.0460, 8723.000
329.2530, 8623.000
330.4610, 8488.000
331.6680, 8395.000
332.8760, 8272.000
334.0830, 8139.000
335.2890, 8191.000
336.4960, 8110.000
337.7030, 8144.000
338.9090, 8172.000
340.1150, 8173.000
341.3210, 8198.000
342.5270, 8121.000
343.7330, 8222.000
344.9380, 8306.000
346.1440, 8188.000
347.3490, 8309.000
348.5540, 8221.000
349.7590, 8451.000
350.9630, 8499.000
352.1680, 8558.000
353.3720, 8635.000
354.5760, 8818.000
355.7800, 8887.000
356.9840, 9029.000
358.1870, 9006.000
359.3910, 8990.000
360.5940, 8899.000
361.7970, 8912.925
363.0000, 8867.354
364.2030, 8901.000
365.4050, 8840.000
366.6080, 8837.000
367.8100, 8878.000
369.0120, 8977.000
370.2140, 9120.000
371.4150, 9183.000
372.6170, 9366.000
373.8180, 9533.000
375.0190, 9530.000
376.2200, 9915.000
377.4210, 9971.000
378.6220, 10026.00
379.8220, 9839.000
381.0230, 9758.000
382.2230, 9543.000
383.4230, 9268.000
384.6220, 9106.000
385.8220, 8921.000
387.0220, 8908.000
388.2210, 8934.000
389.4200, 8972.000
390.6190, 8899.000
391.8180, 8845.000
393.0160, 8855.000
394.2150, 8813.000
395.4130, 8850.195
396.6110, 8881.506
397.8090, 8949.000
399.0060, 9004.000
400.2040, 9083.000
401.4010, 9183.657
402.5980, 9278.000
403.7950, 9502.000
404.9920, 9591.000
406.1890, 9796.000
407.3860, 10083.00
408.5820, 10266.00
409.7780, 10468.00
410.9740, 10594.00
412.1700, 10876.00
413.3650, 10955.00
414.5610, 10741.00
415.7560, 10775.00
416.9510, 10402.00
418.1460, 10240.00
419.3410, 10013.00
420.5360, 9886.000
421.7300, 9650.000
422.9240, 9457.000
424.1180, 9393.000
425.3120, 9444.000
426.5060, 9212.000
427.7000, 9332.000
428.8930, 9334.000
430.0860, 9213.000
431.2790, 9223.000
432.4720, 9138.000
433.6650, 9180.000
434.8580, 9083.000
436.0500, 9229.000
437.2420, 9221.000
438.4340, 9258.000
439.6260, 9363.000
440.8180, 9150.000
442.0090, 9271.000
443.2010, 9205.000
444.3920, 9214.000
445.5830, 9311.000
446.7740, 9259.000
447.9640, 9324.000
449.1550, 9243.000
450.3450, 9260.000
451.5350, 9348.000
452.7250, 9418.000
453.9150, 9472.000
455.1050, 9539.000
456.2940, 9316.000
457.4830, 9471.000
458.6720, 9497.000
459.8610, 9468.000
461.0500, 9603.000
462.2390, 9518.000
463.4270, 9635.000
464.6150, 9621.000
465.8040, 9596.000
466.9910, 9644.000
468.1790, 9667.000
469.3670, 9846.000
470.5540, 9615.000
471.7410, 9479.000
472.9280, 9798.000
474.1150, 9857.000
475.3020, 9747.000
476.4890, 9762.000
477.6750, 9776.000
478.8610, 9897.000
480.0470, 9860.761
481.2330, 9805.000
482.4190, 9878.000
483.6040, 9877.000
484.7900, 9937.000
485.9750, 9945.000
487.1600, 9948.000
488.3450, 9999.000
489.5290, 9953.000
490.7140, 10067.00
491.8980, 10008.00
493.0820, 10099.00
494.2660, 10189.00
495.4500, 10252.00
496.6340, 10230.00
497.8170, 10297.00
499.0010, 10512.00
500.1840, 10581.00
501.3670, 10475.00
502.5500, 10527.00
503.7320, 10309.00
504.9150, 10324.00
506.0970, 10375.00
507.2790, 10464.00
508.4610, 10363.00
509.6430, 10360.00
510.8250, 10337.00
512.0060, 10343.20
513.1870, 10331.00
514.3680, 10430.00
515.5490, 10433.00
516.7300, 10520.00
517.9110, 10566.29
519.0910, 10531.00
520.2710, 10667.00
521.4510, 10621.00
522.6310, 10661.00
523.8110, 10746.00
524.9910, 10559.00
526.1700, 10727.00
527.3490, 10676.00
528.5280, 10457.00
529.7070, 10497.00
530.8860, 10684.00
532.0650, 10555.00
533.2430, 10670.00
534.4210, 10591.00
535.5990, 10704.00
536.7770, 10627.00
537.9550, 10729.00
539.1320, 10725.00
540.3100, 10809.00
541.4870, 10828.54
542.6640, 10760.00
543.8410, 10810.00
545.0170, 10860.00
546.1940, 10729.00
547.3700, 10852.00
548.5470, 10875.00
549.7230, 10849.00
550.8980, 10820.00
552.0740, 10842.00
553.2500, 10817.00
554.4250, 10852.00
555.6000, 10849.00
556.7750, 10913.00
557.9500, 10909.08
559.1250, 11020.00
560.2990, 10988.00
561.4730, 10928.00
562.6480, 11096.00
563.8220, 11095.00
564.9950, 11052.00
566.1690, 11109.00
567.3430, 11019.00
568.5160, 11123.00
569.6890, 11158.00
570.8620, 11134.00
572.0350, 11184.34
573.2070, 11227.00
574.3800, 11195.00
575.5520, 11188.00
576.7240, 11183.00
577.8960, 11333.00
579.0680, 11431.00
580.2400, 11448.00
581.4110, 11459.00
582.5830, 11470.55
583.7540, 11494.00
584.9250, 11439.00
586.0950, 11465.00
587.2660, 11464.00
588.4370, 11480.42
589.6070, 11517.21
590.7770, 11554.00
591.9470, 11606.00
593.1170, 11664.00
594.2860, 11733.00
595.4560, 11711.00
596.6250, 11702.00
597.7940, 11863.00
598.9630, 11686.00
600.1320, 11763.00
601.3000, 11895.00
602.4690, 11709.00
603.6370, 11989.00
604.8050, 12038.00
605.9730, 11928.00
607.1410, 11873.00
608.3090, 11979.00
609.4760, 12078.00
610.6430, 12062.00
611.8100, 12277.00
612.9770, 12055.00
614.1440, 12175.00
615.3110, 12234.00
616.4770, 12109.00
617.6430, 12286.00
618.8090, 12355.00
619.9750, 12494.00
621.1410, 12512.10
622.3070, 12579.00
623.4720, 12514.00
624.6370, 12500.00
625.8020, 12497.00
626.9670, 12645.00
628.1320, 12654.00
629.2970, 12734.00
630.4610, 12870.00
631.6250, 12881.00
632.7890, 13232.00
633.9530, 13283.00
635.1170, 13435.00
636.2810, 13317.00
637.4440, 13857.00
638.6070, 13965.00
639.7700, 14375.00
640.9330, 14722.00
642.0960, 15189.00
643.2590, 16053.00
644.4210, 16687.00
645.5830, 17438.00
646.7450, 18441.00
647.9070, 19566.00
649.0690, 20876.00
650.2310, 21907.00
651.3920, 22650.00
652.5530, 22960.00
653.7140, 22671.00
654.8750, 21189.00
656.0360, 19821.00
657.1970, 18229.00
658.3570, 17115.00
659.5170, 16079.00
660.6770, 15344.00
661.8370, 14835.00
662.9970, 14659.00
664.1570, 14301.00
665.3160, 13992.00
666.4750, 13951.00
667.6340, 13914.00
668.7930, 13748.00
669.9520, 13783.00
671.1110, 13742.00
672.2690, 13703.89
673.4270, 13663.00
674.5850, 13714.00
675.7430, 13729.00
676.9010, 13794.00
678.0590, 13672.00
679.2160, 13793.00
680.3730, 13691.00
681.5300, 13807.00
682.6870, 13953.00
683.8440, 14108.00
685.0010, 13977.00
686.1570, 14057.00
687.3130, 14129.00
688.4690, 14071.00
689.6250, 14124.00
690.7810, 13994.00
691.9370, 13999.00
693.0920, 13862.00
694.2470, 13948.00
695.4020, 13951.00
696.5570, 13993.00
697.7120, 14026.00
698.8670, 14059.00
700.0210, 14031.00
701.1750, 14089.00
702.3290, 14136.09
703.4830, 14116.00
704.6370, 14257.00
705.7910, 14221.00
706.9440, 14240.00
708.0970, 14369.00
709.2510, 14348.00
710.4030, 14566.00
711.5560, 14405.00
712.7090, 14411.00
713.8610, 14419.00
715.0140, 14282.00
716.1660, 14590.00
717.3180, 14351.00
718.4690, 14526.00
719.6210, 14538.00
720.7730, 14552.00
721.9240, 14579.00
723.0750, 14626.00
724.2260, 14638.42
725.3770, 14719.00
726.5270, 14661.00
727.6780, 14671.00
728.8280, 14634.00
729.9780, 14731.00
731.1280, 14739.00
732.2780, 14744.00
733.4280, 14922.00
734.5770, 14911.00
735.7260, 14831.00
736.8760, 14987.00
738.0250, 15033.00
739.1730, 14965.00
740.3220, 15104.00
741.4700, 15081.00
742.6190, 15186.00
743.7670, 15177.00
744.9150, 15119.00
746.0630, 15311.00
747.2100, 15389.00
748.3580, 15159.00
749.5050, 15315.00
750.6520, 15292.00
751.7990, 15364.00
752.9460, 15251.00
754.0930, 15345.00
755.2390, 15424.00
756.3860, 15494.00
757.5320, 15505.00
758.6780, 15406.00
759.8240, 15569.00
760.9690, 15610.00
762.1150, 15750.00
763.2600, 15597.00
764.4060, 15756.00
765.5510, 15661.00
766.6950, 15885.00
767.8400, 15834.00
768.9850, 15800.00
770.1290, 15918.00
771.2730, 16022.00
772.4170, 16024.95
773.5610, 15810.00
774.7050, 16061.00
775.8480, 16117.00
776.9920, 16069.00
778.1350, 16256.00
779.2780, 16190.00
780.4210, 16109.00
781.5640, 16325.00
782.7060, 16221.00
783.8490, 16229.00
784.9910, 16291.00
786.1330, 16295.00
787.2750, 16475.00
788.4170, 16259.00
789.5580, 16543.00
790.7000, 16462.00
791.8410, 16676.00
792.9820, 16592.00
794.1230, 16667.00
795.2640, 16610.00
796.4040, 16675.00
797.5450, 16673.00
798.6850, 16921.00
799.8250, 16695.00
800.9650, 17025.00
802.1050, 16765.00
803.2450, 16973.00
804.3840, 17024.00
805.5230, 16998.00
806.6630, 17177.00
807.8020, 17018.00
808.9400, 17182.00
810.0790, 17120.00
811.2170, 17031.00
812.3560, 17411.00
813.4940, 17283.00
814.6320, 17327.00
815.7700, 17417.00
816.9070, 17416.00
818.0450, 17531.00
819.1820, 17457.00
820.3190, 17577.00
821.4560, 17589.00
822.5930, 17510.00
823.7300, 17806.00
824.8670, 17688.00
826.0030, 17789.00
827.1390, 17824.00
828.2750, 17786.00
829.4110, 17645.00
830.5470, 17772.00
831.6820, 17868.00
832.8180, 17839.00
833.9530, 18201.00
835.0880, 17963.00
836.2230, 18113.00
837.3580, 18015.00
838.4920, 18153.00
839.6270, 18275.00
840.7610, 18274.00
841.8950, 18355.00
843.0290, 18323.00
844.1630, 18316.00
845.2960, 18533.00
846.4300, 18359.00
847.5630, 18641.00
848.6960, 18757.00
849.8290, 18806.00
850.9620, 18701.00
852.0940, 18704.00
853.2270, 18935.00
854.3590, 18668.00
855.4910, 18995.00
856.6230, 19032.00
857.7550, 19086.00
858.8870, 19057.00
860.0180, 18996.00
861.1500, 19033.00
862.2810, 19077.59
863.4120, 19037.00
864.5430, 19231.00
865.6730, 19334.00
866.8040, 19383.00
867.9340, 19468.00
869.0640, 19344.00
870.1940, 19353.00
871.3240, 19355.29
872.4540, 19625.00
873.5830, 19393.00
874.7130, 19499.00
875.8420, 19617.00
876.9710, 19542.00
878.1000, 19636.00
879.2290, 19716.00
880.3570, 19824.00
881.4860, 19824.00
882.6140, 19749.00
883.7420, 19747.00
884.8700, 19815.00
885.9980, 19800.18
887.1250, 19890.00
888.2530, 19979.00
889.3800, 20042.00
890.5070, 20372.00
891.6340, 20294.00
892.7610, 20398.00
893.8880, 20267.00
895.0140, 20139.00
896.1400, 20313.00
897.2670, 20452.00
898.3930, 20620.00
899.5180, 20406.00
900.6440, 20534.00
901.7700, 20677.00
902.8950, 20427.00
904.0200, 20813.00
905.1450, 20820.00
906.2700, 20953.00
907.3950, 20987.00
908.5190, 21037.00
909.6440, 21074.00
910.7680, 21212.00
911.8920, 21169.00
913.0160, 21350.00
914.1400, 21223.00
915.2630, 21418.00
916.3870, 21427.00
917.5100, 21482.00
918.6330, 21464.00
919.7560, 21599.00
920.8790, 21639.83
922.0010, 21528.00
923.1240, 21805.00
924.2460, 21753.00
925.3680, 21833.00
926.4900, 21787.00
927.6120, 21873.00
928.7340, 21894.00
929.8550, 22132.00
930.9760, 21934.00
932.0980, 21940.00
933.2190, 22194.00
934.3390, 22141.00
935.4600, 22180.00
936.5810, 22261.00
937.7010, 22213.00
938.8210, 22316.00
939.9410, 22382.00
941.0610, 22604.00
942.1810, 22567.00
943.3010, 22684.00
944.4200, 22747.09
945.5390, 22790.00
946.6580, 22851.00
947.7770, 22890.00
948.8960, 22965.00
950.0150, 23054.00
951.1330, 23014.00
952.2510, 23243.00
953.3690, 23211.00
954.4870, 23481.00
955.6050, 23543.00
956.7230, 23649.00
957.8400, 23696.00
958.9580, 23912.00
960.0750, 24061.00
961.1920, 24369.00
962.3090, 24573.00
963.4250, 24881.00
964.5420, 25133.89
965.6580, 25388.00
966.7740, 25714.00
967.8900, 25973.00
969.0060, 26379.00
970.1220, 26405.00
971.2380, 26587.00
972.3530, 26652.00
973.4680, 26541.00
974.5830, 26540.00
975.6980, 26670.00
976.8130, 26492.00
977.9280, 26459.00
979.0420, 26489.00
980.1560, 26375.00
981.2710, 26227.00
982.3850, 26255.00
983.4980, 26022.00
984.6120, 25831.00
985.7260, 25988.00
986.8390, 25953.00
987.9520, 26029.00
989.0650, 26052.00
990.1780, 26121.00
991.2910, 26324.00
992.4030, 26354.00
993.5160, 26196.00
994.6280, 26434.00
995.7400, 26388.00
996.8520, 26696.00
997.9640, 26569.00
999.0750, 26812.00
1000.187, 27009.00
1001.298, 27321.00
1002.409, 27574.00
1003.520, 27980.00
1004.631, 27926.00
1005.741, 27772.00
1006.852, 27726.00
1007.962, 26944.00
1009.072, 26712.00
1010.182, 26860.00
1011.292, 26671.00
1012.402, 26931.00
1013.511, 27010.00
1014.621, 26947.00
1015.730, 27076.00
1016.839, 27178.00
1017.948, 27547.00
1019.056, 27800.00
1020.165, 27937.00
1021.273, 28391.00
1022.382, 28602.00
1023.490, 28749.00
1024.598, 29158.00
1025.706, 29049.00
1026.813, 29098.00
1027.921, 29221.00
1029.028, 28628.00
1030.135, 28318.00
1031.242, 28238.00
1032.349, 27962.00
1033.456, 27821.00
1034.562, 27709.00
1035.668, 27809.00
1036.775, 27628.00
1037.881, 27681.00
1038.987, 27563.00
1040.092, 27704.00
1041.198, 27409.00
1042.303, 27727.00
1043.408, 27599.00
1044.514, 27768.00
1045.618, 27754.00
1046.723, 27614.00
1047.828, 27863.00
1048.932, 27539.00
1050.037, 27768.00
1051.141, 27679.00
1052.245, 27970.00
1053.349, 28013.00
1054.452, 28092.00
1055.556, 27936.00
1056.659, 28188.00
1057.762, 28285.00
1058.865, 28113.00
1059.968, 28213.00
1061.071, 28289.00
1062.174, 28145.00
1063.276, 28598.00
1064.378, 28738.00
1065.480, 28745.00
1066.582, 28718.00
1067.684, 28676.00
1068.786, 28711.00
1069.887, 28644.00
1070.988, 28780.00
1072.090, 29146.00
1073.191, 28981.00
1074.291, 29033.00
1075.392, 29388.00
1076.493, 29134.00
1077.593, 29313.00
1078.693, 29310.00
1079.793, 29278.56
1080.893, 29304.00
1081.993, 29370.00
1083.092, 29620.00
1084.192, 29800.00
1085.291, 29863.75
1086.390, 29948.00
1087.489, 29984.00
1088.588, 29991.00
1089.686, 29979.00
1090.785, 30168.00
1091.883, 30187.00
1092.981, 30045.00
1094.079, 30128.00
1095.177, 30296.00
1096.275, 30338.00
1097.373, 30227.00
1098.470, 30268.00
1099.567, 30322.38
1100.664, 30744.00
1101.761, 30609.00
1102.858, 30701.00
1103.954, 31114.00
1105.051, 30809.00
1106.147, 30915.00
1107.243, 30936.00
1108.339, 31082.00
1109.435, 30954.00
1110.531, 31195.00
1111.626, 31135.00
1112.722, 31138.00
1113.817, 31656.00
1114.912, 31385.00
##END=



