##NAMES=Pectolite
##RRUFFID=R050396
##IDEAL CHEMISTRY=NaCa_2_Si_3_O_8_(OH)
##LOCALITY=Jeffrey Quarry, Asbestos, Quebec, Canada
##OWNER=RRUFF
##SOURCE=Marcus Origlieri
##DESCRIPTION=Colorless to gray columnar blocky crystals
##STATUS=The identification of this mineral has been confirmed by X-ray diffraction and chemical analysis
##URL=rruff.info/R050396
##MEASURED CHEMISTRY=Na_1.00_Ca_2.00_Si_3.00_O_8_(OH)
##PIN_ID=L00632
##ORIENTATION=Laser parallel to (-1 0 -1). Fiducial mark perpendicular to laser is parallel to b [0 1 0]
112.7420, 7251.000
113.9810, 7174.000
115.2200, 7162.000
116.4580, 7137.000
117.6970, 7302.000
118.9350, 7201.000
120.1730, 7336.000
121.4100, 7318.000
122.6480, 7384.000
123.8850, 7547.000
125.1230, 7526.000
126.3600, 7710.000
127.5960, 7623.000
128.8330, 7871.000
130.0700, 7945.000
131.3060, 8105.000
132.5420, 8207.000
133.7780, 8254.000
135.0140, 8467.000
136.2500, 8454.000
137.4850, 8567.000
138.7200, 8545.000
139.9550, 8729.000
141.1900, 8796.000
142.4250, 8804.000
143.6600, 8870.000
144.8940, 8886.000
146.1280, 8732.000
147.3620, 8783.000
148.5960, 8759.000
149.8300, 8865.000
151.0630, 8895.000
152.2960, 8988.000
153.5300, 8883.000
154.7620, 8721.000
155.9950, 8671.000
157.2280, 8605.000
158.4600, 8579.000
159.6920, 8463.000
160.9250, 8407.000
162.1560, 8474.000
163.3880, 8420.000
164.6200, 8460.000
165.8510, 8348.000
167.0820, 8426.000
168.3130, 8365.000
169.5440, 8329.000
170.7750, 8409.000
172.0050, 8444.000
173.2350, 8410.000
174.4650, 8518.000
175.6950, 8538.000
176.9250, 8570.912
178.1550, 8527.000
179.3840, 8644.000
180.6130, 8664.000
181.8420, 8692.000
183.0710, 8801.000
184.3000, 8952.000
185.5280, 9150.000
186.7570, 9106.000
187.9850, 9162.000
189.2130, 9118.000
190.4400, 9126.000
191.6680, 9070.000
192.8960, 9249.000
194.1230, 9179.000
195.3500, 9348.000
196.5770, 9411.000
197.8030, 9501.000
199.0300, 9715.000
200.2560, 9866.000
201.4830, 10123.00
202.7090, 10109.00
203.9340, 10051.00
205.1600, 9933.000
206.3860, 9774.000
207.6110, 9703.509
208.8360, 9545.000
210.0610, 9539.000
211.2860, 9567.000
212.5100, 9570.000
213.7350, 9663.000
214.9590, 9600.000
216.1830, 9942.000
217.4070, 9839.000
218.6310, 10081.00
219.8540, 10205.00
221.0780, 10316.00
222.3010, 10391.00
223.5240, 10557.00
224.7470, 10457.00
225.9690, 10472.00
227.1920, 10127.00
228.4140, 9867.000
229.6360, 9766.000
230.8580, 9733.000
232.0800, 9527.000
233.3020, 9340.000
234.5230, 9339.000
235.7440, 9259.000
236.9650, 9278.000
238.1860, 9235.000
239.4070, 9194.000
240.6280, 9219.000
241.8480, 9306.000
243.0680, 9239.000
244.2880, 9279.000
245.5080, 9277.000
246.7280, 9404.000
247.9470, 9521.000
249.1660, 9503.000
250.3860, 9708.000
251.6040, 9726.000
252.8230, 9674.000
254.0420, 9755.000
255.2600, 9713.000
256.4790, 9808.000
257.6970, 9953.000
258.9150, 9827.000
260.1320, 9783.000
261.3500, 9981.000
262.5670, 9908.000
263.7840, 9872.000
265.0010, 10041.00
266.2180, 10058.00
267.4350, 10011.00
268.6510, 10058.00
269.8680, 10014.85
271.0840, 9984.000
272.3000, 9965.000
273.5160, 9943.000
274.7310, 9937.000
275.9470, 9862.000
277.1620, 9950.000
278.3770, 9917.000
279.5920, 9883.000
280.8070, 9756.000
282.0210, 9940.000
283.2360, 9843.000
284.4500, 9829.000
285.6640, 9881.000
286.8780, 9920.000
288.0920, 9870.000
289.3050, 9945.000
290.5180, 10031.00
291.7320, 9944.000
292.9450, 10115.00
294.1570, 10069.00
295.3700, 9978.000
296.5830, 10016.00
297.7950, 10089.00
299.0070, 10002.00
300.2190, 10025.00
301.4310, 10024.00
302.6420, 10013.88
303.8540, 10116.00
305.0650, 10074.00
306.2760, 10134.00
307.4870, 10239.00
308.6980, 10218.00
309.9080, 10270.00
311.1190, 10323.00
312.3290, 10386.00
313.5390, 10403.94
314.7490, 10499.00
315.9580, 10477.00
317.1680, 10484.00
318.3770, 10601.00
319.5860, 10615.00
320.7950, 10583.00
322.0040, 10763.00
323.2130, 10748.00
324.4210, 10750.00
325.6290, 10927.00
326.8380, 10894.00
328.0460, 10927.00
329.2530, 10777.00
330.4610, 10663.00
331.6680, 10552.00
332.8760, 10576.00
334.0830, 10440.00
335.2890, 10370.00
336.4960, 10548.00
337.7030, 10392.00
338.9090, 10498.00
340.1150, 10442.00
341.3210, 10416.00
342.5270, 10500.00
343.7330, 10431.00
344.9380, 10451.00
346.1440, 10608.00
347.3490, 10520.00
348.5540, 10662.00
349.7590, 10552.00
350.9630, 10727.00
352.1680, 10662.00
353.3720, 10729.00
354.5760, 10818.00
355.7800, 10933.00
356.9840, 10942.00
358.1870, 10959.00
359.3910, 10889.00
360.5940, 10943.00
361.7970, 11067.00
363.0000, 11027.00
364.2030, 10936.00
365.4050, 11024.00
366.6080, 11155.00
367.8100, 11259.00
369.0120, 11156.00
370.2140, 11174.00
371.4150, 11141.00
372.6170, 11254.00
373.8180, 11370.00
375.0190, 11582.00
376.2200, 11557.00
377.4210, 11604.00
378.6220, 11586.00
379.8220, 11509.00
381.0230, 11498.15
382.2230, 11402.00
383.4230, 11365.00
384.6220, 11250.00
385.8220, 11122.00
387.0220, 11073.00
388.2210, 11291.00
389.4200, 10963.00
390.6190, 11266.00
391.8180, 11199.00
393.0160, 11100.00
394.2150, 11091.00
395.4130, 11149.00
396.6110, 11166.00
397.8090, 11342.00
399.0060, 11354.00
400.2040, 11361.00
401.4010, 11523.00
402.5980, 11485.00
403.7950, 11736.00
404.9920, 11630.00
406.1890, 12084.00
407.3860, 11963.00
408.5820, 12143.00
409.7780, 12505.00
410.9740, 12712.00
412.1700, 13046.00
413.3650, 13089.00
414.5610, 13077.00
415.7560, 13166.00
416.9510, 13084.00
418.1460, 12898.00
419.3410, 12464.00
420.5360, 12267.00
421.7300, 11943.00
422.9240, 11844.00
424.1180, 11675.00
425.3120, 11569.00
426.5060, 11618.00
427.7000, 11598.00
428.8930, 11397.00
430.0860, 11512.00
431.2790, 11444.00
432.4720, 11529.00
433.6650, 11523.00
434.8580, 11544.00
436.0500, 11364.00
437.2420, 11481.00
438.4340, 11429.00
439.6260, 11379.00
440.8180, 11394.00
442.0090, 11529.00
443.2010, 11479.00
444.3920, 11446.00
445.5830, 11567.00
446.7740, 11453.00
447.9640, 11582.00
449.1550, 11539.00
450.3450, 11543.00
451.5350, 11528.00
452.7250, 11631.00
453.9150, 11600.00
455.1050, 11642.00
456.2940, 11593.00
457.4830, 11690.00
458.6720, 11762.00
459.8610, 11581.00
461.0500, 11584.00
462.2390, 11702.00
463.4270, 11799.00
464.6150, 11812.00
465.8040, 11584.00
466.9910, 11626.00
468.1790, 11565.00
469.3670, 11752.00
470.5540, 11782.00
471.7410, 11693.00
472.9280, 11742.00
474.1150, 11760.00
475.3020, 11695.00
476.4890, 11740.00
477.6750, 11780.00
478.8610, 11794.00
480.0470, 11745.00
481.2330, 11731.00
482.4190, 11803.00
483.6040, 11746.00
484.7900, 11813.00
485.9750, 11893.00
487.1600, 11931.00
488.3450, 11877.00
489.5290, 11916.00
490.7140, 11987.00
491.8980, 12097.00
493.0820, 12045.00
494.2660, 12156.00
495.4500, 12284.00
496.6340, 12246.00
497.8170, 12285.00
499.0010, 12322.00
500.1840, 12240.00
501.3670, 12341.00
502.5500, 12280.00
503.7320, 12334.00
504.9150, 12234.00
506.0970, 12313.00
507.2790, 12308.00
508.4610, 12397.00
509.6430, 12363.00
510.8250, 12195.00
512.0060, 12427.00
513.1870, 12380.00
514.3680, 12320.00
515.5490, 12458.00
516.7300, 12588.00
517.9110, 12535.00
519.0910, 12522.00
520.2710, 12521.00
521.4510, 12467.00
522.6310, 12598.00
523.8110, 12548.00
524.9910, 12552.00
526.1700, 12608.00
527.3490, 12563.00
528.5280, 12633.00
529.7070, 12645.00
530.8860, 12591.00
532.0650, 12541.00
533.2430, 12576.00
534.4210, 12587.00
535.5990, 12610.00
536.7770, 12528.00
537.9550, 12572.00
539.1320, 12472.00
540.3100, 12653.00
541.4870, 12636.00
542.6640, 12649.00
543.8410, 12662.00
545.0170, 12644.17
546.1940, 12653.00
547.3700, 12641.00
548.5470, 12584.00
549.7230, 12622.00
550.8980, 12656.00
552.0740, 12725.00
553.2500, 12833.00
554.4250, 12791.00
555.6000, 12778.00
556.7750, 12902.00
557.9500, 12815.00
559.1250, 12817.00
560.2990, 12836.00
561.4730, 12966.00
562.6480, 13102.00
563.8220, 12940.00
564.9950, 12898.00
566.1690, 12990.00
567.3430, 12953.00
568.5160, 13052.00
569.6890, 13175.00
570.8620, 13081.00
572.0350, 13114.00
573.2070, 13119.00
574.3800, 13227.00
575.5520, 13098.00
576.7240, 13216.00
577.8960, 13249.00
579.0680, 13284.00
580.2400, 13219.00
581.4110, 13273.00
582.5830, 13267.06
583.7540, 13218.00
584.9250, 13273.00
586.0950, 13330.00
587.2660, 13297.00
588.4370, 13510.00
589.6070, 13377.00
590.7770, 13423.00
591.9470, 13569.00
593.1170, 13500.00
594.2860, 13466.00
595.4560, 13647.00
596.6250, 13558.00
597.7940, 13421.00
598.9630, 13582.00
600.1320, 13610.00
601.3000, 13607.00
602.4690, 13588.00
603.6370, 13677.00
604.8050, 13678.59
605.9730, 13798.00
607.1410, 13784.00
608.3090, 13762.00
609.4760, 13869.00
610.6430, 13896.00
611.8100, 13993.00
612.9770, 14005.00
614.1440, 14082.00
615.3110, 14119.75
616.4770, 14132.32
617.6430, 14189.00
618.8090, 14195.00
619.9750, 14218.00
621.1410, 14335.00
622.3070, 14419.00
623.4720, 14220.00
624.6370, 14396.00
625.8020, 14404.00
626.9670, 14635.00
628.1320, 14699.00
629.2970, 14938.00
630.4610, 14803.00
631.6250, 15114.00
632.7890, 15091.00
633.9530, 15232.00
635.1170, 15489.00
636.2810, 15619.00
637.4440, 15983.00
638.6070, 16207.00
639.7700, 16671.00
640.9330, 17238.00
642.0960, 18074.00
643.2590, 18553.00
644.4210, 19597.00
645.5830, 20768.00
646.7450, 22236.00
647.9070, 23683.00
649.0690, 25544.00
650.2310, 27362.00
651.3920, 28639.00
652.5530, 29230.00
653.7140, 28484.00
654.8750, 26576.00
656.0360, 24708.00
657.1970, 22756.00
658.3570, 20674.00
659.5170, 19137.00
660.6770, 18093.00
661.8370, 17240.00
662.9970, 16698.00
664.1570, 16421.00
665.3160, 16171.00
666.4750, 15899.00
667.6340, 15780.90
668.7930, 15607.00
669.9520, 15610.00
671.1110, 15448.00
672.2690, 15422.00
673.4270, 15276.00
674.5850, 15327.00
675.7430, 15277.00
676.9010, 15498.00
678.0590, 15535.00
679.2160, 15575.76
680.3730, 15592.00
681.5300, 15674.00
682.6870, 15710.00
683.8440, 15797.00
685.0010, 15722.00
686.1570, 16012.00
687.3130, 16167.00
688.4690, 16061.00
689.6250, 16099.00
690.7810, 15988.00
691.9370, 15929.98
693.0920, 15831.00
694.2470, 15731.00
695.4020, 15660.00
696.5570, 15466.00
697.7120, 15549.00
698.8670, 15539.00
700.0210, 15637.00
701.1750, 15517.00
702.3290, 15587.00
703.4830, 15763.00
704.6370, 15702.00
705.7910, 15615.00
706.9440, 15532.00
708.0970, 15504.00
709.2510, 15737.00
710.4030, 15675.00
711.5560, 15793.00
712.7090, 15708.00
713.8610, 15725.00
715.0140, 15814.00
716.1660, 15731.00
717.3180, 15713.00
718.4690, 15759.00
719.6210, 15765.00
720.7730, 15766.00
721.9240, 15849.00
723.0750, 15977.00
724.2260, 15866.00
725.3770, 15872.00
726.5270, 16173.00
727.6780, 16038.00
728.8280, 16169.00
729.9780, 15992.00
731.1280, 16192.00
732.2780, 16025.00
733.4280, 16085.00
734.5770, 16254.00
735.7260, 16133.00
736.8760, 16437.00
738.0250, 16331.00
739.1730, 16246.00
740.3220, 16411.00
741.4700, 16020.00
742.6190, 16305.00
743.7670, 16465.00
744.9150, 16197.00
746.0630, 16472.00
747.2100, 16447.00
748.3580, 16492.00
749.5050, 16620.00
750.6520, 16529.00
751.7990, 16556.00
752.9460, 16699.00
754.0930, 16675.00
755.2390, 16663.00
756.3860, 16783.00
757.5320, 16842.00
758.6780, 16723.00
759.8240, 16867.00
760.9690, 16877.00
762.1150, 16795.00
763.2600, 16779.00
764.4060, 16843.00
765.5510, 16827.00
766.6950, 17064.00
767.8400, 16926.00
768.9850, 17055.00
770.1290, 16956.00
771.2730, 17143.00
772.4170, 17028.00
773.5610, 17039.00
774.7050, 17247.00
775.8480, 17264.00
776.9920, 17261.00
778.1350, 17224.00
779.2780, 17246.00
780.4210, 17298.00
781.5640, 17306.00
782.7060, 17454.00
783.8490, 17331.00
784.9910, 17508.00
786.1330, 17403.00
787.2750, 17515.00
788.4170, 17511.00
789.5580, 17504.00
790.7000, 17599.00
791.8410, 17592.00
792.9820, 17614.00
794.1230, 17622.00
795.2640, 17809.00
796.4040, 17755.00
797.5450, 17635.00
798.6850, 17854.00
799.8250, 17808.00
800.9650, 17935.00
802.1050, 17935.00
803.2450, 18014.00
804.3840, 18010.98
805.5230, 17940.00
806.6630, 17978.00
807.8020, 17979.00
808.9400, 17964.00
810.0790, 18138.00
811.2170, 18011.00
812.3560, 17981.00
813.4940, 18333.00
814.6320, 18258.00
815.7700, 18510.00
816.9070, 18400.00
818.0450, 18364.00
819.1820, 18308.00
820.3190, 18471.00
821.4560, 18529.00
822.5930, 18584.00
823.7300, 18603.00
824.8670, 18486.00
826.0030, 18605.00
827.1390, 18620.00
828.2750, 18562.00
829.4110, 18773.00
830.5470, 18813.00
831.6820, 18742.00
832.8180, 18793.00
833.9530, 18729.00
835.0880, 18915.00
836.2230, 18829.00
837.3580, 18938.00
838.4920, 18795.00
839.6270, 18962.00
840.7610, 19043.00
841.8950, 19231.00
843.0290, 19130.00
844.1630, 19216.00
845.2960, 19271.00
846.4300, 19239.00
847.5630, 19309.00
848.6960, 19270.00
849.8290, 19200.00
850.9620, 19434.00
852.0940, 19568.00
853.2270, 19335.00
854.3590, 19487.00
855.4910, 19492.00
856.6230, 19419.00
857.7550, 19610.00
858.8870, 19763.00
860.0180, 19782.00
861.1500, 19819.00
862.2810, 19692.00
863.4120, 19486.00
864.5430, 19742.00
865.6730, 19734.00
866.8040, 19688.00
867.9340, 19867.00
869.0640, 20038.00
870.1940, 19918.00
871.3240, 20075.00
872.4540, 20111.00
873.5830, 20204.00
874.7130, 20039.00
875.8420, 20028.00
876.9710, 20179.00
878.1000, 20097.00
879.2290, 20246.00
880.3570, 20083.00
881.4860, 20230.00
882.6140, 20310.00
883.7420, 20342.00
884.8700, 20405.00
885.9980, 20256.00
887.1250, 20383.00
888.2530, 20375.00
889.3800, 20356.00
890.5070, 20551.00
891.6340, 20495.00
892.7610, 20684.00
893.8880, 20614.00
895.0140, 20673.00
896.1400, 20734.00
897.2670, 20532.00
898.3930, 20614.00
899.5180, 20773.00
900.6440, 20982.00
901.7700, 21099.00
902.8950, 20895.00
904.0200, 21020.00
905.1450, 21065.00
906.2700, 21084.00
907.3950, 21403.00
908.5190, 21435.00
909.6440, 21487.00
910.7680, 21730.00
911.8920, 21648.00
913.0160, 21664.00
914.1400, 21869.00
915.2630, 21642.00
916.3870, 21773.00
917.5100, 21593.00
918.6330, 21847.00
919.7560, 21798.00
920.8790, 21720.00
922.0010, 21630.00
923.1240, 21850.00
924.2460, 21867.00
925.3680, 21768.00
926.4900, 22050.00
927.6120, 21886.00
928.7340, 22135.00
929.8550, 22160.00
930.9760, 22187.00
932.0980, 22286.46
933.2190, 22366.00
934.3390, 22312.00
935.4600, 22350.00
936.5810, 22268.00
937.7010, 22422.00
938.8210, 22580.00
939.9410, 22783.00
941.0610, 22542.00
942.1810, 22651.00
943.3010, 22556.00
944.4200, 22776.00
945.5390, 22824.00
946.6580, 22884.00
947.7770, 22879.00
948.8960, 22912.00
950.0150, 23076.00
951.1330, 23018.00
952.2510, 23349.00
953.3690, 23158.00
954.4870, 23342.00
955.6050, 23222.00
956.7230, 23319.00
957.8400, 23525.00
958.9580, 23666.00
960.0750, 23715.00
961.1920, 24008.00
962.3090, 23893.00
963.4250, 24169.00
964.5420, 24471.00
965.6580, 24553.00
966.7740, 24635.00
967.8900, 24974.00
969.0060, 25062.00
970.1220, 25433.00
971.2380, 25429.00
972.3530, 25530.00
973.4680, 25399.00
974.5830, 25464.00
975.6980, 25542.00
976.8130, 25430.00
977.9280, 25290.00
979.0420, 25288.00
980.1560, 25101.00
981.2710, 25149.00
982.3850, 25046.00
983.4980, 24864.00
984.6120, 24806.00
985.7260, 25008.00
986.8390, 24667.00
987.9520, 24865.00
989.0650, 24687.00
990.1780, 24958.00
991.2910, 24823.00
992.4030, 24917.00
993.5160, 24974.00
994.6280, 25080.00
995.7400, 25169.67
996.8520, 25231.92
997.9640, 25307.00
999.0750, 25405.00
1000.187, 25341.00
1001.298, 25500.00
1002.409, 25735.00
1003.520, 25464.00
1004.631, 25583.00
1005.741, 25351.00
1006.852, 25463.00
1007.962, 25461.00
1009.072, 25650.00
1010.182, 25583.00
1011.292, 25582.00
1012.402, 25686.00
1013.511, 25732.32
1014.621, 25965.00
1015.730, 26065.00
1016.839, 26296.00
1017.948, 26700.00
1019.056, 26924.00
1020.165, 27277.00
1021.273, 27651.00
1022.382, 27973.00
1023.490, 28202.00
1024.598, 28678.00
1025.706, 28716.56
1026.813, 29052.00
1027.921, 28771.00
1029.028, 28417.00
1030.135, 28203.98
1031.242, 27944.00
1032.349, 27661.00
1033.456, 27348.00
1034.562, 27061.00
1035.668, 27075.00
1036.775, 26933.00
1037.881, 26966.00
1038.987, 26951.00
1040.092, 26776.00
1041.198, 26979.00
1042.303, 27027.00
1043.408, 26978.00
1044.514, 26946.00
1045.618, 26823.00
1046.723, 27041.00
1047.828, 26917.00
1048.932, 26905.00
1050.037, 27060.00
1051.141, 26983.00
1052.245, 26894.00
1053.349, 26918.00
1054.452, 26967.85
1055.556, 27085.00
1056.659, 27159.00
1057.762, 27263.00
1058.865, 27317.00
1059.968, 27409.00
1061.071, 27239.00
1062.174, 27311.00
1063.276, 27357.00
1064.378, 27461.00
1065.480, 27630.00
1066.582, 27685.00
1067.684, 27566.00
1068.786, 27712.00
1069.887, 27552.00
1070.988, 27758.00
1072.090, 27822.00
1073.191, 27953.00
1074.291, 27921.00
1075.392, 27872.00
1076.493, 27875.00
1077.593, 28400.00
1078.693, 27943.00
1079.793, 28399.00
1080.893, 28291.00
1081.993, 28672.00
1083.092, 28458.00
1084.192, 28481.00
1085.291, 28549.00
1086.390, 28351.00
1087.489, 28603.00
1088.588, 28713.00
1089.686, 28637.00
1090.785, 28808.00
1091.883, 28844.00
1092.981, 28710.00
1094.079, 28876.00
1095.177, 28947.00
1096.275, 28982.00
1097.373, 29055.76
1098.470, 29080.75
1099.567, 29111.00
1100.664, 29127.00
1101.761, 29147.00
1102.858, 29157.00
1103.954, 29274.00
1105.051, 29397.00
1106.147, 29273.00
1107.243, 29448.00
1108.339, 29565.00
1109.435, 29437.00
1110.531, 29671.00
1111.626, 29458.00
1112.722, 29631.00
1113.817, 29669.00
1114.912, 29695.00
1116.007, 29797.00
1117.101, 29836.00
1118.196, 30119.00
1119.290, 30133.00
1120.385, 30296.00
1121.479, 30181.00
1122.573, 30286.00
1123.666, 30466.00
1124.760, 30471.00
1125.853, 30492.00
1126.947, 30620.00
1128.040, 30507.00
1129.133, 30600.00
1130.226, 30768.00
1131.318, 30659.00
1132.411, 30805.00
1133.503, 30850.00
1134.596, 30955.00
1135.688, 30677.00
1136.780, 31028.00
1137.871, 30765.00
1138.963, 31004.00
1140.054, 31210.00
1141.146, 31158.00
1142.237, 31219.00
1143.328, 31110.00
1144.419, 31435.00
1145.509, 31399.00
1146.600, 31472.00
1147.690, 31462.00
1148.780, 31556.42
1149.870, 31527.00
1150.960, 31749.00
1152.050, 31774.00
1153.139, 31836.00
1154.229, 31676.00
1155.318, 31779.00
1156.407, 31997.00
1157.496, 32192.00
1158.585, 32190.00
1159.674, 32379.00
1160.762, 32096.00
1161.850, 32329.00
1162.939, 32325.00
1164.027, 32504.00
1165.114, 32553.00
1166.202, 32619.00
1167.290, 32672.00
1168.377, 32708.00
1169.464, 32621.00
1170.551, 32719.00
##END=



