##NAMES=Pectolite
##RRUFFID=R050396
##IDEAL CHEMISTRY=NaCa_2_Si_3_O_8_(OH)
##LOCALITY=Jeffrey Quarry, Asbestos, Quebec, Canada
##OWNER=RRUFF
##SOURCE=Marcus Origlieri
##DESCRIPTION=Colorless to gray columnar blocky crystals
##STATUS=The identification of this mineral has been confirmed by X-ray diffraction and chemical analysis
##URL=rruff.info/R050396
##MEASURED CHEMISTRY=Na_1.00_Ca_2.00_Si_3.00_O_8_(OH)
##PIN_ID=L01067
##ORIENTATION=Laser parallel to a* (1 0 0). Fiducial mark perpendicular to laser is parallel to -b [0 -1 0]
118.9350, 7542.000
120.1730, 7650.000
121.4100, 7757.000
122.6480, 7788.000
123.8850, 7762.000
125.1230, 7845.000
126.3600, 7901.000
127.5960, 7924.000
128.8330, 8055.000
130.0700, 8177.000
131.3060, 8244.000
132.5420, 8372.000
133.7780, 8401.000
135.0140, 8449.000
136.2500, 8595.000
137.4850, 8756.000
138.7200, 8821.000
139.9550, 8881.000
141.1900, 8944.881
142.4250, 8960.782
143.6600, 9019.000
144.8940, 8957.000
146.1280, 9017.000
147.3620, 8968.000
148.5960, 8962.000
149.8300, 8985.000
151.0630, 8975.000
152.2960, 8808.000
153.5300, 8815.000
154.7620, 8784.000
155.9950, 8796.000
157.2280, 8797.000
158.4600, 8758.000
159.6920, 8744.000
160.9250, 8756.000
162.1560, 8697.000
163.3880, 8777.000
164.6200, 8826.000
165.8510, 8786.000
167.0820, 8817.000
168.3130, 8902.000
169.5440, 8926.000
170.7750, 8894.000
172.0050, 8909.000
173.2350, 8927.000
174.4650, 8983.000
175.6950, 8953.000
176.9250, 8983.000
178.1550, 8932.000
179.3840, 9010.000
180.6130, 9119.000
181.8420, 9111.000
183.0710, 9329.000
184.3000, 9189.000
185.5280, 9313.000
186.7570, 9280.000
187.9850, 9233.000
189.2130, 9271.000
190.4400, 9154.000
191.6680, 9292.000
192.8960, 9276.000
194.1230, 9160.000
195.3500, 9295.000
196.5770, 9337.000
197.8030, 9387.000
199.0300, 9427.000
200.2560, 9339.000
201.4830, 9528.000
202.7090, 9507.000
203.9340, 9557.000
205.1600, 9414.000
206.3860, 9568.000
207.6110, 9477.000
208.8360, 9561.000
210.0610, 9576.000
211.2860, 9464.000
212.5100, 9527.000
213.7350, 9678.000
214.9590, 9651.000
216.1830, 9623.000
217.4070, 9705.000
218.6310, 9711.017
219.8540, 9862.000
221.0780, 9833.000
222.3010, 9871.000
223.5240, 9975.000
224.7470, 9808.000
225.9690, 10003.00
227.1920, 9907.000
228.4140, 9816.000
229.6360, 9890.000
230.8580, 9882.000
232.0800, 9856.000
233.3020, 9872.000
234.5230, 9789.000
235.7440, 9897.000
236.9650, 9905.000
238.1860, 9828.000
239.4070, 9943.000
240.6280, 9939.000
241.8480, 9921.000
243.0680, 10059.00
244.2880, 9981.000
245.5080, 9868.000
246.7280, 9991.000
247.9470, 10133.00
249.1660, 10091.00
250.3860, 10048.00
251.6040, 10159.00
252.8230, 10083.00
254.0420, 10159.00
255.2600, 10208.00
256.4790, 10286.00
257.6970, 10270.00
258.9150, 10311.00
260.1320, 10358.00
261.3500, 10406.00
262.5670, 10358.00
263.7840, 10471.00
265.0010, 10391.00
266.2180, 10445.00
267.4350, 10632.00
268.6510, 10599.00
269.8680, 10711.00
271.0840, 10814.00
272.3000, 10699.00
273.5160, 10771.00
274.7310, 10836.00
275.9470, 10823.00
277.1620, 10790.00
278.3770, 10735.00
279.5920, 10727.94
280.8070, 10794.00
282.0210, 10683.00
283.2360, 10749.00
284.4500, 10717.00
285.6640, 10759.00
286.8780, 10754.00
288.0920, 10708.00
289.3050, 10705.00
290.5180, 10654.00
291.7320, 10858.00
292.9450, 10755.00
294.1570, 10707.00
295.3700, 10812.00
296.5830, 10737.00
297.7950, 10750.00
299.0070, 10839.00
300.2190, 10812.00
301.4310, 10806.00
302.6420, 11045.00
303.8540, 10889.00
305.0650, 11037.00
306.2760, 11073.00
307.4870, 11070.00
308.6980, 11043.00
309.9080, 11170.00
311.1190, 11121.00
312.3290, 11177.00
313.5390, 11241.00
314.7490, 11384.00
315.9580, 11315.00
317.1680, 11432.00
318.3770, 11203.00
319.5860, 11467.00
320.7950, 11356.00
322.0040, 11368.00
323.2130, 11383.00
324.4210, 11299.00
325.6290, 11533.00
326.8380, 11500.00
328.0460, 11445.00
329.2530, 11368.00
330.4610, 11480.00
331.6680, 11503.00
332.8760, 11485.00
334.0830, 11361.00
335.2890, 11495.00
336.4960, 11313.00
337.7030, 11537.00
338.9090, 11378.00
340.1150, 11488.00
341.3210, 11417.00
342.5270, 11526.00
343.7330, 11597.00
344.9380, 11583.00
346.1440, 11564.00
347.3490, 11704.00
348.5540, 11514.00
349.7590, 11733.00
350.9630, 11768.00
352.1680, 11667.00
353.3720, 11708.00
354.5760, 11692.00
355.7800, 11602.00
356.9840, 11711.00
358.1870, 11759.00
359.3910, 11817.00
360.5940, 11862.56
361.7970, 11861.00
363.0000, 11922.00
364.2030, 11946.00
365.4050, 11980.00
366.6080, 12045.00
367.8100, 12086.00
369.0120, 12023.00
370.2140, 12055.00
371.4150, 12062.00
372.6170, 12080.00
373.8180, 12053.00
375.0190, 12103.97
376.2200, 12123.00
377.4210, 12166.00
378.6220, 12252.00
379.8220, 12239.00
381.0230, 12191.00
382.2230, 12278.00
383.4230, 12148.00
384.6220, 12209.00
385.8220, 12278.00
387.0220, 12290.00
388.2210, 12257.00
389.4200, 12315.00
390.6190, 12329.00
391.8180, 12325.00
393.0160, 12475.00
394.2150, 12321.00
395.4130, 12252.00
396.6110, 12412.00
397.8090, 12449.00
399.0060, 12305.00
400.2040, 12420.00
401.4010, 12556.00
402.5980, 12602.00
403.7950, 12624.00
404.9920, 12589.00
406.1890, 12540.00
407.3860, 12588.00
408.5820, 12613.00
409.7780, 12646.18
410.9740, 12669.22
412.1700, 12695.52
413.3650, 12703.00
414.5610, 12736.25
415.7560, 12749.00
416.9510, 12751.00
418.1460, 12768.00
419.3410, 12754.00
420.5360, 12772.06
421.7300, 12776.76
422.9240, 12789.00
424.1180, 12818.00
425.3120, 12814.00
426.5060, 12885.00
427.7000, 12815.00
428.8930, 12953.00
430.0860, 12849.00
431.2790, 12873.00
432.4720, 12882.00
433.6650, 12792.00
434.8580, 12944.00
436.0500, 13069.00
437.2420, 13053.00
438.4340, 13142.00
439.6260, 13056.00
440.8180, 13117.00
442.0090, 13217.00
443.2010, 13169.00
444.3920, 13052.00
445.5830, 13150.00
446.7740, 13127.00
447.9640, 13129.00
449.1550, 13241.00
450.3450, 13241.00
451.5350, 13399.00
452.7250, 13269.00
453.9150, 13252.00
455.1050, 13359.00
456.2940, 13391.00
457.4830, 13487.00
458.6720, 13353.00
459.8610, 13453.00
461.0500, 13445.00
462.2390, 13600.00
463.4270, 13598.00
464.6150, 13589.00
465.8040, 13556.00
466.9910, 13563.00
468.1790, 13644.00
469.3670, 13677.00
470.5540, 13697.00
471.7410, 13613.00
472.9280, 13713.00
474.1150, 13627.00
475.3020, 13803.00
476.4890, 13786.00
477.6750, 13757.00
478.8610, 13825.00
480.0470, 13795.00
481.2330, 13768.00
482.4190, 13940.00
483.6040, 13926.00
484.7900, 13861.00
485.9750, 13918.00
487.1600, 13928.00
488.3450, 13996.00
489.5290, 13992.00
490.7140, 14015.00
491.8980, 14084.50
493.0820, 14193.00
494.2660, 14227.00
495.4500, 14272.73
496.6340, 14370.00
497.8170, 14258.00
499.0010, 14321.00
500.1840, 14271.00
501.3670, 14290.00
502.5500, 14253.00
503.7320, 14266.80
504.9150, 14281.00
506.0970, 14320.00
507.2790, 14354.00
508.4610, 14376.42
509.6430, 14403.84
510.8250, 14419.00
512.0060, 14435.00
513.1870, 14432.00
514.3680, 14423.90
515.5490, 14452.00
516.7300, 14482.00
517.9110, 14588.00
519.0910, 14674.00
520.2710, 14771.00
521.4510, 14725.00
522.6310, 14678.00
523.8110, 14728.00
524.9910, 14683.00
526.1700, 14772.00
527.3490, 14828.00
528.5280, 14790.00
529.7070, 14743.00
530.8860, 14733.00
532.0650, 14723.00
533.2430, 14847.00
534.4210, 14853.00
535.5990, 14945.00
536.7770, 14924.00
537.9550, 14875.00
539.1320, 14943.00
540.3100, 14932.00
541.4870, 14915.00
542.6640, 14999.00
543.8410, 14826.00
545.0170, 15131.00
546.1940, 15134.00
547.3700, 15145.00
548.5470, 15046.00
549.7230, 15175.00
550.8980, 15139.00
552.0740, 15125.00
553.2500, 15230.00
554.4250, 15258.00
555.6000, 15188.00
556.7750, 15249.00
557.9500, 15215.00
559.1250, 15252.00
560.2990, 15354.00
561.4730, 15290.00
562.6480, 15327.00
563.8220, 15480.00
564.9950, 15362.00
566.1690, 15435.00
567.3430, 15522.00
568.5160, 15476.00
569.6890, 15545.31
570.8620, 15578.27
572.0350, 15585.00
573.2070, 15639.00
574.3800, 15650.00
575.5520, 15631.00
576.7240, 15734.00
577.8960, 15720.00
579.0680, 15677.00
580.2400, 15636.00
581.4110, 15653.07
582.5830, 15666.00
583.7540, 15704.00
584.9250, 15814.00
586.0950, 15889.00
587.2660, 15895.00
588.4370, 16008.00
589.6070, 15954.00
590.7770, 15845.00
591.9470, 15816.00
593.1170, 15879.00
594.2860, 16157.00
595.4560, 16000.00
596.6250, 16164.00
597.7940, 16127.00
598.9630, 16230.00
600.1320, 16151.00
601.3000, 16195.00
602.4690, 16212.00
603.6370, 16268.00
604.8050, 16333.00
605.9730, 16352.00
607.1410, 16318.00
608.3090, 16388.00
609.4760, 16570.00
610.6430, 16489.00
611.8100, 16502.00
612.9770, 16512.00
614.1440, 16473.00
615.3110, 16556.00
616.4770, 16543.04
617.6430, 16492.00
618.8090, 16616.00
619.9750, 16639.00
621.1410, 16750.00
622.3070, 16666.00
623.4720, 16887.00
624.6370, 16801.00
625.8020, 16939.00
626.9670, 16830.00
628.1320, 16888.00
629.2970, 17137.00
630.4610, 17094.00
631.6250, 17050.00
632.7890, 17086.00
633.9530, 17023.00
635.1170, 17296.00
636.2810, 17277.00
637.4440, 17400.00
638.6070, 17411.00
639.7700, 17609.00
640.9330, 17836.00
642.0960, 17800.00
643.2590, 18123.00
644.4210, 18359.00
645.5830, 18626.00
646.7450, 18780.00
647.9070, 18991.00
649.0690, 19276.00
650.2310, 19662.00
651.3920, 19766.00
652.5530, 19661.00
653.7140, 19538.00
654.8750, 19230.00
656.0360, 18969.00
657.1970, 18640.00
658.3570, 18474.00
659.5170, 18397.00
660.6770, 18085.00
661.8370, 17975.00
662.9970, 18110.00
664.1570, 17964.00
665.3160, 17916.00
666.4750, 17942.00
667.6340, 17939.00
668.7930, 17804.00
669.9520, 17828.00
671.1110, 17914.00
672.2690, 17896.00
673.4270, 18019.00
674.5850, 17932.00
675.7430, 17894.00
676.9010, 18074.00
678.0590, 18143.00
679.2160, 18066.00
680.3730, 18024.00
681.5300, 18227.00
682.6870, 18368.00
683.8440, 18405.00
685.0010, 18475.00
686.1570, 18415.00
687.3130, 18441.00
688.4690, 18481.00
689.6250, 18527.00
690.7810, 18440.00
691.9370, 18347.00
693.0920, 18358.00
694.2470, 18307.55
695.4020, 18320.40
696.5570, 18384.00
697.7120, 18415.00
698.8670, 18657.00
700.0210, 18818.00
701.1750, 18659.00
702.3290, 18625.00
703.4830, 18654.00
704.6370, 18546.00
705.7910, 18739.00
706.9440, 18840.00
708.0970, 18911.00
709.2510, 18871.00
710.4030, 18730.00
711.5560, 18723.00
712.7090, 18788.00
713.8610, 18835.00
715.0140, 18872.00
716.1660, 18950.00
717.3180, 19047.34
718.4690, 18968.00
719.6210, 19187.00
720.7730, 19214.00
721.9240, 19075.00
723.0750, 19074.00
724.2260, 19166.00
725.3770, 19110.00
726.5270, 19258.00
727.6780, 19226.00
728.8280, 19325.00
729.9780, 19204.00
731.1280, 19416.00
732.2780, 19214.00
733.4280, 19181.00
734.5770, 19367.00
735.7260, 19515.00
736.8760, 19329.00
738.0250, 19513.00
739.1730, 19595.00
740.3220, 19750.00
741.4700, 19720.00
742.6190, 19565.00
743.7670, 19546.00
744.9150, 19650.00
746.0630, 19894.00
747.2100, 19753.00
748.3580, 19938.00
749.5050, 19924.00
750.6520, 19917.00
751.7990, 19837.00
752.9460, 19867.00
754.0930, 19965.00
755.2390, 20115.00
756.3860, 20020.00
757.5320, 20070.00
758.6780, 20281.00
759.8240, 20068.00
760.9690, 19854.00
762.1150, 20208.00
763.2600, 20095.00
764.4060, 20107.00
765.5510, 20188.00
766.6950, 20285.00
767.8400, 20267.50
768.9850, 20119.00
770.1290, 20289.00
771.2730, 20333.00
772.4170, 20398.00
773.5610, 20532.00
774.7050, 20708.00
775.8480, 20783.00
776.9920, 20629.00
778.1350, 20512.00
779.2780, 20569.00
780.4210, 20669.00
781.5640, 20758.00
782.7060, 20727.00
783.8490, 20903.00
784.9910, 20792.00
786.1330, 20755.00
787.2750, 20868.00
788.4170, 21102.00
789.5580, 20927.00
790.7000, 20979.00
791.8410, 20883.00
792.9820, 21000.00
794.1230, 21044.00
795.2640, 21169.00
796.4040, 21200.00
797.5450, 21312.00
798.6850, 21502.00
799.8250, 21270.00
800.9650, 21356.00
802.1050, 21303.00
803.2450, 21553.00
804.3840, 21338.00
805.5230, 21494.00
806.6630, 21623.00
807.8020, 21668.00
808.9400, 21428.00
810.0790, 21585.00
811.2170, 21629.00
812.3560, 21794.00
813.4940, 21724.00
814.6320, 21754.00
815.7700, 21797.00
816.9070, 21769.00
818.0450, 21838.00
819.1820, 21869.00
820.3190, 21834.00
821.4560, 21862.00
822.5930, 21909.47
823.7300, 21995.00
824.8670, 22078.00
826.0030, 22037.00
827.1390, 22220.00
828.2750, 22207.00
829.4110, 22058.00
830.5470, 22294.00
831.6820, 22180.00
832.8180, 22315.00
833.9530, 22429.00
835.0880, 22323.00
836.2230, 22498.00
837.3580, 22299.00
838.4920, 22320.00
839.6270, 22653.00
840.7610, 22513.00
841.8950, 22666.00
843.0290, 22579.00
844.1630, 22728.00
845.2960, 22860.00
846.4300, 22790.00
847.5630, 22795.00
848.6960, 22990.00
849.8290, 22910.00
850.9620, 22801.00
852.0940, 23045.00
853.2270, 23030.00
854.3590, 23059.00
855.4910, 23247.00
856.6230, 23315.00
857.7550, 23236.00
858.8870, 23472.00
860.0180, 23481.00
861.1500, 23247.00
862.2810, 23134.00
863.4120, 23317.00
864.5430, 23484.00
865.6730, 23547.00
866.8040, 23450.00
867.9340, 23598.00
869.0640, 23507.00
870.1940, 23586.00
871.3240, 23623.00
872.4540, 23785.00
873.5830, 23648.00
874.7130, 23743.00
875.8420, 23908.00
876.9710, 23865.00
878.1000, 23943.00
879.2290, 23958.00
880.3570, 24055.00
881.4860, 24078.84
882.6140, 23957.00
883.7420, 24102.00
884.8700, 24288.00
885.9980, 24215.00
887.1250, 24115.00
888.2530, 24332.00
889.3800, 24359.00
890.5070, 24266.00
891.6340, 24374.00
892.7610, 24461.00
893.8880, 24416.00
895.0140, 24583.00
896.1400, 24712.00
897.2670, 24535.00
898.3930, 24680.00
899.5180, 24784.00
900.6440, 24649.00
901.7700, 24625.00
902.8950, 24850.00
904.0200, 24910.00
905.1450, 24875.00
906.2700, 24921.00
907.3950, 24847.00
908.5190, 24991.00
909.6440, 25094.00
910.7680, 25301.00
911.8920, 25105.00
913.0160, 25257.00
914.1400, 25295.00
915.2630, 25262.00
916.3870, 25433.00
917.5100, 25365.00
918.6330, 25384.00
919.7560, 25422.00
920.8790, 25371.00
922.0010, 25533.00
923.1240, 25679.00
924.2460, 25722.00
925.3680, 25653.00
926.4900, 25641.00
927.6120, 25676.96
928.7340, 25652.00
929.8550, 25771.00
930.9760, 25804.00
932.0980, 25911.00
933.2190, 26162.00
934.3390, 26054.00
935.4600, 26252.00
936.5810, 26133.00
937.7010, 26255.00
938.8210, 26319.00
939.9410, 26403.00
941.0610, 26420.28
942.1810, 26431.00
943.3010, 26406.00
944.4200, 26528.00
945.5390, 26503.00
946.6580, 26340.00
947.7770, 26378.00
948.8960, 26730.00
950.0150, 26582.00
951.1330, 26749.00
952.2510, 26987.00
953.3690, 26940.00
954.4870, 26891.00
955.6050, 26867.00
956.7230, 27061.00
957.8400, 27028.00
958.9580, 26976.00
960.0750, 27487.00
961.1920, 27404.00
962.3090, 27527.00
963.4250, 27576.00
964.5420, 27677.00
965.6580, 27840.00
966.7740, 27928.00
967.8900, 28122.92
969.0060, 28190.00
970.1220, 28448.00
971.2380, 28393.00
972.3530, 28409.00
973.4680, 28438.00
974.5830, 28275.00
975.6980, 28446.00
976.8130, 28438.00
977.9280, 28789.00
979.0420, 28378.00
980.1560, 28610.00
981.2710, 28421.00
982.3850, 28299.00
983.4980, 28505.00
984.6120, 28340.00
985.7260, 28438.00
986.8390, 28500.00
987.9520, 28713.00
989.0650, 28737.00
990.1780, 28523.00
991.2910, 28571.00
992.4030, 28576.00
993.5160, 28775.00
994.6280, 28797.00
995.7400, 28907.00
996.8520, 29027.24
997.9640, 28929.00
999.0750, 29142.00
1000.187, 29224.00
1001.298, 29070.00
1002.409, 28858.00
1003.520, 29239.00
1004.631, 29244.00
1005.741, 29125.00
1006.852, 29161.00
1007.962, 29104.00
1009.072, 29351.00
1010.182, 29169.00
1011.292, 29409.00
1012.402, 29449.00
1013.511, 29538.00
1014.621, 29693.03
1015.730, 29649.00
1016.839, 29922.00
1017.948, 29957.00
1019.056, 30036.00
1020.165, 30088.00
1021.273, 30145.00
1022.382, 30251.44
1023.490, 30505.00
1024.598, 30445.00
1025.706, 30439.00
1026.813, 30486.00
1027.921, 30337.00
1029.028, 30345.00
1030.135, 30256.00
1031.242, 30309.00
1032.349, 30511.00
1033.456, 30351.00
1034.562, 30390.00
1035.668, 30427.00
1036.775, 30324.00
1037.881, 30499.00
1038.987, 30395.00
1040.092, 30503.00
1041.198, 30716.00
1042.303, 30620.00
1043.408, 30680.00
1044.514, 30697.00
1045.618, 30717.38
1046.723, 30897.00
1047.828, 30829.00
1048.932, 30828.00
1050.037, 30898.00
1051.141, 30789.00
1052.245, 31109.00
1053.349, 30915.00
1054.452, 31075.00
1055.556, 30930.00
1056.659, 31227.00
1057.762, 31246.00
1058.865, 31296.00
1059.968, 31491.00
1061.071, 31598.00
1062.174, 31614.87
1063.276, 31564.00
1064.378, 31670.00
1065.480, 31498.00
1066.582, 31585.00
1067.684, 31643.00
1068.786, 31807.00
1069.887, 31866.00
1070.988, 31819.00
1072.090, 31913.00
1073.191, 31866.00
1074.291, 31965.84
1075.392, 32109.00
1076.493, 32145.00
1077.593, 32198.00
1078.693, 32259.00
1079.793, 32288.00
1080.893, 32385.00
1081.993, 32287.00
1083.092, 32559.00
1084.192, 32401.00
1085.291, 32704.00
1086.390, 32907.00
1087.489, 32711.00
1088.588, 32733.00
1089.686, 32635.00
1090.785, 32810.00
1091.883, 32899.00
1092.981, 32876.00
1094.079, 33000.00
1095.177, 33016.00
1096.275, 33132.00
1097.373, 33033.00
1098.470, 33010.00
1099.567, 33317.00
1100.664, 33397.00
1101.761, 33277.00
##END=



