##NAMES=Pectolite
##RRUFFID=R050396
##IDEAL CHEMISTRY=NaCa_2_Si_3_O_8_(OH)
##LOCALITY=Jeffrey Quarry, Asbestos, Quebec, Canada
##OWNER=RRUFF
##SOURCE=Marcus Origlieri
##DESCRIPTION=Colorless to gray columnar blocky crystals
##STATUS=The identification of this mineral has been confirmed by X-ray diffraction and chemical analysis
##URL=rruff.info/R050396
##MEASURED CHEMISTRY=Na_1.00_Ca_2.00_Si_3.00_O_8_(OH)
##PIN_ID=L01067
##ORIENTATION=Laser parallel to a* (1 0 0). Fiducial mark perpendicular to laser is parallel to -b [0 -1 0]
118.9350, 6232.000
120.1730, 6279.000
121.4100, 6306.000
122.6480, 6308.000
123.8850, 6349.000
125.1230, 6398.785
126.3600, 6445.550
127.5960, 6524.000
128.8330, 6592.000
130.0700, 6658.000
131.3060, 6772.000
132.5420, 6789.000
133.7780, 6961.000
135.0140, 7124.000
136.2500, 7019.000
137.4850, 7245.000
138.7200, 7416.000
139.9550, 7471.000
141.1900, 7566.000
142.4250, 7622.000
143.6600, 7553.000
144.8940, 7588.000
146.1280, 7631.000
147.3620, 7425.000
148.5960, 7469.000
149.8300, 7419.000
151.0630, 7524.000
152.2960, 7403.000
153.5300, 7292.000
154.7620, 7149.000
155.9950, 7176.000
157.2280, 7095.000
158.4600, 7022.000
159.6920, 7120.000
160.9250, 7023.000
162.1560, 7096.000
163.3880, 7045.000
164.6200, 7076.000
165.8510, 7058.000
167.0820, 7005.000
168.3130, 7154.000
169.5440, 7135.000
170.7750, 7275.000
172.0050, 7064.000
173.2350, 7138.000
174.4650, 7139.000
175.6950, 7186.000
176.9250, 7117.000
178.1550, 7301.000
179.3840, 7291.000
180.6130, 7307.000
181.8420, 7405.000
183.0710, 7505.000
184.3000, 7529.000
185.5280, 7597.000
186.7570, 7581.000
187.9850, 7535.000
189.2130, 7527.000
190.4400, 7525.807
191.6680, 7510.730
192.8960, 7559.000
194.1230, 7531.000
195.3500, 7579.000
196.5770, 7640.000
197.8030, 7586.000
199.0300, 7646.000
200.2560, 7666.000
201.4830, 7641.000
202.7090, 7687.000
203.9340, 7751.000
205.1600, 7565.000
206.3860, 7670.000
207.6110, 7566.000
208.8360, 7652.000
210.0610, 7714.000
211.2860, 7734.000
212.5100, 7780.583
213.7350, 7796.103
214.9590, 7852.000
216.1830, 7834.000
217.4070, 7929.000
218.6310, 7990.000
219.8540, 8065.000
221.0780, 8075.000
222.3010, 8082.000
223.5240, 8123.403
224.7470, 8244.000
225.9690, 8134.000
227.1920, 8190.000
228.4140, 8124.000
229.6360, 8150.000
230.8580, 8110.718
232.0800, 8036.000
233.3020, 8058.000
234.5230, 8041.000
235.7440, 8086.000
236.9650, 8078.000
238.1860, 8056.000
239.4070, 7968.000
240.6280, 7965.000
241.8480, 7913.000
243.0680, 8046.000
244.2880, 8125.000
245.5080, 8053.000
246.7280, 8025.000
247.9470, 8063.000
249.1660, 7966.000
250.3860, 8222.000
251.6040, 8191.000
252.8230, 8213.000
254.0420, 8215.000
255.2600, 8243.000
256.4790, 8271.005
257.6970, 8281.082
258.9150, 8342.000
260.1320, 8331.000
261.3500, 8368.000
262.5670, 8431.000
263.7840, 8487.000
265.0010, 8509.000
266.2180, 8512.000
267.4350, 8567.000
268.6510, 8715.000
269.8680, 8694.000
271.0840, 8815.000
272.3000, 8774.000
273.5160, 8785.000
274.7310, 8866.000
275.9470, 8891.000
277.1620, 9022.000
278.3770, 8813.000
279.5920, 8935.000
280.8070, 8767.000
282.0210, 8748.000
283.2360, 8663.000
284.4500, 8723.000
285.6640, 8677.000
286.8780, 8818.000
288.0920, 8781.112
289.3050, 8757.000
290.5180, 8763.000
291.7320, 8712.000
292.9450, 8668.000
294.1570, 8733.000
295.3700, 8760.000
296.5830, 8834.000
297.7950, 8906.000
299.0070, 8885.000
300.2190, 8938.000
301.4310, 8869.000
302.6420, 8902.000
303.8540, 8943.000
305.0650, 9027.000
306.2760, 8921.000
307.4870, 9016.000
308.6980, 8934.000
309.9080, 9073.000
311.1190, 9053.000
312.3290, 9140.000
313.5390, 9164.000
314.7490, 9208.000
315.9580, 9336.000
317.1680, 9406.000
318.3770, 9421.820
319.5860, 9355.000
320.7950, 9437.000
322.0040, 9408.000
323.2130, 9410.000
324.4210, 9352.000
325.6290, 9322.000
326.8380, 9368.000
328.0460, 9457.000
329.2530, 9397.302
330.4610, 9259.000
331.6680, 9313.000
332.8760, 9250.000
334.0830, 9161.000
335.2890, 9369.000
336.4960, 9145.000
337.7030, 9280.000
338.9090, 9259.000
340.1150, 9239.000
341.3210, 9230.000
342.5270, 9258.000
343.7330, 9399.000
344.9380, 9337.000
346.1440, 9356.000
347.3490, 9419.000
348.5540, 9373.000
349.7590, 9413.000
350.9630, 9525.000
352.1680, 9531.000
353.3720, 9501.000
354.5760, 9574.000
355.7800, 9535.000
356.9840, 9693.000
358.1870, 9693.000
359.3910, 9596.000
360.5940, 9695.000
361.7970, 9711.000
363.0000, 9664.000
364.2030, 9657.000
365.4050, 9779.000
366.6080, 9735.000
367.8100, 9808.000
369.0120, 9734.000
370.2140, 9905.000
371.4150, 9918.000
372.6170, 9930.000
373.8180, 9808.000
375.0190, 9960.000
376.2200, 9905.000
377.4210, 10083.00
378.6220, 9938.000
379.8220, 9956.000
381.0230, 9924.000
382.2230, 10013.00
383.4230, 10059.00
384.6220, 9995.000
385.8220, 10057.00
387.0220, 10086.00
388.2210, 10051.00
389.4200, 10008.00
390.6190, 10041.00
391.8180, 10073.00
393.0160, 10024.00
394.2150, 9964.000
395.4130, 10039.00
396.6110, 10107.00
397.8090, 10237.00
399.0060, 10195.00
400.2040, 10183.00
401.4010, 10210.00
402.5980, 10304.00
403.7950, 10228.00
404.9920, 10303.00
406.1890, 10293.00
407.3860, 10328.00
408.5820, 10550.00
409.7780, 10463.00
410.9740, 10491.00
412.1700, 10622.00
413.3650, 10505.00
414.5610, 10550.00
415.7560, 10626.00
416.9510, 10557.00
418.1460, 10535.00
419.3410, 10455.00
420.5360, 10478.00
421.7300, 10513.00
422.9240, 10334.00
424.1180, 10478.00
425.3120, 10318.00
426.5060, 10557.00
427.7000, 10581.00
428.8930, 10540.00
430.0860, 10551.00
431.2790, 10564.00
432.4720, 10609.00
433.6650, 10570.00
434.8580, 10700.00
436.0500, 10651.00
437.2420, 10647.00
438.4340, 10754.00
439.6260, 10695.00
440.8180, 10697.00
442.0090, 10639.00
443.2010, 10685.00
444.3920, 10691.14
445.5830, 10719.00
446.7740, 10728.00
447.9640, 10783.00
449.1550, 10742.00
450.3450, 10792.95
451.5350, 10757.00
452.7250, 10815.00
453.9150, 10908.00
455.1050, 10842.00
456.2940, 11065.00
457.4830, 10988.00
458.6720, 11126.00
459.8610, 11081.00
461.0500, 11018.00
462.2390, 11115.00
463.4270, 10932.00
464.6150, 11140.00
465.8040, 11231.00
466.9910, 11105.00
468.1790, 11184.00
469.3670, 11263.00
470.5540, 11151.00
471.7410, 11246.00
472.9280, 11328.00
474.1150, 11259.00
475.3020, 11261.00
476.4890, 11390.00
477.6750, 11385.00
478.8610, 11485.00
480.0470, 11498.00
481.2330, 11545.00
482.4190, 11541.00
483.6040, 11508.00
484.7900, 11445.00
485.9750, 11500.00
487.1600, 11525.00
488.3450, 11556.00
489.5290, 11728.00
490.7140, 11648.00
491.8980, 11562.00
493.0820, 11717.00
494.2660, 11764.00
495.4500, 11644.00
496.6340, 11745.00
497.8170, 11817.00
499.0010, 11889.00
500.1840, 11870.00
501.3670, 11896.00
502.5500, 11928.00
503.7320, 11921.92
504.9150, 11994.00
506.0970, 11957.00
507.2790, 12020.00
508.4610, 12087.00
509.6430, 11916.00
510.8250, 11874.00
512.0060, 11991.00
513.1870, 12056.00
514.3680, 12116.00
515.5490, 12077.00
516.7300, 12080.00
517.9110, 12230.00
519.0910, 12106.00
520.2710, 12324.00
521.4510, 12249.00
522.6310, 12307.00
523.8110, 12278.00
524.9910, 12246.00
526.1700, 12233.00
527.3490, 12151.00
528.5280, 12264.00
529.7070, 12296.00
530.8860, 12294.00
532.0650, 12239.00
533.2430, 12301.00
534.4210, 12299.00
535.5990, 12268.00
536.7770, 12328.00
537.9550, 12242.00
539.1320, 12314.00
540.3100, 12528.00
541.4870, 12557.00
542.6640, 12424.00
543.8410, 12371.00
545.0170, 12375.00
546.1940, 12325.00
547.3700, 12452.00
548.5470, 12518.00
549.7230, 12419.00
550.8980, 12479.00
552.0740, 12483.00
553.2500, 12532.00
554.4250, 12471.00
555.6000, 12631.00
556.7750, 12703.00
557.9500, 12736.00
559.1250, 12649.00
560.2990, 12743.00
561.4730, 12682.00
562.6480, 12777.00
563.8220, 12791.00
564.9950, 12781.00
566.1690, 12846.47
567.3430, 12842.13
568.5160, 12909.00
569.6890, 12892.00
570.8620, 12898.00
572.0350, 12959.00
573.2070, 13036.00
574.3800, 12948.00
575.5520, 13041.00
576.7240, 12881.00
577.8960, 13150.00
579.0680, 13108.00
580.2400, 13040.00
581.4110, 13155.00
582.5830, 13104.00
583.7540, 13174.00
584.9250, 13214.00
586.0950, 13198.00
587.2660, 13355.00
588.4370, 13448.00
589.6070, 13403.00
590.7770, 13383.00
591.9470, 13332.00
593.1170, 13380.00
594.2860, 13342.00
595.4560, 13364.00
596.6250, 13427.00
597.7940, 13534.00
598.9630, 13619.00
600.1320, 13546.00
601.3000, 13541.00
602.4690, 13409.00
603.6370, 13473.36
604.8050, 13668.00
605.9730, 13571.00
607.1410, 13705.00
608.3090, 13761.00
609.4760, 13776.00
610.6430, 13719.00
611.8100, 13781.00
612.9770, 13936.00
614.1440, 14030.00
615.3110, 13863.00
616.4770, 14064.00
617.6430, 13982.00
618.8090, 13853.00
619.9750, 14022.00
621.1410, 14054.00
622.3070, 14095.00
623.4720, 13953.00
624.6370, 14109.00
625.8020, 14302.00
626.9670, 14184.00
628.1320, 14335.00
629.2970, 14426.00
630.4610, 14491.00
631.6250, 14518.00
632.7890, 14616.00
633.9530, 14643.00
635.1170, 14872.00
636.2810, 14830.00
637.4440, 14945.00
638.6070, 14963.00
639.7700, 15164.00
640.9330, 15346.00
642.0960, 15793.00
643.2590, 15870.00
644.4210, 16421.00
645.5830, 16681.00
646.7450, 16927.00
647.9070, 17486.00
649.0690, 17978.00
650.2310, 18342.00
651.3920, 18792.00
652.5530, 18561.00
653.7140, 18493.00
654.8750, 17913.00
656.0360, 17183.00
657.1970, 16743.00
658.3570, 16333.00
659.5170, 15958.00
660.6770, 15710.00
661.8370, 15554.00
662.9970, 15367.00
664.1570, 15398.00
665.3160, 15296.53
666.4750, 15250.00
667.6340, 15281.00
668.7930, 15289.00
669.9520, 15337.30
671.1110, 15397.00
672.2690, 15346.00
673.4270, 15282.00
674.5850, 15288.00
675.7430, 15303.00
676.9010, 15328.00
678.0590, 15543.00
679.2160, 15473.00
680.3730, 15613.00
681.5300, 15585.00
682.6870, 15742.00
683.8440, 15733.00
685.0010, 15902.00
686.1570, 15888.00
687.3130, 15938.00
688.4690, 15834.00
689.6250, 15944.00
690.7810, 15676.00
691.9370, 15947.00
693.0920, 15711.00
694.2470, 15782.00
695.4020, 15923.00
696.5570, 15933.00
697.7120, 15845.00
698.8670, 15948.03
700.0210, 15756.00
701.1750, 15981.00
702.3290, 15948.00
703.4830, 15880.00
704.6370, 15952.00
705.7910, 15798.00
706.9440, 15948.00
708.0970, 15939.00
709.2510, 16035.00
710.4030, 16045.00
711.5560, 16252.00
712.7090, 16095.00
713.8610, 16099.00
715.0140, 16274.00
716.1660, 16048.00
717.3180, 16127.00
718.4690, 16141.00
719.6210, 16339.00
720.7730, 16414.00
721.9240, 16450.00
723.0750, 16337.00
724.2260, 16312.00
725.3770, 16374.00
726.5270, 16351.00
727.6780, 16464.00
728.8280, 16579.00
729.9780, 16382.00
731.1280, 16634.00
732.2780, 16754.00
733.4280, 16663.00
734.5770, 16587.00
735.7260, 16758.00
736.8760, 16631.00
738.0250, 16701.00
739.1730, 16800.00
740.3220, 16774.00
741.4700, 16711.00
742.6190, 16867.00
743.7670, 16818.00
744.9150, 16850.00
746.0630, 16821.00
747.2100, 17157.00
748.3580, 17150.00
749.5050, 17166.00
750.6520, 17155.00
751.7990, 17153.00
752.9460, 17182.48
754.0930, 17117.00
755.2390, 17219.00
756.3860, 17218.00
757.5320, 17188.00
758.6780, 17143.00
759.8240, 17284.00
760.9690, 17456.00
762.1150, 17452.00
763.2600, 17431.00
764.4060, 17456.00
765.5510, 17462.76
766.6950, 17515.86
767.8400, 17536.00
768.9850, 17643.00
770.1290, 17751.00
771.2730, 17811.00
772.4170, 17699.00
773.5610, 17730.00
774.7050, 17637.00
775.8480, 17772.00
776.9920, 17816.00
778.1350, 17989.00
779.2780, 17907.00
780.4210, 17975.00
781.5640, 18045.00
782.7060, 18064.00
783.8490, 18046.00
784.9910, 18029.00
786.1330, 18040.00
787.2750, 18109.00
788.4170, 18137.00
789.5580, 18194.00
790.7000, 18187.00
791.8410, 18305.00
792.9820, 18311.92
794.1230, 18430.00
795.2640, 18372.00
796.4040, 18468.00
797.5450, 18488.00
798.6850, 18528.00
799.8250, 18597.00
800.9650, 18505.00
802.1050, 18551.00
803.2450, 18604.00
804.3840, 18776.00
805.5230, 18739.00
806.6630, 18842.00
807.8020, 18715.00
808.9400, 18871.00
810.0790, 18730.00
811.2170, 18856.00
812.3560, 18976.00
813.4940, 19035.00
814.6320, 19133.00
815.7700, 19038.00
816.9070, 18903.00
818.0450, 19096.00
819.1820, 19116.00
820.3190, 19227.00
821.4560, 19221.00
822.5930, 19274.93
823.7300, 19301.00
824.8670, 19350.00
826.0030, 19328.00
827.1390, 19377.00
828.2750, 19425.00
829.4110, 19236.00
830.5470, 19453.00
831.6820, 19651.00
832.8180, 19576.00
833.9530, 19527.00
835.0880, 19681.00
836.2230, 19561.00
837.3580, 19634.93
838.4920, 19689.62
839.6270, 19720.00
840.7610, 19834.00
841.8950, 19937.00
843.0290, 20077.00
844.1630, 19955.00
845.2960, 19985.00
846.4300, 20099.00
847.5630, 20051.00
848.6960, 20142.00
849.8290, 20097.00
850.9620, 20236.00
852.0940, 20216.00
853.2270, 20200.00
854.3590, 20360.00
855.4910, 20316.00
856.6230, 20517.00
857.7550, 20490.00
858.8870, 20681.00
860.0180, 20450.00
861.1500, 20642.00
862.2810, 20533.00
863.4120, 20562.00
864.5430, 20712.00
865.6730, 20780.00
866.8040, 20840.00
867.9340, 20866.00
869.0640, 20824.00
870.1940, 20793.00
871.3240, 20917.00
872.4540, 20865.25
873.5830, 21046.00
874.7130, 20962.00
875.8420, 21016.00
876.9710, 21247.00
878.1000, 21292.00
879.2290, 21378.23
880.3570, 21194.00
881.4860, 21473.00
882.6140, 21394.00
883.7420, 21384.00
884.8700, 21537.00
885.9980, 21525.00
887.1250, 21428.00
888.2530, 21397.00
889.3800, 21546.00
890.5070, 21406.00
891.6340, 21777.00
892.7610, 21652.00
893.8880, 21670.00
895.0140, 21765.00
896.1400, 21682.00
897.2670, 21760.00
898.3930, 22019.00
899.5180, 21995.00
900.6440, 22109.00
901.7700, 22045.00
902.8950, 22068.00
904.0200, 22028.00
905.1450, 22170.00
906.2700, 22108.00
907.3950, 22400.00
908.5190, 22353.00
909.6440, 22408.00
910.7680, 22630.00
911.8920, 22427.00
913.0160, 22496.00
914.1400, 22614.00
915.2630, 22503.00
916.3870, 22715.00
917.5100, 22737.00
918.6330, 22697.00
919.7560, 22813.00
920.8790, 22672.00
922.0010, 22841.00
923.1240, 22871.00
924.2460, 22908.00
925.3680, 22954.00
926.4900, 22979.00
927.6120, 22874.00
928.7340, 23095.00
929.8550, 23206.00
930.9760, 23463.00
932.0980, 23317.00
933.2190, 23201.00
934.3390, 23231.00
935.4600, 23278.00
936.5810, 23442.00
937.7010, 23495.00
938.8210, 23488.00
939.9410, 23811.00
941.0610, 23683.00
942.1810, 23808.00
943.3010, 23863.00
944.4200, 23720.00
945.5390, 23963.00
946.6580, 23953.00
947.7770, 24025.00
948.8960, 24180.00
950.0150, 24239.00
951.1330, 24401.00
952.2510, 24383.00
953.3690, 24267.00
954.4870, 24324.00
955.6050, 24542.00
956.7230, 24773.00
957.8400, 24601.00
958.9580, 24990.00
960.0750, 24885.00
961.1920, 25125.00
962.3090, 25362.00
963.4250, 25457.00
964.5420, 25507.00
965.6580, 25470.00
966.7740, 25750.00
967.8900, 26271.00
969.0060, 26234.00
970.1220, 26416.00
971.2380, 26453.00
972.3530, 26624.00
973.4680, 26493.00
974.5830, 26513.00
975.6980, 26609.00
976.8130, 26370.00
977.9280, 26262.00
979.0420, 26469.00
980.1560, 26251.00
981.2710, 26182.00
982.3850, 26143.00
983.4980, 26079.00
984.6120, 26230.00
985.7260, 26275.00
986.8390, 26191.00
987.9520, 26106.00
989.0650, 26113.00
990.1780, 26155.00
991.2910, 26209.00
992.4030, 26265.00
993.5160, 26363.59
994.6280, 26488.00
995.7400, 26545.00
996.8520, 26625.00
997.9640, 26635.00
999.0750, 26603.00
1000.187, 26757.00
1001.298, 26700.00
1002.409, 26766.00
1003.520, 26760.00
1004.631, 26744.00
1005.741, 27074.00
1006.852, 26839.00
1007.962, 27195.00
1009.072, 26767.00
1010.182, 27092.00
1011.292, 27098.00
1012.402, 27041.00
1013.511, 27150.00
1014.621, 27201.00
1015.730, 27385.00
1016.839, 27662.00
1017.948, 27462.00
1019.056, 27820.00
1020.165, 27767.00
1021.273, 27906.00
1022.382, 27925.00
1023.490, 28193.00
1024.598, 28168.00
1025.706, 28400.00
1026.813, 28361.00
1027.921, 28415.00
1029.028, 28385.81
1030.135, 28053.00
1031.242, 28191.00
1032.349, 28089.00
1033.456, 27932.00
1034.562, 28046.00
1035.668, 28105.00
1036.775, 27841.00
1037.881, 28164.00
1038.987, 28173.00
1040.092, 28017.00
1041.198, 28080.00
1042.303, 28082.00
1043.408, 28130.00
1044.514, 28206.00
1045.618, 28126.00
1046.723, 28178.00
1047.828, 28345.00
1048.932, 28603.00
1050.037, 28438.00
1051.141, 28300.00
1052.245, 28521.00
1053.349, 28657.00
1054.452, 28655.00
1055.556, 28799.00
1056.659, 28818.00
1057.762, 28788.00
1058.865, 28743.00
1059.968, 28872.00
1061.071, 28870.00
1062.174, 28962.00
1063.276, 29030.00
1064.378, 29127.76
1065.480, 29209.79
1066.582, 29271.38
1067.684, 29330.86
1068.786, 29379.00
1069.887, 29411.00
1070.988, 29431.00
1072.090, 29453.00
1073.191, 29597.00
1074.291, 29605.00
1075.392, 29669.00
1076.493, 29630.00
1077.593, 29734.00
1078.693, 29723.00
1079.793, 29819.45
1080.893, 29982.00
1081.993, 30007.00
1083.092, 30114.00
1084.192, 30179.00
1085.291, 30177.00
1086.390, 30229.00
1087.489, 30204.00
1088.588, 30516.00
##END=



