##NAMES=Pharmacosiderite
##RRUFFID=R050574
##IDEAL CHEMISTRY=KFe^3+^_4_(As^5+^O_4_)_3_(OH)_4_&#183;6-7H_2_O
##LOCALITY=Cornwall, England
##OWNER=RRUFF
##SOURCE=University of Arizona Mineral Museum
##DESCRIPTION=Druse of bluish-green cubes
##STATUS=The identification of this mineral is confirmed by single-crystal X-ray diffraction and chemical analysis.
##URL=rruff.info/R050574
##MEASURED CHEMISTRY=K_1.27_(Fe^3+^_3.73_Fe^2+^_0.27_)_Σ=4_(As_1.00_O_4_)_3_(OH)_4_·6H_2_O
##PIN_ID=M00719
##ORIENTATION=Laser parallel to a* (1 0 0). Fiducial mark perpendicular to laser is parallel to c [0 0 1]
210.3780, 8767.000
211.6060, 8752.000
212.8340, 8712.000
214.0620, 8726.000
215.2900, 8769.000
216.5170, 8739.000
217.7440, 8736.000
218.9710, 8830.000
220.1980, 8722.000
221.4250, 8837.000
222.6510, 8946.000
223.8770, 9124.000
225.1040, 9098.000
226.3290, 9134.000
227.5550, 9246.000
228.7810, 9323.000
230.0060, 9293.000
231.2310, 9510.000
232.4560, 9550.000
233.6810, 9594.000
234.9050, 9728.000
236.1290, 9912.000
237.3540, 10022.00
238.5770, 10047.00
239.8010, 10129.00
241.0250, 10238.00
242.2480, 10223.00
243.4710, 10240.00
244.6940, 10248.97
245.9170, 10240.00
247.1400, 10207.00
248.3620, 10047.00
249.5840, 9999.000
250.8060, 9978.000
252.0280, 10131.00
253.2500, 10268.00
254.4710, 10315.00
255.6920, 10328.00
256.9140, 10535.00
258.1340, 10672.00
259.3550, 10796.00
260.5760, 11005.00
261.7960, 10943.00
263.0160, 10951.00
264.2360, 10882.00
265.4560, 11023.00
266.6750, 10894.00
267.8940, 10870.00
269.1140, 10841.00
270.3330, 10687.00
271.5510, 10616.00
272.7700, 10633.00
273.9880, 10456.00
275.2070, 10337.00
276.4250, 10378.00
277.6420, 10421.00
278.8600, 10414.00
280.0770, 10398.00
281.2950, 10435.00
282.5120, 10487.00
283.7290, 10441.00
284.9450, 10508.00
286.1620, 10520.00
287.3780, 10316.00
288.5940, 10160.00
289.8100, 10089.00
291.0260, 10018.00
292.2410, 9798.000
293.4570, 9681.000
294.6720, 9760.000
295.8870, 9573.000
297.1010, 9669.000
298.3160, 9567.000
299.5300, 9408.000
300.7450, 9469.000
301.9590, 9414.000
303.1730, 9548.000
304.3860, 9446.000
305.6000, 9435.000
306.8130, 9320.000
308.0260, 9356.000
309.2390, 9256.000
310.4510, 9277.000
311.6640, 9130.000
312.8760, 9106.000
314.0880, 9077.000
315.3000, 9017.000
316.5120, 9112.000
317.7240, 8977.000
318.9350, 8865.000
320.1460, 8931.000
321.3570, 9028.000
322.5680, 8882.000
323.7790, 8907.000
324.9890, 8879.000
326.1990, 8813.000
327.4090, 8944.000
328.6190, 8860.000
329.8290, 9020.000
331.0380, 8980.000
332.2480, 9061.000
333.4570, 8996.000
334.6660, 9063.000
335.8740, 8984.000
337.0830, 9083.000
338.2910, 9018.000
339.5000, 8958.000
340.7080, 9017.000
341.9150, 9018.000
343.1230, 9001.041
344.3300, 9089.000
345.5380, 9004.000
346.7450, 9071.000
347.9520, 9121.000
349.1580, 9110.000
350.3650, 9203.000
351.5710, 9081.000
352.7770, 9109.000
353.9830, 9207.000
355.1890, 9084.000
356.3940, 9153.000
357.6000, 9164.000
358.8050, 9146.000
360.0100, 9270.000
361.2150, 9314.000
362.4190, 9187.000
363.6240, 9262.000
364.8280, 9234.000
366.0320, 9285.000
367.2360, 9251.000
368.4400, 9365.000
369.6430, 9419.000
370.8460, 9345.000
372.0500, 9452.000
373.2530, 9563.000
374.4550, 9630.000
375.6580, 9599.000
376.8600, 9721.000
378.0620, 9634.000
379.2650, 9704.000
380.4660, 9835.000
381.6680, 9764.000
382.8690, 9894.473
384.0710, 9949.042
385.2720, 10043.00
386.4730, 10097.00
387.6730, 10162.00
388.8740, 10219.00
390.0740, 10322.00
391.2740, 10243.00
392.4740, 10307.00
393.6740, 10382.00
394.8740, 10182.00
396.0730, 10333.00
397.2730, 10246.00
398.4720, 10176.00
399.6700, 10202.00
400.8690, 10128.00
402.0680, 10047.00
403.2660, 9913.000
404.4640, 9942.000
405.6620, 10090.00
406.8600, 10005.91
408.0570, 10013.48
409.2550, 10034.00
410.4520, 9900.000
411.6490, 9963.000
412.8460, 9915.000
414.0430, 9856.000
415.2390, 10018.00
416.4350, 9929.000
417.6310, 9992.000
418.8270, 10099.00
420.0230, 9961.000
421.2190, 9978.000
422.4140, 10024.00
423.6090, 10008.18
424.8040, 10173.00
425.9990, 10123.00
427.1940, 10230.00
428.3880, 10357.00
429.5820, 10305.00
430.7760, 10388.00
431.9700, 10456.00
433.1640, 10461.00
434.3580, 10586.00
435.5510, 10648.00
436.7440, 10706.00
437.9370, 10873.00
439.1300, 11010.00
440.3230, 11028.00
441.5150, 11115.00
442.7070, 11281.00
443.8990, 11386.00
445.0910, 11536.00
446.2830, 11730.00
447.4750, 11889.60
448.6660, 12067.00
449.8570, 12294.00
451.0480, 12576.00
452.2390, 12829.00
453.4290, 13103.00
454.6200, 13603.00
455.8100, 13671.00
457.0000, 14177.00
458.1900, 14645.00
459.3800, 15262.00
460.5690, 15915.00
461.7590, 16610.00
462.9480, 17394.00
464.1370, 18561.00
465.3260, 19996.00
466.5140, 21549.00
467.7030, 23477.00
468.8910, 25709.00
470.0790, 28430.00
471.2670, 31549.00
472.4550, 34971.00
473.6420, 38365.00
474.8300, 41627.00
476.0170, 44378.00
477.2040, 45827.00
478.3900, 45981.00
479.5770, 44405.00
480.7640, 41593.00
481.9500, 38610.00
483.1360, 35184.00
484.3220, 31920.00
485.5080, 28752.00
486.6930, 26321.00
487.8780, 24154.00
489.0640, 22432.00
490.2490, 20993.00
491.4330, 19754.00
492.6180, 19078.00
493.8030, 17941.00
494.9870, 17258.00
496.1710, 16589.00
497.3550, 16094.00
498.5390, 15465.00
499.7220, 15245.00
500.9060, 14958.00
502.0890, 14566.00
503.2720, 14305.37
504.4550, 13954.00
505.6370, 13645.00
506.8200, 13508.00
508.0020, 13143.00
509.1840, 12861.00
510.3660, 12806.00
511.5480, 12730.00
512.7290, 12361.00
513.9110, 12256.00
515.0920, 12233.00
516.2730, 12039.00
517.4540, 11973.00
518.6350, 11846.00
519.8150, 11721.00
520.9960, 11686.00
522.1760, 11639.00
523.3560, 11446.00
524.5350, 11342.00
525.7150, 11251.00
526.8950, 11170.00
528.0740, 11090.32
529.2530, 11094.00
530.4320, 10965.00
531.6100, 10958.00
532.7890, 10933.00
533.9670, 10874.00
535.1460, 10951.00
536.3240, 10829.00
537.5010, 10696.00
538.6790, 10917.00
539.8570, 10780.00
541.0340, 10716.00
542.2110, 10697.00
543.3880, 10713.00
544.5650, 10627.00
545.7410, 10631.79
546.9180, 10455.00
548.0940, 10617.00
549.2700, 10450.00
550.4460, 10496.00
551.6210, 10353.00
552.7970, 10411.00
553.9720, 10525.00
555.1480, 10340.00
556.3230, 10365.00
557.4970, 10386.00
558.6720, 10421.00
559.8460, 10351.00
561.0210, 10432.00
562.1950, 10480.00
563.3690, 10424.00
564.5420, 10328.00
565.7160, 10377.00
566.8890, 10344.00
568.0630, 10347.00
569.2360, 10332.00
570.4090, 10327.45
571.5810, 10337.50
572.7540, 10340.00
573.9260, 10377.00
575.0980, 10414.00
576.2700, 10473.00
577.4420, 10422.00
578.6140, 10352.00
579.7850, 10384.00
580.9560, 10399.00
582.1270, 10458.00
583.2980, 10591.00
584.4690, 10442.00
585.6400, 10508.00
586.8100, 10659.00
587.9800, 10602.00
589.1500, 10535.00
590.3200, 10479.00
591.4900, 10469.00
592.6590, 10405.00
593.8290, 10531.00
594.9980, 10538.00
596.1670, 10528.00
597.3360, 10520.00
598.5040, 10485.00
599.6730, 10654.00
600.8410, 10582.00
602.0090, 10761.00
603.1770, 10631.00
604.3450, 10585.00
605.5130, 10654.00
606.6800, 10505.00
607.8470, 10426.00
609.0140, 10579.00
610.1810, 10623.00
611.3480, 10596.00
612.5140, 10609.00
613.6810, 10651.00
614.8470, 10755.00
616.0130, 10688.00
617.1790, 10590.00
618.3440, 10776.00
619.5100, 10822.00
620.6750, 10974.00
621.8400, 11077.00
623.0050, 11078.00
624.1700, 11189.00
625.3350, 11359.00
626.4990, 11262.00
627.6640, 11356.00
628.8280, 11103.00
629.9920, 11019.00
631.1550, 10871.00
632.3190, 10900.00
633.4820, 10799.00
634.6460, 10723.00
635.8090, 10720.00
636.9710, 10736.00
638.1340, 10795.00
639.2970, 10707.00
640.4590, 10794.00
641.6210, 10848.00
642.7830, 10726.00
643.9450, 10960.00
645.1070, 10962.00
646.2680, 11085.00
647.4300, 10966.00
648.5910, 10963.00
649.7520, 11117.00
650.9130, 11069.00
652.0730, 11062.00
653.2340, 11077.00
654.3940, 11018.00
655.5540, 11032.00
656.7140, 10850.00
657.8740, 10927.00
659.0330, 10645.00
660.1930, 10667.00
661.3520, 10749.00
662.5110, 10622.00
663.6700, 10526.00
664.8290, 10571.00
665.9870, 10669.00
667.1460, 10579.00
668.3040, 10561.00
669.4620, 10623.00
670.6200, 10594.00
671.7770, 10566.00
672.9350, 10471.00
674.0920, 10666.00
675.2500, 10489.00
676.4070, 10679.00
677.5630, 10475.00
678.7200, 10639.00
679.8770, 10588.00
681.0330, 10595.00
682.1890, 10643.00
683.3450, 10561.00
684.5010, 10689.00
685.6560, 10657.00
686.8120, 10703.00
687.9670, 10602.00
689.1220, 10605.00
690.2770, 10505.00
691.4320, 10602.00
692.5870, 10618.00
693.7410, 10573.00
694.8950, 10638.90
696.0490, 10581.00
697.2030, 10684.00
698.3570, 10646.00
699.5110, 10663.00
700.6640, 10630.00
701.8170, 10725.00
702.9700, 10874.00
704.1230, 10758.00
705.2760, 10824.00
706.4290, 10742.00
707.5810, 10823.00
708.7330, 10824.00
709.8850, 10784.00
711.0370, 10779.00
712.1890, 10919.00
713.3400, 10921.00
714.4920, 10869.00
715.6430, 10922.00
716.7940, 10859.00
717.9450, 10994.00
719.0960, 11049.00
720.2460, 11050.00
721.3960, 11135.00
722.5470, 11000.00
723.6970, 11273.00
724.8460, 11026.00
725.9960, 11297.00
727.1460, 11111.00
728.2950, 11078.00
729.4440, 11338.00
730.5930, 11386.00
731.7420, 11143.00
732.8910, 11295.00
734.0390, 11340.00
735.1870, 11304.00
736.3360, 11449.00
737.4840, 11357.00
738.6310, 11390.00
739.7790, 11376.00
740.9260, 11404.00
742.0740, 11284.00
743.2210, 11411.00
744.3680, 11464.00
745.5150, 11313.00
746.6610, 11500.00
747.8080, 11594.00
748.9540, 11505.00
750.1000, 11646.00
751.2460, 11617.00
752.3920, 11554.00
753.5380, 11691.00
754.6830, 11656.00
755.8280, 11657.00
756.9730, 11661.00
758.1180, 11860.00
759.2630, 11859.00
760.4080, 11975.00
761.5520, 11999.00
762.6960, 12044.00
763.8410, 12074.00
764.9840, 12228.00
766.1280, 12169.00
767.2720, 12305.00
768.4150, 12606.00
769.5590, 12622.00
770.7020, 12611.00
771.8450, 12869.00
772.9870, 12998.00
774.1300, 13337.00
775.2720, 13342.00
776.4150, 13739.00
777.5570, 13854.00
778.6990, 14209.00
779.8400, 14881.00
780.9820, 15337.00
782.1230, 15658.00
783.2650, 16121.00
784.4060, 16751.00
785.5470, 17195.00
786.6870, 17785.00
787.8280, 18179.00
788.9680, 18683.00
790.1090, 18927.00
791.2490, 19017.00
792.3890, 18858.00
793.5280, 18652.00
794.6680, 18510.00
795.8070, 18182.00
796.9470, 17577.00
798.0860, 17086.00
799.2250, 16689.00
800.3630, 16276.00
801.5020, 15895.84
802.6410, 15539.00
803.7790, 15221.00
804.9170, 14876.00
806.0550, 14604.28
807.1930, 14357.91
808.3300, 14209.00
809.4680, 13931.00
810.6050, 13876.00
811.7420, 13686.00
812.8790, 13481.00
814.0160, 13410.00
815.1520, 13341.00
816.2890, 13263.00
817.4250, 13251.00
818.5610, 13410.00
819.6970, 13288.00
820.8330, 13239.00
821.9680, 13046.00
823.1040, 13194.00
824.2390, 13058.00
825.3740, 13180.00
826.5090, 13074.00
827.6440, 13179.00
828.7790, 13256.00
829.9130, 13126.00
831.0470, 13063.00
832.1810, 13235.00
833.3150, 13190.00
834.4490, 13100.00
835.5830, 13160.00
836.7160, 13266.00
837.8500, 13258.00
838.9830, 13250.00
840.1160, 13214.00
841.2480, 13279.00
842.3810, 13389.00
843.5140, 13389.00
844.6460, 13564.00
845.7780, 13568.00
846.9100, 13545.00
848.0420, 13765.00
849.1740, 13819.00
850.3050, 13912.00
851.4360, 14138.00
852.5680, 14239.00
853.6990, 14455.00
854.8290, 14598.00
855.9600, 14758.00
857.0910, 15003.00
858.2210, 15170.00
859.3510, 15293.00
860.4810, 15703.00
861.6110, 15710.00
862.7410, 15699.00
863.8700, 15678.00
865.0000, 15957.00
866.1290, 15960.00
867.2580, 16040.00
868.3870, 16163.00
869.5150, 16255.00
870.6440, 16432.00
871.7720, 16611.00
872.9000, 16939.00
874.0290, 17155.87
875.1560, 17534.00
876.2840, 17733.00
877.4120, 18164.00
878.5390, 18513.00
879.6660, 18834.00
880.7930, 19099.00
881.9200, 18951.00
883.0470, 19133.00
884.1740, 19034.00
885.3000, 19025.00
886.4260, 18718.00
887.5530, 18133.00
888.6780, 17946.00
889.8040, 17350.00
890.9300, 16910.00
892.0550, 16360.00
893.1810, 16085.00
894.3060, 15733.00
895.4310, 15418.00
896.5560, 15027.00
897.6800, 14748.00
898.8050, 14477.00
899.9290, 14233.00
901.0530, 14179.00
902.1770, 14086.00
903.3010, 13830.00
904.4250, 13810.00
905.5480, 13707.00
906.6720, 13527.00
907.7950, 13525.00
908.9180, 13509.00
910.0410, 13340.00
911.1630, 13357.00
912.2860, 13133.00
913.4080, 13257.00
914.5300, 13226.00
915.6530, 12967.00
916.7740, 13002.00
917.8960, 13096.00
919.0180, 13098.00
920.1390, 12967.00
921.2600, 13057.00
922.3820, 12826.00
923.5020, 12775.00
924.6230, 12889.00
925.7440, 12865.00
926.8640, 12859.00
927.9850, 12964.00
929.1050, 12921.00
930.2250, 12860.00
931.3450, 12919.00
932.4640, 12994.00
933.5840, 12892.00
934.7030, 12814.00
935.8220, 13077.00
936.9410, 12900.00
938.0600, 12989.00
939.1790, 12841.00
940.2970, 12827.00
941.4160, 13002.00
942.5340, 12934.00
943.6520, 12870.00
944.7700, 12999.00
945.8870, 12911.00
947.0050, 12873.00
948.1220, 12770.00
949.2400, 12950.00
950.3570, 12939.00
951.4740, 13063.00
952.5900, 13008.00
953.7070, 13142.00
954.8240, 13169.00
955.9400, 13068.00
957.0560, 13217.00
958.1720, 13172.00
959.2880, 13213.00
960.4030, 13135.00
961.5190, 13180.00
962.6340, 13226.00
963.7490, 13059.00
964.8640, 13145.00
965.9790, 13238.00
967.0940, 13085.00
968.2080, 13133.00
969.3230, 13120.00
970.4370, 13269.00
971.5510, 13180.00
972.6650, 13263.00
973.7790, 13145.00
974.8920, 13144.00
976.0060, 13210.00
977.1190, 13170.00
978.2320, 13352.00
979.3450, 13247.00
980.4580, 13294.00
981.5710, 13270.00
982.6830, 13246.67
983.7950, 13187.00
984.9080, 13261.00
986.0200, 13367.00
987.1310, 13448.00
988.2430, 13387.00
989.3550, 13357.00
990.4660, 13446.00
991.5770, 13467.00
992.6880, 13403.00
993.7990, 13543.00
994.9100, 13617.00
996.0200, 13781.00
997.1310, 13667.00
998.2410, 13788.00
999.3510, 13829.00
1000.461, 13910.00
1001.571, 13949.45
1002.681, 13959.00
1003.790, 13945.00
1004.899, 13936.81
1006.009, 13902.68
1007.118, 13872.00
1008.226, 13813.00
1009.335, 13764.00
1010.444, 13708.00
1011.552, 13813.00
1012.660, 13585.00
1013.768, 13845.00
1014.876, 13880.00
1015.984, 13796.00
1017.092, 13972.00
1018.199, 13804.00
1019.306, 13939.00
1020.413, 13954.00
1021.520, 14135.00
1022.627, 13876.00
1023.734, 14059.00
1024.840, 13890.00
1025.947, 13994.00
1027.053, 14099.00
1028.159, 13970.00
1029.265, 13872.00
1030.370, 14031.00
1031.476, 14096.00
1032.581, 14015.00
1033.687, 13916.00
1034.792, 13960.00
1035.897, 13882.00
1037.002, 13906.00
1038.106, 13985.00
1039.211, 13903.00
1040.315, 13931.00
1041.419, 13829.00
1042.523, 13889.00
1043.627, 13851.00
1044.731, 13836.61
1045.834, 13862.00
1046.938, 13843.00
1048.041, 13858.37
1049.144, 13866.86
1050.247, 13874.00
1051.349, 13880.00
1052.452, 13874.00
1053.555, 13865.00
1054.657, 13843.71
1055.759, 13836.99
1056.861, 13783.00
1057.963, 13850.00
1059.064, 13819.00
1060.166, 13903.00
1061.267, 13926.00
1062.368, 13984.00
1063.470, 13894.00
1064.570, 13820.00
1065.671, 13953.00
1066.772, 14093.00
1067.872, 13925.00
1068.972, 13991.00
1070.073, 13985.00
1071.173, 13906.00
1072.272, 13989.00
1073.372, 13840.00
1074.472, 13958.00
1075.571, 14009.00
1076.670, 14338.00
1077.769, 14045.00
1078.868, 14229.00
1079.967, 14182.00
1081.065, 14134.00
1082.164, 14298.00
1083.262, 14333.00
1084.360, 14111.00
1085.458, 14183.00
1086.556, 14063.00
1087.654, 14234.00
1088.751, 14324.00
1089.848, 14183.00
1090.946, 14061.00
1092.043, 14113.00
1093.139, 14261.00
1094.236, 14131.00
1095.333, 14165.00
1096.429, 14061.00
1097.525, 14098.00
1098.622, 14147.00
1099.718, 14105.00
1100.813, 14154.00
1101.909, 14252.00
1103.005, 14152.00
1104.100, 14317.00
1105.195, 14257.00
1106.290, 14091.00
1107.385, 14210.00
1108.480, 14217.00
1109.574, 14361.00
1110.669, 14366.00
1111.763, 14329.00
1112.857, 14415.00
1113.951, 14269.00
1115.045, 14230.00
1116.139, 14243.00
1117.232, 14338.00
1118.326, 14229.00
1119.419, 14221.00
1120.512, 14235.00
1121.605, 14400.00
1122.697, 14235.00
1123.790, 14232.00
1124.883, 14375.00
1125.975, 14296.00
1127.067, 14145.00
1128.159, 14287.00
1129.251, 14331.00
1130.342, 14205.00
1131.434, 14183.00
1132.525, 14317.00
1133.617, 14200.00
1134.708, 14286.00
1135.799, 14386.00
1136.889, 14270.00
1137.980, 14270.00
1139.071, 14263.00
1140.161, 14232.00
1141.251, 14255.38
1142.341, 14301.00
1143.431, 14281.00
1144.521, 14305.39
1145.610, 14319.69
1146.700, 14306.00
1147.789, 14336.00
1148.878, 14319.00
1149.967, 14303.00
1151.056, 14356.00
1152.144, 14390.00
1153.233, 14368.00
1154.321, 14148.00
1155.409, 14317.00
1156.498, 14299.00
1157.585, 14664.00
1158.673, 14391.00
1159.761, 14297.00
1160.848, 14572.00
1161.936, 14372.00
1163.023, 14491.00
1164.110, 14440.00
1165.197, 14556.00
1166.283, 14460.00
1167.370, 14433.00
1168.456, 14662.00
1169.542, 14589.00
1170.629, 14495.00
1171.714, 14509.00
1172.800, 14619.00
1173.886, 14600.00
1174.971, 14562.00
1176.057, 14628.00
1177.142, 14540.00
1178.227, 14686.00
1179.312, 14608.00
1180.397, 14771.00
1181.481, 14685.00
1182.566, 14758.00
1183.650, 14746.00
1184.734, 14669.00
1185.818, 14616.00
1186.902, 14700.00
1187.986, 14635.00
1189.069, 14647.55
1190.153, 14562.00
1191.236, 14660.00
1192.319, 14685.00
1193.402, 14746.00
1194.485, 14756.00
1195.567, 14730.00
1196.650, 14688.00
1197.732, 14728.42
1198.814, 14727.00
1199.896, 14751.00
1200.978, 14803.00
1202.060, 14732.00
1203.142, 14754.00
1204.223, 14755.00
1205.304, 14711.00
1206.386, 14789.00
1207.467, 14843.00
1208.547, 14670.00
1209.628, 14799.00
1210.709, 15045.00
1211.789, 14881.00
1212.869, 14741.00
1213.950, 14970.00
1215.030, 15006.00
1216.109, 14895.00
1217.189, 14947.00
1218.269, 15042.00
1219.348, 15120.00
1220.427, 15093.00
1221.506, 14827.00
1222.585, 14956.00
1223.664, 14912.00
1224.743, 15029.00
1225.821, 15044.00
1226.899, 15005.00
1227.978, 14987.00
1229.056, 15063.00
1230.134, 14962.00
1231.211, 15010.00
1232.289, 15167.00
1233.366, 15208.00
1234.444, 15214.00
1235.521, 15190.00
1236.598, 15316.00
1237.675, 15208.00
1238.751, 15224.00
1239.828, 15208.00
1240.904, 15350.00
1241.981, 15149.00
1243.057, 15308.00
1244.133, 15287.00
1245.209, 15298.00
1246.284, 15360.00
1247.360, 15374.00
1248.435, 15400.00
1249.510, 15390.00
1250.585, 15470.00
1251.660, 15459.55
1252.735, 15534.00
1253.810, 15499.00
1254.884, 15487.00
1255.959, 15543.00
1257.033, 15491.00
1258.107, 15540.00
1259.181, 15558.90
1260.255, 15552.00
1261.328, 15648.00
1262.402, 15582.00
1263.475, 15684.00
1264.548, 15784.00
1265.621, 15643.00
1266.694, 15649.00
1267.767, 15817.00
1268.840, 15879.00
1269.912, 15870.45
1270.984, 15966.00
1272.056, 15846.00
1273.129, 15801.00
1274.200, 15803.00
1275.272, 15921.00
1276.344, 15774.00
1277.415, 15814.00
1278.486, 15729.00
1279.558, 15605.00
1280.629, 15616.00
1281.699, 15591.00
1282.770, 15643.00
1283.841, 15646.00
1284.911, 15752.00
1285.981, 15929.00
1287.051, 16015.00
1288.121, 15799.00
1289.191, 15924.00
1290.261, 15844.00
1291.330, 16025.00
1292.400, 16071.00
1293.469, 16174.00
1294.538, 15938.00
1295.607, 16049.00
1296.676, 16017.00
1297.745, 16112.00
1298.813, 16156.00
1299.881, 16165.00
1300.950, 16205.55
1302.018, 16220.94
1303.086, 16210.62
1304.154, 16246.00
1305.221, 16218.00
1306.289, 16211.00
1307.356, 16275.00
1308.423, 16285.00
1309.490, 16344.00
1310.557, 16416.00
1311.624, 16287.00
1312.691, 16313.00
1313.757, 16479.00
1314.823, 16177.00
1315.890, 16376.00
1316.956, 16269.00
1318.022, 16428.00
1319.087, 16330.00
1320.153, 16473.00
1321.219, 16304.00
1322.284, 16273.00
1323.349, 16035.00
1324.414, 16247.00
1325.479, 16319.00
1326.544, 16193.00
1327.608, 16201.00
1328.673, 16125.00
1329.737, 16255.00
1330.801, 16308.00
1331.865, 16310.00
1332.929, 16031.00
1333.993, 16154.00
1335.057, 16133.00
1336.120, 16241.00
1337.183, 16170.00
1338.247, 16207.00
1339.310, 16278.00
1340.373, 16081.00
1341.435, 16174.00
1342.498, 16203.00
1343.560, 16238.00
1344.623, 16201.00
1345.685, 16339.00
1346.747, 16362.00
1347.809, 16330.87
1348.871, 16461.00
1349.932, 16293.00
1350.994, 16299.00
1352.055, 16360.00
1353.116, 16273.00
1354.177, 16142.00
1355.238, 16228.00
1356.299, 16502.00
1357.359, 16328.00
1358.420, 16110.00
1359.480, 16388.00
1360.540, 16284.00
1361.600, 16298.00
1362.660, 16296.00
1363.720, 16251.00
1364.780, 16456.00
1365.839, 16375.00
1366.898, 16548.00
1367.958, 16487.00
1369.017, 16471.00
1370.076, 16526.00
1371.134, 16469.00
1372.193, 16488.00
1373.251, 16427.00
1374.310, 16468.08
1375.368, 16499.00
1376.426, 16535.00
1377.484, 16621.00
1378.542, 16632.00
1379.599, 16818.00
1380.657, 16512.00
1381.714, 16802.00
1382.771, 16670.00
1383.828, 16760.00
1384.885, 16578.00
1385.942, 16573.00
1386.999, 16605.00
1388.055, 16676.00
1389.111, 16636.00
1390.168, 16715.00
1391.224, 16715.00
1392.280, 16629.00
1393.335, 16626.00
1394.391, 16647.00
1395.446, 16595.00
1396.502, 16602.00
1397.557, 16737.00
1398.612, 16670.00
1399.667, 16579.00
1400.722, 16704.00
1401.776, 16740.00
1402.831, 16716.00
1403.885, 16715.00
1404.939, 16693.00
1405.994, 16661.01
1407.048, 16652.00
1408.101, 16591.00
1409.155, 16539.00
1410.209, 16506.95
1411.262, 16547.53
1412.315, 16548.00
1413.368, 16662.00
1414.421, 16821.00
1415.474, 16863.00
1416.527, 16880.00
1417.579, 16800.00
1418.632, 16783.00
1419.684, 16869.00
1420.736, 16782.00
1421.788, 16841.00
1422.840, 16734.00
1423.891, 16995.00
1424.943, 16917.00
1425.994, 16914.00
1427.046, 16919.00
1428.097, 17133.00
1429.148, 16798.00
1430.199, 17191.00
1431.249, 17051.00
1432.300, 17235.00
1433.350, 17041.00
1434.401, 17174.00
1435.451, 17398.00
1436.501, 17420.00
1437.551, 17584.00
1438.601, 17581.00
1439.650, 17676.00
1440.700, 17863.00
1441.749, 17952.00
1442.798, 18018.00
1443.847, 17858.00
1444.896, 18049.00
1445.945, 17952.00
1446.993, 17988.00
1448.042, 18145.00
1449.090, 18146.00
1450.138, 18143.00
1451.187, 18098.00
1452.234, 18179.00
1453.282, 18417.00
1454.330, 18314.00
1455.377, 18469.00
1456.425, 18257.00
1457.472, 18203.00
1458.519, 18051.00
1459.566, 17974.88
1460.613, 17936.00
1461.660, 17877.00
1462.706, 17990.00
1463.752, 18014.00
1464.799, 17898.00
1465.845, 17813.00
1466.891, 17876.00
1467.937, 17811.00
1468.982, 17687.00
1470.028, 17615.00
1471.073, 17671.00
1472.119, 17774.00
1473.164, 17542.00
1474.209, 17636.00
1475.254, 17683.00
1476.299, 17515.00
1477.343, 17527.00
1478.388, 17552.00
1479.432, 17557.00
1480.476, 17691.00
1481.520, 17443.00
1482.564, 17376.00
1483.608, 17513.00
1484.651, 17470.00
1485.695, 17512.00
1486.738, 17527.00
1487.782, 17419.00
1488.825, 17536.00
1489.868, 17346.00
1490.910, 17390.00
1491.953, 17339.00
1492.996, 17457.00
1494.038, 17310.00
1495.080, 17431.00
1496.122, 17421.00
1497.164, 17334.00
1498.206, 17396.00
1499.248, 17489.00
1500.290, 17409.00
1501.331, 17476.00
1502.372, 17458.00
1503.413, 17413.00
1504.455, 17431.00
1505.495, 17392.93
1506.536, 17355.00
1507.577, 17366.00
1508.617, 17476.00
1509.658, 17514.00
1510.698, 17457.00
1511.738, 17590.00
1512.778, 17602.00
1513.818, 17772.00
1514.857, 17529.00
1515.897, 17441.00
1516.936, 17698.00
1517.975, 17652.00
1519.015, 17734.00
1520.054, 17592.00
1521.092, 17727.00
1522.131, 17843.00
1523.170, 17921.00
1524.208, 17970.20
1525.246, 17996.50
1526.285, 17948.00
1527.323, 18002.00
1528.361, 17859.00
1529.398, 17877.00
1530.436, 17743.00
1531.473, 17853.00
1532.511, 17762.00
1533.548, 17749.00
1534.585, 17782.00
1535.622, 17855.00
1536.659, 17771.00
1537.695, 17819.00
1538.732, 17906.00
1539.768, 17874.00
1540.805, 17946.00
1541.841, 17935.00
1542.877, 18044.00
1543.913, 18048.00
1544.948, 17979.00
1545.984, 18065.00
1547.019, 17998.00
1548.055, 17965.00
1549.090, 18132.00
1550.125, 17836.00
1551.160, 18105.00
1552.195, 17890.00
1553.229, 18047.00
1554.264, 18024.00
1555.298, 17980.00
1556.332, 17855.00
1557.366, 17994.00
1558.400, 18090.00
1559.434, 18098.00
1560.468, 17951.00
1561.502, 18091.00
1562.535, 18048.00
##END=



