##NAMES=Phenakite
##RRUFFID=R050137
##IDEAL CHEMISTRY=Be_2_SiO_4_
##LOCALITY=Mount Antero area, Chaffee County, Colorado, USA
##OWNER=RRUFF
##SOURCE=Dave Bunk Minerals
##DESCRIPTION=Colorless tabular hexagonal crystal
##STATUS=The identification of this mineral has been confirmed by X-ray diffraction and chemical analysis
##URL=rruff.info/R050137
##MEASURED CHEMISTRY=Be_2.00_Si_1.00_O_4_
##PIN_ID=L00964
##ORIENTATION=Laser parallel to -c* (0 0 -1). Fiducial mark perpendicular to laser is parallel to a [1 0 0]
69.55300, 2527.000
70.78700, 2629.000
72.02000, 2665.000
73.25400, 2848.000
74.48800, 3106.000
75.72100, 3121.000
76.95500, 3151.000
78.18800, 2985.000
79.42100, 2981.000
80.65400, 3103.000
81.88700, 3197.000
83.11900, 3023.000
84.35200, 3022.000
85.58400, 2794.000
86.81600, 2713.000
88.04900, 2747.000
89.28100, 2755.000
90.51200, 2802.000
91.74400, 2774.000
92.97600, 2831.000
94.20700, 2828.000
95.43800, 2777.000
96.66900, 2771.000
97.90100, 2862.000
99.13100, 2821.000
100.3620, 2835.000
101.5930, 2904.000
102.8230, 2918.000
104.0530, 3071.000
105.2840, 3130.000
106.5140, 3064.000
107.7440, 3002.000
108.9730, 2894.000
110.2030, 2939.000
111.4320, 2978.000
112.6620, 3040.000
113.8910, 3098.000
115.1200, 3171.000
116.3490, 3069.000
117.5780, 3080.000
118.8060, 3389.000
120.0350, 3893.000
121.2630, 3879.000
122.4920, 3699.000
123.7200, 3252.000
124.9480, 2950.000
126.1750, 2898.000
127.4030, 2843.000
128.6310, 2944.000
129.8580, 2852.000
131.0850, 2898.000
132.3120, 2788.000
133.5390, 2901.000
134.7660, 2832.000
135.9930, 2842.000
137.2200, 2887.000
138.4460, 2931.000
139.6720, 2911.000
140.8980, 2933.000
142.1240, 2841.000
143.3500, 2959.000
144.5760, 3080.000
145.8020, 3023.000
147.0270, 3171.000
148.2520, 3285.000
149.4780, 3401.000
150.7030, 3579.000
151.9270, 3876.000
153.1520, 4182.000
154.3770, 4542.000
155.6010, 5029.000
156.8260, 5781.000
158.0500, 7239.000
159.2740, 8725.000
160.4980, 9282.000
161.7210, 8700.000
162.9450, 7433.000
164.1690, 5541.000
165.3920, 4373.000
166.6150, 3835.000
167.8380, 3481.000
169.0610, 3222.000
170.2840, 3143.000
171.5070, 2998.000
172.7290, 3018.000
173.9510, 2984.000
175.1740, 2968.000
176.3960, 2931.000
177.6180, 3020.000
178.8390, 2922.000
180.0610, 2949.000
181.2830, 3018.000
182.5040, 2949.000
183.7250, 2966.000
184.9460, 2903.000
186.1670, 2976.000
187.3880, 2937.000
188.6090, 3017.000
189.8290, 2980.000
191.0500, 2996.000
192.2700, 3029.000
193.4900, 2930.000
194.7100, 3045.000
195.9300, 2977.000
197.1490, 3052.000
198.3690, 3038.000
199.5880, 3114.000
200.8080, 3132.000
202.0270, 3097.000
203.2460, 3178.000
204.4650, 3255.000
205.6830, 3422.000
206.9020, 3586.000
208.1200, 3819.000
209.3380, 4315.000
210.5570, 4671.000
211.7750, 5227.000
212.9920, 5954.000
214.2100, 7198.000
215.4280, 8575.000
216.6450, 10113.00
217.8620, 13667.00
219.0790, 19033.00
220.2960, 22062.00
221.5130, 21912.00
222.7300, 17492.00
223.9460, 12548.00
225.1630, 8300.000
226.3790, 6167.000
227.5950, 4941.000
228.8110, 4304.000
230.0270, 3890.000
231.2430, 3607.000
232.4580, 3473.000
233.6740, 3334.000
234.8890, 3310.000
236.1040, 3264.000
237.3190, 3164.000
238.5340, 3207.000
239.7490, 3207.000
240.9630, 3178.000
242.1780, 3215.000
243.3920, 3268.000
244.6060, 3336.000
245.8200, 3380.000
247.0340, 3469.995
248.2470, 3481.000
249.4610, 3631.000
250.6740, 3749.000
251.8880, 3796.000
253.1010, 3999.000
254.3140, 4030.000
255.5270, 3950.000
256.7390, 3721.000
257.9520, 3489.000
259.1640, 3417.000
260.3760, 3465.000
261.5880, 3359.000
262.8000, 3406.000
264.0120, 3357.000
265.2240, 3427.000
266.4350, 3530.000
267.6470, 3724.000
268.8580, 3792.000
270.0690, 4021.000
271.2800, 4258.000
272.4910, 4786.000
273.7020, 5286.000
274.9120, 5665.000
276.1230, 5716.000
277.3330, 5558.000
278.5430, 5164.000
279.7530, 4665.000
280.9630, 4268.000
282.1720, 3768.000
283.3820, 3609.000
284.5910, 3455.000
285.8000, 3371.000
287.0090, 3376.000
288.2180, 3318.000
289.4270, 3386.000
290.6360, 3377.000
291.8440, 3365.000
293.0530, 3409.000
294.2610, 3349.000
295.4690, 3423.000
296.6770, 3360.000
297.8850, 3385.000
299.0920, 3312.000
300.3000, 3462.000
301.5070, 3396.000
302.7140, 3391.000
303.9210, 3384.000
305.1280, 3360.000
306.3350, 3376.000
307.5420, 3330.000
308.7480, 3370.000
309.9540, 3424.000
311.1600, 3445.000
312.3660, 3393.000
313.5720, 3369.000
314.7780, 3379.913
315.9840, 3413.000
317.1890, 3377.000
318.3940, 3485.000
319.6000, 3465.000
320.8050, 3476.000
322.0090, 3502.000
323.2140, 3491.310
324.4190, 3466.000
325.6230, 3480.000
326.8270, 3500.000
328.0320, 3461.111
329.2360, 3536.000
330.4390, 3492.000
331.6430, 3492.000
332.8470, 3597.000
334.0500, 3677.000
335.2530, 3560.000
336.4560, 3559.000
337.6590, 3626.000
338.8620, 3649.000
340.0650, 3776.000
341.2670, 3686.000
342.4700, 3632.000
343.6720, 3719.000
344.8740, 3897.000
346.0760, 3827.000
347.2780, 3876.000
348.4790, 3819.000
349.6810, 3746.000
350.8820, 3654.000
352.0830, 3695.000
353.2840, 3646.000
354.4850, 3618.000
355.6860, 3621.000
356.8870, 3714.000
358.0870, 3617.000
359.2870, 3757.000
360.4880, 3741.000
361.6880, 3662.000
362.8870, 3695.000
364.0870, 3702.000
365.2870, 3780.000
366.4860, 3816.000
367.6850, 3832.000
368.8850, 4120.000
370.0840, 4268.000
371.2820, 4594.000
372.4810, 4867.000
373.6800, 5219.000
374.8780, 5820.000
376.0760, 6703.000
377.2740, 7807.000
378.4720, 9008.000
379.6700, 11589.00
380.8680, 14555.00
382.0650, 16215.00
383.2630, 15072.00
384.4600, 12223.00
385.6570, 9260.000
386.8540, 6919.000
388.0510, 5722.000
389.2470, 4929.000
390.4440, 4468.000
391.6400, 4261.000
392.8360, 4137.000
394.0320, 3982.000
395.2280, 4011.000
396.4240, 3960.000
397.6190, 3897.000
398.8150, 3958.000
400.0100, 3979.000
401.2050, 3891.000
402.4000, 3943.000
403.5950, 3897.000
404.7900, 3906.000
405.9840, 3951.000
407.1790, 3975.000
408.3730, 3976.000
409.5670, 4065.000
410.7610, 4067.000
411.9550, 3985.000
413.1480, 4034.000
414.3420, 3945.000
415.5350, 4012.000
416.7280, 4031.000
417.9220, 4069.000
419.1140, 4074.000
420.3070, 4169.000
421.5000, 4145.000
422.6920, 4233.000
423.8850, 4370.000
425.0770, 4536.000
426.2690, 4578.923
427.4610, 4884.000
428.6520, 4679.000
429.8440, 4742.000
431.0350, 4758.000
432.2260, 4925.000
433.4180, 5134.000
434.6090, 5453.000
435.7990, 6100.000
436.9900, 6834.000
438.1800, 7854.000
439.3710, 9162.000
440.5610, 11631.00
441.7510, 14675.00
442.9410, 16289.00
444.1310, 15264.00
445.3200, 12563.00
446.5100, 9460.000
447.6990, 7328.000
448.8880, 6133.000
450.0770, 5303.000
451.2660, 4849.000
452.4550, 4594.000
453.6430, 4521.000
454.8320, 4506.000
456.0200, 4530.000
457.2080, 4571.000
458.3960, 4572.000
459.5840, 4699.000
460.7720, 4924.000
461.9590, 5193.000
463.1460, 5359.000
464.3340, 5231.000
465.5210, 5034.000
466.7080, 4828.000
467.8940, 4589.000
469.0810, 4440.000
470.2670, 4391.000
471.4540, 4347.000
472.6400, 4398.000
473.8260, 4324.000
475.0120, 4497.000
476.1970, 4448.000
477.3830, 4661.000
478.5680, 4754.000
479.7540, 5006.000
480.9390, 5272.000
482.1240, 5218.000
483.3080, 5099.000
484.4930, 4850.000
485.6780, 4714.000
486.8620, 4606.000
488.0460, 4348.000
489.2300, 4449.000
490.4140, 4431.000
491.5980, 4311.000
492.7810, 4289.000
493.9650, 4365.000
495.1480, 4291.119
496.3310, 4301.892
497.5140, 4272.000
498.6970, 4322.000
499.8800, 4326.000
501.0620, 4468.000
502.2440, 4357.000
503.4270, 4481.000
504.6090, 4451.000
505.7910, 4302.000
506.9720, 4573.000
508.1540, 4528.000
509.3350, 4493.000
510.5170, 4568.000
511.6980, 4679.947
512.8790, 4857.870
514.0600, 5125.000
515.2400, 5420.000
516.4210, 5858.000
517.6010, 6326.000
518.7810, 7093.000
519.9620, 7999.000
521.1410, 9287.000
522.3210, 11443.00
523.5010, 12462.00
524.6800, 11922.00
525.8600, 10134.00
527.0390, 8238.000
528.2180, 6901.000
529.3970, 5920.000
530.5750, 5412.000
531.7540, 5104.000
532.9320, 4848.000
534.1110, 4767.000
535.2890, 4684.000
536.4670, 4573.000
537.6440, 4582.691
538.8220, 4728.000
540.0000, 4555.000
541.1770, 4597.000
542.3540, 4482.000
543.5310, 4657.000
544.7080, 4613.000
545.8850, 4658.000
547.0610, 4572.000
548.2380, 4488.000
549.4140, 4626.000
550.5900, 4566.000
551.7660, 4659.000
552.9420, 4573.000
554.1170, 4630.000
555.2930, 4532.000
556.4680, 4542.000
557.6430, 4615.000
558.8180, 4676.000
559.9930, 4682.000
561.1680, 4564.000
562.3430, 4670.000
563.5170, 4687.000
564.6910, 4671.000
565.8650, 4726.000
567.0390, 4599.000
568.2130, 4683.000
569.3870, 4647.000
570.5600, 4738.000
571.7340, 4727.000
572.9070, 4737.000
574.0800, 4863.000
575.2530, 4791.000
576.4250, 4946.000
577.5980, 4769.000
578.7700, 4736.000
579.9430, 4785.000
581.1150, 4712.000
582.2870, 4597.000
583.4590, 4599.000
584.6300, 4632.000
585.8020, 4738.000
586.9730, 4649.000
588.1440, 4736.000
589.3150, 4760.000
590.4860, 4763.000
591.6570, 4894.000
592.8270, 4955.000
593.9980, 5213.000
595.1680, 5476.000
596.3380, 5655.000
597.5080, 5746.852
598.6780, 5704.244
599.8480, 5698.000
601.0170, 5474.000
602.1860, 5148.000
603.3550, 5084.000
604.5240, 5002.000
605.6930, 5043.000
606.8620, 5140.000
608.0310, 5196.000
609.1990, 5298.000
610.3670, 5681.000
611.5350, 5889.000
612.7030, 6370.000
613.8710, 6671.000
615.0390, 6706.000
616.2060, 6520.000
617.3730, 6060.000
618.5410, 5518.000
619.7080, 5333.000
620.8740, 5130.000
622.0410, 4983.000
623.2080, 4853.000
624.3740, 4872.000
625.5400, 4840.000
626.7060, 4920.000
627.8720, 4779.000
629.0380, 4834.000
630.2040, 4825.000
631.3690, 4669.000
632.5340, 4936.000
633.6990, 4864.000
634.8640, 4838.000
636.0290, 4918.000
637.1940, 4850.000
638.3580, 4910.000
639.5230, 4947.000
640.6870, 4966.000
641.8510, 4973.487
643.0150, 4918.000
644.1790, 4949.000
645.3420, 4955.000
646.5060, 4937.000
647.6690, 5001.000
648.8320, 5014.000
649.9950, 5038.845
651.1580, 5007.000
652.3200, 5151.000
653.4830, 5146.000
654.6450, 5318.000
655.8070, 5406.000
656.9690, 5394.000
658.1310, 5560.000
659.2930, 5819.000
660.4540, 5874.000
661.6160, 6087.000
662.7770, 6245.000
663.9380, 6253.000
665.0990, 6421.000
666.2600, 6666.000
667.4200, 6630.000
668.5810, 6587.000
669.7410, 6441.000
670.9010, 5991.000
672.0610, 5814.000
673.2210, 5781.000
674.3810, 5574.000
675.5400, 5675.000
676.6990, 5754.000
677.8590, 5790.000
679.0180, 6051.000
680.1760, 6225.000
681.3350, 6864.000
682.4940, 7151.000
683.6520, 7699.000
684.8100, 7920.000
685.9680, 7797.000
687.1260, 7298.000
688.2840, 6759.000
689.4420, 6294.000
690.5990, 5896.000
691.7560, 5671.655
692.9140, 5454.000
694.0710, 5452.000
695.2270, 5351.000
696.3840, 5393.000
697.5410, 5470.000
698.6970, 5400.000
699.8530, 5542.000
701.0090, 5656.000
702.1650, 5746.000
703.3210, 5615.000
704.4760, 5564.000
705.6320, 5541.000
706.7870, 5470.000
707.9420, 5282.000
709.0970, 5355.000
710.2520, 5125.000
711.4060, 5255.000
712.5610, 5214.000
713.7150, 5207.000
714.8690, 5151.000
716.0230, 5137.000
717.1770, 5202.000
718.3310, 5162.000
719.4840, 5195.000
720.6380, 5194.000
721.7910, 5175.000
722.9440, 5223.000
724.0970, 5220.000
725.2490, 5319.000
726.4020, 5326.127
727.5540, 5328.237
728.7070, 5357.000
729.8590, 5307.000
731.0110, 5257.000
732.1620, 5241.000
733.3140, 5213.000
734.4650, 5255.000
735.6170, 5257.000
736.7680, 5296.000
737.9190, 5286.351
739.0700, 5324.000
740.2200, 5273.000
741.3710, 5288.000
742.5210, 5301.000
743.6710, 5336.000
744.8210, 5337.000
745.9710, 5367.000
747.1210, 5342.258
748.2700, 5338.000
749.4200, 5268.000
750.5690, 5342.000
751.7180, 5277.000
752.8670, 5432.000
754.0160, 5473.000
755.1640, 5463.000
756.3130, 5676.000
757.4610, 5564.000
758.6090, 5757.000
759.7570, 5889.000
760.9050, 6066.000
762.0530, 6363.000
763.2000, 6613.000
764.3470, 6831.000
765.4940, 6762.000
766.6410, 6596.000
767.7880, 6556.000
768.9350, 6508.000
770.0810, 6527.000
771.2280, 6637.000
772.3740, 7070.000
773.5200, 7422.000
774.6660, 7979.000
775.8120, 8399.000
776.9570, 8513.000
778.1030, 8293.000
779.2480, 7861.000
780.3930, 7821.000
781.5380, 7901.000
782.6830, 8157.000
783.8270, 8805.000
784.9720, 9235.000
786.1160, 9311.000
787.2600, 9102.000
788.4040, 8370.000
789.5480, 7689.000
790.6910, 7039.000
791.8350, 6749.000
792.9780, 6463.000
794.1210, 6405.000
795.2640, 6380.000
796.4070, 6410.000
797.5500, 6611.000
798.6920, 6717.000
799.8350, 7078.000
800.9770, 7309.000
802.1190, 7753.000
803.2610, 8269.000
804.4030, 8441.000
805.5440, 8563.000
806.6850, 8123.000
807.8270, 7567.000
808.9680, 7016.000
810.1090, 6626.000
811.2490, 6395.000
812.3900, 6229.000
813.5300, 6133.000
814.6710, 6014.000
815.8110, 5991.000
816.9510, 5949.000
818.0910, 5856.000
819.2300, 5955.000
820.3700, 5961.000
821.5090, 5820.000
822.6480, 5819.000
823.7870, 5965.000
824.9260, 5991.000
826.0640, 5978.000
827.2030, 5960.000
828.3410, 5955.000
829.4790, 5962.000
830.6170, 5936.701
831.7550, 5936.000
832.8930, 5916.000
834.0310, 5967.000
835.1680, 6000.000
836.3050, 6048.000
837.4420, 6053.000
838.5790, 6109.000
839.7160, 6191.000
840.8520, 6329.000
841.9890, 6169.000
843.1250, 6192.000
844.2610, 6336.000
845.3970, 6331.000
846.5330, 6435.000
847.6680, 6555.000
848.8040, 6587.000
849.9390, 6711.052
851.0740, 6738.000
852.2090, 6897.000
853.3440, 6908.000
854.4780, 6975.000
855.6130, 7292.000
856.7470, 7431.000
857.8810, 7689.000
859.0150, 8104.000
860.1490, 8359.000
861.2830, 8751.000
862.4160, 9360.000
863.5490, 10166.00
864.6830, 11323.00
865.8160, 12918.00
866.9480, 15220.00
868.0810, 18762.00
869.2140, 23640.00
870.3460, 30565.00
871.4780, 39597.00
872.6100, 53066.00
873.7420, 71414.00
874.8740, 97601.00
876.0050, 131973.0
877.1370, 168469.0
878.2680, 184398.0
879.3990, 167823.0
880.5300, 129340.0
881.6600, 90416.00
882.7910, 62026.00
883.9210, 43377.00
885.0520, 31701.00
886.1820, 24351.00
887.3120, 19648.00
888.4410, 16687.00
889.5710, 14662.00
890.7000, 13362.00
891.8300, 12303.00
892.9590, 11551.00
894.0880, 10946.13
895.2160, 10474.06
896.3450, 10327.00
897.4730, 9886.000
898.6020, 9757.000
899.7300, 9415.000
900.8580, 9272.000
901.9860, 9209.000
903.1130, 9117.000
904.2410, 9062.000
905.3680, 9051.000
906.4950, 9226.000
907.6220, 9570.000
908.7490, 9814.000
909.8760, 10244.00
911.0020, 10933.00
912.1280, 11907.00
913.2550, 13094.00
914.3810, 14609.00
915.5060, 16047.00
916.6320, 17110.00
917.7580, 17375.00
918.8830, 17247.00
920.0080, 18101.00
921.1330, 19352.00
922.2580, 21554.00
923.3830, 22884.00
924.5070, 21845.00
925.6310, 19440.00
926.7560, 15976.00
927.8800, 14966.00
929.0040, 11724.00
930.1270, 10645.00
931.2510, 10363.00
932.3740, 10388.00
933.4970, 10471.00
934.6200, 11209.00
935.7430, 11938.00
936.8660, 12665.00
937.9890, 13168.00
939.1110, 13029.00
940.2330, 12830.00
941.3550, 12677.00
942.4770, 13057.00
943.5990, 14013.00
944.7200, 15951.00
945.8420, 18805.00
946.9630, 22741.00
948.0840, 27598.00
949.2050, 32132.00
950.3260, 33967.00
951.4460, 31900.00
952.5670, 26540.00
953.6870, 20754.00
954.8070, 16529.00
955.9270, 13662.00
957.0470, 11797.00
958.1660, 10311.00
959.2860, 9532.000
960.4050, 8934.000
961.5240, 8510.000
962.6430, 8188.000
963.7620, 8027.000
964.8810, 7743.000
965.9990, 7614.000
967.1170, 7471.000
968.2350, 7345.000
969.3530, 7373.000
970.4710, 7340.000
971.5890, 7188.000
972.7060, 7192.000
973.8240, 7105.000
974.9410, 7055.000
976.0580, 7083.000
977.1740, 7027.708
978.2910, 7025.000
979.4080, 6981.000
980.5240, 6897.000
981.6400, 6831.000
982.7560, 6904.000
983.8720, 6923.000
984.9870, 6964.000
986.1030, 7031.000
987.2180, 7230.000
988.3330, 7213.000
989.4480, 7286.000
990.5630, 7531.000
991.6780, 7560.000
992.7920, 7828.000
993.9070, 8047.000
995.0210, 7842.000
996.1350, 7871.000
997.2490, 7933.000
998.3620, 7873.000
999.4760, 7862.000
1000.589, 7893.000
1001.702, 7839.000
1002.815, 7965.000
1003.928, 7986.000
1005.041, 8216.000
1006.153, 8600.000
1007.266, 9029.000
1008.378, 9572.000
1009.490, 10037.00
1010.602, 10582.00
1011.713, 11094.00
1012.825, 11558.00
1013.936, 12149.00
1015.047, 12852.00
1016.158, 13655.00
1017.269, 14809.00
1018.380, 15541.00
1019.490, 16048.00
1020.601, 15936.00
1021.711, 14938.00
1022.821, 13655.00
1023.931, 12271.00
1025.040, 10953.00
1026.150, 10017.00
1027.259, 9279.000
1028.368, 8785.000
1029.477, 8456.000
1030.586, 8010.000
1031.695, 7808.000
1032.803, 7527.000
1033.912, 7476.000
1035.020, 7289.000
1036.128, 7286.000
1037.236, 7008.000
1038.343, 7143.000
1039.451, 7005.000
1040.558, 6887.000
1041.665, 7019.000
1042.772, 6926.000
1043.879, 7014.000
1044.986, 7041.000
1046.093, 6868.000
1047.199, 6989.000
1048.305, 6903.000
1049.411, 6895.000
1050.517, 6784.000
1051.623, 6871.000
1052.728, 6773.000
1053.833, 6859.000
1054.939, 6882.000
1056.044, 6902.000
1057.148, 6873.000
1058.253, 6885.419
1059.358, 6903.000
1060.462, 6841.000
1061.566, 6839.000
1062.670, 6755.000
1063.774, 6727.000
1064.878, 6774.000
1065.981, 6858.000
1067.085, 6795.000
1068.188, 6826.195
1069.291, 6853.586
1070.394, 6828.000
1071.496, 6835.000
1072.599, 6917.000
1073.701, 6767.000
1074.803, 6891.000
1075.905, 6909.000
1077.007, 6797.000
1078.109, 6796.000
1079.210, 6843.000
1080.312, 6793.000
1081.413, 6717.000
1082.514, 6758.000
1083.615, 6886.000
1084.715, 6915.000
1085.816, 6771.000
1086.916, 6889.000
1088.016, 6842.000
1089.116, 6866.000
1090.216, 6882.000
1091.316, 6876.599
1092.415, 6820.000
1093.515, 6874.000
1094.614, 6844.000
1095.713, 6784.000
1096.812, 6863.000
1097.910, 6889.000
1099.009, 6860.000
1100.107, 6925.000
1101.205, 6844.000
1102.303, 6771.000
1103.401, 6880.000
1104.499, 6984.000
1105.596, 6922.000
1106.693, 6931.000
1107.791, 6853.000
1108.888, 6904.000
1109.984, 6915.000
1111.081, 6987.000
1112.177, 6839.000
1113.274, 7055.000
1114.370, 6898.000
1115.466, 6910.000
1116.562, 6984.000
1117.657, 7011.000
1118.753, 7035.000
1119.848, 7074.000
1120.943, 6932.000
1122.038, 6963.000
1123.133, 6927.000
1124.228, 7035.000
1125.322, 6951.000
1126.416, 6987.000
1127.510, 7030.000
1128.604, 7052.000
1129.698, 7012.000
1130.792, 6896.000
1131.885, 6976.000
1132.978, 6960.000
1134.071, 6920.000
1135.164, 7023.000
1136.257, 7028.000
1137.350, 7011.000
1138.442, 6988.000
1139.534, 7002.000
1140.627, 7047.000
1141.718, 7069.000
1142.810, 7003.000
1143.902, 6859.000
1144.993, 6949.000
1146.084, 6809.000
1147.176, 6903.000
1148.266, 7000.000
1149.357, 6901.000
1150.448, 6840.000
1151.538, 7074.000
1152.628, 6943.000
1153.718, 7064.000
1154.808, 6938.000
1155.898, 6953.000
1156.988, 7000.000
1158.077, 6915.000
1159.166, 6890.000
1160.255, 7024.000
1161.344, 7070.000
1162.433, 7015.000
1163.521, 7053.000
1164.610, 7119.000
1165.698, 7016.000
1166.786, 7006.000
1167.874, 7057.000
1168.961, 7007.000
1170.049, 7029.000
1171.136, 6994.000
1172.224, 7054.000
1173.311, 6989.000
1174.397, 7071.000
1175.484, 7049.000
1176.571, 7127.000
1177.657, 7168.000
1178.743, 7079.000
1179.829, 7065.000
1180.915, 7155.000
1182.001, 7150.000
1183.086, 7128.000
1184.171, 7119.000
1185.256, 7150.000
1186.341, 7124.000
1187.426, 7085.000
1188.511, 7247.000
1189.595, 7123.000
1190.680, 7147.000
1191.764, 7218.000
1192.848, 7056.000
1193.932, 7148.000
1195.015, 7253.000
1196.099, 7254.000
1197.182, 7301.674
1198.265, 7262.000
1199.348, 7281.000
1200.431, 7269.000
1201.513, 7248.962
1202.596, 7231.000
1203.678, 7220.000
1204.760, 7217.000
1205.842, 7214.000
1206.924, 7383.000
1208.005, 7294.146
1209.087, 7347.000
1210.168, 7285.000
1211.249, 7257.000
1212.330, 7388.000
1213.411, 7321.000
1214.491, 7363.000
1215.572, 7416.000
1216.652, 7326.000
1217.732, 7355.000
1218.812, 7316.798
1219.891, 7305.537
1220.971, 7244.000
1222.050, 7318.000
1223.129, 7286.000
1224.208, 7323.000
1225.287, 7416.000
1226.366, 7353.000
1227.444, 7343.000
1228.523, 7305.000
1229.601, 7242.000
1230.679, 7280.991
1231.757, 7397.000
1232.834, 7354.000
1233.912, 7447.000
1234.989, 7516.000
1236.066, 7483.000
1237.143, 7369.000
1238.220, 7612.000
1239.297, 7362.000
1240.373, 7344.000
1241.449, 7364.000
1242.526, 7434.000
1243.601, 7350.000
1244.677, 7313.000
1245.753, 7452.000
1246.828, 7338.000
1247.904, 7453.000
1248.979, 7425.000
1250.054, 7422.000
1251.128, 7446.000
1252.203, 7354.000
1253.277, 7396.000
1254.351, 7424.000
1255.426, 7397.000
1256.499, 7481.000
1257.573, 7425.000
1258.647, 7368.000
1259.720, 7355.000
1260.793, 7368.000
1261.866, 7517.000
1262.939, 7520.000
1264.012, 7454.000
1265.084, 7416.000
1266.157, 7381.000
1267.229, 7401.000
1268.301, 7289.000
1269.373, 7359.000
1270.444, 7535.000
1271.516, 7479.000
1272.587, 7503.000
1273.658, 7501.000
1274.729, 7479.000
1275.800, 7418.000
1276.871, 7450.000
1277.941, 7433.000
1279.011, 7405.000
1280.082, 7464.000
1281.151, 7501.000
1282.221, 7481.000
1283.291, 7572.000
1284.360, 7481.000
1285.430, 7394.000
1286.499, 7477.000
1287.568, 7608.000
1288.636, 7467.000
1289.705, 7405.000
1290.773, 7502.000
1291.841, 7430.000
1292.909, 7497.000
1293.977, 7399.000
1295.045, 7441.000
1296.113, 7390.000
1297.180, 7454.000
1298.247, 7502.000
1299.314, 7449.000
1300.381, 7444.000
1301.448, 7443.000
1302.514, 7548.000
1303.580, 7553.000
1304.647, 7478.000
1305.713, 7562.000
1306.778, 7467.000
1307.844, 7458.000
1308.910, 7470.000
1309.975, 7339.000
1311.040, 7485.000
1312.105, 7571.000
1313.170, 7424.000
1314.234, 7530.000
1315.299, 7544.000
1316.363, 7540.000
1317.427, 7547.000
1318.491, 7490.000
1319.555, 7528.217
1320.618, 7463.000
1321.682, 7591.000
1322.745, 7673.000
1323.808, 7749.000
1324.871, 7724.000
1325.933, 7652.000
1326.996, 7704.000
1328.058, 7711.000
1329.121, 7770.000
1330.183, 7752.000
1331.244, 7766.000
1332.306, 7710.000
1333.368, 7725.000
1334.429, 7716.000
1335.490, 7714.000
1336.551, 7765.000
1337.612, 7814.000
1338.672, 7812.000
1339.733, 7817.117
1340.793, 7700.000
1341.853, 7785.000
1342.913, 7733.000
1343.973, 7731.000
1345.033, 7741.000
1346.092, 7756.000
1347.151, 7751.000
1348.210, 7696.000
1349.269, 7732.708
1350.328, 7817.000
1351.386, 7764.000
1352.445, 7821.000
1353.503, 7835.000
1354.561, 7783.000
1355.619, 7729.000
1356.677, 7872.000
1357.734, 7767.000
1358.791, 7813.000
1359.849, 7878.000
1360.906, 7796.000
1361.962, 7759.000
1363.019, 7838.000
1364.075, 7798.000
1365.132, 7901.000
1366.188, 7875.000
1367.244, 7835.000
1368.300, 7793.000
1369.355, 7935.000
1370.411, 7815.000
1371.466, 7820.000
1372.521, 7913.000
1373.576, 7851.000
1374.631, 7824.000
1375.685, 7842.000
1376.740, 7854.000
1377.794, 7763.000
1378.848, 7924.000
1379.902, 7841.000
1380.955, 7923.000
1382.009, 7858.000
1383.062, 7895.000
1384.115, 7972.000
1385.168, 7922.000
1386.221, 7914.000
1387.274, 7889.000
1388.326, 7866.943
1389.379, 7860.882
1390.431, 7850.000
1391.483, 7854.000
1392.534, 7880.000
1393.586, 7900.000
1394.637, 8047.000
1395.689, 7922.000
1396.740, 7929.000
1397.791, 7819.000
1398.841, 7892.000
1399.892, 7854.000
1400.942, 7936.000
1401.993, 7920.281
1403.043, 7968.000
1404.092, 7924.000
1405.142, 7962.000
1406.192, 7999.000
1407.241, 7969.000
1408.290, 7989.935
1409.339, 7889.000
1410.388, 7949.000
1411.437, 7984.000
1412.485, 7906.000
1413.533, 7975.000
1414.581, 7974.000
1415.629, 7824.000
1416.677, 7952.000
1417.725, 7895.000
1418.772, 8100.000
1419.819, 7986.000
1420.867, 7995.000
1421.913, 7983.000
1422.960, 7880.000
1424.007, 8058.000
1425.053, 8060.000
1426.099, 8034.000
1427.145, 8010.000
1428.191, 7964.000
1429.237, 8091.000
1430.282, 7927.000
1431.328, 8030.000
1432.373, 8063.000
1433.418, 8022.000
1434.462, 7985.000
1435.507, 8007.000
1436.552, 7997.000
1437.596, 8045.000
1438.640, 8097.000
1439.684, 7970.000
1440.728, 8077.000
1441.771, 7997.000
1442.815, 8124.000
1443.858, 8073.000
1444.901, 8014.000
1445.944, 8146.000
1446.986, 8079.000
1448.029, 8090.000
1449.071, 8093.000
1450.113, 8103.000
1451.155, 8108.000
1452.197, 8247.000
1453.239, 8135.000
1454.280, 8030.000
1455.322, 8205.000
1456.363, 8085.000
1457.404, 8070.000
1458.444, 8035.000
1459.485, 8136.000
1460.525, 8077.000
1461.566, 8053.000
1462.606, 8194.000
1463.646, 8169.000
1464.685, 8220.000
1465.725, 8097.000
1466.764, 8169.000
1467.803, 8117.000
1468.842, 8179.000
1469.881, 8184.000
1470.920, 8209.000
1471.958, 8122.000
1472.997, 8127.000
1474.035, 8079.174
1475.073, 8065.157
1476.111, 8022.000
1477.148, 8063.000
1478.186, 8117.000
1479.223, 8139.000
1480.260, 8125.000
1481.297, 8090.000
1482.334, 8098.000
1483.370, 8163.000
1484.407, 8212.000
1485.443, 8242.683
1486.479, 8269.311
1487.515, 8284.000
1488.550, 8308.000
1489.586, 8247.000
1490.621, 8293.000
1491.656, 8234.000
1492.691, 8243.000
1493.726, 8231.448
1494.761, 8229.467
1495.795, 8214.000
1496.829, 8225.000
1497.863, 8247.000
1498.897, 8186.000
1499.931, 8178.000
1500.965, 8334.000
1501.998, 8261.000
1503.031, 8256.000
1504.064, 8141.000
1505.097, 8183.000
1506.130, 8160.000
1507.162, 8235.000
1508.195, 8295.000
1509.227, 8288.000
1510.259, 8288.000
1511.291, 8266.000
1512.322, 8247.000
1513.354, 8335.000
1514.385, 8330.000
1515.416, 8358.983
1516.447, 8282.000
1517.478, 8379.000
1518.508, 8362.000
1519.539, 8314.000
1520.569, 8207.000
1521.599, 8274.000
1522.629, 8288.000
1523.658, 8290.000
1524.688, 8424.000
1525.717, 8324.000
1526.746, 8360.000
1527.775, 8384.000
1528.804, 8280.000
1529.833, 8305.000
1530.861, 8391.000
1531.890, 8328.000
1532.918, 8469.000
1533.946, 8324.000
1534.973, 8363.000
1536.001, 8450.000
1537.028, 8343.000
1538.055, 8285.000
1539.082, 8368.000
1540.109, 8353.000
1541.136, 8373.000
1542.163, 8361.000
1543.189, 8310.000
1544.215, 8483.000
1545.241, 8375.000
1546.267, 8442.000
1547.292, 8537.000
1548.318, 8485.000
1549.343, 8552.000
1550.368, 8437.000
1551.393, 8457.000
1552.418, 8488.000
1553.442, 8644.000
1554.467, 8488.000
1555.491, 8497.000
1556.515, 8306.000
1557.539, 8421.000
1558.562, 8492.000
1559.586, 8617.000
1560.609, 8389.000
1561.632, 8394.000
1562.655, 8403.000
1563.678, 8484.000
1564.701, 8385.000
1565.723, 8475.000
1566.745, 8473.000
1567.768, 8537.000
1568.789, 8521.000
1569.811, 8456.000
1570.833, 8503.000
1571.854, 8399.000
1572.875, 8457.000
1573.896, 8519.000
1574.917, 8567.000
1575.938, 8495.000
1576.958, 8562.000
##END=



