##NAMES=Phenakite
##RRUFFID=R050137
##IDEAL CHEMISTRY=Be_2_SiO_4_
##LOCALITY=Mount Antero area, Chaffee County, Colorado, USA
##OWNER=RRUFF
##SOURCE=Dave Bunk Minerals
##DESCRIPTION=Colorless tabular hexagonal crystal
##STATUS=The identification of this mineral has been confirmed by X-ray diffraction and chemical analysis
##URL=rruff.info/R050137
##MEASURED CHEMISTRY=Be_2.00_Si_1.00_O_4_
##PIN_ID=L01371
##ORIENTATION=Laser parallel to a* (1 0 0). Fiducial mark perpendicular to laser is parallel to -c [0 0 -1]
60.91000, 5458.000
62.14500, 5836.000
63.38000, 5914.000
64.61500, 5985.000
65.85000, 5788.000
67.08400, 5856.000
68.31800, 6176.000
69.55300, 6191.000
70.78700, 6451.000
72.02000, 6410.000
73.25400, 6473.000
74.48800, 6622.083
75.72100, 6991.000
76.95500, 6752.000
78.18800, 6644.000
79.42100, 6492.000
80.65400, 6941.000
81.88700, 6982.000
83.11900, 6908.000
84.35200, 6553.000
85.58400, 6190.000
86.81600, 6030.000
88.04900, 6019.000
89.28100, 6073.000
90.51200, 5934.000
91.74400, 6061.000
92.97600, 5836.000
94.20700, 5901.000
95.43800, 5963.000
96.66900, 5813.000
97.90100, 5791.000
99.13100, 5899.000
100.3620, 6059.000
101.5930, 6027.000
102.8230, 6008.000
104.0530, 5910.000
105.2840, 6270.000
106.5140, 6074.000
107.7440, 6118.000
108.9730, 5864.000
110.2030, 5924.000
111.4320, 5915.000
112.6620, 5962.000
113.8910, 6180.000
115.1200, 6255.000
116.3490, 6287.000
117.5780, 6224.000
118.8060, 6481.000
120.0350, 7428.000
121.2630, 7498.000
122.4920, 7092.000
123.7200, 6301.000
124.9480, 5928.000
126.1750, 5657.000
127.4030, 5586.000
128.6310, 5654.000
129.8580, 5584.000
131.0850, 5489.000
132.3120, 5456.000
133.5390, 5580.000
134.7660, 5491.000
135.9930, 5616.000
137.2200, 5660.000
138.4460, 5606.000
139.6720, 5463.000
140.8980, 5540.000
142.1240, 5550.000
143.3500, 5520.000
144.5760, 5597.000
145.8020, 5878.000
147.0270, 5871.000
148.2520, 5970.000
149.4780, 6188.000
150.7030, 6253.000
151.9270, 6555.000
153.1520, 6953.000
154.3770, 7624.000
155.6010, 8019.000
156.8260, 8562.000
158.0500, 10180.00
159.2740, 11406.00
160.4980, 11919.00
161.7210, 11734.00
162.9450, 10196.00
164.1690, 8737.000
165.3920, 7255.000
166.6150, 6547.000
167.8380, 6111.000
169.0610, 5802.000
170.2840, 5460.000
171.5070, 5467.000
172.7290, 5420.000
173.9510, 5339.000
175.1740, 5393.000
176.3960, 5432.000
177.6180, 5361.000
178.8390, 5359.000
180.0610, 5349.000
181.2830, 5345.000
182.5040, 5335.000
183.7250, 5370.000
184.9460, 5407.000
186.1670, 5388.000
187.3880, 5318.000
188.6090, 5389.000
189.8290, 5348.000
191.0500, 5444.000
192.2700, 5525.000
193.4900, 5520.000
194.7100, 5451.000
195.9300, 5434.000
197.1490, 5501.000
198.3690, 5361.000
199.5880, 5508.000
200.8080, 5552.000
202.0270, 5590.000
203.2460, 5567.000
204.4650, 5658.000
205.6830, 5889.000
206.9020, 6158.000
208.1200, 6587.000
209.3380, 7132.000
210.5570, 7704.000
211.7750, 8594.000
212.9920, 9743.000
214.2100, 11602.00
215.4280, 13343.00
216.6450, 14824.00
217.8620, 18612.00
219.0790, 24156.00
220.2960, 27082.00
221.5130, 27110.00
222.7300, 23239.00
223.9460, 17968.00
225.1630, 12610.00
226.3790, 9728.000
227.5950, 8124.000
228.8110, 7211.000
230.0270, 6594.000
231.2430, 6162.000
232.4580, 5889.000
233.6740, 5744.000
234.8890, 5538.000
236.1040, 5627.000
237.3190, 5473.000
238.5340, 5435.000
239.7490, 5517.000
240.9630, 5440.000
242.1780, 5486.000
243.3920, 5511.229
244.6060, 5646.000
245.8200, 5615.000
247.0340, 5697.000
248.2470, 5844.000
249.4610, 6040.000
250.6740, 6079.000
251.8880, 6155.000
253.1010, 6363.000
254.3140, 6384.000
255.5270, 6261.000
256.7390, 6024.000
257.9520, 5982.000
259.1640, 5703.000
260.3760, 5651.000
261.5880, 5650.000
262.8000, 5646.000
264.0120, 5641.000
265.2240, 5846.000
266.4350, 6067.000
267.6470, 6197.000
268.8580, 6359.000
270.0690, 6770.000
271.2800, 7084.000
272.4910, 7552.000
273.7020, 7983.000
274.9120, 8523.000
276.1230, 8630.000
277.3330, 8495.000
278.5430, 8029.000
279.7530, 7506.000
280.9630, 6983.000
282.1720, 6327.000
283.3820, 5933.000
284.5910, 5660.000
285.8000, 5531.000
287.0090, 5563.000
288.2180, 5498.000
289.4270, 5561.000
290.6360, 5496.000
291.8440, 5466.000
293.0530, 5477.000
294.2610, 5446.000
295.4690, 5546.000
296.6770, 5608.000
297.8850, 5584.000
299.0920, 5504.000
300.3000, 5586.000
301.5070, 5539.000
302.7140, 5564.000
303.9210, 5507.000
305.1280, 5501.000
306.3350, 5540.000
307.5420, 5476.000
308.7480, 5521.968
309.9540, 5570.000
311.1600, 5566.000
312.3660, 5594.000
313.5720, 5609.000
314.7780, 5610.905
315.9840, 5621.000
317.1890, 5625.000
318.3940, 5628.000
319.6000, 5646.000
320.8050, 5570.000
322.0090, 5601.000
323.2140, 5630.000
324.4190, 5702.000
325.6230, 5671.000
326.8270, 5653.000
328.0320, 5636.000
329.2360, 5621.000
330.4390, 5633.000
331.6430, 5705.000
332.8470, 5794.000
334.0500, 5734.000
335.2530, 5727.000
336.4560, 5808.000
337.6590, 5822.615
338.8620, 5878.000
340.0650, 5985.000
341.2670, 6047.000
342.4700, 6186.000
343.6720, 6211.000
344.8740, 6480.000
346.0760, 6524.000
347.2780, 6551.000
348.4790, 6401.000
349.6810, 6208.000
350.8820, 5966.000
352.0830, 5896.000
353.2840, 5796.000
354.4850, 5765.000
355.6860, 5855.000
356.8870, 5998.000
358.0870, 5885.000
359.2870, 5802.000
360.4880, 5899.000
361.6880, 5872.000
362.8870, 5873.000
364.0870, 5879.000
365.2870, 5960.000
366.4860, 6041.567
367.6850, 6060.000
368.8850, 6356.000
370.0840, 6545.000
371.2820, 6865.000
372.4810, 7230.000
373.6800, 7785.000
374.8780, 8460.000
376.0760, 9549.000
377.2740, 10866.00
378.4720, 12195.00
379.6700, 14492.00
380.8680, 17315.00
382.0650, 18565.00
383.2630, 17947.00
384.4600, 15417.00
385.6570, 12275.00
386.8540, 9536.000
388.0510, 8131.000
389.2470, 7202.000
390.4440, 6735.000
391.6400, 6389.000
392.8360, 6227.000
394.0320, 6215.000
395.2280, 6239.000
396.4240, 6134.000
397.6190, 6032.000
398.8150, 6195.000
400.0100, 6002.000
401.2050, 6092.000
402.4000, 6231.000
403.5950, 6050.000
404.7900, 6197.000
405.9840, 6132.000
407.1790, 6176.000
408.3730, 6211.000
409.5670, 6219.000
410.7610, 6218.000
411.9550, 6220.000
413.1480, 6212.015
414.3420, 6265.000
415.5350, 6191.000
416.7280, 6221.000
417.9220, 6215.000
419.1140, 6341.000
420.3070, 6377.000
421.5000, 6565.000
422.6920, 6545.000
423.8850, 6741.000
425.0770, 6800.000
426.2690, 6999.000
427.4610, 7138.000
428.6520, 7091.000
429.8440, 7050.000
431.0350, 7230.000
432.2260, 7238.000
433.4180, 7634.000
434.6090, 7972.000
435.7990, 8602.000
436.9900, 9520.000
438.1800, 10657.00
439.3710, 11833.00
440.5610, 13787.00
441.7510, 16263.00
442.9410, 17456.00
444.1310, 16578.00
445.3200, 14417.00
446.5100, 11839.00
447.6990, 9728.000
448.8880, 8340.000
450.0770, 7572.000
451.2660, 7129.000
452.4550, 6892.000
453.6430, 6834.000
454.8320, 6784.000
456.0200, 6852.000
457.2080, 6849.000
458.3960, 6964.000
459.5840, 7163.000
460.7720, 7433.000
461.9590, 7677.000
463.1460, 7854.000
464.3340, 7776.000
465.5210, 7548.000
466.7080, 7093.000
467.8940, 6865.000
469.0810, 6825.000
470.2670, 6651.000
471.4540, 6711.000
472.6400, 6826.000
473.8260, 6737.000
475.0120, 6787.000
476.1970, 6988.000
477.3830, 6987.000
478.5680, 7183.000
479.7540, 7441.000
480.9390, 7685.000
482.1240, 7714.000
483.3080, 7545.000
484.4930, 7446.000
485.6780, 7102.000
486.8620, 6943.000
488.0460, 6739.000
489.2300, 6621.000
490.4140, 6762.000
491.5980, 6634.000
492.7810, 6735.000
493.9650, 6646.000
495.1480, 6751.000
496.3310, 6532.000
497.5140, 6549.000
498.6970, 6707.000
499.8800, 6640.000
501.0620, 6768.000
502.2440, 6728.470
503.4270, 6834.000
504.6090, 6746.000
505.7910, 6614.000
506.9720, 6819.000
508.1540, 6949.000
509.3350, 6803.000
510.5170, 6983.000
511.6980, 7182.000
512.8790, 7554.000
514.0600, 7720.000
515.2400, 8243.000
516.4210, 8550.000
517.6010, 9570.000
518.7810, 10398.00
519.9620, 11537.00
521.1410, 13337.00
522.3210, 15277.00
523.5010, 16311.00
524.6800, 15857.00
525.8600, 14046.00
527.0390, 11737.00
528.2180, 9904.000
529.3970, 8705.000
530.5750, 8040.000
531.7540, 7633.000
532.9320, 7253.000
534.1110, 7262.000
535.2890, 7038.000
536.4670, 7021.000
537.6440, 6980.000
538.8220, 7088.000
540.0000, 7000.000
541.1770, 6996.000
542.3540, 6975.000
543.5310, 7016.000
544.7080, 6953.000
545.8850, 6967.000
547.0610, 7069.000
548.2380, 6931.000
549.4140, 6921.000
550.5900, 6842.000
551.7660, 6908.000
552.9420, 6953.000
554.1170, 6964.000
555.2930, 6949.000
556.4680, 6927.000
557.6430, 6931.000
558.8180, 7009.000
559.9930, 6972.000
561.1680, 6986.000
562.3430, 7087.000
563.5170, 7044.000
564.6910, 7046.000
565.8650, 7126.000
567.0390, 7030.000
568.2130, 7060.000
569.3870, 7081.000
570.5600, 7103.000
571.7340, 7289.000
572.9070, 7158.000
574.0800, 7307.000
575.2530, 7420.000
576.4250, 7434.000
577.5980, 7252.000
578.7700, 7206.000
579.9430, 7207.000
581.1150, 7120.000
582.2870, 7098.000
583.4590, 7101.000
584.6300, 6968.000
585.8020, 7242.000
586.9730, 7069.000
588.1440, 7217.000
589.3150, 7126.000
590.4860, 7346.000
591.6570, 7375.000
592.8270, 7685.000
593.9980, 7782.000
595.1680, 7853.000
596.3380, 8350.000
597.5080, 8767.000
598.6780, 8743.000
599.8480, 8503.000
601.0170, 8023.000
602.1860, 7814.000
603.3550, 7669.000
604.5240, 7552.000
605.6930, 7615.000
606.8620, 7757.000
608.0310, 7722.000
609.1990, 8022.000
610.3670, 8339.000
611.5350, 8665.000
612.7030, 9010.000
613.8710, 9207.000
615.0390, 9131.000
616.2060, 9167.000
617.3730, 8488.000
618.5410, 7979.000
619.7080, 7699.000
620.8740, 7478.000
622.0410, 7299.000
623.2080, 7399.000
624.3740, 7313.000
625.5400, 7367.000
626.7060, 7265.000
627.8720, 7201.000
629.0380, 7285.000
630.2040, 7272.000
631.3690, 7313.000
632.5340, 7368.000
633.6990, 7392.000
634.8640, 7381.000
636.0290, 7403.592
637.1940, 7360.000
638.3580, 7377.000
639.5230, 7406.000
640.6870, 7342.000
641.8510, 7346.000
643.0150, 7422.000
644.1790, 7487.000
645.3420, 7371.000
646.5060, 7556.000
647.6690, 7517.000
648.8320, 7512.000
649.9950, 7615.000
651.1580, 7637.000
652.3200, 7645.000
653.4830, 7716.000
654.6450, 7904.000
655.8070, 7905.000
656.9690, 8071.000
658.1310, 8202.000
659.2930, 8515.000
660.4540, 8491.000
661.6160, 8741.000
662.7770, 9042.000
663.9380, 8834.000
665.0990, 9171.000
666.2600, 9403.000
667.4200, 9315.000
668.5810, 9163.000
669.7410, 9272.000
670.9010, 8688.000
672.0610, 8537.000
673.2210, 8353.000
674.3810, 8294.000
675.5400, 8350.000
676.6990, 8460.000
677.8590, 8675.000
679.0180, 8980.000
680.1760, 9773.000
681.3350, 10347.00
682.4940, 10300.00
683.6520, 10793.00
684.8100, 11012.00
685.9680, 11000.00
687.1260, 10236.00
688.2840, 9655.000
689.4420, 9126.000
690.5990, 8659.000
691.7560, 8438.000
692.9140, 8349.000
694.0710, 8212.000
695.2270, 8211.000
696.3840, 8236.581
697.5410, 8437.000
698.6970, 8423.000
699.8530, 8685.000
701.0090, 8848.000
702.1650, 9013.000
703.3210, 8691.000
704.4760, 8776.000
705.6320, 8631.000
706.7870, 8341.000
707.9420, 8135.000
709.0970, 7900.000
710.2520, 7851.000
711.4060, 7793.000
712.5610, 7840.000
713.7150, 7788.000
714.8690, 7763.000
716.0230, 7734.000
717.1770, 7790.000
718.3310, 7859.000
719.4840, 7724.000
720.6380, 7875.000
721.7910, 7815.000
722.9440, 7903.000
724.0970, 7870.000
725.2490, 8017.000
726.4020, 8012.000
727.5540, 8017.000
728.7070, 8162.000
729.8590, 8072.000
731.0110, 8123.000
732.1620, 8041.000
733.3140, 7997.000
734.4650, 7918.000
735.6170, 7945.000
736.7680, 7827.000
737.9190, 7834.000
739.0700, 7995.000
740.2200, 7920.000
741.3710, 7897.000
742.5210, 7817.000
743.6710, 7870.000
744.8210, 7830.000
745.9710, 7891.000
747.1210, 7905.348
748.2700, 7976.000
749.4200, 7948.000
750.5690, 8006.000
751.7180, 8003.000
752.8670, 8068.000
754.0160, 8118.000
755.1640, 8120.000
756.3130, 8269.000
757.4610, 8450.000
758.6090, 8665.000
759.7570, 8893.269
760.9050, 9003.000
762.0530, 9357.000
763.2000, 9590.000
764.3470, 9710.000
765.4940, 9826.000
766.6410, 9555.000
767.7880, 9508.000
768.9350, 9476.000
770.0810, 9708.000
771.2280, 9859.000
772.3740, 10157.00
773.5200, 10665.00
774.6660, 11012.00
775.8120, 11571.00
776.9570, 11816.00
778.1030, 11507.00
779.2480, 11355.00
780.3930, 11065.00
781.5380, 11316.00
782.6830, 11635.00
783.8270, 12330.00
784.9720, 12925.00
786.1160, 12870.00
787.2600, 12389.00
788.4040, 11545.00
789.5480, 10850.00
790.6910, 10144.00
791.8350, 9874.000
792.9780, 9494.000
794.1210, 9271.000
795.2640, 9305.000
796.4070, 9452.000
797.5500, 9613.000
798.6920, 9884.000
799.8350, 10033.00
800.9770, 10422.00
802.1190, 11006.00
803.2610, 11436.00
804.4030, 11843.00
805.5440, 11773.00
806.6850, 11126.00
807.8270, 10696.00
808.9680, 10071.00
810.1090, 9681.000
811.2490, 9249.000
812.3900, 9044.000
813.5300, 8869.000
814.6710, 8993.000
815.8110, 8751.000
816.9510, 8785.000
818.0910, 8638.000
819.2300, 8798.000
820.3700, 8684.000
821.5090, 8670.000
822.6480, 8742.000
823.7870, 8664.000
824.9260, 8609.000
826.0640, 8677.000
827.2030, 8766.000
828.3410, 8785.000
829.4790, 8816.000
830.6170, 8759.000
831.7550, 8947.000
832.8930, 8756.000
834.0310, 8918.000
835.1680, 8906.000
836.3050, 9053.000
837.4420, 8938.000
838.5790, 8902.000
839.7160, 8963.000
840.8520, 8961.957
841.9890, 9034.778
843.1250, 9104.000
844.2610, 9203.000
845.3970, 9300.000
846.5330, 9387.000
847.6680, 9456.000
848.8040, 9506.000
849.9390, 9531.000
851.0740, 9685.000
852.2090, 9831.000
853.3440, 9971.000
854.4780, 10203.00
855.6130, 10420.00
856.7470, 10811.00
857.8810, 11012.00
859.0150, 11252.00
860.1490, 11882.00
861.2830, 12479.00
862.4160, 13171.00
863.5490, 14324.00
864.6830, 15849.00
865.8160, 17807.00
866.9480, 21241.00
868.0810, 26297.00
869.2140, 33211.00
870.3460, 42756.00
871.4780, 56087.00
872.6100, 74155.00
873.7420, 98123.00
874.8740, 129809.0
876.0050, 166897.0
877.1370, 204256.0
878.2680, 221290.0
879.3990, 200346.0
880.5300, 156123.0
881.6600, 109829.0
882.7910, 75435.00
883.9210, 53735.00
885.0520, 39775.00
886.1820, 30545.00
887.3120, 25445.00
888.4410, 21695.00
889.5710, 19457.00
890.7000, 17796.00
891.8300, 16695.00
892.9590, 15588.00
894.0880, 15080.00
895.2160, 14442.00
896.3450, 14064.00
897.4730, 13731.00
898.6020, 13453.00
899.7300, 13237.00
900.8580, 13091.00
901.9860, 12854.00
903.1130, 12856.00
904.2410, 12887.00
905.3680, 12946.00
906.4950, 13344.00
907.6220, 13549.00
908.7490, 14405.00
909.8760, 15222.00
911.0020, 16418.14
912.1280, 17644.00
913.2550, 19623.00
914.3810, 21391.00
915.5060, 23709.00
916.6320, 24789.00
917.7580, 25028.00
918.8830, 24752.00
920.0080, 25505.00
921.1330, 26494.00
922.2580, 28560.00
923.3830, 29453.00
924.5070, 28164.00
925.6310, 24913.00
926.7560, 20853.00
927.8800, 18102.00
929.0040, 16061.00
930.1270, 15045.00
931.2510, 14803.00
932.3740, 14816.00
933.4970, 15192.00
934.6200, 15794.00
935.7430, 16908.00
936.8660, 17584.00
937.9890, 17897.00
939.1110, 17968.00
940.2330, 17702.00
941.3550, 17775.00
942.4770, 19344.00
943.5990, 19885.00
944.7200, 22231.00
945.8420, 25797.00
946.9630, 30385.00
948.0840, 35699.00
949.2050, 40901.00
950.3260, 42636.00
951.4460, 40002.00
952.5670, 33805.00
953.6870, 27096.00
954.8070, 22254.00
955.9270, 18498.00
957.0470, 16008.00
958.1660, 14248.00
959.2860, 13337.00
960.4050, 12396.00
961.5240, 11923.00
962.6430, 11682.00
963.7620, 11469.00
964.8810, 11201.00
965.9990, 10961.00
967.1170, 10834.00
968.2350, 10703.00
969.3530, 10628.00
970.4710, 10627.00
971.5890, 10408.00
972.7060, 10415.00
973.8240, 10203.00
974.9410, 10372.00
976.0580, 10238.00
977.1740, 10198.00
978.2910, 10202.00
979.4080, 10254.00
980.5240, 10134.00
981.6400, 10114.00
982.7560, 10267.00
983.8720, 10195.00
984.9870, 10202.00
986.1030, 10266.00
987.2180, 10285.00
988.3330, 10434.09
989.4480, 10649.00
990.5630, 10784.00
991.6780, 11035.00
992.7920, 11272.00
993.9070, 11184.00
995.0210, 11185.00
996.1350, 11254.00
997.2490, 11337.00
998.3620, 11067.00
999.4760, 11075.00
1000.589, 10984.00
1001.702, 11137.00
1002.815, 11184.00
1003.928, 11364.00
1005.041, 11676.00
1006.153, 11968.00
1007.266, 12437.00
1008.378, 12705.00
1009.490, 13510.00
1010.602, 14052.00
1011.713, 14616.00
1012.825, 15013.00
1013.936, 15538.00
1015.047, 15877.00
1016.158, 16955.00
1017.269, 17822.00
1018.380, 18450.00
1019.490, 18536.00
1020.601, 18485.00
1021.711, 17416.00
1022.821, 16288.00
1023.931, 15019.00
1025.040, 13830.00
1026.150, 12980.00
1027.259, 12090.00
1028.368, 11620.00
1029.477, 11359.00
1030.586, 11200.00
1031.695, 10731.00
1032.803, 10722.00
1033.912, 10468.00
1035.020, 10557.00
1036.128, 10251.00
1037.236, 10409.00
1038.343, 10125.00
1039.451, 10232.00
1040.558, 10186.00
1041.665, 10168.00
1042.772, 10171.00
1043.879, 10017.00
1044.986, 10050.00
1046.093, 10009.00
1047.199, 10067.00
1048.305, 10135.00
1049.411, 9968.000
1050.517, 10085.00
1051.623, 10109.00
1052.728, 9930.000
1053.833, 10003.00
1054.939, 10119.00
1056.044, 10074.00
1057.148, 9927.000
1058.253, 10050.00
1059.358, 10054.00
1060.462, 9957.000
1061.566, 10088.00
1062.670, 9953.000
1063.774, 10024.00
1064.878, 10001.00
1065.981, 10073.00
1067.085, 10008.00
1068.188, 9983.000
1069.291, 10107.00
1070.394, 10070.00
1071.496, 10021.00
1072.599, 10016.00
1073.701, 10085.00
1074.803, 10062.00
1075.905, 10137.00
1077.007, 10022.00
1078.109, 10076.00
1079.210, 10122.00
1080.312, 10200.00
1081.413, 9992.000
1082.514, 10123.00
1083.615, 10148.00
1084.715, 10061.00
1085.816, 10187.00
1086.916, 10098.00
1088.016, 10101.00
1089.116, 10125.00
1090.216, 10070.00
1091.316, 10074.00
1092.415, 10039.00
1093.515, 10096.00
1094.614, 10157.00
1095.713, 10205.00
1096.812, 10086.00
1097.910, 10061.00
1099.009, 10103.00
1100.107, 10163.00
1101.205, 10155.36
1102.303, 10197.13
1103.401, 10204.00
1104.499, 10196.00
1105.596, 10258.00
1106.693, 10171.00
1107.791, 10220.00
1108.888, 10210.00
1109.984, 10200.00
1111.081, 10199.00
1112.177, 10464.00
1113.274, 10296.00
1114.370, 10292.00
1115.466, 10303.00
1116.562, 10136.00
1117.657, 10212.00
1118.753, 10273.00
1119.848, 10339.00
1120.943, 10332.59
1122.038, 10348.81
1123.133, 10284.00
1124.228, 10324.00
1125.322, 10278.00
1126.416, 10275.00
1127.510, 10285.22
1128.604, 10407.00
1129.698, 10319.00
1130.792, 10281.00
1131.885, 10347.00
1132.978, 10211.00
1134.071, 10148.00
1135.164, 10431.00
1136.257, 10285.00
1137.350, 10339.00
1138.442, 10260.00
1139.534, 10320.00
1140.627, 10445.00
1141.718, 10492.00
1142.810, 10348.00
1143.902, 10444.00
1144.993, 10441.36
1146.084, 10418.60
1147.176, 10455.00
1148.266, 10436.00
1149.357, 10294.00
1150.448, 10303.00
1151.538, 10344.00
1152.628, 10405.00
1153.718, 10390.79
1154.808, 10356.00
1155.898, 10364.00
1156.988, 10365.00
1158.077, 10308.00
1159.166, 10309.00
1160.255, 10294.00
1161.344, 10312.82
1162.433, 10295.58
1163.521, 10312.08
1164.610, 10328.04
1165.698, 10352.00
1166.786, 10380.00
1167.874, 10426.00
1168.961, 10477.00
1170.049, 10408.00
1171.136, 10378.00
1172.224, 10418.00
1173.311, 10344.00
1174.397, 10419.00
1175.484, 10425.00
1176.571, 10492.00
1177.657, 10449.00
1178.743, 10442.00
1179.829, 10522.00
1180.915, 10495.00
1182.001, 10548.00
1183.086, 10461.00
1184.171, 10540.00
1185.256, 10407.00
1186.341, 10556.00
1187.426, 10526.00
1188.511, 10479.00
1189.595, 10494.00
1190.680, 10641.00
1191.764, 10641.00
1192.848, 10660.00
1193.932, 10708.00
1195.015, 10590.00
1196.099, 10634.00
1197.182, 10599.00
1198.265, 10580.00
1199.348, 10699.00
1200.431, 10732.00
1201.513, 10643.00
1202.596, 10701.00
1203.678, 10682.00
1204.760, 10609.00
1205.842, 10724.00
1206.924, 10794.00
1208.005, 10903.00
1209.087, 10778.00
1210.168, 10896.00
1211.249, 10703.00
1212.330, 10660.00
1213.411, 10730.00
1214.491, 10955.00
1215.572, 10830.00
1216.652, 10891.00
1217.732, 10806.00
1218.812, 10802.00
1219.891, 10796.00
1220.971, 10799.00
1222.050, 10913.00
1223.129, 10829.00
1224.208, 10735.00
1225.287, 10865.00
1226.366, 10681.00
1227.444, 10728.00
1228.523, 10816.00
1229.601, 10846.00
1230.679, 10877.00
1231.757, 10916.77
1232.834, 10797.00
1233.912, 10921.00
1234.989, 10934.00
1236.066, 10850.00
1237.143, 10949.00
1238.220, 10829.00
1239.297, 10788.00
1240.373, 10768.00
1241.449, 10868.00
1242.526, 10781.00
1243.601, 11044.00
1244.677, 10827.00
1245.753, 10834.00
1246.828, 10903.00
1247.904, 10731.00
1248.979, 10930.00
1250.054, 11010.00
1251.128, 10999.00
1252.203, 10891.00
1253.277, 10947.00
1254.351, 10964.00
1255.426, 10967.00
1256.499, 11007.00
1257.573, 10965.02
1258.647, 10991.00
1259.720, 10938.00
1260.793, 10933.00
1261.866, 11030.00
1262.939, 10980.00
1264.012, 10913.00
1265.084, 10986.00
1266.157, 10907.00
1267.229, 10957.00
1268.301, 11037.00
1269.373, 10974.00
1270.444, 10921.00
1271.516, 10972.00
1272.587, 11085.00
1273.658, 11006.00
1274.729, 10946.00
1275.800, 11031.00
1276.871, 10906.00
1277.941, 10880.00
1279.011, 11068.00
1280.082, 11039.00
1281.151, 10980.00
1282.221, 10974.00
1283.291, 11103.00
1284.360, 11074.00
1285.430, 10941.00
1286.499, 11022.00
1287.568, 10924.00
1288.636, 11087.00
1289.705, 10983.00
1290.773, 10982.00
1291.841, 11051.00
1292.909, 11085.00
1293.977, 11085.91
1295.045, 11108.00
1296.113, 11070.00
1297.180, 11090.00
1298.247, 11038.00
1299.314, 10977.00
1300.381, 11083.00
1301.448, 10999.00
1302.514, 11180.00
1303.580, 10983.00
1304.647, 11017.00
1305.713, 11051.00
1306.778, 11071.00
1307.844, 11023.00
1308.910, 11138.00
1309.975, 11014.00
1311.040, 11169.00
1312.105, 11115.00
1313.170, 11109.00
1314.234, 11137.00
1315.299, 11161.00
1316.363, 11113.00
1317.427, 11275.00
1318.491, 11071.00
1319.555, 11168.00
1320.618, 11142.00
1321.682, 11424.00
1322.745, 11344.00
1323.808, 11338.00
1324.871, 11334.00
1325.933, 11279.00
1326.996, 11297.00
1328.058, 11404.00
1329.121, 11285.00
1330.183, 11314.00
1331.244, 11407.00
1332.306, 11261.00
1333.368, 11150.00
1334.429, 11439.00
1335.490, 11324.00
1336.551, 11452.00
1337.612, 11294.00
1338.672, 11379.00
1339.733, 11510.00
1340.793, 11341.00
1341.853, 11298.00
1342.913, 11387.00
1343.973, 11556.00
1345.033, 11586.00
1346.092, 11365.00
1347.151, 11343.00
1348.210, 11319.00
1349.269, 11445.00
1350.328, 11377.00
1351.386, 11388.00
1352.445, 11421.00
1353.503, 11516.00
1354.561, 11519.00
1355.619, 11546.00
1356.677, 11403.00
1357.734, 11440.00
1358.791, 11457.00
1359.849, 11374.00
1360.906, 11537.00
1361.962, 11430.00
1363.019, 11412.00
1364.075, 11566.00
1365.132, 11516.00
1366.188, 11405.00
1367.244, 11428.00
1368.300, 11597.00
1369.355, 11547.00
1370.411, 11623.00
1371.466, 11674.00
1372.521, 11400.00
1373.576, 11592.00
1374.631, 11677.00
1375.685, 11436.00
1376.740, 11526.00
1377.794, 11589.00
1378.848, 11586.00
1379.902, 11575.00
1380.955, 11528.00
1382.009, 11704.00
1383.062, 11511.00
1384.115, 11670.00
1385.168, 11636.00
1386.221, 11631.00
1387.274, 11852.00
1388.326, 11692.00
1389.379, 11655.00
1390.431, 11616.00
1391.483, 11472.00
1392.534, 11671.00
1393.586, 11509.00
1394.637, 11623.00
1395.689, 11543.00
1396.740, 11563.00
1397.791, 11680.00
1398.841, 11740.00
1399.892, 11494.00
1400.942, 11568.00
1401.993, 11624.00
1403.043, 11669.00
1404.092, 11708.00
1405.142, 11633.00
1406.192, 11644.00
1407.241, 11640.00
1408.290, 11658.00
1409.339, 11819.00
1410.388, 11718.00
1411.437, 11810.96
1412.485, 11715.00
1413.533, 11847.00
1414.581, 11740.00
1415.629, 11673.00
1416.677, 11798.00
1417.725, 11720.00
1418.772, 11811.00
1419.819, 11799.00
1420.867, 11690.00
1421.913, 11792.00
1422.960, 11701.00
1424.007, 11825.00
1425.053, 11772.00
1426.099, 11701.00
1427.145, 11794.00
1428.191, 11697.00
1429.237, 11800.00
1430.282, 11763.00
1431.328, 11950.00
1432.373, 11629.00
1433.418, 11571.00
1434.462, 11654.00
1435.507, 11871.00
1436.552, 11744.00
1437.596, 11888.00
1438.640, 11945.00
1439.684, 11786.00
1440.728, 11757.00
1441.771, 11797.00
1442.815, 11910.00
1443.858, 11843.00
1444.901, 11919.00
1445.944, 11908.00
1446.986, 11865.00
1448.029, 11942.00
1449.071, 11866.00
1450.113, 11927.00
1451.155, 11992.00
1452.197, 11938.00
1453.239, 11926.00
1454.280, 11969.00
1455.322, 12038.00
1456.363, 12062.00
1457.404, 12056.00
1458.444, 11945.00
1459.485, 11867.00
1460.525, 11949.00
1461.566, 11827.00
1462.606, 11945.00
1463.646, 12035.00
1464.685, 12125.00
1465.725, 11898.00
1466.764, 11917.00
1467.803, 11924.87
1468.842, 11910.68
1469.881, 11985.00
1470.920, 12026.00
1471.958, 12088.00
1472.997, 12138.00
1474.035, 12034.00
1475.073, 12104.00
1476.111, 11957.00
1477.148, 12014.00
1478.186, 11954.00
1479.223, 12038.00
1480.260, 11934.00
1481.297, 12102.00
1482.334, 12022.00
1483.370, 12094.00
1484.407, 12039.00
1485.443, 12007.00
1486.479, 11991.00
1487.515, 11984.00
1488.550, 11981.28
1489.586, 12010.00
1490.621, 12043.00
1491.656, 12094.00
1492.691, 12116.29
1493.726, 12179.00
1494.761, 12169.00
1495.795, 12104.00
1496.829, 12111.00
1497.863, 12224.00
1498.897, 12156.76
1499.931, 12188.00
1500.965, 12178.00
1501.998, 12052.00
1503.031, 12156.00
1504.064, 12030.00
1505.097, 12162.00
1506.130, 12161.00
1507.162, 12135.00
1508.195, 12220.00
1509.227, 12274.00
1510.259, 12097.00
1511.291, 12164.00
1512.322, 12220.00
1513.354, 12181.00
1514.385, 12249.00
1515.416, 12113.00
1516.447, 12166.00
1517.478, 12261.00
1518.508, 12133.00
1519.539, 12233.00
1520.569, 12268.00
1521.599, 12261.00
1522.629, 12316.07
1523.658, 12287.00
1524.688, 12376.00
1525.717, 12315.00
1526.746, 12379.00
1527.775, 12289.00
1528.804, 12437.00
1529.833, 12284.00
1530.861, 12241.00
1531.890, 12301.00
1532.918, 12305.00
1533.946, 12255.00
1534.973, 12298.41
1536.001, 12336.00
1537.028, 12305.00
1538.055, 12260.00
1539.082, 12231.00
1540.109, 12222.26
1541.136, 12334.00
1542.163, 12217.00
1543.189, 12362.00
1544.215, 12373.00
1545.241, 12310.00
1546.267, 12445.00
1547.292, 12436.00
1548.318, 12443.00
1549.343, 12357.00
1550.368, 12444.00
1551.393, 12351.00
1552.418, 12386.00
1553.442, 12433.62
1554.467, 12449.71
1555.491, 12519.00
1556.515, 12519.00
1557.539, 12514.00
1558.562, 12430.00
1559.586, 12496.00
1560.609, 12372.00
1561.632, 12302.00
1562.655, 12281.00
1563.678, 12296.00
1564.701, 12352.00
1565.723, 12351.00
1566.745, 12362.18
1567.768, 12344.00
1568.789, 12366.00
1569.811, 12337.00
1570.833, 12353.00
1571.854, 12361.41
1572.875, 12323.00
1573.896, 12376.00
1574.917, 12416.00
1575.938, 12402.00
1576.958, 12453.00
##END=



