##NAMES=Phenakite
##RRUFFID=R050137
##IDEAL CHEMISTRY=Be_2_SiO_4_
##LOCALITY=Mount Antero area, Chaffee County, Colorado, USA
##OWNER=RRUFF
##SOURCE=Dave Bunk Minerals
##DESCRIPTION=Colorless tabular hexagonal crystal
##STATUS=The identification of this mineral has been confirmed by X-ray diffraction and chemical analysis
##URL=rruff.info/R050137
##MEASURED CHEMISTRY=Be_2.00_Si_1.00_O_4_
##PIN_ID=L01371
##ORIENTATION=Laser parallel to a* (1 0 0). Fiducial mark perpendicular to laser is parallel to -c [0 0 -1]
60.91000, 6072.000
62.14500, 6272.000
63.38000, 6433.000
64.61500, 6355.000
65.85000, 6197.000
67.08400, 6331.000
68.31800, 6707.000
69.55300, 6680.000
70.78700, 6802.000
72.02000, 6847.000
73.25400, 6871.000
74.48800, 6961.686
75.72100, 6915.479
76.95500, 7033.000
78.18800, 6949.000
79.42100, 6855.000
80.65400, 7099.000
81.88700, 7214.000
83.11900, 7078.000
84.35200, 6915.000
85.58400, 6439.000
86.81600, 6287.000
88.04900, 6179.000
89.28100, 6294.000
90.51200, 6356.000
91.74400, 6093.000
92.97600, 6259.000
94.20700, 6126.000
95.43800, 6046.000
96.66900, 5935.000
97.90100, 6003.000
99.13100, 6102.000
100.3620, 6088.000
101.5930, 6108.000
102.8230, 6076.000
104.0530, 6085.000
105.2840, 6210.000
106.5140, 6156.000
107.7440, 6168.000
108.9730, 5969.000
110.2030, 5890.000
111.4320, 6038.000
112.6620, 6004.000
113.8910, 6107.000
115.1200, 6315.000
116.3490, 6092.000
117.5780, 6087.000
118.8060, 6589.000
120.0350, 7344.000
121.2630, 7343.000
122.4920, 6975.000
123.7200, 6286.000
124.9480, 5913.000
126.1750, 5634.000
127.4030, 5572.000
128.6310, 5633.000
129.8580, 5463.000
131.0850, 5504.000
132.3120, 5421.000
133.5390, 5567.000
134.7660, 5468.000
135.9930, 5578.000
137.2200, 5515.000
138.4460, 5525.000
139.6720, 5354.000
140.8980, 5395.000
142.1240, 5452.000
143.3500, 5393.000
144.5760, 5458.000
145.8020, 5498.000
147.0270, 5574.000
148.2520, 5494.000
149.4780, 5489.000
150.7030, 5639.000
151.9270, 5672.000
153.1520, 5949.000
154.3770, 6101.000
155.6010, 6362.000
156.8260, 6455.000
158.0500, 7058.000
159.2740, 7387.000
160.4980, 7606.000
161.7210, 7688.000
162.9450, 7171.000
164.1690, 6633.000
165.3920, 5996.000
166.6150, 5759.000
167.8380, 5537.000
169.0610, 5363.000
170.2840, 5251.000
171.5070, 5170.121
172.7290, 5205.000
173.9510, 5145.000
175.1740, 5177.000
176.3960, 5245.000
177.6180, 5282.000
178.8390, 5286.000
180.0610, 5146.000
181.2830, 5165.000
182.5040, 5188.000
183.7250, 5245.000
184.9460, 5166.000
186.1670, 5177.000
187.3880, 5160.000
188.6090, 5035.000
189.8290, 5165.000
191.0500, 5125.000
192.2700, 5364.000
193.4900, 5268.000
194.7100, 5269.000
195.9300, 5329.000
197.1490, 5224.000
198.3690, 5241.000
199.5880, 5240.000
200.8080, 5273.000
202.0270, 5194.000
203.2460, 5319.000
204.4650, 5388.000
205.6830, 5499.000
206.9020, 5669.000
208.1200, 5826.000
209.3380, 6153.000
210.5570, 6602.000
211.7750, 7269.000
212.9920, 7814.000
214.2100, 9019.000
215.4280, 10139.00
216.6450, 11139.00
217.8620, 13511.00
219.0790, 16859.00
220.2960, 18606.00
221.5130, 19089.00
222.7300, 17459.00
223.9460, 14498.00
225.1630, 11215.00
226.3790, 9528.000
227.5950, 9106.000
228.8110, 8816.000
230.0270, 8379.000
231.2430, 7911.000
232.4580, 7184.000
233.6740, 6476.000
234.8890, 5910.000
236.1040, 5555.000
237.3190, 5375.000
238.5340, 5275.000
239.7490, 5283.000
240.9630, 5233.000
242.1780, 5122.000
243.3920, 5297.000
244.6060, 5355.000
245.8200, 5291.000
247.0340, 5450.000
248.2470, 5378.000
249.4610, 5590.000
250.6740, 5653.000
251.8880, 5776.000
253.1010, 5976.000
254.3140, 5910.000
255.5270, 5898.000
256.7390, 5792.000
257.9520, 5461.000
259.1640, 5381.000
260.3760, 5346.000
261.5880, 5323.000
262.8000, 5253.000
264.0120, 5364.000
265.2240, 5369.000
266.4350, 5464.000
267.6470, 5483.000
268.8580, 5537.000
270.0690, 5742.000
271.2800, 5948.000
272.4910, 6147.000
273.7020, 6443.000
274.9120, 6672.000
276.1230, 7050.000
277.3330, 7016.000
278.5430, 6955.000
279.7530, 6690.000
280.9630, 6361.000
282.1720, 5786.000
283.3820, 5557.000
284.5910, 5431.000
285.8000, 5354.000
287.0090, 5510.000
288.2180, 5390.000
289.4270, 5539.000
290.6360, 5590.000
291.8440, 5690.000
293.0530, 5822.000
294.2610, 6055.000
295.4690, 6176.000
296.6770, 6039.000
297.8850, 5909.000
299.0920, 5644.000
300.3000, 5485.000
301.5070, 5340.000
302.7140, 5252.000
303.9210, 5234.000
305.1280, 5139.000
306.3350, 5146.000
307.5420, 5223.000
308.7480, 5061.000
309.9540, 5229.000
311.1600, 5168.000
312.3660, 5186.000
313.5720, 5227.000
314.7780, 5207.940
315.9840, 5235.000
317.1890, 5243.000
318.3940, 5182.000
319.6000, 5221.000
320.8050, 5149.000
322.0090, 5181.860
323.2140, 5200.137
324.4190, 5210.000
325.6230, 5269.000
326.8270, 5242.000
328.0320, 5284.000
329.2360, 5263.000
330.4390, 5268.000
331.6430, 5338.000
332.8470, 5329.000
334.0500, 5391.000
335.2530, 5521.000
336.4560, 5547.479
337.6590, 5590.000
338.8620, 5698.000
340.0650, 5872.000
341.2670, 5975.000
342.4700, 6170.000
343.6720, 6284.000
344.8740, 6856.000
346.0760, 7071.000
347.2780, 7049.000
348.4790, 6687.000
349.6810, 6346.000
350.8820, 5867.000
352.0830, 5741.000
353.2840, 5501.000
354.4850, 5514.000
355.6860, 5401.000
356.8870, 5436.000
358.0870, 5408.000
359.2870, 5346.000
360.4880, 5282.000
361.6880, 5386.000
362.8870, 5410.000
364.0870, 5383.000
365.2870, 5351.000
366.4860, 5456.000
367.6850, 5497.000
368.8850, 5509.000
370.0840, 5598.000
371.2820, 5815.000
372.4810, 5924.000
373.6800, 6158.000
374.8780, 6380.000
376.0760, 6694.000
377.2740, 7297.000
378.4720, 7756.000
379.6700, 8676.000
380.8680, 9636.000
382.0650, 10275.00
383.2630, 10028.00
384.4600, 9191.000
385.6570, 7931.000
386.8540, 6886.000
388.0510, 6316.000
389.2470, 5938.000
390.4440, 5829.000
391.6400, 5624.000
392.8360, 5566.000
394.0320, 5534.000
395.2280, 5541.000
396.4240, 5579.000
397.6190, 5447.000
398.8150, 5618.000
400.0100, 5479.000
401.2050, 5436.000
402.4000, 5521.000
403.5950, 5566.000
404.7900, 5469.000
405.9840, 5478.000
407.1790, 5479.000
408.3730, 5631.000
409.5670, 5666.000
410.7610, 5546.000
411.9550, 5785.000
413.1480, 5633.000
414.3420, 5740.000
415.5350, 5598.000
416.7280, 5630.000
417.9220, 5619.000
419.1140, 5777.000
420.3070, 5611.000
421.5000, 5748.000
422.6920, 5821.000
423.8850, 5801.000
425.0770, 5896.000
426.2690, 5998.000
427.4610, 6023.000
428.6520, 6207.000
429.8440, 6238.000
431.0350, 6307.000
432.2260, 6464.000
433.4180, 6670.000
434.6090, 7168.000
435.7990, 7534.000
436.9900, 8211.000
438.1800, 9044.000
439.3710, 9868.000
440.5610, 11601.00
441.7510, 13186.00
442.9410, 13942.00
444.1310, 13439.00
445.3200, 12187.00
446.5100, 10101.00
447.6990, 8380.000
448.8880, 7344.000
450.0770, 6709.000
451.2660, 6317.000
452.4550, 6173.000
453.6430, 6028.000
454.8320, 5986.000
456.0200, 6054.000
457.2080, 6046.000
458.3960, 6194.000
459.5840, 6175.000
460.7720, 6375.000
461.9590, 6507.000
463.1460, 6568.000
464.3340, 6596.000
465.5210, 6411.000
466.7080, 6176.000
467.8940, 6167.000
469.0810, 6112.000
470.2670, 6121.000
471.4540, 6042.000
472.6400, 6235.000
473.8260, 6452.000
475.0120, 6469.000
476.1970, 6689.000
477.3830, 6870.000
478.5680, 7064.000
479.7540, 7221.000
480.9390, 7196.000
482.1240, 6961.000
483.3080, 6778.000
484.4930, 6637.000
485.6780, 6354.000
486.8620, 6228.000
488.0460, 6146.000
489.2300, 6020.000
490.4140, 6045.000
491.5980, 6024.000
492.7810, 5965.000
493.9650, 6026.000
495.1480, 6075.000
496.3310, 6094.000
497.5140, 5952.000
498.6970, 5986.000
499.8800, 6003.000
501.0620, 6150.000
502.2440, 6108.809
503.4270, 5997.000
504.6090, 6114.000
505.7910, 6121.000
506.9720, 6162.000
508.1540, 6152.000
509.3350, 6153.000
510.5170, 6235.000
511.6980, 6391.000
512.8790, 6529.000
514.0600, 6659.000
515.2400, 6853.000
516.4210, 7192.000
517.6010, 7596.000
518.7810, 8164.000
519.9620, 8638.000
521.1410, 9749.000
522.3210, 10807.00
523.5010, 11422.00
524.6800, 11189.00
525.8600, 10396.00
527.0390, 9109.000
528.2180, 8087.000
529.3970, 7339.000
530.5750, 6952.000
531.7540, 6641.000
532.9320, 6465.000
534.1110, 6449.000
535.2890, 6520.000
536.4670, 6407.042
537.6440, 6400.000
538.8220, 6378.000
540.0000, 6228.000
541.1770, 6312.000
542.3540, 6390.000
543.5310, 6313.000
544.7080, 6337.000
545.8850, 6335.000
547.0610, 6313.000
548.2380, 6216.000
549.4140, 6235.000
550.5900, 6301.000
551.7660, 6297.000
552.9420, 6393.000
554.1170, 6250.000
555.2930, 6310.000
556.4680, 6341.000
557.6430, 6430.000
558.8180, 6388.000
559.9930, 6385.000
561.1680, 6473.000
562.3430, 6593.099
563.5170, 6532.000
564.6910, 7021.000
565.8650, 7224.000
567.0390, 7575.000
568.2130, 7062.000
569.3870, 7213.000
570.5600, 6658.000
571.7340, 7544.000
572.9070, 7257.000
574.0800, 7177.000
575.2530, 7112.000
576.4250, 7142.000
577.5980, 7007.000
578.7700, 6922.000
579.9430, 6931.000
581.1150, 6804.472
582.2870, 6684.000
583.4590, 6652.000
584.6300, 6580.000
585.8020, 6626.774
586.9730, 6692.000
588.1440, 6840.000
589.3150, 7015.000
590.4860, 7281.000
591.6570, 7748.000
592.8270, 8203.000
593.9980, 8760.000
595.1680, 9522.000
596.3380, 10914.00
597.5080, 11936.00
598.6780, 12378.00
599.8480, 11618.00
601.0170, 10119.00
602.1860, 8771.000
603.3550, 7900.000
604.5240, 7450.000
605.6930, 7220.000
606.8620, 7176.000
608.0310, 7155.000
609.1990, 7202.000
610.3670, 7462.000
611.5350, 7546.000
612.7030, 7843.000
613.8710, 8013.000
615.0390, 8009.000
616.2060, 7780.000
617.3730, 7659.000
618.5410, 7289.000
619.7080, 7059.000
620.8740, 6884.000
622.0410, 6765.000
623.2080, 6582.000
624.3740, 6619.000
625.5400, 6535.000
626.7060, 6565.000
627.8720, 6514.000
629.0380, 6644.000
630.2040, 6593.000
631.3690, 6591.000
632.5340, 6544.000
633.6990, 6679.000
634.8640, 6755.000
636.0290, 6686.000
637.1940, 6687.000
638.3580, 6569.000
639.5230, 6706.000
640.6870, 6654.000
641.8510, 6703.000
643.0150, 6726.000
644.1790, 6729.000
645.3420, 6696.000
646.5060, 6809.000
647.6690, 6911.000
648.8320, 6765.000
649.9950, 6683.000
651.1580, 6701.000
652.3200, 6732.000
653.4830, 6750.400
654.6450, 6890.000
655.8070, 6841.000
656.9690, 6946.000
658.1310, 6947.000
659.2930, 7049.588
660.4540, 7162.000
661.6160, 7249.000
662.7770, 7333.000
663.9380, 7364.000
665.0990, 7486.000
666.2600, 7446.000
667.4200, 7538.000
668.5810, 7401.000
669.7410, 7379.000
670.9010, 7335.000
672.0610, 7324.000
673.2210, 7186.000
674.3810, 7236.000
675.5400, 7266.000
676.6990, 7421.000
677.8590, 7515.210
679.0180, 7637.000
680.1760, 7845.000
681.3350, 8067.000
682.4940, 8337.000
683.6520, 8580.000
684.8100, 8800.000
685.9680, 8629.000
687.1260, 8573.000
688.2840, 8238.000
689.4420, 7844.000
690.5990, 7725.000
691.7560, 7695.000
692.9140, 7697.000
694.0710, 7767.000
695.2270, 7782.000
696.3840, 7967.000
697.5410, 7910.000
698.6970, 8188.000
699.8530, 8216.000
701.0090, 8487.000
702.1650, 8717.000
703.3210, 8479.000
704.4760, 8294.000
705.6320, 7937.000
706.7870, 7766.000
707.9420, 7535.000
709.0970, 7346.000
710.2520, 7347.000
711.4060, 7240.000
712.5610, 7254.000
713.7150, 7198.331
714.8690, 7133.000
716.0230, 7153.000
717.1770, 7157.000
718.3310, 7214.000
719.4840, 7144.000
720.6380, 7312.000
721.7910, 7290.000
722.9440, 7411.000
724.0970, 7362.000
725.2490, 7547.000
726.4020, 7661.000
727.5540, 7710.000
728.7070, 7777.423
729.8590, 7813.000
731.0110, 7759.000
732.1620, 7498.000
733.3140, 7367.000
734.4650, 7259.000
735.6170, 7242.000
736.7680, 7165.000
737.9190, 7079.000
739.0700, 7128.000
740.2200, 7136.000
741.3710, 7239.000
742.5210, 7244.000
743.6710, 7172.000
744.8210, 7312.000
745.9710, 7164.000
747.1210, 7175.000
748.2700, 7230.000
749.4200, 7324.000
750.5690, 7336.000
751.7180, 7290.000
752.8670, 7445.000
754.0160, 7403.000
755.1640, 7630.000
756.3130, 7694.000
757.4610, 7838.000
758.6090, 7973.000
759.7570, 8472.000
760.9050, 8563.000
762.0530, 8971.000
763.2000, 9389.000
764.3470, 9754.000
765.4940, 9999.000
766.6410, 9716.159
767.7880, 9253.000
768.9350, 9096.000
770.0810, 9069.000
771.2280, 9293.000
772.3740, 9679.000
773.5200, 10035.00
774.6660, 10643.00
775.8120, 11234.00
776.9570, 11252.00
778.1030, 10884.00
779.2480, 10683.00
780.3930, 10359.00
781.5380, 10366.00
782.6830, 10474.00
783.8270, 11060.00
784.9720, 11254.00
786.1160, 11242.00
787.2600, 10963.00
788.4040, 10289.00
789.5480, 9573.000
790.6910, 9057.000
791.8350, 8686.000
792.9780, 8469.000
794.1210, 8282.000
795.2640, 8178.000
796.4070, 8160.000
797.5500, 8164.824
798.6920, 8236.836
799.8350, 8389.000
800.9770, 8542.000
802.1190, 8806.000
803.2610, 9108.000
804.4030, 9074.000
805.5440, 9142.000
806.6850, 8847.000
807.8270, 8568.000
808.9680, 8446.000
810.1090, 8136.000
811.2490, 7969.000
812.3900, 7897.000
813.5300, 7878.000
814.6710, 7840.000
815.8110, 7875.000
816.9510, 7845.000
818.0910, 7840.043
819.2300, 7839.275
820.3700, 7857.000
821.5090, 7830.000
822.6480, 7915.000
823.7870, 7939.000
824.9260, 7892.000
826.0640, 7957.000
827.2030, 7962.000
828.3410, 7971.967
829.4790, 8079.000
830.6170, 8024.000
831.7550, 8033.000
832.8930, 8092.000
834.0310, 7953.000
835.1680, 7981.000
836.3050, 8186.000
837.4420, 8148.000
838.5790, 8154.000
839.7160, 8158.000
840.8520, 8282.000
841.9890, 8350.000
843.1250, 8373.000
844.2610, 8351.000
845.3970, 8481.000
846.5330, 8492.000
847.6680, 8564.000
848.8040, 8737.000
849.9390, 8809.000
851.0740, 8995.000
852.2090, 9102.000
853.3440, 9090.000
854.4780, 9449.000
855.6130, 9575.000
856.7470, 9890.000
857.8810, 10204.00
859.0150, 10519.00
860.1490, 10847.00
861.2830, 11512.00
862.4160, 12377.00
863.5490, 13276.00
864.6830, 14918.00
865.8160, 17065.00
866.9480, 20344.00
868.0810, 25317.00
869.2140, 32103.00
870.3460, 41493.00
871.4780, 53815.00
872.6100, 71538.00
873.7420, 94636.00
874.8740, 124648.0
876.0050, 160776.0
877.1370, 197214.0
878.2680, 214624.0
879.3990, 198163.0
880.5300, 157270.0
881.6600, 111989.0
882.7910, 76950.00
883.9210, 54301.00
885.0520, 39488.00
886.1820, 30704.00
887.3120, 24472.00
888.4410, 20971.00
889.5710, 18361.00
890.7000, 17048.00
891.8300, 15605.00
892.9590, 14726.00
894.0880, 14012.00
895.2160, 13389.00
896.3450, 12913.00
897.4730, 12480.23
898.6020, 12325.00
899.7300, 11926.00
900.8580, 11762.00
901.9860, 11699.00
903.1130, 11424.00
904.2410, 11582.00
905.3680, 11515.00
906.4950, 11672.00
907.6220, 12048.00
908.7490, 12515.00
909.8760, 12928.00
911.0020, 13698.00
912.1280, 14783.00
913.2550, 16096.00
914.3810, 17540.00
915.5060, 18833.00
916.6320, 19491.00
917.7580, 19425.00
918.8830, 18534.00
920.0080, 17926.00
921.1330, 17524.00
922.2580, 17803.00
923.3830, 18027.00
924.5070, 17366.00
925.6310, 16053.00
926.7560, 14535.00
927.8800, 13324.00
929.0040, 12826.00
930.1270, 12542.00
931.2510, 12738.00
932.3740, 12998.00
933.4970, 13681.00
934.6200, 14681.00
935.7430, 15564.00
936.8660, 16251.00
937.9890, 16234.44
939.1110, 16251.00
940.2330, 15911.00
941.3550, 15446.00
942.4770, 15609.00
943.5990, 16204.00
944.7200, 17547.00
945.8420, 19437.00
946.9630, 22021.00
948.0840, 25359.00
949.2050, 28301.00
950.3260, 29091.00
951.4460, 27657.00
952.5670, 23711.00
953.6870, 19743.00
954.8070, 16305.00
955.9270, 13974.00
957.0470, 12494.00
958.1660, 11467.00
959.2860, 10996.00
960.4050, 10369.00
961.5240, 10218.00
962.6430, 9685.000
963.7620, 9685.000
964.8810, 9562.000
965.9990, 9505.000
967.1170, 9269.000
968.2350, 9273.000
969.3530, 9327.000
970.4710, 9268.000
971.5890, 9034.000
972.7060, 9170.000
973.8240, 9074.000
974.9410, 9078.000
976.0580, 9095.000
977.1740, 9014.000
978.2910, 9076.000
979.4080, 9042.000
980.5240, 9058.000
981.6400, 8922.000
982.7560, 9152.000
983.8720, 9126.000
984.9870, 9039.000
986.1030, 9170.000
987.2180, 9158.000
988.3330, 9332.000
989.4480, 9445.000
990.5630, 9562.000
991.6780, 9640.000
992.7920, 9766.000
993.9070, 9867.000
995.0210, 9849.297
996.1350, 9764.000
997.2490, 9789.000
998.3620, 9647.000
999.4760, 9603.000
1000.589, 9652.000
1001.702, 9578.000
1002.815, 9488.000
1003.928, 9849.000
1005.041, 9850.000
1006.153, 10116.00
1007.266, 10441.00
1008.378, 10639.00
1009.490, 10893.00
1010.602, 11223.00
1011.713, 11375.00
1012.825, 11420.00
1013.936, 11660.00
1015.047, 11682.00
1016.158, 11907.00
1017.269, 12164.00
1018.380, 12477.00
1019.490, 12612.00
1020.601, 12497.00
1021.711, 12030.00
1022.821, 11531.00
1023.931, 11025.00
1025.040, 10584.00
1026.150, 10227.00
1027.259, 10053.00
1028.368, 9797.000
1029.477, 9449.000
1030.586, 9415.000
1031.695, 9251.359
1032.803, 9185.163
1033.912, 9169.000
1035.020, 9173.000
1036.128, 9195.000
1037.236, 9224.000
1038.343, 9155.000
1039.451, 9032.000
1040.558, 8968.000
1041.665, 9045.000
1042.772, 9044.000
1043.879, 9099.000
1044.986, 9132.000
1046.093, 9130.000
1047.199, 9152.953
1048.305, 9159.886
1049.411, 9147.000
1050.517, 9157.000
1051.623, 9136.000
1052.728, 9102.000
1053.833, 9119.401
1054.939, 8998.000
1056.044, 9140.000
1057.148, 9089.000
1058.253, 9108.000
1059.358, 9203.000
1060.462, 9033.000
1061.566, 9019.000
1062.670, 9083.000
1063.774, 9136.000
1064.878, 9144.000
1065.981, 9062.000
1067.085, 9075.000
1068.188, 9064.000
1069.291, 9156.000
1070.394, 9140.000
1071.496, 9218.000
1072.599, 9070.000
1073.701, 9057.000
1074.803, 9191.000
1075.905, 9063.000
1077.007, 9126.000
1078.109, 9273.000
1079.210, 9176.000
1080.312, 9199.000
1081.413, 9172.000
1082.514, 9214.000
1083.615, 9159.000
1084.715, 9205.000
1085.816, 9187.000
1086.916, 9252.000
1088.016, 9157.000
1089.116, 9254.000
1090.216, 9200.000
1091.316, 9148.000
1092.415, 9214.000
1093.515, 9144.000
1094.614, 9145.000
1095.713, 9237.000
1096.812, 9175.000
1097.910, 9270.000
1099.009, 9207.000
1100.107, 9164.000
1101.205, 9203.000
1102.303, 9250.000
1103.401, 9356.000
1104.499, 9414.000
1105.596, 9283.000
1106.693, 9186.000
1107.791, 9328.000
1108.888, 9379.000
1109.984, 9321.000
1111.081, 9242.000
1112.177, 9350.000
1113.274, 9317.000
1114.370, 9392.000
1115.466, 9306.000
1116.562, 9347.000
1117.657, 9314.000
1118.753, 9375.000
1119.848, 9406.000
1120.943, 9315.000
1122.038, 9369.000
1123.133, 9238.000
1124.228, 9303.000
1125.322, 9333.000
1126.416, 9438.000
1127.510, 9441.000
1128.604, 9459.000
1129.698, 9400.000
1130.792, 9353.000
1131.885, 9432.000
1132.978, 9236.000
1134.071, 9397.000
1135.164, 9346.000
1136.257, 9279.000
1137.350, 9500.000
1138.442, 9480.000
1139.534, 9370.000
1140.627, 9473.000
1141.718, 9410.000
1142.810, 9409.000
1143.902, 9343.000
1144.993, 9314.000
1146.084, 9447.000
1147.176, 9313.000
1148.266, 9514.000
1149.357, 9588.000
1150.448, 9375.000
1151.538, 9411.000
1152.628, 9514.000
1153.718, 9443.000
1154.808, 9278.000
1155.898, 9520.000
1156.988, 9478.000
1158.077, 9460.149
1159.166, 9557.640
1160.255, 9425.000
1161.344, 9541.000
1162.433, 9546.000
1163.521, 9374.000
1164.610, 9470.000
1165.698, 9454.000
1166.786, 9429.000
1167.874, 9376.000
1168.961, 9561.000
1170.049, 9479.000
1171.136, 9461.000
1172.224, 9378.000
1173.311, 9516.000
1174.397, 9545.000
1175.484, 9601.000
1176.571, 9529.000
1177.657, 9665.000
1178.743, 9545.000
1179.829, 9547.000
1180.915, 9540.000
1182.001, 9539.000
1183.086, 9556.305
1184.171, 9558.315
1185.256, 9596.000
1186.341, 9617.000
1187.426, 9638.000
1188.511, 9746.000
1189.595, 9749.000
1190.680, 9688.000
1191.764, 9569.000
1192.848, 9760.000
1193.932, 9706.000
1195.015, 9648.000
1196.099, 9710.000
1197.182, 9935.000
1198.265, 9670.000
1199.348, 9890.000
1200.431, 9807.000
1201.513, 9807.000
1202.596, 9820.000
1203.678, 9778.000
1204.760, 9830.000
1205.842, 9706.000
1206.924, 9818.000
1208.005, 9837.000
1209.087, 9897.000
1210.168, 9731.000
1211.249, 9943.000
1212.330, 9835.000
1213.411, 9855.000
1214.491, 10017.00
1215.572, 9947.000
1216.652, 10250.00
1217.732, 9999.000
1218.812, 9723.000
1219.891, 9961.000
1220.971, 9863.000
1222.050, 9876.000
1223.129, 9820.000
1224.208, 9830.000
1225.287, 9875.000
1226.366, 9973.000
1227.444, 9995.000
1228.523, 9890.000
1229.601, 9827.000
1230.679, 9895.000
1231.757, 9935.000
1232.834, 9914.305
1233.912, 9889.000
1234.989, 9903.000
1236.066, 9985.000
1237.143, 9956.000
1238.220, 9876.000
1239.297, 10127.00
1240.373, 9902.000
1241.449, 10029.00
1242.526, 9946.000
1243.601, 10040.00
1244.677, 9930.000
1245.753, 9949.000
1246.828, 9933.000
1247.904, 9983.000
1248.979, 9982.857
1250.054, 10044.00
1251.128, 10017.00
1252.203, 10025.01
1253.277, 10052.00
1254.351, 9991.000
1255.426, 9992.000
1256.499, 9996.000
1257.573, 9999.826
1258.647, 10035.82
1259.720, 10041.00
1260.793, 10096.00
1261.866, 10096.00
1262.939, 10076.00
1264.012, 10029.00
1265.084, 10094.00
1266.157, 9930.000
1267.229, 10055.00
1268.301, 10221.00
1269.373, 10044.00
1270.444, 10094.00
1271.516, 10047.00
1272.587, 10154.00
1273.658, 10032.00
1274.729, 10058.00
1275.800, 10230.00
1276.871, 10069.00
1277.941, 9976.000
1279.011, 10112.00
1280.082, 10162.00
1281.151, 10041.00
1282.221, 10170.00
1283.291, 10258.00
1284.360, 10100.00
1285.430, 10061.00
1286.499, 10005.00
1287.568, 10042.00
1288.636, 10034.00
1289.705, 10077.00
1290.773, 10156.00
1291.841, 10081.00
1292.909, 10210.00
1293.977, 10088.00
1295.045, 10155.00
1296.113, 10050.00
1297.180, 9978.000
1298.247, 10153.00
1299.314, 10124.00
1300.381, 10160.00
1301.448, 10179.00
1302.514, 10172.11
1303.580, 10174.00
1304.647, 10174.00
1305.713, 10143.00
1306.778, 10132.00
1307.844, 10157.84
1308.910, 10186.00
1309.975, 10199.00
1311.040, 10203.08
1312.105, 10180.66
1313.170, 10181.00
1314.234, 10166.00
1315.299, 10207.00
1316.363, 10161.00
1317.427, 10214.00
1318.491, 10193.00
1319.555, 10279.00
1320.618, 10366.00
1321.682, 10395.00
1322.745, 10417.44
1323.808, 10447.52
1324.871, 10390.00
1325.933, 10420.00
1326.996, 10380.00
1328.058, 10267.00
1329.121, 10255.00
1330.183, 10295.00
1331.244, 10451.00
1332.306, 10359.00
1333.368, 10409.00
1334.429, 10346.00
1335.490, 10358.00
1336.551, 10383.00
1337.612, 10421.00
1338.672, 10457.00
1339.733, 10443.10
1340.793, 10415.00
1341.853, 10443.00
1342.913, 10403.00
1343.973, 10473.00
1345.033, 10351.00
1346.092, 10521.00
1347.151, 10387.00
1348.210, 10284.00
1349.269, 10287.00
1350.328, 10320.00
1351.386, 10457.00
1352.445, 10386.00
1353.503, 10551.00
1354.561, 10508.00
1355.619, 10436.00
1356.677, 10619.00
1357.734, 10462.00
1358.791, 10614.00
1359.849, 10432.00
1360.906, 10490.00
1361.962, 10460.00
1363.019, 10428.00
1364.075, 10442.00
1365.132, 10460.97
1366.188, 10538.00
1367.244, 10531.00
1368.300, 10572.00
1369.355, 10578.00
1370.411, 10545.00
1371.466, 10559.00
1372.521, 10449.00
1373.576, 10641.00
1374.631, 10685.00
1375.685, 10574.00
1376.740, 10711.00
1377.794, 10525.00
1378.848, 10664.00
1379.902, 10467.00
1380.955, 10556.00
1382.009, 10531.00
1383.062, 10568.00
1384.115, 10708.00
1385.168, 10659.86
1386.221, 10658.00
1387.274, 10664.00
1388.326, 10634.00
1389.379, 10643.00
1390.431, 10745.00
1391.483, 10570.00
1392.534, 10707.00
1393.586, 10625.00
1394.637, 10723.00
1395.689, 10709.00
1396.740, 10653.00
1397.791, 10796.00
1398.841, 10723.00
1399.892, 10615.00
1400.942, 10683.00
1401.993, 10646.00
1403.043, 10604.00
1404.092, 10716.00
1405.142, 10624.00
1406.192, 10695.00
1407.241, 10689.00
1408.290, 10697.00
1409.339, 10752.00
1410.388, 10666.00
1411.437, 10765.00
1412.485, 10793.00
1413.533, 10798.00
1414.581, 10678.00
1415.629, 10730.00
1416.677, 10694.00
1417.725, 10723.00
1418.772, 10782.00
1419.819, 10854.00
1420.867, 10722.00
1421.913, 10706.00
1422.960, 10687.00
1424.007, 10886.00
1425.053, 10881.00
1426.099, 10818.00
1427.145, 10781.00
1428.191, 10807.00
1429.237, 10667.00
1430.282, 10838.00
1431.328, 10935.00
1432.373, 10639.00
1433.418, 10901.00
1434.462, 10866.00
1435.507, 10762.00
1436.552, 10837.00
1437.596, 10779.00
1438.640, 11025.00
1439.684, 10880.00
1440.728, 10856.00
1441.771, 11051.00
1442.815, 10830.00
1443.858, 11003.00
1444.901, 10944.00
1445.944, 10905.00
1446.986, 10831.00
1448.029, 10890.00
1449.071, 10855.66
1450.113, 10883.00
1451.155, 10882.00
1452.197, 11005.00
1453.239, 11049.00
1454.280, 11068.00
1455.322, 11088.84
1456.363, 10923.00
1457.404, 11036.00
1458.444, 10993.00
1459.485, 10927.00
1460.525, 11026.00
1461.566, 10896.00
1462.606, 11050.00
1463.646, 11069.00
1464.685, 11115.00
1465.725, 10890.00
1466.764, 10888.00
1467.803, 10903.00
1468.842, 11033.00
1469.881, 11072.00
1470.920, 10954.00
1471.958, 11105.00
1472.997, 11017.00
1474.035, 11080.00
1475.073, 10925.00
1476.111, 10981.00
1477.148, 11168.00
1478.186, 11067.00
1479.223, 11138.00
1480.260, 11083.00
1481.297, 11083.00
1482.334, 11136.00
1483.370, 11068.00
1484.407, 10997.00
1485.443, 10939.00
1486.479, 11011.00
1487.515, 11033.00
1488.550, 11124.00
1489.586, 11095.00
1490.621, 11139.00
1491.656, 11159.00
1492.691, 11213.00
1493.726, 11212.00
1494.761, 11168.00
1495.795, 11173.52
1496.829, 11156.00
1497.863, 11153.00
1498.897, 11110.00
1499.931, 11174.00
1500.965, 11172.00
1501.998, 11138.00
1503.031, 11184.15
1504.064, 11168.02
1505.097, 11227.00
1506.130, 11182.00
1507.162, 11211.00
1508.195, 11228.00
1509.227, 11300.00
1510.259, 11193.00
1511.291, 11205.00
1512.322, 11187.00
1513.354, 11133.00
1514.385, 11221.00
1515.416, 11111.00
1516.447, 11120.00
1517.478, 11341.00
1518.508, 11269.00
1519.539, 11177.00
1520.569, 11430.00
1521.599, 11208.00
1522.629, 11319.00
1523.658, 11281.15
1524.688, 11267.83
1525.717, 11236.00
1526.746, 11301.00
1527.775, 11404.00
1528.804, 11383.00
1529.833, 11231.00
1530.861, 11376.00
1531.890, 11375.00
1532.918, 11411.00
1533.946, 11811.00
1534.973, 11481.00
1536.001, 11522.00
1537.028, 11192.00
1538.055, 11364.00
1539.082, 11256.00
1540.109, 11320.00
1541.136, 11389.00
1542.163, 11350.00
1543.189, 11304.00
1544.215, 11500.00
1545.241, 11443.00
1546.267, 11457.00
1547.292, 11347.00
1548.318, 11434.00
1549.343, 11415.00
1550.368, 11454.00
1551.393, 11471.00
1552.418, 11505.00
1553.442, 11505.00
1554.467, 11490.00
1555.491, 11417.00
1556.515, 11438.00
1557.539, 11405.00
1558.562, 11506.00
1559.586, 11471.61
1560.609, 11484.92
1561.632, 11456.00
1562.655, 11471.00
1563.678, 11444.00
1564.701, 11419.00
1565.723, 11587.00
1566.745, 11578.00
1567.768, 11643.00
1568.789, 11498.00
1569.811, 11757.00
1570.833, 11431.00
1571.854, 11461.00
1572.875, 11359.00
1573.896, 11552.00
1574.917, 11492.00
1575.938, 11528.00
1576.958, 11580.00
##END=



