##NAMES=Phenakite
##RRUFFID=R050137
##IDEAL CHEMISTRY=Be_2_SiO_4_
##LOCALITY=Mount Antero area, Chaffee County, Colorado, USA
##OWNER=RRUFF
##SOURCE=Dave Bunk Minerals
##DESCRIPTION=Colorless tabular hexagonal crystal
##STATUS=The identification of this mineral has been confirmed by X-ray diffraction and chemical analysis
##URL=rruff.info/R050137
##MEASURED CHEMISTRY=Be_2.00_Si_1.00_O_4_
##PIN_ID=L01371
##ORIENTATION=Laser parallel to a* (1 0 0). Fiducial mark perpendicular to laser is parallel to -c [0 0 -1]
60.91000, 5855.000
62.14500, 6163.000
63.38000, 6306.000
64.61500, 6245.000
65.85000, 6014.000
67.08400, 6143.000
68.31800, 6280.000
69.55300, 6513.000
70.78700, 6539.000
72.02000, 6523.000
73.25400, 6673.000
74.48800, 7134.000
75.72100, 7150.000
76.95500, 7020.093
78.18800, 6738.000
79.42100, 6533.000
80.65400, 6927.000
81.88700, 6834.000
83.11900, 6677.000
84.35200, 6692.000
85.58400, 6179.000
86.81600, 6098.000
88.04900, 5982.000
89.28100, 6148.000
90.51200, 5962.000
91.74400, 6038.000
92.97600, 6164.000
94.20700, 6209.000
95.43800, 6035.000
96.66900, 5937.000
97.90100, 6022.000
99.13100, 5866.000
100.3620, 6011.000
101.5930, 6010.000
102.8230, 6080.000
104.0530, 6082.000
105.2840, 6084.811
106.5140, 6228.000
107.7440, 6017.000
108.9730, 5990.000
110.2030, 5840.000
111.4320, 5946.000
112.6620, 6026.000
113.8910, 6279.000
115.1200, 6428.000
116.3490, 6234.000
117.5780, 6087.000
118.8060, 6557.000
120.0350, 7290.000
121.2630, 7406.000
122.4920, 6916.000
123.7200, 6241.000
124.9480, 5819.000
126.1750, 5605.000
127.4030, 5532.000
128.6310, 5584.000
129.8580, 5543.000
131.0850, 5560.000
132.3120, 5532.000
133.5390, 5607.000
134.7660, 5587.000
135.9930, 5518.000
137.2200, 5597.000
138.4460, 5587.000
139.6720, 5335.000
140.8980, 5430.000
142.1240, 5437.000
143.3500, 5491.000
144.5760, 5499.000
145.8020, 5446.000
147.0270, 5467.000
148.2520, 5427.000
149.4780, 5330.000
150.7030, 5362.000
151.9270, 5294.000
153.1520, 5459.000
154.3770, 5464.000
155.6010, 5397.000
156.8260, 5473.000
158.0500, 5323.000
159.2740, 5361.000
160.4980, 5355.000
161.7210, 5404.000
162.9450, 5386.000
164.1690, 5398.000
165.3920, 5387.361
166.6150, 5386.876
167.8380, 5359.000
169.0610, 5341.000
170.2840, 5356.000
171.5070, 5238.000
172.7290, 5202.000
173.9510, 5209.156
175.1740, 5276.000
176.3960, 5222.000
177.6180, 5310.000
178.8390, 5312.000
180.0610, 5188.000
181.2830, 5341.000
182.5040, 5206.000
183.7250, 5207.000
184.9460, 5415.000
186.1670, 5285.000
187.3880, 5283.000
188.6090, 5204.000
189.8290, 5177.000
191.0500, 5262.000
192.2700, 5486.000
193.4900, 5228.000
194.7100, 5361.000
195.9300, 5413.000
197.1490, 5228.000
198.3690, 5392.000
199.5880, 5373.000
200.8080, 5280.000
202.0270, 5323.000
203.2460, 5289.000
204.4650, 5389.000
205.6830, 5441.000
206.9020, 5632.000
208.1200, 5968.000
209.3380, 6422.000
210.5570, 6811.000
211.7750, 7360.000
212.9920, 8050.000
214.2100, 9236.000
215.4280, 10302.00
216.6450, 11379.00
217.8620, 14008.00
219.0790, 17177.00
220.2960, 19053.00
221.5130, 19244.00
222.7300, 17324.00
223.9460, 13953.00
225.1630, 10440.00
226.3790, 8439.000
227.5950, 7440.000
228.8110, 6735.000
230.0270, 6423.000
231.2430, 6016.000
232.4580, 5750.000
233.6740, 5628.000
234.8890, 5465.000
236.1040, 5460.000
237.3190, 5311.000
238.5340, 5199.000
239.7490, 5304.000
240.9630, 5303.000
242.1780, 5200.000
243.3920, 5366.000
244.6060, 5375.000
245.8200, 5282.000
247.0340, 5376.000
248.2470, 5367.000
249.4610, 5531.000
250.6740, 5542.000
251.8880, 5510.000
253.1010, 5574.000
254.3140, 5566.000
255.5270, 5536.460
256.7390, 5516.792
257.9520, 5454.000
259.1640, 5418.000
260.3760, 5354.462
261.5880, 5320.122
262.8000, 5285.000
264.0120, 5344.000
265.2240, 5316.000
266.4350, 5381.000
267.6470, 5392.000
268.8580, 5279.000
270.0690, 5281.000
271.2800, 5397.000
272.4910, 5486.000
273.7020, 5332.000
274.9120, 5389.000
276.1230, 5373.000
277.3330, 5555.000
278.5430, 5511.000
279.7530, 5527.000
280.9630, 5537.000
282.1720, 5449.000
283.3820, 5532.000
284.5910, 5393.000
285.8000, 5490.000
287.0090, 5752.000
288.2180, 5776.000
289.4270, 6167.000
290.6360, 6225.000
291.8440, 6572.000
293.0530, 7181.000
294.2610, 7487.000
295.4690, 7840.000
296.6770, 7727.000
297.8850, 7171.000
299.0920, 6456.000
300.3000, 5921.000
301.5070, 5683.000
302.7140, 5535.000
303.9210, 5427.000
305.1280, 5368.000
306.3350, 5262.000
307.5420, 5228.000
308.7480, 5283.000
309.9540, 5275.000
311.1600, 5349.000
312.3660, 5281.000
313.5720, 5261.000
314.7780, 5352.000
315.9840, 5449.000
317.1890, 5328.000
318.3940, 5343.000
319.6000, 5377.000
320.8050, 5378.000
322.0090, 5338.000
323.2140, 5342.000
324.4190, 5323.000
325.6230, 5453.000
326.8270, 5419.000
328.0320, 5458.000
329.2360, 5459.000
330.4390, 5454.811
331.6430, 5501.000
332.8470, 5427.000
334.0500, 5500.000
335.2530, 5430.000
336.4560, 5380.000
337.6590, 5630.000
338.8620, 5442.000
340.0650, 5659.000
341.2670, 5632.000
342.4700, 5699.000
343.6720, 5797.000
344.8740, 5718.000
346.0760, 5725.000
347.2780, 6007.000
348.4790, 5725.000
349.6810, 5781.000
350.8820, 5534.000
352.0830, 5560.000
353.2840, 5448.000
354.4850, 5569.000
355.6860, 5594.000
356.8870, 5552.000
358.0870, 5501.000
359.2870, 5583.000
360.4880, 5508.000
361.6880, 5583.000
362.8870, 5365.000
364.0870, 5401.000
365.2870, 5470.000
366.4860, 5517.000
367.6850, 5540.000
368.8850, 5526.000
370.0840, 5577.000
371.2820, 5540.000
372.4810, 5521.000
373.6800, 5523.000
374.8780, 5531.000
376.0760, 5452.000
377.2740, 5578.000
378.4720, 5518.000
379.6700, 5590.000
380.8680, 5535.000
382.0650, 5559.492
383.2630, 5622.000
384.4600, 5588.000
385.6570, 5580.000
386.8540, 5587.000
388.0510, 5672.000
389.2470, 5619.000
390.4440, 5556.000
391.6400, 5700.000
392.8360, 5628.000
394.0320, 5670.000
395.2280, 5668.000
396.4240, 5623.000
397.6190, 5620.000
398.8150, 5700.000
400.0100, 5606.000
401.2050, 5597.000
402.4000, 5654.000
403.5950, 5737.000
404.7900, 5610.000
405.9840, 5740.000
407.1790, 5727.000
408.3730, 5739.000
409.5670, 5799.000
410.7610, 5822.000
411.9550, 5818.000
413.1480, 5697.000
414.3420, 5655.000
415.5350, 5812.000
416.7280, 5698.000
417.9220, 5825.000
419.1140, 5827.000
420.3070, 5656.000
421.5000, 5798.000
422.6920, 5925.000
423.8850, 5872.202
425.0770, 5928.000
426.2690, 5902.000
427.4610, 6014.000
428.6520, 6009.000
429.8440, 5985.000
431.0350, 6131.000
432.2260, 6174.000
433.4180, 6170.000
434.6090, 6313.000
435.7990, 6564.000
436.9900, 6692.000
438.1800, 6898.000
439.3710, 7150.000
440.5610, 7445.000
441.7510, 7870.000
442.9410, 7980.000
444.1310, 7906.000
445.3200, 7671.000
446.5100, 7182.000
447.6990, 6693.000
448.8880, 6503.000
450.0770, 6255.000
451.2660, 6150.000
452.4550, 6083.000
453.6430, 5963.000
454.8320, 5986.000
456.0200, 6119.000
457.2080, 5973.000
458.3960, 6027.000
459.5840, 6062.000
460.7720, 6025.000
461.9590, 6148.000
463.1460, 6075.000
464.3340, 6075.000
465.5210, 6164.000
466.7080, 6145.000
467.8940, 6186.000
469.0810, 6345.000
470.2670, 6445.000
471.4540, 6441.000
472.6400, 6674.000
473.8260, 6889.000
475.0120, 7344.000
476.1970, 7604.000
477.3830, 8188.000
478.5680, 8466.000
479.7540, 8556.000
480.9390, 8258.000
482.1240, 7827.000
483.3080, 7327.000
484.4930, 6974.000
485.6780, 6751.000
486.8620, 6447.000
488.0460, 6242.000
489.2300, 6184.000
490.4140, 6285.000
491.5980, 6147.000
492.7810, 6273.000
493.9650, 6155.000
495.1480, 6246.000
496.3310, 6153.000
497.5140, 6039.000
498.6970, 6174.000
499.8800, 6199.000
501.0620, 6179.000
502.2440, 6155.000
503.4270, 6222.000
504.6090, 6243.000
505.7910, 6180.000
506.9720, 6232.000
508.1540, 6290.000
509.3350, 6312.000
510.5170, 6341.278
511.6980, 6366.000
512.8790, 6388.000
514.0600, 6366.000
515.2400, 6425.000
516.4210, 6740.000
517.6010, 6674.456
518.7810, 6772.000
519.9620, 6807.000
521.1410, 6765.000
522.3210, 6935.000
523.5010, 6930.000
524.6800, 7029.000
525.8600, 6856.000
527.0390, 6641.000
528.2180, 6581.000
529.3970, 6496.000
530.5750, 6406.044
531.7540, 6421.000
532.9320, 6348.000
534.1110, 6421.000
535.2890, 6498.000
536.4670, 6418.000
537.6440, 6420.000
538.8220, 6439.000
540.0000, 6495.000
541.1770, 6360.000
542.3540, 6412.000
543.5310, 6577.000
544.7080, 6452.000
545.8850, 6537.000
547.0610, 6583.000
548.2380, 6497.774
549.4140, 6515.000
550.5900, 6411.000
551.7660, 6513.000
552.9420, 6516.000
554.1170, 6496.000
555.2930, 6419.000
556.4680, 6577.000
557.6430, 6550.000
558.8180, 6514.000
559.9930, 6534.000
561.1680, 6543.000
562.3430, 6604.000
563.5170, 6621.000
564.6910, 6628.000
565.8650, 6678.000
567.0390, 6606.000
568.2130, 6712.000
569.3870, 6784.000
570.5600, 6710.000
571.7340, 6750.000
572.9070, 6832.000
574.0800, 6887.000
575.2530, 6713.000
576.4250, 6884.000
577.5980, 6758.000
578.7700, 6847.000
579.9430, 6754.000
581.1150, 6773.000
582.2870, 6686.000
583.4590, 6710.000
584.6300, 6854.000
585.8020, 7042.000
586.9730, 7253.000
588.1440, 7626.000
589.3150, 8044.000
590.4860, 8604.000
591.6570, 9507.000
592.8270, 10760.00
593.9980, 12080.00
595.1680, 13997.00
596.3380, 16857.00
597.5080, 19620.00
598.6780, 20343.00
599.8480, 18296.00
601.0170, 15006.00
602.1860, 11748.00
603.3550, 9843.000
604.5240, 8543.000
605.6930, 7701.000
606.8620, 7374.000
608.0310, 7144.000
609.1990, 7195.000
610.3670, 7075.000
611.5350, 7184.000
612.7030, 7149.000
613.8710, 7102.000
615.0390, 7068.000
616.2060, 7031.000
617.3730, 7038.000
618.5410, 6978.000
619.7080, 6972.000
620.8740, 6918.000
622.0410, 6759.000
623.2080, 6843.000
624.3740, 6928.000
625.5400, 6750.000
626.7060, 6864.000
627.8720, 6767.000
629.0380, 6610.000
630.2040, 6918.000
631.3690, 6899.000
632.5340, 6844.000
633.6990, 6824.000
634.8640, 6859.000
636.0290, 6925.000
637.1940, 6864.000
638.3580, 6841.000
639.5230, 6956.000
640.6870, 6905.000
641.8510, 6785.000
643.0150, 6898.000
644.1790, 6995.000
645.3420, 6917.000
646.5060, 6905.000
647.6690, 7001.000
648.8320, 6794.000
649.9950, 6958.000
651.1580, 6985.000
652.3200, 6922.000
653.4830, 7019.000
654.6450, 7030.000
655.8070, 6912.000
656.9690, 6874.000
658.1310, 6881.000
659.2930, 6975.000
660.4540, 7058.000
661.6160, 6972.000
662.7770, 7133.000
663.9380, 7111.000
665.0990, 7086.000
666.2600, 7140.000
667.4200, 7172.000
668.5810, 7070.000
669.7410, 7126.000
670.9010, 7113.000
672.0610, 7201.000
673.2210, 7111.000
674.3810, 7343.000
675.5400, 7281.000
676.6990, 7401.000
677.8590, 7447.000
679.0180, 7583.000
680.1760, 7793.000
681.3350, 7922.000
682.4940, 8043.000
683.6520, 8262.000
684.8100, 8262.000
685.9680, 8433.000
687.1260, 8222.000
688.2840, 8211.000
689.4420, 7940.000
690.5990, 7892.000
691.7560, 8011.000
692.9140, 7930.000
694.0710, 8040.000
695.2270, 8260.000
696.3840, 8390.000
697.5410, 8360.000
698.6970, 8193.000
699.8530, 8108.000
701.0090, 8075.000
702.1650, 8021.000
703.3210, 7858.000
704.4760, 7911.000
705.6320, 7590.000
706.7870, 7777.000
707.9420, 7513.000
709.0970, 7530.000
710.2520, 7415.000
711.4060, 7379.000
712.5610, 7415.000
713.7150, 7478.000
714.8690, 7446.000
716.0230, 7399.000
717.1770, 7389.000
718.3310, 7499.000
719.4840, 7328.000
720.6380, 7501.000
721.7910, 7450.000
722.9440, 7505.000
724.0970, 7583.000
725.2490, 7544.000
726.4020, 7597.000
727.5540, 7592.000
728.7070, 7778.000
729.8590, 7687.000
731.0110, 7761.000
732.1620, 7543.000
733.3140, 7461.000
734.4650, 7629.000
735.6170, 7654.000
736.7680, 7524.000
737.9190, 7474.000
739.0700, 7485.000
740.2200, 7433.392
741.3710, 7464.550
742.5210, 7453.000
743.6710, 7524.000
744.8210, 7593.000
745.9710, 7621.000
747.1210, 7580.000
748.2700, 7640.000
749.4200, 7604.000
750.5690, 7785.000
751.7180, 7824.000
752.8670, 7895.000
754.0160, 7938.000
755.1640, 8219.000
756.3130, 8358.000
757.4610, 8724.000
758.6090, 9018.000
759.7570, 9516.000
760.9050, 9995.000
762.0530, 10805.00
763.2000, 11312.00
764.3470, 11721.00
765.4940, 11586.00
766.6410, 11043.00
767.7880, 10356.00
768.9350, 9789.000
770.0810, 9527.000
771.2280, 9258.000
772.3740, 9265.000
773.5200, 9445.000
774.6660, 9588.000
775.8120, 9708.441
776.9570, 9829.000
778.1030, 10014.00
779.2480, 10121.00
780.3930, 10252.00
781.5380, 10642.00
782.6830, 11251.00
783.8270, 12075.00
784.9720, 12496.00
786.1160, 12567.00
787.2600, 12017.00
788.4040, 11336.00
789.5480, 10412.00
790.6910, 9660.000
791.8350, 9045.000
792.9780, 8815.000
794.1210, 8490.000
795.2640, 8547.000
796.4070, 8317.000
797.5500, 8321.000
798.6920, 8363.000
799.8350, 8314.000
800.9770, 8188.000
802.1190, 8330.000
803.2610, 8318.000
804.4030, 8200.000
805.5440, 8318.000
806.6850, 8134.000
807.8270, 8280.000
808.9680, 8241.000
810.1090, 8234.000
811.2490, 8199.000
812.3900, 8127.000
813.5300, 8276.000
814.6710, 8191.000
815.8110, 8162.000
816.9510, 8074.000
818.0910, 8163.000
819.2300, 8223.000
820.3700, 8184.000
821.5090, 8271.000
822.6480, 8326.000
823.7870, 8304.000
824.9260, 8318.000
826.0640, 8303.000
827.2030, 8312.874
828.3410, 8141.000
829.4790, 8368.000
830.6170, 8330.000
831.7550, 8426.000
832.8930, 8590.000
834.0310, 8530.000
835.1680, 8484.000
836.3050, 8593.000
837.4420, 8600.000
838.5790, 8702.000
839.7160, 8762.000
840.8520, 8815.276
841.9890, 8955.000
843.1250, 8940.000
844.2610, 8996.000
845.3970, 9054.000
846.5330, 9174.000
847.6680, 9369.000
848.8040, 9542.000
849.9390, 9674.000
851.0740, 9681.000
852.2090, 9891.000
853.3440, 10074.00
854.4780, 10399.00
855.6130, 10758.00
856.7470, 11201.00
857.8810, 11646.00
859.0150, 12128.00
860.1490, 12959.00
861.2830, 13644.00
862.4160, 14940.00
863.5490, 16466.00
864.6830, 18761.00
865.8160, 21961.00
866.9480, 26979.00
868.0810, 34433.00
869.2140, 45100.00
870.3460, 59068.00
871.4780, 78910.00
872.6100, 105787.0
873.7420, 142609.0
874.8740, 187260.0
876.0050, 240980.0
877.1370, 292343.0
878.2680, 311888.0
879.3990, 285930.0
880.5300, 223686.0
881.6600, 157344.0
882.7910, 107083.0
883.9210, 74639.00
885.0520, 53477.00
886.1820, 40226.00
887.3120, 32204.00
888.4410, 26770.00
889.5710, 23184.00
890.7000, 20925.00
891.8300, 19284.00
892.9590, 17925.00
894.0880, 16833.00
895.2160, 15741.00
896.3450, 15236.00
897.4730, 15869.00
898.6020, 17552.00
899.7300, 18206.00
900.8580, 20065.00
901.9860, 13289.00
903.1130, 12645.00
904.2410, 12311.00
905.3680, 12160.00
906.4950, 12080.00
907.6220, 12050.00
908.7490, 12327.00
909.8760, 12350.00
911.0020, 12617.00
912.1280, 12899.00
913.2550, 12989.00
914.3810, 13330.00
915.5060, 13621.00
916.6320, 13693.00
917.7580, 13343.00
918.8830, 12745.00
920.0080, 12272.00
921.1330, 11699.00
922.2580, 11331.00
923.3830, 11115.00
924.5070, 10989.00
925.6310, 10831.00
926.7560, 10856.00
927.8800, 10851.00
929.0040, 11098.00
930.1270, 11299.00
931.2510, 11614.00
932.3740, 11862.00
933.4970, 12285.00
934.6200, 12906.00
935.7430, 13363.00
936.8660, 13675.00
937.9890, 13986.00
939.1110, 14095.00
940.2330, 14041.00
941.3550, 14304.00
942.4770, 14833.00
943.5990, 15805.00
944.7200, 17468.00
945.8420, 19236.00
946.9630, 21781.00
948.0840, 24597.00
949.2050, 26708.00
950.3260, 27047.00
951.4460, 25198.00
952.5670, 21354.00
953.6870, 17932.00
954.8070, 14799.00
955.9270, 12973.00
957.0470, 11792.00
958.1660, 10811.00
959.2860, 10420.00
960.4050, 10048.00
961.5240, 9978.000
962.6430, 9636.000
963.7620, 9526.000
964.8810, 9543.000
965.9990, 9359.000
967.1170, 9464.000
968.2350, 9382.000
969.3530, 9332.000
970.4710, 9522.000
971.5890, 9175.000
972.7060, 9426.000
973.8240, 9337.000
974.9410, 9177.000
976.0580, 9065.000
977.1740, 9148.000
978.2910, 9220.000
979.4080, 9240.000
980.5240, 9186.000
981.6400, 9211.000
982.7560, 9210.000
983.8720, 9121.000
984.9870, 9152.000
986.1030, 9185.000
987.2180, 9210.000
988.3330, 9212.000
989.4480, 9280.648
990.5630, 9280.803
991.6780, 9381.000
992.7920, 9358.000
993.9070, 9346.000
995.0210, 9475.000
996.1350, 9491.000
997.2490, 9456.000
998.3620, 9392.000
999.4760, 9449.000
1000.589, 9469.000
1001.702, 9592.000
1002.815, 9562.000
1003.928, 9554.000
1005.041, 9756.000
1006.153, 9995.000
1007.266, 10271.00
1008.378, 10469.00
1009.490, 10723.00
1010.602, 10760.00
1011.713, 10769.00
1012.825, 10566.00
1013.936, 10323.00
1015.047, 9992.000
1016.158, 9672.000
1017.269, 9721.000
1018.380, 9384.000
1019.490, 9485.000
1020.601, 9437.000
1021.711, 9280.000
1022.821, 9305.000
1023.931, 9223.000
1025.040, 9239.000
1026.150, 9236.000
1027.259, 9202.000
1028.368, 9200.000
1029.477, 9191.346
1030.586, 9225.000
1031.695, 9168.000
1032.803, 9233.000
1033.912, 9194.000
1035.020, 9253.000
1036.128, 9172.000
1037.236, 9259.000
1038.343, 9222.000
1039.451, 9209.000
1040.558, 9128.000
1041.665, 9250.000
1042.772, 9263.000
1043.879, 9202.000
1044.986, 9135.000
1046.093, 9346.000
1047.199, 9303.000
1048.305, 9291.000
1049.411, 9291.000
1050.517, 9364.000
1051.623, 9287.000
1052.728, 9358.000
1053.833, 9319.000
1054.939, 9370.000
1056.044, 9349.000
1057.148, 9300.000
1058.253, 9254.000
1059.358, 9287.000
1060.462, 9301.000
1061.566, 9360.000
1062.670, 9362.000
1063.774, 9357.000
1064.878, 9361.000
1065.981, 9236.000
1067.085, 9298.000
1068.188, 9255.000
1069.291, 9437.000
1070.394, 10083.00
1071.496, 10340.00
1072.599, 10295.00
1073.701, 9655.000
1074.803, 9457.000
1075.905, 9347.000
1077.007, 9312.000
1078.109, 9371.000
1079.210, 9422.000
1080.312, 9323.000
1081.413, 9337.000
1082.514, 9312.000
1083.615, 9480.000
1084.715, 9514.000
1085.816, 9426.000
1086.916, 9387.000
1088.016, 9406.000
1089.116, 9376.000
1090.216, 9548.000
1091.316, 9380.000
1092.415, 9493.000
1093.515, 9500.000
1094.614, 9363.000
1095.713, 9416.000
1096.812, 9489.000
1097.910, 9523.000
1099.009, 9448.000
1100.107, 9452.000
1101.205, 9363.000
1102.303, 9481.000
1103.401, 9552.000
1104.499, 9531.000
1105.596, 9543.000
1106.693, 9664.000
1107.791, 9549.000
1108.888, 9521.000
1109.984, 9567.000
1111.081, 9504.879
1112.177, 9570.000
1113.274, 9487.000
1114.370, 9562.000
1115.466, 9565.000
1116.562, 9759.000
1117.657, 9623.000
1118.753, 9668.000
1119.848, 9661.000
1120.943, 9622.000
1122.038, 9616.000
1123.133, 9732.000
1124.228, 9562.000
1125.322, 9478.000
1126.416, 9645.000
1127.510, 9674.000
1128.604, 9673.000
1129.698, 9543.000
1130.792, 9659.000
1131.885, 9654.000
1132.978, 9552.000
1134.071, 9642.000
1135.164, 9503.000
1136.257, 9474.000
1137.350, 9566.000
1138.442, 9639.000
1139.534, 9487.000
1140.627, 9644.000
1141.718, 9518.000
1142.810, 9633.000
1143.902, 9740.000
1144.993, 9632.000
1146.084, 9683.000
1147.176, 9710.000
1148.266, 9566.000
1149.357, 9731.000
1150.448, 9595.000
1151.538, 9681.000
1152.628, 9638.000
1153.718, 9707.000
1154.808, 9622.000
1155.898, 9713.000
1156.988, 9593.000
1158.077, 9706.000
1159.166, 9615.000
1160.255, 9563.000
1161.344, 9784.000
1162.433, 9736.000
1163.521, 9560.000
1164.610, 9740.000
1165.698, 9644.000
1166.786, 9681.000
1167.874, 9752.000
1168.961, 9698.000
1170.049, 9651.000
1171.136, 9723.000
1172.224, 9698.000
1173.311, 9657.000
1174.397, 9749.000
1175.484, 9677.000
1176.571, 9682.459
1177.657, 9741.000
1178.743, 9707.000
1179.829, 9740.000
1180.915, 9769.543
1182.001, 9872.000
1183.086, 9839.000
1184.171, 9854.000
1185.256, 9901.000
1186.341, 9857.000
1187.426, 9841.000
1188.511, 9853.000
1189.595, 9780.000
1190.680, 9806.497
1191.764, 9814.000
1192.848, 9840.000
1193.932, 9907.000
1195.015, 9974.000
1196.099, 9879.000
1197.182, 9984.000
1198.265, 9878.000
1199.348, 10176.00
1200.431, 10029.00
1201.513, 10082.00
1202.596, 10098.00
1203.678, 10118.00
1204.760, 10026.00
1205.842, 10006.00
1206.924, 10091.00
1208.005, 10220.00
1209.087, 10210.00
1210.168, 10207.00
1211.249, 10080.00
1212.330, 10053.00
1213.411, 9984.000
1214.491, 10140.00
1215.572, 10259.00
1216.652, 10104.00
1217.732, 10032.00
1218.812, 10282.00
1219.891, 10007.00
1220.971, 9972.000
1222.050, 10098.00
1223.129, 10098.00
1224.208, 10094.00
1225.287, 10118.80
1226.366, 10094.83
1227.444, 10084.00
1228.523, 10085.00
1229.601, 10061.00
1230.679, 10108.00
1231.757, 10155.00
1232.834, 10048.00
1233.912, 10169.00
1234.989, 10225.00
1236.066, 10119.00
1237.143, 10204.77
1238.220, 10082.00
1239.297, 10188.00
1240.373, 10128.00
1241.449, 10044.00
1242.526, 10185.00
1243.601, 10194.00
1244.677, 10137.00
1245.753, 10101.00
1246.828, 10108.00
1247.904, 10134.00
1248.979, 10134.00
1250.054, 10185.00
1251.128, 10134.00
1252.203, 10098.00
1253.277, 10207.00
1254.351, 10253.00
1255.426, 10190.00
1256.499, 10238.00
1257.573, 10245.00
1258.647, 10217.00
1259.720, 10320.00
1260.793, 10255.00
1261.866, 10261.00
1262.939, 10212.00
1264.012, 10129.00
1265.084, 10189.00
1266.157, 10229.00
1267.229, 10150.00
1268.301, 10196.00
1269.373, 10125.00
1270.444, 10166.00
1271.516, 10064.00
1272.587, 10231.00
1273.658, 10193.00
1274.729, 10215.00
1275.800, 10287.00
1276.871, 10260.00
1277.941, 10274.81
1279.011, 10252.00
1280.082, 10257.00
1281.151, 10244.00
1282.221, 10250.00
1283.291, 10294.00
1284.360, 10282.00
1285.430, 10193.00
1286.499, 10280.00
1287.568, 10209.00
1288.636, 10232.00
1289.705, 10271.00
1290.773, 10399.00
1291.841, 10150.00
1292.909, 10321.00
1293.977, 10223.00
1295.045, 10291.00
1296.113, 10279.00
1297.180, 10188.00
1298.247, 10324.00
1299.314, 10256.00
1300.381, 10222.00
1301.448, 10476.00
1302.514, 10399.00
1303.580, 10293.00
1304.647, 10436.00
1305.713, 10478.00
1306.778, 10276.00
1307.844, 10345.00
1308.910, 10332.00
1309.975, 10387.00
1311.040, 10512.00
1312.105, 10457.00
1313.170, 10498.91
1314.234, 10316.00
1315.299, 10467.00
1316.363, 10330.00
1317.427, 10286.00
1318.491, 10410.00
1319.555, 10422.00
1320.618, 10417.00
1321.682, 10473.00
1322.745, 10579.00
1323.808, 10634.00
1324.871, 10536.00
1325.933, 10638.00
1326.996, 10635.00
1328.058, 10499.00
1329.121, 10646.00
1330.183, 10507.00
1331.244, 10627.00
1332.306, 10699.00
1333.368, 10382.00
1334.429, 10659.00
1335.490, 10611.00
1336.551, 10689.00
1337.612, 10649.00
1338.672, 10631.00
1339.733, 10503.00
1340.793, 10557.00
1341.853, 10680.00
1342.913, 10728.00
1343.973, 10636.00
1345.033, 10569.00
1346.092, 10537.00
1347.151, 10598.00
1348.210, 10585.08
1349.269, 10523.00
1350.328, 10682.00
1351.386, 10627.00
1352.445, 10723.00
1353.503, 10703.00
1354.561, 10602.00
1355.619, 10772.00
1356.677, 10587.00
1357.734, 10751.00
1358.791, 10622.00
1359.849, 10631.00
1360.906, 10761.00
1361.962, 10612.00
1363.019, 10601.00
1364.075, 10807.00
1365.132, 10728.00
1366.188, 10701.00
1367.244, 10693.00
1368.300, 10716.00
1369.355, 10667.00
1370.411, 10664.00
1371.466, 10743.00
1372.521, 10672.00
1373.576, 10853.00
1374.631, 10776.00
1375.685, 10828.00
1376.740, 10869.00
1377.794, 10649.00
1378.848, 10819.00
1379.902, 10697.00
1380.955, 10661.00
1382.009, 10806.00
1383.062, 10871.00
1384.115, 10652.00
1385.168, 10781.99
1386.221, 10864.00
1387.274, 10751.00
1388.326, 10906.00
1389.379, 10809.00
1390.431, 10846.00
1391.483, 10834.00
1392.534, 10841.00
1393.586, 10784.00
1394.637, 10772.00
1395.689, 10807.00
1396.740, 10782.00
1397.791, 10854.00
1398.841, 10958.00
1399.892, 10756.00
1400.942, 10679.00
1401.993, 10915.00
1403.043, 10983.00
1404.092, 10813.00
1405.142, 10868.00
1406.192, 10754.00
1407.241, 10889.00
1408.290, 10859.00
1409.339, 10983.00
1410.388, 10876.00
1411.437, 10947.00
1412.485, 10918.00
1413.533, 10840.00
1414.581, 10779.00
1415.629, 10908.00
1416.677, 10897.00
1417.725, 10892.00
1418.772, 10892.00
1419.819, 10797.00
1420.867, 10858.00
1421.913, 10864.00
1422.960, 11002.00
1424.007, 10953.00
1425.053, 10916.00
1426.099, 10980.00
1427.145, 10953.15
1428.191, 10897.00
1429.237, 11004.00
1430.282, 10989.00
1431.328, 11053.00
1432.373, 10933.00
1433.418, 10836.00
1434.462, 10919.00
1435.507, 11008.00
1436.552, 11027.00
1437.596, 11020.00
1438.640, 10977.00
1439.684, 10978.00
1440.728, 11052.00
1441.771, 11082.00
1442.815, 11103.00
1443.858, 11105.45
1444.901, 11080.00
1445.944, 11083.00
1446.986, 11062.00
1448.029, 11084.00
1449.071, 11108.00
1450.113, 11169.00
1451.155, 11067.00
1452.197, 11225.00
1453.239, 11124.00
1454.280, 11189.00
1455.322, 11103.00
1456.363, 11151.00
1457.404, 11139.00
1458.444, 11133.00
1459.485, 11101.00
1460.525, 11043.00
1461.566, 11154.00
1462.606, 11217.00
1463.646, 11091.00
1464.685, 11107.00
1465.725, 10960.00
1466.764, 11206.00
1467.803, 11213.00
1468.842, 11152.00
1469.881, 11237.00
1470.920, 11139.00
1471.958, 11191.00
1472.997, 11238.00
1474.035, 11150.00
1475.073, 11202.00
1476.111, 11053.00
1477.148, 11059.00
1478.186, 11081.57
1479.223, 11155.00
1480.260, 11137.00
1481.297, 11183.00
1482.334, 11182.00
1483.370, 11278.00
1484.407, 11148.00
1485.443, 11298.00
1486.479, 11133.00
1487.515, 11336.00
1488.550, 11222.00
1489.586, 11211.00
1490.621, 11174.00
1491.656, 11262.00
1492.691, 11366.00
1493.726, 11224.00
1494.761, 11288.00
1495.795, 11202.00
1496.829, 11306.00
1497.863, 11340.00
1498.897, 11297.00
1499.931, 11383.00
1500.965, 11269.00
1501.998, 11284.00
1503.031, 11383.00
1504.064, 11313.00
1505.097, 11343.00
1506.130, 11384.52
1507.162, 11284.00
1508.195, 11403.00
1509.227, 11400.00
1510.259, 11290.00
1511.291, 11375.00
1512.322, 11492.00
1513.354, 11293.00
1514.385, 11433.00
1515.416, 11341.00
1516.447, 11438.00
1517.478, 11307.00
1518.508, 11203.00
1519.539, 11513.00
1520.569, 11449.00
1521.599, 11275.00
1522.629, 11399.00
1523.658, 11520.00
1524.688, 11542.00
1525.717, 11429.00
1526.746, 11369.00
1527.775, 11523.00
1528.804, 11378.00
1529.833, 11463.00
1530.861, 11376.00
1531.890, 11470.00
1532.918, 11401.00
1533.946, 11430.00
1534.973, 11447.00
1536.001, 11425.38
1537.028, 11468.00
1538.055, 11482.00
1539.082, 11391.00
1540.109, 11532.00
1541.136, 11340.00
1542.163, 11514.00
1543.189, 11427.00
1544.215, 11404.00
1545.241, 11592.00
1546.267, 11507.00
1547.292, 11531.00
1548.318, 11409.00
1549.343, 11554.00
1550.368, 11541.00
1551.393, 11609.00
1552.418, 11585.00
1553.442, 11638.00
1554.467, 11563.00
1555.491, 11586.00
1556.515, 11542.00
1557.539, 11579.00
1558.562, 11551.00
1559.586, 11600.00
1560.609, 11607.76
1561.632, 11640.00
1562.655, 11661.00
1563.678, 11612.00
1564.701, 11665.00
1565.723, 11638.00
1566.745, 11749.00
1567.768, 11559.00
1568.789, 11649.00
1569.811, 11508.00
1570.833, 11671.00
1571.854, 11657.00
1572.875, 11712.00
1573.896, 11575.00
1574.917, 11656.00
1575.938, 11591.00
1576.958, 11693.00
##END=



