##NAMES=Phillipsite-Ca
##RRUFFID=R050078
##IDEAL CHEMISTRY=Ca_3_(Si_10_Al_6_)O_32_&#183;12H_2_O
##LOCALITY=Grant County, Oregon, USA
##OWNER=RRUFF
##SOURCE=Rock Currier
##DESCRIPTION=White tabular hexagonal
##STATUS=The identification of this mineral has been confirmed by X-ray diffraction and chemical analysis
##URL=rruff.info/R050078
##MEASURED CHEMISTRY=(Ca_0.90_K_0.75_[box]_0.25_Na_0.10_)_Σ=2_(Si_5.35_Al_2.65_)_Σ=8_O_16_·6H_2_O
##PIN_ID=L01729
##ORIENTATION=Laser parallel to -b* (0 -1 0). Fiducial mark perpendicular to laser is parallel to c [0 0 1]
267.2150, 14846.00
268.4270, 14609.00
269.6400, 14526.00
270.8520, 14701.00
272.0640, 14618.00
273.2760, 14469.00
274.4880, 14534.00
275.7000, 14419.00
276.9120, 14409.00
278.1230, 14255.00
279.3340, 14281.00
280.5450, 14133.00
281.7560, 14243.00
282.9670, 14287.00
284.1780, 14328.00
285.3880, 14222.00
286.5980, 14204.00
287.8090, 14101.00
289.0190, 14079.00
290.2290, 14170.00
291.4380, 14051.00
292.6480, 14079.00
293.8570, 14154.00
295.0670, 14110.00
296.2760, 14061.00
297.4850, 14074.00
298.6930, 14129.00
299.9020, 13898.00
301.1110, 13980.00
302.3190, 13871.00
303.5270, 13891.00
304.7350, 13894.00
305.9430, 14017.00
307.1510, 14073.00
308.3580, 13975.00
309.5660, 14183.00
310.7730, 14338.00
311.9800, 14286.00
313.1870, 14177.00
314.3940, 14104.00
315.6010, 14400.00
316.8070, 14293.00
318.0130, 14493.00
319.2200, 14383.00
320.4260, 14351.00
321.6310, 14500.00
322.8370, 14573.00
324.0430, 14610.00
325.2480, 14550.00
326.4540, 14504.00
327.6590, 14380.00
328.8640, 14534.00
330.0680, 14438.00
331.2730, 14615.00
332.4780, 14378.00
333.6820, 14245.00
334.8860, 14282.00
336.0900, 14332.00
337.2940, 14027.00
338.4980, 13956.00
339.7010, 14034.00
340.9050, 13928.00
342.1080, 13882.00
343.3110, 13886.00
344.5140, 13925.00
345.7170, 13936.00
346.9200, 13961.00
348.1220, 13803.00
349.3240, 13884.00
350.5270, 13764.00
351.7290, 13836.00
352.9310, 13784.00
354.1320, 13894.00
355.3340, 13933.00
356.5350, 13894.00
357.7370, 13747.00
358.9380, 14015.00
360.1390, 14085.00
361.3400, 13966.00
362.5400, 14085.00
363.7410, 14084.00
364.9410, 14086.00
366.1410, 14283.00
367.3410, 14451.00
368.5410, 14423.00
369.7410, 14464.00
370.9400, 14542.00
372.1400, 14628.00
373.3390, 14666.00
374.5380, 14824.00
375.7370, 14887.52
376.9360, 15057.00
378.1350, 15096.00
379.3330, 15166.00
380.5310, 15307.00
381.7300, 15490.00
382.9280, 15721.00
384.1260, 15771.00
385.3230, 15903.00
386.5210, 16303.00
387.7180, 16489.00
388.9160, 16588.00
390.1130, 16797.00
391.3100, 17099.00
392.5060, 17196.00
393.7030, 17310.00
394.9000, 17481.00
396.0960, 17841.00
397.2920, 17959.00
398.4880, 18114.00
399.6840, 18526.00
400.8800, 18535.00
402.0750, 18827.00
403.2710, 19277.00
404.4660, 19261.00
405.6610, 19602.00
406.8560, 20051.00
408.0510, 20489.00
409.2450, 20893.00
410.4400, 21334.00
411.6340, 21512.00
412.8280, 22348.00
414.0220, 22729.00
415.2160, 23473.00
416.4100, 23850.00
417.6030, 24154.00
418.7970, 24871.00
419.9900, 25099.00
421.1830, 25378.00
422.3760, 25687.00
423.5690, 25818.00
424.7610, 25703.00
425.9540, 25592.00
427.1460, 25488.00
428.3380, 25284.00
429.5300, 25272.00
430.7220, 25036.00
431.9140, 24658.00
433.1050, 24659.00
434.2970, 24702.00
435.4880, 24829.00
436.6790, 24866.00
437.8700, 25137.00
439.0610, 25293.00
440.2510, 25823.00
441.4420, 26419.00
442.6320, 26810.00
443.8220, 27696.00
445.0120, 28273.00
446.2020, 29465.00
447.3910, 30187.00
448.5810, 31435.00
449.7700, 32632.00
450.9600, 34014.00
452.1490, 35602.00
453.3370, 37023.00
454.5260, 38503.00
455.7150, 40333.00
456.9030, 41958.00
458.0910, 43439.00
459.2800, 45372.00
460.4670, 46850.00
461.6550, 48166.00
462.8430, 49514.00
464.0300, 50905.00
465.2180, 52271.00
466.4050, 53130.00
467.5920, 54336.00
468.7790, 54787.00
469.9650, 55526.00
471.1520, 56243.00
472.3380, 56861.00
473.5250, 57293.93
474.7110, 57834.00
475.8970, 58021.00
477.0820, 58001.00
478.2680, 58378.00
479.4540, 58054.00
480.6390, 57839.00
481.8240, 57395.00
483.0090, 56430.00
484.1940, 55589.00
485.3780, 54486.00
486.5630, 52629.00
487.7470, 51212.00
488.9320, 49560.00
490.1160, 47010.00
491.3000, 44687.00
492.4830, 42648.00
493.6670, 40799.00
494.8500, 38857.00
496.0340, 36508.00
497.2170, 34792.00
498.4000, 32699.00
499.5820, 31105.00
500.7650, 29646.00
501.9480, 28189.00
503.1300, 26979.00
504.3120, 25891.86
505.4940, 24939.00
506.6760, 24111.00
507.8580, 23315.00
509.0390, 22685.00
510.2210, 22098.00
511.4020, 21539.00
512.5830, 21098.00
513.7640, 20656.00
514.9450, 20544.00
516.1250, 20377.00
517.3060, 19954.00
518.4860, 20104.00
519.6660, 19597.00
520.8460, 19525.00
522.0260, 19382.00
523.2060, 19282.00
524.3850, 18989.00
525.5650, 18671.00
526.7440, 18507.00
527.9230, 18524.00
529.1020, 18045.00
530.2810, 17920.00
531.4590, 17606.00
532.6380, 17334.00
533.8160, 17198.00
534.9940, 17028.00
536.1720, 16680.00
537.3500, 16566.00
538.5270, 16218.00
539.7050, 16047.00
540.8820, 15964.00
542.0590, 15753.00
543.2360, 15563.00
544.4130, 15390.00
545.5900, 15248.12
546.7660, 15149.00
547.9430, 15011.00
549.1190, 14921.00
550.2950, 14822.00
551.4710, 14926.00
552.6470, 14777.00
553.8220, 14662.00
554.9980, 14660.00
556.1730, 14474.00
557.3480, 14416.00
558.5230, 14308.00
559.6980, 14337.00
560.8730, 14207.00
562.0470, 14087.00
563.2220, 14104.00
564.3960, 14166.00
565.5700, 14007.00
566.7440, 14033.00
567.9170, 13939.00
569.0910, 13958.00
570.2640, 14000.00
571.4380, 13963.00
572.6110, 14000.00
573.7840, 13903.00
574.9570, 13790.00
576.1290, 13843.00
577.3020, 13870.00
578.4740, 13745.00
579.6460, 13822.00
580.8180, 13821.00
581.9900, 13633.00
583.1620, 13638.00
584.3330, 13652.00
585.5040, 13836.00
586.6760, 13658.00
587.8470, 13724.00
589.0180, 13757.00
590.1880, 13782.00
591.3590, 13775.00
592.5290, 13620.00
593.7000, 13738.00
594.8700, 13743.00
596.0400, 13562.00
597.2090, 13677.00
598.3790, 13738.00
599.5490, 13667.00
600.7180, 13709.00
601.8870, 13589.00
603.0560, 13769.00
604.2250, 13543.00
605.3940, 13715.00
606.5620, 13935.00
607.7300, 13829.00
608.8990, 13722.00
610.0670, 13815.00
611.2350, 13850.00
612.4020, 13799.00
613.5700, 13885.00
614.7370, 13908.00
615.9050, 13792.00
617.0720, 13868.00
618.2390, 13863.00
619.4060, 13938.00
620.5720, 13928.17
621.7390, 13942.00
622.9050, 13894.00
624.0710, 13835.00
625.2370, 13774.00
626.4030, 13802.00
627.5690, 13973.00
628.7340, 13884.00
629.9000, 13892.00
631.0650, 14030.00
632.2300, 13941.00
633.3950, 13981.00
634.5600, 13954.00
635.7240, 14048.00
636.8890, 14059.00
638.0530, 14064.00
639.2170, 14063.00
640.3810, 13926.00
641.5450, 14015.00
642.7080, 13996.00
643.8720, 14048.00
645.0350, 14144.00
646.1980, 14042.00
647.3610, 14157.00
648.5240, 14054.00
649.6870, 14143.00
650.8490, 14162.00
652.0120, 14040.00
653.1740, 14059.00
654.3360, 14076.00
655.4980, 14041.00
656.6600, 14141.00
657.8210, 14148.00
658.9830, 14287.00
660.1440, 14123.00
661.3050, 14012.00
662.4660, 14149.00
663.6270, 14315.00
664.7870, 14219.51
665.9480, 14211.88
667.1080, 14154.00
668.2680, 14088.00
669.4280, 14047.00
670.5880, 14226.00
671.7480, 14194.00
672.9070, 14067.00
674.0670, 13880.00
675.2260, 13981.00
676.3850, 14015.00
677.5440, 13866.00
678.7030, 13916.00
679.8610, 14032.00
681.0200, 13890.00
682.1780, 13879.00
683.3360, 14089.00
684.4940, 14047.00
685.6520, 13996.00
686.8090, 14013.00
687.9670, 13906.00
689.1240, 14036.00
690.2810, 14025.00
691.4380, 13965.00
692.5950, 13903.00
693.7520, 13958.00
694.9080, 14033.00
696.0650, 14205.00
697.2210, 14186.00
698.3770, 14182.00
699.5330, 14202.00
700.6880, 14231.00
701.8440, 14140.00
702.9990, 14243.00
704.1550, 14345.00
705.3100, 14128.00
706.4650, 14297.00
707.6190, 14350.00
708.7740, 14249.00
709.9290, 14490.00
711.0830, 14307.00
712.2370, 14546.00
713.3910, 14413.00
714.5450, 14554.00
715.6980, 14521.00
716.8520, 14493.00
718.0050, 14628.00
719.1580, 14804.00
720.3110, 14683.00
721.4640, 14550.00
722.6170, 14860.00
723.7700, 14779.00
724.9220, 14994.00
726.0740, 14817.00
727.2260, 14965.00
728.3780, 14783.00
729.5300, 14883.00
730.6810, 15002.00
731.8330, 15030.00
732.9840, 15033.00
734.1350, 15066.00
735.2860, 15087.37
736.4370, 15280.00
737.5880, 15114.00
738.7380, 15212.00
739.8880, 15175.00
741.0390, 15380.00
742.1890, 15370.00
743.3380, 15343.00
744.4880, 15468.00
745.6380, 15572.00
746.7870, 15604.00
747.9360, 15554.00
749.0850, 15577.00
750.2340, 15823.00
751.3830, 15662.00
752.5310, 15804.00
753.6800, 15961.00
754.8280, 15940.00
755.9760, 16022.00
757.1240, 16055.00
758.2720, 16150.00
759.4190, 16098.00
760.5670, 16178.48
761.7140, 16205.00
762.8610, 16240.00
764.0080, 16224.00
765.1550, 16189.00
766.3020, 15965.00
767.4480, 16225.00
768.5950, 15943.00
769.7410, 15981.00
770.8870, 15814.00
772.0330, 15755.00
773.1780, 15883.00
774.3240, 15715.00
775.4690, 15508.00
776.6140, 15348.00
777.7590, 15577.00
778.9040, 15532.00
780.0490, 15424.00
781.1940, 15374.00
782.3380, 15303.00
783.4820, 15209.00
784.6260, 15127.69
785.7700, 14952.00
786.9140, 14916.00
788.0580, 14829.00
789.2010, 14691.00
790.3450, 14642.00
791.4880, 14683.00
792.6310, 14734.00
793.7730, 14728.00
794.9160, 14523.00
796.0590, 14447.00
797.2010, 14421.00
798.3430, 14219.00
799.4850, 14232.00
800.6270, 14292.00
801.7690, 14262.00
802.9100, 14136.00
804.0520, 14375.00
805.1930, 14151.00
806.3340, 14257.00
807.4750, 14204.00
808.6160, 14122.00
809.7560, 14019.00
810.8970, 14222.00
812.0370, 14076.00
813.1770, 14161.00
814.3170, 14012.00
815.4570, 13993.00
816.5960, 14039.00
817.7360, 14194.00
818.8750, 14106.00
820.0140, 14087.00
821.1530, 14149.00
822.2920, 14093.00
823.4310, 14018.00
824.5690, 13930.00
825.7070, 13948.95
826.8460, 14010.00
827.9840, 14006.00
829.1220, 14022.00
830.2590, 14088.00
831.3970, 13935.00
832.5340, 14071.00
833.6710, 14185.00
834.8080, 14021.00
835.9450, 14127.00
837.0820, 14137.00
838.2190, 13977.00
839.3550, 14039.00
840.4910, 14016.00
841.6270, 14087.00
842.7630, 14120.00
843.8990, 14131.97
845.0350, 14145.00
846.1700, 14165.00
847.3060, 14199.00
848.4410, 14194.00
849.5760, 14265.00
850.7100, 14334.00
851.8450, 14308.58
852.9800, 14260.00
854.1140, 14303.00
855.2480, 14230.00
856.3820, 14266.00
857.5160, 14203.00
858.6500, 14323.00
859.7830, 14238.00
860.9170, 14404.00
862.0500, 14345.00
863.1830, 14387.00
864.3160, 14273.00
865.4480, 14413.00
866.5810, 14306.00
867.7130, 14375.00
868.8460, 14390.00
869.9780, 14383.00
871.1100, 14479.00
872.2410, 14401.00
873.3730, 14485.00
874.5050, 14517.00
875.6360, 14470.00
876.7670, 14401.00
877.8980, 14478.00
879.0290, 14571.00
880.1590, 14453.00
881.2900, 14538.00
882.4200, 14548.00
883.5500, 14575.00
884.6800, 14597.76
885.8100, 14417.00
886.9400, 14642.00
888.0690, 14594.00
889.1990, 14682.00
890.3280, 14497.00
891.4570, 14531.00
892.5860, 14468.00
893.7140, 14546.00
894.8430, 14714.00
895.9710, 14533.00
897.1000, 14553.00
898.2280, 14694.00
899.3560, 14542.00
900.4830, 14633.00
901.6110, 14717.00
902.7380, 14712.00
903.8660, 14810.00
904.9930, 14684.00
906.1200, 14701.00
907.2460, 14894.00
908.3730, 14681.00
909.5000, 14818.00
910.6260, 14798.00
911.7520, 14866.00
912.8780, 14818.00
914.0040, 14785.00
915.1290, 14915.00
916.2550, 14825.00
917.3800, 14897.00
918.5050, 14873.00
919.6300, 14984.00
920.7550, 15009.00
921.8800, 14946.00
923.0040, 14987.00
924.1290, 14971.00
925.2530, 14977.88
926.3770, 14995.00
927.5010, 14998.00
928.6250, 15109.00
929.7480, 15101.00
930.8720, 15185.00
931.9950, 15227.00
933.1180, 15323.00
934.2410, 15278.00
935.3640, 15292.00
936.4860, 15355.00
937.6090, 15331.00
938.7310, 15442.00
939.8530, 15484.00
940.9750, 15544.00
942.0970, 15600.00
943.2180, 15640.00
944.3400, 15751.56
945.4610, 15796.00
946.5820, 15911.00
947.7030, 15936.00
948.8240, 15873.00
949.9450, 15872.00
951.0650, 16013.00
952.1860, 16008.00
953.3060, 16117.00
954.4260, 16126.00
955.5460, 16275.00
956.6650, 16199.00
957.7850, 16152.00
958.9040, 16374.00
960.0230, 16439.00
961.1420, 16397.00
962.2610, 16342.00
963.3800, 16436.00
964.4990, 16619.00
965.6170, 16595.00
966.7350, 16654.00
967.8530, 16698.00
968.9710, 16667.00
970.0890, 16720.00
971.2070, 16801.00
972.3240, 16791.00
973.4410, 16961.00
974.5580, 17116.00
975.6750, 17072.00
976.7920, 17227.00
977.9090, 17050.00
979.0250, 17194.00
980.1410, 17197.00
981.2580, 17187.00
982.3740, 17264.00
983.4890, 17407.00
984.6050, 17338.00
985.7200, 17403.00
986.8360, 17339.00
987.9510, 17514.00
989.0660, 17475.00
990.1810, 17640.00
991.2950, 17626.00
992.4100, 17746.00
993.5240, 17848.00
994.6390, 17741.00
995.7530, 17805.00
996.8660, 17778.00
997.9800, 18087.00
999.0940, 17830.00
1000.207, 17876.00
1001.320, 18086.00
1002.433, 17922.00
1003.546, 18156.00
1004.659, 18236.00
1005.772, 18108.00
1006.884, 18172.00
1007.996, 18221.44
1009.108, 18368.00
1010.220, 18343.00
1011.332, 18561.00
1012.444, 18579.00
1013.555, 18706.00
1014.666, 18618.00
1015.777, 18639.00
1016.888, 18824.00
1017.999, 18898.00
1019.110, 19006.00
1020.220, 19113.00
1021.331, 19223.00
1022.441, 19334.00
1023.551, 19250.00
1024.661, 19489.00
1025.770, 19471.00
1026.880, 19346.00
1027.989, 19742.00
1029.098, 19791.00
1030.207, 19878.00
1031.316, 20134.00
1032.425, 20359.00
1033.533, 20167.00
1034.642, 20222.00
1035.750, 20213.00
1036.858, 20596.00
1037.966, 20490.00
1039.073, 20682.00
1040.181, 20458.00
1041.288, 20703.00
1042.396, 20709.00
1043.503, 20800.00
1044.610, 20693.00
1045.716, 20737.00
1046.823, 20618.00
1047.929, 20631.57
1049.036, 20883.00
1050.142, 20694.00
1051.248, 20694.00
1052.353, 20860.00
1053.459, 20798.00
1054.564, 21115.00
1055.670, 20924.00
1056.775, 21047.00
1057.880, 21147.00
1058.985, 21089.00
1060.089, 21339.00
1061.194, 21334.00
1062.298, 21604.00
1063.402, 21571.00
1064.506, 21633.00
1065.610, 21626.00
1066.713, 21684.59
1067.817, 21748.43
1068.920, 21855.00
1070.023, 21887.00
1071.126, 22059.00
1072.229, 22116.00
1073.332, 22315.00
1074.435, 22263.00
1075.537, 22424.00
1076.639, 22355.00
1077.741, 22562.00
1078.843, 22632.00
1079.945, 22729.00
1081.046, 22725.00
1082.148, 22610.00
1083.249, 22537.00
1084.350, 22731.00
1085.451, 22888.00
1086.551, 22843.00
1087.652, 22907.00
1088.752, 23069.00
1089.853, 22990.00
1090.953, 22935.00
1092.053, 22902.00
1093.152, 22841.00
1094.252, 22743.00
1095.351, 22700.00
1096.451, 22772.00
1097.550, 22836.00
1098.649, 22720.00
1099.748, 22805.00
1100.846, 22721.00
1101.945, 22742.00
1103.043, 22528.00
1104.141, 22465.00
1105.239, 22407.00
1106.337, 22432.00
1107.434, 22342.93
1108.532, 22235.00
1109.629, 22203.00
1110.726, 22285.00
1111.823, 22187.00
1112.920, 22096.00
1114.017, 21968.00
1115.113, 22039.00
1116.210, 22054.00
1117.306, 21986.96
1118.402, 21958.00
1119.498, 21897.00
1120.593, 21752.00
1121.689, 21672.00
1122.784, 21692.00
1123.879, 21634.00
1124.974, 21416.00
1126.069, 21367.00
1127.164, 21396.00
1128.259, 21488.00
1129.353, 21292.00
1130.447, 21190.00
1131.541, 20996.00
1132.635, 21114.00
1133.729, 21017.00
1134.822, 20925.00
1135.916, 20956.00
1137.009, 20880.00
1138.102, 20661.00
1139.195, 20536.00
1140.288, 20470.00
1141.380, 20321.00
1142.473, 20337.00
1143.565, 20233.82
1144.657, 20053.00
1145.749, 20139.00
1146.841, 20057.00
1147.932, 20079.00
1149.024, 19882.00
1150.115, 19879.00
1151.206, 19694.00
1152.297, 19825.00
1153.388, 19646.00
1154.479, 19612.00
1155.569, 19438.00
1156.659, 19636.00
1157.750, 19704.00
1158.839, 19458.00
1159.929, 19327.00
1161.019, 19369.00
1162.108, 19304.00
1163.198, 19151.00
1164.287, 18929.00
1165.376, 19071.00
1166.465, 18909.00
1167.553, 19014.00
1168.642, 18941.70
1169.730, 18877.93
1170.818, 18849.00
1171.906, 18715.00
1172.994, 18736.00
1174.082, 18577.00
1175.170, 18740.00
1176.257, 18545.00
1177.344, 18556.00
1178.431, 18491.00
1179.518, 18532.00
1180.605, 18430.00
1181.691, 18444.00
1182.778, 18668.00
1183.864, 18291.00
1184.950, 18484.00
1186.036, 18282.00
1187.122, 18289.00
1188.207, 18179.00
1189.292, 18467.00
1190.378, 18159.00
1191.463, 18336.00
1192.548, 18128.00
1193.632, 18302.00
1194.717, 18326.00
1195.801, 18277.00
1196.886, 18277.00
1197.970, 18303.00
1199.054, 18336.00
1200.137, 18283.00
1201.221, 18022.00
1202.305, 18402.00
1203.388, 18134.00
1204.471, 18301.00
1205.554, 18259.00
1206.637, 18208.00
1207.719, 18186.00
1208.802, 18304.00
1209.884, 18074.00
1210.966, 18195.00
1212.048, 18385.00
1213.130, 18215.00
1214.212, 18185.00
1215.293, 18128.00
1216.374, 18413.00
1217.456, 18281.00
1218.536, 18440.00
1219.617, 18258.00
1220.698, 18292.00
1221.778, 18251.00
1222.859, 18388.00
1223.939, 18248.00
1225.019, 18353.00
1226.099, 18316.00
1227.178, 18442.00
1228.258, 18451.00
1229.337, 18452.00
1230.417, 18458.18
1231.496, 18449.00
1232.574, 18419.00
1233.653, 18427.00
1234.732, 18482.00
1235.810, 18597.00
1236.888, 18459.00
1237.966, 18420.00
1239.044, 18327.00
1240.122, 18461.00
1241.199, 18450.00
1242.277, 18504.00
1243.354, 18449.00
1244.431, 18574.00
1245.508, 18400.00
1246.585, 18555.00
1247.661, 18615.00
1248.738, 18504.00
1249.814, 18473.00
1250.890, 18512.00
1251.966, 18572.00
1253.042, 18567.00
1254.117, 18608.00
1255.193, 18567.00
1256.268, 18530.00
1257.343, 18692.00
1258.418, 18680.00
1259.493, 18723.00
1260.567, 18512.00
1261.642, 18620.00
1262.716, 18612.00
1263.790, 18751.00
1264.864, 18832.00
1265.938, 18714.00
1267.011, 18771.00
1268.085, 18678.00
1269.158, 18812.00
1270.231, 18809.00
1271.304, 18663.00
1272.377, 18677.00
1273.450, 18882.00
1274.522, 18816.00
1275.594, 18831.00
1276.666, 18785.00
1277.738, 18813.00
1278.810, 18936.00
1279.882, 18810.00
1280.953, 18922.00
1282.025, 19016.00
1283.096, 18793.00
1284.167, 18909.00
1285.238, 18895.00
1286.308, 18763.00
1287.379, 18962.00
1288.449, 18984.00
1289.519, 18985.00
1290.589, 18887.00
1291.659, 18884.62
1292.729, 18883.82
1293.798, 18872.00
1294.868, 18950.00
1295.937, 19126.00
1297.006, 19255.00
1298.075, 19179.00
1299.143, 19164.00
1300.212, 19031.00
1301.280, 19127.00
1302.348, 19167.00
1303.416, 19059.00
1304.484, 19303.00
1305.552, 19185.00
1306.620, 19200.00
1307.687, 19153.00
1308.754, 19208.00
1309.821, 19059.00
1310.888, 19295.00
1311.955, 19197.00
1313.021, 19232.00
1314.088, 19355.00
1315.154, 19464.00
1316.220, 19326.00
1317.286, 19433.19
1318.352, 19309.00
1319.417, 19454.00
1320.483, 19485.00
1321.548, 19495.00
1322.613, 19525.00
1323.678, 19518.00
1324.743, 19506.46
1325.807, 19486.46
1326.872, 19442.00
1327.936, 19481.00
1329.000, 19418.00
1330.064, 19554.00
1331.128, 19575.00
1332.191, 19643.00
1333.255, 19812.00
1334.318, 19585.00
1335.381, 19530.00
1336.444, 19647.00
1337.507, 19677.00
1338.569, 19545.00
1339.632, 19857.00
1340.694, 19870.00
1341.756, 19793.00
1342.818, 19769.00
1343.880, 19685.00
1344.941, 19712.00
1346.003, 19804.00
1347.064, 19897.00
1348.125, 19784.00
1349.186, 19802.00
1350.247, 19985.00
1351.308, 19777.00
1352.368, 20017.00
1353.428, 19915.00
1354.489, 19881.00
1355.549, 19823.00
1356.608, 19819.65
1357.668, 19824.44
1358.727, 19875.00
1359.787, 19891.00
1360.846, 19976.00
1361.905, 20050.00
1362.964, 20222.00
1364.022, 20014.00
1365.081, 20122.00
1366.139, 20158.00
1367.197, 19985.00
1368.255, 20030.00
1369.313, 20226.00
1370.371, 20202.00
1371.428, 20199.00
1372.486, 20265.00
1373.543, 20127.00
1374.600, 20210.00
1375.657, 20313.00
1376.713, 20255.00
1377.770, 20466.00
1378.826, 20203.00
1379.882, 20286.00
1380.938, 20062.00
1381.994, 20409.00
1383.050, 20330.00
1384.106, 20234.00
1385.161, 20193.00
1386.216, 20129.00
1387.271, 20304.00
1388.326, 20459.00
1389.381, 20180.00
1390.435, 20461.00
1391.490, 20427.00
1392.544, 20365.00
1393.598, 20346.00
1394.652, 20439.00
1395.705, 20531.00
1396.759, 20602.00
1397.812, 20567.62
1398.866, 20751.00
1399.919, 20528.00
1400.972, 20401.00
1402.024, 20541.00
1403.077, 20673.00
1404.129, 20653.34
1405.181, 20752.90
1406.233, 20710.00
1407.285, 20793.00
1408.337, 20748.00
1409.389, 20690.00
1410.440, 20707.00
1411.491, 20612.00
1412.542, 20692.00
1413.593, 20722.00
1414.644, 20719.00
1415.695, 20726.00
1416.745, 20708.00
1417.795, 20697.00
1418.845, 20818.00
1419.895, 20683.00
1420.945, 20975.00
1421.995, 20704.00
1423.044, 21022.00
1424.093, 20834.00
1425.142, 20748.00
1426.191, 20834.00
1427.240, 20827.00
1428.289, 20834.00
1429.337, 20876.21
1430.385, 20888.00
1431.433, 20920.00
1432.481, 20969.00
1433.529, 20990.00
1434.577, 21049.00
1435.624, 21241.00
1436.672, 21027.00
1437.719, 21182.00
1438.766, 21051.00
1439.812, 21281.00
1440.859, 21315.00
1441.905, 21141.00
1442.952, 21145.00
1443.998, 21178.00
1445.044, 21303.00
1446.090, 21327.00
1447.135, 21199.00
1448.181, 21211.00
1449.226, 21219.63
1450.271, 21308.00
1451.316, 21230.00
1452.361, 21323.00
1453.405, 21240.00
1454.450, 21457.00
1455.494, 21494.00
1456.538, 21345.00
1457.582, 21525.00
1458.626, 21231.00
1459.670, 21352.00
1460.713, 21369.00
1461.757, 21566.00
1462.800, 21540.00
1463.843, 21659.00
1464.886, 21681.03
1465.928, 21513.00
1466.971, 21663.00
1468.013, 21522.00
1469.055, 21430.00
1470.097, 21618.00
1471.139, 21562.00
1472.181, 21517.00
1473.222, 21473.00
1474.263, 21722.00
1475.305, 21659.00
1476.346, 21672.00
1477.386, 21734.00
1478.427, 21655.00
1479.468, 21677.00
1480.508, 21810.00
1481.548, 21709.81
1482.588, 21813.00
1483.628, 21692.00
1484.668, 21827.00
1485.707, 21970.00
1486.747, 21879.00
1487.786, 21878.00
1488.825, 21821.00
1489.864, 22047.00
1490.902, 21997.00
1491.941, 21898.00
1492.979, 22172.00
1494.017, 21955.00
1495.055, 22035.00
1496.093, 21989.00
1497.131, 22174.00
1498.168, 22081.00
1499.206, 21870.00
1500.243, 22043.00
1501.280, 22303.00
1502.317, 22086.00
1503.354, 22081.00
1504.390, 22088.00
1505.426, 22148.00
1506.463, 22075.00
1507.499, 22155.00
1508.535, 22213.00
1509.570, 22131.00
1510.606, 22427.00
1511.641, 22018.00
1512.676, 22405.00
1513.711, 22314.00
1514.746, 22333.00
1515.781, 22649.00
1516.816, 22407.00
1517.850, 22408.00
1518.884, 22380.00
1519.918, 22349.00
1520.952, 22528.00
1521.986, 22433.00
1523.019, 22385.00
1524.053, 22608.00
1525.086, 22533.00
1526.119, 22490.00
1527.152, 22513.00
1528.185, 22505.00
1529.217, 22652.00
1530.250, 22727.00
1531.282, 22626.00
1532.314, 22568.00
1533.346, 22593.00
1534.377, 22654.00
1535.409, 22653.47
1536.440, 22674.00
1537.472, 22717.00
1538.503, 22774.00
1539.534, 22784.00
1540.564, 22779.00
1541.595, 22768.00
1542.625, 22803.00
1543.656, 22975.00
1544.686, 22764.00
1545.716, 23019.00
1546.745, 22837.00
1547.775, 23149.00
1548.804, 22953.00
1549.834, 22975.00
1550.863, 22941.00
1551.892, 23068.00
1552.920, 22976.00
1553.949, 23111.00
1554.977, 23165.00
1556.006, 23183.00
1557.034, 23328.00
1558.062, 22903.00
1559.089, 22929.00
1560.117, 22905.00
1561.144, 23013.00
1562.172, 23333.00
1563.199, 23254.00
1564.226, 23308.00
1565.252, 23417.00
1566.279, 23234.00
1567.305, 23476.00
1568.332, 23499.00
1569.358, 23315.00
1570.384, 23247.00
1571.409, 23424.00
1572.435, 23499.00
##END=



