##NAMES=Phillipsite-Ca
##RRUFFID=R050078
##IDEAL CHEMISTRY=Ca_3_(Si_10_Al_6_)O_32_&#183;12H_2_O
##LOCALITY=Grant County, Oregon, USA
##OWNER=RRUFF
##SOURCE=Rock Currier
##DESCRIPTION=White tabular hexagonal
##STATUS=The identification of this mineral has been confirmed by X-ray diffraction and chemical analysis
##URL=rruff.info/R050078
##MEASURED CHEMISTRY=(Ca_0.90_K_0.75_[box]_0.25_Na_0.10_)_Σ=2_(Si_5.35_Al_2.65_)_Σ=8_O_16_·6H_2_O
##PIN_ID=L00730
##ORIENTATION=Laser parallel to -c* (0 0 -1). Fiducial mark perpendicular to laser is parallel to a [1 0 0]
241.7140, 27143.00
242.9300, 27439.00
244.1460, 27066.00
245.3610, 26974.00
246.5770, 27139.00
247.7920, 26958.00
249.0070, 27007.00
250.2220, 27184.00
251.4370, 27123.00
252.6510, 27083.00
253.8660, 27021.00
255.0800, 27175.00
256.2940, 27268.00
257.5080, 27012.00
258.7220, 27424.00
259.9360, 27649.00
261.1490, 27584.00
262.3630, 27230.00
263.5760, 27109.00
264.7890, 26936.00
266.0020, 27199.00
267.2150, 26858.00
268.4270, 27280.00
269.6400, 27110.00
270.8520, 27176.00
272.0640, 27128.00
273.2760, 27140.00
274.4880, 27165.49
275.7000, 27173.00
276.9120, 27179.00
278.1230, 27361.00
279.3340, 27329.00
280.5450, 27305.00
281.7560, 27359.00
282.9670, 27273.00
284.1780, 27293.00
285.3880, 27492.00
286.5980, 27402.00
287.8090, 27431.00
289.0190, 27388.00
290.2290, 27552.00
291.4380, 27506.00
292.6480, 27450.00
293.8570, 27589.00
295.0670, 27550.00
296.2760, 27571.00
297.4850, 27700.21
298.6930, 27759.00
299.9020, 27857.00
301.1110, 27834.00
302.3190, 27751.00
303.5270, 27665.00
304.7350, 27810.00
305.9430, 27913.00
307.1510, 27803.00
308.3580, 28118.00
309.5660, 27886.00
310.7730, 28037.00
311.9800, 28030.00
313.1870, 28085.00
314.3940, 27997.00
315.6010, 28022.00
316.8070, 28073.00
318.0130, 28346.00
319.2200, 28205.00
320.4260, 28291.00
321.6310, 28380.93
322.8370, 28329.96
324.0430, 28563.00
325.2480, 28394.00
326.4540, 28576.00
327.6590, 28722.00
328.8640, 28466.00
330.0680, 28654.00
331.2730, 28471.00
332.4780, 28644.00
333.6820, 28411.00
334.8860, 28588.00
336.0900, 28485.00
337.2940, 28549.00
338.4980, 28441.00
339.7010, 28522.00
340.9050, 28604.00
342.1080, 28594.00
343.3110, 28637.00
344.5140, 28573.00
345.7170, 28602.00
346.9200, 28732.00
348.1220, 28479.00
349.3240, 28672.00
350.5270, 28611.00
351.7290, 28739.00
352.9310, 28897.00
354.1320, 28626.00
355.3340, 28879.00
356.5350, 28750.00
357.7370, 29096.00
358.9380, 28899.00
360.1390, 28862.00
361.3400, 29007.00
362.5400, 29077.00
363.7410, 29054.00
364.9410, 29350.00
366.1410, 29192.00
367.3410, 29127.00
368.5410, 29229.00
369.7410, 29483.00
370.9400, 29461.00
372.1400, 29336.00
373.3390, 29757.00
374.5380, 29626.00
375.7370, 29799.00
376.9360, 29841.00
378.1350, 29993.00
379.3330, 30029.00
380.5310, 30204.00
381.7300, 30154.00
382.9280, 30212.00
384.1260, 30406.00
385.3230, 30707.00
386.5210, 30579.00
387.7180, 30967.00
388.9160, 30926.00
390.1130, 31114.00
391.3100, 31338.00
392.5060, 31249.00
393.7030, 31705.00
394.9000, 31596.00
396.0960, 31721.00
397.2920, 31927.00
398.4880, 31991.00
399.6840, 32255.00
400.8800, 32337.00
402.0750, 32526.00
403.2710, 32772.00
404.4660, 33050.00
405.6610, 33154.00
406.8560, 33327.00
408.0510, 33595.00
409.2450, 33808.00
410.4400, 34051.37
411.6340, 34311.00
412.8280, 34559.00
414.0220, 35019.00
415.2160, 35300.00
416.4100, 35231.00
417.6030, 35668.00
418.7970, 35735.00
419.9900, 36158.00
421.1830, 36253.00
422.3760, 36257.00
423.5690, 36453.00
424.7610, 36408.00
425.9540, 36380.00
427.1460, 36652.00
428.3380, 36453.00
429.5300, 36496.00
430.7220, 36803.00
431.9140, 36509.00
433.1050, 36338.00
434.2970, 36566.00
435.4880, 36427.00
436.6790, 36744.00
437.8700, 36977.00
439.0610, 37028.00
440.2510, 37348.00
441.4420, 37621.00
442.6320, 38038.00
443.8220, 38508.00
445.0120, 39022.83
446.2020, 39584.00
447.3910, 40293.00
448.5810, 40966.00
449.7700, 41780.00
450.9600, 42656.00
452.1490, 43437.00
453.3370, 44361.98
454.5260, 45253.20
455.7150, 46207.00
456.9030, 47155.00
458.0910, 48105.00
459.2800, 49161.00
460.4670, 50216.00
461.6550, 51227.00
462.8430, 51808.00
464.0300, 52967.00
465.2180, 53866.00
466.4050, 54345.00
467.5920, 55105.00
468.7790, 55564.00
469.9650, 56311.00
471.1520, 56619.99
472.3380, 56706.00
473.5250, 57108.00
474.7110, 57023.00
475.8970, 57011.00
477.0820, 56984.00
478.2680, 57095.00
479.4540, 57075.00
480.6390, 57009.00
481.8240, 56431.00
483.0090, 55770.00
484.1940, 55196.00
485.3780, 54680.00
486.5630, 53679.00
487.7470, 52816.00
488.9320, 51781.00
490.1160, 50590.00
491.3000, 49352.00
492.4830, 48396.00
493.6670, 47330.00
494.8500, 46264.82
496.0340, 45207.71
497.2170, 44141.00
498.4000, 43092.00
499.5820, 41873.00
500.7650, 40952.00
501.9480, 40335.00
503.1300, 39727.00
504.3120, 39171.00
505.4940, 38635.00
506.6760, 38121.00
507.8580, 37781.00
509.0390, 37362.00
510.2210, 37173.00
511.4020, 36762.00
512.5830, 36540.48
513.7640, 36632.00
514.9450, 36171.00
516.1250, 36096.00
517.3060, 36123.00
518.4860, 36020.00
519.6660, 35914.00
520.8460, 35883.00
522.0260, 35706.00
523.2060, 35509.00
524.3850, 35840.00
525.5650, 35540.00
526.7440, 35342.00
527.9230, 35563.00
529.1020, 35286.00
530.2810, 35364.00
531.4590, 35209.00
532.6380, 35270.00
533.8160, 35223.00
534.9940, 35223.00
536.1720, 35200.00
537.3500, 35097.00
538.5270, 35013.00
539.7050, 34967.00
540.8820, 34700.00
542.0590, 34828.00
543.2360, 34814.00
544.4130, 34872.00
545.5900, 35013.00
546.7660, 34696.00
547.9430, 34691.00
549.1190, 34579.00
550.2950, 34569.00
551.4710, 34720.00
552.6470, 34597.00
553.8220, 34879.00
554.9980, 34606.00
556.1730, 34977.00
557.3480, 34740.00
558.5230, 34838.00
559.6980, 34580.00
560.8730, 34561.00
562.0470, 34611.00
563.2220, 34678.00
564.3960, 34691.76
565.5700, 34838.00
566.7440, 34727.00
567.9170, 34691.00
569.0910, 34613.00
570.2640, 34733.00
571.4380, 34912.00
572.6110, 34978.00
573.7840, 35071.00
574.9570, 34969.00
576.1290, 34813.00
577.3020, 34922.00
578.4740, 34797.00
579.6460, 34944.00
580.8180, 34965.00
581.9900, 34967.00
583.1620, 34927.00
584.3330, 34972.89
585.5040, 35105.00
586.6760, 35027.00
587.8470, 35232.00
589.0180, 35263.00
590.1880, 35413.00
591.3590, 35109.00
592.5290, 35435.00
593.7000, 35513.00
594.8700, 35186.00
596.0400, 35476.00
597.2090, 35502.00
598.3790, 35524.00
599.5490, 35603.00
600.7180, 35513.00
601.8870, 35581.70
603.0560, 35536.00
604.2250, 35626.00
605.3940, 35664.00
606.5620, 35680.00
607.7300, 35760.00
608.8990, 35800.36
610.0670, 35866.40
611.2350, 35912.00
612.4020, 35987.00
613.5700, 36027.00
614.7370, 36039.00
615.9050, 36153.00
617.0720, 36108.00
618.2390, 36111.00
619.4060, 36374.00
620.5720, 36024.00
621.7390, 36355.00
622.9050, 36199.00
624.0710, 36401.00
625.2370, 36246.00
626.4030, 36411.00
627.5690, 36501.00
628.7340, 36515.00
629.9000, 36673.00
631.0650, 36753.00
632.2300, 36539.00
633.3950, 36704.00
634.5600, 36393.00
635.7240, 36717.00
636.8890, 36626.00
638.0530, 36895.00
639.2170, 37045.00
640.3810, 36853.00
641.5450, 36649.00
642.7080, 37008.00
643.8720, 36685.00
645.0350, 36892.00
646.1980, 37045.00
647.3610, 37003.00
648.5240, 36898.00
649.6870, 37476.00
650.8490, 36953.00
652.0120, 37328.00
653.1740, 37355.00
654.3360, 37315.00
655.4980, 37208.00
656.6600, 37273.00
657.8210, 37361.00
658.9830, 37239.00
660.1440, 37344.00
661.3050, 37527.00
662.4660, 37488.00
663.6270, 37516.00
664.7870, 37466.00
665.9480, 37358.00
667.1080, 37486.00
668.2680, 37462.00
669.4280, 37709.00
670.5880, 37511.00
671.7480, 37414.00
672.9070, 37734.00
674.0670, 37516.00
675.2260, 37793.00
676.3850, 37650.00
677.5440, 37666.00
678.7030, 37724.00
679.8610, 37860.00
681.0200, 37821.55
682.1780, 37783.00
683.3360, 37823.00
684.4940, 37802.00
685.6520, 37838.00
686.8090, 38098.00
687.9670, 37816.00
689.1240, 38228.00
690.2810, 38361.00
691.4380, 38112.00
692.5950, 38338.00
693.7520, 38289.00
694.9080, 38295.00
696.0650, 38437.00
697.2210, 38315.00
698.3770, 38370.00
699.5330, 38454.00
700.6880, 38588.00
701.8440, 38518.00
702.9990, 38630.00
704.1550, 38661.00
705.3100, 38880.00
706.4650, 38728.00
707.6190, 38564.00
708.7740, 38901.00
709.9290, 39046.00
711.0830, 38959.00
712.2370, 39088.00
713.3910, 39075.00
714.5450, 39082.00
715.6980, 39367.00
716.8520, 39169.00
718.0050, 39036.00
719.1580, 39402.00
720.3110, 39156.00
721.4640, 39389.00
722.6170, 39670.00
723.7700, 39457.00
724.9220, 39311.00
726.0740, 39440.00
727.2260, 39700.00
728.3780, 39529.00
729.5300, 39687.00
730.6810, 39573.00
731.8330, 39630.00
732.9840, 39716.42
734.1350, 40078.00
735.2860, 39830.00
736.4370, 39921.00
737.5880, 39860.00
738.7380, 39761.00
739.8880, 39960.00
741.0390, 39915.00
742.1890, 40090.00
743.3380, 40150.00
744.4880, 40083.00
745.6380, 40320.00
746.7870, 40248.00
747.9360, 40365.00
749.0850, 40444.00
750.2340, 40265.00
751.3830, 40206.00
752.5310, 40477.00
753.6800, 40425.00
754.8280, 40640.00
755.9760, 40797.00
757.1240, 40674.00
758.2720, 40858.00
759.4190, 40687.00
760.5670, 40830.00
761.7140, 40666.00
762.8610, 40845.00
764.0080, 40957.00
765.1550, 40847.00
766.3020, 40834.00
767.4480, 40874.90
768.5950, 40787.36
769.7410, 40982.00
770.8870, 40672.00
772.0330, 40833.00
773.1780, 40737.00
774.3240, 41031.00
775.4690, 41178.00
776.6140, 41275.00
777.7590, 41006.00
778.9040, 41001.00
780.0490, 40999.00
781.1940, 41045.00
782.3380, 41094.00
783.4820, 41108.00
784.6260, 40992.00
785.7700, 41175.00
786.9140, 40967.00
788.0580, 41196.00
789.2010, 40906.00
790.3450, 41168.00
791.4880, 41169.00
792.6310, 40985.00
793.7730, 41259.00
794.9160, 41210.00
796.0590, 41301.00
797.2010, 41204.00
798.3430, 41128.00
799.4850, 41272.00
800.6270, 41308.00
801.7690, 41536.00
802.9100, 41382.00
804.0520, 41478.70
805.1930, 41357.00
806.3340, 41500.00
807.4750, 41578.00
808.6160, 41628.88
809.7560, 41642.57
810.8970, 41618.00
812.0370, 41608.00
813.1770, 41646.00
814.3170, 41672.00
815.4570, 41606.00
816.5960, 41575.00
817.7360, 41600.36
818.8750, 41628.05
820.0140, 41647.00
821.1530, 41786.00
822.2920, 41837.00
823.4310, 41963.00
824.5690, 42109.00
825.7070, 42209.00
826.8460, 42046.00
827.9840, 42219.00
829.1220, 42244.00
830.2590, 41997.00
831.3970, 42023.00
832.5340, 42089.00
833.6710, 42076.00
834.8080, 41916.00
835.9450, 42515.00
837.0820, 42180.00
838.2190, 42521.00
839.3550, 42617.00
840.4910, 42606.00
841.6270, 42559.00
842.7630, 42331.00
843.8990, 42474.00
845.0350, 42753.00
846.1700, 42565.00
847.3060, 42987.00
848.4410, 42790.00
849.5760, 42893.00
850.7100, 42476.00
851.8450, 42972.00
852.9800, 43102.00
854.1140, 43296.00
855.2480, 43086.00
856.3820, 42977.00
857.5160, 43322.00
858.6500, 43427.00
859.7830, 43420.00
860.9170, 43475.00
862.0500, 43450.00
863.1830, 43347.00
864.3160, 43545.00
865.4480, 43380.00
866.5810, 43502.00
867.7130, 43328.00
868.8460, 43420.00
869.9780, 43674.00
871.1100, 43783.00
872.2410, 43817.62
873.3730, 43726.00
874.5050, 43813.00
875.6360, 43940.00
876.7670, 43907.00
877.8980, 44258.00
879.0290, 43911.00
880.1590, 44087.00
881.2900, 44078.00
882.4200, 44413.00
883.5500, 43963.00
884.6800, 44234.00
885.8100, 44175.00
886.9400, 44055.00
888.0690, 44318.00
889.1990, 44159.00
890.3280, 44378.00
891.4570, 44345.00
892.5860, 43991.00
893.7140, 44236.00
894.8430, 44137.00
895.9710, 44381.00
897.1000, 44352.00
898.2280, 44359.00
899.3560, 44379.00
900.4830, 44376.74
901.6110, 44499.00
902.7380, 44478.00
903.8660, 44502.00
904.9930, 44713.00
906.1200, 44820.00
907.2460, 44612.00
908.3730, 44881.00
909.5000, 44718.00
910.6260, 44763.00
911.7520, 44953.00
912.8780, 44698.00
914.0040, 45105.00
915.1290, 45011.00
916.2550, 44964.00
917.3800, 45144.00
918.5050, 44947.00
919.6300, 45116.00
920.7550, 45235.00
921.8800, 45067.00
923.0040, 45283.00
924.1290, 44969.00
925.2530, 45241.00
926.3770, 45624.00
927.5010, 45485.00
928.6250, 45300.00
929.7480, 45361.00
930.8720, 45490.00
931.9950, 45370.00
933.1180, 45527.15
934.2410, 45682.00
935.3640, 45739.00
936.4860, 45786.00
937.6090, 45951.00
938.7310, 46036.00
939.8530, 45994.00
940.9750, 45970.00
942.0970, 46013.00
943.2180, 46352.00
944.3400, 46160.00
945.4610, 46377.00
946.5820, 46429.00
947.7030, 46346.00
948.8240, 46452.00
949.9450, 46481.00
951.0650, 46626.00
952.1860, 46768.00
953.3060, 46459.00
954.4260, 46546.00
955.5460, 46685.00
956.6650, 46969.00
957.7850, 46849.00
958.9040, 46876.00
960.0230, 47125.00
961.1420, 47231.00
962.2610, 47112.00
963.3800, 47000.00
964.4990, 46984.00
965.6170, 47029.68
966.7350, 47293.00
967.8530, 47192.00
968.9710, 47480.00
970.0890, 47481.00
971.2070, 47436.00
972.3240, 47647.00
973.4410, 47615.00
974.5580, 47795.00
975.6750, 47890.60
976.7920, 47822.00
977.9090, 48007.00
979.0250, 48061.00
980.1410, 47896.00
981.2580, 47907.00
982.3740, 47984.00
983.4890, 48122.00
984.6050, 48334.00
985.7200, 48299.00
986.8360, 48261.00
987.9510, 48169.00
989.0660, 48408.00
990.1810, 48322.00
991.2950, 48759.00
992.4100, 48650.00
993.5240, 48367.00
994.6390, 48682.00
995.7530, 48835.00
996.8660, 48728.00
997.9800, 49069.00
999.0940, 48876.00
1000.207, 49010.00
1001.320, 49204.00
1002.433, 49191.00
1003.546, 49191.00
1004.659, 49150.00
1005.772, 49165.00
1006.884, 49195.00
1007.996, 49159.00
1009.108, 49334.00
1010.220, 49328.00
1011.332, 49577.00
1012.444, 49538.00
1013.555, 49514.00
1014.666, 49656.00
1015.777, 49606.76
1016.888, 49783.00
1017.999, 49660.00
1019.110, 49821.00
1020.220, 49914.00
1021.331, 49838.00
1022.441, 50265.00
1023.551, 50358.00
1024.661, 50342.00
1025.770, 50046.00
1026.880, 50335.00
1027.989, 50630.00
1029.098, 50518.00
1030.207, 50776.00
1031.316, 50761.31
1032.425, 50646.00
1033.533, 50736.00
1034.642, 50728.75
1035.750, 50880.00
1036.858, 50853.00
1037.966, 50998.00
1039.073, 51125.00
1040.181, 50882.00
1041.288, 51155.25
1042.396, 51244.24
1043.503, 51315.00
1044.610, 51613.00
1045.716, 51410.00
1046.823, 51499.00
1047.929, 51527.00
1049.036, 51596.00
1050.142, 51647.92
1051.248, 51792.00
1052.353, 51808.00
1053.459, 51686.00
1054.564, 51881.00
1055.670, 51817.00
1056.775, 52018.00
1057.880, 51870.00
1058.985, 52006.00
1060.089, 52089.00
1061.194, 52194.00
1062.298, 52294.00
1063.402, 52348.18
1064.506, 52241.00
1065.610, 52462.00
1066.713, 52734.00
1067.817, 52825.00
1068.920, 52710.00
1070.023, 52862.00
1071.126, 52799.00
1072.229, 53101.00
1073.332, 52963.00
1074.435, 53338.00
1075.537, 53107.00
1076.639, 53368.00
1077.741, 53527.00
1078.843, 53424.00
1079.945, 53947.00
1081.046, 53683.00
1082.148, 53888.00
1083.249, 53707.00
1084.350, 53636.00
1085.451, 53928.00
1086.551, 54174.00
1087.652, 54126.00
1088.752, 54083.00
1089.853, 53983.00
1090.953, 54244.00
1092.053, 54169.00
1093.152, 53928.00
1094.252, 54382.00
1095.351, 54241.00
1096.451, 54186.00
1097.550, 54123.00
1098.649, 54056.00
1099.748, 54301.00
1100.846, 54298.00
1101.945, 54353.00
1103.043, 54609.00
1104.141, 54187.00
1105.239, 54435.00
1106.337, 54165.00
1107.434, 54360.00
1108.532, 54428.00
1109.629, 54337.00
1110.726, 54277.00
1111.823, 54434.00
1112.920, 54199.00
1114.017, 54521.00
1115.113, 54521.00
1116.210, 54384.00
1117.306, 54482.00
1118.402, 54712.00
1119.498, 54489.00
1120.593, 54641.00
1121.689, 54609.00
1122.784, 54642.00
1123.879, 54799.00
1124.974, 54557.00
1126.069, 54632.00
1127.164, 54692.00
1128.259, 54451.00
1129.353, 54602.00
1130.447, 54352.00
1131.541, 54290.00
1132.635, 54453.00
1133.729, 54631.00
1134.822, 54259.00
1135.916, 54407.00
1137.009, 54332.00
1138.102, 54112.00
1139.195, 54499.00
1140.288, 54379.00
1141.380, 54288.00
1142.473, 54768.00
1143.565, 54302.00
1144.657, 54309.00
1145.749, 54209.00
1146.841, 54256.00
1147.932, 54495.00
1149.024, 54289.00
1150.115, 54612.00
1151.206, 54256.00
1152.297, 54352.00
1153.388, 54402.00
1154.479, 54255.00
1155.569, 54295.00
1156.659, 54339.00
1157.750, 54178.00
1158.839, 54278.00
1159.929, 54351.00
1161.019, 54073.00
1162.108, 54040.00
1163.198, 54113.00
1164.287, 54333.00
1165.376, 54624.00
1166.465, 54381.00
1167.553, 54395.00
1168.642, 54298.00
1169.730, 54423.00
1170.818, 54398.57
1171.906, 54429.00
1172.994, 54382.00
1174.082, 54565.00
1175.170, 54406.00
1176.257, 54256.00
1177.344, 54368.00
1178.431, 54004.00
1179.518, 54556.00
1180.605, 54440.00
1181.691, 54223.00
1182.778, 54451.00
1183.864, 54578.00
1184.950, 54486.00
1186.036, 54537.00
1187.122, 54553.75
1188.207, 54642.00
1189.292, 54632.00
1190.378, 54525.00
1191.463, 54677.00
1192.548, 54657.00
1193.632, 54698.00
1194.717, 54757.00
1195.801, 54549.00
1196.886, 54731.00
1197.970, 54624.00
1199.054, 54848.00
1200.137, 55020.00
1201.221, 54738.00
1202.305, 54901.00
1203.388, 54787.00
1204.471, 54917.00
1205.554, 54931.00
1206.637, 55152.00
1207.719, 54911.00
1208.802, 55222.00
1209.884, 55253.00
1210.966, 55214.00
1212.048, 54938.00
1213.130, 55162.00
1214.212, 55169.00
1215.293, 55306.00
1216.374, 55034.00
1217.456, 55419.00
1218.536, 55238.00
1219.617, 55142.00
1220.698, 55422.00
1221.778, 55717.00
1222.859, 55656.00
1223.939, 55647.00
1225.019, 55423.00
1226.099, 55715.00
1227.178, 55767.00
1228.258, 55415.00
1229.337, 55928.00
1230.417, 55618.00
1231.496, 55955.00
1232.574, 55750.00
1233.653, 56333.00
1234.732, 56006.00
1235.810, 55946.00
1236.888, 56074.00
1237.966, 56146.00
1239.044, 55815.00
1240.122, 56222.00
1241.199, 56004.00
1242.277, 55902.00
1243.354, 56313.00
1244.431, 56363.00
1245.508, 56406.24
1246.585, 56275.00
1247.661, 56525.00
1248.738, 56304.00
1249.814, 56450.00
1250.890, 56386.00
1251.966, 56091.00
1253.042, 56148.00
1254.117, 56747.00
1255.193, 56224.00
1256.268, 56588.00
1257.343, 56393.00
1258.418, 56336.00
1259.493, 56609.00
1260.567, 56715.00
1261.642, 56748.00
1262.716, 56838.00
1263.790, 56947.00
1264.864, 56753.00
1265.938, 56836.00
1267.011, 56896.00
1268.085, 56672.00
1269.158, 56790.00
1270.231, 56892.00
1271.304, 56702.00
1272.377, 57101.00
1273.450, 57006.00
1274.522, 56869.00
1275.594, 57091.00
1276.666, 57003.00
1277.738, 57252.00
1278.810, 56973.00
1279.882, 57078.00
1280.953, 57134.00
1282.025, 57583.00
1283.096, 57543.00
1284.167, 57249.00
1285.238, 57015.00
1286.308, 57538.00
1287.379, 57372.00
1288.449, 57400.00
1289.519, 57773.00
1290.589, 57624.00
1291.659, 57448.00
1292.729, 57728.00
1293.798, 57543.00
1294.868, 57842.00
1295.937, 57618.00
1297.006, 57952.00
1298.075, 58044.00
1299.143, 57826.00
1300.212, 57900.00
1301.280, 58027.00
1302.348, 57891.00
1303.416, 57957.00
1304.484, 58015.00
1305.552, 58154.00
1306.620, 58158.00
1307.687, 58166.00
1308.754, 58317.00
1309.821, 58540.00
1310.888, 58153.00
1311.955, 58415.00
1313.021, 58086.00
1314.088, 58398.00
1315.154, 58608.00
1316.220, 58612.00
1317.286, 58518.00
1318.352, 58602.00
1319.417, 58657.00
1320.483, 58941.00
1321.548, 58712.00
1322.613, 59048.00
1323.678, 58805.00
1324.743, 58708.00
1325.807, 58772.00
1326.872, 58609.00
1327.936, 58989.00
1329.000, 58781.00
1330.064, 58865.00
1331.128, 58868.00
1332.191, 58908.00
1333.255, 58964.60
1334.318, 59147.00
1335.381, 59030.00
1336.444, 59019.00
1337.507, 58972.00
1338.569, 59227.00
1339.632, 59311.00
1340.694, 59108.00
1341.756, 59317.00
1342.818, 59303.00
1343.880, 59604.00
1344.941, 59346.00
1346.003, 59310.00
1347.064, 59583.00
1348.125, 59532.00
1349.186, 59537.00
1350.247, 59708.00
1351.308, 59606.00
1352.368, 59684.00
1353.428, 59767.00
1354.489, 59883.00
1355.549, 59879.00
1356.608, 59844.00
1357.668, 59869.00
1358.727, 59958.00
1359.787, 59696.00
1360.846, 60052.00
1361.905, 59798.00
1362.964, 59991.00
1364.022, 60403.00
1365.081, 60382.00
1366.139, 60144.00
1367.197, 60150.00
1368.255, 59783.00
1369.313, 60408.00
1370.371, 60341.00
1371.428, 60196.00
1372.486, 60047.00
1373.543, 60427.00
1374.600, 60550.00
1375.657, 60575.00
1376.713, 60644.00
1377.770, 60185.00
1378.826, 60440.00
1379.882, 60496.00
1380.938, 60427.00
1381.994, 60749.00
1383.050, 60689.00
1384.106, 60907.00
1385.161, 60544.00
1386.216, 60836.00
1387.271, 60965.00
1388.326, 60467.00
1389.381, 60742.00
1390.435, 60675.00
1391.490, 60717.00
1392.544, 60804.00
1393.598, 60837.46
1394.652, 60836.95
1395.705, 60994.00
1396.759, 60845.00
1397.812, 60873.00
1398.866, 60968.00
1399.919, 60827.00
1400.972, 60671.00
1402.024, 61322.00
1403.077, 61283.00
1404.129, 61332.00
1405.181, 61339.00
1406.233, 61514.00
1407.285, 61575.00
1408.337, 61239.00
1409.389, 61222.00
1410.440, 61408.00
1411.491, 61721.00
1412.542, 61374.00
1413.593, 61673.00
1414.644, 61561.00
1415.695, 61574.00
1416.745, 61396.00
1417.795, 61486.17
1418.845, 61384.00
1419.895, 61718.00
1420.945, 61831.00
1421.995, 62143.00
1423.044, 61702.00
1424.093, 61866.00
1425.142, 61680.00
1426.191, 61687.00
1427.240, 61814.00
1428.289, 62163.00
1429.337, 62095.00
1430.385, 62060.00
1431.433, 62234.00
1432.481, 62159.00
1433.529, 62389.00
1434.577, 62187.00
1435.624, 62247.00
1436.672, 62347.00
1437.719, 62353.00
1438.766, 62823.00
1439.812, 62641.00
1440.859, 62389.00
1441.905, 62860.00
1442.952, 62280.00
1443.998, 62886.00
1445.044, 62652.00
1446.090, 62472.00
1447.135, 62864.00
1448.181, 62775.00
1449.226, 63053.00
1450.271, 62882.00
1451.316, 63124.00
1452.361, 63187.00
1453.405, 62926.00
1454.450, 63174.00
1455.494, 63410.00
1456.538, 63274.00
1457.582, 63139.00
1458.626, 63224.00
1459.670, 63085.00
1460.713, 63065.00
1461.757, 63073.72
1462.800, 63165.00
1463.843, 63173.00
1464.886, 63017.00
1465.928, 63280.00
1466.971, 63140.00
1468.013, 63626.00
1469.055, 63325.00
1470.097, 63550.00
1471.139, 63905.00
1472.181, 63672.00
1473.222, 63463.00
1474.263, 63623.00
1475.305, 63777.00
1476.346, 63348.00
1477.386, 63814.00
1478.427, 63462.00
1479.468, 63866.00
1480.508, 63961.00
1481.548, 63861.00
1482.588, 63881.00
1483.628, 63798.00
1484.668, 63901.00
1485.707, 63852.00
1486.747, 63998.71
1487.786, 63996.54
1488.825, 64210.00
1489.864, 64139.00
1490.902, 64001.00
1491.941, 64254.00
1492.979, 64082.00
1494.017, 64093.67
1495.055, 64019.00
1496.093, 63993.00
1497.131, 64147.00
1498.168, 64094.00
1499.206, 64263.00
1500.243, 64389.00
1501.280, 64440.51
1502.317, 64322.00
1503.354, 64556.00
1504.390, 64411.00
1505.426, 64290.00
1506.463, 64501.00
1507.499, 64490.00
1508.535, 64355.00
1509.570, 64535.00
1510.606, 64553.00
1511.641, 64773.00
1512.676, 64614.00
1513.711, 64699.00
1514.746, 64739.00
1515.781, 64854.00
1516.816, 64802.00
1517.850, 64721.00
1518.884, 64932.00
1519.918, 64803.00
1520.952, 64731.00
1521.986, 64837.00
1523.019, 64986.00
1524.053, 65244.00
1525.086, 65132.00
1526.119, 65142.00
1527.152, 65096.00
1528.185, 65080.00
1529.217, 65183.00
1530.250, 65168.00
1531.282, 65223.00
1532.314, 65185.38
1533.346, 65235.00
1534.377, 65257.79
1535.409, 65221.00
1536.440, 65351.00
1537.472, 65422.00
1538.503, 65535.00
1539.534, 65402.00
1540.564, 65197.00
1541.595, 65485.00
1542.625, 65535.00
1543.656, 65364.00
1544.686, 65535.00
1545.716, 65535.00
1546.745, 65535.00
1547.775, 65535.00
1548.804, 65535.00
1549.834, 65535.00
1550.863, 65535.00
1551.892, 65535.00
1552.920, 65535.00
1553.949, 65535.00
1554.977, 65535.00
1556.006, 65535.00
1557.034, 65535.00
1558.062, 65535.00
1559.089, 65535.00
1560.117, 65535.00
1561.144, 65535.00
1562.172, 65535.00
1563.199, 65535.00
1564.226, 65535.00
1565.252, 65535.00
1566.279, 65535.00
1567.305, 65535.00
1568.332, 65535.00
1569.358, 65535.00
1570.384, 65535.00
1571.409, 65535.00
##END=



