##NAMES=Phillipsite-Ca
##RRUFFID=R050078
##IDEAL CHEMISTRY=Ca_3_(Si_10_Al_6_)O_32_&#183;12H_2_O
##LOCALITY=Grant County, Oregon, USA
##OWNER=RRUFF
##SOURCE=Rock Currier
##DESCRIPTION=White tabular hexagonal
##STATUS=The identification of this mineral has been confirmed by X-ray diffraction and chemical analysis
##URL=rruff.info/R050078
##MEASURED CHEMISTRY=(Ca_0.90_K_0.75_[box]_0.25_Na_0.10_)_Σ=2_(Si_5.35_Al_2.65_)_Σ=8_O_16_·6H_2_O
##PIN_ID=L01729
##ORIENTATION=Laser parallel to -b* (0 -1 0). Fiducial mark perpendicular to laser is parallel to c [0 0 1]
267.2150, 12998.00
268.4270, 13045.00
269.6400, 13135.00
270.8520, 13083.00
272.0640, 13048.68
273.2760, 13081.00
274.4880, 12966.00
275.7000, 12906.00
276.9120, 13068.00
278.1230, 12906.00
279.3340, 12952.00
280.5450, 12892.00
281.7560, 12906.00
282.9670, 12935.00
284.1780, 13004.00
285.3880, 12946.00
286.5980, 12931.00
287.8090, 12893.00
289.0190, 12843.00
290.2290, 12939.00
291.4380, 12816.00
292.6480, 12921.00
293.8570, 13025.00
295.0670, 13062.00
296.2760, 13091.00
297.4850, 12994.00
298.6930, 13154.00
299.9020, 13080.00
301.1110, 12892.00
302.3190, 12983.00
303.5270, 13098.00
304.7350, 13059.00
305.9430, 13018.00
307.1510, 13088.00
308.3580, 13012.00
309.5660, 13127.00
310.7730, 13036.00
311.9800, 13104.00
313.1870, 13072.00
314.3940, 13014.00
315.6010, 12947.00
316.8070, 12978.00
318.0130, 12937.69
319.2200, 12914.00
320.4260, 12940.00
321.6310, 12927.00
322.8370, 12948.00
324.0430, 12873.00
325.2480, 12824.00
326.4540, 12749.00
327.6590, 12748.72
328.8640, 12725.00
330.0680, 12746.00
331.2730, 12731.00
332.4780, 12701.00
333.6820, 12620.00
334.8860, 12613.00
336.0900, 12390.00
337.2940, 12453.00
338.4980, 12369.00
339.7010, 12333.00
340.9050, 12320.00
342.1080, 12296.00
343.3110, 12109.00
344.5140, 12330.00
345.7170, 12096.00
346.9200, 12282.00
348.1220, 12179.00
349.3240, 12083.00
350.5270, 12129.00
351.7290, 12053.00
352.9310, 12168.00
354.1320, 12090.00
355.3340, 12181.00
356.5350, 11988.00
357.7370, 12130.00
358.9380, 12040.00
360.1390, 12079.00
361.3400, 12051.00
362.5400, 12093.00
363.7410, 12126.00
364.9410, 12142.00
366.1410, 12219.00
367.3410, 12282.00
368.5410, 12269.00
369.7410, 12444.00
370.9400, 12367.00
372.1400, 12455.00
373.3390, 12641.00
374.5380, 12559.00
375.7370, 12690.00
376.9360, 12743.00
378.1350, 12786.00
379.3330, 12845.00
380.5310, 12980.00
381.7300, 12964.00
382.9280, 13184.00
384.1260, 13215.00
385.3230, 13268.00
386.5210, 13525.00
387.7180, 13666.00
388.9160, 13817.00
390.1130, 13930.00
391.3100, 14108.24
392.5060, 14171.00
393.7030, 14472.00
394.9000, 14624.00
396.0960, 14851.00
397.2920, 14977.00
398.4880, 15238.00
399.6840, 15335.00
400.8800, 15539.00
402.0750, 15744.00
403.2710, 16030.00
404.4660, 16327.00
405.6610, 16588.00
406.8560, 16841.00
408.0510, 17174.78
409.2450, 17495.00
410.4400, 17804.00
411.6340, 18202.00
412.8280, 18465.00
414.0220, 18885.00
415.2160, 19156.00
416.4100, 19512.00
417.6030, 20001.00
418.7970, 20346.00
419.9900, 20262.00
421.1830, 20713.00
422.3760, 20786.00
423.5690, 20966.00
424.7610, 21133.00
425.9540, 20685.00
427.1460, 20995.00
428.3380, 20908.00
429.5300, 20783.00
430.7220, 21009.00
431.9140, 20843.00
433.1050, 21080.00
434.2970, 21039.00
435.4880, 21421.00
436.6790, 21696.00
437.8700, 21912.00
439.0610, 22276.00
440.2510, 22905.00
441.4420, 23368.00
442.6320, 24218.00
443.8220, 24803.00
445.0120, 25567.00
446.2020, 26487.00
447.3910, 27549.00
448.5810, 28920.00
449.7700, 30005.00
450.9600, 31419.00
452.1490, 32761.00
453.3370, 34195.00
454.5260, 35851.00
455.7150, 37470.00
456.9030, 39011.00
458.0910, 40942.00
459.2800, 42302.00
460.4670, 43788.00
461.6550, 45601.00
462.8430, 46881.00
464.0300, 48036.00
465.2180, 49320.00
466.4050, 50684.00
467.5920, 51305.00
468.7790, 52028.00
469.9650, 52390.00
471.1520, 52980.00
472.3380, 53402.00
473.5250, 53652.00
474.7110, 53628.00
475.8970, 53534.00
477.0820, 53282.51
478.2680, 53076.00
479.4540, 52371.00
480.6390, 51846.00
481.8240, 51130.00
483.0090, 50014.00
484.1940, 49122.00
485.3780, 47955.00
486.5630, 46444.00
487.7470, 44812.00
488.9320, 43310.00
490.1160, 41472.00
491.3000, 39683.00
492.4830, 37529.00
493.6670, 35770.00
494.8500, 33799.00
496.0340, 31870.00
497.2170, 30332.00
498.4000, 28471.00
499.5820, 27178.00
500.7650, 25876.00
501.9480, 24453.00
503.1300, 23330.00
504.3120, 22293.00
505.4940, 21135.00
506.6760, 20345.00
507.8580, 19734.00
509.0390, 18757.00
510.2210, 18411.00
511.4020, 18100.00
512.5830, 17579.00
513.7640, 17216.00
514.9450, 16837.00
516.1250, 16522.00
517.3060, 16230.00
518.4860, 15911.00
519.6660, 15845.00
520.8460, 15521.00
522.0260, 15418.00
523.2060, 15286.00
524.3850, 15173.00
525.5650, 14857.00
526.7440, 14946.00
527.9230, 14670.00
529.1020, 14669.00
530.2810, 14430.00
531.4590, 14316.00
532.6380, 14221.00
533.8160, 14175.00
534.9940, 14112.00
536.1720, 14188.00
537.3500, 13900.00
538.5270, 13862.00
539.7050, 13636.00
540.8820, 13594.00
542.0590, 13452.00
543.2360, 13437.00
544.4130, 13254.00
545.5900, 13334.00
546.7660, 13163.00
547.9430, 13111.00
549.1190, 12973.00
550.2950, 13063.00
551.4710, 13013.00
552.6470, 12856.00
553.8220, 12605.00
554.9980, 12794.00
556.1730, 12539.00
557.3480, 12605.00
558.5230, 12657.00
559.6980, 12590.00
560.8730, 12465.00
562.0470, 12376.00
563.2220, 12465.00
564.3960, 12291.00
565.5700, 12350.00
566.7440, 12347.00
567.9170, 12338.00
569.0910, 12330.71
570.2640, 12233.00
571.4380, 12244.00
572.6110, 12255.00
573.7840, 12161.00
574.9570, 12240.00
576.1290, 12144.00
577.3020, 12129.00
578.4740, 12209.00
579.6460, 12094.00
580.8180, 12060.00
581.9900, 12154.00
583.1620, 12220.00
584.3330, 11969.00
585.5040, 12148.00
586.6760, 11993.00
587.8470, 11947.00
589.0180, 12020.00
590.1880, 12030.00
591.3590, 12159.00
592.5290, 11873.00
593.7000, 12101.00
594.8700, 12023.00
596.0400, 12026.17
597.2090, 12091.00
598.3790, 12033.00
599.5490, 12167.00
600.7180, 12053.00
601.8870, 12134.00
603.0560, 12062.00
604.2250, 12024.00
605.3940, 12006.00
606.5620, 12137.00
607.7300, 12081.00
608.8990, 12084.00
610.0670, 11980.00
611.2350, 12133.00
612.4020, 12155.00
613.5700, 12155.00
614.7370, 12134.00
615.9050, 12211.00
617.0720, 12074.00
618.2390, 12212.00
619.4060, 12130.00
620.5720, 12113.00
621.7390, 12215.00
622.9050, 12225.00
624.0710, 12059.00
625.2370, 12214.00
626.4030, 12149.00
627.5690, 12272.00
628.7340, 12285.14
629.9000, 12245.00
631.0650, 12251.00
632.2300, 12243.00
633.3950, 12205.66
634.5600, 12130.00
635.7240, 12160.00
636.8890, 12200.00
638.0530, 12225.22
639.2170, 12295.00
640.3810, 12263.00
641.5450, 12302.00
642.7080, 12328.00
643.8720, 12227.00
645.0350, 12213.00
646.1980, 12221.45
647.3610, 12247.00
648.5240, 12231.00
649.6870, 12289.00
650.8490, 12266.00
652.0120, 12167.00
653.1740, 12327.00
654.3360, 12338.00
655.4980, 12265.00
656.6600, 12402.00
657.8210, 12196.00
658.9830, 12160.00
660.1440, 12345.00
661.3050, 12193.00
662.4660, 12301.00
663.6270, 12308.00
664.7870, 12270.00
665.9480, 12340.00
667.1080, 12278.00
668.2680, 12249.18
669.4280, 12081.00
670.5880, 12170.00
671.7480, 12177.00
672.9070, 12205.00
674.0670, 12229.00
675.2260, 12215.00
676.3850, 12130.00
677.5440, 12161.00
678.7030, 12077.00
679.8610, 12001.00
681.0200, 12160.00
682.1780, 12279.00
683.3360, 12301.00
684.4940, 12123.00
685.6520, 12219.00
686.8090, 12203.00
687.9670, 12299.00
689.1240, 12162.00
690.2810, 12148.00
691.4380, 12289.00
692.5950, 12364.00
693.7520, 12248.00
694.9080, 12236.00
696.0650, 12348.00
697.2210, 12319.00
698.3770, 12445.00
699.5330, 12481.00
700.6880, 12555.00
701.8440, 12403.00
702.9990, 12464.00
704.1550, 12562.00
705.3100, 12544.00
706.4650, 12612.00
707.6190, 12585.00
708.7740, 12517.00
709.9290, 12477.00
711.0830, 12551.00
712.2370, 12711.00
713.3910, 12790.00
714.5450, 12706.00
715.6980, 12695.00
716.8520, 12678.00
718.0050, 12687.00
719.1580, 12664.00
720.3110, 12714.13
721.4640, 12711.00
722.6170, 12805.00
723.7700, 12803.00
724.9220, 12815.00
726.0740, 12575.00
727.2260, 12561.00
728.3780, 12508.00
729.5300, 12644.00
730.6810, 12667.00
731.8330, 12598.00
732.9840, 12819.00
734.1350, 12556.00
735.2860, 12465.00
736.4370, 12534.00
737.5880, 12565.00
738.7380, 12573.00
739.8880, 12546.00
741.0390, 12565.00
742.1890, 12540.00
743.3380, 12521.00
744.4880, 12586.00
745.6380, 12677.00
746.7870, 12595.00
747.9360, 12585.00
749.0850, 12507.00
750.2340, 12523.00
751.3830, 12542.00
752.5310, 12468.00
753.6800, 12772.00
754.8280, 12842.00
755.9760, 12756.00
757.1240, 12806.00
758.2720, 12790.00
759.4190, 12840.00
760.5670, 12751.00
761.7140, 12762.00
762.8610, 12903.00
764.0080, 12765.00
765.1550, 12797.00
766.3020, 12748.00
767.4480, 12708.00
768.5950, 12623.00
769.7410, 12499.00
770.8870, 12431.00
772.0330, 12399.26
773.1780, 12549.00
774.3240, 12379.00
775.4690, 12446.00
776.6140, 12452.00
777.7590, 12405.00
778.9040, 12412.00
780.0490, 12386.00
781.1940, 12278.00
782.3380, 12228.00
783.4820, 12102.00
784.6260, 12167.00
785.7700, 12006.00
786.9140, 12061.00
788.0580, 12140.00
789.2010, 12202.00
790.3450, 12111.00
791.4880, 11994.00
792.6310, 12005.00
793.7730, 11969.00
794.9160, 12048.00
796.0590, 11983.00
797.2010, 11932.00
798.3430, 11794.00
799.4850, 11990.00
800.6270, 11887.00
801.7690, 11981.00
802.9100, 11885.00
804.0520, 12008.00
805.1930, 11719.00
806.3340, 11838.00
807.4750, 11885.00
808.6160, 11819.00
809.7560, 11842.00
810.8970, 11733.00
812.0370, 11891.00
813.1770, 11903.00
814.3170, 11795.00
815.4570, 11769.00
816.5960, 11766.00
817.7360, 11755.00
818.8750, 11808.00
820.0140, 11799.00
821.1530, 11651.00
822.2920, 11767.00
823.4310, 11778.00
824.5690, 11668.00
825.7070, 11844.00
826.8460, 11791.00
827.9840, 11783.00
829.1220, 11743.00
830.2590, 11741.73
831.3970, 11874.00
832.5340, 11814.00
833.6710, 11803.00
834.8080, 11981.00
835.9450, 11933.00
837.0820, 11850.00
838.2190, 11855.00
839.3550, 11717.00
840.4910, 11843.00
841.6270, 11877.00
842.7630, 12049.00
843.8990, 11933.00
845.0350, 11914.00
846.1700, 11832.00
847.3060, 11891.00
848.4410, 11857.00
849.5760, 11804.00
850.7100, 11942.00
851.8450, 11944.00
852.9800, 11927.00
854.1140, 11958.00
855.2480, 11904.00
856.3820, 12015.00
857.5160, 11854.00
858.6500, 12005.00
859.7830, 11995.00
860.9170, 12081.00
862.0500, 12085.00
863.1830, 11967.00
864.3160, 12027.00
865.4480, 12063.00
866.5810, 12060.00
867.7130, 12175.00
868.8460, 11972.00
869.9780, 12153.00
871.1100, 11956.00
872.2410, 12102.00
873.3730, 12233.00
874.5050, 12149.00
875.6360, 12195.00
876.7670, 12283.00
877.8980, 12051.00
879.0290, 12187.00
880.1590, 12291.00
881.2900, 12086.00
882.4200, 12264.00
883.5500, 12149.00
884.6800, 12163.00
885.8100, 12238.00
886.9400, 12266.00
888.0690, 12244.00
889.1990, 12071.00
890.3280, 12258.00
891.4570, 12287.00
892.5860, 12243.00
893.7140, 12397.00
894.8430, 12334.00
895.9710, 12227.00
897.1000, 12389.00
898.2280, 12244.00
899.3560, 12327.00
900.4830, 12269.00
901.6110, 12413.00
902.7380, 12295.00
903.8660, 12309.00
904.9930, 12467.00
906.1200, 12481.00
907.2460, 12523.00
908.3730, 12561.32
909.5000, 12471.00
910.6260, 12574.00
911.7520, 12585.00
912.8780, 12603.00
914.0040, 12433.00
915.1290, 12552.00
916.2550, 12523.00
917.3800, 12632.00
918.5050, 12621.00
919.6300, 12560.00
920.7550, 12633.00
921.8800, 12549.00
923.0040, 12616.00
924.1290, 12709.00
925.2530, 12758.00
926.3770, 12636.00
927.5010, 12694.00
928.6250, 12654.00
929.7480, 12737.00
930.8720, 12785.00
931.9950, 12703.00
933.1180, 12735.00
934.2410, 12892.00
935.3640, 12811.00
936.4860, 12869.00
937.6090, 12817.00
938.7310, 12977.00
939.8530, 12833.00
940.9750, 12937.00
942.0970, 13137.00
943.2180, 12860.00
944.3400, 13039.00
945.4610, 13071.00
946.5820, 13117.00
947.7030, 13042.00
948.8240, 13179.00
949.9450, 13302.00
951.0650, 13359.00
952.1860, 13259.00
953.3060, 13353.00
954.4260, 13369.00
955.5460, 13339.00
956.6650, 13440.00
957.7850, 13368.00
958.9040, 13547.00
960.0230, 13465.00
961.1420, 13499.00
962.2610, 13499.00
963.3800, 13535.00
964.4990, 13700.00
965.6170, 13723.00
966.7350, 13766.00
967.8530, 13874.00
968.9710, 13744.00
970.0890, 13849.00
971.2070, 13987.00
972.3240, 13989.00
973.4410, 14112.00
974.5580, 14062.00
975.6750, 14134.00
976.7920, 14197.00
977.9090, 14125.00
979.0250, 14338.00
980.1410, 14272.00
981.2580, 14419.00
982.3740, 14311.00
983.4890, 14504.00
984.6050, 14489.00
985.7200, 14555.00
986.8360, 14506.00
987.9510, 14574.00
989.0660, 14597.08
990.1810, 14603.00
991.2950, 14681.00
992.4100, 14703.00
993.5240, 14764.22
994.6390, 14731.08
995.7530, 14816.00
996.8660, 14730.00
997.9800, 14772.00
999.0940, 14966.00
1000.207, 14994.00
1001.320, 14875.00
1002.433, 14968.00
1003.546, 14936.00
1004.659, 14982.00
1005.772, 14935.00
1006.884, 15034.00
1007.996, 15031.00
1009.108, 15171.00
1010.220, 15237.00
1011.332, 15387.00
1012.444, 15421.00
1013.555, 15426.00
1014.666, 15439.00
1015.777, 15454.00
1016.888, 15533.00
1017.999, 15576.98
1019.110, 15640.68
1020.220, 15709.00
1021.331, 15770.00
1022.441, 15809.43
1023.551, 15848.00
1024.661, 15779.00
1025.770, 15853.00
1026.880, 15886.71
1027.989, 15948.00
1029.098, 16022.00
1030.207, 16000.00
1031.316, 16077.00
1032.425, 16023.00
1033.533, 16178.00
1034.642, 16151.00
1035.750, 16133.00
1036.858, 16260.00
1037.966, 16210.00
1039.073, 16290.00
1040.181, 16413.00
1041.288, 16429.00
1042.396, 16458.00
1043.503, 16345.00
1044.610, 16520.00
1045.716, 16651.00
1046.823, 16398.00
1047.929, 16528.00
1049.036, 16707.00
1050.142, 16725.00
1051.248, 16692.00
1052.353, 16622.00
1053.459, 16945.00
1054.564, 16904.00
1055.670, 17040.00
1056.775, 17112.85
1057.880, 17240.24
1058.985, 17322.16
1060.089, 17483.00
1061.194, 17495.00
1062.298, 17430.00
1063.402, 17522.00
1064.506, 17587.00
1065.610, 17714.00
1066.713, 17820.00
1067.817, 17894.21
1068.920, 18113.00
1070.023, 18143.00
1071.126, 18026.00
1072.229, 18322.00
1073.332, 18450.00
1074.435, 18293.00
1075.537, 18599.00
1076.639, 18672.00
1077.741, 18696.00
1078.843, 18700.00
1079.945, 18711.00
1081.046, 18851.00
1082.148, 18619.00
1083.249, 19015.00
1084.350, 19123.00
1085.451, 19047.00
1086.551, 19045.00
1087.652, 19093.00
1088.752, 19004.00
1089.853, 19113.00
1090.953, 19182.00
1092.053, 19182.00
1093.152, 19203.43
1094.252, 19221.10
1095.351, 19132.00
1096.451, 19218.00
1097.550, 19139.00
1098.649, 19103.00
1099.748, 19172.00
1100.846, 18961.00
1101.945, 19074.00
1103.043, 19149.00
1104.141, 18891.00
1105.239, 18880.00
1106.337, 18812.00
1107.434, 18795.00
1108.532, 18745.75
1109.629, 18705.59
1110.726, 18663.00
1111.823, 18667.00
1112.920, 18654.00
1114.017, 18717.00
1115.113, 18496.00
1116.210, 18348.00
1117.306, 18626.00
1118.402, 18359.00
1119.498, 18395.00
1120.593, 18329.00
1121.689, 18337.00
1122.784, 18113.00
1123.879, 18225.00
1124.974, 18094.00
1126.069, 18072.00
1127.164, 18101.00
1128.259, 18063.00
1129.353, 17874.00
1130.447, 17732.00
1131.541, 17630.00
1132.635, 17528.78
1133.729, 17644.00
1134.822, 17462.00
1135.916, 17462.00
1137.009, 17572.00
1138.102, 17505.00
1139.195, 17412.00
1140.288, 17127.00
1141.380, 17188.00
1142.473, 17119.65
1143.565, 16969.28
1144.657, 17129.00
1145.749, 16871.00
1146.841, 16773.00
1147.932, 16984.00
1149.024, 16657.00
1150.115, 16739.00
1151.206, 16609.00
1152.297, 16646.00
1153.388, 16567.00
1154.479, 16425.00
1155.569, 16356.00
1156.659, 16230.38
1157.750, 16234.00
1158.839, 16022.00
1159.929, 16083.00
1161.019, 16051.00
1162.108, 16175.00
1163.198, 16086.00
1164.287, 16105.00
1165.376, 15946.00
1166.465, 16025.00
1167.553, 15788.00
1168.642, 15810.00
1169.730, 15828.00
1170.818, 15701.00
1171.906, 15743.00
1172.994, 15691.00
1174.082, 15566.00
1175.170, 15762.00
1176.257, 15521.00
1177.344, 15537.00
1178.431, 15573.00
1179.518, 15378.00
1180.605, 15438.00
1181.691, 15380.00
1182.778, 15306.00
1183.864, 15317.00
1184.950, 15388.00
1186.036, 15447.00
1187.122, 15316.00
1188.207, 15348.00
1189.292, 15323.00
1190.378, 15131.00
1191.463, 15366.00
1192.548, 15407.00
1193.632, 15127.00
1194.717, 15186.00
1195.801, 15187.00
1196.886, 15233.00
1197.970, 15177.00
1199.054, 15219.00
1200.137, 15148.00
1201.221, 15259.00
1202.305, 15226.00
1203.388, 15247.00
1204.471, 15232.00
1205.554, 15096.00
1206.637, 15114.00
1207.719, 15198.00
1208.802, 15140.00
1209.884, 15277.00
1210.966, 15128.00
1212.048, 15036.00
1213.130, 15246.00
1214.212, 15135.00
1215.293, 14984.00
1216.374, 15059.00
1217.456, 15001.48
1218.536, 15195.00
1219.617, 15054.00
1220.698, 15134.00
1221.778, 15172.00
1222.859, 15160.00
1223.939, 15173.00
1225.019, 15354.00
1226.099, 15320.00
1227.178, 15062.00
1228.258, 15289.00
1229.337, 15228.00
1230.417, 15237.00
1231.496, 15302.07
1232.574, 15172.00
1233.653, 15277.00
1234.732, 15277.00
1235.810, 15163.00
1236.888, 15364.00
1237.966, 15385.00
1239.044, 15247.00
1240.122, 15392.00
1241.199, 15305.00
1242.277, 15462.00
1243.354, 15385.00
1244.431, 15428.00
1245.508, 15428.00
1246.585, 15360.00
1247.661, 15387.00
1248.738, 15353.76
1249.814, 15351.00
1250.890, 15376.00
1251.966, 15363.00
1253.042, 15492.00
1254.117, 15428.00
1255.193, 15200.00
1256.268, 15555.00
1257.343, 15496.00
1258.418, 15342.00
1259.493, 15623.00
1260.567, 15443.00
1261.642, 15493.00
1262.716, 15387.00
1263.790, 15577.00
1264.864, 15446.00
1265.938, 15614.00
1267.011, 15650.00
1268.085, 15537.00
1269.158, 15602.00
1270.231, 15568.00
1271.304, 15419.00
1272.377, 15661.00
1273.450, 15642.00
1274.522, 15541.00
1275.594, 15628.00
1276.666, 15553.00
1277.738, 15642.00
1278.810, 15557.00
1279.882, 15590.00
1280.953, 15572.00
1282.025, 15589.00
1283.096, 15602.25
1284.167, 15620.00
1285.238, 15638.00
1286.308, 15615.00
1287.379, 15650.00
1288.449, 15764.00
1289.519, 15595.00
1290.589, 15683.00
1291.659, 15612.00
1292.729, 15689.00
1293.798, 15889.00
1294.868, 15736.00
1295.937, 15676.00
1297.006, 15737.00
1298.075, 15918.00
1299.143, 15854.00
1300.212, 15841.00
1301.280, 15703.00
1302.348, 15780.00
1303.416, 15805.00
1304.484, 15848.00
1305.552, 15878.00
1306.620, 15886.00
1307.687, 15999.00
1308.754, 15914.00
1309.821, 16045.00
1310.888, 15952.00
1311.955, 16047.00
1313.021, 15974.00
1314.088, 15995.00
1315.154, 15967.00
1316.220, 15984.00
1317.286, 15980.00
1318.352, 15957.00
1319.417, 15967.49
1320.483, 15968.33
1321.548, 15981.00
1322.613, 16003.00
1323.678, 16048.00
1324.743, 16100.00
1325.807, 16077.00
1326.872, 16207.00
1327.936, 16045.00
1329.000, 16291.00
1330.064, 16118.00
1331.128, 16107.00
1332.191, 16127.00
1333.255, 16137.00
1334.318, 16201.00
1335.381, 16290.00
1336.444, 16235.00
1337.507, 16172.00
1338.569, 16274.00
1339.632, 16225.00
1340.694, 16368.00
1341.756, 16353.91
1342.818, 16259.00
1343.880, 16343.00
1344.941, 16249.00
1346.003, 16164.00
1347.064, 16293.00
1348.125, 16583.00
1349.186, 16259.00
1350.247, 16439.00
1351.308, 16350.00
1352.368, 16431.00
1353.428, 16294.00
1354.489, 16506.00
1355.549, 16468.00
1356.608, 16516.00
1357.668, 16311.00
1358.727, 16548.00
1359.787, 16484.00
1360.846, 16654.00
1361.905, 16604.00
1362.964, 16397.00
1364.022, 16529.00
1365.081, 16397.00
1366.139, 16589.00
1367.197, 16659.00
1368.255, 16626.00
1369.313, 16556.00
1370.371, 16646.00
1371.428, 16716.00
1372.486, 16710.00
1373.543, 16717.00
1374.600, 16764.00
1375.657, 16673.00
1376.713, 16734.00
1377.770, 16752.00
1378.826, 16692.00
1379.882, 16515.00
1380.938, 16794.00
1381.994, 16817.00
1383.050, 16681.00
1384.106, 16969.00
1385.161, 16714.00
1386.216, 16765.00
1387.271, 16780.00
1388.326, 16644.00
1389.381, 16889.00
1390.435, 16708.00
1391.490, 16993.00
1392.544, 16768.00
1393.598, 16847.00
1394.652, 16658.00
1395.705, 16887.00
1396.759, 16853.00
1397.812, 16908.00
1398.866, 16948.05
1399.919, 16908.00
1400.972, 16925.00
1402.024, 16957.00
1403.077, 16922.00
1404.129, 16905.00
1405.181, 16879.00
1406.233, 16965.00
1407.285, 16988.00
1408.337, 17110.00
1409.389, 17022.00
1410.440, 17092.00
1411.491, 17105.00
1412.542, 17117.00
1413.593, 17001.00
1414.644, 17087.00
1415.695, 16996.00
1416.745, 17138.00
1417.795, 17130.00
1418.845, 17155.00
1419.895, 17181.00
1420.945, 17196.00
1421.995, 17193.00
1423.044, 17043.00
1424.093, 17227.00
1425.142, 17102.00
1426.191, 17245.00
1427.240, 17179.00
1428.289, 17168.00
1429.337, 17245.00
1430.385, 17120.00
1431.433, 17284.00
1432.481, 17181.00
1433.529, 17359.00
1434.577, 17222.00
1435.624, 17360.00
1436.672, 17334.00
1437.719, 17360.00
1438.766, 17454.00
1439.812, 17331.00
1440.859, 17306.00
1441.905, 17358.00
1442.952, 17474.00
1443.998, 17388.00
1445.044, 17385.00
1446.090, 17604.00
1447.135, 17509.00
1448.181, 17609.00
1449.226, 17441.00
1450.271, 17538.00
1451.316, 17478.00
1452.361, 17685.00
1453.405, 17414.00
1454.450, 17495.00
1455.494, 17759.00
1456.538, 17603.00
1457.582, 17654.00
1458.626, 17665.00
1459.670, 17709.00
1460.713, 17718.35
1461.757, 17729.48
1462.800, 17732.00
1463.843, 17744.00
1464.886, 17746.00
1465.928, 17762.00
1466.971, 17787.82
1468.013, 17778.50
1469.055, 17842.00
1470.097, 17782.00
1471.139, 17786.00
1472.181, 17814.00
1473.222, 17725.00
1474.263, 17725.00
1475.305, 17732.00
1476.346, 17795.00
1477.386, 17850.00
1478.427, 17953.00
1479.468, 17848.00
1480.508, 17944.00
1481.548, 17897.00
1482.588, 18030.00
1483.628, 17819.00
1484.668, 17730.00
1485.707, 17836.00
1486.747, 18090.00
1487.786, 18199.00
1488.825, 18010.00
1489.864, 18019.00
1490.902, 17996.00
1491.941, 18003.00
1492.979, 18050.00
1494.017, 17919.00
1495.055, 18000.00
1496.093, 17994.00
1497.131, 18100.00
1498.168, 18124.00
1499.206, 18098.00
1500.243, 18000.00
1501.280, 18081.00
1502.317, 17944.00
1503.354, 18134.00
1504.390, 18190.00
1505.426, 18286.00
1506.463, 18159.00
1507.499, 18210.00
1508.535, 18233.00
1509.570, 18237.00
1510.606, 18412.00
1511.641, 18230.00
1512.676, 18420.00
1513.711, 18157.00
1514.746, 18255.00
1515.781, 18295.00
1516.816, 18269.00
1517.850, 18393.00
1518.884, 18350.00
1519.918, 18271.00
1520.952, 18240.00
1521.986, 18525.00
1523.019, 18322.00
1524.053, 18499.00
1525.086, 18409.00
1526.119, 18638.00
1527.152, 18407.00
1528.185, 18549.00
1529.217, 18634.00
1530.250, 18567.00
1531.282, 18469.00
1532.314, 18642.00
1533.346, 18617.00
1534.377, 18512.00
1535.409, 18545.00
1536.440, 18522.51
1537.472, 18619.00
1538.503, 18579.00
1539.534, 18647.00
1540.564, 18748.00
1541.595, 18751.00
1542.625, 18656.00
1543.656, 18774.00
1544.686, 18741.00
1545.716, 18811.00
1546.745, 18769.00
1547.775, 18724.00
1548.804, 18835.00
1549.834, 18842.00
1550.863, 18702.00
1551.892, 18846.00
1552.920, 18834.00
1553.949, 19142.00
1554.977, 19105.00
1556.006, 19215.00
1557.034, 19000.00
1558.062, 19012.00
1559.089, 18899.00
1560.117, 19176.00
1561.144, 18916.00
1562.172, 18963.00
1563.199, 19176.00
1564.226, 19094.00
1565.252, 19147.00
1566.279, 19023.00
1567.305, 19059.00
1568.332, 19006.00
1569.358, 19257.00
1570.384, 19021.00
1571.409, 19469.00
1572.435, 19083.00
##END=



