##NAMES=Phillipsite-Ca
##RRUFFID=R050078
##IDEAL CHEMISTRY=Ca_3_(Si_10_Al_6_)O_32_&#183;12H_2_O
##LOCALITY=Grant County, Oregon, USA
##OWNER=RRUFF
##SOURCE=Rock Currier
##DESCRIPTION=White tabular hexagonal
##STATUS=The identification of this mineral has been confirmed by X-ray diffraction and chemical analysis
##URL=rruff.info/R050078
##MEASURED CHEMISTRY=(Ca_0.90_K_0.75_[box]_0.25_Na_0.10_)_Σ=2_(Si_5.35_Al_2.65_)_Σ=8_O_16_·6H_2_O
##PIN_ID=L00730
##ORIENTATION=Laser parallel to -c* (0 0 -1). Fiducial mark perpendicular to laser is parallel to a [1 0 0]
241.7140, 23204.00
242.9300, 23127.00
244.1460, 23171.00
245.3610, 23123.00
246.5770, 23136.00
247.7920, 23171.00
249.0070, 23367.00
250.2220, 23222.00
251.4370, 23215.00
252.6510, 23136.00
253.8660, 23036.00
255.0800, 23283.00
256.2940, 23259.00
257.5080, 23270.00
258.7220, 23365.00
259.9360, 23451.00
261.1490, 23405.00
262.3630, 23463.09
263.5760, 23445.00
264.7890, 23343.00
266.0020, 23427.00
267.2150, 23105.00
268.4270, 23394.00
269.6400, 23246.00
270.8520, 23384.00
272.0640, 23574.00
273.2760, 23593.00
274.4880, 23453.00
275.7000, 23707.00
276.9120, 23574.00
278.1230, 23451.00
279.3340, 23548.00
280.5450, 23656.00
281.7560, 23790.00
282.9670, 23747.00
284.1780, 23805.38
285.3880, 23943.00
286.5980, 23879.00
287.8090, 23910.82
289.0190, 23833.00
290.2290, 23874.00
291.4380, 23926.00
292.6480, 23963.00
293.8570, 24007.62
295.0670, 23995.00
296.2760, 24097.00
297.4850, 24186.00
298.6930, 24247.00
299.9020, 24196.00
301.1110, 24098.00
302.3190, 24219.00
303.5270, 24173.19
304.7350, 24323.00
305.9430, 24262.00
307.1510, 24295.00
308.3580, 24418.00
309.5660, 24150.00
310.7730, 24528.00
311.9800, 24622.00
313.1870, 24481.00
314.3940, 24668.00
315.6010, 24552.00
316.8070, 24635.00
318.0130, 24524.00
319.2200, 24544.00
320.4260, 24528.00
321.6310, 24678.00
322.8370, 24745.00
324.0430, 24719.00
325.2480, 24844.00
326.4540, 24888.00
327.6590, 24966.00
328.8640, 24852.00
330.0680, 24704.00
331.2730, 24860.00
332.4780, 24876.00
333.6820, 24770.00
334.8860, 24825.00
336.0900, 24658.00
337.2940, 24941.00
338.4980, 24838.00
339.7010, 24969.00
340.9050, 24913.00
342.1080, 24952.00
343.3110, 25064.00
344.5140, 25122.00
345.7170, 25002.00
346.9200, 25086.00
348.1220, 24940.00
349.3240, 25059.00
350.5270, 25043.00
351.7290, 25194.00
352.9310, 25367.00
354.1320, 25222.00
355.3340, 25255.00
356.5350, 25425.00
357.7370, 25471.00
358.9380, 25354.00
360.1390, 25371.00
361.3400, 25470.00
362.5400, 25397.00
363.7410, 25543.00
364.9410, 25482.00
366.1410, 25680.00
367.3410, 25717.38
368.5410, 25575.00
369.7410, 25837.00
370.9400, 25777.00
372.1400, 25753.00
373.3390, 25944.00
374.5380, 26019.00
375.7370, 26173.00
376.9360, 26062.00
378.1350, 25965.00
379.3330, 26252.00
380.5310, 26405.00
381.7300, 26422.00
382.9280, 26538.00
384.1260, 26468.00
385.3230, 26703.00
386.5210, 26640.00
387.7180, 26895.00
388.9160, 26735.00
390.1130, 26891.00
391.3100, 27211.00
392.5060, 27314.00
393.7030, 27382.00
394.9000, 27588.00
396.0960, 27657.00
397.2920, 27632.00
398.4880, 27961.00
399.6840, 28201.00
400.8800, 28056.00
402.0750, 28348.00
403.2710, 28303.00
404.4660, 28490.00
405.6610, 28738.00
406.8560, 29002.00
408.0510, 29063.00
409.2450, 29257.00
410.4400, 29455.00
411.6340, 29541.00
412.8280, 29869.00
414.0220, 30072.00
415.2160, 30376.00
416.4100, 30550.79
417.6030, 30756.00
418.7970, 30879.00
419.9900, 30916.00
421.1830, 31057.00
422.3760, 30953.00
423.5690, 31010.00
424.7610, 31026.00
425.9540, 31087.00
427.1460, 31121.00
428.3380, 31229.00
429.5300, 31261.29
430.7220, 31230.00
431.9140, 31390.00
433.1050, 31289.00
434.2970, 31400.00
435.4880, 31550.00
436.6790, 31861.00
437.8700, 31873.00
439.0610, 32182.00
440.2510, 32396.00
441.4420, 32789.00
442.6320, 33248.00
443.8220, 33684.00
445.0120, 34069.00
446.2020, 34437.00
447.3910, 35147.00
448.5810, 35476.00
449.7700, 36176.00
450.9600, 36794.00
452.1490, 37512.00
453.3370, 38366.00
454.5260, 39028.00
455.7150, 39622.00
456.9030, 40450.88
458.0910, 41415.00
459.2800, 42046.00
460.4670, 42916.00
461.6550, 43880.00
462.8430, 44534.00
464.0300, 45352.00
465.2180, 46010.00
466.4050, 46173.00
467.5920, 46878.00
468.7790, 47024.00
469.9650, 47746.00
471.1520, 47565.00
472.3380, 47686.00
473.5250, 47787.00
474.7110, 47888.00
475.8970, 47929.00
477.0820, 47807.00
478.2680, 47559.00
479.4540, 47510.00
480.6390, 47052.00
481.8240, 46984.00
483.0090, 46242.00
484.1940, 45934.00
485.3780, 45223.00
486.5630, 44495.00
487.7470, 43760.00
488.9320, 42960.58
490.1160, 42106.00
491.3000, 41259.00
492.4830, 40333.00
493.6670, 39327.00
494.8500, 38710.00
496.0340, 37901.00
497.2170, 37104.00
498.4000, 36604.00
499.5820, 35902.00
500.7650, 35167.00
501.9480, 34799.00
503.1300, 34166.00
504.3120, 33607.00
505.4940, 33448.00
506.6760, 33049.00
507.8580, 32734.00
509.0390, 32758.00
510.2210, 32220.00
511.4020, 32013.00
512.5830, 31785.00
513.7640, 31738.00
514.9450, 31551.00
516.1250, 31562.00
517.3060, 31465.00
518.4860, 31219.00
519.6660, 31154.00
520.8460, 31103.00
522.0260, 31250.00
523.2060, 31159.00
524.3850, 31082.00
525.5650, 30943.00
526.7440, 31146.00
527.9230, 31062.00
529.1020, 31073.00
530.2810, 31096.00
531.4590, 31041.00
532.6380, 31032.07
533.8160, 31022.72
534.9940, 30979.00
536.1720, 30991.00
537.3500, 31017.00
538.5270, 30990.00
539.7050, 30953.00
540.8820, 30826.00
542.0590, 30757.00
543.2360, 31014.00
544.4130, 30754.00
545.5900, 31005.00
546.7660, 30882.00
547.9430, 31137.00
549.1190, 31041.00
550.2950, 31091.00
551.4710, 31086.00
552.6470, 30946.00
553.8220, 30678.00
554.9980, 31108.00
556.1730, 30861.00
557.3480, 31174.00
558.5230, 31091.00
559.6980, 31009.00
560.8730, 31039.00
562.0470, 31032.00
563.2220, 31037.00
564.3960, 31100.14
565.5700, 31284.00
566.7440, 31211.00
567.9170, 31226.00
569.0910, 31240.00
570.2640, 31129.00
571.4380, 31254.00
572.6110, 31485.00
573.7840, 31309.00
574.9570, 31410.00
576.1290, 31316.00
577.3020, 31248.00
578.4740, 31408.00
579.6460, 31408.00
580.8180, 31496.00
581.9900, 31294.00
583.1620, 31541.00
584.3330, 31624.00
585.5040, 31532.00
586.6760, 31715.00
587.8470, 31787.00
589.0180, 31479.00
590.1880, 31718.00
591.3590, 31779.00
592.5290, 31728.00
593.7000, 31967.00
594.8700, 31722.00
596.0400, 32001.00
597.2090, 31838.00
598.3790, 32054.00
599.5490, 31928.00
600.7180, 31963.00
601.8870, 31807.00
603.0560, 32076.00
604.2250, 32017.00
605.3940, 32177.00
606.5620, 32186.00
607.7300, 32341.00
608.8990, 32384.00
610.0670, 32311.00
611.2350, 32481.00
612.4020, 32447.41
613.5700, 32478.00
614.7370, 32476.00
615.9050, 32486.00
617.0720, 32346.00
618.2390, 32449.00
619.4060, 32445.72
620.5720, 32623.00
621.7390, 32541.00
622.9050, 32790.00
624.0710, 32827.00
625.2370, 32865.00
626.4030, 32906.00
627.5690, 32957.00
628.7340, 32882.00
629.9000, 33082.00
631.0650, 32769.00
632.2300, 32937.00
633.3950, 33117.00
634.5600, 33199.00
635.7240, 33349.00
636.8890, 33141.00
638.0530, 33336.00
639.2170, 33222.00
640.3810, 33247.00
641.5450, 33279.00
642.7080, 33213.00
643.8720, 33377.00
645.0350, 33387.00
646.1980, 33654.00
647.3610, 33443.00
648.5240, 33301.00
649.6870, 33458.00
650.8490, 33505.00
652.0120, 33536.00
653.1740, 33553.00
654.3360, 33756.00
655.4980, 33771.00
656.6600, 33838.00
657.8210, 33844.00
658.9830, 33949.00
660.1440, 33652.00
661.3050, 33659.00
662.4660, 33902.00
663.6270, 33676.00
664.7870, 33961.00
665.9480, 33666.00
667.1080, 34073.00
668.2680, 33953.00
669.4280, 33942.00
670.5880, 33815.00
671.7480, 34012.00
672.9070, 34036.00
674.0670, 34115.00
675.2260, 34218.00
676.3850, 34314.00
677.5440, 34326.00
678.7030, 34528.00
679.8610, 34121.00
681.0200, 34442.00
682.1780, 34280.00
683.3360, 34266.00
684.4940, 34236.00
685.6520, 34446.00
686.8090, 34544.00
687.9670, 34447.00
689.1240, 34427.00
690.2810, 34309.00
691.4380, 34493.00
692.5950, 34523.00
693.7520, 34758.00
694.9080, 34829.00
696.0650, 34680.00
697.2210, 34736.00
698.3770, 34738.00
699.5330, 35059.00
700.6880, 34911.00
701.8440, 35137.00
702.9990, 35163.00
704.1550, 34945.00
705.3100, 35300.00
706.4650, 35155.00
707.6190, 35262.00
708.7740, 35185.00
709.9290, 35243.71
711.0830, 35258.00
712.2370, 35354.00
713.3910, 35330.00
714.5450, 35320.00
715.6980, 35546.00
716.8520, 35507.00
718.0050, 35689.00
719.1580, 35525.00
720.3110, 35742.00
721.4640, 35906.00
722.6170, 35562.00
723.7700, 35560.00
724.9220, 35627.00
726.0740, 35510.44
727.2260, 35856.00
728.3780, 35581.00
729.5300, 35637.00
730.6810, 35791.00
731.8330, 35722.00
732.9840, 35722.00
734.1350, 36208.00
735.2860, 35889.00
736.4370, 36363.00
737.5880, 35836.00
738.7380, 36252.00
739.8880, 35947.00
741.0390, 36108.00
742.1890, 36266.00
743.3380, 36222.00
744.4880, 36216.00
745.6380, 36112.00
746.7870, 36356.00
747.9360, 36422.00
749.0850, 36386.00
750.2340, 36309.00
751.3830, 36578.00
752.5310, 36277.00
753.6800, 36440.00
754.8280, 36433.00
755.9760, 36400.00
757.1240, 36789.00
758.2720, 36521.00
759.4190, 36698.00
760.5670, 36947.00
761.7140, 36893.00
762.8610, 36689.00
764.0080, 36772.00
765.1550, 36804.00
766.3020, 36906.00
767.4480, 36966.00
768.5950, 36923.00
769.7410, 37137.00
770.8870, 37344.00
772.0330, 37009.00
773.1780, 36829.00
774.3240, 36921.00
775.4690, 37127.00
776.6140, 37079.00
777.7590, 37032.00
778.9040, 37214.00
780.0490, 36886.00
781.1940, 37204.00
782.3380, 37168.00
783.4820, 37250.00
784.6260, 37138.00
785.7700, 37271.00
786.9140, 37170.00
788.0580, 37449.00
789.2010, 37358.00
790.3450, 37433.00
791.4880, 37552.00
792.6310, 37350.00
793.7730, 37290.00
794.9160, 37530.00
796.0590, 37437.00
797.2010, 37492.00
798.3430, 37420.00
799.4850, 37213.00
800.6270, 37758.00
801.7690, 37488.00
802.9100, 37718.00
804.0520, 37523.00
805.1930, 37728.00
806.3340, 37774.00
807.4750, 37572.00
808.6160, 37777.00
809.7560, 37781.00
810.8970, 37742.00
812.0370, 38007.00
813.1770, 37924.00
814.3170, 37906.00
815.4570, 38130.00
816.5960, 37921.00
817.7360, 38129.00
818.8750, 38132.00
820.0140, 38054.00
821.1530, 38281.00
822.2920, 38037.00
823.4310, 38149.00
824.5690, 38215.00
825.7070, 38510.00
826.8460, 38077.00
827.9840, 38265.00
829.1220, 38014.00
830.2590, 38289.00
831.3970, 38335.00
832.5340, 38344.00
833.6710, 38425.00
834.8080, 38607.00
835.9450, 38649.00
837.0820, 38599.00
838.2190, 38969.00
839.3550, 38593.00
840.4910, 38645.00
841.6270, 38869.00
842.7630, 38687.00
843.8990, 38719.00
845.0350, 38790.50
846.1700, 38946.00
847.3060, 38780.00
848.4410, 39041.00
849.5760, 38828.00
850.7100, 39081.00
851.8450, 39053.00
852.9800, 39154.00
854.1140, 39352.00
855.2480, 39171.00
856.3820, 39338.00
857.5160, 39365.00
858.6500, 39507.00
859.7830, 39499.00
860.9170, 39612.00
862.0500, 39594.00
863.1830, 39501.00
864.3160, 39575.00
865.4480, 39535.00
866.5810, 39477.00
867.7130, 39621.43
868.8460, 39748.00
869.9780, 39923.00
871.1100, 39913.00
872.2410, 40171.00
873.3730, 40102.00
874.5050, 39955.00
875.6360, 40073.00
876.7670, 40032.00
877.8980, 40253.00
879.0290, 40252.00
880.1590, 40342.00
881.2900, 40319.00
882.4200, 40251.00
883.5500, 40494.00
884.6800, 40398.00
885.8100, 40483.00
886.9400, 40390.00
888.0690, 40480.00
889.1990, 41011.00
890.3280, 40422.00
891.4570, 40741.00
892.5860, 40210.00
893.7140, 40550.00
894.8430, 40469.00
895.9710, 40441.00
897.1000, 40727.00
898.2280, 40551.00
899.3560, 40705.00
900.4830, 40790.00
901.6110, 40622.00
902.7380, 40772.00
903.8660, 40527.00
904.9930, 40802.00
906.1200, 40801.00
907.2460, 40637.00
908.3730, 40721.00
909.5000, 40948.00
910.6260, 41075.00
911.7520, 41037.00
912.8780, 41201.00
914.0040, 40828.00
915.1290, 41259.00
916.2550, 41106.00
917.3800, 41411.00
918.5050, 41346.00
919.6300, 41401.00
920.7550, 41250.00
921.8800, 41370.00
923.0040, 41414.00
924.1290, 41442.00
925.2530, 41509.00
926.3770, 41442.00
927.5010, 41664.00
928.6250, 41465.00
929.7480, 41385.00
930.8720, 41546.00
931.9950, 41861.00
933.1180, 41701.00
934.2410, 41699.00
935.3640, 41813.00
936.4860, 41765.00
937.6090, 41835.71
938.7310, 41953.00
939.8530, 41927.00
940.9750, 42127.00
942.0970, 42193.00
943.2180, 42158.00
944.3400, 42153.00
945.4610, 42418.00
946.5820, 42028.00
947.7030, 42003.00
948.8240, 42366.00
949.9450, 42325.00
951.0650, 42320.00
952.1860, 42342.00
953.3060, 42685.00
954.4260, 42533.00
955.5460, 42702.00
956.6650, 42685.00
957.7850, 42336.00
958.9040, 42761.00
960.0230, 42666.00
961.1420, 42812.00
962.2610, 42920.00
963.3800, 42805.00
964.4990, 42836.00
965.6170, 42873.79
966.7350, 43066.00
967.8530, 42955.00
968.9710, 43173.00
970.0890, 43245.00
971.2070, 43279.00
972.3240, 43456.00
973.4410, 43279.00
974.5580, 43640.00
975.6750, 43307.00
976.7920, 43596.00
977.9090, 43479.00
979.0250, 43534.00
980.1410, 43660.00
981.2580, 43624.00
982.3740, 43957.00
983.4890, 43733.00
984.6050, 43828.00
985.7200, 43675.00
986.8360, 43949.00
987.9510, 44075.00
989.0660, 44022.00
990.1810, 43987.00
991.2950, 44006.00
992.4100, 44062.44
993.5240, 44283.00
994.6390, 44244.00
995.7530, 44386.00
996.8660, 44467.00
997.9800, 44328.00
999.0940, 44541.00
1000.207, 44513.00
1001.320, 44474.00
1002.433, 44655.00
1003.546, 44758.00
1004.659, 44551.00
1005.772, 44624.00
1006.884, 44805.00
1007.996, 44744.00
1009.108, 44888.00
1010.220, 44975.00
1011.332, 44842.00
1012.444, 45014.00
1013.555, 45100.00
1014.666, 45199.00
1015.777, 44994.00
1016.888, 45196.00
1017.999, 45190.00
1019.110, 45440.00
1020.220, 45512.00
1021.331, 45416.00
1022.441, 45484.00
1023.551, 45434.00
1024.661, 45485.51
1025.770, 45513.08
1026.880, 45614.00
1027.989, 45609.00
1029.098, 45684.00
1030.207, 45788.00
1031.316, 45909.00
1032.425, 45774.00
1033.533, 45790.00
1034.642, 45910.00
1035.750, 45872.00
1036.858, 45919.00
1037.966, 45748.00
1039.073, 46012.00
1040.181, 46051.00
1041.288, 46049.00
1042.396, 45880.00
1043.503, 46000.99
1044.610, 46422.00
1045.716, 46185.00
1046.823, 46444.00
1047.929, 46685.00
1049.036, 46735.00
1050.142, 46541.00
1051.248, 46395.00
1052.353, 46442.00
1053.459, 46685.00
1054.564, 46798.00
1055.670, 46919.00
1056.775, 47016.95
1057.880, 47128.00
1058.985, 47094.00
1060.089, 47304.00
1061.194, 47282.00
1062.298, 47190.00
1063.402, 47477.00
1064.506, 47513.00
1065.610, 47733.00
1066.713, 47853.00
1067.817, 47583.00
1068.920, 47929.00
1070.023, 47630.00
1071.126, 47846.00
1072.229, 48060.00
1073.332, 47842.00
1074.435, 48191.00
1075.537, 48010.00
1076.639, 48202.00
1077.741, 48180.00
1078.843, 48247.43
1079.945, 48135.00
1081.046, 48477.00
1082.148, 48400.00
1083.249, 48577.00
1084.350, 48835.00
1085.451, 48698.00
1086.551, 48710.00
1087.652, 48733.00
1088.752, 48737.00
1089.853, 48790.00
1090.953, 48832.00
1092.053, 48875.00
1093.152, 48891.00
1094.252, 48837.00
1095.351, 49006.00
1096.451, 48956.00
1097.550, 49081.00
1098.649, 49147.60
1099.748, 49112.95
1100.846, 49224.00
1101.945, 49089.00
1103.043, 48960.00
1104.141, 48965.00
1105.239, 49204.00
1106.337, 49073.00
1107.434, 49078.00
1108.532, 49149.00
1109.629, 49114.00
1110.726, 49175.00
1111.823, 49222.00
1112.920, 49281.00
1114.017, 49235.00
1115.113, 49231.00
1116.210, 49381.00
1117.306, 49377.00
1118.402, 49510.00
1119.498, 49437.00
1120.593, 49559.00
1121.689, 49426.00
1122.784, 49729.00
1123.879, 49471.00
1124.974, 49646.00
1126.069, 49410.00
1127.164, 49707.00
1128.259, 49554.00
1129.353, 49399.00
1130.447, 49470.00
1131.541, 49345.00
1132.635, 49359.00
1133.729, 49393.00
1134.822, 49205.00
1135.916, 49315.00
1137.009, 49112.00
1138.102, 49300.00
1139.195, 49308.00
1140.288, 49227.00
1141.380, 49389.00
1142.473, 49369.00
1143.565, 49102.00
1144.657, 49209.00
1145.749, 49331.00
1146.841, 49573.00
1147.932, 49309.00
1149.024, 49405.00
1150.115, 49424.00
1151.206, 49159.00
1152.297, 49512.00
1153.388, 49189.00
1154.479, 49339.00
1155.569, 49228.00
1156.659, 49560.00
1157.750, 49626.00
1158.839, 49555.00
1159.929, 49500.00
1161.019, 49577.00
1162.108, 49460.00
1163.198, 49494.00
1164.287, 49572.00
1165.376, 49436.00
1166.465, 49451.00
1167.553, 49754.00
1168.642, 49685.00
1169.730, 49402.00
1170.818, 49821.00
1171.906, 49521.00
1172.994, 49649.00
1174.082, 49799.00
1175.170, 49649.00
1176.257, 49849.00
1177.344, 49567.00
1178.431, 49731.00
1179.518, 49711.00
1180.605, 49918.00
1181.691, 49606.00
1182.778, 49598.00
1183.864, 49583.00
1184.950, 49721.00
1186.036, 49662.00
1187.122, 49975.00
1188.207, 49717.00
1189.292, 49903.00
1190.378, 50164.00
1191.463, 49906.00
1192.548, 49820.00
1193.632, 50068.00
1194.717, 49853.00
1195.801, 50076.00
1196.886, 50318.00
1197.970, 50190.00
1199.054, 50130.00
1200.137, 50169.00
1201.221, 50349.00
1202.305, 50286.00
1203.388, 50345.00
1204.471, 50124.00
1205.554, 50345.00
1206.637, 50304.00
1207.719, 50255.00
1208.802, 50463.00
1209.884, 50513.00
1210.966, 50448.00
1212.048, 50657.00
1213.130, 50528.00
1214.212, 50573.00
1215.293, 50390.00
1216.374, 50786.00
1217.456, 50572.00
1218.536, 50824.00
1219.617, 50658.00
1220.698, 50569.00
1221.778, 50611.00
1222.859, 51067.00
1223.939, 50941.00
1225.019, 51052.00
1226.099, 51034.00
1227.178, 50828.00
1228.258, 50588.00
1229.337, 50723.00
1230.417, 51011.00
1231.496, 50871.00
1232.574, 50927.00
1233.653, 51206.00
1234.732, 51280.00
1235.810, 51153.00
1236.888, 51231.00
1237.966, 51086.00
1239.044, 51129.00
1240.122, 51425.00
1241.199, 51237.00
1242.277, 51546.00
1243.354, 51230.00
1244.431, 51199.00
1245.508, 51506.00
1246.585, 51421.00
1247.661, 51482.00
1248.738, 51398.00
1249.814, 51801.00
1250.890, 51700.00
1251.966, 51569.00
1253.042, 51925.00
1254.117, 51555.00
1255.193, 51676.00
1256.268, 51363.00
1257.343, 51896.00
1258.418, 51912.00
1259.493, 51873.00
1260.567, 51814.00
1261.642, 51785.00
1262.716, 52132.00
1263.790, 51988.00
1264.864, 52107.00
1265.938, 52252.00
1267.011, 52208.00
1268.085, 52196.00
1269.158, 51762.00
1270.231, 52126.00
1271.304, 52136.00
1272.377, 52150.00
1273.450, 52449.00
1274.522, 52181.00
1275.594, 52124.00
1276.666, 52440.00
1277.738, 52400.00
1278.810, 52482.00
1279.882, 52610.00
1280.953, 52515.00
1282.025, 52627.00
1283.096, 52649.00
1284.167, 52685.00
1285.238, 52674.00
1286.308, 52498.00
1287.379, 52562.00
1288.449, 52516.25
1289.519, 52548.00
1290.589, 52638.00
1291.659, 52642.00
1292.729, 52944.00
1293.798, 52802.00
1294.868, 52700.00
1295.937, 52973.00
1297.006, 52977.00
1298.075, 53097.00
1299.143, 52843.00
1300.212, 53079.00
1301.280, 52766.00
1302.348, 53026.00
1303.416, 52830.00
1304.484, 53144.00
1305.552, 53031.00
1306.620, 53166.00
1307.687, 53095.00
1308.754, 53409.00
1309.821, 53526.00
1310.888, 53454.00
1311.955, 53370.00
1313.021, 53251.00
1314.088, 53412.00
1315.154, 53425.00
1316.220, 53615.00
1317.286, 53689.00
1318.352, 53693.00
1319.417, 53793.00
1320.483, 53874.00
1321.548, 53750.00
1322.613, 53574.00
1323.678, 53945.00
1324.743, 54048.00
1325.807, 53924.00
1326.872, 53733.00
1327.936, 53897.00
1329.000, 53773.00
1330.064, 53843.00
1331.128, 54011.00
1332.191, 53839.00
1333.255, 54035.00
1334.318, 53969.00
1335.381, 54081.00
1336.444, 54071.00
1337.507, 54347.00
1338.569, 54012.00
1339.632, 54202.00
1340.694, 54045.00
1341.756, 54249.00
1342.818, 54362.00
1343.880, 54503.00
1344.941, 54343.00
1346.003, 54297.00
1347.064, 54435.00
1348.125, 54353.00
1349.186, 54501.00
1350.247, 54596.00
1351.308, 54845.00
1352.368, 54649.00
1353.428, 54574.00
1354.489, 54692.00
1355.549, 54848.00
1356.608, 54819.00
1357.668, 54620.00
1358.727, 54683.00
1359.787, 54625.96
1360.846, 54657.59
1361.905, 54706.00
1362.964, 54777.00
1364.022, 54989.00
1365.081, 55014.00
1366.139, 54967.00
1367.197, 54974.00
1368.255, 54835.00
1369.313, 55287.00
1370.371, 54955.00
1371.428, 54917.00
1372.486, 55195.00
1373.543, 54785.00
1374.600, 55087.00
1375.657, 55238.00
1376.713, 55484.00
1377.770, 55365.00
1378.826, 55108.00
1379.882, 55483.00
1380.938, 55268.00
1381.994, 55470.00
1383.050, 55398.00
1384.106, 55269.00
1385.161, 55552.00
1386.216, 55514.00
1387.271, 55443.00
1388.326, 55761.00
1389.381, 55735.00
1390.435, 55872.00
1391.490, 55694.00
1392.544, 55750.00
1393.598, 55474.00
1394.652, 55978.00
1395.705, 55705.00
1396.759, 55660.00
1397.812, 56016.00
1398.866, 55530.00
1399.919, 56042.00
1400.972, 55881.00
1402.024, 55875.00
1403.077, 55820.00
1404.129, 55896.00
1405.181, 55839.33
1406.233, 56093.00
1407.285, 55845.00
1408.337, 56190.00
1409.389, 56342.00
1410.440, 56009.00
1411.491, 56142.00
1412.542, 56202.00
1413.593, 56587.00
1414.644, 56269.00
1415.695, 56311.00
1416.745, 56469.00
1417.795, 56328.00
1418.845, 56325.00
1419.895, 56434.00
1420.945, 56602.00
1421.995, 56718.00
1423.044, 56512.00
1424.093, 56871.00
1425.142, 56408.00
1426.191, 56536.00
1427.240, 56858.00
1428.289, 56984.00
1429.337, 56698.00
1430.385, 56651.00
1431.433, 56680.56
1432.481, 56637.00
1433.529, 56768.00
1434.577, 56841.00
1435.624, 56988.00
1436.672, 57011.49
1437.719, 57079.00
1438.766, 57017.00
1439.812, 57039.00
1440.859, 56944.90
1441.905, 57233.00
1442.952, 56866.00
1443.998, 57106.00
1445.044, 57199.00
1446.090, 57139.00
1447.135, 57476.00
1448.181, 57315.00
1449.226, 57661.00
1450.271, 57406.00
1451.316, 57867.00
1452.361, 57541.00
1453.405, 57569.00
1454.450, 57598.00
1455.494, 57691.00
1456.538, 57846.00
1457.582, 57501.00
1458.626, 57889.00
1459.670, 57896.00
1460.713, 57429.00
1461.757, 57803.00
1462.800, 57827.00
1463.843, 57745.00
1464.886, 57795.00
1465.928, 57722.00
1466.971, 57693.00
1468.013, 58026.00
1469.055, 57901.00
1470.097, 57784.00
1471.139, 58059.00
1472.181, 58058.00
1473.222, 58096.00
1474.263, 57917.00
1475.305, 58017.00
1476.346, 57946.00
1477.386, 58283.00
1478.427, 57935.00
1479.468, 58269.00
1480.508, 58068.00
1481.548, 58155.00
1482.588, 58155.00
1483.628, 58483.00
1484.668, 58482.00
1485.707, 58576.00
1486.747, 58456.00
1487.786, 58579.00
1488.825, 58578.83
1489.864, 58731.00
1490.902, 58677.00
1491.941, 58754.00
1492.979, 58873.00
1494.017, 58759.00
1495.055, 58475.00
1496.093, 58437.00
1497.131, 58772.00
1498.168, 58716.00
1499.206, 58916.00
1500.243, 58736.00
1501.280, 58976.00
1502.317, 58830.00
1503.354, 58657.00
1504.390, 58813.00
1505.426, 58796.00
1506.463, 58908.00
1507.499, 58952.00
1508.535, 58893.00
1509.570, 59077.00
1510.606, 59239.00
1511.641, 59073.00
1512.676, 59213.00
1513.711, 59199.00
1514.746, 59199.05
1515.781, 59389.00
1516.816, 59256.00
1517.850, 59352.00
1518.884, 59391.00
1519.918, 59358.65
1520.952, 59439.00
1521.986, 59361.00
1523.019, 59431.00
1524.053, 59414.00
1525.086, 59416.00
1526.119, 59724.00
1527.152, 59436.00
1528.185, 59814.00
1529.217, 59705.00
1530.250, 59781.00
1531.282, 59766.00
1532.314, 59647.00
1533.346, 59930.00
1534.377, 59553.00
1535.409, 59727.00
1536.440, 59777.00
1537.472, 59865.00
1538.503, 59868.00
1539.534, 59936.00
1540.564, 59964.00
1541.595, 60214.00
1542.625, 60014.00
1543.656, 60188.00
1544.686, 60148.00
1545.716, 60085.00
1546.745, 60200.00
1547.775, 60177.90
1548.804, 60246.00
1549.834, 60170.00
1550.863, 60202.49
1551.892, 60319.00
1552.920, 60291.00
1553.949, 60385.06
1554.977, 60606.00
1556.006, 60485.00
1557.034, 60397.00
1558.062, 60582.00
1559.089, 60485.00
1560.117, 60516.00
1561.144, 60460.00
1562.172, 60674.00
1563.199, 60405.00
1564.226, 60630.00
1565.252, 60342.00
1566.279, 60460.00
1567.305, 60580.00
1568.332, 60963.00
1569.358, 60836.00
1570.384, 60765.00
1571.409, 61084.00
##END=



