##NAMES=Phillipsite-Ca
##RRUFFID=R050078
##IDEAL CHEMISTRY=Ca_3_(Si_10_Al_6_)O_32_&#183;12H_2_O
##LOCALITY=Grant County, Oregon, USA
##OWNER=RRUFF
##SOURCE=Rock Currier
##DESCRIPTION=White tabular hexagonal
##STATUS=The identification of this mineral has been confirmed by X-ray diffraction and chemical analysis
##URL=rruff.info/R050078
##MEASURED CHEMISTRY=(Ca_0.90_K_0.75_[box]_0.25_Na_0.10_)_Σ=2_(Si_5.35_Al_2.65_)_Σ=8_O_16_·6H_2_O
##PIN_ID=L01141
##ORIENTATION=Laser parallel to (1 0 1). Fiducial mark perpendicular to laser is parallel to -b [0 -1 0]
273.2760, 24117.00
274.4880, 23939.00
275.7000, 23985.00
276.9120, 23979.00
278.1230, 23936.00
279.3340, 23935.00
280.5450, 23910.28
281.7560, 23893.03
282.9670, 23908.00
284.1780, 23887.00
285.3880, 23963.00
286.5980, 24015.00
287.8090, 23867.00
289.0190, 23696.00
290.2290, 23821.00
291.4380, 23683.00
292.6480, 23795.00
293.8570, 23763.00
295.0670, 24053.00
296.2760, 23719.00
297.4850, 23855.00
298.6930, 23779.00
299.9020, 24048.00
301.1110, 23972.00
302.3190, 23801.00
303.5270, 23834.00
304.7350, 23967.00
305.9430, 23952.00
307.1510, 23943.00
308.3580, 24127.00
309.5660, 24019.00
310.7730, 24014.00
311.9800, 24308.00
313.1870, 24058.00
314.3940, 24292.00
315.6010, 24372.00
316.8070, 24268.00
318.0130, 24243.00
319.2200, 24200.00
320.4260, 24236.00
321.6310, 24249.85
322.8370, 24345.00
324.0430, 24323.00
325.2480, 24349.00
326.4540, 24351.00
327.6590, 24264.00
328.8640, 24316.00
330.0680, 24257.00
331.2730, 24247.00
332.4780, 24357.00
333.6820, 24255.00
334.8860, 24232.00
336.0900, 24282.00
337.2940, 24240.00
338.4980, 24341.00
339.7010, 24095.00
340.9050, 24081.00
342.1080, 24210.00
343.3110, 24221.00
344.5140, 24297.00
345.7170, 24168.00
346.9200, 24242.00
348.1220, 24236.00
349.3240, 24183.00
350.5270, 24410.00
351.7290, 24169.00
352.9310, 24662.00
354.1320, 24520.33
355.3340, 24501.00
356.5350, 24456.00
357.7370, 24540.00
358.9380, 24436.00
360.1390, 24703.00
361.3400, 24537.00
362.5400, 24472.00
363.7410, 24670.00
364.9410, 24680.00
366.1410, 24751.00
367.3410, 24821.00
368.5410, 24750.00
369.7410, 24980.00
370.9400, 25132.00
372.1400, 24889.00
373.3390, 25357.00
374.5380, 25087.00
375.7370, 25216.00
376.9360, 25468.00
378.1350, 25571.00
379.3330, 25695.00
380.5310, 25895.00
381.7300, 25866.00
382.9280, 26163.00
384.1260, 26094.00
385.3230, 26064.00
386.5210, 26450.00
387.7180, 26558.00
388.9160, 26825.00
390.1130, 26847.00
391.3100, 27375.00
392.5060, 27820.00
393.7030, 27519.00
394.9000, 27522.00
396.0960, 27891.00
397.2920, 27972.00
398.4880, 28150.00
399.6840, 28406.21
400.8800, 28576.04
402.0750, 28895.00
403.2710, 29052.00
404.4660, 29403.00
405.6610, 29685.00
406.8560, 30121.00
408.0510, 30548.00
409.2450, 31048.00
410.4400, 31242.00
411.6340, 31593.00
412.8280, 32117.00
414.0220, 32550.00
415.2160, 32964.00
416.4100, 33366.30
417.6030, 33645.00
418.7970, 34029.00
419.9900, 34437.00
421.1830, 34645.00
422.3760, 34564.00
423.5690, 34593.00
424.7610, 34495.00
425.9540, 34333.00
427.1460, 34072.00
428.3380, 33893.00
429.5300, 33914.00
430.7220, 33518.00
431.9140, 33513.00
433.1050, 33304.00
434.2970, 33049.00
435.4880, 33147.00
436.6790, 33100.00
437.8700, 33558.00
439.0610, 33664.00
440.2510, 33773.00
441.4420, 34314.00
442.6320, 34496.00
443.8220, 35120.00
445.0120, 35574.00
446.2020, 36244.00
447.3910, 36739.00
448.5810, 37592.00
449.7700, 38515.00
450.9600, 39248.00
452.1490, 40337.00
453.3370, 41240.00
454.5260, 42544.00
455.7150, 43328.00
456.9030, 44516.00
458.0910, 45740.00
459.2800, 46881.00
460.4670, 48134.00
461.6550, 49307.00
462.8430, 50415.00
464.0300, 51296.00
465.2180, 52097.00
466.4050, 53086.00
467.5920, 53883.00
468.7790, 54676.00
469.9650, 55451.00
471.1520, 56115.00
472.3380, 56696.00
473.5250, 57390.00
474.7110, 57713.00
475.8970, 57905.00
477.0820, 58339.00
478.2680, 58515.00
479.4540, 58897.00
480.6390, 58429.00
481.8240, 58406.00
483.0090, 58177.00
484.1940, 57454.00
485.3780, 56648.00
486.5630, 55721.00
487.7470, 54471.00
488.9320, 53261.03
490.1160, 52002.00
491.3000, 50356.00
492.4830, 48670.00
493.6670, 46993.00
494.8500, 45407.00
496.0340, 43849.00
497.2170, 42349.65
498.4000, 40923.00
499.5820, 39562.00
500.7650, 38307.00
501.9480, 37160.00
503.1300, 36245.00
504.3120, 35295.11
505.4940, 34526.42
506.6760, 33787.00
507.8580, 33222.00
509.0390, 32698.00
510.2210, 32203.00
511.4020, 31862.00
512.5830, 31472.00
513.7640, 31282.00
514.9450, 30840.00
516.1250, 30578.00
517.3060, 30736.00
518.4860, 30412.00
519.6660, 30609.00
520.8460, 30121.00
522.0260, 29920.00
523.2060, 29872.00
524.3850, 29925.00
525.5650, 29729.00
526.7440, 29649.00
527.9230, 29615.00
529.1020, 29392.00
530.2810, 29228.00
531.4590, 29084.00
532.6380, 29030.00
533.8160, 28750.00
534.9940, 28826.00
536.1720, 28845.00
537.3500, 28280.00
538.5270, 28519.00
539.7050, 28401.00
540.8820, 28101.00
542.0590, 28019.00
543.2360, 27940.00
544.4130, 27786.00
545.5900, 27797.00
546.7660, 27766.00
547.9430, 27527.00
549.1190, 27812.00
550.2950, 27540.00
551.4710, 27705.00
552.6470, 27450.00
553.8220, 27247.00
554.9980, 27539.00
556.1730, 27453.00
557.3480, 27323.00
558.5230, 27380.00
559.6980, 27227.00
560.8730, 27232.00
562.0470, 27408.00
563.2220, 27311.00
564.3960, 27201.00
565.5700, 27256.00
566.7440, 27079.00
567.9170, 27263.00
569.0910, 27356.00
570.2640, 27149.00
571.4380, 27263.00
572.6110, 27241.00
573.7840, 27347.00
574.9570, 27185.00
576.1290, 27172.00
577.3020, 27349.00
578.4740, 27206.00
579.6460, 27185.00
580.8180, 27129.00
581.9900, 27128.67
583.1620, 27181.50
584.3330, 27201.00
585.5040, 27308.00
586.6760, 27377.00
587.8470, 27387.00
589.0180, 27368.00
590.1880, 27381.46
591.3590, 27467.00
592.5290, 27398.00
593.7000, 27461.00
594.8700, 27582.00
596.0400, 27453.00
597.2090, 27500.00
598.3790, 27387.00
599.5490, 27582.00
600.7180, 27654.00
601.8870, 27888.00
603.0560, 27681.00
604.2250, 27680.00
605.3940, 27600.00
606.5620, 27555.00
607.7300, 27614.34
608.8990, 27640.67
610.0670, 27768.00
611.2350, 27791.00
612.4020, 27921.00
613.5700, 27955.00
614.7370, 27877.00
615.9050, 27822.00
617.0720, 28045.00
618.2390, 27980.00
619.4060, 28272.00
620.5720, 28149.00
621.7390, 28228.00
622.9050, 28154.00
624.0710, 28240.00
625.2370, 28425.00
626.4030, 28401.00
627.5690, 28382.00
628.7340, 28232.00
629.9000, 28321.00
631.0650, 28266.00
632.2300, 28255.00
633.3950, 28205.00
634.5600, 28238.00
635.7240, 28282.00
636.8890, 28196.00
638.0530, 28247.00
639.2170, 28497.00
640.3810, 28498.00
641.5450, 28462.00
642.7080, 28318.00
643.8720, 28465.00
645.0350, 28514.00
646.1980, 28610.00
647.3610, 28476.00
648.5240, 28593.00
649.6870, 28672.00
650.8490, 28592.00
652.0120, 28761.00
653.1740, 28334.00
654.3360, 28720.00
655.4980, 28377.00
656.6600, 28607.00
657.8210, 28596.00
658.9830, 28478.00
660.1440, 28453.00
661.3050, 28532.00
662.4660, 28588.00
663.6270, 28458.00
664.7870, 28467.00
665.9480, 28505.00
667.1080, 28514.00
668.2680, 28581.00
669.4280, 28518.00
670.5880, 28408.00
671.7480, 28374.00
672.9070, 28653.00
674.0670, 28409.00
675.2260, 28603.00
676.3850, 28330.00
677.5440, 28564.00
678.7030, 28569.00
679.8610, 28640.00
681.0200, 28431.00
682.1780, 28557.00
683.3360, 28523.00
684.4940, 28574.00
685.6520, 28536.00
686.8090, 28586.00
687.9670, 28776.00
689.1240, 28493.00
690.2810, 28585.00
691.4380, 28900.00
692.5950, 28519.00
693.7520, 28674.00
694.9080, 28892.00
696.0650, 28907.00
697.2210, 28903.00
698.3770, 28922.00
699.5330, 28939.00
700.6880, 29023.00
701.8440, 29094.00
702.9990, 29089.00
704.1550, 28953.00
705.3100, 28865.00
706.4650, 29225.00
707.6190, 28964.00
708.7740, 29222.00
709.9290, 29284.00
711.0830, 29324.00
712.2370, 29501.00
713.3910, 29512.00
714.5450, 29492.00
715.6980, 29499.00
716.8520, 29531.91
718.0050, 29497.00
719.1580, 29604.00
720.3110, 29558.00
721.4640, 29573.00
722.6170, 29645.00
723.7700, 29703.00
724.9220, 29681.00
726.0740, 29740.00
727.2260, 29928.00
728.3780, 29857.00
729.5300, 29971.00
730.6810, 30164.00
731.8330, 29769.00
732.9840, 29783.00
734.1350, 30076.00
735.2860, 29968.00
736.4370, 29839.00
737.5880, 30027.00
738.7380, 30024.00
739.8880, 30072.00
741.0390, 30264.00
742.1890, 30357.00
743.3380, 30333.00
744.4880, 30271.00
745.6380, 30183.00
746.7870, 30654.00
747.9360, 30336.00
749.0850, 30471.00
750.2340, 30736.00
751.3830, 30552.00
752.5310, 30736.00
753.6800, 30796.00
754.8280, 30662.00
755.9760, 30992.00
757.1240, 31089.00
758.2720, 31042.00
759.4190, 31088.00
760.5670, 31049.00
761.7140, 31101.00
762.8610, 31194.00
764.0080, 31191.00
765.1550, 31182.00
766.3020, 31204.00
767.4480, 31310.00
768.5950, 31233.00
769.7410, 31224.00
770.8870, 31297.00
772.0330, 31140.00
773.1780, 31246.00
774.3240, 31124.00
775.4690, 31267.00
776.6140, 31217.00
777.7590, 31217.00
778.9040, 31175.16
780.0490, 31085.00
781.1940, 30980.00
782.3380, 30947.00
783.4820, 30807.00
784.6260, 30965.00
785.7700, 30932.00
786.9140, 31062.00
788.0580, 31037.00
789.2010, 30897.00
790.3450, 30948.00
791.4880, 30882.00
792.6310, 30894.00
793.7730, 30678.00
794.9160, 30653.00
796.0590, 30745.00
797.2010, 30565.00
798.3430, 30726.00
799.4850, 30423.00
800.6270, 30817.00
801.7690, 30674.00
802.9100, 30996.00
804.0520, 30653.00
805.1930, 30617.00
806.3340, 30712.00
807.4750, 30588.00
808.6160, 30548.00
809.7560, 30459.00
810.8970, 30636.00
812.0370, 30826.00
813.1770, 30682.00
814.3170, 30726.00
815.4570, 30775.20
816.5960, 30845.00
817.7360, 30809.00
818.8750, 30845.00
820.0140, 30798.00
821.1530, 30857.00
822.2920, 30977.00
823.4310, 30940.00
824.5690, 30772.00
825.7070, 31047.00
826.8460, 30720.00
827.9840, 30981.00
829.1220, 30964.00
830.2590, 31015.00
831.3970, 30851.00
832.5340, 30991.00
833.6710, 31088.00
834.8080, 31074.00
835.9450, 31304.00
837.0820, 31230.00
838.2190, 31196.00
839.3550, 31071.00
840.4910, 31183.00
841.6270, 31402.00
842.7630, 31438.00
843.8990, 31323.00
845.0350, 31200.00
846.1700, 31429.00
847.3060, 31557.00
848.4410, 31330.00
849.5760, 31447.00
850.7100, 31473.00
851.8450, 31638.00
852.9800, 31520.00
854.1140, 31661.00
855.2480, 31571.00
856.3820, 31804.00
857.5160, 31678.00
858.6500, 31630.00
859.7830, 32132.00
860.9170, 32132.00
862.0500, 31897.00
863.1830, 31841.00
864.3160, 31919.00
865.4480, 32181.00
866.5810, 31911.00
867.7130, 31884.00
868.8460, 32068.00
869.9780, 31852.00
871.1100, 32141.00
872.2410, 31986.00
873.3730, 32058.00
874.5050, 32118.00
875.6360, 32176.00
876.7670, 31934.00
877.8980, 32183.00
879.0290, 31963.00
880.1590, 32187.00
881.2900, 32141.00
882.4200, 32065.00
883.5500, 32175.51
884.6800, 32059.00
885.8100, 32164.00
886.9400, 32248.00
888.0690, 32097.00
889.1990, 32448.00
890.3280, 32314.00
891.4570, 32310.00
892.5860, 32186.00
893.7140, 32371.00
894.8430, 32518.00
895.9710, 32342.00
897.1000, 32659.00
898.2280, 32661.00
899.3560, 32683.00
900.4830, 32421.00
901.6110, 32446.00
902.7380, 32436.00
903.8660, 32617.00
904.9930, 32662.00
906.1200, 32509.00
907.2460, 32753.00
908.3730, 32834.00
909.5000, 32659.00
910.6260, 32626.00
911.7520, 32726.00
912.8780, 32931.00
914.0040, 32641.00
915.1290, 32984.00
916.2550, 32916.00
917.3800, 33041.00
918.5050, 32784.00
919.6300, 32845.00
920.7550, 32929.00
921.8800, 32816.00
923.0040, 33091.00
924.1290, 33159.00
925.2530, 33256.00
926.3770, 33029.00
927.5010, 32924.00
928.6250, 33126.00
929.7480, 33377.00
930.8720, 33329.00
931.9950, 33082.00
933.1180, 33240.00
934.2410, 33337.00
935.3640, 33461.00
936.4860, 33492.00
937.6090, 33206.00
938.7310, 33498.00
939.8530, 33611.00
940.9750, 33516.00
942.0970, 33883.00
943.2180, 33608.00
944.3400, 33362.00
945.4610, 33980.00
946.5820, 33762.00
947.7030, 33819.00
948.8240, 34036.00
949.9450, 33999.00
951.0650, 34114.00
952.1860, 34220.00
953.3060, 34243.86
954.4260, 34208.00
955.5460, 34296.00
956.6650, 34224.00
957.7850, 34095.00
958.9040, 34247.00
960.0230, 34345.00
961.1420, 34602.00
962.2610, 34544.00
963.3800, 34559.00
964.4990, 34807.00
965.6170, 34612.00
966.7350, 34781.00
967.8530, 34605.00
968.9710, 34690.00
970.0890, 34743.00
971.2070, 34676.00
972.3240, 34851.00
973.4410, 34892.00
974.5580, 35131.00
975.6750, 35091.00
976.7920, 35157.00
977.9090, 34975.00
979.0250, 35169.00
980.1410, 35055.00
981.2580, 35504.00
982.3740, 35223.00
983.4890, 35194.00
984.6050, 35528.00
985.7200, 35248.00
986.8360, 35382.00
987.9510, 35517.00
989.0660, 35461.00
990.1810, 35532.00
991.2950, 35793.00
992.4100, 35462.00
993.5240, 35555.00
994.6390, 35821.00
995.7530, 35694.00
996.8660, 35851.00
997.9800, 35855.00
999.0940, 36139.00
1000.207, 36371.00
1001.320, 36356.00
1002.433, 36544.00
1003.546, 36304.00
1004.659, 36398.00
1005.772, 36418.84
1006.884, 36490.00
1007.996, 36499.00
1009.108, 36443.00
1010.220, 36498.00
1011.332, 36628.00
1012.444, 36589.00
1013.555, 36744.00
1014.666, 36815.00
1015.777, 36616.00
1016.888, 36771.00
1017.999, 36965.00
1019.110, 36850.00
1020.220, 36906.00
1021.331, 36993.00
1022.441, 37274.00
1023.551, 37307.00
1024.661, 37152.00
1025.770, 37247.00
1026.880, 37671.00
1027.989, 37524.00
1029.098, 37703.00
1030.207, 37625.00
1031.316, 37935.00
1032.425, 37690.00
1033.533, 37919.00
1034.642, 37874.00
1035.750, 37829.00
1036.858, 37798.00
1037.966, 37996.00
1039.073, 37968.00
1040.181, 38327.00
1041.288, 38299.00
1042.396, 38413.00
1043.503, 38344.00
1044.610, 38379.00
1045.716, 38315.00
1046.823, 38646.00
1047.929, 38485.00
1049.036, 38182.00
1050.142, 38722.00
1051.248, 38513.00
1052.353, 38274.00
1053.459, 39074.00
1054.564, 38935.00
1055.670, 38905.00
1056.775, 39085.00
1057.880, 39154.00
1058.985, 39206.00
1060.089, 39162.00
1061.194, 39477.00
1062.298, 39633.00
1063.402, 39545.00
1064.506, 39919.00
1065.610, 39822.00
1066.713, 40017.00
1067.817, 39955.00
1068.920, 40042.00
1070.023, 39942.00
1071.126, 40148.00
1072.229, 40472.00
1073.332, 40429.00
1074.435, 40510.00
1075.537, 40537.00
1076.639, 40722.00
1077.741, 40659.00
1078.843, 40733.21
1079.945, 40867.00
1081.046, 40909.00
1082.148, 41002.00
1083.249, 41382.00
1084.350, 41256.00
1085.451, 41351.00
1086.551, 41186.00
1087.652, 41491.00
1088.752, 41370.00
1089.853, 40957.00
1090.953, 40980.00
1092.053, 41301.00
1093.152, 41325.00
1094.252, 41300.00
1095.351, 41335.00
1096.451, 41734.00
1097.550, 41133.00
1098.649, 41311.00
1099.748, 41440.00
1100.846, 41147.00
1101.945, 41439.00
1103.043, 41343.00
1104.141, 41124.00
1105.239, 41272.00
1106.337, 41319.00
1107.434, 41075.00
1108.532, 41328.00
1109.629, 41159.00
1110.726, 40982.00
1111.823, 41236.00
1112.920, 41152.00
1114.017, 40960.00
1115.113, 41052.00
1116.210, 41086.00
1117.306, 40775.00
1118.402, 40832.00
1119.498, 41354.00
1120.593, 41123.00
1121.689, 41238.00
1122.784, 41187.00
1123.879, 41007.00
1124.974, 40995.00
1126.069, 40974.00
1127.164, 41048.00
1128.259, 40976.00
1129.353, 40781.00
1130.447, 40640.00
1131.541, 40664.00
1132.635, 40760.00
1133.729, 40969.00
1134.822, 40576.00
1135.916, 40910.00
1137.009, 40692.00
1138.102, 40718.00
1139.195, 40535.00
1140.288, 40501.00
1141.380, 40239.00
1142.473, 40322.00
1143.565, 40446.00
1144.657, 40416.00
1145.749, 40197.00
1146.841, 40128.00
1147.932, 40229.00
1149.024, 40196.00
1150.115, 40150.00
1151.206, 40028.00
1152.297, 39852.00
1153.388, 40104.00
1154.479, 39838.00
1155.569, 39880.00
1156.659, 39606.00
1157.750, 39956.00
1158.839, 39876.00
1159.929, 39642.00
1161.019, 39513.00
1162.108, 39592.00
1163.198, 39410.00
1164.287, 39532.00
1165.376, 39665.00
1166.465, 39806.00
1167.553, 39504.00
1168.642, 39344.00
1169.730, 39368.00
1170.818, 39419.00
1171.906, 39278.00
1172.994, 39526.00
1174.082, 39106.00
1175.170, 39368.00
1176.257, 39481.00
1177.344, 39419.00
1178.431, 39185.00
1179.518, 39394.00
1180.605, 39246.00
1181.691, 39398.00
1182.778, 39249.00
1183.864, 38973.00
1184.950, 39282.00
1186.036, 38973.00
1187.122, 39161.00
1188.207, 39048.00
1189.292, 39215.00
1190.378, 39394.00
1191.463, 39350.00
1192.548, 39256.00
1193.632, 39120.00
1194.717, 39321.00
1195.801, 39357.00
1196.886, 39234.00
1197.970, 39510.00
1199.054, 39250.00
1200.137, 39330.00
1201.221, 39152.00
1202.305, 39400.00
1203.388, 39510.00
1204.471, 39428.00
1205.554, 39516.74
1206.637, 39293.00
1207.719, 39414.00
1208.802, 39462.00
1209.884, 39330.00
1210.966, 39480.00
1212.048, 39692.00
1213.130, 39581.00
1214.212, 39476.00
1215.293, 39625.00
1216.374, 39503.00
1217.456, 39553.00
1218.536, 39667.00
1219.617, 39709.00
1220.698, 39717.00
1221.778, 39820.00
1222.859, 39715.00
1223.939, 39831.00
1225.019, 39664.00
1226.099, 39512.00
1227.178, 39891.00
1228.258, 39726.00
1229.337, 39567.00
1230.417, 39743.00
1231.496, 39703.00
1232.574, 39960.00
1233.653, 39688.00
1234.732, 39885.00
1235.810, 40141.00
1236.888, 39950.00
1237.966, 39940.00
1239.044, 40214.00
1240.122, 40188.00
1241.199, 40182.00
1242.277, 40042.00
1243.354, 40304.00
1244.431, 40291.00
1245.508, 40359.00
1246.585, 40372.00
1247.661, 40346.00
1248.738, 40465.00
1249.814, 40381.00
1250.890, 40083.00
1251.966, 40300.00
1253.042, 40286.00
1254.117, 40294.00
1255.193, 40485.00
1256.268, 40274.00
1257.343, 40331.00
1258.418, 40738.00
1259.493, 40589.00
1260.567, 40441.00
1261.642, 40642.00
1262.716, 40638.00
1263.790, 40869.00
1264.864, 40646.00
1265.938, 40925.00
1267.011, 40871.00
1268.085, 40846.00
1269.158, 40701.00
1270.231, 40676.00
1271.304, 40854.00
1272.377, 41252.00
1273.450, 40705.00
1274.522, 41246.00
1275.594, 41074.00
1276.666, 40888.00
1277.738, 41238.00
1278.810, 40988.00
1279.882, 41324.00
1280.953, 41132.00
1282.025, 41258.00
1283.096, 41069.00
1284.167, 41031.00
1285.238, 41058.32
1286.308, 40916.00
1287.379, 40993.00
1288.449, 40898.00
1289.519, 40693.00
1290.589, 40909.00
1291.659, 41150.00
1292.729, 40980.00
1293.798, 41108.00
1294.868, 41231.00
1295.937, 41354.00
1297.006, 41309.00
1298.075, 41535.00
1299.143, 41411.00
1300.212, 41458.00
1301.280, 41623.00
1302.348, 41476.00
1303.416, 41872.00
1304.484, 41732.00
1305.552, 41763.00
1306.620, 41712.00
1307.687, 41718.00
1308.754, 41829.00
1309.821, 41837.03
1310.888, 41932.19
1311.955, 41948.00
1313.021, 42064.00
1314.088, 42078.00
1315.154, 42034.00
1316.220, 41914.00
1317.286, 42104.00
1318.352, 42124.00
1319.417, 42213.00
1320.483, 42308.00
1321.548, 42352.00
1322.613, 42304.00
1323.678, 42298.00
1324.743, 42480.00
1325.807, 42127.00
1326.872, 42013.00
1327.936, 42390.00
1329.000, 42179.00
1330.064, 41970.00
1331.128, 42467.00
1332.191, 42337.00
1333.255, 42140.00
1334.318, 42115.00
1335.381, 42249.00
1336.444, 41999.00
1337.507, 42056.00
1338.569, 42356.00
1339.632, 41992.00
1340.694, 42246.00
1341.756, 42219.00
1342.818, 42259.00
1343.880, 42212.00
1344.941, 42450.00
1346.003, 42266.00
1347.064, 42661.00
1348.125, 42370.00
1349.186, 42549.00
1350.247, 42748.00
1351.308, 42609.00
1352.368, 42482.00
1353.428, 42783.00
1354.489, 42584.00
1355.549, 42868.00
1356.608, 42821.00
1357.668, 42508.00
1358.727, 42697.00
1359.787, 42905.00
1360.846, 42659.00
1361.905, 42781.00
1362.964, 42985.00
1364.022, 42881.00
1365.081, 43118.00
1366.139, 42806.00
1367.197, 42555.00
1368.255, 43102.00
1369.313, 43351.00
1370.371, 42913.00
1371.428, 43079.00
1372.486, 43357.00
1373.543, 43048.00
1374.600, 43290.00
1375.657, 43201.00
1376.713, 43132.00
1377.770, 43295.00
1378.826, 43056.00
1379.882, 43348.00
1380.938, 43300.00
1381.994, 43575.00
1383.050, 43489.00
1384.106, 43112.00
1385.161, 43505.00
1386.216, 43190.00
1387.271, 43082.00
1388.326, 43203.00
1389.381, 43359.00
1390.435, 43195.00
1391.490, 43518.00
1392.544, 43157.00
1393.598, 43124.00
1394.652, 43641.00
1395.705, 43621.00
1396.759, 43537.00
1397.812, 43382.00
1398.866, 43503.00
1399.919, 43453.51
1400.972, 43618.00
1402.024, 43566.00
1403.077, 43540.00
1404.129, 43650.00
1405.181, 43908.00
1406.233, 43521.00
1407.285, 43643.00
1408.337, 43981.00
1409.389, 43779.00
1410.440, 44120.00
1411.491, 43949.00
1412.542, 43750.00
1413.593, 43728.00
1414.644, 43938.00
1415.695, 43792.00
1416.745, 43991.00
1417.795, 44197.00
1418.845, 44013.00
1419.895, 43861.00
1420.945, 43922.00
1421.995, 44060.00
1423.044, 43995.00
1424.093, 44145.00
1425.142, 44276.00
1426.191, 44144.00
1427.240, 44016.00
1428.289, 44066.00
1429.337, 44123.00
1430.385, 44257.00
1431.433, 44361.00
1432.481, 44208.00
1433.529, 44426.00
1434.577, 44606.00
1435.624, 44489.00
1436.672, 44748.00
1437.719, 44639.00
1438.766, 44594.00
1439.812, 44787.00
1440.859, 44762.86
1441.905, 45104.00
1442.952, 44942.00
1443.998, 45117.00
1445.044, 45221.00
1446.090, 45158.00
1447.135, 45362.00
1448.181, 45310.00
1449.226, 45191.00
1450.271, 45365.00
1451.316, 45476.00
1452.361, 45543.00
1453.405, 45107.00
1454.450, 45222.00
1455.494, 45405.00
1456.538, 45758.00
1457.582, 45404.00
1458.626, 45397.00
1459.670, 45661.00
1460.713, 45431.00
1461.757, 45673.00
1462.800, 45710.00
1463.843, 45596.00
1464.886, 45350.00
1465.928, 45528.00
1466.971, 45194.00
1468.013, 45300.00
1469.055, 45175.00
1470.097, 45478.00
1471.139, 45413.00
1472.181, 45458.00
1473.222, 45482.00
1474.263, 45443.00
1475.305, 45538.00
1476.346, 45475.36
1477.386, 45540.00
1478.427, 45396.00
1479.468, 45478.00
1480.508, 45437.00
1481.548, 45410.00
1482.588, 45747.00
1483.628, 45564.00
1484.668, 45603.00
1485.707, 45568.00
1486.747, 45505.00
1487.786, 45778.00
1488.825, 45689.00
1489.864, 45713.00
1490.902, 45677.00
1491.941, 45807.00
1492.979, 45913.00
1494.017, 45785.00
1495.055, 45923.00
1496.093, 45965.00
1497.131, 45932.71
1498.168, 45750.00
1499.206, 45914.00
1500.243, 45694.00
1501.280, 45629.00
1502.317, 46136.00
1503.354, 45731.00
1504.390, 45897.00
1505.426, 45985.00
1506.463, 45800.00
1507.499, 45972.00
1508.535, 45945.00
1509.570, 46062.00
1510.606, 45949.00
1511.641, 46009.73
1512.676, 46213.00
1513.711, 45981.00
1514.746, 46349.00
1515.781, 46232.00
1516.816, 46270.00
1517.850, 46293.00
1518.884, 46327.00
1519.918, 46258.00
1520.952, 46265.00
1521.986, 46219.00
1523.019, 46562.00
1524.053, 46656.00
1525.086, 46736.00
1526.119, 46826.58
1527.152, 46838.13
1528.185, 46743.00
1529.217, 46902.00
1530.250, 46686.00
1531.282, 46827.00
1532.314, 46926.00
1533.346, 46845.00
1534.377, 46778.00
1535.409, 46981.00
1536.440, 47032.00
1537.472, 47093.00
1538.503, 47181.98
1539.534, 47256.84
1540.564, 47228.00
1541.595, 47256.46
1542.625, 47304.29
1543.656, 47216.00
1544.686, 47199.00
1545.716, 47180.00
1546.745, 47209.00
1547.775, 47196.09
1548.804, 47499.00
1549.834, 47295.00
1550.863, 47336.00
1551.892, 47579.00
1552.920, 47483.00
1553.949, 47779.00
1554.977, 47679.00
1556.006, 47393.00
1557.034, 47658.00
1558.062, 47546.00
1559.089, 47535.00
1560.117, 47775.00
1561.144, 47336.00
1562.172, 47633.00
1563.199, 47777.00
1564.226, 47597.00
1565.252, 47446.00
1566.279, 47749.00
1567.305, 47744.00
1568.332, 47841.00
1569.358, 47766.00
1570.384, 48284.00
1571.409, 48153.00
##END=



