##NAMES=Phillipsite-Ca
##RRUFFID=R050078
##IDEAL CHEMISTRY=Ca_3_(Si_10_Al_6_)O_32_&#183;12H_2_O
##LOCALITY=Grant County, Oregon, USA
##OWNER=RRUFF
##SOURCE=Rock Currier
##DESCRIPTION=White tabular hexagonal
##STATUS=The identification of this mineral has been confirmed by X-ray diffraction and chemical analysis
##URL=rruff.info/R050078
##MEASURED CHEMISTRY=(Ca_0.90_K_0.75_[box]_0.25_Na_0.10_)_Σ=2_(Si_5.35_Al_2.65_)_Σ=8_O_16_·6H_2_O
##PIN_ID=L01729
##ORIENTATION=Laser parallel to -b* (0 -1 0). Fiducial mark perpendicular to laser is parallel to c [0 0 1]
267.2150, 20485.24
268.4270, 20286.00
269.6400, 20525.00
270.8520, 20515.00
272.0640, 20365.00
273.2760, 20494.00
274.4880, 20454.00
275.7000, 20384.00
276.9120, 20566.00
278.1230, 20394.00
279.3340, 20472.00
280.5450, 20569.00
281.7560, 20474.00
282.9670, 20357.00
284.1780, 20515.00
285.3880, 20410.00
286.5980, 20500.00
287.8090, 20314.00
289.0190, 20533.00
290.2290, 20530.00
291.4380, 20565.00
292.6480, 20576.00
293.8570, 20528.00
295.0670, 20604.00
296.2760, 20694.00
297.4850, 21406.00
298.6930, 21534.00
299.9020, 21753.00
301.1110, 21352.00
302.3190, 21505.50
303.5270, 21395.00
304.7350, 21382.00
305.9430, 21215.00
307.1510, 21110.00
308.3580, 21215.00
309.5660, 21024.00
310.7730, 21085.77
311.9800, 21217.46
313.1870, 21158.00
314.3940, 21436.00
315.6010, 21577.00
316.8070, 21435.00
318.0130, 20964.00
319.2200, 20964.00
320.4260, 20998.00
321.6310, 21088.00
322.8370, 20938.00
324.0430, 21052.00
325.2480, 20984.00
326.4540, 21071.00
327.6590, 21205.00
328.8640, 21065.00
330.0680, 21081.00
331.2730, 20965.00
332.4780, 21102.00
333.6820, 20847.00
334.8860, 20992.00
336.0900, 20863.00
337.2940, 20811.00
338.4980, 21024.00
339.7010, 20821.00
340.9050, 20673.00
342.1080, 20741.00
343.3110, 20767.00
344.5140, 20754.00
345.7170, 20829.00
346.9200, 20868.00
348.1220, 20841.00
349.3240, 20677.00
350.5270, 20836.00
351.7290, 20909.00
352.9310, 20725.00
354.1320, 21014.00
355.3340, 20899.00
356.5350, 20763.00
357.7370, 21008.00
358.9380, 20813.00
360.1390, 20803.00
361.3400, 20871.00
362.5400, 21127.00
363.7410, 21079.00
364.9410, 21199.92
366.1410, 21377.00
367.3410, 21278.00
368.5410, 21297.00
369.7410, 21269.00
370.9400, 21344.00
372.1400, 21387.81
373.3390, 21438.63
374.5380, 21593.00
375.7370, 21606.00
376.9360, 21820.00
378.1350, 21972.00
379.3330, 22029.00
380.5310, 22202.00
381.7300, 22227.00
382.9280, 22322.38
384.1260, 22425.89
385.3230, 22429.00
386.5210, 22627.00
387.7180, 22622.00
388.9160, 22759.00
390.1130, 22992.00
391.3100, 23149.00
392.5060, 23435.00
393.7030, 23522.00
394.9000, 23743.00
396.0960, 23715.00
397.2920, 23796.00
398.4880, 24094.00
399.6840, 24387.00
400.8800, 24303.00
402.0750, 24650.00
403.2710, 24904.00
404.4660, 24954.00
405.6610, 25223.00
406.8560, 25517.00
408.0510, 25783.00
409.2450, 25951.00
410.4400, 26204.00
411.6340, 26403.00
412.8280, 26787.00
414.0220, 27085.00
415.2160, 27454.00
416.4100, 27736.00
417.6030, 27854.00
418.7970, 28243.00
419.9900, 28573.00
421.1830, 28714.00
422.3760, 29056.00
423.5690, 29076.00
424.7610, 29065.00
425.9540, 28942.00
427.1460, 29045.00
428.3380, 28923.00
429.5300, 28885.00
430.7220, 29080.00
431.9140, 29019.00
433.1050, 29013.00
434.2970, 28960.00
435.4880, 29229.00
436.6790, 29304.00
437.8700, 29548.00
439.0610, 29805.00
440.2510, 29973.00
441.4420, 30569.00
442.6320, 30694.00
443.8220, 31569.00
445.0120, 32162.00
446.2020, 32868.00
447.3910, 33659.00
448.5810, 34077.00
449.7700, 35275.00
450.9600, 36507.00
452.1490, 37388.00
453.3370, 38129.00
454.5260, 39150.00
455.7150, 40616.00
456.9030, 41570.00
458.0910, 42849.00
459.2800, 44339.00
460.4670, 45486.00
461.6550, 46297.00
462.8430, 47306.00
464.0300, 48302.00
465.2180, 49481.00
466.4050, 49981.00
467.5920, 50901.00
468.7790, 51487.00
469.9650, 51963.00
471.1520, 52428.00
472.3380, 52555.00
473.5250, 52946.00
474.7110, 53148.00
475.8970, 53217.00
477.0820, 52968.00
478.2680, 53219.00
479.4540, 52742.00
480.6390, 52590.00
481.8240, 52103.00
483.0090, 51639.00
484.1940, 50950.77
485.3780, 50109.21
486.5630, 49187.00
487.7470, 47997.00
488.9320, 46805.00
490.1160, 45338.00
491.3000, 43995.00
492.4830, 42492.00
493.6670, 41201.00
494.8500, 39508.00
496.0340, 38295.00
497.2170, 36958.00
498.4000, 35620.00
499.5820, 34729.00
500.7650, 33804.00
501.9480, 32731.00
503.1300, 31989.00
504.3120, 30979.00
505.4940, 30310.00
506.6760, 29742.00
507.8580, 29237.00
509.0390, 28613.00
510.2210, 28298.00
511.4020, 27973.00
512.5830, 27674.00
513.7640, 27297.00
514.9450, 27006.00
516.1250, 26723.00
517.3060, 26719.00
518.4860, 26598.00
519.6660, 26414.00
520.8460, 26279.00
522.0260, 26214.00
523.2060, 26156.00
524.3850, 26065.00
525.5650, 25943.00
526.7440, 25847.95
527.9230, 25829.00
529.1020, 25632.00
530.2810, 25468.00
531.4590, 25399.18
532.6380, 25404.00
533.8160, 25319.00
534.9940, 25137.00
536.1720, 25175.00
537.3500, 25057.00
538.5270, 24836.00
539.7050, 24695.00
540.8820, 24784.00
542.0590, 24456.00
543.2360, 24690.00
544.4130, 24427.00
545.5900, 24484.00
546.7660, 24287.00
547.9430, 24332.00
549.1190, 24263.00
550.2950, 24255.00
551.4710, 24065.00
552.6470, 24347.00
553.8220, 24332.00
554.9980, 24246.00
556.1730, 24118.00
557.3480, 23984.00
558.5230, 24297.00
559.6980, 24118.00
560.8730, 24116.00
562.0470, 24120.00
563.2220, 24022.00
564.3960, 24120.00
565.5700, 24026.00
566.7440, 23946.00
567.9170, 23858.00
569.0910, 23883.00
570.2640, 23982.00
571.4380, 23884.00
572.6110, 23994.00
573.7840, 24026.00
574.9570, 23995.00
576.1290, 23919.00
577.3020, 23730.00
578.4740, 23982.00
579.6460, 24035.00
580.8180, 23907.00
581.9900, 24192.00
583.1620, 24115.00
584.3330, 24080.00
585.5040, 23833.00
586.6760, 23924.00
587.8470, 23911.00
589.0180, 24160.00
590.1880, 24156.00
591.3590, 24031.00
592.5290, 24353.00
593.7000, 24197.00
594.8700, 24116.00
596.0400, 24122.00
597.2090, 24092.34
598.3790, 24105.81
599.5490, 24177.00
600.7180, 24178.00
601.8870, 24253.00
603.0560, 24318.00
604.2250, 24332.36
605.3940, 24246.00
606.5620, 24382.00
607.7300, 24331.00
608.8990, 24337.00
610.0670, 24444.00
611.2350, 24591.00
612.4020, 24347.00
613.5700, 24616.00
614.7370, 24379.00
615.9050, 24545.00
617.0720, 24575.00
618.2390, 24424.00
619.4060, 24632.00
620.5720, 24608.00
621.7390, 24607.00
622.9050, 24746.00
624.0710, 24830.00
625.2370, 24694.00
626.4030, 24658.00
627.5690, 24899.00
628.7340, 24807.00
629.9000, 24581.00
631.0650, 24840.00
632.2300, 25010.00
633.3950, 24814.00
634.5600, 24827.00
635.7240, 24868.00
636.8890, 25046.00
638.0530, 25032.00
639.2170, 25094.00
640.3810, 25063.00
641.5450, 25251.00
642.7080, 25106.00
643.8720, 24909.00
645.0350, 25097.00
646.1980, 25172.00
647.3610, 25223.00
648.5240, 25282.88
649.6870, 25153.00
650.8490, 25317.00
652.0120, 25160.00
653.1740, 25187.00
654.3360, 25138.00
655.4980, 25342.00
656.6600, 25235.00
657.8210, 25477.00
658.9830, 25349.00
660.1440, 25393.00
661.3050, 25316.00
662.4660, 25490.00
663.6270, 25240.00
664.7870, 25317.00
665.9480, 25605.00
667.1080, 25481.00
668.2680, 25588.00
669.4280, 25499.00
670.5880, 25678.00
671.7480, 25476.00
672.9070, 25280.00
674.0670, 25461.00
675.2260, 25473.00
676.3850, 25580.00
677.5440, 25467.00
678.7030, 25620.00
679.8610, 25699.00
681.0200, 25478.00
682.1780, 25493.00
683.3360, 25586.00
684.4940, 25626.00
685.6520, 25604.00
686.8090, 25692.00
687.9670, 25857.00
689.1240, 25826.00
690.2810, 25855.00
691.4380, 25738.00
692.5950, 25813.00
693.7520, 25789.00
694.9080, 25814.00
696.0650, 25847.95
697.2210, 26012.00
698.3770, 25950.00
699.5330, 26079.00
700.6880, 26244.00
701.8440, 26192.73
702.9990, 26305.00
704.1550, 26237.00
705.3100, 26341.00
706.4650, 26454.00
707.6190, 26205.00
708.7740, 26432.00
709.9290, 26347.00
711.0830, 26356.00
712.2370, 26565.00
713.3910, 26320.00
714.5450, 26439.00
715.6980, 26694.00
716.8520, 26666.00
718.0050, 26788.75
719.1580, 26628.00
720.3110, 26799.00
721.4640, 26806.00
722.6170, 26630.00
723.7700, 26645.00
724.9220, 26529.00
726.0740, 26832.00
727.2260, 26832.00
728.3780, 26888.00
729.5300, 26755.00
730.6810, 26888.00
731.8330, 26736.00
732.9840, 26980.00
734.1350, 27050.00
735.2860, 27070.11
736.4370, 26935.00
737.5880, 27150.00
738.7380, 27166.00
739.8880, 27119.00
741.0390, 27230.00
742.1890, 27107.00
743.3380, 27222.00
744.4880, 27313.00
745.6380, 27095.00
746.7870, 27241.00
747.9360, 27309.00
749.0850, 27423.00
750.2340, 27482.00
751.3830, 27467.00
752.5310, 27363.00
753.6800, 27699.00
754.8280, 27684.00
755.9760, 27628.00
757.1240, 27782.00
758.2720, 27768.00
759.4190, 27855.00
760.5670, 27746.00
761.7140, 27819.00
762.8610, 27842.00
764.0080, 27907.00
765.1550, 27562.00
766.3020, 27710.00
767.4480, 27711.00
768.5950, 28062.00
769.7410, 27832.00
770.8870, 27808.00
772.0330, 27555.00
773.1780, 27833.00
774.3240, 27700.00
775.4690, 27660.00
776.6140, 27613.00
777.7590, 27756.00
778.9040, 27499.00
780.0490, 27834.00
781.1940, 27794.00
782.3380, 27639.00
783.4820, 27525.00
784.6260, 27511.00
785.7700, 27614.00
786.9140, 27761.00
788.0580, 27647.00
789.2010, 27470.00
790.3450, 27613.00
791.4880, 27534.00
792.6310, 27642.00
793.7730, 27588.00
794.9160, 27444.00
796.0590, 27420.00
797.2010, 27535.00
798.3430, 27465.00
799.4850, 27439.00
800.6270, 27579.00
801.7690, 27496.00
802.9100, 27719.00
804.0520, 27516.00
805.1930, 27494.00
806.3340, 27433.00
807.4750, 27564.00
808.6160, 27609.00
809.7560, 27784.00
810.8970, 27635.00
812.0370, 27592.00
813.1770, 27355.00
814.3170, 27651.00
815.4570, 27561.00
816.5960, 27829.00
817.7360, 27726.00
818.8750, 27861.00
820.0140, 27768.00
821.1530, 27725.00
822.2920, 27623.00
823.4310, 27727.00
824.5690, 27615.00
825.7070, 27869.00
826.8460, 27901.00
827.9840, 27839.00
829.1220, 27775.00
830.2590, 27927.00
831.3970, 27789.00
832.5340, 27920.00
833.6710, 27981.00
834.8080, 27795.00
835.9450, 27932.00
837.0820, 28074.00
838.2190, 28120.00
839.3550, 27985.00
840.4910, 28052.00
841.6270, 28183.00
842.7630, 28335.00
843.8990, 28348.66
845.0350, 28179.00
846.1700, 28358.00
847.3060, 28456.00
848.4410, 28367.00
849.5760, 28540.00
850.7100, 28174.00
851.8450, 28310.00
852.9800, 28750.00
854.1140, 28666.00
855.2480, 28471.00
856.3820, 28392.00
857.5160, 28655.00
858.6500, 28545.00
859.7830, 28836.00
860.9170, 28589.00
862.0500, 28656.00
863.1830, 28599.00
864.3160, 28605.35
865.4480, 28935.00
866.5810, 28767.00
867.7130, 28755.00
868.8460, 28930.00
869.9780, 28843.00
871.1100, 29006.00
872.2410, 28925.00
873.3730, 28808.00
874.5050, 28872.00
875.6360, 28860.00
876.7670, 28858.00
877.8980, 28949.00
879.0290, 29064.00
880.1590, 29005.00
881.2900, 28999.00
882.4200, 28833.00
883.5500, 29105.00
884.6800, 29146.00
885.8100, 29117.00
886.9400, 29403.00
888.0690, 29357.00
889.1990, 29282.00
890.3280, 29203.00
891.4570, 29271.00
892.5860, 29220.00
893.7140, 29302.00
894.8430, 29604.00
895.9710, 29260.00
897.1000, 29277.00
898.2280, 29550.00
899.3560, 29558.00
900.4830, 29663.00
901.6110, 29659.00
902.7380, 29714.00
903.8660, 29570.00
904.9930, 29769.00
906.1200, 29554.00
907.2460, 29754.00
908.3730, 29753.00
909.5000, 29737.00
910.6260, 29776.00
911.7520, 29870.00
912.8780, 29907.00
914.0040, 29934.48
915.1290, 30059.00
916.2550, 29983.00
917.3800, 30020.00
918.5050, 30080.00
919.6300, 30189.00
920.7550, 30072.00
921.8800, 30035.00
923.0040, 30303.00
924.1290, 30239.00
925.2530, 30190.00
926.3770, 30403.00
927.5010, 30570.00
928.6250, 30490.00
929.7480, 30409.00
930.8720, 30520.13
931.9950, 30416.00
933.1180, 30642.00
934.2410, 30678.00
935.3640, 30773.06
936.4860, 30827.00
937.6090, 30720.00
938.7310, 30626.00
939.8530, 30480.00
940.9750, 31001.00
942.0970, 30772.00
943.2180, 31045.00
944.3400, 30852.00
945.4610, 31322.00
946.5820, 31156.00
947.7030, 31052.00
948.8240, 31356.00
949.9450, 31193.00
951.0650, 31056.00
952.1860, 31304.00
953.3060, 31373.00
954.4260, 31533.00
955.5460, 31481.00
956.6650, 31578.00
957.7850, 31505.00
958.9040, 31419.00
960.0230, 31730.00
961.1420, 31826.00
962.2610, 31677.00
963.3800, 31918.00
964.4990, 31892.00
965.6170, 32246.00
966.7350, 31978.00
967.8530, 32020.00
968.9710, 32129.00
970.0890, 32313.00
971.2070, 32303.68
972.3240, 32382.99
973.4410, 32342.00
974.5580, 32454.00
975.6750, 32452.00
976.7920, 32554.00
977.9090, 32716.00
979.0250, 32553.00
980.1410, 32728.00
981.2580, 32614.00
982.3740, 32734.00
983.4890, 32774.00
984.6050, 32780.00
985.7200, 32775.00
986.8360, 32903.00
987.9510, 32978.00
989.0660, 33141.00
990.1810, 33131.00
991.2950, 32917.00
992.4100, 33292.00
993.5240, 33369.00
994.6390, 33252.00
995.7530, 33707.00
996.8660, 33391.00
997.9800, 33421.00
999.0940, 33703.00
1000.207, 33697.00
1001.320, 33464.00
1002.433, 33693.00
1003.546, 33664.00
1004.659, 33855.00
1005.772, 33776.00
1006.884, 33949.00
1007.996, 33864.00
1009.108, 34045.00
1010.220, 34238.00
1011.332, 34101.00
1012.444, 34188.00
1013.555, 34053.00
1014.666, 34178.00
1015.777, 34347.00
1016.888, 34416.00
1017.999, 34537.83
1019.110, 34570.00
1020.220, 34751.00
1021.331, 34685.00
1022.441, 34834.00
1023.551, 34746.00
1024.661, 34939.00
1025.770, 34764.00
1026.880, 34782.00
1027.989, 35027.00
1029.098, 34998.00
1030.207, 35378.00
1031.316, 35212.00
1032.425, 35376.00
1033.533, 35503.00
1034.642, 35372.00
1035.750, 35580.00
1036.858, 35449.00
1037.966, 35512.00
1039.073, 35682.00
1040.181, 35437.00
1041.288, 35906.00
1042.396, 35674.00
1043.503, 35766.00
1044.610, 35798.00
1045.716, 35855.00
1046.823, 36052.00
1047.929, 35689.00
1049.036, 36091.00
1050.142, 35963.00
1051.248, 36147.00
1052.353, 36123.00
1053.459, 36175.00
1054.564, 36430.00
1055.670, 36180.00
1056.775, 36370.00
1057.880, 36283.00
1058.985, 36397.00
1060.089, 36541.00
1061.194, 36709.00
1062.298, 36846.00
1063.402, 36936.00
1064.506, 37038.77
1065.610, 37116.00
1066.713, 37195.00
1067.817, 37281.00
1068.920, 37392.00
1070.023, 37572.00
1071.126, 37663.16
1072.229, 37686.00
1073.332, 37860.00
1074.435, 37732.00
1075.537, 37706.00
1076.639, 37861.00
1077.741, 37683.00
1078.843, 37776.87
1079.945, 37980.00
1081.046, 37944.00
1082.148, 38135.00
1083.249, 38491.00
1084.350, 38469.00
1085.451, 38427.00
1086.551, 38375.00
1087.652, 38281.00
1088.752, 38351.00
1089.853, 38309.00
1090.953, 38297.00
1092.053, 38542.00
1093.152, 38198.00
1094.252, 38645.00
1095.351, 38746.00
1096.451, 38750.00
1097.550, 38501.00
1098.649, 38451.00
1099.748, 38482.00
1100.846, 38501.00
1101.945, 38539.09
1103.043, 38482.00
1104.141, 38650.00
1105.239, 38519.00
1106.337, 38532.00
1107.434, 38742.00
1108.532, 38580.00
1109.629, 38782.00
1110.726, 38461.00
1111.823, 38117.00
1112.920, 38566.00
1114.017, 38578.00
1115.113, 38621.00
1116.210, 38347.00
1117.306, 38675.00
1118.402, 38527.00
1119.498, 38420.00
1120.593, 38412.00
1121.689, 38434.00
1122.784, 38513.00
1123.879, 38458.00
1124.974, 38471.85
1126.069, 38636.82
1127.164, 38716.00
1128.259, 38714.00
1129.353, 38387.73
1130.447, 38480.23
1131.541, 38404.91
1132.635, 38322.71
1133.729, 38474.15
1134.822, 38195.08
1135.916, 38342.82
1137.009, 38320.20
1138.102, 38375.56
1139.195, 38262.06
1140.288, 38200.72
1141.380, 38308.32
1142.473, 38322.36
1143.565, 38189.45
1144.657, 38249.79
1145.749, 37964.86
1146.841, 37982.91
1147.932, 38131.72
1149.024, 38007.30
1150.115, 38070.76
1151.206, 38062.68
1152.297, 37729.46
1153.388, 37961.69
1154.479, 37705.00
1155.569, 37697.00
1156.659, 37691.86
1157.750, 37666.00
1158.839, 37612.00
1159.929, 37648.00
1161.019, 37579.00
1162.108, 37481.00
1163.198, 37413.00
1164.287, 37504.00
1165.376, 37585.00
1166.465, 37322.00
1167.553, 37552.00
1168.642, 37311.00
1169.730, 37558.00
1170.818, 37541.00
1171.906, 37739.00
1172.994, 37618.00
1174.082, 37658.00
1175.170, 37435.00
1176.257, 37641.00
1177.344, 37552.00
1178.431, 37426.00
1179.518, 37520.00
1180.605, 37328.00
1181.691, 37465.00
1182.778, 37544.00
1183.864, 37540.00
1184.950, 37498.00
1186.036, 37424.00
1187.122, 37380.15
1188.207, 37467.00
1189.292, 37321.00
1190.378, 37401.00
1191.463, 37551.00
1192.548, 37411.00
1193.632, 37564.00
1194.717, 37530.00
1195.801, 37548.00
1196.886, 37722.00
1197.970, 37687.55
1199.054, 37564.00
1200.137, 37745.00
1201.221, 37682.00
1202.305, 37680.00
1203.388, 37818.00
1204.471, 37552.00
1205.554, 37873.00
1206.637, 37826.00
1207.719, 37930.00
1208.802, 37679.00
1209.884, 37985.00
1210.966, 37697.00
1212.048, 38065.00
1213.130, 37915.00
1214.212, 37911.00
1215.293, 37622.00
1216.374, 37913.00
1217.456, 38079.00
1218.536, 38210.00
1219.617, 38109.00
1220.698, 38130.00
1221.778, 38181.00
1222.859, 38134.00
1223.939, 38035.00
1225.019, 38350.00
1226.099, 38510.00
1227.178, 38164.00
1228.258, 38489.00
1229.337, 38093.00
1230.417, 38388.00
1231.496, 38280.00
1232.574, 38336.00
1233.653, 38530.00
1234.732, 38401.00
1235.810, 38284.00
1236.888, 38585.00
1237.966, 38711.00
1239.044, 38432.00
1240.122, 38749.00
1241.199, 38523.00
1242.277, 38577.00
1243.354, 38755.00
1244.431, 38602.00
1245.508, 38665.00
1246.585, 38721.00
1247.661, 38941.00
1248.738, 38822.00
1249.814, 38975.00
1250.890, 38976.00
1251.966, 38907.00
1253.042, 38893.00
1254.117, 39062.00
1255.193, 38808.00
1256.268, 38966.00
1257.343, 38964.00
1258.418, 39232.00
1259.493, 39105.00
1260.567, 38985.00
1261.642, 39309.00
1262.716, 39046.00
1263.790, 39298.00
1264.864, 39451.00
1265.938, 39200.00
1267.011, 39456.00
1268.085, 39357.00
1269.158, 39268.00
1270.231, 39287.00
1271.304, 39198.00
1272.377, 39478.00
1273.450, 39443.00
1274.522, 39438.00
1275.594, 39742.00
1276.666, 39423.00
1277.738, 39601.00
1278.810, 39438.00
1279.882, 39351.00
1280.953, 39706.00
1282.025, 39294.00
1283.096, 39708.00
1284.167, 39508.00
1285.238, 39655.00
1286.308, 39609.00
1287.379, 39557.00
1288.449, 39882.00
1289.519, 39816.00
1290.589, 39929.00
1291.659, 40047.00
1292.729, 40012.00
1293.798, 40128.00
1294.868, 40186.00
1295.937, 40177.00
1297.006, 40023.00
1298.075, 40191.00
1299.143, 40314.00
1300.212, 40260.00
1301.280, 40454.00
1302.348, 40379.00
1303.416, 40316.00
1304.484, 40639.00
1305.552, 40458.00
1306.620, 40269.00
1307.687, 40400.00
1308.754, 40364.00
1309.821, 40391.00
1310.888, 40490.00
1311.955, 40522.49
1313.021, 40616.00
1314.088, 40726.00
1315.154, 40649.00
1316.220, 40827.00
1317.286, 41094.00
1318.352, 40770.00
1319.417, 41099.00
1320.483, 40976.00
1321.548, 41014.00
1322.613, 41116.00
1323.678, 40960.00
1324.743, 40911.00
1325.807, 41155.00
1326.872, 40943.00
1327.936, 41225.00
1329.000, 41373.00
1330.064, 41335.00
1331.128, 41166.00
1332.191, 41208.00
1333.255, 41276.00
1334.318, 41240.79
1335.381, 41575.00
1336.444, 41296.00
1337.507, 41545.00
1338.569, 41559.00
1339.632, 41321.00
1340.694, 41425.00
1341.756, 41634.00
1342.818, 41548.00
1343.880, 41559.00
1344.941, 41690.00
1346.003, 41716.00
1347.064, 41837.00
1348.125, 41760.00
1349.186, 41761.00
1350.247, 41707.00
1351.308, 41994.00
1352.368, 41953.00
1353.428, 41989.00
1354.489, 42035.00
1355.549, 42021.05
1356.608, 42051.15
1357.668, 42077.00
1358.727, 42077.00
1359.787, 42185.00
1360.846, 42222.00
1361.905, 42301.00
1362.964, 42225.00
1364.022, 42155.00
1365.081, 42498.00
1366.139, 42456.00
1367.197, 42190.00
1368.255, 42515.00
1369.313, 42446.00
1370.371, 42686.00
1371.428, 42797.00
1372.486, 42529.00
1373.543, 42392.00
1374.600, 42709.00
1375.657, 42625.00
1376.713, 42702.00
1377.770, 42443.00
1378.826, 42630.00
1379.882, 42838.00
1380.938, 42856.00
1381.994, 42999.26
1383.050, 42917.00
1384.106, 43136.00
1385.161, 43021.00
1386.216, 43059.00
1387.271, 42921.00
1388.326, 42602.95
1389.381, 42837.38
1390.435, 42985.99
1391.490, 43053.46
1392.544, 42796.59
1393.598, 42958.49
1394.652, 42952.56
1395.705, 42939.72
1396.759, 43160.57
1397.812, 42950.83
1398.866, 43167.96
1399.919, 43214.68
1400.972, 43339.38
1402.024, 43295.17
1403.077, 43303.16
1404.129, 43480.03
1405.181, 43563.37
1406.233, 43499.73
1407.285, 43629.35
1408.337, 43413.68
1409.389, 43501.00
1410.440, 43719.01
1411.491, 43663.83
1412.542, 43690.00
1413.593, 43781.00
1414.644, 43703.00
1415.695, 43774.00
1416.745, 43569.00
1417.795, 43707.00
1418.845, 43794.00
1419.895, 44165.00
1420.945, 43829.00
1421.995, 43751.00
1423.044, 44100.00
1424.093, 44045.00
1425.142, 44050.00
1426.191, 43936.00
1427.240, 44115.00
1428.289, 44374.00
1429.337, 44294.00
1430.385, 44112.00
1431.433, 44303.00
1432.481, 44127.00
1433.529, 44538.00
1434.577, 44336.00
1435.624, 44590.00
1436.672, 44466.00
1437.719, 44634.00
1438.766, 44554.00
1439.812, 44757.00
1440.859, 44503.00
1441.905, 44699.00
1442.952, 44625.00
1443.998, 44794.00
1445.044, 44577.00
1446.090, 44932.00
1447.135, 44927.00
1448.181, 44830.00
1449.226, 44670.00
1450.271, 44974.00
1451.316, 45060.00
1452.361, 45206.00
1453.405, 44908.00
1454.450, 45132.00
1455.494, 44999.00
1456.538, 45192.00
1457.582, 45107.00
1458.626, 45175.00
1459.670, 45044.00
1460.713, 45137.32
1461.757, 45168.00
1462.800, 45305.00
1463.843, 45244.00
1464.886, 45359.00
1465.928, 45192.00
1466.971, 45462.00
1468.013, 45735.00
1469.055, 45580.00
1470.097, 45442.00
1471.139, 45362.00
1472.181, 45577.00
1473.222, 45527.00
1474.263, 45558.00
1475.305, 45681.10
1476.346, 45750.00
1477.386, 45820.00
1478.427, 45827.00
1479.468, 45816.00
1480.508, 45896.25
1481.548, 45827.00
1482.588, 46002.00
1483.628, 46013.00
1484.668, 46023.00
1485.707, 46055.00
1486.747, 46197.00
1487.786, 46060.00
1488.825, 46093.00
1489.864, 46151.00
1490.902, 46321.00
1491.941, 46126.00
1492.979, 46177.00
1494.017, 46069.00
1495.055, 46429.00
1496.093, 46197.00
1497.131, 46408.00
1498.168, 46598.00
1499.206, 46411.00
1500.243, 46443.00
1501.280, 46739.00
1502.317, 46439.00
1503.354, 46702.00
1504.390, 46630.00
1505.426, 46718.00
1506.463, 46483.00
1507.499, 46667.00
1508.535, 46736.00
1509.570, 47021.00
1510.606, 46903.00
1511.641, 46824.00
1512.676, 46970.00
1513.711, 46974.00
1514.746, 46931.00
1515.781, 47120.00
1516.816, 47431.00
1517.850, 47032.00
1518.884, 47191.00
1519.918, 47049.00
1520.952, 46806.00
1521.986, 47482.00
1523.019, 47537.00
1524.053, 47267.00
1525.086, 47253.00
1526.119, 47364.00
1527.152, 47546.00
1528.185, 47360.00
1529.217, 47399.00
1530.250, 47650.00
1531.282, 47523.00
1532.314, 47637.00
1533.346, 48023.00
1534.377, 47535.00
1535.409, 47833.00
1536.440, 47655.00
1537.472, 47597.00
1538.503, 47592.00
1539.534, 47987.00
1540.564, 47844.00
1541.595, 48030.00
1542.625, 48003.00
1543.656, 48220.00
1544.686, 48261.00
1545.716, 48180.00
1546.745, 48079.00
1547.775, 48175.00
1548.804, 48066.00
1549.834, 48353.00
1550.863, 47930.00
1551.892, 48297.00
1552.920, 48758.00
1553.949, 48355.00
1554.977, 48727.00
1556.006, 48675.00
1557.034, 48717.00
1558.062, 48706.00
1559.089, 48773.00
1560.117, 48508.00
1561.144, 48409.00
1562.172, 48509.00
1563.199, 48947.00
1564.226, 48633.00
1565.252, 48747.00
1566.279, 48915.00
1567.305, 48717.00
1568.332, 48928.00
1569.358, 49215.00
1570.384, 49011.00
1571.409, 49025.00
1572.435, 49381.00
##END=



