##NAMES=Phillipsite-Ca
##RRUFFID=R050078
##IDEAL CHEMISTRY=Ca_3_(Si_10_Al_6_)O_32_&#183;12H_2_O
##LOCALITY=Grant County, Oregon, USA
##OWNER=RRUFF
##SOURCE=Rock Currier
##DESCRIPTION=White tabular hexagonal
##STATUS=The identification of this mineral has been confirmed by X-ray diffraction and chemical analysis
##URL=rruff.info/R050078
##MEASURED CHEMISTRY=(Ca_0.90_K_0.75_[box]_0.25_Na_0.10_)_Σ=2_(Si_5.35_Al_2.65_)_Σ=8_O_16_·6H_2_O
##PIN_ID=L00730
##ORIENTATION=Laser parallel to -c* (0 0 -1). Fiducial mark perpendicular to laser is parallel to a [1 0 0]
241.7140, 25425.00
242.9300, 25394.00
244.1460, 25300.00
245.3610, 25336.00
246.5770, 25196.00
247.7920, 25412.00
249.0070, 25309.00
250.2220, 25571.00
251.4370, 25415.00
252.6510, 25465.00
253.8660, 25420.00
255.0800, 25541.00
256.2940, 25589.07
257.5080, 25420.00
258.7220, 25684.00
259.9360, 25763.00
261.1490, 25629.00
262.3630, 25564.00
263.5760, 25503.00
264.7890, 25436.00
266.0020, 25807.00
267.2150, 25687.00
268.4270, 25726.00
269.6400, 25471.00
270.8520, 25613.00
272.0640, 25584.00
273.2760, 25691.00
274.4880, 25635.00
275.7000, 25562.00
276.9120, 25682.00
278.1230, 25663.00
279.3340, 25842.00
280.5450, 25782.00
281.7560, 25924.00
282.9670, 25588.00
284.1780, 25851.00
285.3880, 26076.00
286.5980, 25834.00
287.8090, 26036.00
289.0190, 25868.00
290.2290, 26080.00
291.4380, 25976.00
292.6480, 26008.00
293.8570, 25997.00
295.0670, 26075.00
296.2760, 26141.00
297.4850, 26129.00
298.6930, 26094.00
299.9020, 26185.00
301.1110, 26202.00
302.3190, 26205.00
303.5270, 26356.00
304.7350, 26451.00
305.9430, 26247.00
307.1510, 26506.00
308.3580, 26502.00
309.5660, 26433.00
310.7730, 26616.00
311.9800, 26719.00
313.1870, 26390.00
314.3940, 26703.00
315.6010, 26811.00
316.8070, 26760.00
318.0130, 27034.00
319.2200, 27063.00
320.4260, 26868.00
321.6310, 26898.00
322.8370, 26921.00
324.0430, 27068.00
325.2480, 27219.00
326.4540, 27206.00
327.6590, 27226.00
328.8640, 27256.00
330.0680, 27148.00
331.2730, 27139.00
332.4780, 27133.00
333.6820, 27293.00
334.8860, 27249.00
336.0900, 27160.00
337.2940, 27023.00
338.4980, 27201.00
339.7010, 27331.00
340.9050, 27256.00
342.1080, 27395.00
343.3110, 27303.00
344.5140, 27370.00
345.7170, 27418.00
346.9200, 27404.00
348.1220, 27457.00
349.3240, 27371.00
350.5270, 27433.00
351.7290, 27355.00
352.9310, 27390.30
354.1320, 27434.00
355.3340, 27484.00
356.5350, 27640.00
357.7370, 27772.00
358.9380, 27702.00
360.1390, 27587.00
361.3400, 27525.00
362.5400, 28027.00
363.7410, 27854.00
364.9410, 28082.00
366.1410, 27865.00
367.3410, 27948.00
368.5410, 27764.00
369.7410, 28192.00
370.9400, 28057.00
372.1400, 28302.00
373.3390, 28226.00
374.5380, 28450.00
375.7370, 28469.00
376.9360, 28428.00
378.1350, 28350.00
379.3330, 28603.00
380.5310, 28542.00
381.7300, 28906.00
382.9280, 28792.00
384.1260, 29158.00
385.3230, 28763.00
386.5210, 29114.00
387.7180, 29045.00
388.9160, 29346.00
390.1130, 29258.00
391.3100, 29426.00
392.5060, 29717.00
393.7030, 29492.00
394.9000, 29880.00
396.0960, 29815.00
397.2920, 29901.00
398.4880, 30222.00
399.6840, 30449.00
400.8800, 30529.00
402.0750, 30302.00
403.2710, 30382.00
404.4660, 30581.00
405.6610, 30881.00
406.8560, 30992.00
408.0510, 30952.00
409.2450, 31382.00
410.4400, 31361.00
411.6340, 31596.00
412.8280, 31717.00
414.0220, 31951.00
415.2160, 32160.00
416.4100, 32273.14
417.6030, 32247.00
418.7970, 32585.00
419.9900, 32605.00
421.1830, 32879.00
422.3760, 32827.00
423.5690, 33078.00
424.7610, 33168.00
425.9540, 32923.00
427.1460, 32874.00
428.3380, 32672.00
429.5300, 32898.00
430.7220, 32907.00
431.9140, 32879.00
433.1050, 32824.00
434.2970, 32827.00
435.4880, 33138.00
436.6790, 33267.00
437.8700, 33330.00
439.0610, 33424.00
440.2510, 33744.00
441.4420, 33975.00
442.6320, 34225.60
443.8220, 34593.00
445.0120, 34850.00
446.2020, 35063.00
447.3910, 35489.00
448.5810, 35612.00
449.7700, 36165.00
450.9600, 36828.00
452.1490, 37142.00
453.3370, 37855.00
454.5260, 38143.00
455.7150, 38895.00
456.9030, 39597.00
458.0910, 39852.00
459.2800, 40551.00
460.4670, 41163.00
461.6550, 41365.00
462.8430, 42175.00
464.0300, 42724.00
465.2180, 42882.00
466.4050, 43353.00
467.5920, 43828.00
468.7790, 43885.00
469.9650, 44459.00
471.1520, 44385.00
472.3380, 44484.00
473.5250, 44839.00
474.7110, 44695.00
475.8970, 44937.00
477.0820, 45308.00
478.2680, 44926.00
479.4540, 44847.00
480.6390, 44659.00
481.8240, 44526.00
483.0090, 44197.00
484.1940, 44088.00
485.3780, 43469.00
486.5630, 42956.00
487.7470, 42901.00
488.9320, 42301.00
490.1160, 41212.00
491.3000, 40730.00
492.4830, 40142.00
493.6670, 39808.00
494.8500, 38645.00
496.0340, 38336.00
497.2170, 37726.00
498.4000, 37234.00
499.5820, 36823.00
500.7650, 36408.00
501.9480, 35860.00
503.1300, 35455.00
504.3120, 35199.00
505.4940, 34880.13
506.6760, 34664.70
507.8580, 34548.00
509.0390, 34327.00
510.2210, 34327.00
511.4020, 34238.00
512.5830, 33969.00
513.7640, 33739.00
514.9450, 33985.00
516.1250, 34016.00
517.3060, 33923.00
518.4860, 33887.00
519.6660, 33835.00
520.8460, 34019.00
522.0260, 33530.00
523.2060, 33651.00
524.3850, 33827.00
525.5650, 33680.00
526.7440, 33841.00
527.9230, 33778.00
529.1020, 33894.00
530.2810, 33570.00
531.4590, 33492.00
532.6380, 33685.00
533.8160, 33427.00
534.9940, 33480.00
536.1720, 33579.00
537.3500, 33317.00
538.5270, 33648.00
539.7050, 33520.00
540.8820, 33328.00
542.0590, 33396.00
543.2360, 33282.00
544.4130, 33266.00
545.5900, 33417.00
546.7660, 33325.00
547.9430, 33160.00
549.1190, 33023.00
550.2950, 33089.67
551.4710, 33477.00
552.6470, 33298.00
553.8220, 33274.00
554.9980, 33464.00
556.1730, 33319.00
557.3480, 33384.00
558.5230, 33232.00
559.6980, 33538.00
560.8730, 33409.00
562.0470, 33442.00
563.2220, 33665.00
564.3960, 33568.00
565.5700, 33611.00
566.7440, 33556.00
567.9170, 33483.00
569.0910, 33555.00
570.2640, 33764.00
571.4380, 33796.00
572.6110, 33998.00
573.7840, 33756.00
574.9570, 33749.00
576.1290, 33733.00
577.3020, 33837.00
578.4740, 33747.00
579.6460, 33841.00
580.8180, 33898.00
581.9900, 33923.00
583.1620, 34075.00
584.3330, 34011.00
585.5040, 33891.00
586.6760, 34155.00
587.8470, 33928.00
589.0180, 34306.00
590.1880, 34139.00
591.3590, 34241.00
592.5290, 34204.00
593.7000, 34190.00
594.8700, 34111.00
596.0400, 34158.35
597.2090, 34304.00
598.3790, 34300.00
599.5490, 34407.00
600.7180, 34621.00
601.8870, 34599.00
603.0560, 34453.00
604.2250, 34697.00
605.3940, 34687.00
606.5620, 34532.00
607.7300, 34615.00
608.8990, 34876.00
610.0670, 34851.00
611.2350, 34876.00
612.4020, 34870.00
613.5700, 34829.00
614.7370, 34932.00
615.9050, 34871.00
617.0720, 35013.00
618.2390, 35147.00
619.4060, 35198.00
620.5720, 35085.00
621.7390, 35243.00
622.9050, 35265.00
624.0710, 35280.00
625.2370, 35361.00
626.4030, 35345.00
627.5690, 35602.00
628.7340, 35427.00
629.9000, 35511.00
631.0650, 35449.00
632.2300, 35673.00
633.3950, 35669.00
634.5600, 35263.00
635.7240, 35893.00
636.8890, 35576.00
638.0530, 35910.00
639.2170, 35826.00
640.3810, 35776.00
641.5450, 35949.00
642.7080, 35828.00
643.8720, 35845.00
645.0350, 35786.00
646.1980, 36099.00
647.3610, 35973.00
648.5240, 35912.00
649.6870, 36276.00
650.8490, 35956.00
652.0120, 36337.00
653.1740, 36091.00
654.3360, 36230.00
655.4980, 36485.00
656.6600, 36312.00
657.8210, 36243.00
658.9830, 36442.00
660.1440, 36271.44
661.3050, 36318.00
662.4660, 36192.00
663.6270, 36386.00
664.7870, 36409.00
665.9480, 36452.00
667.1080, 36603.00
668.2680, 36704.00
669.4280, 36636.00
670.5880, 36710.00
671.7480, 36674.00
672.9070, 36802.00
674.0670, 36779.00
675.2260, 36780.01
676.3850, 36875.00
677.5440, 36807.00
678.7030, 36827.00
679.8610, 36971.00
681.0200, 37117.00
682.1780, 37018.00
683.3360, 36963.00
684.4940, 37057.00
685.6520, 36998.00
686.8090, 37068.00
687.9670, 37065.61
689.1240, 37221.00
690.2810, 37142.00
691.4380, 37330.00
692.5950, 37541.00
693.7520, 37279.00
694.9080, 37490.00
696.0650, 37252.00
697.2210, 37674.00
698.3770, 37675.00
699.5330, 37657.00
700.6880, 37538.00
701.8440, 37594.00
702.9990, 37922.00
704.1550, 37608.00
705.3100, 37941.00
706.4650, 38044.00
707.6190, 38051.00
708.7740, 38025.00
709.9290, 38140.00
711.0830, 38233.00
712.2370, 38139.00
713.3910, 38315.00
714.5450, 38132.00
715.6980, 38182.00
716.8520, 38272.00
718.0050, 38187.00
719.1580, 38426.00
720.3110, 38307.00
721.4640, 38599.00
722.6170, 38589.00
723.7700, 38201.00
724.9220, 38528.00
726.0740, 38476.00
727.2260, 38485.00
728.3780, 38628.00
729.5300, 38644.54
730.6810, 38767.00
731.8330, 38781.00
732.9840, 38880.00
734.1350, 38867.00
735.2860, 39076.00
736.4370, 39023.00
737.5880, 39319.00
738.7380, 39073.00
739.8880, 38846.00
741.0390, 39138.00
742.1890, 39378.00
743.3380, 39363.00
744.4880, 39306.00
745.6380, 39429.00
746.7870, 39634.00
747.9360, 39339.00
749.0850, 39431.00
750.2340, 39382.00
751.3830, 39574.00
752.5310, 39521.00
753.6800, 39672.67
754.8280, 39872.00
755.9760, 39877.00
757.1240, 39798.00
758.2720, 39736.00
759.4190, 39966.00
760.5670, 39902.00
761.7140, 39927.00
762.8610, 40185.00
764.0080, 40053.00
765.1550, 39996.00
766.3020, 40265.00
767.4480, 40136.00
768.5950, 40231.00
769.7410, 40426.00
770.8870, 40244.00
772.0330, 40385.00
773.1780, 40289.00
774.3240, 40123.00
775.4690, 40634.00
776.6140, 40295.00
777.7590, 40417.00
778.9040, 40538.00
780.0490, 40432.00
781.1940, 40331.00
782.3380, 40384.00
783.4820, 40426.00
784.6260, 40372.00
785.7700, 40537.00
786.9140, 40555.00
788.0580, 40372.00
789.2010, 40604.00
790.3450, 40431.00
791.4880, 40558.00
792.6310, 40743.00
793.7730, 40690.00
794.9160, 40629.00
796.0590, 40811.00
797.2010, 40839.38
798.3430, 41011.00
799.4850, 40942.00
800.6270, 40899.00
801.7690, 40612.00
802.9100, 40830.00
804.0520, 40679.00
805.1930, 40975.00
806.3340, 40734.00
807.4750, 40620.00
808.6160, 40972.00
809.7560, 41128.00
810.8970, 41181.00
812.0370, 41145.00
813.1770, 41159.00
814.3170, 41035.00
815.4570, 41118.56
816.5960, 41120.00
817.7360, 41253.00
818.8750, 41302.00
820.0140, 41408.00
821.1530, 41336.00
822.2920, 41468.00
823.4310, 41427.00
824.5690, 41454.00
825.7070, 41604.00
826.8460, 41634.00
827.9840, 41595.00
829.1220, 41710.00
830.2590, 41723.94
831.3970, 41599.00
832.5340, 41835.00
833.6710, 41803.00
834.8080, 41855.00
835.9450, 41742.00
837.0820, 41702.00
838.2190, 41653.00
839.3550, 41978.00
840.4910, 41905.54
841.6270, 42009.00
842.7630, 42038.00
843.8990, 42098.00
845.0350, 42191.00
846.1700, 42390.00
847.3060, 42267.00
848.4410, 42423.00
849.5760, 42114.00
850.7100, 42608.00
851.8450, 42371.00
852.9800, 42542.00
854.1140, 42636.00
855.2480, 42602.00
856.3820, 42680.00
857.5160, 42561.00
858.6500, 42626.00
859.7830, 42765.00
860.9170, 42784.40
862.0500, 43063.00
863.1830, 43013.00
864.3160, 43146.00
865.4480, 43314.00
866.5810, 42920.00
867.7130, 43131.00
868.8460, 43339.00
869.9780, 43318.00
871.1100, 43529.00
872.2410, 43229.00
873.3730, 43448.00
874.5050, 43441.00
875.6360, 43447.00
876.7670, 43653.00
877.8980, 43851.00
879.0290, 43844.00
880.1590, 43651.00
881.2900, 43741.00
882.4200, 43798.00
883.5500, 43599.00
884.6800, 43892.00
885.8100, 43644.00
886.9400, 43692.00
888.0690, 43836.00
889.1990, 44109.00
890.3280, 43752.00
891.4570, 43706.00
892.5860, 43856.00
893.7140, 43830.00
894.8430, 43994.00
895.9710, 44027.23
897.1000, 44020.00
898.2280, 44120.00
899.3560, 44144.64
900.4830, 44333.64
901.6110, 44232.00
902.7380, 44313.00
903.8660, 44311.00
904.9930, 44230.00
906.1200, 44382.00
907.2460, 44578.00
908.3730, 44354.00
909.5000, 44379.00
910.6260, 44339.00
911.7520, 44672.00
912.8780, 44495.00
914.0040, 44639.00
915.1290, 44513.00
916.2550, 44962.00
917.3800, 45007.00
918.5050, 45188.00
919.6300, 45222.01
920.7550, 45002.00
921.8800, 45076.00
923.0040, 44944.00
924.1290, 44773.00
925.2530, 45144.00
926.3770, 45124.00
927.5010, 44853.00
928.6250, 45048.00
929.7480, 45245.00
930.8720, 45120.00
931.9950, 45144.00
933.1180, 45245.66
934.2410, 45385.00
935.3640, 45438.00
936.4860, 45620.00
937.6090, 45802.00
938.7310, 45421.00
939.8530, 46035.00
940.9750, 45507.00
942.0970, 45618.00
943.2180, 45734.00
944.3400, 45927.00
945.4610, 45865.00
946.5820, 45948.00
947.7030, 46163.00
948.8240, 46241.00
949.9450, 46119.00
951.0650, 46201.00
952.1860, 46206.00
953.3060, 46210.00
954.4260, 46331.00
955.5460, 46381.00
956.6650, 46375.00
957.7850, 46331.00
958.9040, 46418.00
960.0230, 46808.00
961.1420, 46591.00
962.2610, 46789.00
963.3800, 46639.00
964.4990, 46643.00
965.6170, 46780.00
966.7350, 47027.00
967.8530, 46998.10
968.9710, 46993.00
970.0890, 47057.00
971.2070, 47021.00
972.3240, 47020.00
973.4410, 47078.00
974.5580, 47221.00
975.6750, 47313.00
976.7920, 47460.00
977.9090, 47559.00
979.0250, 47633.23
980.1410, 47540.00
981.2580, 47579.00
982.3740, 47802.00
983.4890, 47391.00
984.6050, 47805.00
985.7200, 47745.00
986.8360, 47867.00
987.9510, 48068.00
989.0660, 47974.00
990.1810, 47977.00
991.2950, 48035.00
992.4100, 47965.00
993.5240, 48002.00
994.6390, 48192.00
995.7530, 48476.00
996.8660, 48358.00
997.9800, 48345.00
999.0940, 48043.00
1000.207, 49051.00
1001.320, 49404.00
1002.433, 48945.00
1003.546, 48735.00
1004.659, 48748.00
1005.772, 48653.00
1006.884, 48630.14
1007.996, 48810.00
1009.108, 48754.00
1010.220, 48782.00
1011.332, 49081.00
1012.444, 48937.00
1013.555, 48831.00
1014.666, 49239.00
1015.777, 49293.00
1016.888, 49248.00
1017.999, 49482.00
1019.110, 49368.00
1020.220, 49509.00
1021.331, 49719.00
1022.441, 49717.00
1023.551, 49718.00
1024.661, 49751.00
1025.770, 49837.42
1026.880, 49866.15
1027.989, 50008.00
1029.098, 50011.00
1030.207, 49981.00
1031.316, 50105.00
1032.425, 50282.00
1033.533, 50373.00
1034.642, 50102.00
1035.750, 50251.00
1036.858, 50177.00
1037.966, 50277.00
1039.073, 50681.00
1040.181, 50407.00
1041.288, 50635.00
1042.396, 50792.00
1043.503, 50344.00
1044.610, 50837.00
1045.716, 50867.00
1046.823, 50628.00
1047.929, 50825.00
1049.036, 50756.00
1050.142, 50972.00
1051.248, 51032.00
1052.353, 50808.00
1053.459, 51393.00
1054.564, 51141.00
1055.670, 51256.00
1056.775, 51530.00
1057.880, 51379.00
1058.985, 51511.00
1060.089, 51458.00
1061.194, 51409.00
1062.298, 51429.00
1063.402, 51416.00
1064.506, 51438.00
1065.610, 51513.79
1066.713, 51704.00
1067.817, 51729.00
1068.920, 51838.00
1070.023, 52027.00
1071.126, 52101.00
1072.229, 52161.71
1073.332, 52008.00
1074.435, 52166.00
1075.537, 52185.00
1076.639, 52073.00
1077.741, 52550.00
1078.843, 52347.00
1079.945, 52401.00
1081.046, 52682.00
1082.148, 52693.00
1083.249, 52750.00
1084.350, 52752.00
1085.451, 52792.00
1086.551, 52866.00
1087.652, 52856.16
1088.752, 52879.00
1089.853, 52887.00
1090.953, 52880.00
1092.053, 52921.00
1093.152, 52945.00
1094.252, 53155.00
1095.351, 52988.00
1096.451, 53219.00
1097.550, 53190.00
1098.649, 53248.00
1099.748, 53332.00
1100.846, 53378.00
1101.945, 53133.00
1103.043, 52996.00
1104.141, 53133.00
1105.239, 53231.00
1106.337, 53324.00
1107.434, 53191.00
1108.532, 53274.00
1109.629, 53621.00
1110.726, 53433.00
1111.823, 53666.00
1112.920, 53313.00
1114.017, 53686.00
1115.113, 53335.00
1116.210, 53895.00
1117.306, 53586.00
1118.402, 53954.00
1119.498, 54104.00
1120.593, 54313.00
1121.689, 54446.00
1122.784, 54451.00
1123.879, 54266.00
1124.974, 54184.00
1126.069, 54108.00
1127.164, 54213.00
1128.259, 54062.00
1129.353, 54133.00
1130.447, 53875.00
1131.541, 53979.00
1132.635, 53712.00
1133.729, 53624.00
1134.822, 53922.00
1135.916, 54014.00
1137.009, 53843.00
1138.102, 53646.00
1139.195, 54001.00
1140.288, 53466.00
1141.380, 53833.00
1142.473, 53905.00
1143.565, 54042.00
1144.657, 53936.00
1145.749, 54001.00
1146.841, 53905.00
1147.932, 53861.02
1149.024, 53889.00
1150.115, 53853.00
1151.206, 53873.00
1152.297, 54117.00
1153.388, 53996.00
1154.479, 54261.00
1155.569, 54161.00
1156.659, 53966.00
1157.750, 53845.00
1158.839, 54342.00
1159.929, 54024.00
1161.019, 54136.00
1162.108, 53937.00
1163.198, 54500.00
1164.287, 54238.00
1165.376, 54340.00
1166.465, 54465.00
1167.553, 53892.00
1168.642, 54167.00
1169.730, 54064.00
1170.818, 54480.00
1171.906, 54198.00
1172.994, 54312.00
1174.082, 54397.00
1175.170, 54054.00
1176.257, 54340.00
1177.344, 54410.00
1178.431, 54350.00
1179.518, 54467.00
1180.605, 54544.00
1181.691, 54559.00
1182.778, 54465.00
1183.864, 54581.00
1184.950, 54741.00
1186.036, 54594.00
1187.122, 54632.00
1188.207, 54763.00
1189.292, 54986.00
1190.378, 54915.00
1191.463, 54683.00
1192.548, 54880.00
1193.632, 54665.00
1194.717, 54577.00
1195.801, 54850.00
1196.886, 54731.00
1197.970, 54914.00
1199.054, 54665.00
1200.137, 54856.00
1201.221, 55404.00
1202.305, 54950.00
1203.388, 55197.00
1204.471, 54886.00
1205.554, 54955.00
1206.637, 55067.00
1207.719, 55437.00
1208.802, 55051.00
1209.884, 55226.00
1210.966, 55196.00
1212.048, 55483.00
1213.130, 55559.00
1214.212, 55098.00
1215.293, 55096.00
1216.374, 55722.00
1217.456, 55566.00
1218.536, 55852.00
1219.617, 55755.00
1220.698, 55694.00
1221.778, 55739.00
1222.859, 55625.00
1223.939, 55798.00
1225.019, 55793.00
1226.099, 55748.00
1227.178, 55875.00
1228.258, 55600.00
1229.337, 55991.00
1230.417, 56070.00
1231.496, 55951.00
1232.574, 55841.00
1233.653, 55999.00
1234.732, 56030.00
1235.810, 56011.00
1236.888, 56450.00
1237.966, 56406.00
1239.044, 56494.00
1240.122, 56288.00
1241.199, 56364.02
1242.277, 56512.00
1243.354, 56341.00
1244.431, 56653.00
1245.508, 56576.00
1246.585, 56666.00
1247.661, 56735.00
1248.738, 56732.09
1249.814, 56516.00
1250.890, 56821.00
1251.966, 56636.00
1253.042, 56710.00
1254.117, 56861.00
1255.193, 56646.00
1256.268, 56475.00
1257.343, 56873.00
1258.418, 56833.00
1259.493, 56800.00
1260.567, 57062.00
1261.642, 56811.00
1262.716, 56914.00
1263.790, 57134.00
1264.864, 57017.00
1265.938, 57130.27
1267.011, 56999.00
1268.085, 57146.00
1269.158, 57216.00
1270.231, 57202.00
1271.304, 57269.00
1272.377, 57245.00
1273.450, 57384.00
1274.522, 57444.00
1275.594, 57263.00
1276.666, 57187.00
1277.738, 57257.23
1278.810, 57682.00
1279.882, 57450.00
1280.953, 57597.00
1282.025, 57854.00
1283.096, 57499.00
1284.167, 57680.00
1285.238, 57893.00
1286.308, 57724.00
1287.379, 57750.00
1288.449, 57881.00
1289.519, 57840.00
1290.589, 57858.00
1291.659, 58067.00
1292.729, 57913.00
1293.798, 58136.00
1294.868, 57957.00
1295.937, 58117.00
1297.006, 58204.00
1298.075, 58274.00
1299.143, 58215.00
1300.212, 58231.00
1301.280, 58138.00
1302.348, 58374.00
1303.416, 58458.00
1304.484, 58511.00
1305.552, 58370.00
1306.620, 58691.00
1307.687, 58896.00
1308.754, 58467.00
1309.821, 58551.00
1310.888, 58451.00
1311.955, 58816.00
1313.021, 58936.00
1314.088, 58701.00
1315.154, 58574.00
1316.220, 59030.00
1317.286, 59059.00
1318.352, 58764.00
1319.417, 59135.00
1320.483, 58970.00
1321.548, 59291.00
1322.613, 59056.00
1323.678, 59094.00
1324.743, 59230.00
1325.807, 59351.00
1326.872, 59390.00
1327.936, 59377.00
1329.000, 59118.00
1330.064, 59299.00
1331.128, 59340.00
1332.191, 59548.00
1333.255, 59554.00
1334.318, 59551.00
1335.381, 59468.00
1336.444, 59620.00
1337.507, 59785.00
1338.569, 59758.00
1339.632, 59903.00
1340.694, 59915.76
1341.756, 59665.00
1342.818, 59887.00
1343.880, 59949.00
1344.941, 59802.00
1346.003, 59992.00
1347.064, 60109.00
1348.125, 59773.00
1349.186, 59961.00
1350.247, 60242.00
1351.308, 60024.00
1352.368, 60165.00
1353.428, 60212.00
1354.489, 60108.00
1355.549, 60400.00
1356.608, 60107.00
1357.668, 60190.00
1358.727, 60049.00
1359.787, 60685.00
1360.846, 60285.00
1361.905, 60472.00
1362.964, 60281.00
1364.022, 60640.00
1365.081, 60290.00
1366.139, 60553.00
1367.197, 60483.00
1368.255, 60921.00
1369.313, 60679.00
1370.371, 60957.00
1371.428, 60823.00
1372.486, 60765.00
1373.543, 60862.00
1374.600, 60499.00
1375.657, 60819.00
1376.713, 60855.00
1377.770, 60832.00
1378.826, 61287.00
1379.882, 61009.00
1380.938, 60898.00
1381.994, 61073.00
1383.050, 61273.00
1384.106, 60976.00
1385.161, 61311.00
1386.216, 61343.00
1387.271, 61002.00
1388.326, 61186.00
1389.381, 61125.00
1390.435, 61363.00
1391.490, 61327.00
1392.544, 61259.00
1393.598, 60933.00
1394.652, 61606.00
1395.705, 61357.00
1396.759, 61567.00
1397.812, 61688.00
1398.866, 61471.00
1399.919, 61516.00
1400.972, 61566.00
1402.024, 61740.00
1403.077, 61342.00
1404.129, 61729.00
1405.181, 61911.00
1406.233, 62072.00
1407.285, 61753.00
1408.337, 62309.00
1409.389, 62216.00
1410.440, 61827.00
1411.491, 62198.00
1412.542, 61927.00
1413.593, 62138.00
1414.644, 62227.00
1415.695, 62107.00
1416.745, 62201.00
1417.795, 62211.00
1418.845, 62168.00
1419.895, 62298.00
1420.945, 62302.00
1421.995, 62316.00
1423.044, 62454.00
1424.093, 62451.96
1425.142, 62509.00
1426.191, 62513.00
1427.240, 62632.00
1428.289, 62606.00
1429.337, 62524.00
1430.385, 62783.00
1431.433, 62748.00
1432.481, 62604.00
1433.529, 62994.00
1434.577, 62890.00
1435.624, 62840.00
1436.672, 63212.00
1437.719, 62804.00
1438.766, 62985.00
1439.812, 62956.00
1440.859, 63341.00
1441.905, 62996.00
1442.952, 63092.00
1443.998, 63117.00
1445.044, 63235.00
1446.090, 63120.00
1447.135, 63293.00
1448.181, 63258.00
1449.226, 63228.00
1450.271, 63323.00
1451.316, 63257.60
1452.361, 63509.00
1453.405, 63277.00
1454.450, 63348.00
1455.494, 63501.00
1456.538, 63656.00
1457.582, 63888.00
1458.626, 63700.00
1459.670, 63620.00
1460.713, 63845.00
1461.757, 63626.00
1462.800, 63871.00
1463.843, 63725.00
1464.886, 63539.00
1465.928, 63707.00
1466.971, 63888.00
1468.013, 63928.00
1469.055, 64104.00
1470.097, 63952.00
1471.139, 63980.00
1472.181, 63813.00
1473.222, 63808.00
1474.263, 64268.00
1475.305, 64053.00
1476.346, 64335.00
1477.386, 64151.00
1478.427, 64220.00
1479.468, 64376.00
1480.508, 64481.00
1481.548, 64523.28
1482.588, 64549.56
1483.628, 64552.00
1484.668, 64555.00
1485.707, 64465.00
1486.747, 64576.00
1487.786, 64522.00
1488.825, 64367.00
1489.864, 64559.00
1490.902, 64504.00
1491.941, 64539.00
1492.979, 64448.00
1494.017, 64602.96
1495.055, 64489.00
1496.093, 64905.00
1497.131, 64914.00
1498.168, 65042.00
1499.206, 64964.00
1500.243, 64964.00
1501.280, 64807.00
1502.317, 64926.00
1503.354, 64939.00
1504.390, 65060.00
1505.426, 65009.00
1506.463, 65159.00
1507.499, 65343.00
1508.535, 65087.00
1509.570, 65321.00
1510.606, 65230.00
1511.641, 65298.00
1512.676, 65162.00
1513.711, 65535.00
1514.746, 65535.00
1515.781, 65516.00
1516.816, 65321.00
1517.850, 65326.00
1518.884, 65535.00
1519.918, 65535.00
1520.952, 65467.00
1521.986, 65303.00
1523.019, 65535.00
1524.053, 65535.00
1525.086, 65453.00
1526.119, 65535.00
1527.152, 65535.00
1528.185, 65535.00
1529.217, 65535.00
1530.250, 65535.00
1531.282, 65535.00
1532.314, 65535.00
1533.346, 65535.00
1534.377, 65535.00
1535.409, 65535.00
1536.440, 65535.00
1537.472, 65535.00
1538.503, 65535.00
1539.534, 65535.00
1540.564, 65535.00
1541.595, 65535.00
1542.625, 65535.00
1543.656, 65535.00
1544.686, 65535.00
1545.716, 65535.00
1546.745, 65535.00
1547.775, 65535.00
1548.804, 65535.00
1549.834, 65535.00
1550.863, 65535.00
1551.892, 65535.00
1552.920, 65535.00
1553.949, 65535.00
1554.977, 65535.00
1556.006, 65535.00
1557.034, 65535.00
1558.062, 65535.00
1559.089, 65535.00
1560.117, 65535.00
1561.144, 65535.00
1562.172, 65535.00
1563.199, 65535.00
1564.226, 65535.00
1565.252, 65535.00
1566.279, 65535.00
1567.305, 65535.00
1568.332, 65535.00
1569.358, 65535.00
1570.384, 65535.00
1571.409, 65535.00
##END=



