##NAMES=Polylithionite
##RRUFFID=R050132
##IDEAL CHEMISTRY=KLi_2_AlSi_4_O_10_F_2_
##LOCALITY=Brown Derby mine, Ohio City, Gunnison County, Colorado, USA
##OWNER=RRUFF
##SOURCE=Dave Bunk Minerals
##DESCRIPTION=Purple scaly aggregate, polytype 2M1
##STATUS=The identification of this mineral has been confirmed by X-ray diffraction and chemical analysis
##URL=rruff.info/R050132
##MEASURED CHEMISTRY=(K_0.90_Rb_0.10_)(Li_0.62_Al_0.38_)_3_(Si_0.93_Al_0.07_)_4_O_10_(F_0.69_(OH)_0.31_)_2_
##PIN_ID=M00120
##ORIENTATION=Laser parallel to c* (0 0 1). Fiducial mark perpendicular to laser is parallel to -a [-1 0 0]
95.94800, 15578.00
97.18200, 15668.00
98.41600, 15975.00
99.64900, 16114.00
100.8830, 16191.00
102.1160, 16196.00
103.3490, 16263.00
104.5820, 16529.00
105.8150, 16525.00
107.0470, 16665.00
108.2800, 16686.00
109.5120, 16769.62
110.7440, 16835.00
111.9760, 16937.00
113.2080, 16916.00
114.4400, 17005.00
115.6710, 17058.00
116.9030, 17177.00
118.1340, 17208.78
119.3650, 17209.00
120.5960, 17282.00
121.8270, 17317.00
123.0580, 17332.00
124.2880, 17463.00
125.5190, 17529.00
126.7490, 17484.00
127.9790, 17575.00
129.2090, 17807.00
130.4390, 17723.00
131.6680, 17859.00
132.8980, 17703.00
134.1270, 17903.00
135.3560, 18063.00
136.5850, 18151.00
137.8140, 18279.00
139.0430, 18125.00
140.2710, 18108.00
141.5000, 18315.00
142.7280, 18278.00
143.9560, 18495.00
145.1840, 18482.00
146.4120, 18548.00
147.6390, 18597.51
148.8670, 18534.00
150.0940, 18611.00
151.3210, 18647.00
152.5490, 18642.00
153.7750, 18702.86
155.0020, 18696.00
156.2290, 18741.00
157.4550, 18870.00
158.6810, 18828.00
159.9080, 19059.00
161.1340, 18935.00
162.3590, 19186.00
163.5850, 19171.00
164.8110, 19369.00
166.0360, 19243.00
167.2610, 19622.00
168.4860, 19570.00
169.7110, 19874.00
170.9360, 19922.00
172.1610, 20132.00
173.3850, 20063.00
174.6100, 20221.00
175.8340, 20349.00
177.0580, 20425.00
178.2820, 20472.00
179.5050, 20581.00
180.7290, 20518.00
181.9520, 20609.00
183.1760, 20553.00
184.3990, 20408.00
185.6220, 20193.00
186.8450, 20299.00
188.0670, 20228.00
189.2900, 20286.00
190.5120, 20205.00
191.7340, 20255.00
192.9560, 20262.42
194.1780, 20415.00
195.4000, 20321.00
196.6220, 20427.00
197.8430, 20500.00
199.0640, 20464.00
200.2860, 20503.00
201.5070, 20588.00
202.7270, 20662.00
203.9480, 20433.00
205.1690, 20421.00
206.3890, 20210.00
207.6090, 20305.00
208.8290, 20397.00
210.0490, 20628.00
211.2690, 20519.00
212.4890, 20526.00
213.7080, 20622.00
214.9280, 20651.00
216.1470, 20480.00
217.3660, 20637.00
218.5850, 20613.00
219.8030, 20379.00
221.0220, 20724.00
222.2400, 20521.00
223.4590, 20616.00
224.6770, 20560.00
225.8950, 20533.00
227.1120, 20633.00
228.3300, 20741.00
229.5480, 20774.00
230.7650, 20799.00
231.9820, 21060.00
233.1990, 20967.00
234.4160, 21097.00
235.6330, 21239.00
236.8490, 21289.00
238.0660, 21487.00
239.2820, 21585.00
240.4980, 21686.00
241.7140, 21673.00
242.9300, 21831.00
244.1460, 22156.00
245.3610, 22042.00
246.5770, 22259.00
247.7920, 22551.00
249.0070, 22505.00
250.2220, 22698.00
251.4370, 23073.00
252.6510, 22900.00
253.8660, 23480.00
255.0800, 23752.00
256.2940, 24169.00
257.5080, 24698.00
258.7220, 24839.00
259.9360, 25207.00
261.1490, 25584.00
262.3630, 25527.00
263.5760, 25711.00
264.7890, 24962.00
266.0020, 25010.00
267.2150, 24413.00
268.4270, 24046.00
269.6400, 23532.00
270.8520, 23517.00
272.0640, 23140.00
273.2760, 22876.00
274.4880, 22847.00
275.7000, 22551.00
276.9120, 22485.00
278.1230, 22288.00
279.3340, 22323.00
280.5450, 22179.00
281.7560, 22066.00
282.9670, 22170.00
284.1780, 22178.00
285.3880, 22254.00
286.5980, 22114.00
287.8090, 21991.00
289.0190, 22119.00
290.2290, 22248.00
291.4380, 22329.00
292.6480, 22215.00
293.8570, 22291.00
295.0670, 22170.00
296.2760, 22435.00
297.4850, 22504.00
298.6930, 22424.00
299.9020, 22313.00
301.1110, 22400.00
302.3190, 22551.00
303.5270, 22615.00
304.7350, 22603.00
305.9430, 22372.00
307.1510, 22537.00
308.3580, 22457.00
309.5660, 22360.00
310.7730, 22519.00
311.9800, 22495.29
313.1870, 22512.00
314.3940, 22622.00
315.6010, 22625.00
316.8070, 22634.00
318.0130, 22693.00
319.2200, 22815.00
320.4260, 22811.00
321.6310, 22684.00
322.8370, 22825.00
324.0430, 22761.00
325.2480, 22958.00
326.4540, 22739.00
327.6590, 22868.00
328.8640, 22822.00
330.0680, 22860.00
331.2730, 22979.00
332.4780, 22689.00
333.6820, 22885.00
334.8860, 22895.00
336.0900, 23182.00
337.2940, 23037.00
338.4980, 23007.00
339.7010, 22966.00
340.9050, 23104.00
342.1080, 23274.00
343.3110, 23235.00
344.5140, 23175.00
345.7170, 23050.00
346.9200, 23183.00
348.1220, 23192.00
349.3240, 23169.00
350.5270, 23384.00
351.7290, 23272.00
352.9310, 23276.00
354.1320, 23387.00
355.3340, 23340.00
356.5350, 23473.00
357.7370, 23517.00
358.9380, 23458.00
360.1390, 23682.00
361.3400, 23763.00
362.5400, 23549.00
363.7410, 23779.00
364.9410, 23938.00
366.1410, 23824.00
367.3410, 23918.00
368.5410, 23974.00
369.7410, 24180.00
370.9400, 23956.00
372.1400, 24389.00
373.3390, 23970.00
374.5380, 24393.00
375.7370, 24333.00
376.9360, 24357.00
378.1350, 24333.00
379.3330, 24458.00
380.5310, 24481.00
381.7300, 24575.00
382.9280, 24585.00
384.1260, 24717.00
385.3230, 24723.00
386.5210, 24917.00
387.7180, 25024.00
388.9160, 25106.00
390.1130, 25228.00
391.3100, 25322.48
392.5060, 25348.00
393.7030, 25545.00
394.9000, 25617.00
396.0960, 25763.00
397.2920, 25804.00
398.4880, 25985.00
399.6840, 26133.00
400.8800, 26167.75
402.0750, 26115.00
403.2710, 26244.00
404.4660, 26221.00
405.6610, 26199.00
406.8560, 26245.00
408.0510, 26134.00
409.2450, 26087.00
410.4400, 26181.00
411.6340, 26193.00
412.8280, 26101.00
414.0220, 26106.00
415.2160, 25902.00
416.4100, 25883.35
417.6030, 25767.00
418.7970, 25658.00
419.9900, 25672.00
421.1830, 25369.00
422.3760, 25622.00
423.5690, 25459.00
424.7610, 25732.00
425.9540, 25497.00
427.1460, 25542.00
428.3380, 25758.00
429.5300, 25633.00
430.7220, 25909.00
431.9140, 25819.00
433.1050, 25681.00
434.2970, 25816.00
435.4880, 25748.00
436.6790, 25830.00
437.8700, 25918.00
439.0610, 25949.00
440.2510, 25878.00
441.4420, 25893.00
442.6320, 26004.00
443.8220, 25933.00
445.0120, 26144.00
446.2020, 26061.00
447.3910, 26135.00
448.5810, 26111.00
449.7700, 25985.00
450.9600, 26103.00
452.1490, 25982.00
453.3370, 25927.00
454.5260, 26016.00
455.7150, 26165.00
456.9030, 26255.00
458.0910, 26215.00
459.2800, 26273.00
460.4670, 26240.00
461.6550, 26218.00
462.8430, 26363.00
464.0300, 26393.00
465.2180, 26455.00
466.4050, 26511.21
467.5920, 26487.00
468.7790, 26574.00
469.9650, 26651.00
471.1520, 26679.00
472.3380, 26653.00
473.5250, 26771.00
474.7110, 26739.00
475.8970, 26846.39
477.0820, 26874.00
478.2680, 26986.00
479.4540, 26899.00
480.6390, 26830.00
481.8240, 26822.00
483.0090, 26832.00
484.1940, 26874.00
485.3780, 26785.00
486.5630, 26676.00
487.7470, 26912.00
488.9320, 26492.00
490.1160, 26941.00
491.3000, 26838.00
492.4830, 26887.00
493.6670, 26691.00
494.8500, 26778.00
496.0340, 26714.00
497.2170, 26843.00
498.4000, 26693.00
499.5820, 26868.00
500.7650, 26896.00
501.9480, 26824.00
503.1300, 27097.00
504.3120, 27036.00
505.4940, 27017.00
506.6760, 27201.00
507.8580, 27050.00
509.0390, 27052.00
510.2210, 27125.00
511.4020, 27039.00
512.5830, 27188.00
513.7640, 27151.00
514.9450, 27248.00
516.1250, 27404.00
517.3060, 27197.00
518.4860, 27439.00
519.6660, 27398.00
520.8460, 27508.00
522.0260, 27325.00
523.2060, 27527.00
524.3850, 27499.00
525.5650, 27733.00
526.7440, 27653.00
527.9230, 27727.00
529.1020, 27888.00
530.2810, 27948.00
531.4590, 27948.00
532.6380, 28012.00
533.8160, 27986.00
534.9940, 27958.00
536.1720, 27980.00
537.3500, 28102.00
538.5270, 28225.00
539.7050, 28230.00
540.8820, 28296.00
542.0590, 28376.00
543.2360, 28465.00
544.4130, 28401.00
545.5900, 28366.00
546.7660, 28617.00
547.9430, 28551.00
549.1190, 28800.00
550.2950, 28794.00
551.4710, 28936.00
552.6470, 29001.00
553.8220, 29092.00
554.9980, 29090.00
556.1730, 29193.00
557.3480, 29421.00
558.5230, 29354.00
559.6980, 29372.00
560.8730, 29579.00
562.0470, 29567.00
563.2220, 29445.00
564.3960, 29424.00
565.5700, 29443.23
566.7440, 29573.00
567.9170, 29496.00
569.0910, 29352.00
570.2640, 29314.00
571.4380, 29197.00
572.6110, 29175.26
573.7840, 29156.89
574.9570, 29182.00
576.1290, 29158.00
577.3020, 29147.50
578.4740, 29229.00
579.6460, 29090.00
580.8180, 29106.00
581.9900, 29037.00
583.1620, 29304.00
584.3330, 29197.00
585.5040, 29216.00
586.6760, 29074.00
587.8470, 29154.00
589.0180, 29013.00
590.1880, 29189.00
591.3590, 29381.00
592.5290, 29208.00
593.7000, 29326.00
594.8700, 29313.00
596.0400, 29214.00
597.2090, 29274.00
598.3790, 29537.00
599.5490, 29505.00
600.7180, 29495.00
601.8870, 29430.00
603.0560, 29711.00
604.2250, 29531.00
605.3940, 29661.00
606.5620, 29678.00
607.7300, 29647.00
608.8990, 29726.00
610.0670, 29810.00
611.2350, 29829.15
612.4020, 29823.25
613.5700, 29957.00
614.7370, 29830.00
615.9050, 29938.16
617.0720, 30138.00
618.2390, 30212.00
619.4060, 30208.00
620.5720, 30433.00
621.7390, 30340.00
622.9050, 30651.00
624.0710, 30380.00
625.2370, 30582.00
626.4030, 30325.00
627.5690, 30647.00
628.7340, 30566.00
629.9000, 30522.00
631.0650, 30856.00
632.2300, 30617.00
633.3950, 30389.00
634.5600, 30836.00
635.7240, 30700.00
636.8890, 30647.00
638.0530, 30589.00
639.2170, 30503.00
640.3810, 30658.00
641.5450, 30533.00
642.7080, 30713.00
643.8720, 30680.00
645.0350, 30609.00
646.1980, 30727.00
647.3610, 30672.00
648.5240, 30613.00
649.6870, 30759.00
650.8490, 30573.00
652.0120, 30668.00
653.1740, 30785.00
654.3360, 30693.00
655.4980, 30875.00
656.6600, 30815.00
657.8210, 30898.00
658.9830, 31096.00
660.1440, 31061.00
661.3050, 31198.00
662.4660, 31346.00
663.6270, 31109.00
664.7870, 31100.00
665.9480, 31237.00
667.1080, 31242.00
668.2680, 31310.00
669.4280, 31468.00
670.5880, 31704.00
671.7480, 31548.00
672.9070, 31598.00
674.0670, 31743.00
675.2260, 31584.00
676.3850, 31681.00
677.5440, 31991.00
678.7030, 32055.00
679.8610, 31960.00
681.0200, 32164.00
682.1780, 32258.00
683.3360, 32390.00
684.4940, 32710.00
685.6520, 32745.00
686.8090, 33173.00
687.9670, 33006.00
689.1240, 33551.00
690.2810, 33344.00
691.4380, 33847.00
692.5950, 34198.00
693.7520, 34551.00
694.9080, 34980.00
696.0650, 35319.00
697.2210, 35711.00
698.3770, 36216.00
699.5330, 36704.00
700.6880, 37455.00
701.8440, 37897.00
702.9990, 38659.00
704.1550, 39258.00
705.3100, 40072.00
706.4650, 40870.00
707.6190, 41615.00
708.7740, 42323.00
709.9290, 42687.00
711.0830, 42547.00
712.2370, 42283.00
713.3910, 41566.00
714.5450, 40453.00
715.6980, 39434.00
716.8520, 38590.00
718.0050, 37584.00
719.1580, 36722.00
720.3110, 36106.00
721.4640, 35462.00
722.6170, 35018.00
723.7700, 34767.00
724.9220, 34568.00
726.0740, 34293.00
727.2260, 34081.00
728.3780, 33896.00
729.5300, 33800.35
730.6810, 33706.00
731.8330, 33736.64
732.9840, 33693.00
734.1350, 33739.00
735.2860, 33609.00
736.4370, 33582.00
737.5880, 33522.00
738.7380, 33645.00
739.8880, 33652.00
741.0390, 33638.00
742.1890, 33853.00
743.3380, 33885.00
744.4880, 33908.00
745.6380, 33878.00
746.7870, 33903.00
747.9360, 33906.00
749.0850, 34002.00
750.2340, 33875.00
751.3830, 33836.00
752.5310, 33996.00
753.6800, 34223.00
754.8280, 34177.00
755.9760, 34065.00
757.1240, 34321.00
758.2720, 33911.00
759.4190, 34111.00
760.5670, 33834.00
761.7140, 33941.00
762.8610, 33891.00
764.0080, 33931.00
765.1550, 33892.00
766.3020, 33848.00
767.4480, 33784.00
768.5950, 33945.00
769.7410, 33786.00
770.8870, 34097.00
772.0330, 33652.00
773.1780, 33882.00
774.3240, 34106.00
775.4690, 33973.00
776.6140, 34109.00
777.7590, 34066.00
778.9040, 34143.00
780.0490, 34107.00
781.1940, 34071.00
782.3380, 34053.00
783.4820, 34144.00
784.6260, 34119.68
785.7700, 34189.00
786.9140, 34205.00
788.0580, 34227.44
789.2010, 34362.00
790.3450, 34273.00
791.4880, 34365.00
792.6310, 34524.00
793.7730, 34316.00
794.9160, 34350.00
796.0590, 34212.00
797.2010, 34406.00
798.3430, 34392.00
799.4850, 34483.00
800.6270, 34519.00
801.7690, 34395.00
802.9100, 34600.00
804.0520, 34524.00
805.1930, 34561.00
806.3340, 34344.00
807.4750, 34707.00
808.6160, 34479.00
809.7560, 34633.00
810.8970, 34488.00
812.0370, 34543.00
813.1770, 34769.00
814.3170, 34628.00
815.4570, 34443.00
816.5960, 34800.00
817.7360, 34743.00
818.8750, 34660.00
820.0140, 34661.00
821.1530, 34872.00
822.2920, 34855.00
823.4310, 34997.00
824.5690, 34935.00
825.7070, 35033.76
826.8460, 35113.00
827.9840, 35159.00
829.1220, 35129.00
830.2590, 35148.00
831.3970, 35238.00
832.5340, 35395.00
833.6710, 35154.00
834.8080, 35175.00
835.9450, 35128.00
837.0820, 35475.00
838.2190, 35274.00
839.3550, 35638.00
840.4910, 35228.00
841.6270, 35200.00
842.7630, 35638.00
843.8990, 35686.00
845.0350, 35207.00
846.1700, 35838.00
847.3060, 35484.00
848.4410, 35629.00
849.5760, 35739.00
850.7100, 35634.00
851.8450, 35765.00
852.9800, 35691.00
854.1140, 35836.00
855.2480, 35909.00
856.3820, 36068.00
857.5160, 35938.00
858.6500, 36137.00
859.7830, 35984.00
860.9170, 36289.00
862.0500, 35996.00
863.1830, 36125.00
864.3160, 36079.00
865.4480, 36344.00
866.5810, 36208.00
867.7130, 36287.00
868.8460, 36305.00
869.9780, 36337.00
871.1100, 36288.00
872.2410, 36296.00
873.3730, 36305.00
874.5050, 36438.00
875.6360, 36365.00
876.7670, 36583.00
877.8980, 36645.00
879.0290, 36623.00
880.1590, 36548.00
881.2900, 36606.00
882.4200, 36416.00
883.5500, 36266.00
884.6800, 36821.00
885.8100, 36734.00
886.9400, 36870.00
888.0690, 36820.00
889.1990, 36824.00
890.3280, 36926.00
891.4570, 36913.00
892.5860, 37005.00
893.7140, 37050.00
894.8430, 37007.00
895.9710, 36971.00
897.1000, 37185.00
898.2280, 37358.00
899.3560, 37270.00
900.4830, 37188.00
901.6110, 37296.00
902.7380, 37462.00
903.8660, 37734.00
904.9930, 37525.00
906.1200, 37442.00
907.2460, 37714.00
908.3730, 37589.00
909.5000, 37983.00
910.6260, 37730.00
911.7520, 37567.00
912.8780, 37910.00
914.0040, 37983.00
915.1290, 37971.00
916.2550, 37865.00
917.3800, 37855.00
918.5050, 38072.00
919.6300, 37876.00
920.7550, 38250.00
921.8800, 38113.00
923.0040, 37912.00
924.1290, 38152.00
925.2530, 37985.00
926.3770, 38121.00
927.5010, 38314.00
928.6250, 38164.00
929.7480, 38136.00
930.8720, 38045.00
931.9950, 38336.00
933.1180, 38107.00
934.2410, 38577.00
935.3640, 38521.00
936.4860, 38498.00
937.6090, 38473.00
938.7310, 38392.00
939.8530, 38365.00
940.9750, 38633.00
942.0970, 38435.00
943.2180, 38769.00
944.3400, 38790.00
945.4610, 38553.00
946.5820, 38837.00
947.7030, 39077.00
948.8240, 39070.00
949.9450, 38883.00
951.0650, 39130.00
952.1860, 39094.00
953.3060, 39160.00
954.4260, 39360.00
955.5460, 39304.00
956.6650, 39162.00
957.7850, 39389.00
958.9040, 39365.00
960.0230, 39324.00
961.1420, 39539.00
962.2610, 39362.00
963.3800, 39312.00
964.4990, 39261.00
965.6170, 39351.00
966.7350, 39320.00
967.8530, 39335.00
968.9710, 39342.00
970.0890, 39400.00
971.2070, 39639.00
972.3240, 39525.00
973.4410, 39699.00
974.5580, 39712.00
975.6750, 39645.00
976.7920, 39821.00
977.9090, 39745.23
979.0250, 39774.00
980.1410, 39757.00
981.2580, 39893.00
982.3740, 39995.00
983.4890, 39879.00
984.6050, 40087.00
985.7200, 40119.00
986.8360, 40056.00
987.9510, 39942.00
989.0660, 40254.00
990.1810, 39945.00
991.2950, 40140.00
992.4100, 40105.00
993.5240, 40280.00
994.6390, 40220.00
995.7530, 40363.00
996.8660, 40237.00
997.9800, 40310.00
999.0940, 40560.00
1000.207, 40489.00
1001.320, 40380.00
1002.433, 40536.00
1003.546, 40365.00
1004.659, 40498.00
1005.772, 40693.00
1006.884, 40523.00
1007.996, 40463.00
1009.108, 40847.00
1010.220, 40778.00
1011.332, 40658.00
1012.444, 40957.00
1013.555, 40808.00
1014.666, 40909.00
1015.777, 41111.00
1016.888, 40927.00
1017.999, 40785.00
1019.110, 40931.00
1020.220, 40831.00
1021.331, 41137.00
1022.441, 41205.00
1023.551, 41084.00
1024.661, 41273.00
1025.770, 41081.00
1026.880, 41183.00
1027.989, 41575.00
1029.098, 41396.00
1030.207, 41222.00
1031.316, 41478.00
1032.425, 41481.00
1033.533, 41294.00
1034.642, 41341.00
1035.750, 41436.00
1036.858, 41379.78
1037.966, 41477.00
1039.073, 41414.00
1040.181, 41667.00
1041.288, 41663.00
1042.396, 41860.00
1043.503, 41719.00
1044.610, 41862.00
1045.716, 41859.00
1046.823, 41835.00
1047.929, 42082.00
1049.036, 41797.00
1050.142, 42037.00
1051.248, 42202.00
1052.353, 41658.00
1053.459, 42083.00
1054.564, 42212.00
1055.670, 42626.00
1056.775, 42106.00
1057.880, 42221.00
1058.985, 42449.00
1060.089, 42475.00
1061.194, 42616.00
1062.298, 42647.00
1063.402, 42532.00
1064.506, 42786.00
1065.610, 42435.00
1066.713, 42737.00
1067.817, 42878.00
1068.920, 42811.00
1070.023, 42758.00
1071.126, 42860.00
1072.229, 43121.00
1073.332, 42791.00
1074.435, 43038.00
1075.537, 42856.00
1076.639, 43123.00
1077.741, 43355.00
1078.843, 43214.00
1079.945, 43311.00
1081.046, 43470.00
1082.148, 43408.00
1083.249, 43287.00
1084.350, 43758.00
1085.451, 43474.00
1086.551, 43420.00
1087.652, 43667.00
1088.752, 43636.00
1089.853, 43723.00
1090.953, 43897.00
1092.053, 43866.00
1093.152, 43779.00
1094.252, 43894.00
1095.351, 43935.00
1096.451, 43970.00
1097.550, 44167.00
1098.649, 43881.00
1099.748, 43916.00
1100.846, 43993.00
1101.945, 44085.00
1103.043, 44223.00
1104.141, 44143.00
1105.239, 44249.00
1106.337, 44464.00
1107.434, 44520.00
1108.532, 44335.00
1109.629, 44329.00
1110.726, 44415.00
1111.823, 44398.00
1112.920, 44519.00
1114.017, 44645.00
1115.113, 44676.47
1116.210, 44580.00
1117.306, 44801.00
1118.402, 44719.00
1119.498, 44744.00
1120.593, 44985.00
1121.689, 44750.00
1122.784, 44840.00
1123.879, 44687.00
1124.974, 44729.00
1126.069, 44910.00
1127.164, 44826.00
1128.259, 44664.00
1129.353, 45012.00
1130.447, 44838.00
1131.541, 44673.00
1132.635, 44774.00
1133.729, 44944.00
1134.822, 44811.00
1135.916, 44766.00
1137.009, 45036.00
1138.102, 44911.00
1139.195, 44772.00
1140.288, 44786.00
1141.380, 44839.00
1142.473, 44790.00
1143.565, 44954.00
1144.657, 44791.00
1145.749, 45213.00
1146.841, 44872.00
1147.932, 44964.00
1149.024, 45163.00
1150.115, 45110.00
1151.206, 45086.00
1152.297, 45206.00
1153.388, 45030.00
1154.479, 45176.29
1155.569, 45275.00
1156.659, 45300.00
1157.750, 45359.00
1158.839, 45306.00
1159.929, 45243.00
1161.019, 45633.00
1162.108, 45343.00
1163.198, 45597.00
1164.287, 45775.00
1165.376, 45444.00
1166.465, 45683.00
1167.553, 45561.00
1168.642, 45722.00
1169.730, 45420.00
1170.818, 45323.00
1171.906, 45793.00
1172.994, 45645.00
1174.082, 45824.00
1175.170, 45833.00
1176.257, 45723.00
1177.344, 45860.00
1178.431, 45988.00
1179.518, 45967.00
1180.605, 46051.00
1181.691, 45933.00
1182.778, 45898.00
1183.864, 45960.21
1184.950, 45904.00
1186.036, 46028.00
1187.122, 46104.00
1188.207, 46078.00
1189.292, 46419.00
1190.378, 46309.00
1191.463, 46391.00
1192.548, 46665.00
1193.632, 46400.00
1194.717, 46739.00
1195.801, 46484.00
1196.886, 46332.00
1197.970, 46554.00
1199.054, 46625.00
1200.137, 46474.00
1201.221, 46551.00
1202.305, 46563.00
1203.388, 46641.00
1204.471, 46529.00
1205.554, 46640.00
1206.637, 46712.00
1207.719, 46626.00
1208.802, 47014.00
1209.884, 46930.00
1210.966, 46874.00
1212.048, 47078.00
1213.130, 47230.00
1214.212, 46853.00
1215.293, 47211.00
1216.374, 47261.00
1217.456, 47470.00
1218.536, 47218.00
1219.617, 47111.00
1220.698, 47166.00
1221.778, 47360.00
1222.859, 47556.00
1223.939, 47347.00
1225.019, 47273.00
1226.099, 47416.00
1227.178, 47550.00
1228.258, 47640.00
1229.337, 47439.00
1230.417, 47939.00
1231.496, 47515.00
1232.574, 47597.00
1233.653, 47551.00
1234.732, 47787.00
1235.810, 47682.00
1236.888, 47870.00
1237.966, 48000.00
1239.044, 47919.00
1240.122, 48105.00
1241.199, 47893.00
1242.277, 47953.00
1243.354, 48058.00
1244.431, 48069.00
1245.508, 48088.00
1246.585, 48071.00
1247.661, 48258.00
1248.738, 48247.00
1249.814, 48282.00
1250.890, 48494.00
1251.966, 48339.00
1253.042, 48293.00
1254.117, 48793.00
1255.193, 48475.00
1256.268, 48611.00
1257.343, 48482.00
1258.418, 48496.00
1259.493, 48665.00
1260.567, 48601.00
1261.642, 48596.00
1262.716, 48788.00
1263.790, 48629.00
1264.864, 48783.00
1265.938, 48690.00
1267.011, 49091.00
1268.085, 48987.00
1269.158, 48947.00
1270.231, 49022.00
1271.304, 48918.00
1272.377, 49054.00
1273.450, 49084.00
1274.522, 49047.00
1275.594, 49032.00
1276.666, 49292.00
1277.738, 49297.00
1278.810, 49092.00
1279.882, 49394.00
1280.953, 49278.00
1282.025, 49115.00
1283.096, 49518.00
1284.167, 49139.00
1285.238, 49507.00
1286.308, 49219.00
1287.379, 49368.00
1288.449, 49436.00
1289.519, 49695.00
1290.589, 49938.00
1291.659, 49690.00
1292.729, 49943.00
1293.798, 49777.00
1294.868, 49764.00
1295.937, 49798.00
1297.006, 49790.00
1298.075, 49657.00
1299.143, 49916.00
1300.212, 50109.00
1301.280, 50089.00
1302.348, 49919.00
1303.416, 50259.00
1304.484, 50020.00
1305.552, 50064.00
1306.620, 50191.00
1307.687, 50111.00
1308.754, 50262.00
1309.821, 50163.00
1310.888, 50289.00
1311.955, 50090.00
1313.021, 50299.00
1314.088, 50375.00
1315.154, 50277.00
1316.220, 50425.00
1317.286, 50137.00
1318.352, 50646.00
1319.417, 50482.00
1320.483, 50721.00
1321.548, 50668.00
1322.613, 50638.00
1323.678, 50699.00
1324.743, 50819.00
1325.807, 50781.00
1326.872, 50971.00
1327.936, 50936.00
1329.000, 50697.00
1330.064, 51117.00
1331.128, 50910.00
1332.191, 50998.00
1333.255, 50773.00
1334.318, 50967.00
1335.381, 51293.00
1336.444, 51149.00
1337.507, 51297.40
1338.569, 51116.00
1339.632, 51315.00
1340.694, 51305.00
1341.756, 51368.00
1342.818, 51421.59
1343.880, 51494.00
1344.941, 51442.00
1346.003, 51467.00
1347.064, 51440.00
1348.125, 51599.00
1349.186, 51346.00
1350.247, 51248.00
1351.308, 51736.00
1352.368, 51712.00
1353.428, 51522.00
1354.489, 51853.00
1355.549, 51365.00
1356.608, 51811.00
1357.668, 51814.00
1358.727, 51690.00
1359.787, 51765.00
1360.846, 51927.00
1361.905, 51727.00
1362.964, 51547.00
1364.022, 51852.00
1365.081, 52127.00
1366.139, 51834.00
1367.197, 52019.00
1368.255, 51961.00
1369.313, 52283.00
1370.371, 52209.00
1371.428, 52262.00
1372.486, 52322.00
1373.543, 52379.00
1374.600, 52459.00
1375.657, 52448.28
1376.713, 52139.00
1377.770, 52388.00
1378.826, 52280.00
1379.882, 52163.00
1380.938, 52561.00
1381.994, 52356.00
1383.050, 52654.00
1384.106, 52291.00
1385.161, 52445.00
1386.216, 52576.00
1387.271, 52581.00
1388.326, 52669.93
1389.381, 52913.00
1390.435, 52684.00
1391.490, 52755.00
1392.544, 52670.00
1393.598, 52975.00
1394.652, 52735.00
1395.705, 52772.00
1396.759, 52920.00
1397.812, 52597.00
1398.866, 53182.00
1399.919, 53149.00
1400.972, 53087.00
1402.024, 52878.00
1403.077, 53219.00
1404.129, 52957.00
1405.181, 53195.00
1406.233, 53071.00
1407.285, 53485.00
1408.337, 53554.00
1409.389, 53580.00
1410.440, 53402.00
1411.491, 53350.00
1412.542, 53313.57
1413.593, 53259.00
1414.644, 53330.00
1415.695, 53467.00
1416.745, 53696.00
1417.795, 53568.00
1418.845, 53516.00
1419.895, 53707.00
1420.945, 53470.00
1421.995, 53593.00
1423.044, 53765.00
1424.093, 53798.00
1425.142, 54052.00
1426.191, 53866.00
1427.240, 53753.00
1428.289, 53886.00
1429.337, 54021.00
1430.385, 54126.00
1431.433, 54193.00
1432.481, 53996.00
1433.529, 54200.00
1434.577, 54352.00
1435.624, 54074.00
1436.672, 54308.00
1437.719, 54327.00
1438.766, 54565.00
1439.812, 54694.00
1440.859, 54478.00
1441.905, 54656.00
1442.952, 54596.00
1443.998, 54926.00
1445.044, 54552.00
1446.090, 54759.00
1447.135, 54673.00
1448.181, 54989.00
1449.226, 54981.00
1450.271, 55145.00
1451.316, 54993.00
1452.361, 55028.00
1453.405, 54896.00
1454.450, 55129.00
1455.494, 55158.00
1456.538, 55072.00
1457.582, 55632.00
1458.626, 55201.00
1459.670, 55181.00
1460.713, 55485.00
1461.757, 55535.00
1462.800, 55147.00
1463.843, 55198.00
1464.886, 55322.00
1465.928, 55281.00
1466.971, 55316.00
1468.013, 55450.00
1469.055, 55494.00
1470.097, 55580.00
1471.139, 55603.70
1472.181, 55630.79
1473.222, 55639.00
1474.263, 55604.00
1475.305, 55665.00
1476.346, 55553.00
1477.386, 55723.00
1478.427, 55700.00
1479.468, 55676.00
1480.508, 55772.84
1481.548, 55760.90
1482.588, 55869.00
1483.628, 55889.00
1484.668, 55938.00
1485.707, 56132.00
1486.747, 56143.00
1487.786, 56036.00
1488.825, 56234.00
1489.864, 56433.00
1490.902, 56585.00
1491.941, 56298.00
1492.979, 56088.00
1494.017, 56114.00
1495.055, 56330.00
1496.093, 56529.00
1497.131, 56164.00
1498.168, 56332.00
1499.206, 56201.00
1500.243, 56639.00
1501.280, 56807.00
1502.317, 56447.00
1503.354, 57014.00
1504.390, 57013.00
1505.426, 56513.00
1506.463, 56774.00
1507.499, 56742.00
1508.535, 56928.00
1509.570, 57061.00
1510.606, 56991.00
1511.641, 57019.00
1512.676, 57034.00
1513.711, 56952.00
1514.746, 57091.00
1515.781, 57231.00
1516.816, 57273.00
1517.850, 57230.00
1518.884, 57262.00
1519.918, 57136.00
1520.952, 57441.00
1521.986, 57300.00
1523.019, 57488.00
1524.053, 57516.00
1525.086, 57662.00
1526.119, 57283.00
1527.152, 57594.00
1528.185, 57581.00
1529.217, 57595.00
1530.250, 57862.00
1531.282, 57881.00
1532.314, 57672.00
1533.346, 57782.00
1534.377, 57857.00
1535.409, 57800.00
1536.440, 57971.00
1537.472, 57815.00
1538.503, 57808.00
1539.534, 57966.00
1540.564, 58235.00
1541.595, 58280.00
1542.625, 58006.00
1543.656, 58235.00
1544.686, 58091.00
1545.716, 58230.00
1546.745, 58221.00
1547.775, 58493.00
1548.804, 58452.00
1549.834, 58252.00
1550.863, 58400.00
1551.892, 58261.00
1552.920, 58533.00
1553.949, 58453.00
1554.977, 58477.00
1556.006, 58545.00
1557.034, 58638.00
1558.062, 58597.00
1559.089, 58670.40
1560.117, 58760.00
1561.144, 58784.00
1562.172, 58886.00
1563.199, 58906.23
1564.226, 58675.00
1565.252, 58914.00
1566.279, 58978.00
1567.305, 58887.00
1568.332, 59225.00
1569.358, 59187.00
1570.384, 59406.00
##END=



