##NAMES=Pyrite
##RRUFFID=R050070
##IDEAL CHEMISTRY=Fe^2+^(S_2_)^2-^
##LOCALITY=Mina San Jose de Huanzala, Minero de Huallanca District, Department de Huanuco, Peru
##OWNER=RRUFF
##SOURCE=Rock Currier
##DESCRIPTION=Brass-yellow metallic cube
##STATUS=The identification of this mineral has been confirmed by X-ray diffraction and chemical analysis
##URL=rruff.info/R050070
##MEASURED CHEMISTRY=Fe_1.00_S_2.00_
##PIN_ID=L00728
##ORIENTATION=Laser parallel to c* (0 0 1). Fiducial mark perpendicular to laser is parallel to a [1 0 0]
127.8490, 7646.000
129.0810, 8022.000
130.3130, 7976.000
131.5450, 8037.000
132.7770, 7416.000
134.0080, 7045.000
135.2390, 6878.000
136.4710, 6960.000
137.7020, 7656.000
138.9320, 7402.493
140.1630, 8050.000
141.3930, 7369.000
142.6240, 7045.000
143.8540, 6867.000
145.0840, 6997.000
146.3140, 7553.000
147.5440, 7465.000
148.7730, 7095.000
150.0020, 6666.000
151.2320, 6614.000
152.4610, 6635.000
153.6900, 6799.000
154.9180, 6993.000
156.1470, 6687.977
157.3750, 6260.000
158.6040, 6187.000
159.8320, 6123.000
161.0600, 6129.000
162.2870, 6069.224
163.5150, 6001.935
164.7420, 5995.000
165.9700, 5907.000
167.1970, 5836.000
168.4240, 5918.000
169.6510, 6082.000
170.8770, 6098.000
172.1040, 5881.000
173.3300, 5710.000
174.5560, 5754.000
175.7820, 5538.000
177.0080, 5588.000
178.2340, 5681.000
179.4590, 5543.000
180.6850, 5462.000
181.9100, 5456.000
183.1350, 5484.000
184.3600, 5499.000
185.5850, 5558.000
186.8090, 5627.000
188.0340, 5607.000
189.2580, 5543.000
190.4820, 5514.000
191.7060, 5700.000
192.9300, 5749.000
194.1530, 5961.000
195.3770, 6029.000
196.6000, 6005.000
197.8230, 5971.000
199.0460, 6154.000
200.2690, 6114.000
201.4910, 6186.000
202.7140, 6088.000
203.9360, 5918.000
205.1580, 5790.000
206.3800, 5612.000
207.6020, 5670.000
208.8240, 5558.000
210.0450, 5459.850
211.2670, 5478.000
212.4880, 5298.000
213.7090, 5196.000
214.9300, 5206.000
216.1510, 5102.000
217.3710, 5093.000
218.5920, 5162.000
219.8120, 5055.000
221.0320, 5078.000
222.2520, 5019.000
223.4720, 4999.000
224.6910, 4993.000
225.9110, 5030.000
227.1300, 5038.098
228.3490, 5051.772
229.5680, 5008.000
230.7870, 5121.000
232.0050, 4918.000
233.2240, 5021.000
234.4420, 4934.000
235.6600, 5086.000
236.8780, 4978.000
238.0960, 5049.728
239.3140, 4944.000
240.5310, 4962.444
241.7490, 4881.000
242.9660, 4970.000
244.1830, 4899.000
245.4000, 4887.000
246.6160, 4990.000
247.8330, 4868.000
249.0490, 4990.000
250.2660, 5240.000
251.4820, 5574.000
252.6980, 6227.000
253.9130, 7265.000
255.1290, 8095.000
256.3440, 8641.000
257.5600, 7499.000
258.7750, 5950.000
259.9900, 5233.000
261.2040, 5212.000
262.4190, 5199.000
263.6330, 4976.000
264.8480, 5038.000
266.0620, 4985.000
267.2760, 5152.000
268.4900, 5219.000
269.7030, 4919.102
270.9170, 5009.164
272.1300, 5050.229
273.3430, 5044.914
274.5560, 4854.301
275.7690, 4902.960
276.9820, 4855.731
278.1940, 4804.587
279.4070, 4801.000
280.6190, 4880.000
281.8310, 4826.000
283.0430, 4630.451
284.2550, 4760.966
285.4660, 4842.450
286.6770, 4877.553
287.8890, 4727.374
289.1000, 4816.453
290.3110, 4809.641
291.5210, 4798.882
292.7320, 4872.000
293.9420, 4908.000
295.1530, 4845.000
296.3630, 4960.000
297.5730, 4936.000
298.7830, 4916.000
299.9920, 4875.000
301.2020, 4834.000
302.4110, 4883.000
303.6200, 4906.000
304.8290, 4892.000
306.0380, 5066.000
307.2470, 4997.000
308.4550, 4836.000
309.6630, 4981.000
310.8720, 4900.000
312.0800, 5030.000
313.2880, 4981.358
314.4950, 4945.000
315.7030, 4918.000
316.9100, 4904.000
318.1170, 4918.000
319.3240, 4914.705
320.5310, 4934.503
321.7380, 4958.000
322.9450, 4995.000
324.1510, 5056.780
325.3570, 5119.310
326.5630, 5201.000
327.7690, 5282.000
328.9750, 5433.000
330.1810, 5605.000
331.3860, 6145.000
332.5910, 6852.778
333.7960, 7571.000
335.0010, 8988.000
336.2060, 10404.00
337.4110, 12151.00
338.6150, 15202.00
339.8200, 19395.00
341.0240, 23871.00
342.2280, 29392.00
343.4320, 32940.00
344.6350, 32390.00
345.8390, 29263.00
347.0420, 21882.00
348.2450, 13339.00
349.4480, 9564.000
350.6510, 8329.000
351.8540, 7675.000
353.0560, 7175.000
354.2590, 6509.000
355.4610, 6024.000
356.6630, 5756.000
357.8650, 5782.000
359.0670, 5966.000
360.2680, 6140.000
361.4700, 6199.000
362.6710, 6589.000
363.8720, 7137.000
365.0730, 7770.000
366.2740, 8748.000
367.4740, 10300.00
368.6750, 12237.00
369.8750, 15764.00
371.0750, 20858.00
372.2750, 26918.00
373.4750, 34427.00
374.6740, 48130.00
375.8740, 67403.00
377.0730, 87577.00
378.2720, 114375.0
379.4710, 134118.0
380.6700, 134206.0
381.8690, 119167.0
383.0670, 86721.00
384.2660, 45436.00
385.4640, 24615.00
386.6620, 16818.00
387.8600, 12838.00
389.0570, 10546.00
390.2550, 9129.000
391.4520, 8226.000
392.6490, 7595.000
393.8460, 7176.000
395.0430, 6761.000
396.2400, 6441.000
397.4370, 6292.000
398.6330, 6153.000
399.8290, 5972.000
401.0250, 5909.714
402.2210, 5792.106
403.4170, 5775.000
404.6130, 5620.000
405.8080, 5534.000
407.0030, 5420.000
408.1980, 5316.000
409.3930, 5277.000
410.5880, 5378.000
411.7830, 5297.000
412.9770, 5298.000
414.1720, 5462.000
415.3660, 5423.000
416.5600, 5431.000
417.7530, 5461.000
418.9470, 5658.000
420.1410, 5769.000
421.3340, 6064.000
422.5270, 6498.000
423.7200, 6915.000
424.9130, 7594.000
426.1060, 8470.000
427.2980, 9651.000
428.4900, 10933.00
429.6830, 12398.00
430.8750, 12646.00
432.0670, 12523.00
433.2580, 11131.00
434.4500, 9237.000
435.6410, 7461.000
436.8320, 7037.000
438.0240, 5895.000
439.2140, 5577.000
440.4050, 5490.000
441.5960, 5324.000
442.7860, 5235.000
443.9760, 5178.000
445.1670, 5241.000
446.3560, 5070.000
447.5460, 4971.000
448.7360, 5080.000
449.9250, 4982.000
451.1150, 5047.000
452.3040, 5075.000
453.4930, 5038.000
454.6810, 4978.000
455.8700, 5148.000
457.0590, 4999.895
458.2470, 5084.000
459.4350, 4909.000
460.6230, 4966.000
461.8110, 5088.000
462.9980, 5045.000
464.1860, 5056.000
465.3730, 4986.000
466.5600, 4940.000
467.7470, 4986.000
468.9340, 5072.000
470.1210, 5073.000
471.3080, 5056.000
472.4940, 5004.000
473.6800, 5007.864
474.8660, 4977.744
476.0520, 4992.000
477.2380, 4963.000
478.4230, 4973.000
479.6090, 5015.000
480.7940, 5004.000
481.9790, 5007.000
483.1640, 4972.000
484.3490, 5015.000
485.5330, 4996.000
486.7180, 5088.000
487.9020, 5250.000
489.0860, 5134.135
490.2700, 5168.132
491.4540, 4988.000
492.6370, 5057.000
493.8210, 5023.000
495.0040, 4996.000
496.1870, 4953.000
497.3700, 4949.758
498.5530, 4963.000
499.7360, 4948.000
500.9180, 4975.799
502.1000, 4990.191
503.2830, 5053.000
504.4650, 4998.000
505.6460, 5129.000
506.8280, 4976.000
508.0100, 5009.000
509.1910, 5064.000
510.3720, 5083.000
511.5530, 5060.000
512.7340, 5121.000
513.9150, 5079.000
515.0950, 4952.000
516.2760, 5036.000
517.4560, 5092.000
518.6360, 5009.000
519.8160, 5085.000
520.9950, 5117.000
522.1750, 5088.000
523.3540, 5145.000
524.5340, 5068.000
525.7130, 5081.000
526.8920, 5103.000
528.0700, 5148.000
529.2490, 5118.000
530.4270, 5118.000
531.6060, 5080.000
532.7840, 5020.000
533.9620, 5091.000
535.1390, 5135.000
536.3170, 5125.000
537.4940, 5111.000
538.6720, 5010.000
539.8490, 5117.000
541.0260, 5081.000
542.2030, 5136.000
543.3790, 5204.000
544.5560, 5122.000
545.7320, 5183.713
546.9080, 5227.000
548.0840, 5214.000
549.2600, 5197.000
550.4360, 5233.000
551.6110, 5234.034
552.7860, 5307.000
553.9620, 5279.000
555.1370, 5250.000
556.3110, 5272.000
557.4860, 5345.000
558.6610, 5330.000
559.8350, 5370.000
561.0090, 5309.000
562.1830, 5367.000
563.3570, 5372.000
564.5310, 5302.000
565.7040, 5321.000
566.8780, 5334.000
568.0510, 5331.000
569.2240, 5422.000
570.3970, 5303.000
571.5700, 5339.000
572.7420, 5376.000
573.9150, 5291.000
575.0870, 5270.000
576.2590, 5290.000
577.4310, 5212.000
578.6030, 5168.000
579.7740, 5153.389
580.9460, 5138.000
582.1170, 5101.000
583.2880, 5100.403
584.4590, 5070.393
585.6300, 5098.000
586.8010, 5049.000
587.9710, 5069.000
589.1410, 5114.000
590.3110, 5041.000
591.4810, 4984.000
592.6510, 5068.000
593.8210, 4984.000
594.9900, 5009.000
596.1600, 4979.000
597.3290, 5019.000
598.4980, 5021.000
599.6670, 5032.000
600.8350, 5054.000
602.0040, 5072.169
603.1720, 5067.024
604.3400, 5097.000
605.5080, 5045.000
606.6760, 4992.000
607.8440, 4957.000
609.0120, 5065.000
610.1790, 5067.000
611.3460, 4968.000
612.5130, 5051.000
613.6800, 5019.000
614.8470, 5019.000
616.0130, 5055.000
617.1800, 5033.000
618.3460, 5022.084
619.5120, 5002.000
620.6780, 5034.000
621.8440, 5021.606
623.0090, 5034.000
624.1750, 5034.000
625.3400, 5001.000
626.5050, 5010.000
627.6700, 5007.798
628.8350, 4980.645
629.9990, 5008.000
631.1640, 4981.000
632.3280, 4952.000
633.4920, 5046.000
634.6560, 5031.000
635.8200, 5001.000
636.9840, 4968.000
638.1470, 4937.000
639.3100, 4995.000
640.4730, 4936.000
641.6360, 4986.000
642.7990, 4880.169
643.9620, 5002.474
645.1240, 5075.755
646.2870, 5102.664
647.4490, 4944.267
648.6110, 5025.143
649.7730, 5010.129
650.9340, 4978.000
652.0960, 4882.000
653.2570, 4873.485
654.4180, 4891.000
655.5790, 4884.000
656.7400, 4876.000
657.9010, 4988.000
659.0620, 4953.000
660.2220, 4994.000
661.3820, 4943.000
662.5420, 4970.000
663.7020, 4981.000
664.8620, 4917.000
666.0210, 5051.000
667.1810, 5121.000
668.3400, 5040.000
669.4990, 5033.000
670.6580, 5007.000
671.8170, 5008.000
672.9750, 5032.000
674.1340, 5098.000
675.2920, 5042.000
676.4500, 5021.000
677.6080, 5005.000
678.7660, 4994.632
679.9230, 5090.000
681.0810, 5015.000
682.2380, 5033.293
683.3950, 5069.000
684.5520, 4989.000
685.7090, 5030.000
686.8660, 5061.000
688.0220, 4936.000
689.1780, 4931.000
690.3340, 4905.000
691.4900, 4970.000
692.6460, 4934.000
693.8020, 5027.000
694.9570, 4961.000
696.1130, 4984.000
697.2680, 5085.000
698.4230, 4894.000
699.5780, 5067.000
700.7320, 5010.000
701.8870, 5067.000
703.0410, 5114.000
704.1950, 5088.000
705.3490, 5073.000
706.5030, 5004.000
707.6570, 5048.000
708.8110, 5089.000
709.9640, 5136.543
711.1170, 5141.268
712.2700, 5245.000
713.4230, 5183.000
714.5760, 5095.000
715.7280, 5191.000
716.8810, 5125.000
718.0330, 5230.000
719.1850, 5205.000
720.3370, 5078.000
721.4890, 5154.000
722.6400, 5118.000
723.7920, 5080.000
724.9430, 5100.000
726.0940, 5148.000
727.2450, 5175.000
728.3960, 5205.000
729.5460, 5229.390
730.6970, 5280.000
731.8470, 5240.000
732.9970, 5244.000
734.1470, 5193.000
735.2970, 5165.000
736.4460, 5120.000
737.5960, 5247.000
738.7450, 5214.000
739.8940, 5197.000
741.0430, 5116.000
742.1920, 5209.000
743.3410, 5187.000
744.4890, 5122.000
745.6370, 5172.721
746.7850, 5197.328
747.9330, 5174.000
749.0810, 5274.000
750.2290, 5261.000
751.3760, 5181.000
752.5240, 5266.039
753.6710, 5532.000
754.8180, 5328.000
755.9650, 5306.000
757.1110, 5315.000
758.2580, 5671.000
759.4040, 5512.984
760.5510, 5479.000
761.6970, 5478.000
762.8420, 5406.000
763.9880, 5484.000
765.1340, 5516.000
766.2790, 5536.000
767.4240, 5564.000
768.5690, 5522.000
769.7140, 5563.000
770.8590, 5552.000
772.0030, 5553.000
773.1480, 5586.000
774.2920, 5536.000
775.4360, 5579.000
776.5800, 5515.000
777.7240, 5426.000
778.8670, 5396.000
780.0110, 5467.000
781.1540, 5454.000
782.2970, 5276.000
783.4400, 5359.000
784.5830, 5280.000
785.7250, 5301.000
786.8680, 5336.000
788.0100, 5329.000
789.1520, 5356.000
790.2940, 5381.000
791.4360, 5548.000
792.5780, 5387.000
793.7190, 5626.000
794.8600, 5614.000
796.0010, 5606.000
797.1420, 5449.000
798.2830, 5689.000
799.4240, 5810.000
800.5640, 5565.000
801.7050, 5629.000
802.8450, 5498.000
803.9850, 5594.000
805.1250, 5577.000
806.2640, 5458.897
807.4040, 5536.823
808.5430, 5565.764
809.6820, 5548.326
810.8210, 5345.590
811.9600, 5382.126
813.0990, 5322.773
814.2370, 5259.518
815.3760, 5329.732
816.5140, 5153.977
817.6520, 5222.103
818.7900, 5251.000
819.9270, 5182.475
821.0650, 5127.844
822.2020, 5231.000
823.3390, 5056.000
824.4760, 5151.000
825.6130, 5201.000
826.7500, 5188.000
827.8870, 5187.000
829.0230, 5247.000
830.1590, 5277.000
831.2950, 5273.000
832.4310, 5247.000
833.5670, 5385.000
834.7030, 5448.000
835.8380, 5364.503
836.9730, 5450.742
838.1080, 5487.968
839.2430, 5478.812
840.3780, 5284.358
841.5130, 5329.178
842.6470, 5278.131
843.7810, 5301.000
844.9150, 5295.000
846.0490, 5249.338
847.1830, 5351.757
848.3170, 5405.161
849.4500, 5412.194
850.5830, 5233.930
851.7160, 5294.939
852.8490, 5260.059
853.9820, 5291.000
855.1150, 5271.000
856.2470, 5456.000
857.3800, 5344.000
858.5120, 5393.000
859.6440, 5363.000
860.7760, 5463.000
861.9070, 5412.000
863.0390, 5482.000
864.1700, 5410.000
865.3010, 5520.000
866.4320, 5488.000
867.5630, 5411.000
868.6940, 5503.000
869.8240, 5436.000
870.9540, 5394.000
872.0850, 5369.248
873.2150, 5353.876
874.3450, 5261.000
875.4740, 5227.000
876.6040, 5214.000
877.7330, 5180.715
878.8620, 5139.863
879.9910, 5143.000
881.1200, 5052.000
882.2490, 4970.000
883.3770, 4927.000
884.5060, 4924.000
885.6340, 5000.000
886.7620, 4930.000
887.8900, 5028.000
889.0180, 4995.000
890.1450, 5029.000
891.2730, 4983.000
892.4000, 5054.000
893.5270, 4979.000
894.6540, 4972.000
895.7810, 4987.000
896.9070, 4959.000
898.0340, 5058.000
899.1600, 5065.813
900.2860, 5068.795
901.4120, 5164.000
902.5380, 5060.000
903.6630, 5114.000
904.7890, 5097.856
905.9140, 5158.000
907.0390, 5181.000
908.1640, 5056.000
909.2890, 5119.000
910.4130, 5177.000
911.5380, 5120.000
912.6620, 5237.000
913.7860, 5293.000
914.9100, 5189.000
916.0340, 5231.000
917.1580, 5200.000
918.2810, 5240.000
919.4040, 5178.000
920.5280, 5185.000
921.6510, 5256.000
922.7730, 5144.000
923.8960, 5084.000
925.0180, 5264.000
926.1410, 5336.000
927.2630, 5310.000
928.3850, 5389.000
929.5070, 5211.000
930.6280, 5340.000
931.7500, 5226.000
932.8710, 5300.000
933.9920, 5695.000
935.1130, 5552.511
936.2340, 5483.152
937.3550, 5599.000
938.4760, 5323.000
939.5960, 5372.000
940.7160, 5298.292
941.8360, 5515.000
942.9560, 5360.000
944.0760, 5357.000
945.1950, 5775.000
946.3150, 5886.000
947.4340, 5495.000
948.5530, 5389.000
949.6720, 5436.000
950.7900, 5363.000
951.9090, 5416.000
953.0270, 5402.000
954.1460, 5370.000
955.2640, 5476.000
956.3820, 5427.000
957.4990, 5467.416
958.6170, 5590.000
959.7340, 5470.000
960.8520, 5468.000
961.9690, 5384.000
963.0860, 5399.000
964.2020, 5572.000
965.3190, 5391.000
966.4350, 5498.000
967.5520, 5530.000
968.6680, 5443.000
969.7840, 5478.000
970.8990, 5597.000
972.0150, 5499.000
973.1310, 5490.000
974.2460, 5565.000
975.3610, 5520.000
976.4760, 5485.000
977.5910, 5622.000
978.7050, 5621.000
979.8200, 5560.000
980.9340, 5528.680
982.0480, 5651.720
983.1620, 5725.745
984.2760, 5753.390
985.3900, 5595.737
986.5030, 5677.347
987.6160, 5663.068
988.7300, 5644.866
989.8430, 5760.153
990.9550, 5629.432
992.0680, 5724.000
993.1810, 5763.000
994.2930, 5738.000
995.4050, 5882.000
996.5170, 5780.000
997.6290, 5764.000
998.7410, 5891.000
999.8520, 5725.000
1000.964, 5892.000
1002.075, 5832.451
1003.186, 5872.000
1004.297, 5824.000
1005.407, 5809.000
1006.518, 5875.000
1007.628, 5784.000
1008.738, 5817.000
1009.848, 5748.000
1010.958, 5870.000
1012.068, 5896.000
1013.178, 5910.000
1014.287, 5807.000
1015.396, 5832.000
1016.505, 5842.000
1017.614, 5880.000
1018.723, 5805.000
1019.831, 5886.000
1020.940, 5808.000
1022.048, 5823.000
1023.156, 5788.000
1024.264, 5700.000
1025.372, 5703.000
1026.479, 5730.000
1027.587, 5770.000
1028.694, 5755.176
1029.801, 5757.000
1030.908, 5770.000
1032.015, 5722.000
1033.121, 5789.000
1034.228, 5817.000
1035.334, 5772.000
1036.440, 5845.000
1037.546, 5741.000
1038.652, 5691.000
1039.758, 5715.000
1040.863, 5839.000
1041.968, 5822.000
1043.074, 5870.000
1044.178, 5813.000
1045.283, 5866.000
1046.388, 5885.000
1047.492, 5916.000
1048.597, 5897.000
1049.701, 5911.000
1050.805, 5836.000
1051.909, 5886.000
1053.012, 5993.000
1054.116, 5983.000
1055.219, 5914.000
1056.322, 5923.000
1057.425, 5768.151
1058.528, 5890.874
1059.631, 5964.582
1060.733, 5991.900
1061.836, 5833.930
1062.938, 5915.223
1064.040, 5900.626
1065.142, 5882.098
1066.243, 5997.058
1067.345, 5866.029
1068.446, 6019.000
1069.547, 5933.000
1070.648, 5978.000
1071.749, 6087.000
1072.850, 5963.000
1073.951, 5961.000
1075.051, 5902.000
1076.151, 5971.000
1077.251, 5969.000
1078.351, 5966.000
1079.451, 6163.000
1080.550, 5933.000
1081.650, 6096.000
1082.749, 5948.000
1083.848, 6021.000
1084.947, 5965.000
1086.046, 5978.000
1087.144, 5953.000
1088.243, 6040.000
1089.341, 5998.000
1090.439, 5943.000
1091.537, 5990.000
1092.635, 5826.203
1093.732, 5937.958
1094.830, 6000.697
1095.927, 6017.056
1097.024, 5848.118
1098.121, 5918.453
1099.218, 5892.898
1100.314, 5863.411
1101.411, 5967.422
1102.507, 5825.436
1103.603, 5871.000
1104.699, 5913.000
1105.795, 5854.000
1106.890, 5804.000
1107.986, 5845.000
1109.081, 5953.000
1110.176, 6111.000
1111.271, 5981.520
1112.366, 5905.316
1113.461, 5825.000
1114.555, 5719.000
1115.649, 5699.115
1116.744, 5745.263
1117.838, 5672.339
1118.931, 5753.000
1120.025, 5790.000
1121.119, 5809.000
1122.212, 5792.595
1123.305, 5797.222
1124.398, 5751.000
1125.491, 5740.000
1126.584, 5823.000
1127.676, 5750.000
1128.768, 5791.000
1129.861, 5881.000
1130.953, 5589.000
1132.044, 5695.000
1133.136, 5687.000
1134.228, 5694.000
1135.319, 5573.000
1136.410, 5706.000
1137.501, 5616.000
1138.592, 5668.000
1139.683, 5633.000
1140.773, 5646.000
1141.864, 5673.000
1142.954, 5673.000
1144.044, 5586.000
1145.134, 5602.167
1146.224, 5640.000
1147.313, 5570.000
1148.402, 5601.000
1149.492, 5619.000
1150.581, 5706.000
1151.670, 5597.000
1152.758, 5648.000
1153.847, 5600.000
1154.935, 5663.000
1156.024, 5639.777
1157.112, 5619.178
1158.200, 5617.000
1159.287, 5590.000
1160.375, 5580.000
1161.462, 5616.000
1162.550, 5585.123
1163.637, 5725.000
1164.724, 5599.000
1165.810, 5493.000
1166.897, 5568.000
1167.983, 5601.000
1169.070, 5470.000
1170.156, 5573.000
1171.242, 5438.000
1172.327, 5620.000
1173.413, 5516.000
1174.499, 5537.000
1175.584, 5491.000
1176.669, 5525.000
1177.754, 5468.000
1178.839, 5492.049
1179.923, 5495.119
1181.008, 5486.000
1182.092, 5556.000
1183.176, 5477.000
1184.260, 5586.000
1185.344, 5490.000
1186.428, 5389.000
1187.511, 5387.000
1188.595, 5483.000
1189.678, 5427.000
1190.761, 5509.000
1191.843, 5425.000
1192.926, 5538.000
1194.009, 5495.000
1195.091, 5679.000
1196.173, 5553.784
1197.255, 5507.000
1198.337, 5387.000
1199.419, 5411.000
1200.500, 5425.000
1201.582, 5464.000
1202.663, 5479.000
1203.744, 5490.000
1204.825, 5458.000
1205.905, 5381.000
1206.986, 5417.000
1208.066, 5420.000
1209.146, 5421.000
1210.226, 5445.000
1211.306, 5366.000
1212.386, 5346.000
1213.466, 5407.000
1214.545, 5394.000
1215.624, 5539.000
1216.703, 5465.921
1217.782, 5436.000
1218.861, 5339.000
1219.939, 5511.000
1221.018, 5395.000
1222.096, 5411.000
1223.174, 5385.000
1224.252, 5364.000
1225.330, 5389.000
1226.407, 5359.349
1227.485, 5395.000
1228.562, 5368.000
1229.639, 5374.000
1230.716, 5450.000
1231.793, 5377.000
1232.869, 5322.000
1233.946, 5415.000
1235.022, 5523.000
1236.098, 5407.000
1237.174, 5339.000
1238.250, 5384.467
1239.325, 5501.470
1240.401, 5569.463
1241.476, 5591.070
1242.551, 5427.380
1243.626, 5502.963
1244.701, 5482.656
1245.776, 5458.417
1246.850, 5314.542
1247.924, 5455.000
1248.999, 5403.000
1250.073, 5370.000
1251.146, 5517.000
1252.220, 5307.000
1253.293, 5395.000
1254.367, 5332.000
1255.440, 5459.000
1256.513, 5376.000
1257.586, 5411.000
1258.658, 5426.000
1259.731, 5385.000
1260.803, 5460.000
1261.875, 5440.000
1262.947, 5378.000
1264.019, 5381.000
1265.091, 5501.000
1266.162, 5491.000
1267.234, 5514.000
1268.305, 5492.000
1269.376, 5487.000
1270.447, 5356.000
1271.517, 5395.000
1272.588, 5483.000
1273.658, 5577.000
1274.729, 5453.000
1275.799, 5423.000
1276.868, 5406.000
1277.938, 5431.052
1279.008, 5451.000
1280.077, 5463.828
1281.146, 5484.646
1282.215, 5497.000
1283.284, 5516.000
1284.353, 5503.000
1285.421, 5512.242
1286.490, 5545.000
1287.558, 5546.000
1288.626, 5522.000
1289.694, 5556.000
1290.762, 5511.000
1291.829, 5549.000
1292.897, 5483.000
1293.964, 5490.000
1295.031, 5567.000
1296.098, 5431.000
1297.165, 5457.000
1298.231, 5485.000
1299.298, 5566.000
1300.364, 5579.000
1301.430, 5508.000
1302.496, 5506.000
1303.562, 5560.000
1304.627, 5550.000
1305.693, 5601.000
1306.758, 5552.000
1307.823, 5571.000
1308.888, 5599.470
1309.953, 5572.000
1311.018, 5636.000
1312.082, 5553.000
1313.146, 5511.000
1314.210, 5523.954
1315.274, 5564.000
1316.338, 5510.000
1317.402, 5507.000
1318.465, 5508.000
1319.529, 5517.000
1320.592, 5574.000
1321.655, 5527.000
1322.718, 5654.000
1323.780, 5642.000
1324.843, 5592.000
1325.905, 5508.000
1326.967, 5525.000
1328.029, 5454.000
1329.091, 5620.000
1330.153, 5623.000
1331.214, 5475.000
1332.275, 5661.000
1333.337, 5591.000
1334.398, 5593.000
1335.458, 5632.000
1336.519, 5560.000
1337.580, 5561.000
1338.640, 5549.000
1339.700, 5660.000
1340.760, 5494.000
1341.820, 5673.000
1342.880, 5607.000
1343.939, 5560.000
1344.999, 5543.000
1346.058, 5550.015
1347.117, 5609.000
1348.176, 5607.000
1349.235, 5644.000
1350.293, 5661.000
1351.351, 5649.000
1352.410, 5586.000
1353.468, 5573.000
1354.526, 5567.000
1355.583, 5611.000
1356.641, 5611.000
1357.698, 5730.000
1358.756, 5624.000
1359.813, 5714.000
1360.869, 5650.000
1361.926, 5606.000
1362.983, 5667.000
1364.039, 5659.000
1365.095, 5622.238
1366.152, 5653.899
1367.207, 5562.000
1368.263, 5608.000
1369.319, 5626.000
1370.374, 5493.000
1371.430, 5544.000
1372.485, 5746.000
1373.540, 5799.000
1374.594, 5727.000
1375.649, 5692.000
1376.703, 5652.000
1377.758, 5652.000
1378.812, 5710.000
1379.866, 5792.000
1380.920, 5637.000
1381.973, 5738.000
1383.027, 5792.000
1384.080, 5770.000
1385.133, 5632.000
1386.186, 5732.000
1387.239, 5701.000
1388.291, 5641.000
1389.344, 5782.000
1390.396, 5686.000
1391.448, 5717.000
1392.500, 5812.000
1393.552, 5744.000
1394.604, 5860.000
1395.655, 5764.000
1396.707, 5813.000
1397.758, 5763.000
1398.809, 5743.000
1399.860, 5703.000
1400.910, 5770.000
1401.961, 5808.000
1403.011, 5856.000
1404.061, 5813.546
1405.111, 5846.000
1406.161, 5723.000
1407.211, 5726.000
1408.260, 5743.000
1409.310, 5826.000
1410.359, 5681.000
1411.408, 5787.000
1412.457, 5798.000
1413.506, 5742.000
1414.554, 5766.000
1415.603, 5810.819
1416.651, 5882.000
1417.699, 5883.000
1418.747, 5783.000
1419.794, 5682.000
1420.842, 5923.000
1421.889, 5793.000
1422.937, 5858.389
1423.984, 5860.000
1425.031, 5857.000
1426.077, 5827.000
1427.124, 5734.000
1428.170, 5867.000
1429.217, 5823.000
1430.263, 5748.000
1431.309, 5949.000
1432.354, 5791.000
1433.400, 5931.000
1434.445, 5913.000
1435.491, 5821.000
1436.536, 5754.000
1437.581, 5812.000
1438.625, 5870.000
1439.670, 5760.000
1440.714, 5835.000
1441.759, 5888.000
1442.803, 5920.000
1443.847, 5926.349
1444.890, 5917.245
1445.934, 5899.000
1446.978, 5878.000
1448.021, 5868.000
1449.064, 5898.000
1450.107, 5822.000
1451.150, 5846.016
1452.192, 5941.000
1453.235, 5833.000
1454.277, 5891.000
1455.319, 5873.000
1456.361, 5877.000
1457.403, 5908.006
1458.445, 5898.154
1459.486, 5927.000
1460.528, 5930.000
1461.569, 5893.000
1462.610, 5949.000
1463.651, 5907.559
1464.691, 5862.000
1465.732, 5884.000
1466.772, 5918.000
1467.812, 5950.000
1468.852, 5927.428
1469.892, 5925.889
1470.932, 5894.000
1471.971, 5843.000
1473.011, 5866.000
1474.050, 5765.351
1475.089, 5852.000
1476.128, 5882.000
1477.166, 5985.000
1478.205, 6016.037
1479.243, 6015.820
1480.282, 6050.664
1481.320, 5995.806
1482.357, 5994.244
1483.395, 5919.000
1484.433, 5939.000
1485.470, 5916.000
1486.507, 5889.000
1487.544, 5937.000
1488.581, 5934.000
1489.618, 5865.000
1490.655, 5901.000
1491.691, 5966.000
1492.727, 5905.000
1493.763, 6033.000
1494.799, 5974.000
1495.835, 5798.000
1496.871, 5916.000
1497.906, 6011.000
1498.941, 6235.000
1499.976, 5982.000
1501.011, 5890.000
1502.046, 6028.000
1503.081, 5990.000
1504.115, 5965.000
1505.149, 5901.000
1506.183, 6080.000
1507.217, 5906.000
1508.251, 5878.000
1509.285, 6015.000
1510.318, 5889.000
1511.352, 5921.000
1512.385, 6037.000
1513.418, 6228.000
1514.450, 6288.000
1515.483, 6015.000
1516.516, 5994.000
1517.548, 5981.000
1518.580, 5909.000
1519.612, 5998.000
1520.644, 5906.000
1521.675, 5927.000
1522.707, 5945.000
1523.738, 5947.000
1524.769, 5976.000
1525.800, 6020.000
1526.831, 5908.000
1527.862, 5966.000
1528.892, 5928.000
1529.923, 5980.000
1530.953, 6003.000
1531.983, 6052.000
1533.013, 5921.000
1534.042, 5875.000
1535.072, 6001.000
1536.101, 5921.000
1537.131, 6003.000
1538.160, 6016.000
1539.188, 6086.000
1540.217, 6023.000
1541.246, 6069.000
1542.274, 6040.000
1543.302, 6225.000
1544.330, 6124.512
1545.358, 6158.388
1546.386, 6052.000
##END=



