##NAMES=Pyrite
##RRUFFID=R050070
##IDEAL CHEMISTRY=Fe^2+^(S_2_)^2-^
##LOCALITY=Mina San Jose de Huanzala, Minero de Huallanca District, Department de Huanuco, Peru
##OWNER=RRUFF
##SOURCE=Rock Currier
##DESCRIPTION=Brass-yellow metallic cube
##STATUS=The identification of this mineral has been confirmed by X-ray diffraction and chemical analysis
##URL=rruff.info/R050070
##MEASURED CHEMISTRY=Fe_1.00_S_2.00_
##PIN_ID=L00728
##ORIENTATION=Laser parallel to c* (0 0 1). Fiducial mark perpendicular to laser is parallel to a [1 0 0]
127.8490, 7836.000
129.0810, 8049.000
130.3130, 8103.000
131.5450, 8064.000
132.7770, 7335.000
134.0080, 7120.000
135.2390, 6954.000
136.4710, 7118.000
137.7020, 7733.000
138.9320, 7438.747
140.1630, 8095.000
141.3930, 7293.000
142.6240, 7090.000
143.8540, 7017.000
145.0840, 7062.000
146.3140, 7638.000
147.5440, 7735.000
148.7730, 7506.000
150.0020, 7414.209
151.2320, 7128.000
152.4610, 6815.000
153.6900, 7057.000
154.9180, 7224.000
156.1470, 7111.000
157.3750, 6881.311
158.6040, 6402.000
159.8320, 6302.000
161.0600, 6387.000
162.2870, 6648.000
163.5150, 6481.000
164.7420, 6147.000
165.9700, 6180.000
167.1970, 6315.000
168.4240, 6780.000
169.6510, 6424.000
170.8770, 6400.000
172.1040, 6070.000
173.3300, 5963.000
174.5560, 6012.000
175.7820, 5901.000
177.0080, 5775.000
178.2340, 5925.000
179.4590, 6235.000
180.6850, 5685.000
181.9100, 5723.000
183.1350, 5952.000
184.3600, 6404.000
185.5850, 6145.842
186.8090, 6179.596
188.0340, 5918.000
189.2580, 5901.000
190.4820, 6056.000
191.7060, 6240.000
192.9300, 6361.000
194.1530, 6499.126
195.3770, 6674.000
196.6000, 6697.000
197.8230, 6811.000
199.0460, 6825.000
200.2690, 6841.000
201.4910, 6871.000
202.7140, 6792.523
203.9360, 6793.415
205.1580, 6300.000
206.3800, 6733.000
207.6020, 5838.000
208.8240, 5770.000
210.0450, 6388.000
211.2670, 5668.000
212.4880, 5531.000
213.7090, 5372.000
214.9300, 5269.000
216.1510, 5169.000
217.3710, 5182.000
218.5920, 5180.000
219.8120, 5135.000
221.0320, 5128.000
222.2520, 5136.000
223.4720, 5091.420
224.6910, 5056.000
225.9110, 5046.000
227.1300, 5047.000
228.3490, 5063.000
229.5680, 5045.403
230.7870, 5063.616
232.0050, 5044.000
233.2240, 5054.000
234.4420, 5031.532
235.6600, 5028.000
236.8780, 4987.000
238.0960, 4972.000
239.3140, 4960.000
240.5310, 4945.943
241.7490, 4969.354
242.9660, 4947.000
244.1830, 4995.000
245.4000, 5020.000
246.6160, 4967.000
247.8330, 5114.000
249.0490, 5175.000
250.2660, 5360.000
251.4820, 5793.000
252.6980, 6660.000
253.9130, 8686.000
255.1290, 12197.00
256.3440, 15964.00
257.5600, 12399.00
258.7750, 7156.000
259.9900, 5874.000
261.2040, 5772.000
262.4190, 5834.000
263.6330, 5668.000
264.8480, 5508.000
266.0620, 5474.000
267.2760, 5459.000
268.4900, 5463.000
269.7030, 5498.000
270.9170, 5601.000
272.1300, 5577.537
273.3430, 5497.510
274.5560, 5530.000
275.7690, 5267.000
276.9820, 5099.000
278.1940, 5032.000
279.4070, 4900.000
280.6190, 4854.000
281.8310, 4823.000
283.0430, 4798.856
284.2550, 4932.000
285.4660, 4845.000
286.6770, 4954.000
287.8890, 5029.000
289.1000, 4856.000
290.3110, 4948.000
291.5210, 4951.000
292.7320, 4866.000
293.9420, 4950.000
295.1530, 4941.000
296.3630, 5017.000
297.5730, 4945.000
298.7830, 5078.000
299.9920, 5065.436
301.2020, 5133.000
302.4110, 5152.000
303.6200, 5166.230
304.8290, 5200.045
306.0380, 5155.000
307.2470, 5232.000
308.4550, 5138.000
309.6630, 5137.000
310.8720, 5097.000
312.0800, 5035.000
313.2880, 5136.000
314.4950, 5129.000
315.7030, 5177.000
316.9100, 5196.000
318.1170, 5069.000
319.3240, 5187.000
320.5310, 5192.000
321.7380, 5409.000
322.9450, 5437.000
324.1510, 5459.000
325.3570, 5682.000
326.5630, 5820.000
327.7690, 6024.000
328.9750, 6435.000
330.1810, 7112.000
331.3860, 8282.000
332.5910, 9912.000
333.7960, 12396.00
335.0010, 16212.00
336.2060, 20108.00
337.4110, 25937.00
338.6150, 35284.00
339.8200, 46370.00
341.0240, 59472.00
342.2280, 76757.00
343.4320, 85671.00
344.6350, 83514.00
345.8390, 73678.00
347.0420, 51293.00
348.2450, 27268.00
349.4480, 16618.00
350.6510, 12527.00
351.8540, 10237.00
353.0560, 8896.000
354.2590, 8024.000
355.4610, 7150.000
356.6630, 6727.000
357.8650, 6601.000
359.0670, 6652.000
360.2680, 6655.000
361.4700, 6782.000
362.6710, 6938.000
363.8720, 7285.000
365.0730, 7834.000
366.2740, 8788.000
367.4740, 10145.00
368.6750, 11859.00
369.8750, 14966.00
371.0750, 19521.00
372.2750, 24721.00
373.4750, 31879.00
374.6740, 44648.00
375.8740, 60102.00
377.0730, 78219.00
378.2720, 102975.0
379.4710, 122252.0
380.6700, 123514.0
381.8690, 110748.0
383.0670, 81334.00
384.2660, 42895.00
385.4640, 23107.00
386.6620, 15820.00
387.8600, 12329.00
389.0570, 10153.00
390.2550, 8849.000
391.4520, 7982.000
392.6490, 7507.000
393.8460, 6912.000
395.0430, 6712.000
396.2400, 6555.000
397.4370, 6295.000
398.6330, 6189.000
399.8290, 6069.000
401.0250, 5937.000
402.2210, 5895.000
403.4170, 5712.000
404.6130, 5678.000
405.8080, 5535.000
407.0030, 5648.000
408.1980, 5527.000
409.3930, 5543.000
410.5880, 5562.000
411.7830, 5624.000
412.9770, 5533.000
414.1720, 5575.000
415.3660, 5657.000
416.5600, 5594.000
417.7530, 5612.000
418.9470, 5637.000
420.1410, 5708.000
421.3340, 5698.000
422.5270, 5854.000
423.7200, 5779.000
424.9130, 6044.000
426.1060, 6050.000
427.2980, 6243.000
428.4900, 6315.000
429.6830, 6524.000
430.8750, 6483.520
432.0670, 6623.000
433.2580, 6345.000
434.4500, 6134.000
435.6410, 5944.000
436.8320, 5941.000
438.0240, 5713.000
439.2140, 5722.000
440.4050, 5584.000
441.5960, 5614.000
442.7860, 5529.000
443.9760, 5631.000
445.1670, 5616.000
446.3560, 5602.000
447.5460, 5599.000
448.7360, 5668.000
449.9250, 5621.638
451.1150, 5526.000
452.3040, 5580.000
453.4930, 5477.000
454.6810, 5452.386
455.8700, 5484.613
457.0590, 5576.000
458.2470, 5538.000
459.4350, 5640.000
460.6230, 5676.000
461.8110, 5674.000
462.9980, 5785.000
464.1860, 5720.000
465.3730, 5766.000
466.5600, 5851.000
467.7470, 5711.000
468.9340, 5703.386
470.1210, 5828.006
471.3080, 5908.532
472.4940, 5947.311
473.6800, 5819.392
474.8660, 5906.730
476.0520, 5907.803
477.2380, 5905.338
478.4230, 6042.000
479.6090, 5899.000
480.7940, 5947.000
481.9790, 6020.000
483.1640, 5939.000
484.3490, 6093.000
485.5330, 6092.000
486.7180, 6196.000
487.9020, 6248.000
489.0860, 6285.000
490.2700, 6315.000
491.4540, 6303.000
492.6370, 6302.000
493.8210, 6354.000
495.0040, 6359.000
496.1870, 6299.687
497.3700, 6427.435
498.5530, 6511.088
499.7360, 6553.016
500.9180, 6428.222
502.1000, 6518.685
503.2830, 6522.905
504.4650, 6675.000
505.6460, 6681.000
506.8280, 6700.000
508.0100, 6668.000
509.1910, 6689.000
510.3720, 6735.000
511.5530, 6704.000
512.7340, 6746.000
513.9150, 6719.000
515.0950, 6782.000
516.2760, 6801.000
517.4560, 6927.000
518.6360, 6937.000
519.8160, 7028.000
520.9950, 7083.000
522.1750, 7055.000
523.3540, 7052.000
524.5340, 7030.000
525.7130, 7215.000
526.8920, 7213.000
528.0700, 7119.000
529.2490, 7327.000
530.4270, 7316.000
531.6060, 7307.000
532.7840, 7232.000
533.9620, 7320.000
535.1390, 7168.000
536.3170, 7116.000
537.4940, 7229.000
538.6720, 7126.000
539.8490, 7110.000
541.0260, 7361.000
542.2030, 7465.000
543.3790, 7513.000
544.5560, 7480.000
545.7320, 7645.000
546.9080, 7666.000
548.0840, 7670.000
549.2600, 7720.000
550.4360, 7775.199
551.6110, 7850.204
552.7860, 7936.000
553.9620, 7998.000
555.1370, 8045.840
556.3110, 8092.000
557.4860, 8115.000
558.6610, 8145.000
559.8350, 8165.000
561.0090, 8154.000
562.1830, 8083.000
563.3570, 8140.206
564.5310, 8176.000
565.7040, 8170.000
566.8780, 8250.000
568.0510, 8190.000
569.2240, 8218.000
570.3970, 8241.000
571.5700, 8362.000
572.7420, 8302.000
573.9150, 8323.000
575.0870, 8251.000
576.2590, 7757.000
577.4310, 7574.000
578.6030, 7422.000
579.7740, 7307.000
580.9460, 7082.000
582.1170, 6920.000
583.2880, 6563.000
584.4590, 6329.000
585.6300, 6055.000
586.8010, 5818.000
587.9710, 5618.000
589.1410, 5461.000
590.3110, 5205.704
591.4810, 5226.000
592.6510, 5181.232
593.8210, 5262.758
594.9900, 5300.204
596.1600, 5295.908
597.3290, 5124.930
598.4980, 5169.208
599.6670, 5127.221
600.8350, 5081.712
602.0040, 4976.000
603.1720, 5085.000
604.3400, 5038.000
605.5080, 5024.000
606.6760, 5231.000
607.8440, 5147.962
609.0120, 5184.000
610.1790, 5123.000
611.3460, 5044.000
612.5130, 4967.000
613.6800, 5047.000
614.8470, 5078.000
616.0130, 4970.000
617.1800, 5077.678
618.3460, 5204.000
619.5120, 5127.000
620.6780, 5108.000
621.8440, 5020.000
623.0090, 5066.000
624.1750, 5040.000
625.3400, 5033.000
626.5050, 4991.000
627.6700, 4992.110
628.8350, 5021.000
629.9990, 4986.000
631.1640, 4981.000
632.3280, 4984.000
633.4920, 4944.000
634.6560, 5027.000
635.8200, 5009.000
636.9840, 4890.000
638.1470, 5011.000
639.3100, 4979.000
640.4730, 5042.000
641.6360, 4981.000
642.7990, 4971.000
643.9620, 4969.000
645.1240, 4965.579
646.2870, 5050.000
647.4490, 5010.000
648.6110, 4969.000
649.7730, 5007.000
650.9340, 5115.000
652.0960, 5020.197
653.2570, 4972.000
654.4180, 4964.000
655.5790, 4871.000
656.7400, 4974.000
657.9010, 4784.000
659.0620, 4964.000
660.2220, 5010.000
661.3820, 4982.000
662.5420, 4908.000
663.7020, 5051.000
664.8620, 4987.000
666.0210, 4992.000
667.1810, 5016.385
668.3400, 4997.160
669.4990, 4974.000
670.6580, 5039.000
671.8170, 4967.000
672.9750, 5037.000
674.1340, 5215.000
675.2920, 5422.000
676.4500, 5088.000
677.6080, 4969.000
678.7660, 5027.000
679.9230, 5142.000
681.0810, 5120.000
682.2380, 5125.353
683.3950, 5111.291
684.5520, 5025.000
685.7090, 5030.000
686.8660, 4941.000
688.0220, 4931.000
689.1780, 4957.938
690.3340, 4966.301
691.4900, 5031.000
692.6460, 5026.000
693.8020, 5046.000
694.9570, 4984.000
696.1130, 5049.000
697.2680, 4960.000
698.4230, 5033.000
699.5780, 5016.000
700.7320, 5008.000
701.8870, 5046.000
703.0410, 5117.000
704.1950, 4994.000
705.3490, 5155.000
706.5030, 5080.000
707.6570, 5079.000
708.8110, 5143.855
709.9640, 5184.000
711.1170, 5098.000
712.2700, 5323.000
713.4230, 5084.288
714.5760, 5279.000
715.7280, 5215.000
716.8810, 5081.000
718.0330, 5160.000
719.1850, 5159.000
720.3370, 5116.000
721.4890, 5094.000
722.6400, 5168.000
723.7920, 5170.000
724.9430, 5157.385
726.0940, 5281.000
727.2450, 5103.000
728.3960, 5187.000
729.5460, 5130.000
730.6970, 5170.000
731.8470, 5091.000
732.9970, 5205.000
734.1470, 5210.000
735.2970, 5123.000
736.4460, 5161.000
737.5960, 5130.000
738.7450, 5124.000
739.8940, 5155.000
741.0430, 5204.000
742.1920, 5191.540
743.3410, 5244.000
744.4890, 5190.000
745.6370, 5197.000
746.7850, 5189.000
747.9330, 5107.000
749.0810, 5112.000
750.2290, 5257.000
751.3760, 5216.000
752.5240, 5226.000
753.6710, 5266.000
754.8180, 5219.000
755.9650, 5247.000
757.1110, 5260.000
758.2580, 5264.000
759.4040, 5383.000
760.5510, 5264.000
761.6970, 5340.456
762.8420, 5466.000
763.9880, 5374.000
765.1340, 5523.000
766.2790, 5531.000
767.4240, 5495.857
768.5690, 5580.000
769.7140, 5456.000
770.8590, 5527.000
772.0030, 5560.000
773.1480, 5572.000
774.2920, 5499.000
775.4360, 5622.000
776.5800, 5545.000
777.7240, 5365.000
778.8670, 5397.000
780.0110, 5423.000
781.1540, 5381.000
782.2970, 5333.000
783.4400, 5297.000
784.5830, 5225.000
785.7250, 5301.000
786.8680, 5249.000
788.0100, 5379.000
789.1520, 5368.000
790.2940, 5413.000
791.4360, 5400.000
792.5780, 5535.000
793.7190, 5557.000
794.8600, 5536.000
796.0010, 5397.989
797.1420, 5508.113
798.2830, 5574.142
799.4240, 5598.444
800.5640, 5456.040
801.7050, 5528.901
802.8450, 5515.488
803.9850, 5498.539
805.1250, 5601.688
806.2640, 5483.522
807.4040, 5584.767
808.5430, 5575.000
809.6820, 5506.000
810.8210, 5420.000
811.9600, 5457.000
813.0990, 5344.000
814.2370, 5250.000
815.3760, 5407.000
816.5140, 5209.298
817.6520, 5316.000
818.7900, 5242.000
819.9270, 5209.000
821.0650, 5201.556
822.2020, 5210.000
823.3390, 5163.000
824.4760, 5096.000
825.6130, 5181.000
826.7500, 5241.000
827.8870, 5085.000
829.0230, 5181.000
830.1590, 5187.738
831.2950, 5214.053
832.4310, 5282.000
833.5670, 5332.000
834.7030, 5373.000
835.8380, 5389.000
836.9730, 5273.827
838.1080, 5367.031
839.2430, 5416.139
840.3780, 5423.521
841.5130, 5264.205
842.6470, 5320.152
843.7810, 5289.834
844.9150, 5255.979
846.0490, 5342.223
847.1830, 5207.159
848.3170, 5291.498
849.4500, 5288.263
850.5830, 5325.111
851.7160, 5275.162
852.8490, 5260.778
853.9820, 5163.000
855.1150, 5224.000
856.2470, 5295.000
857.3800, 5285.000
858.5120, 5367.000
859.6440, 5341.000
860.7760, 5416.624
861.9070, 5374.942
863.0390, 5515.000
864.1700, 5317.000
865.3010, 5274.000
866.4320, 5301.000
867.5630, 5390.000
868.6940, 5452.000
869.8240, 5381.000
870.9540, 5325.000
872.0850, 5392.000
873.2150, 5275.627
874.3450, 5269.000
875.4740, 5137.000
876.6040, 5092.000
877.7330, 5043.000
878.8620, 5046.000
879.9910, 5020.479
881.1200, 4993.000
882.2490, 5034.000
883.3770, 4987.000
884.5060, 5039.000
885.6340, 5050.000
886.7620, 5046.000
887.8900, 5052.000
889.0180, 5022.000
890.1450, 5069.000
891.2730, 5092.000
892.4000, 5088.000
893.5270, 4996.000
894.6540, 5099.000
895.7810, 5014.000
896.9070, 4990.000
898.0340, 5014.000
899.1600, 5032.000
900.2860, 5108.000
901.4120, 5194.000
902.5380, 5091.000
903.6630, 5132.000
904.7890, 5105.000
905.9140, 5031.000
907.0390, 5189.000
908.1640, 5235.000
909.2890, 5187.627
910.4130, 5215.095
911.5380, 5196.000
912.6620, 5185.412
913.7860, 5269.000
914.9100, 5163.000
916.0340, 5206.000
917.1580, 5184.000
918.2810, 5340.000
919.4040, 5268.321
920.5280, 5266.000
921.6510, 5191.000
922.7730, 5224.000
923.8960, 5170.000
925.0180, 5320.000
926.1410, 5311.000
927.2630, 5280.000
928.3850, 5317.000
929.5070, 5295.000
930.6280, 5297.000
931.7500, 5291.000
932.8710, 5342.000
933.9920, 5340.792
935.1130, 5392.000
936.2340, 5366.000
937.3550, 5364.916
938.4760, 5353.556
939.5960, 5309.000
940.7160, 5369.000
941.8360, 5371.000
942.9560, 5403.000
944.0760, 5374.000
945.1950, 5373.000
946.3150, 5357.000
947.4340, 5352.000
948.5530, 5362.435
949.6720, 5391.000
950.7900, 5459.000
951.9090, 5448.000
953.0270, 5646.000
954.1460, 5529.045
955.2640, 5616.000
956.3820, 5428.000
957.4990, 5432.000
958.6170, 5512.000
959.7340, 5509.000
960.8520, 5549.000
961.9690, 5506.000
963.0860, 5571.000
964.2020, 5551.000
965.3190, 5444.000
966.4350, 5509.000
967.5520, 5490.000
968.6680, 5516.000
969.7840, 5519.000
970.8990, 5519.360
972.0150, 5562.000
973.1310, 5541.000
974.2460, 5548.000
975.3610, 5590.000
976.4760, 5566.000
977.5910, 5639.000
978.7050, 5640.000
979.8200, 5604.000
980.9340, 5692.000
982.0480, 5631.000
983.1620, 5635.000
984.2760, 5655.000
985.3900, 5720.000
986.5030, 5778.000
987.6160, 5764.000
988.7300, 5683.000
989.8430, 5776.000
990.9550, 5809.902
992.0680, 5758.162
993.1810, 5942.000
994.2930, 5768.000
995.4050, 5707.000
996.5170, 5876.000
997.6290, 5778.138
998.7410, 5634.833
999.8520, 5892.000
1000.964, 5841.000
1002.075, 6049.000
1003.186, 6043.397
1004.297, 5985.083
1005.407, 6055.000
1006.518, 5841.000
1007.628, 5883.000
1008.738, 5876.000
1009.848, 5916.000
1010.958, 5861.000
1012.068, 5802.000
1013.178, 5865.000
1014.287, 5875.000
1015.396, 5877.000
1016.505, 5902.000
1017.614, 5906.000
1018.723, 5788.000
1019.831, 5869.000
1020.940, 5810.000
1022.048, 5772.000
1023.156, 5836.000
1024.264, 5710.000
1025.372, 5793.000
1026.479, 5689.000
1027.587, 5864.000
1028.694, 5818.000
1029.801, 5795.000
1030.908, 5909.000
1032.015, 5794.000
1033.121, 5842.000
1034.228, 5778.000
1035.334, 5755.000
1036.440, 5846.000
1037.546, 5865.000
1038.652, 5730.000
1039.758, 5644.000
1040.863, 5862.000
1041.968, 5805.000
1043.074, 5875.000
1044.178, 6124.000
1045.283, 5985.000
1046.388, 6171.054
1047.492, 5948.000
1048.597, 6325.000
1049.701, 5918.000
1050.805, 5879.000
1051.909, 6003.000
1053.012, 5933.000
1054.116, 5889.000
1055.219, 5842.000
1056.322, 5894.000
1057.425, 5940.000
1058.528, 6069.000
1059.631, 5930.000
1060.733, 5951.000
1061.836, 6024.000
1062.938, 5941.000
1064.040, 6083.000
1065.142, 6020.000
1066.243, 6027.000
1067.345, 6018.000
1068.446, 5977.000
1069.547, 5925.000
1070.648, 5971.000
1071.749, 5944.821
1072.850, 6033.000
1073.951, 5977.000
1075.051, 6030.781
1076.151, 6078.000
1077.251, 6012.000
1078.351, 5957.000
1079.451, 5859.000
1080.550, 5951.000
1081.650, 6034.000
1082.749, 5947.000
1083.848, 5935.000
1084.947, 6096.000
1086.046, 6020.000
1087.144, 5938.000
1088.243, 5987.000
1089.341, 5948.940
1090.439, 6024.000
1091.537, 5949.000
1092.635, 6007.000
1093.732, 5951.000
1094.830, 5961.000
1095.927, 5864.000
1097.024, 5930.000
1098.121, 5949.000
1099.218, 5917.000
1100.314, 6024.000
1101.411, 5795.000
1102.507, 5980.000
1103.603, 5850.000
1104.699, 5973.000
1105.795, 5939.960
1106.890, 6052.000
1107.986, 5890.000
1109.081, 5897.000
1110.176, 5906.000
1111.271, 5836.553
1112.366, 5871.000
1113.461, 5751.000
1114.555, 5937.000
1115.649, 5823.000
1116.744, 5919.000
1117.838, 5839.000
1118.931, 5896.000
1120.025, 5754.000
1121.119, 5850.000
1122.212, 5880.000
1123.305, 5821.000
1124.398, 5874.000
1125.491, 5800.000
1126.584, 5787.000
1127.676, 5798.000
1128.768, 5838.000
1129.861, 5786.000
1130.953, 5685.000
1132.044, 5900.000
1133.136, 5667.000
1134.228, 5731.000
1135.319, 5736.000
1136.410, 5665.484
1137.501, 5683.000
1138.592, 5682.000
1139.683, 5683.000
1140.773, 5772.000
1141.864, 5656.000
1142.954, 5759.000
1144.044, 5693.000
1145.134, 5753.000
1146.224, 5579.000
1147.313, 5668.000
1148.402, 5627.615
1149.492, 5692.000
1150.581, 5583.000
1151.670, 5639.000
1152.758, 5544.000
1153.847, 5654.000
1154.935, 5729.000
1156.024, 5747.000
1157.112, 5637.000
1158.200, 5667.000
1159.287, 5625.000
1160.375, 5672.000
1161.462, 5590.000
1162.550, 5697.000
1163.637, 5629.928
1164.724, 5634.936
1165.810, 5560.000
1166.897, 5592.000
1167.983, 5577.000
1169.070, 5503.000
1170.156, 5546.456
1171.242, 5535.000
1172.327, 5598.000
1173.413, 5541.000
1174.499, 5614.000
1175.584, 5516.000
1176.669, 5573.000
1177.754, 5533.000
1178.839, 5511.000
1179.923, 5482.000
1181.008, 5512.000
1182.092, 5511.000
1183.176, 5493.000
1184.260, 5529.000
1185.344, 5480.000
1186.428, 5471.000
1187.511, 5531.000
1188.595, 5490.000
1189.678, 5423.000
1190.761, 5521.000
1191.843, 5527.000
1192.926, 5475.000
1194.009, 5441.000
1195.091, 5451.000
1196.173, 5400.000
1197.255, 5419.440
1198.337, 5495.000
1199.419, 5463.000
1200.500, 5505.000
1201.582, 5568.000
1202.663, 5471.000
1203.744, 5487.000
1204.825, 5489.000
1205.905, 5589.000
1206.986, 5385.767
1208.066, 5484.165
1209.146, 5538.469
1210.226, 5551.047
1211.306, 5396.926
1212.386, 5458.062
1213.466, 5432.933
1214.545, 5404.269
1215.624, 5495.703
1216.703, 5365.830
1217.782, 5455.360
1218.861, 5457.309
1219.939, 5605.000
1221.018, 5540.781
1222.096, 5622.000
1223.174, 5514.000
1224.252, 5472.000
1225.330, 5483.000
1226.407, 5465.532
1227.485, 5446.971
1228.562, 5512.000
1229.639, 5456.000
1230.716, 5455.000
1231.793, 5545.000
1232.869, 5389.000
1233.946, 5396.000
1235.022, 5494.000
1236.098, 5454.000
1237.174, 5451.000
1238.250, 5510.000
1239.325, 5519.000
1240.401, 5387.735
1241.476, 5496.028
1242.551, 5560.228
1243.626, 5582.700
1244.701, 5438.474
1245.776, 5509.504
1246.850, 5494.263
1247.924, 5475.483
1248.999, 5576.811
1250.073, 5456.823
1251.146, 5556.231
1252.220, 5431.000
1253.293, 5577.000
1254.367, 5608.377
1255.440, 5537.000
1256.513, 5597.000
1257.586, 5594.859
1258.658, 5366.176
1259.731, 5439.000
1260.803, 5411.000
1261.875, 5560.000
1262.947, 5475.000
1264.019, 5439.000
1265.091, 5462.000
1266.162, 5583.000
1267.234, 5512.000
1268.305, 5504.000
1269.376, 5438.000
1270.447, 5484.000
1271.517, 5543.000
1272.588, 5438.000
1273.658, 5562.000
1274.729, 5504.443
1275.799, 5652.000
1276.868, 5484.000
1277.938, 5451.000
1279.008, 5488.000
1280.077, 5400.000
1281.146, 5404.000
1282.215, 5602.000
1283.284, 5526.000
1284.353, 5460.000
1285.421, 5495.000
1286.490, 5429.000
1287.558, 5542.000
1288.626, 5588.000
1289.694, 5558.000
1290.762, 5535.000
1291.829, 5589.000
1292.897, 5595.000
1293.964, 5592.171
1295.031, 5675.396
1296.098, 5592.000
1297.165, 5491.000
1298.231, 5491.262
1299.298, 5592.000
1300.364, 5573.000
1301.430, 5555.000
1302.496, 5689.000
1303.562, 5621.000
1304.627, 5527.000
1305.693, 5510.000
1306.758, 5543.000
1307.823, 5559.000
1308.888, 5551.000
1309.953, 5606.000
1311.018, 5611.000
1312.082, 5628.000
1313.146, 5658.000
1314.210, 5627.726
1315.274, 5648.952
1316.338, 5568.000
1317.402, 5638.000
1318.465, 5606.000
1319.529, 5565.000
1320.592, 5569.000
1321.655, 5586.000
1322.718, 5502.000
1323.780, 5594.000
1324.843, 5569.000
1325.905, 5521.000
1326.967, 5557.000
1328.029, 5697.000
1329.091, 5741.033
1330.153, 5667.022
1331.214, 5707.805
1332.275, 5681.544
1333.337, 5618.000
1334.398, 5678.000
1335.458, 5600.000
1336.519, 5658.667
1337.580, 5590.869
1338.640, 5650.000
1339.700, 5533.000
1340.760, 5526.000
1341.820, 5643.000
1342.880, 5637.442
1343.939, 5672.000
1344.999, 5715.000
1346.058, 5741.000
1347.117, 5756.199
1348.176, 5769.347
1349.235, 5745.407
1350.293, 5785.000
1351.351, 5724.000
1352.410, 5686.245
1353.468, 5785.522
1354.526, 5840.705
1355.583, 5854.162
1356.641, 5700.920
1357.698, 5762.936
1358.756, 5738.685
1359.813, 5710.898
1360.869, 5803.212
1361.926, 5674.218
1362.983, 5764.626
1364.039, 5767.454
1365.095, 5810.366
1366.152, 5766.479
1367.207, 5749.403
1368.263, 5819.152
1369.319, 5729.000
1370.374, 5739.000
1371.430, 5737.578
1372.485, 5727.509
1373.540, 5729.000
1374.594, 5741.000
1375.649, 5692.000
1376.703, 5781.000
1377.758, 5680.000
1378.812, 5778.000
1379.866, 5736.000
1380.920, 5725.000
1381.973, 5821.000
1383.027, 5760.000
1384.080, 5793.000
1385.133, 5755.000
1386.186, 5846.000
1387.239, 5642.000
1388.291, 5832.000
1389.344, 5793.000
1390.396, 5685.000
1391.448, 5841.000
1392.500, 5881.000
1393.552, 5690.000
1394.604, 5857.000
1395.655, 5834.000
1396.707, 5718.000
1397.758, 5768.000
1398.809, 5699.457
1399.860, 5800.276
1400.910, 5857.000
1401.961, 5871.999
1403.011, 5720.298
1404.061, 5783.855
1405.111, 5761.146
1406.161, 5734.900
1407.211, 5828.753
1408.260, 5701.299
1409.310, 5793.247
1410.359, 5797.613
1411.408, 5842.064
1412.457, 5799.716
1413.506, 5784.178
1414.554, 5855.465
1415.603, 5834.000
1416.651, 5786.000
1417.699, 5852.176
1418.747, 5831.000
1419.794, 5857.000
1420.842, 5910.000
1421.889, 5789.000
1422.937, 5880.000
1423.984, 5900.000
1425.031, 5909.000
1426.077, 5781.000
1427.124, 5847.000
1428.170, 5886.000
1429.217, 5767.000
1430.263, 5849.000
1431.309, 5911.000
1432.354, 5883.000
1433.400, 5968.000
1434.445, 5993.000
1435.491, 5861.000
1436.536, 5882.000
1437.581, 5980.000
1438.625, 5938.000
1439.670, 5822.000
1440.714, 5910.000
1441.759, 5920.000
1442.803, 5876.000
1443.847, 6134.000
1444.890, 5975.074
1445.934, 5943.000
1446.978, 5832.000
1448.021, 5948.000
1449.064, 5928.000
1450.107, 5973.000
1451.150, 5915.000
1452.192, 5932.000
1453.235, 5870.000
1454.277, 5895.908
1455.319, 5912.000
1456.361, 5936.000
1457.403, 5988.000
1458.445, 5998.695
1459.486, 5986.219
1460.528, 5967.704
1461.569, 5945.000
1462.610, 5883.000
1463.651, 5885.000
1464.691, 5856.000
1465.732, 5978.000
1466.772, 5988.000
1467.812, 5932.000
1468.852, 5881.000
1469.892, 6021.000
1470.932, 5949.285
1471.971, 5971.911
1473.011, 5916.000
1474.050, 5978.000
1475.089, 5904.000
1476.128, 5944.000
1477.166, 5977.000
1478.205, 5961.000
1479.243, 6032.000
1480.282, 6000.000
1481.320, 5926.000
1482.357, 5913.000
1483.395, 6025.000
1484.433, 5910.000
1485.470, 5988.000
1486.507, 6002.000
1487.544, 5995.000
1488.581, 6074.000
1489.618, 6041.000
1490.655, 5982.000
1491.691, 5959.000
1492.727, 6043.243
1493.763, 6002.690
1494.799, 5987.485
1495.835, 5988.000
1496.871, 5973.000
1497.906, 5976.226
1498.941, 6016.000
1499.976, 5989.000
1501.011, 5985.000
1502.046, 6005.000
1503.081, 6114.000
1504.115, 6074.000
1505.149, 6012.000
1506.183, 6092.000
1507.217, 6003.000
1508.251, 6004.000
1509.285, 6029.000
1510.318, 5968.000
1511.352, 6002.000
1512.385, 6047.000
1513.418, 6017.000
1514.450, 6007.000
1515.483, 6073.000
1516.516, 6071.000
1517.548, 6028.000
1518.580, 6002.000
1519.612, 5966.007
1520.644, 6068.256
1521.675, 6126.409
1522.707, 6142.837
1523.738, 5992.565
1524.769, 6057.551
1525.800, 6036.271
1526.831, 6011.453
1527.862, 6106.735
1528.892, 5980.708
1529.923, 6074.085
1530.953, 6079.879
1531.983, 6125.757
1533.013, 6088.000
1534.042, 5992.000
1535.072, 6158.000
1536.101, 5927.000
1537.131, 6036.000
1538.160, 6145.000
1539.188, 6086.000
1540.217, 6113.000
1541.246, 6114.000
1542.274, 6072.000
1543.302, 6129.000
1544.330, 6195.000
1545.358, 6183.000
1546.386, 6254.728
##END=



