##NAMES=Pyrite
##RRUFFID=R050070
##IDEAL CHEMISTRY=Fe^2+^(S_2_)^2-^
##LOCALITY=Mina San Jose de Huanzala, Minero de Huallanca District, Department de Huanuco, Peru
##OWNER=RRUFF
##SOURCE=Rock Currier
##DESCRIPTION=Brass-yellow metallic cube
##STATUS=The identification of this mineral has been confirmed by X-ray diffraction and chemical analysis
##URL=rruff.info/R050070
##MEASURED CHEMISTRY=Fe_1.00_S_2.00_
##PIN_ID=L00728
##ORIENTATION=Laser parallel to c* (0 0 1). Fiducial mark perpendicular to laser is parallel to a [1 0 0]
127.8490, 8285.000
129.0810, 8501.000
130.3130, 8654.000
131.5450, 8613.000
132.7770, 7843.000
134.0080, 7504.000
135.2390, 7420.000
136.4710, 7495.000
137.7020, 8083.000
138.9320, 7849.568
140.1630, 8583.000
141.3930, 7729.000
142.6240, 7386.000
143.8540, 7168.000
145.0840, 7447.000
146.3140, 8020.000
147.5440, 7934.000
148.7730, 7566.000
150.0020, 7116.000
151.2320, 7097.000
152.4610, 6875.000
153.6900, 7154.000
154.9180, 7394.000
156.1470, 7007.000
157.3750, 6640.000
158.6040, 6509.000
159.8320, 6652.000
161.0600, 6690.000
162.2870, 6858.000
163.5150, 6769.000
164.7420, 6436.000
165.9700, 6312.000
167.1970, 6250.000
168.4240, 6219.000
169.6510, 6334.000
170.8770, 6448.000
172.1040, 6247.000
173.3300, 6090.000
174.5560, 6082.000
175.7820, 5914.000
177.0080, 6014.000
178.2340, 5996.000
179.4590, 5862.000
180.6850, 5861.575
181.9100, 5835.025
183.1350, 5797.000
184.3600, 5835.000
185.5850, 5859.231
186.8090, 5886.274
188.0340, 5942.000
189.2580, 5963.000
190.4820, 5937.000
191.7060, 5937.000
192.9300, 6052.000
194.1530, 6102.232
195.3770, 6260.000
196.6000, 6302.000
197.8230, 6316.000
199.0460, 6374.000
200.2690, 6357.000
201.4910, 6473.000
202.7140, 6349.000
203.9360, 6218.584
205.1580, 6230.000
206.3800, 5861.000
207.6020, 5974.000
208.8240, 5939.000
210.0450, 6568.000
211.2670, 5877.000
212.4880, 5927.000
213.7090, 5471.000
214.9300, 6098.000
216.1510, 5911.000
217.3710, 6587.000
218.5920, 5297.000
219.8120, 5367.000
221.0320, 5312.000
222.2520, 5188.000
223.4720, 5937.000
224.6910, 5290.000
225.9110, 5351.000
227.1300, 5657.000
228.3490, 5332.251
229.5680, 5327.000
230.7870, 5258.000
232.0050, 5273.000
233.2240, 5283.000
234.4420, 5247.000
235.6600, 5243.706
236.8780, 5240.000
238.0960, 5206.000
239.3140, 5209.000
240.5310, 5213.000
241.7490, 5224.858
242.9660, 5235.051
244.1830, 5263.000
245.4000, 5268.000
246.6160, 5257.000
247.8330, 5281.000
249.0490, 5837.000
250.2660, 5541.000
251.4820, 5798.000
252.6980, 6561.000
253.9130, 7682.000
255.1290, 8491.000
256.3440, 8865.000
257.5600, 7913.000
258.7750, 6293.000
259.9900, 5599.000
261.2040, 5559.000
262.4190, 5440.000
263.6330, 5464.000
264.8480, 5434.000
266.0620, 5390.000
267.2760, 5359.000
268.4900, 5318.000
269.7030, 5431.000
270.9170, 5468.000
272.1300, 5570.000
273.3430, 5594.000
274.5560, 5480.000
275.7690, 5297.000
276.9820, 5206.000
278.1940, 5233.000
279.4070, 5233.000
280.6190, 5198.000
281.8310, 5257.000
283.0430, 5214.000
284.2550, 5280.000
285.4660, 5134.000
286.6770, 5173.000
287.8890, 5250.000
289.1000, 5186.000
290.3110, 5239.000
291.5210, 5250.000
292.7320, 5246.000
293.9420, 5258.000
295.1530, 5298.000
296.3630, 5269.000
297.5730, 5239.000
298.7830, 5188.000
299.9920, 5186.000
301.2020, 5288.000
302.4110, 5248.000
303.6200, 5247.000
304.8290, 5348.000
306.0380, 5200.000
307.2470, 5267.000
308.4550, 5279.000
309.6630, 5195.000
310.8720, 5231.028
312.0800, 5311.000
313.2880, 5231.000
314.4950, 5308.000
315.7030, 5289.995
316.9100, 5464.836
318.1170, 5590.664
319.3240, 5670.109
320.5310, 5564.258
321.7380, 5697.679
322.9450, 5735.211
324.1510, 5768.758
325.3570, 5935.804
326.5630, 5906.000
327.7690, 6268.000
328.9750, 6737.000
330.1810, 7499.000
331.3860, 8660.000
332.5910, 10209.00
333.7960, 12934.00
335.0010, 16756.00
336.2060, 20773.00
337.4110, 26373.00
338.6150, 36513.00
339.8200, 48898.00
341.0240, 63278.00
342.2280, 81769.00
343.4320, 93466.00
344.6350, 91426.00
345.8390, 80258.00
347.0420, 55707.00
348.2450, 28210.00
349.4480, 16100.00
350.6510, 11912.00
351.8540, 9772.000
353.0560, 8425.000
354.2590, 7684.000
355.4610, 7010.000
356.6630, 6937.000
357.8650, 6674.000
359.0670, 6700.000
360.2680, 6860.000
361.4700, 7085.000
362.6710, 7336.000
363.8720, 7836.000
365.0730, 8304.000
366.2740, 9315.000
367.4740, 10901.00
368.6750, 12945.00
369.8750, 16345.00
371.0750, 21632.00
372.2750, 27768.00
373.4750, 35851.00
374.6740, 49841.00
375.8740, 70064.00
377.0730, 92807.00
378.2720, 123563.0
379.4710, 148166.0
380.6700, 149657.0
381.8690, 134844.0
383.0670, 98316.00
384.2660, 51359.00
385.4640, 27749.00
386.6620, 19163.00
387.8600, 13961.00
389.0570, 11580.00
390.2550, 10080.00
391.4520, 9009.000
392.6490, 8364.000
393.8460, 7746.386
395.0430, 7520.583
396.2400, 7280.904
397.4370, 7029.978
398.6330, 6629.080
399.8290, 6502.531
401.0250, 6315.178
402.2210, 6158.969
403.4170, 6171.343
404.6130, 5927.000
405.8080, 5875.000
407.0030, 5892.000
408.1980, 5795.000
409.3930, 5929.000
410.5880, 6212.000
411.7830, 6244.528
412.9770, 6199.000
414.1720, 6394.000
415.3660, 6373.000
416.5600, 6103.000
417.7530, 6247.000
418.9470, 5826.000
420.1410, 5945.145
421.3340, 5910.000
422.5270, 6101.000
423.7200, 6119.000
424.9130, 6336.000
426.1060, 6610.000
427.2980, 6915.000
428.4900, 7379.000
429.6830, 7662.000
430.8750, 8007.000
432.0670, 7747.000
433.2580, 7345.000
434.4500, 6722.000
435.6410, 6166.000
436.8320, 5805.000
438.0240, 5684.000
439.2140, 5538.000
440.4050, 5482.000
441.5960, 5414.877
442.7860, 5344.000
443.9760, 5369.000
445.1670, 5330.000
446.3560, 5346.000
447.5460, 5299.000
448.7360, 5313.373
449.9250, 5369.000
451.1150, 5255.000
452.3040, 5318.000
453.4930, 5129.000
454.6810, 5265.000
455.8700, 5314.000
457.0590, 5270.000
458.2470, 5136.000
459.4350, 5218.000
460.6230, 5223.000
461.8110, 5217.000
462.9980, 5190.000
464.1860, 5280.000
465.3730, 5227.000
466.5600, 5336.000
467.7470, 5316.000
468.9340, 5313.000
470.1210, 5249.000
471.3080, 5325.000
472.4940, 5337.000
473.6800, 5317.959
474.8660, 5463.000
476.0520, 5286.000
477.2380, 5548.000
478.4230, 5521.000
479.6090, 5365.000
480.7940, 5281.000
481.9790, 5367.000
483.1640, 5348.000
484.3490, 5366.000
485.5330, 5309.000
486.7180, 5403.000
487.9020, 5300.000
489.0860, 5390.000
490.2700, 5325.000
491.4540, 5348.000
492.6370, 5479.000
493.8210, 5252.000
495.0040, 5375.000
496.1870, 5174.000
497.3700, 5222.000
498.5530, 5248.000
499.7360, 5260.000
500.9180, 5312.000
502.1000, 5311.000
503.2830, 5325.901
504.4650, 5340.556
505.6460, 5353.000
506.8280, 5348.000
508.0100, 5402.000
509.1910, 5405.000
510.3720, 5377.000
511.5530, 5409.782
512.7340, 5396.000
513.9150, 5400.000
515.0950, 5366.000
516.2760, 5302.000
517.4560, 5419.000
518.6360, 5346.000
519.8160, 5329.000
520.9950, 5396.000
522.1750, 5392.000
523.3540, 5422.000
524.5340, 5410.000
525.7130, 5378.000
526.8920, 5370.000
528.0700, 5400.000
529.2490, 5401.456
530.4270, 5443.000
531.6060, 5441.000
532.7840, 5422.000
533.9620, 5416.917
535.1390, 5365.000
536.3170, 5421.000
537.4940, 5394.000
538.6720, 5384.000
539.8490, 5317.000
541.0260, 5413.000
542.2030, 5368.000
543.3790, 5429.000
544.5560, 5446.000
545.7320, 5404.000
546.9080, 5441.000
548.0840, 5519.000
549.2600, 5395.000
550.4360, 5638.000
551.6110, 5561.000
552.7860, 5661.707
553.9620, 5948.000
555.1370, 5733.000
556.3110, 5768.000
557.4860, 5581.000
558.6610, 5642.000
559.8350, 5603.000
561.0090, 5661.000
562.1830, 5551.000
563.3570, 5643.000
564.5310, 5509.000
565.7040, 5566.000
566.8780, 5620.000
568.0510, 5589.000
569.2240, 5565.000
570.3970, 5559.000
571.5700, 5595.794
572.7420, 5582.363
573.9150, 5634.000
575.0870, 5630.000
576.2590, 5497.000
577.4310, 5579.000
578.6030, 5414.000
579.7740, 5574.000
580.9460, 5541.000
582.1170, 5394.000
583.2880, 5504.000
584.4590, 5375.000
585.6300, 5411.000
586.8010, 5428.000
587.9710, 5313.000
589.1410, 5302.000
590.3110, 5355.000
591.4810, 5357.000
592.6510, 5407.917
593.8210, 5397.841
594.9900, 5407.341
596.1600, 5373.000
597.3290, 5394.000
598.4980, 5376.000
599.6670, 5348.000
600.8350, 5313.000
602.0040, 5375.000
603.1720, 5485.000
604.3400, 5483.000
605.5080, 5452.000
606.6760, 5382.000
607.8440, 5399.000
609.0120, 5343.000
610.1790, 5423.000
611.3460, 5448.000
612.5130, 5375.000
613.6800, 5433.000
614.8470, 5415.960
616.0130, 5405.829
617.1800, 5441.000
618.3460, 5375.000
619.5120, 5410.000
620.6780, 5344.000
621.8440, 5426.000
623.0090, 5479.000
624.1750, 5383.000
625.3400, 5402.000
626.5050, 5336.000
627.6700, 5401.000
628.8350, 5374.000
629.9990, 5297.000
631.1640, 5448.000
632.3280, 5386.351
633.4920, 5400.000
634.6560, 5437.000
635.8200, 5273.000
636.9840, 5358.000
638.1470, 5242.000
639.3100, 5430.000
640.4730, 5326.942
641.6360, 5350.883
642.7990, 5276.000
643.9620, 5280.000
645.1240, 5280.699
646.2870, 5226.000
647.4490, 5292.000
648.6110, 5311.000
649.7730, 5314.000
650.9340, 5290.000
652.0960, 5330.000
653.2570, 5262.000
654.4180, 5297.150
655.5790, 5405.000
656.7400, 5264.000
657.9010, 5371.000
659.0620, 5223.000
660.2220, 5330.000
661.3820, 5361.000
662.5420, 5402.000
663.7020, 5266.000
664.8620, 5317.000
666.0210, 5352.000
667.1810, 5474.000
668.3400, 5348.000
669.4990, 5254.000
670.6580, 5471.000
671.8170, 5459.000
672.9750, 5352.000
674.1340, 5354.000
675.2920, 5348.000
676.4500, 5415.000
677.6080, 5375.000
678.7660, 5411.000
679.9230, 5521.000
681.0810, 5487.000
682.2380, 5420.000
683.3950, 5403.000
684.5520, 5345.000
685.7090, 5237.000
686.8660, 5232.000
688.0220, 5216.000
689.1780, 5195.798
690.3340, 5247.843
691.4900, 5232.000
692.6460, 5314.000
693.8020, 5381.000
694.9570, 5319.292
696.1130, 5344.000
697.2680, 5356.000
698.4230, 5307.000
699.5780, 5345.000
700.7320, 5329.414
701.8870, 5355.000
703.0410, 5321.000
704.1950, 5338.000
705.3490, 5315.000
706.5030, 5326.099
707.6570, 5331.693
708.8110, 5366.000
709.9640, 5371.000
711.1170, 5422.000
712.2700, 5493.000
713.4230, 5511.695
714.5760, 5521.000
715.7280, 5594.000
716.8810, 5531.000
718.0330, 5580.000
719.1850, 5413.000
720.3370, 5526.000
721.4890, 5439.000
722.6400, 5442.000
723.7920, 5442.000
724.9430, 5470.000
726.0940, 5469.000
727.2450, 5482.000
728.3960, 5507.246
729.5460, 5555.000
730.6970, 5536.000
731.8470, 5515.000
732.9970, 5484.000
734.1470, 5535.000
735.2970, 5531.000
736.4460, 5501.000
737.5960, 5447.000
738.7450, 5458.000
739.8940, 5450.523
741.0430, 5594.000
742.1920, 5491.000
743.3410, 5506.000
744.4890, 5551.000
745.6370, 5425.000
746.7850, 5579.000
747.9330, 5519.000
749.0810, 5628.000
750.2290, 5543.000
751.3760, 5573.000
752.5240, 5562.000
753.6710, 5579.000
754.8180, 5530.000
755.9650, 5593.000
757.1110, 5482.944
758.2580, 5632.090
759.4040, 5732.188
760.5510, 5785.940
761.6970, 5654.361
762.8420, 5762.021
763.9880, 5773.824
765.1340, 5781.696
766.2790, 5923.034
767.4240, 5818.375
768.5690, 5965.000
769.7140, 5949.000
770.8590, 5919.000
772.0030, 5940.291
773.1480, 5975.000
774.2920, 5909.000
775.4360, 5898.000
776.5800, 5733.308
777.7240, 5785.084
778.8670, 5787.897
780.0110, 5744.278
781.1540, 5515.413
782.2970, 5525.821
783.4400, 5370.927
784.5830, 5551.073
785.7250, 5682.140
786.8680, 5766.884
788.0100, 5666.271
789.1520, 5706.000
790.2940, 5730.000
791.4360, 6018.000
792.5780, 5910.888
793.7190, 5893.000
794.8600, 5903.000
796.0010, 5777.000
797.1420, 5814.000
798.2830, 5806.000
799.4240, 5861.000
800.5640, 5938.000
801.7050, 5940.000
802.8450, 5964.964
803.9850, 5932.000
805.1250, 5944.000
806.2640, 5834.250
807.4040, 5911.095
808.5430, 5938.957
809.6820, 5920.439
810.8210, 5716.625
811.9600, 5752.082
813.0990, 5691.650
814.2370, 5627.318
815.3760, 5696.454
816.5140, 5564.000
817.6520, 5531.000
818.7900, 5426.000
819.9270, 5419.413
821.0650, 5392.982
822.2020, 5393.000
823.3390, 5389.000
824.4760, 5397.000
825.6130, 5404.916
826.7500, 5513.000
827.8870, 5509.000
829.0230, 5509.000
830.1590, 5604.000
831.2950, 5612.000
832.4310, 5753.000
833.5670, 5719.000
834.7030, 5624.000
835.8380, 5703.000
836.9730, 5799.000
838.1080, 5727.526
839.2430, 5731.947
840.3780, 5656.000
841.5130, 5637.000
842.6470, 5561.000
843.7810, 5581.000
844.9150, 5552.050
846.0490, 5524.910
847.1830, 5539.000
848.3170, 5518.000
849.4500, 5510.000
850.5830, 5575.000
851.7160, 5568.000
852.8490, 5658.000
853.9820, 5607.000
855.1150, 5560.000
856.2470, 5628.000
857.3800, 5599.000
858.5120, 5618.758
859.6440, 5699.000
860.7760, 5632.000
861.9070, 5683.000
863.0390, 5652.000
864.1700, 5704.000
865.3010, 5735.000
866.4320, 5730.000
867.5630, 5729.000
868.6940, 5778.000
869.8240, 5695.000
870.9540, 5580.452
872.0850, 5656.617
873.2150, 5683.800
874.3450, 5664.604
875.4740, 5460.140
876.6040, 5494.917
877.7330, 5433.838
878.8620, 5368.825
879.9910, 5437.310
881.1200, 5259.798
882.2490, 5326.165
883.3770, 5295.212
884.5060, 5277.000
885.6340, 5293.000
886.7620, 5289.917
887.8900, 5273.975
889.0180, 5211.000
890.1450, 5289.000
891.2730, 5236.000
892.4000, 5350.000
893.5270, 5312.000
894.6540, 5221.000
895.7810, 5243.000
896.9070, 5264.000
898.0340, 5322.000
899.1600, 5303.000
900.2860, 5409.000
901.4120, 5323.000
902.5380, 5283.000
903.6630, 5405.000
904.7890, 5329.000
905.9140, 5352.000
907.0390, 5523.000
908.1640, 5398.000
909.2890, 5375.000
910.4130, 5433.000
911.5380, 5375.000
912.6620, 5426.866
913.7860, 5392.000
914.9100, 5442.000
916.0340, 5461.000
917.1580, 5250.577
918.2810, 5381.512
919.4040, 5463.432
920.5280, 5498.988
921.6510, 5349.230
922.7730, 5438.728
923.8960, 5432.353
925.0180, 5422.029
926.1410, 5545.220
927.2630, 5422.396
928.3850, 5545.000
929.5070, 5559.000
930.6280, 5467.458
931.7500, 5577.401
932.8710, 5638.331
933.9920, 5652.880
935.1130, 5482.132
936.2340, 5550.657
937.3550, 5523.293
938.4760, 5491.996
939.5960, 5596.000
940.7160, 5628.000
941.8360, 5575.000
942.9560, 5685.000
944.0760, 5630.000
945.1950, 5672.000
946.3150, 5650.000
947.4340, 5574.000
948.5530, 5613.000
949.6720, 5640.000
950.7900, 5665.000
951.9090, 5713.000
953.0270, 5614.000
954.1460, 5629.000
955.2640, 5654.000
956.3820, 5677.000
957.4990, 5713.998
958.6170, 5738.000
959.7340, 5753.000
960.8520, 5771.000
961.9690, 5696.000
963.0860, 5833.000
964.2020, 5725.000
965.3190, 5686.000
966.4350, 5754.000
967.5520, 5658.000
968.6680, 5825.000
969.7840, 5808.000
970.8990, 5699.000
972.0150, 5766.000
973.1310, 5761.000
974.2460, 5726.000
975.3610, 5862.000
976.4760, 5829.266
977.5910, 5885.000
978.7050, 5868.000
979.8200, 5876.000
980.9340, 5888.000
982.0480, 5867.000
983.1620, 5880.985
984.2760, 5918.000
985.3900, 5901.000
986.5030, 5958.000
987.6160, 6001.000
988.7300, 6090.000
989.8430, 5941.000
990.9550, 5976.000
992.0680, 6008.000
993.1810, 5912.000
994.2930, 6081.000
995.4050, 6024.000
996.5170, 5979.000
997.6290, 5982.000
998.7410, 5991.000
999.8520, 5936.028
1000.964, 6050.844
1002.075, 6116.643
1003.186, 6136.060
1004.297, 5970.180
1005.407, 6043.570
1006.518, 6021.074
1007.628, 5994.642
1008.738, 6101.709
1009.848, 5962.778
1010.958, 6067.728
1012.068, 6075.325
1013.178, 6127.478
1014.287, 6083.146
1015.396, 6068.615
1016.505, 6150.596
1017.614, 6160.000
1018.723, 6092.000
1019.831, 6076.000
1020.940, 6097.000
1022.048, 6066.000
1023.156, 6074.915
1024.264, 6052.858
1025.372, 6059.000
1026.479, 6025.000
1027.587, 5978.000
1028.694, 6003.000
1029.801, 6054.000
1030.908, 6082.000
1032.015, 6048.886
1033.121, 6070.000
1034.228, 6028.000
1035.334, 5954.000
1036.440, 5991.896
1037.546, 6106.598
1038.652, 6172.285
1039.758, 6191.590
1040.863, 6025.595
1041.968, 6098.873
1043.074, 6076.263
1044.178, 6049.716
1045.283, 6137.000
1046.388, 6201.000
1047.492, 6138.000
1048.597, 6100.000
1049.701, 5996.000
1050.805, 6213.000
1051.909, 6165.000
1053.012, 6150.000
1054.116, 6149.000
1055.219, 6139.000
1056.322, 6135.000
1057.425, 6225.000
1058.528, 6246.000
1059.631, 6264.000
1060.733, 6232.000
1061.836, 6216.000
1062.938, 6275.000
1064.040, 6345.000
1065.142, 6286.000
1066.243, 6378.000
1067.345, 6276.000
1068.446, 6291.000
1069.547, 6271.000
1070.648, 6258.000
1071.749, 6325.000
1072.850, 6227.000
1073.951, 6321.000
1075.051, 6288.202
1076.151, 6227.000
1077.251, 6252.000
1078.351, 6282.000
1079.451, 6226.000
1080.550, 6237.000
1081.650, 6231.419
1082.749, 6300.000
1083.848, 6227.000
1084.947, 6242.000
1086.046, 6245.000
1087.144, 6220.141
1088.243, 6217.331
1089.341, 6213.000
1090.439, 6201.000
1091.537, 6203.000
1092.635, 6154.959
1093.732, 6263.455
1094.830, 6322.933
1095.927, 6336.033
1097.024, 6163.836
1098.121, 6230.913
1099.218, 6202.100
1100.314, 6169.358
1101.411, 6156.000
1102.507, 6176.000
1103.603, 6152.487
1104.699, 6227.000
1105.795, 6066.000
1106.890, 6155.000
1107.986, 6150.000
1109.081, 6040.000
1110.176, 6071.000
1111.271, 6083.000
1112.366, 6081.000
1113.461, 6124.000
1114.555, 6106.000
1115.649, 6047.000
1116.744, 6147.000
1117.838, 6025.000
1118.931, 6076.000
1120.025, 6009.000
1121.119, 6002.000
1122.212, 6116.000
1123.305, 6042.000
1124.398, 6056.000
1125.491, 6134.000
1126.584, 6009.000
1127.676, 6068.000
1128.768, 5970.000
1129.861, 5985.000
1130.953, 5999.000
1132.044, 6020.000
1133.136, 5918.000
1134.228, 5899.000
1135.319, 5998.000
1136.410, 6017.000
1137.501, 5907.000
1138.592, 5793.000
1139.683, 5925.000
1140.773, 5957.000
1141.864, 6021.000
1142.954, 5973.000
1144.044, 5750.396
1145.134, 5866.380
1146.224, 5933.349
1147.313, 5953.934
1148.402, 5789.221
1149.492, 5863.784
1150.581, 5842.455
1151.670, 5817.192
1152.758, 5888.000
1153.847, 5893.000
1154.935, 5933.000
1156.024, 5882.673
1157.112, 5984.000
1158.200, 5814.000
1159.287, 5798.000
1160.375, 5745.000
1161.462, 5857.000
1162.550, 5823.000
1163.637, 5857.000
1164.724, 5864.000
1165.810, 5749.861
1166.897, 5846.918
1167.983, 5894.972
1169.070, 5896.633
1170.156, 5713.008
1171.242, 5768.657
1172.327, 5728.427
1173.413, 5728.000
1174.499, 5756.000
1175.584, 5833.000
1176.669, 5758.000
1177.754, 5788.000
1178.839, 5729.000
1179.923, 5692.000
1181.008, 5695.000
1182.092, 5799.000
1183.176, 5759.213
1184.260, 5692.000
1185.344, 5814.000
1186.428, 5664.000
1187.511, 5772.000
1188.595, 5763.000
1189.678, 5662.000
1190.761, 5594.000
1191.843, 5775.000
1192.926, 5643.000
1194.009, 5637.000
1195.091, 5762.000
1196.173, 5647.000
1197.255, 5667.000
1198.337, 5748.000
1199.419, 5670.000
1200.500, 5669.000
1201.582, 5669.000
1202.663, 5715.000
1203.744, 5794.000
1204.825, 5679.000
1205.905, 5682.000
1206.986, 5599.000
1208.066, 5749.000
1209.146, 5612.000
1210.226, 5718.000
1211.306, 5760.000
1212.386, 5630.000
1213.466, 5582.000
1214.545, 5665.000
1215.624, 5639.000
1216.703, 5737.000
1217.782, 5714.902
1218.861, 5715.000
1219.939, 5686.000
1221.018, 5659.000
1222.096, 5633.000
1223.174, 5653.000
1224.252, 5726.000
1225.330, 5673.000
1226.407, 5654.000
1227.485, 5717.000
1228.562, 5698.000
1229.639, 5704.000
1230.716, 5732.979
1231.793, 5749.005
1232.869, 5745.464
1233.946, 5738.919
1235.022, 5732.656
1236.098, 5718.579
1237.174, 5706.000
1238.250, 5685.000
1239.325, 5675.000
1240.401, 5655.000
1241.476, 5666.000
1242.551, 5743.000
1243.626, 5749.000
1244.701, 5668.000
1245.776, 5685.000
1246.850, 5807.000
1247.924, 5682.000
1248.999, 5733.000
1250.073, 5739.000
1251.146, 5673.000
1252.220, 5695.000
1253.293, 5602.649
1254.367, 5716.146
1255.440, 5780.627
1256.513, 5798.727
1257.586, 5631.530
1258.658, 5703.604
1259.731, 5679.789
1260.803, 5652.041
1261.875, 5757.791
1262.947, 5753.980
1264.019, 5767.513
1265.091, 5771.000
1266.162, 5773.000
1267.234, 5784.000
1268.305, 5673.000
1269.376, 5736.000
1270.447, 5748.098
1271.517, 5709.981
1272.588, 5835.000
1273.658, 5704.000
1274.729, 5698.000
1275.799, 5733.000
1276.868, 5754.000
1277.938, 5627.550
1279.008, 5744.448
1280.077, 5812.327
1281.146, 5833.824
1282.215, 5670.024
1283.284, 5745.498
1284.353, 5725.082
1285.421, 5700.729
1286.490, 5809.878
1287.558, 5673.025
1288.626, 5780.054
1289.694, 5789.729
1290.762, 5843.960
1291.829, 5812.000
1292.897, 5799.000
1293.964, 5827.000
1295.031, 5839.078
1296.098, 5784.000
1297.165, 5819.000
1298.231, 5885.000
1299.298, 5792.000
1300.364, 5942.000
1301.430, 5743.000
1302.496, 5933.000
1303.562, 5909.127
1304.627, 5970.000
1305.693, 5921.000
1306.758, 5883.000
1307.823, 5798.000
1308.888, 5741.000
1309.953, 5743.401
1311.018, 5812.000
1312.082, 5763.000
1313.146, 5797.000
1314.210, 5816.000
1315.274, 5734.000
1316.338, 5867.000
1317.402, 5911.000
1318.465, 5918.000
1319.529, 5799.000
1320.592, 5830.000
1321.655, 5855.000
1322.718, 5768.000
1323.780, 5871.000
1324.843, 5865.000
1325.905, 5787.000
1326.967, 5837.000
1328.029, 5850.000
1329.091, 5845.000
1330.153, 5833.000
1331.214, 5834.000
1332.275, 5810.000
1333.337, 5792.000
1334.398, 5874.000
1335.458, 5934.000
1336.519, 5850.000
1337.580, 5881.000
1338.640, 5809.000
1339.700, 5848.000
1340.760, 5877.000
1341.820, 5808.000
1342.880, 5888.000
1343.939, 5974.000
1344.999, 5933.000
1346.058, 5896.000
1347.117, 5955.000
1348.176, 5958.000
1349.235, 5948.000
1350.293, 5979.393
1351.351, 5926.000
1352.410, 5977.000
1353.468, 5984.000
1354.526, 5928.000
1355.583, 5902.000
1356.641, 5865.000
1357.698, 5959.000
1358.756, 5889.000
1359.813, 5890.000
1360.869, 5979.000
1361.926, 5961.000
1362.983, 5981.000
1364.039, 5915.000
1365.095, 6000.000
1366.152, 5984.700
1367.207, 5966.957
1368.263, 6005.000
1369.319, 5939.000
1370.374, 5907.000
1371.430, 5907.000
1372.485, 5875.000
1373.540, 6261.000
1374.594, 6084.529
1375.649, 6105.000
1376.703, 5992.000
1377.758, 5895.000
1378.812, 5864.000
1379.866, 5992.000
1380.920, 5926.000
1381.973, 5972.000
1383.027, 6102.000
1384.080, 5935.000
1385.133, 5982.000
1386.186, 6007.000
1387.239, 5871.000
1388.291, 6045.000
1389.344, 6024.000
1390.396, 5937.000
1391.448, 5966.000
1392.500, 6005.000
1393.552, 5961.000
1394.604, 6026.000
1395.655, 6017.000
1396.707, 5971.000
1397.758, 5973.000
1398.809, 6034.000
1399.860, 6026.000
1400.910, 6048.563
1401.961, 6128.000
1403.011, 6074.000
1404.061, 6108.000
1405.111, 6126.375
1406.161, 6126.745
1407.211, 6067.000
1408.260, 6145.000
1409.310, 6070.000
1410.359, 6026.000
1411.408, 6093.000
1412.457, 6090.000
1413.506, 6065.000
1414.554, 6048.000
1415.603, 6035.000
1416.651, 5904.000
1417.699, 6108.000
1418.747, 6117.000
1419.794, 5955.000
1420.842, 6084.000
1421.889, 5973.000
1422.937, 6034.000
1423.984, 6032.000
1425.031, 6026.000
1426.077, 6087.000
1427.124, 6015.000
1428.170, 6064.000
1429.217, 6130.000
1430.263, 6095.000
1431.309, 6121.000
1432.354, 6112.000
1433.400, 6054.000
1434.445, 6176.000
1435.491, 6107.000
1436.536, 6161.000
1437.581, 6170.000
1438.625, 6134.000
1439.670, 6127.000
1440.714, 6136.000
1441.759, 6099.000
1442.803, 6084.000
1443.847, 6106.914
1444.890, 6100.050
1445.934, 6131.000
1446.978, 6133.000
1448.021, 6095.000
1449.064, 6111.000
1450.107, 6056.000
1451.150, 6208.000
1452.192, 6058.000
1453.235, 6186.000
1454.277, 6182.000
1455.319, 6092.000
1456.361, 6183.408
1457.403, 6136.660
1458.445, 6228.000
1459.486, 6081.551
1460.528, 6184.227
1461.569, 6237.897
1462.610, 6245.186
1463.651, 6067.178
1464.691, 6128.451
1465.732, 6093.826
1466.772, 6055.278
1467.812, 6150.228
1468.852, 5999.180
1469.892, 6092.014
1470.932, 6087.493
1471.971, 6127.539
1473.011, 6071.093
1474.050, 6044.456
1475.089, 6022.000
1476.128, 6013.000
1477.166, 6112.000
1478.205, 6149.000
1479.243, 6104.000
1480.282, 6172.000
1481.320, 6130.237
1482.357, 6113.998
1483.395, 6123.000
1484.433, 6073.000
1485.470, 6143.310
1486.507, 6252.101
1487.544, 6311.877
1488.581, 6325.272
1489.618, 6153.371
1490.655, 6220.743
1491.691, 6192.228
1492.727, 6159.781
1493.763, 6260.833
1494.799, 6115.886
1495.835, 6214.820
1496.871, 6216.402
1497.906, 6124.000
1498.941, 6115.430
1499.976, 6140.000
1501.011, 6113.000
1502.046, 6179.000
1503.081, 6173.000
1504.115, 6186.000
1505.149, 6219.000
1506.183, 6192.000
1507.217, 6063.000
1508.251, 6116.000
1509.285, 6335.000
1510.318, 6183.000
1511.352, 6174.000
1512.385, 6216.000
1513.418, 6104.000
1514.450, 6114.879
1515.483, 6217.485
1516.516, 6271.078
1517.548, 6278.298
1518.580, 6100.222
1519.612, 6161.417
1520.644, 6126.723
1521.675, 6088.106
1522.707, 6182.979
1523.738, 6031.862
1524.769, 6248.000
1525.800, 6218.000
1526.831, 6192.000
1527.862, 6284.000
1528.892, 6280.000
1529.923, 6266.000
1530.953, 6299.000
1531.983, 6289.000
1533.013, 6202.000
1534.042, 6195.000
1535.072, 6235.000
1536.101, 6177.000
1537.131, 6325.000
1538.160, 6256.278
1539.188, 6137.000
1540.217, 6246.000
1541.246, 6274.000
1542.274, 6365.000
1543.302, 6246.000
1544.330, 6272.000
1545.358, 6280.000
1546.386, 6373.000
##END=



