##NAMES=Pyrite
##RRUFFID=R050070
##IDEAL CHEMISTRY=Fe^2+^(S_2_)^2-^
##LOCALITY=Mina San Jose de Huanzala, Minero de Huallanca District, Department de Huanuco, Peru
##OWNER=RRUFF
##SOURCE=Rock Currier
##DESCRIPTION=Brass-yellow metallic cube
##STATUS=The identification of this mineral has been confirmed by X-ray diffraction and chemical analysis
##URL=rruff.info/R050070
##MEASURED CHEMISTRY=Fe_1.00_S_2.00_
##PIN_ID=L00728
##ORIENTATION=Laser parallel to c* (0 0 1). Fiducial mark perpendicular to laser is parallel to a [1 0 0]
127.8490, 8675.000
129.0810, 9010.000
130.3130, 9095.000
131.5450, 8947.000
132.7770, 8474.000
134.0080, 8607.000
135.2390, 9305.000
136.4710, 8026.000
137.7020, 8558.000
138.9320, 9538.000
140.1630, 9208.000
141.3930, 8358.000
142.6240, 8052.000
143.8540, 7937.000
145.0840, 8065.000
146.3140, 8572.000
147.5440, 8901.000
148.7730, 8622.000
150.0020, 8148.000
151.2320, 7576.000
152.4610, 7392.000
153.6900, 7592.000
154.9180, 7971.000
156.1470, 7515.000
157.3750, 7328.000
158.6040, 7111.000
159.8320, 7320.000
161.0600, 7409.000
162.2870, 7551.000
163.5150, 7533.000
164.7420, 7107.000
165.9700, 6936.000
167.1970, 6984.000
168.4240, 6928.950
169.6510, 6890.142
170.8770, 6864.941
172.1040, 6826.000
173.3300, 6734.000
174.5560, 6622.000
175.7820, 6586.802
177.0080, 6516.285
178.2340, 6487.000
179.4590, 6413.000
180.6850, 6375.000
181.9100, 6289.000
183.1350, 6324.000
184.3600, 6298.000
185.5850, 6456.000
186.8090, 6488.000
188.0340, 6439.000
189.2580, 6358.000
190.4820, 6458.000
191.7060, 6595.000
192.9300, 6702.000
194.1530, 6827.000
195.3770, 6920.000
196.6000, 6960.000
197.8230, 7008.793
199.0460, 7075.860
200.2690, 6943.000
201.4910, 7147.000
202.7140, 6934.000
203.9360, 6859.000
205.1580, 6623.000
206.3800, 6548.000
207.6020, 6458.000
208.8240, 6596.000
210.0450, 6380.540
211.2670, 6398.000
212.4880, 6136.000
213.7090, 5823.820
214.9300, 5917.052
216.1510, 5961.268
217.3710, 5959.119
218.5920, 5771.658
219.8120, 5823.485
221.0320, 5779.423
222.2520, 5731.428
223.4720, 5904.000
224.6910, 5767.000
225.9110, 5777.000
227.1300, 5803.000
228.3490, 5767.945
229.5680, 5707.430
230.7870, 5857.000
232.0050, 5829.000
233.2240, 6000.000
234.4420, 5867.903
235.6600, 5775.000
236.8780, 5671.000
238.0960, 5704.000
239.3140, 5758.000
240.5310, 5710.407
241.7490, 5760.000
242.9660, 5710.000
244.1830, 5770.000
245.4000, 5793.000
246.6160, 5740.000
247.8330, 5747.000
249.0490, 5763.000
250.2660, 6073.306
251.4820, 6527.000
252.6980, 6983.000
253.9130, 8119.000
255.1290, 8993.000
256.3440, 9714.000
257.5600, 8568.000
258.7750, 6938.000
259.9900, 6163.000
261.2040, 6027.000
262.4190, 5930.000
263.6330, 5821.000
264.8480, 5791.984
266.0620, 5764.089
267.2760, 5809.000
268.4900, 5789.000
269.7030, 5884.000
270.9170, 5923.000
272.1300, 6121.000
273.3430, 6062.000
274.5560, 5955.000
275.7690, 5794.000
276.9820, 5736.000
278.1940, 5671.000
279.4070, 5549.000
280.6190, 5643.000
281.8310, 5589.000
283.0430, 5672.000
284.2550, 5595.000
285.4660, 5618.777
286.6770, 5669.000
287.8890, 5600.000
289.1000, 5615.000
290.3110, 5554.688
291.5210, 5576.551
292.7320, 5645.000
293.9420, 5680.000
295.1530, 5628.000
296.3630, 5797.000
297.5730, 5637.000
298.7830, 5752.000
299.9920, 5679.000
301.2020, 5598.000
302.4110, 5682.000
303.6200, 5720.000
304.8290, 5695.000
306.0380, 5747.735
307.2470, 5800.000
308.4550, 5756.000
309.6630, 5746.000
310.8720, 5697.298
312.0800, 5638.000
313.2880, 5692.000
314.4950, 5723.000
315.7030, 5821.000
316.9100, 5725.000
318.1170, 5727.000
319.3240, 5783.000
320.5310, 5800.000
321.7380, 5745.000
322.9450, 5946.000
324.1510, 5934.000
325.3570, 5986.000
326.5630, 6230.000
327.7690, 6393.000
328.9750, 6596.000
330.1810, 7100.000
331.3860, 7824.000
332.5910, 8907.000
333.7960, 10553.00
335.0010, 12652.00
336.2060, 15081.00
337.4110, 18641.00
338.6150, 24958.00
339.8200, 33960.00
341.0240, 43733.00
342.2280, 57308.00
343.4320, 66754.00
344.6350, 66404.00
345.8390, 59213.00
347.0420, 43094.00
348.2450, 23706.00
349.4480, 14781.00
350.6510, 11670.00
351.8540, 10679.00
353.0560, 9353.000
354.2590, 8233.000
355.4610, 7338.000
356.6630, 7044.000
357.8650, 6997.000
359.0670, 7000.000
360.2680, 7221.000
361.4700, 7339.000
362.6710, 7628.000
363.8720, 8159.000
365.0730, 8673.000
366.2740, 9714.000
367.4740, 11096.00
368.6750, 13186.00
369.8750, 16631.00
371.0750, 20570.00
372.2750, 28595.00
373.4750, 32660.00
374.6740, 46123.00
375.8740, 66660.00
377.0730, 90270.00
378.2720, 122673.0
379.4710, 149849.0
380.6700, 154187.0
381.8690, 139840.0
383.0670, 107840.0
384.2660, 55294.00
385.4640, 29083.00
386.6620, 19433.00
387.8600, 14705.00
389.0570, 12088.00
390.2550, 10361.96
391.4520, 9532.919
392.6490, 8892.404
393.8460, 8443.043
395.0430, 7853.000
396.2400, 7481.000
397.4370, 7254.000
398.6330, 7019.000
399.8290, 7021.000
401.0250, 6754.000
402.2210, 6749.000
403.4170, 6555.000
404.6130, 6465.809
405.8080, 6394.000
407.0030, 6306.000
408.1980, 6271.000
409.3930, 6206.000
410.5880, 6195.000
411.7830, 6090.000
412.9770, 6173.000
414.1720, 6184.000
415.3660, 6301.000
416.5600, 6238.000
417.7530, 6319.000
418.9470, 6328.000
420.1410, 6414.000
421.3340, 6665.000
422.5270, 6840.000
423.7200, 7115.000
424.9130, 7631.000
426.1060, 8083.000
427.2980, 8917.000
428.4900, 9915.000
429.6830, 11256.00
430.8750, 11507.00
432.0670, 11310.00
433.2580, 10453.00
434.4500, 9483.383
435.6410, 7789.000
436.8320, 7005.000
438.0240, 6627.000
439.2140, 6429.000
440.4050, 6748.000
441.5960, 6373.253
442.7860, 6189.000
443.9760, 6098.000
445.1670, 6007.000
446.3560, 5909.000
447.5460, 6061.000
448.7360, 6004.000
449.9250, 5986.000
451.1150, 5798.000
452.3040, 5894.000
453.4930, 5918.000
454.6810, 5859.000
455.8700, 5964.000
457.0590, 5798.000
458.2470, 5941.000
459.4350, 5832.000
460.6230, 5880.000
461.8110, 5864.000
462.9980, 5937.000
464.1860, 5889.000
465.3730, 5891.000
466.5600, 5948.000
467.7470, 6011.000
468.9340, 5967.000
470.1210, 5899.000
471.3080, 5926.000
472.4940, 5780.328
473.6800, 5896.961
474.8660, 5964.580
476.0520, 5985.817
477.2380, 5821.757
478.4230, 5896.966
479.6090, 5876.289
480.7940, 5851.676
481.9790, 5960.562
483.1640, 5823.449
484.3490, 5930.217
485.5330, 5915.000
486.7180, 5934.384
487.9020, 5927.850
489.0860, 6031.000
490.2700, 5935.000
491.4540, 5931.000
492.6370, 5965.000
493.8210, 5845.000
495.0040, 5945.000
496.1870, 5893.605
497.3700, 5894.012
498.5530, 5929.000
499.7360, 5945.000
500.9180, 6095.000
502.1000, 6220.000
503.2830, 6141.340
504.4650, 6088.000
505.6460, 6045.000
506.8280, 6036.000
508.0100, 6010.611
509.1910, 6151.000
510.3720, 6027.000
511.5530, 6022.000
512.7340, 6096.000
513.9150, 6024.000
515.0950, 6030.000
516.2760, 6047.000
517.4560, 6062.000
518.6360, 6026.000
519.8160, 6092.000
520.9950, 6122.000
522.1750, 6077.000
523.3540, 6251.000
524.5340, 6234.000
525.7130, 6108.000
526.8920, 6089.000
528.0700, 6194.000
529.2490, 6183.000
530.4270, 6276.000
531.6060, 6159.000
532.7840, 6173.000
533.9620, 6178.000
535.1390, 6242.000
536.3170, 6158.000
537.4940, 6192.000
538.6720, 6053.000
539.8490, 6267.000
541.0260, 6258.000
542.2030, 6200.000
543.3790, 6289.000
544.5560, 6253.000
545.7320, 6182.000
546.9080, 6263.000
548.0840, 6364.000
549.2600, 6318.000
550.4360, 6266.000
551.6110, 6350.000
552.7860, 6277.280
553.9620, 6367.008
555.1370, 6372.000
556.3110, 6382.000
557.4860, 6470.525
558.6610, 6482.000
559.8350, 6568.272
561.0090, 6513.000
562.1830, 6449.000
563.3570, 6545.000
564.5310, 6526.000
565.7040, 6451.000
566.8780, 6427.000
568.0510, 6428.422
569.2240, 6412.000
570.3970, 6456.000
571.5700, 6474.000
572.7420, 6499.000
573.9150, 6460.000
575.0870, 6402.000
576.2590, 6436.000
577.4310, 6173.134
578.6030, 6245.328
579.7740, 6268.542
580.9460, 6245.340
582.1170, 6036.875
583.2880, 6067.681
584.4590, 6002.600
585.6300, 5933.585
586.8010, 5994.000
587.9710, 5912.000
589.1410, 6017.000
590.3110, 5860.000
591.4810, 5854.000
592.6510, 5856.000
593.8210, 5863.000
594.9900, 5922.000
596.1600, 5977.000
597.3290, 5921.000
598.4980, 5938.000
599.6670, 5928.000
600.8350, 5876.000
602.0040, 5813.000
603.1720, 5880.000
604.3400, 5871.000
605.5080, 5895.000
606.6760, 6006.000
607.8440, 5933.000
609.0120, 5934.000
610.1790, 5980.000
611.3460, 5913.000
612.5130, 5855.000
613.6800, 5879.000
614.8470, 5837.688
616.0130, 5882.000
617.1800, 5851.000
618.3460, 5878.000
619.5120, 5941.000
620.6780, 5909.149
621.8440, 5922.089
623.0090, 5912.000
624.1750, 5882.000
625.3400, 5916.000
626.5050, 5885.000
627.6700, 5919.000
628.8350, 5837.000
629.9990, 5800.000
631.1640, 5785.000
632.3280, 5903.000
633.4920, 5858.000
634.6560, 5896.870
635.8200, 6094.000
636.9840, 5856.000
638.1470, 5858.000
639.3100, 5694.000
640.4730, 5775.000
641.6360, 5828.000
642.7990, 5724.000
643.9620, 5783.000
645.1240, 5835.000
646.2870, 5821.000
647.4490, 5717.000
648.6110, 5773.000
649.7730, 5729.000
650.9340, 5790.000
652.0960, 5736.000
653.2570, 5679.000
654.4180, 5657.000
655.5790, 5757.000
656.7400, 5683.000
657.9010, 5727.000
659.0620, 5784.000
660.2220, 5723.000
661.3820, 5772.000
662.5420, 5747.000
663.7020, 5819.000
664.8620, 5827.000
666.0210, 5800.000
667.1810, 5822.982
668.3400, 5816.733
669.4990, 5803.408
670.6580, 5811.000
671.8170, 5801.000
672.9750, 5771.000
674.1340, 5866.000
675.2920, 5817.000
676.4500, 5954.000
677.6080, 5826.000
678.7660, 5892.000
679.9230, 5859.000
681.0810, 5899.000
682.2380, 5777.000
683.3950, 5771.826
684.5520, 5749.167
685.7090, 5709.000
686.8660, 5731.000
688.0220, 5770.000
689.1780, 5816.375
690.3340, 5781.478
691.4900, 5814.351
692.6460, 5668.000
693.8020, 5824.000
694.9570, 5694.000
696.1130, 5693.000
697.2680, 5707.000
698.4230, 5708.000
699.5780, 5736.637
700.7320, 5754.011
701.8870, 5795.000
703.0410, 5793.000
704.1950, 5813.000
705.3490, 5807.000
706.5030, 5813.333
707.6570, 5823.351
708.8110, 5821.000
709.9640, 5855.000
711.1170, 5868.000
712.2700, 5918.000
713.4230, 5903.000
714.5760, 5969.000
715.7280, 6025.000
716.8810, 6016.000
718.0330, 5986.000
719.1850, 5911.000
720.3370, 5952.000
721.4890, 5960.000
722.6400, 5916.000
723.7920, 5926.000
724.9430, 5889.000
726.0940, 5950.315
727.2450, 5911.686
728.3960, 5926.329
729.5460, 5908.000
730.6970, 5927.000
731.8470, 5998.000
732.9970, 5986.000
734.1470, 5992.971
735.2970, 5997.000
736.4460, 5975.000
737.5960, 5997.000
738.7450, 6014.761
739.8940, 5915.000
741.0430, 6013.000
742.1920, 5907.000
743.3410, 5928.000
744.4890, 5982.000
745.6370, 5873.000
746.7850, 5991.000
747.9330, 5989.000
749.0810, 5972.000
750.2290, 6035.000
751.3760, 5972.000
752.5240, 6059.000
753.6710, 5970.000
754.8180, 6017.000
755.9650, 6036.000
757.1110, 6127.000
758.2580, 6060.000
759.4040, 6129.000
760.5510, 6115.000
761.6970, 6145.240
762.8420, 6196.776
763.9880, 6237.000
765.1340, 6274.000
766.2790, 6345.000
767.4240, 6343.000
768.5690, 6335.000
769.7140, 6393.000
770.8590, 6415.000
772.0030, 6421.000
773.1480, 6404.000
774.2920, 6401.000
775.4360, 6380.903
776.5800, 6285.000
777.7240, 6313.000
778.8670, 6266.000
780.0110, 6183.000
781.1540, 6172.000
782.2970, 6072.000
783.4400, 6129.000
784.5830, 6052.000
785.7250, 6043.000
786.8680, 6158.000
788.0100, 6157.000
789.1520, 6136.000
790.2940, 6220.000
791.4360, 6244.000
792.5780, 6354.000
793.7190, 6269.000
794.8600, 6343.000
796.0010, 6365.000
797.1420, 6353.000
798.2830, 6423.000
799.4240, 6324.000
800.5640, 6359.000
801.7050, 6319.000
802.8450, 6359.000
803.9850, 6362.000
805.1250, 6510.000
806.2640, 6398.000
807.4040, 6434.000
808.5430, 6291.000
809.6820, 6343.000
810.8210, 6295.000
811.9600, 6219.000
813.0990, 6217.000
814.2370, 6212.000
815.3760, 6135.000
816.5140, 6095.000
817.6520, 6093.000
818.7900, 6027.000
819.9270, 6006.000
821.0650, 6034.000
822.2020, 5927.000
823.3390, 5975.000
824.4760, 5893.000
825.6130, 5933.000
826.7500, 5962.000
827.8870, 5963.000
829.0230, 6128.000
830.1590, 6059.000
831.2950, 6157.000
832.4310, 6267.000
833.5670, 6260.000
834.7030, 6206.000
835.8380, 6270.000
836.9730, 6234.000
838.1080, 6331.000
839.2430, 6184.000
840.3780, 6078.000
841.5130, 6236.000
842.6470, 6150.000
843.7810, 6243.000
844.9150, 6054.000
846.0490, 6010.000
847.1830, 6025.000
848.3170, 6267.000
849.4500, 6457.000
850.5830, 6130.000
851.7160, 6074.000
852.8490, 6075.000
853.9820, 6081.000
855.1150, 6040.000
856.2470, 6092.000
857.3800, 6095.000
858.5120, 6173.000
859.6440, 6187.000
860.7760, 6232.000
861.9070, 6162.000
863.0390, 6231.000
864.1700, 6114.000
865.3010, 6264.000
866.4320, 6250.000
867.5630, 6193.000
868.6940, 6234.576
869.8240, 6195.596
870.9540, 6198.000
872.0850, 6135.000
873.2150, 6129.000
874.3450, 6032.000
875.4740, 6154.000
876.6040, 6028.506
877.7330, 6161.000
878.8620, 5822.000
879.9910, 5930.000
881.1200, 5640.195
882.2490, 5758.739
883.3770, 5828.261
884.5060, 5851.408
885.6340, 5689.252
886.7620, 5766.369
887.8900, 5747.596
889.0180, 5724.891
890.1450, 5835.678
891.2730, 5854.000
892.4000, 5825.000
893.5270, 5766.000
894.6540, 5734.000
895.7810, 5770.000
896.9070, 5787.000
898.0340, 5823.000
899.1600, 5809.000
900.2860, 5837.000
901.4120, 5841.000
902.5380, 5849.000
903.6630, 5880.077
904.7890, 5878.204
905.9140, 5903.000
907.0390, 5911.000
908.1640, 5850.000
909.2890, 5902.000
910.4130, 5886.399
911.5380, 5975.911
912.6620, 5885.000
913.7860, 5938.000
914.9100, 5899.628
916.0340, 5954.000
917.1580, 5900.000
918.2810, 5986.000
919.4040, 5980.000
920.5280, 6043.000
921.6510, 5969.000
922.7730, 6025.000
923.8960, 5922.000
925.0180, 6013.000
926.1410, 6027.000
927.2630, 6037.000
928.3850, 5948.000
929.5070, 6083.000
930.6280, 6018.000
931.7500, 6125.000
932.8710, 6205.000
933.9920, 6021.000
935.1130, 6168.000
936.2340, 6066.000
937.3550, 6102.000
938.4760, 6039.000
939.5960, 6105.000
940.7160, 6181.000
941.8360, 6366.000
942.9560, 6195.000
944.0760, 6028.000
945.1950, 6281.000
946.3150, 6066.000
947.4340, 6154.000
948.5530, 6116.000
949.6720, 6119.000
950.7900, 6112.315
951.9090, 6120.447
953.0270, 6086.000
954.1460, 6139.000
955.2640, 6203.000
956.3820, 6175.000
957.4990, 6252.000
958.6170, 6258.000
959.7340, 6205.000
960.8520, 6227.000
961.9690, 6213.000
963.0860, 6230.000
964.2020, 6279.000
965.3190, 6244.000
966.4350, 6331.000
967.5520, 6223.000
968.6680, 6268.000
969.7840, 6324.000
970.8990, 6313.000
972.0150, 6278.000
973.1310, 6300.000
974.2460, 6278.000
975.3610, 6293.216
976.4760, 6308.000
977.5910, 6318.000
978.7050, 6355.000
979.8200, 6349.000
980.9340, 6393.110
982.0480, 6394.000
983.1620, 6465.000
984.2760, 6456.000
985.3900, 6478.733
986.5030, 6518.842
987.6160, 6428.537
988.7300, 6547.412
989.8430, 6617.266
990.9550, 6640.733
992.0680, 6478.909
993.1810, 6556.358
994.2930, 6537.911
995.4050, 6515.532
996.5170, 6626.651
997.6290, 6491.772
998.7410, 6741.000
999.8520, 6568.000
1000.964, 6614.000
1002.075, 6544.000
1003.186, 6554.000
1004.297, 6570.586
1005.407, 6718.000
1006.518, 6602.000
1007.628, 6682.000
1008.738, 6691.000
1009.848, 6648.000
1010.958, 6698.000
1012.068, 6629.000
1013.178, 6596.000
1014.287, 6721.000
1015.396, 6630.000
1016.505, 6654.000
1017.614, 6596.000
1018.723, 6654.000
1019.831, 6735.000
1020.940, 6589.000
1022.048, 6728.000
1023.156, 6542.000
1024.264, 6587.942
1025.372, 6706.000
1026.479, 6609.000
1027.587, 6612.000
1028.694, 6629.000
1029.801, 6574.000
1030.908, 6639.000
1032.015, 6699.000
1033.121, 6636.000
1034.228, 6578.000
1035.334, 6577.000
1036.440, 6635.000
1037.546, 6615.000
1038.652, 6599.000
1039.758, 6599.000
1040.863, 6723.000
1041.968, 6689.000
1043.074, 6618.000
1044.178, 6682.000
1045.283, 6576.000
1046.388, 6815.000
1047.492, 6701.000
1048.597, 6699.000
1049.701, 6759.000
1050.805, 6704.000
1051.909, 6752.000
1053.012, 6724.000
1054.116, 6748.000
1055.219, 6844.000
1056.322, 6776.000
1057.425, 6809.000
1058.528, 6759.000
1059.631, 6777.000
1060.733, 6833.000
1061.836, 6831.984
1062.938, 6886.000
1064.040, 6869.000
1065.142, 6889.000
1066.243, 6843.000
1067.345, 6898.000
1068.446, 6898.000
1069.547, 6844.000
1070.648, 6848.000
1071.749, 6850.000
1072.850, 6840.000
1073.951, 6795.000
1075.051, 6821.275
1076.151, 6818.000
1077.251, 6849.000
1078.351, 6820.000
1079.451, 6830.000
1080.550, 6852.438
1081.650, 6891.000
1082.749, 6876.000
1083.848, 6906.326
1084.947, 6869.000
1086.046, 6845.000
1087.144, 6820.000
1088.243, 6769.000
1089.341, 6823.000
1090.439, 6835.000
1091.537, 6824.000
1092.635, 6680.000
1093.732, 6770.000
1094.830, 6726.000
1095.927, 6847.000
1097.024, 6876.000
1098.121, 6799.000
1099.218, 6706.000
1100.314, 6848.000
1101.411, 6763.000
1102.507, 6759.000
1103.603, 6781.000
1104.699, 6723.000
1105.795, 6755.000
1106.890, 6730.000
1107.986, 6837.000
1109.081, 6672.000
1110.176, 6746.000
1111.271, 6795.000
1112.366, 6728.000
1113.461, 6714.000
1114.555, 6588.000
1115.649, 6724.293
1116.744, 6668.556
1117.838, 6897.000
1118.931, 6758.000
1120.025, 6628.000
1121.119, 6797.000
1122.212, 6624.000
1123.305, 6669.000
1124.398, 6668.000
1125.491, 6725.000
1126.584, 6691.000
1127.676, 6590.000
1128.768, 6652.000
1129.861, 6637.000
1130.953, 6460.000
1132.044, 6516.349
1133.136, 6529.482
1134.228, 6470.000
1135.319, 6613.000
1136.410, 6591.000
1137.501, 6506.000
1138.592, 6435.000
1139.683, 6610.000
1140.773, 6469.000
1141.864, 6536.000
1142.954, 6521.000
1144.044, 6530.000
1145.134, 6633.000
1146.224, 6583.428
1147.313, 6460.000
1148.402, 6542.000
1149.492, 6547.000
1150.581, 6500.000
1151.670, 6505.000
1152.758, 6492.000
1153.847, 6428.000
1154.935, 6726.000
1156.024, 6591.709
1157.112, 6540.000
1158.200, 6585.000
1159.287, 6445.000
1160.375, 6530.000
1161.462, 6530.000
1162.550, 6445.000
1163.637, 6494.000
1164.724, 6454.000
1165.810, 6449.000
1166.897, 6507.000
1167.983, 6467.000
1169.070, 6471.000
1170.156, 6467.000
1171.242, 6388.000
1172.327, 6441.000
1173.413, 6382.000
1174.499, 6365.661
1175.584, 6456.000
1176.669, 6334.000
1177.754, 6291.000
1178.839, 6302.253
1179.923, 6475.000
1181.008, 6378.000
1182.092, 6381.000
1183.176, 6408.000
1184.260, 6395.000
1185.344, 6397.000
1186.428, 6292.000
1187.511, 6336.000
1188.595, 6196.432
1189.678, 6310.261
1190.761, 6375.075
1191.843, 6393.506
1192.926, 6226.642
1194.009, 6299.050
1195.091, 6275.567
1196.173, 6248.152
1197.255, 6354.235
1198.337, 6214.320
1199.419, 6318.287
1200.500, 6324.898
1201.582, 6376.068
1202.663, 6330.753
1203.744, 6315.240
1204.825, 6396.238
1205.905, 6322.000
1206.986, 6372.000
1208.066, 6340.000
1209.146, 6348.000
1210.226, 6351.000
1211.306, 6361.204
1212.386, 6522.000
1213.466, 6469.000
1214.545, 6353.000
1215.624, 6532.000
1216.703, 6441.376
1217.782, 6430.099
1218.861, 6453.000
1219.939, 6389.000
1221.018, 6411.000
1222.096, 6465.000
1223.174, 6433.000
1224.252, 6380.000
1225.330, 6331.000
1226.407, 6346.486
1227.485, 6386.000
1228.562, 6378.000
1229.639, 6368.000
1230.716, 6369.000
1231.793, 6363.201
1232.869, 6385.000
1233.946, 6394.000
1235.022, 6341.000
1236.098, 6426.000
1237.174, 6347.000
1238.250, 6337.000
1239.325, 6387.000
1240.401, 6377.000
1241.476, 6440.000
1242.551, 6481.000
1243.626, 6383.000
1244.701, 6458.000
1245.776, 6332.000
1246.850, 6342.000
1247.924, 6396.000
1248.999, 6538.000
1250.073, 6466.000
1251.146, 6476.000
1252.220, 6364.000
1253.293, 6490.000
1254.367, 6330.000
1255.440, 6372.000
1256.513, 6468.000
1257.586, 6353.000
1258.658, 6441.000
1259.731, 6415.000
1260.803, 6490.000
1261.875, 6357.000
1262.947, 6442.000
1264.019, 6403.000
1265.091, 6524.000
1266.162, 6599.000
1267.234, 6472.000
1268.305, 6410.000
1269.376, 6541.000
1270.447, 6543.000
1271.517, 6522.000
1272.588, 6523.000
1273.658, 6516.000
1274.729, 6464.000
1275.799, 6392.000
1276.868, 6556.000
1277.938, 6440.000
1279.008, 6533.000
1280.077, 6515.000
1281.146, 6552.000
1282.215, 6518.000
1283.284, 6540.228
1284.353, 6500.000
1285.421, 6580.000
1286.490, 6606.000
1287.558, 6659.000
1288.626, 6678.000
1289.694, 6669.481
1290.762, 6651.000
1291.829, 6633.000
1292.897, 6580.000
1293.964, 6566.000
1295.031, 6601.000
1296.098, 6614.000
1297.165, 6648.000
1298.231, 6617.000
1299.298, 6637.000
1300.364, 6608.000
1301.430, 6634.000
1302.496, 6598.000
1303.562, 6665.000
1304.627, 6619.000
1305.693, 6667.000
1306.758, 6631.000
1307.823, 6694.000
1308.888, 6664.000
1309.953, 6721.000
1311.018, 6600.000
1312.082, 6673.000
1313.146, 6611.000
1314.210, 6618.000
1315.274, 6659.836
1316.338, 6628.527
1317.402, 6655.439
1318.465, 6765.980
1319.529, 6827.504
1320.592, 6842.650
1321.655, 6672.498
1322.718, 6741.619
1323.780, 6714.851
1324.843, 6684.150
1325.905, 6786.950
1326.967, 6643.750
1328.029, 6744.432
1329.091, 6747.761
1330.153, 6795.646
1331.214, 6747.051
1332.275, 6728.255
1333.337, 6763.000
1334.398, 6737.000
1335.458, 6751.000
1336.519, 6772.631
1337.580, 6775.000
1338.640, 6780.000
1339.700, 6837.000
1340.760, 6785.000
1341.820, 6837.000
1342.880, 6826.506
1343.939, 6799.000
1344.999, 6822.000
1346.058, 6756.000
1347.117, 6752.000
1348.176, 6794.000
1349.235, 7004.633
1350.293, 6940.536
1351.351, 6919.624
1352.410, 6955.000
1353.468, 6774.000
1354.526, 6796.000
1355.583, 6831.000
1356.641, 6730.000
1357.698, 6881.145
1358.756, 6980.059
1359.813, 7029.970
1360.869, 7033.513
1361.926, 6851.748
1362.983, 6909.255
1364.039, 6870.887
1365.095, 6867.000
1366.152, 6799.000
1367.207, 6826.000
1368.263, 6763.000
1369.319, 6872.000
1370.374, 6939.000
1371.430, 6893.000
1372.485, 6938.066
1373.540, 6889.000
1374.594, 6889.000
1375.649, 6931.000
1376.703, 6864.000
1377.758, 6758.000
1378.812, 6879.000
1379.866, 6794.000
1380.920, 7098.000
1381.973, 6938.000
1383.027, 6947.000
1384.080, 6891.000
1385.133, 6856.208
1386.186, 6843.823
1387.239, 6862.000
1388.291, 6821.000
1389.344, 6868.000
1390.396, 6902.000
1391.448, 6851.000
1392.500, 6904.000
1393.552, 6875.955
1394.604, 6882.000
1395.655, 6812.000
1396.707, 6877.000
1397.758, 6779.000
1398.809, 6731.030
1399.860, 6839.899
1400.910, 6899.755
1401.961, 6913.229
1403.011, 6741.407
1404.061, 6808.858
1405.111, 6780.420
1406.161, 6748.050
1407.211, 6849.178
1408.260, 6704.311
1409.310, 6803.321
1410.359, 6804.982
1411.408, 6851.199
1412.457, 6800.934
1413.506, 6994.000
1414.554, 6803.000
1415.603, 6918.000
1416.651, 6815.000
1417.699, 6912.000
1418.747, 6922.000
1419.794, 6927.000
1420.842, 6864.000
1421.889, 6796.000
1422.937, 6881.000
1423.984, 6787.000
1425.031, 6890.000
1426.077, 6904.000
1427.124, 6827.000
1428.170, 6980.000
1429.217, 6856.000
1430.263, 6939.000
1431.309, 7033.000
1432.354, 6889.000
1433.400, 6891.000
1434.445, 7075.000
1435.491, 6983.000
1436.536, 6984.000
1437.581, 6991.000
1438.625, 7026.000
1439.670, 7079.000
1440.714, 6999.000
1441.759, 7050.000
1442.803, 6997.000
1443.847, 7101.000
1444.890, 7027.000
1445.934, 6898.000
1446.978, 6957.000
1448.021, 6966.000
1449.064, 6932.144
1450.107, 7028.000
1451.150, 6936.000
1452.192, 6954.000
1453.235, 6972.000
1454.277, 7070.000
1455.319, 7000.000
1456.361, 6970.000
1457.403, 7178.000
1458.445, 7275.000
1459.486, 7079.000
1460.528, 7069.000
1461.569, 7017.000
1462.610, 7031.000
1463.651, 7043.542
1464.691, 6921.000
1465.732, 7048.000
1466.772, 7086.000
1467.812, 6965.000
1468.852, 6906.000
1469.892, 7080.000
1470.932, 6868.000
1471.971, 6926.000
1473.011, 6871.000
1474.050, 6921.000
1475.089, 6883.000
1476.128, 6987.000
1477.166, 6867.000
1478.205, 6838.000
1479.243, 6956.000
1480.282, 7040.000
1481.320, 6916.000
1482.357, 6923.000
1483.395, 7058.000
1484.433, 6905.000
1485.470, 7042.000
1486.507, 6973.000
1487.544, 6938.000
1488.581, 6865.000
1489.618, 6894.000
1490.655, 6961.000
1491.691, 6872.000
1492.727, 6955.000
1493.763, 7044.000
1494.799, 6939.000
1495.835, 6967.000
1496.871, 6838.596
1497.906, 6960.851
1498.941, 7034.091
1499.976, 7060.948
1501.011, 6902.510
1502.046, 6983.345
1503.081, 6968.290
1504.115, 6949.292
1505.149, 7063.794
1506.183, 6932.296
1507.217, 6879.000
1508.251, 6906.000
1509.285, 7004.000
1510.318, 6955.000
1511.352, 6912.000
1512.385, 7016.000
1513.418, 6926.000
1514.450, 6973.000
1515.483, 7064.000
1516.516, 7106.000
1517.548, 7083.000
1518.580, 6905.000
1519.612, 6990.000
1520.644, 6973.000
1521.675, 6992.000
1522.707, 7029.000
1523.738, 6977.000
1524.769, 7085.000
1525.800, 7020.000
1526.831, 7022.000
1527.862, 7017.000
1528.892, 6990.630
1529.923, 7046.000
1530.953, 6979.000
1531.983, 7087.000
1533.013, 7110.000
1534.042, 6999.000
1535.072, 7190.000
1536.101, 7056.000
1537.131, 7073.000
1538.160, 7038.000
1539.188, 7111.000
1540.217, 7008.000
1541.246, 7073.000
1542.274, 7193.000
1543.302, 7141.000
1544.330, 7091.000
1545.358, 7120.000
1546.386, 7625.000
##END=



