##NAMES=Pyrope
##RRUFFID=R040159
##IDEAL CHEMISTRY=Mg_3_Al_2_(SiO_4_)_3_
##LOCALITY=Meronitz, Bohemia
##OWNER=RRUFF
##SOURCE=University of Arizona Mineral Museum
##DESCRIPTION=Deep red crystal fragments
##STATUS=The identification of this mineral has been confirmed by X-ray diffraction and chemical analysis
##URL=rruff.info/R040159
##MEASURED CHEMISTRY=(Mg_2.17_Fe^2+^_0.47_Ca_0.34_Mn_0.02_)_Σ=3_(Al_1.86_Cr_0.11_Ti_0.03_)_Σ=2_((Si_0.99_Al_0.01_)_Σ=1_O_4_)_3_; trace amounts of Rb?
##PIN_ID=L01351
##ORIENTATION=Laser parallel to (1 1 1). Fiducial mark perpendicular to laser is parallel to [-1 1 0]
88.22800, 3499.000
89.46700, 3579.000
90.70600, 3646.000
91.94400, 3675.000
93.18300, 3714.000
94.42100, 3653.000
95.65900, 3634.000
96.89700, 3586.000
98.13500, 3655.000
99.37300, 3668.000
100.6100, 3724.000
101.8480, 3787.509
103.0850, 3824.000
104.3220, 3925.000
105.5590, 3994.000
106.7950, 4069.738
108.0320, 4191.000
109.2680, 4157.000
110.5040, 4187.000
111.7400, 4235.000
112.9760, 4375.000
114.2120, 4667.000
115.4470, 4752.000
116.6820, 4861.000
117.9170, 4763.000
119.1520, 4715.000
120.3870, 4698.000
121.6220, 4742.000
122.8560, 4710.000
124.0900, 4618.000
125.3240, 4423.000
126.5580, 4508.000
127.7920, 4416.000
129.0260, 4441.000
130.2590, 4468.000
131.4920, 4488.000
132.7250, 4522.000
133.9580, 4491.000
135.1910, 4489.841
136.4230, 4549.546
137.6560, 4592.802
138.8880, 4617.561
140.1200, 4624.819
141.3520, 4562.158
142.5830, 4589.783
143.8150, 4581.226
145.0460, 4571.184
146.2770, 4611.517
147.5080, 4551.000
148.7390, 4542.000
149.9700, 4527.000
151.2000, 4413.000
152.4310, 4411.858
153.6610, 4338.197
154.8910, 4326.000
156.1210, 4240.000
157.3500, 4172.000
158.5800, 4168.000
159.8090, 4099.000
161.0380, 4106.000
162.2670, 3961.000
163.4960, 4043.000
164.7240, 3953.000
165.9530, 3908.000
167.1810, 4008.000
168.4090, 3933.000
169.6370, 3936.000
170.8650, 4050.000
172.0920, 3944.000
173.3200, 3942.000
174.5470, 3946.000
175.7740, 4105.000
177.0010, 4105.000
178.2280, 4109.000
179.4540, 4180.000
180.6810, 4216.006
181.9070, 4377.000
183.1330, 4367.000
184.3590, 4488.000
185.5850, 4608.000
186.8100, 4665.000
188.0350, 4857.000
189.2610, 4864.000
190.4860, 5007.000
191.7110, 5209.000
192.9350, 5212.000
194.1600, 5289.000
195.3840, 5312.000
196.6080, 5520.000
197.8320, 5615.000
199.0560, 5789.000
200.2800, 5907.000
201.5030, 6058.000
202.7270, 6058.000
203.9500, 6264.000
205.1730, 6303.000
206.3950, 6426.000
207.6180, 6500.000
208.8410, 6356.000
210.0630, 6275.000
211.2850, 6365.000
212.5070, 6253.000
213.7290, 6195.000
214.9500, 6012.000
216.1720, 5948.061
217.3930, 5835.313
218.6140, 5774.000
219.8350, 5642.000
221.0560, 5577.000
222.2770, 5504.000
223.4970, 5363.000
224.7170, 5328.000
225.9370, 5207.576
227.1570, 5249.411
228.3770, 5272.750
229.5970, 5278.587
230.8160, 5214.505
232.0350, 5240.710
233.2540, 5138.000
234.4730, 5085.000
235.6920, 5206.000
236.9110, 5294.000
238.1290, 5312.000
239.3470, 5259.000
240.5650, 5347.000
241.7830, 5347.000
243.0010, 5324.000
244.2180, 5464.000
245.4360, 5385.000
246.6530, 5389.000
247.8700, 5553.000
249.0870, 5553.000
250.3040, 5453.000
251.5200, 5551.000
252.7370, 5494.000
253.9530, 5531.000
255.1690, 5508.000
256.3850, 5466.000
257.6000, 5550.000
258.8160, 5511.000
260.0310, 5527.000
261.2460, 5599.000
262.4610, 5563.000
263.6760, 5603.206
264.8910, 5657.000
266.1050, 5608.000
267.3200, 5541.000
268.5340, 5483.000
269.7480, 5529.000
270.9620, 5575.000
272.1750, 5461.000
273.3890, 5449.000
274.6020, 5634.000
275.8150, 5537.000
277.0280, 5546.000
278.2410, 5504.000
279.4540, 5622.000
280.6660, 5589.000
281.8790, 5591.000
283.0910, 5567.000
284.3030, 5502.000
285.5140, 5466.000
286.7260, 5507.000
287.9380, 5554.000
289.1490, 5621.000
290.3600, 5587.000
291.5710, 5621.000
292.7820, 5634.000
293.9920, 5633.000
295.2030, 5664.873
296.4130, 5671.906
297.6230, 5688.000
298.8330, 5704.000
300.0430, 5741.106
301.2520, 5768.847
302.4620, 5812.000
303.6710, 5853.000
304.8800, 5857.000
306.0890, 5918.000
307.2980, 5996.110
308.5070, 6043.000
309.7150, 6191.000
310.9230, 6257.000
312.1310, 6357.000
313.3390, 6390.000
314.5470, 6551.000
315.7550, 6774.000
316.9620, 6707.000
318.1690, 6853.000
319.3760, 6938.000
320.5830, 6936.000
321.7900, 7181.000
322.9960, 7034.000
324.2030, 7088.250
325.4090, 7304.000
326.6150, 7088.000
327.8210, 7221.000
329.0270, 7374.000
330.2320, 7406.000
331.4380, 7707.000
332.6430, 7883.000
333.8480, 8126.000
335.0530, 8357.000
336.2580, 8706.000
337.4620, 9020.000
338.6670, 9404.000
339.8710, 9925.000
341.0750, 10386.00
342.2790, 10902.00
343.4820, 11429.00
344.6860, 12081.00
345.8890, 12971.00
347.0920, 13813.00
348.2960, 14872.00
349.4980, 16107.00
350.7010, 17471.00
351.9040, 19151.00
353.1060, 20943.00
354.3080, 22589.00
355.5100, 24949.00
356.7120, 26608.00
357.9140, 28556.00
359.1150, 29816.00
360.3170, 30413.00
361.5180, 30333.00
362.7190, 30045.00
363.9200, 28870.00
365.1200, 27021.00
366.3210, 25238.00
367.5210, 23164.00
368.7210, 21332.00
369.9210, 19486.00
371.1210, 17977.00
372.3210, 16671.00
373.5200, 15163.00
374.7200, 14511.00
375.9190, 13447.00
377.1180, 12664.00
378.3170, 11730.00
379.5150, 11158.00
380.7140, 10537.00
381.9120, 9989.000
383.1110, 9577.000
384.3090, 8974.000
385.5060, 8688.000
386.7040, 8248.000
387.9020, 7854.000
389.0990, 7570.000
390.2960, 7198.000
391.4930, 7074.000
392.6900, 6733.000
393.8860, 6652.000
395.0830, 6365.000
396.2790, 6133.000
397.4750, 5933.000
398.6710, 5823.000
399.8670, 5613.000
401.0630, 5587.000
402.2580, 5442.000
403.4540, 5269.000
404.6490, 5225.000
405.8440, 5063.000
407.0390, 5030.052
408.2330, 5098.000
409.4280, 4924.000
410.6220, 4953.000
411.8160, 4816.000
413.0100, 4810.000
414.2040, 4734.000
415.3980, 4713.000
416.5910, 4651.000
417.7850, 4585.000
418.9780, 4594.000
420.1710, 4454.000
421.3640, 4479.000
422.5560, 4390.000
423.7490, 4446.000
424.9410, 4348.000
426.1330, 4400.000
427.3250, 4375.000
428.5170, 4275.000
429.7090, 4409.000
430.9000, 4324.000
432.0910, 4338.000
433.2820, 4297.000
434.4730, 4233.000
435.6640, 4355.000
436.8550, 4359.000
438.0450, 4357.550
439.2360, 4313.000
440.4260, 4366.000
441.6160, 4309.000
442.8060, 4321.000
443.9950, 4350.000
445.1850, 4294.000
446.3740, 4392.000
447.5630, 4407.000
448.7520, 4410.000
449.9410, 4387.000
451.1300, 4434.996
452.3180, 4521.000
453.5060, 4531.000
454.6950, 4607.000
455.8830, 4692.000
457.0700, 4628.000
458.2580, 4752.000
459.4450, 4747.000
460.6330, 4824.000
461.8200, 4861.000
463.0070, 4974.000
464.1940, 5035.000
465.3800, 5089.000
466.5670, 5197.000
467.7530, 5155.000
468.9390, 5261.000
470.1250, 5308.000
471.3110, 5374.000
472.4970, 5399.000
473.6820, 5480.000
474.8680, 5653.000
476.0530, 5606.632
477.2380, 5670.000
478.4230, 5639.000
479.6070, 5779.000
480.7920, 5919.000
481.9760, 6029.000
483.1600, 6100.000
484.3440, 6226.000
485.5280, 6313.000
486.7120, 6289.000
487.8950, 6296.000
489.0780, 6226.000
490.2620, 6188.630
491.4450, 6123.000
492.6270, 6046.000
493.8100, 5936.000
494.9920, 5817.000
496.1750, 5889.000
497.3570, 6030.000
498.5390, 6070.166
499.7210, 6275.000
500.9020, 6386.000
502.0840, 6518.000
503.2650, 6816.000
504.4460, 7082.000
505.6270, 7282.508
506.8080, 7480.479
507.9890, 7709.000
509.1690, 7640.000
510.3500, 7749.000
511.5300, 7505.000
512.7100, 7366.000
513.8900, 7212.000
515.0690, 7121.000
516.2490, 6940.000
517.4280, 6964.000
518.6070, 6758.000
519.7860, 6710.000
520.9650, 6741.000
522.1440, 6713.000
523.3220, 6854.000
524.5010, 6858.000
525.6790, 6891.000
526.8570, 6788.000
528.0350, 6962.000
529.2130, 6915.000
530.3900, 6919.000
531.5670, 7101.000
532.7450, 7242.000
533.9220, 7280.000
535.0980, 7558.000
536.2750, 7819.000
537.4520, 7905.000
538.6280, 8304.000
539.8040, 8494.000
540.9800, 9092.000
542.1560, 9514.000
543.3320, 9911.000
544.5070, 10637.00
545.6830, 11483.00
546.8580, 12267.00
548.0330, 13364.00
549.2080, 14452.00
550.3830, 15976.00
551.5570, 17547.00
552.7310, 19322.00
553.9060, 21379.00
555.0800, 22926.00
556.2540, 24492.00
557.4270, 25692.00
558.6010, 26014.00
559.7740, 25378.00
560.9470, 23701.00
562.1210, 21464.00
563.2930, 19148.00
564.4660, 16798.00
565.6390, 14632.00
566.8110, 12706.00
567.9830, 11207.00
569.1550, 9959.000
570.3270, 8947.000
571.4990, 8128.000
572.6710, 7515.000
573.8420, 7195.000
575.0130, 6718.000
576.1840, 6487.000
577.3550, 6144.000
578.5260, 5929.000
579.6970, 5899.000
580.8670, 5701.000
582.0370, 5645.000
583.2070, 5561.000
584.3770, 5460.000
585.5470, 5495.000
586.7170, 5392.948
587.8860, 5276.000
589.0550, 5288.000
590.2240, 5288.000
591.3930, 5262.000
592.5620, 5238.314
593.7310, 5135.000
594.8990, 5135.000
596.0670, 5027.000
597.2350, 4921.000
598.4030, 4893.000
599.5710, 4746.000
600.7390, 4782.000
601.9060, 4731.000
603.0740, 4580.000
604.2410, 4684.000
605.4080, 4603.798
606.5740, 4589.605
607.7410, 4560.000
608.9080, 4573.000
610.0740, 4503.000
611.2400, 4507.000
612.4060, 4495.000
613.5720, 4471.760
614.7370, 4548.000
615.9030, 4478.000
617.0680, 4488.000
618.2330, 4540.000
619.3980, 4631.000
620.5630, 4552.000
621.7280, 4547.000
622.8920, 4577.000
624.0570, 4661.000
625.2210, 4739.324
626.3850, 4871.210
627.5490, 5006.000
628.7120, 5179.000
629.8760, 5391.000
631.0390, 5550.000
632.2020, 5897.000
633.3650, 6147.000
634.5280, 6458.000
635.6910, 6898.000
636.8530, 7293.000
638.0160, 7606.000
639.1780, 8045.000
640.3400, 8434.000
641.5020, 8391.000
642.6640, 8590.000
643.8250, 8369.000
644.9870, 8122.000
646.1480, 7595.000
647.3090, 7283.000
648.4700, 6692.000
649.6300, 6245.000
650.7910, 5996.000
651.9510, 5644.000
653.1120, 5410.000
654.2720, 5310.000
655.4320, 5068.000
656.5910, 5004.000
657.7510, 4929.000
658.9100, 4689.000
660.0690, 4546.000
661.2290, 4526.000
662.3880, 4323.000
663.5460, 4328.000
664.7050, 4276.000
665.8630, 4103.000
667.0220, 4144.000
668.1800, 3962.000
669.3380, 4016.000
670.4950, 3975.000
671.6530, 3787.000
672.8100, 3934.000
673.9680, 3828.000
675.1250, 3777.000
676.2820, 3729.000
677.4390, 3760.000
678.5950, 3760.000
679.7520, 3680.000
680.9080, 3624.000
682.0640, 3684.000
683.2200, 3671.000
684.3760, 3558.000
685.5320, 3632.000
686.6870, 3564.000
687.8420, 3539.000
688.9980, 3560.000
690.1530, 3495.000
691.3070, 3565.000
692.4620, 3529.000
693.6170, 3511.000
694.7710, 3466.000
695.9250, 3440.000
697.0790, 3508.000
698.2330, 3441.000
699.3870, 3501.000
700.5400, 3580.000
701.6940, 3468.000
702.8470, 3526.000
704.0000, 3516.000
705.1530, 3487.000
706.3050, 3451.000
707.4580, 3430.000
708.6100, 3448.000
709.7630, 3471.000
710.9150, 3463.000
712.0660, 3510.000
713.2180, 3509.000
714.3700, 3503.000
715.5210, 3409.000
716.6720, 3452.000
717.8240, 3507.000
718.9740, 3367.000
720.1250, 3451.000
721.2760, 3460.000
722.4260, 3529.000
723.5770, 3512.000
724.7270, 3483.000
725.8770, 3447.000
727.0260, 3472.000
728.1760, 3474.404
729.3250, 3463.000
730.4750, 3516.000
731.6240, 3519.000
732.7730, 3509.000
733.9220, 3527.000
735.0700, 3513.718
736.2190, 3510.000
737.3670, 3513.000
738.5150, 3506.000
739.6630, 3537.000
740.8110, 3520.656
741.9590, 3515.000
743.1060, 3517.000
744.2540, 3493.000
745.4010, 3511.000
746.5480, 3516.000
747.6950, 3529.000
748.8410, 3482.000
749.9880, 3490.000
751.1340, 3506.000
752.2800, 3544.000
753.4260, 3526.000
754.5720, 3502.000
755.7180, 3463.000
756.8640, 3461.312
758.0090, 3585.000
759.1540, 3473.000
760.2990, 3510.000
761.4440, 3572.000
762.5890, 3440.000
763.7340, 3474.000
764.8780, 3457.000
766.0220, 3553.000
767.1660, 3526.000
768.3100, 3615.000
769.4540, 3578.000
770.5980, 3509.000
771.7410, 3576.000
772.8840, 3502.000
774.0280, 3544.000
775.1700, 3550.000
776.3130, 3558.000
777.4560, 3618.000
778.5980, 3707.000
779.7410, 3693.795
780.8830, 3805.000
782.0250, 3708.000
783.1670, 3707.000
784.3080, 3720.000
785.4500, 3747.000
786.5910, 3768.000
787.7320, 3728.000
788.8730, 3857.000
790.0140, 3799.000
791.1550, 3860.000
792.2950, 3781.000
793.4360, 3787.000
794.5760, 3865.000
795.7160, 3787.000
796.8560, 3857.000
797.9960, 3815.000
799.1350, 3859.000
800.2750, 3923.000
801.4140, 3904.000
802.5530, 3932.000
803.6920, 4049.000
804.8310, 4008.000
805.9690, 3968.000
807.1080, 4103.000
808.2460, 4117.000
809.3840, 4136.000
810.5220, 4086.000
811.6600, 4194.000
812.7970, 4237.000
813.9350, 4263.000
815.0720, 4221.000
816.2090, 4280.000
817.3460, 4336.000
818.4830, 4424.000
819.6200, 4555.000
820.7560, 4665.000
821.8930, 4751.000
823.0290, 4723.000
824.1650, 4759.000
825.3010, 4896.000
826.4360, 4921.000
827.5720, 5087.000
828.7070, 5086.000
829.8420, 5211.000
830.9770, 5424.000
832.1120, 5462.000
833.2470, 5456.000
834.3820, 5637.000
835.5160, 5680.000
836.6500, 5734.000
837.7840, 5953.000
838.9180, 6142.000
840.0520, 6378.000
841.1860, 6650.000
842.3190, 6796.000
843.4520, 7227.000
844.5850, 7584.000
845.7180, 8122.000
846.8510, 8561.000
847.9840, 9101.000
849.1160, 9615.000
850.2490, 10509.00
851.3810, 11294.00
852.5130, 12093.00
853.6450, 12924.00
854.7760, 13981.00
855.9080, 14777.00
857.0390, 15827.00
858.1700, 16516.00
859.3010, 17097.00
860.4320, 17411.00
861.5630, 17350.00
862.6930, 17217.00
863.8240, 16613.00
864.9540, 15998.00
866.0840, 15292.00
867.2140, 14504.00
868.3440, 13880.00
869.4730, 13154.00
870.6030, 12333.00
871.7320, 11845.00
872.8610, 11405.00
873.9900, 10903.00
875.1190, 10641.00
876.2470, 10365.00
877.3760, 10211.00
878.5040, 9983.000
879.6320, 9908.000
880.7600, 9837.000
881.8880, 9932.000
883.0150, 9889.000
884.1430, 10093.00
885.2700, 10100.00
886.3970, 10452.00
887.5240, 10604.00
888.6510, 10998.00
889.7780, 11139.00
890.9040, 11519.00
892.0310, 11902.00
893.1570, 12320.04
894.2830, 12920.00
895.4090, 13445.00
896.5350, 14144.00
897.6600, 14975.00
898.7860, 15639.00
899.9110, 16850.00
901.0360, 18068.00
902.1610, 19567.00
903.2860, 21724.00
904.4100, 23932.44
905.5350, 26795.00
906.6590, 29937.00
907.7830, 34344.00
908.9070, 39067.00
910.0310, 44818.00
911.1540, 50904.00
912.2780, 58167.00
913.4010, 65179.00
914.5240, 72742.00
915.6470, 79091.00
916.7700, 84615.00
917.8930, 88049.00
919.0150, 88238.00
920.1380, 86129.00
921.2600, 80907.00
922.3820, 74233.00
923.5040, 66396.00
924.6260, 58349.00
925.7470, 50717.00
926.8690, 44063.00
927.9900, 38228.00
929.1110, 33566.00
930.2320, 29575.00
931.3530, 26300.00
932.4730, 23309.00
933.5940, 20960.00
934.7140, 18942.00
935.8340, 17204.00
936.9540, 15764.00
938.0740, 14512.00
939.1930, 13388.00
940.3130, 12471.00
941.4320, 11533.00
942.5510, 10669.00
943.6700, 10147.00
944.7890, 9615.000
945.9080, 9079.000
947.0260, 8701.000
948.1450, 8262.000
949.2630, 7889.000
950.3810, 7785.000
951.4990, 7501.000
952.6170, 7278.000
953.7340, 7127.000
954.8520, 7028.000
955.9690, 6903.000
957.0860, 6817.000
958.2030, 6748.000
959.3200, 6659.000
960.4360, 6441.000
961.5530, 6346.000
962.6690, 6302.000
963.7850, 6368.000
964.9010, 6237.000
966.0170, 6152.000
967.1330, 6119.000
968.2480, 6017.000
969.3630, 5930.000
970.4790, 5914.000
971.5940, 5882.000
972.7080, 5807.000
973.8230, 5776.733
974.9380, 5741.000
976.0520, 5689.000
977.1660, 5686.000
978.2800, 5678.000
979.3940, 5651.000
980.5080, 5630.000
981.6220, 5575.000
982.7350, 5697.000
983.8480, 5586.000
984.9610, 5480.000
986.0740, 5572.000
987.1870, 5509.000
988.3000, 5537.000
989.4120, 5368.000
990.5250, 5154.000
991.6370, 5287.000
992.7490, 5147.000
993.8610, 5115.000
994.9720, 5134.000
996.0840, 5068.000
997.1950, 4951.000
998.3060, 4823.000
999.4170, 4697.000
1000.528, 4835.000
1001.639, 4718.000
1002.750, 4716.000
1003.860, 4708.000
1004.970, 4727.000
1006.080, 4647.000
1007.190, 4652.000
1008.300, 4716.000
1009.410, 4623.000
1010.519, 4754.000
1011.628, 4743.000
1012.738, 4855.000
1013.846, 4834.000
1014.955, 4900.000
1016.064, 4982.000
1017.172, 5043.000
1018.281, 5120.000
1019.389, 5143.000
1020.497, 5232.000
1021.605, 5310.293
1022.713, 5444.000
1023.820, 5485.000
1024.928, 5557.000
1026.035, 5624.000
1027.142, 5678.886
1028.249, 5806.000
1029.356, 5798.000
1030.462, 5960.000
1031.569, 6021.000
1032.675, 5980.000
1033.781, 6087.000
1034.887, 6227.000
1035.993, 6250.000
1037.098, 6235.000
1038.204, 6337.000
1039.309, 6450.385
1040.415, 6590.505
1041.520, 6791.000
1042.624, 6995.000
1043.729, 7212.000
1044.834, 7477.000
1045.938, 7725.000
1047.042, 7974.000
1048.146, 8097.000
1049.250, 8337.000
1050.354, 8413.000
1051.458, 8496.000
1052.561, 8593.000
1053.664, 8438.000
1054.767, 8383.000
1055.870, 8026.000
1056.973, 7887.000
1058.076, 7502.000
1059.178, 6973.000
1060.281, 6712.000
1061.383, 6286.000
1062.485, 5961.000
1063.587, 5693.000
1064.688, 5415.000
1065.790, 5172.000
1066.891, 4951.000
1067.993, 4850.000
1069.094, 4648.000
1070.195, 4569.000
1071.295, 4439.000
1072.396, 4402.000
1073.496, 4290.000
1074.597, 4221.000
1075.697, 4102.000
1076.797, 4112.000
1077.897, 4098.000
1078.996, 4037.000
1080.096, 3961.000
1081.195, 3963.000
1082.294, 3897.000
1083.393, 3886.000
1084.492, 3943.000
1085.591, 3861.000
1086.689, 3830.000
1087.788, 3775.000
1088.886, 3856.000
1089.984, 3732.000
1091.082, 3794.000
1092.180, 3695.000
1093.277, 3633.000
1094.375, 3735.000
1095.472, 3725.000
1096.569, 3726.000
1097.666, 3662.000
1098.763, 3681.000
1099.860, 3617.000
1100.956, 3659.000
1102.053, 3668.000
1103.149, 3602.000
1104.245, 3560.000
1105.341, 3536.000
1106.436, 3536.000
1107.532, 3546.000
1108.627, 3553.000
1109.723, 3515.000
1110.818, 3537.000
1111.913, 3565.000
1113.007, 3433.000
1114.102, 3453.000
1115.197, 3466.000
1116.291, 3543.000
1117.385, 3507.000
1118.479, 3450.000
1119.573, 3438.000
1120.666, 3429.459
1121.760, 3385.000
1122.853, 3425.000
1123.947, 3430.000
1125.040, 3387.000
1126.132, 3403.000
1127.225, 3468.000
1128.318, 3448.000
1129.410, 3487.000
1130.502, 3440.000
1131.595, 3487.000
1132.687, 3441.000
1133.778, 3374.000
1134.870, 3368.000
1135.961, 3442.000
1137.053, 3428.000
1138.144, 3443.000
1139.235, 3378.000
1140.326, 3379.000
1141.416, 3377.000
1142.507, 3334.000
1143.597, 3378.000
1144.688, 3440.000
1145.778, 3401.000
1146.868, 3408.000
1147.957, 3336.000
1149.047, 3367.000
1150.136, 3363.000
1151.226, 3426.000
1152.315, 3334.000
1153.404, 3372.000
1154.493, 3304.000
1155.581, 3413.000
1156.670, 3390.000
1157.758, 3419.000
1158.846, 3450.000
1159.934, 3396.000
1161.022, 3403.000
1162.110, 3414.423
1163.198, 3423.788
1164.285, 3450.000
1165.372, 3461.000
1166.459, 3495.000
1167.546, 3458.000
1168.633, 3496.000
1169.720, 3432.000
1170.806, 3516.000
1171.892, 3494.000
1172.979, 3425.000
1174.065, 3568.000
1175.150, 3545.000
1176.236, 3463.000
1177.322, 3553.000
1178.407, 3479.000
1179.492, 3531.000
1180.577, 3482.000
1181.662, 3511.000
1182.747, 3519.000
1183.832, 3536.000
1184.916, 3562.000
1186.000, 3522.000
1187.084, 3588.000
1188.168, 3539.000
1189.252, 3519.000
1190.336, 3523.000
1191.419, 3524.000
1192.503, 3457.000
1193.586, 3468.000
1194.669, 3457.164
1195.752, 3557.000
1196.835, 3454.000
1197.917, 3515.000
1199.000, 3501.000
1200.082, 3468.000
1201.164, 3507.737
1202.246, 3461.591
1203.328, 3543.000
1204.409, 3439.000
1205.491, 3460.000
1206.572, 3521.000
1207.653, 3477.000
1208.734, 3494.000
1209.815, 3532.000
1210.896, 3463.000
1211.976, 3473.000
1213.057, 3507.000
1214.137, 3559.000
1215.217, 3538.342
1216.297, 3507.000
1217.377, 3505.000
1218.456, 3513.000
1219.536, 3482.000
1220.615, 3425.000
1221.694, 3476.000
1222.773, 3419.000
1223.852, 3487.000
1224.931, 3455.000
1226.009, 3474.000
1227.088, 3482.000
1228.166, 3516.000
1229.244, 3500.000
1230.322, 3444.000
1231.400, 3479.000
1232.477, 3438.000
1233.555, 3441.000
1234.632, 3415.000
1235.709, 3369.000
1236.786, 3371.000
1237.863, 3396.000
1238.939, 3456.000
1240.016, 3383.000
1241.092, 3448.000
1242.168, 3351.000
1243.245, 3343.000
1244.320, 3339.000
1245.396, 3401.000
1246.472, 3390.000
1247.547, 3370.000
1248.622, 3411.000
1249.697, 3400.000
1250.772, 3409.000
1251.847, 3394.000
1252.922, 3335.000
1253.996, 3445.000
1255.071, 3323.000
1256.145, 3346.000
1257.219, 3426.000
1258.293, 3388.000
1259.366, 3393.057
1260.440, 3433.625
1261.513, 3336.000
1262.587, 3486.000
1263.660, 3475.000
1264.733, 3494.000
1265.805, 3465.000
1266.878, 3456.000
1267.951, 3365.000
1269.023, 3536.000
1270.095, 3422.000
1271.167, 3659.353
1272.239, 3563.622
1273.311, 3536.662
1274.382, 3484.000
1275.454, 3428.000
1276.525, 3468.000
1277.596, 3475.000
1278.667, 3445.000
1279.738, 3421.000
1280.808, 3486.000
1281.879, 3463.000
1282.949, 3456.000
1284.019, 3484.000
1285.089, 3532.000
1286.159, 3473.000
1287.229, 3393.000
1288.298, 3503.000
1289.368, 3414.000
1290.437, 3436.000
1291.506, 3485.000
1292.575, 3415.000
1293.644, 3399.000
1294.712, 3385.000
1295.781, 3460.000
1296.849, 3454.000
1297.917, 3360.000
1298.985, 3403.000
1300.053, 3355.000
1301.121, 3408.000
1302.188, 3376.000
1303.255, 3379.000
1304.323, 3429.000
1305.390, 3490.000
1306.457, 3457.000
1307.523, 3363.000
1308.590, 3434.000
1309.656, 3398.000
1310.723, 3382.000
1311.789, 3385.000
1312.855, 3313.000
1313.921, 3342.000
1314.986, 3382.000
1316.052, 3271.000
1317.117, 3404.000
1318.182, 3363.000
1319.248, 3335.000
1320.312, 3338.000
1321.377, 3257.000
1322.442, 3255.000
1323.506, 3247.000
1324.571, 3240.125
1325.635, 3250.000
1326.699, 3267.000
1327.762, 3286.000
1328.826, 3286.000
1329.890, 3288.986
1330.953, 3290.123
1332.016, 3278.000
1333.079, 3283.000
1334.142, 3278.000
1335.205, 3276.000
1336.268, 3254.000
1337.330, 3244.000
1338.392, 3245.186
1339.454, 3272.000
1340.516, 3262.000
1341.578, 3213.000
1342.640, 3245.000
1343.701, 3224.000
1344.763, 3205.000
1345.824, 3200.000
1346.885, 3204.667
1347.946, 3144.000
1349.007, 3232.000
1350.067, 3206.000
1351.128, 3217.000
1352.188, 3147.000
1353.248, 3181.000
1354.308, 3230.000
1355.368, 3265.000
1356.428, 3210.000
1357.487, 3160.000
1358.547, 3158.000
1359.606, 3248.000
1360.665, 3187.000
1361.724, 3212.000
1362.783, 3191.000
1363.841, 3200.000
1364.900, 3129.000
1365.958, 3205.000
1367.016, 3158.000
1368.074, 3211.000
1369.132, 3162.000
1370.190, 3238.000
1371.247, 3209.000
1372.304, 3168.000
1373.362, 3142.000
1374.419, 3136.270
1375.476, 3135.845
1376.532, 3145.000
1377.589, 3171.000
1378.645, 3195.000
1379.702, 3223.000
1380.758, 3171.000
1381.814, 3192.000
1382.870, 3186.000
1383.925, 3217.000
1384.981, 3274.000
1386.036, 3229.000
1387.092, 3221.000
1388.147, 3259.000
1389.202, 3299.000
1390.256, 3173.000
1391.311, 3234.000
1392.365, 3196.000
1393.420, 3216.000
1394.474, 3188.000
1395.528, 3199.000
1396.582, 3184.000
1397.636, 3231.000
1398.689, 3179.000
1399.742, 3238.000
1400.796, 3172.000
1401.849, 3192.000
1402.902, 3229.000
1403.955, 3219.000
1405.007, 3186.000
1406.060, 3245.000
1407.112, 3160.000
1408.164, 3170.000
1409.216, 3157.000
1410.268, 3264.000
1411.320, 3218.000
1412.371, 3270.000
1413.423, 3188.000
1414.474, 3214.000
1415.525, 3255.000
1416.576, 3205.000
1417.627, 3255.000
1418.678, 3241.000
1419.728, 3205.000
1420.778, 3321.000
1421.829, 3185.000
1422.879, 3241.844
1423.928, 3231.000
1424.978, 3257.000
1426.028, 3216.000
1427.077, 3223.000
1428.126, 3195.000
1429.176, 3212.233
1430.225, 3231.000
1431.273, 3247.000
1432.322, 3311.000
1433.371, 3314.000
1434.419, 3247.000
1435.467, 3292.000
1436.515, 3240.000
1437.563, 3255.000
1438.611, 3248.000
1439.658, 3248.000
1440.706, 3276.000
1441.753, 3256.000
1442.800, 3280.000
1443.847, 3278.000
1444.894, 3279.000
1445.941, 3205.000
1446.987, 3198.428
1448.034, 3151.000
1449.080, 3161.000
1450.126, 3222.000
1451.172, 3278.000
1452.218, 3261.000
1453.263, 3276.000
1454.309, 3332.000
1455.354, 3304.000
1456.399, 3313.000
1457.444, 3256.000
1458.489, 3256.000
1459.534, 3256.530
1460.579, 3209.000
1461.623, 3293.000
1462.667, 3291.000
1463.711, 3357.000
1464.755, 3322.000
1465.799, 3282.000
1466.843, 3325.000
1467.886, 3331.000
1468.930, 3327.000
1469.973, 3261.000
1471.016, 3252.000
1472.059, 3284.000
1473.101, 3336.000
1474.144, 3321.000
1475.186, 3345.000
1476.229, 3326.000
1477.271, 3327.000
1478.313, 3370.000
1479.355, 3352.000
1480.396, 3341.000
1481.438, 3383.000
1482.479, 3352.904
1483.520, 3296.000
1484.561, 3359.000
1485.602, 3368.000
1486.643, 3431.000
1487.684, 3436.000
1488.724, 3443.000
1489.765, 3417.000
1490.805, 3443.929
1491.845, 3383.000
1492.885, 3455.000
1493.924, 3419.000
1494.964, 3367.000
1496.003, 3435.000
1497.042, 3435.000
1498.082, 3439.000
1499.120, 3319.000
1500.159, 3429.000
1501.198, 3428.000
1502.236, 3408.000
1503.275, 3504.000
1504.313, 3474.000
1505.351, 3475.000
1506.389, 3397.000
1507.427, 3457.000
1508.464, 3473.000
1509.502, 3376.000
1510.539, 3463.000
1511.576, 3470.000
1512.613, 3410.000
1513.650, 3425.000
1514.687, 3379.000
1515.723, 3481.000
1516.759, 3465.000
1517.796, 3465.000
1518.832, 3440.000
1519.868, 3427.000
1520.903, 3415.000
1521.939, 3445.000
1522.975, 3447.000
1524.010, 3468.000
1525.045, 3499.000
1526.080, 3371.000
1527.115, 3458.000
1528.150, 3452.000
1529.184, 3368.000
1530.219, 3443.000
1531.253, 3436.000
1532.287, 3410.000
1533.321, 3480.000
1534.355, 3467.000
1535.388, 3351.000
1536.422, 3394.000
1537.455, 3306.000
1538.488, 3388.000
1539.522, 3469.000
1540.554, 3298.000
1541.587, 3437.000
1542.620, 3443.000
1543.652, 3434.000
1544.685, 3435.000
1545.717, 3445.521
1546.749, 3494.000
1547.781, 3452.000
1548.812, 3495.000
1549.844, 3464.670
1550.875, 3493.994
1551.906, 3489.000
1552.938, 3531.000
1553.968, 3500.785
1554.999, 3580.000
1556.030, 3466.000
1557.060, 3442.000
1558.091, 3468.000
1559.121, 3466.000
1560.151, 3430.000
1561.181, 3510.000
1562.211, 3434.000
1563.240, 3414.000
1564.270, 3435.000
1565.299, 3489.000
1566.328, 3382.013
1567.357, 3424.088
1568.386, 3447.668
1569.415, 3453.746
1570.443, 3389.905
1571.472, 3416.350
1572.500, 3510.000
1573.528, 3458.000
1574.556, 3452.000
1575.584, 3427.000
1576.611, 3468.000
##END=



