##NAMES=Pyrope
##RRUFFID=R060448
##IDEAL CHEMISTRY=Mg_3_Al_2_(SiO_4_)_3_
##LOCALITY=India
##OWNER=RRUFF
##SOURCE=Gemological Institute of America
##DESCRIPTION=Deep red water worn pebble, variety rhodolite
##STATUS=The identification of this mineral has been confirmed by X-ray diffraction and chemical analysis
##URL=rruff.info/R060448
##MEASURED CHEMISTRY=(Mg_1.47_Fe_1.27_Ca_0.21_Mn_0.05_)_Î£=3_Al_2.00_(Si_1.00_O_4_)_3_
##PIN_ID=L00709
##ORIENTATION=Laser parallel to a* (1 0 0). Fiducial mark perpendicular to laser is parallel to c [0 0 1]
62.89900, 738.0000
64.14700, 674.0000
65.39500, 706.0000
66.64300, 706.0000
67.89000, 716.0000
69.13800, 695.0000
70.38500, 705.0000
71.63200, 743.0000
72.87900, 761.0000
74.12500, 727.0000
75.37200, 739.0000
76.61800, 786.0000
77.86400, 748.0000
79.10900, 772.0000
80.35500, 857.0000
81.60000, 831.0000
82.84600, 819.0000
84.09100, 891.0000
85.33500, 868.0000
86.58000, 881.0000
87.82400, 948.0000
89.06900, 913.0000
90.31300, 1020.000
91.55600, 1110.000
92.80000, 1155.000
94.04300, 1273.000
95.28700, 1345.000
96.53000, 1495.000
97.77300, 1594.000
99.01500, 1755.000
100.2580, 1939.000
101.5000, 2105.000
102.7420, 2232.000
103.9840, 2436.000
105.2260, 2616.000
106.4670, 2890.000
107.7080, 3166.000
108.9490, 3384.000
110.1900, 3393.000
111.4310, 3385.000
112.6720, 3644.000
113.9120, 3657.000
115.1520, 3877.000
116.3920, 4125.000
117.6320, 4251.000
118.8710, 4305.000
120.1110, 4269.000
121.3500, 4238.000
122.5890, 4292.000
123.8270, 4261.000
125.0660, 4295.344
126.3040, 4309.000
127.5430, 4359.000
128.7810, 4387.000
130.0180, 4432.000
131.2560, 4501.000
132.4940, 4535.000
133.7310, 4607.000
134.9680, 4543.000
136.2050, 4682.000
137.4410, 4687.000
138.6780, 4832.000
139.9140, 4984.000
141.1500, 4965.000
142.3860, 4956.000
143.6220, 4959.000
144.8570, 4997.000
146.0920, 4959.000
147.3280, 5079.000
148.5620, 5085.000
149.7970, 5163.000
151.0320, 5093.000
152.2660, 5056.000
153.5000, 5142.000
154.7340, 5083.000
155.9680, 5199.000
157.2020, 5017.000
158.4350, 5040.000
159.6680, 5052.000
160.9010, 5012.000
162.1340, 5014.000
163.3670, 5032.000
164.5990, 5084.000
165.8310, 5015.000
167.0630, 4905.000
168.2950, 4969.000
169.5270, 5126.000
170.7580, 5083.000
171.9900, 5206.000
173.2210, 5307.000
174.4510, 5436.000
175.6820, 5627.000
176.9130, 5826.000
178.1430, 5827.000
179.3730, 5904.000
180.6030, 5883.000
181.8330, 5822.000
183.0620, 5809.000
184.2920, 5746.000
185.5210, 5657.000
186.7500, 5428.000
187.9790, 5325.000
189.2070, 5314.000
190.4360, 5200.000
191.6640, 5223.000
192.8920, 5128.000
194.1200, 5161.000
195.3480, 5355.000
196.5750, 5383.000
197.8020, 5462.000
199.0290, 5575.847
200.2560, 5584.486
201.4830, 5760.000
202.7090, 5729.000
203.9360, 5827.382
205.1620, 6088.000
206.3880, 6105.000
207.6140, 6190.000
208.8390, 6320.000
210.0650, 6432.000
211.2900, 6343.000
212.5150, 6455.000
213.7400, 6447.000
214.9640, 6366.000
216.1890, 6185.000
217.4130, 6054.000
218.6370, 5944.861
219.8610, 5832.000
221.0850, 5736.000
222.3080, 5637.000
223.5310, 5578.615
224.7540, 5578.000
225.9770, 5547.000
227.2000, 5561.000
228.4230, 5527.000
229.6450, 5549.000
230.8670, 5511.000
232.0890, 5475.000
233.3110, 5588.000
234.5320, 5577.000
235.7540, 5669.000
236.9750, 5674.000
238.1960, 5704.000
239.4170, 5678.000
240.6380, 5782.000
241.8580, 5654.000
243.0780, 5734.000
244.2990, 5777.000
245.5180, 5746.000
246.7380, 5822.000
247.9580, 5866.000
249.1770, 5857.000
250.3960, 5920.000
251.6150, 5870.000
252.8340, 5893.000
254.0530, 5968.000
255.2710, 5856.000
256.4890, 5919.000
257.7070, 5916.000
258.9250, 5887.000
260.1430, 5920.000
261.3600, 5869.000
262.5770, 5928.000
263.7950, 5908.000
265.0110, 5952.000
266.2280, 6022.000
267.4450, 6112.000
268.6610, 6097.000
269.8770, 6133.000
271.0930, 6101.000
272.3090, 6128.000
273.5250, 6108.000
274.7400, 6088.000
275.9550, 6161.000
277.1700, 6136.000
278.3850, 6182.000
279.6000, 6290.000
280.8140, 6217.000
282.0290, 6381.000
283.2430, 6296.964
284.4570, 6228.000
285.6700, 6208.000
286.8840, 6296.000
288.0970, 6322.000
289.3100, 6318.000
290.5230, 6432.000
291.7360, 6291.000
292.9490, 6342.000
294.1610, 6452.000
295.3740, 6480.000
296.5860, 6521.000
297.7970, 6573.000
299.0090, 6561.000
300.2210, 6629.000
301.4320, 6696.000
302.6430, 6786.000
303.8540, 6765.000
305.0650, 6784.000
306.2750, 7024.000
307.4860, 7007.000
308.6960, 7043.000
309.9060, 7298.000
311.1160, 7374.000
312.3260, 7564.000
313.5350, 7887.000
314.7440, 8022.000
315.9530, 8073.000
317.1620, 8383.000
318.3710, 8423.000
319.5800, 8531.000
320.7880, 8569.000
321.9960, 8691.000
323.2040, 8841.000
324.4120, 8984.000
325.6200, 8958.000
326.8270, 9301.000
328.0340, 9519.000
329.2410, 9958.000
330.4480, 10295.00
331.6550, 10716.00
332.8610, 11267.00
334.0680, 11866.00
335.2740, 12778.00
336.4800, 13226.00
337.6860, 14176.00
338.8910, 15016.00
340.0970, 15713.00
341.3020, 16809.00
342.5070, 17574.00
343.7120, 18958.00
344.9170, 20139.00
346.1210, 21820.00
347.3250, 23648.00
348.5290, 25761.00
349.7330, 28128.00
350.9370, 30547.00
352.1410, 33367.00
353.3440, 35848.00
354.5470, 37842.00
355.7500, 39126.00
356.9530, 38987.00
358.1560, 37882.00
359.3580, 35901.00
360.5610, 33328.00
361.7630, 30550.00
362.9650, 27734.00
364.1660, 25246.00
365.3680, 23019.00
366.5690, 21370.00
367.7710, 19987.00
368.9720, 19054.00
370.1720, 18148.00
371.3730, 17514.00
372.5740, 16762.00
373.7740, 16255.00
374.9740, 15672.00
376.1740, 15159.00
377.3740, 14408.00
378.5730, 14040.00
379.7730, 13398.00
380.9720, 12540.00
382.1710, 11782.00
383.3700, 11093.00
384.5680, 10583.00
385.7670, 9793.000
386.9650, 9333.000
388.1630, 8746.000
389.3610, 8446.000
390.5590, 8052.000
391.7560, 7722.000
392.9540, 7405.000
394.1510, 7138.471
395.3480, 6858.000
396.5450, 6703.000
397.7420, 6508.000
398.9380, 6356.000
400.1340, 6205.000
401.3300, 6081.000
402.5260, 6048.000
403.7220, 5919.000
404.9180, 5757.000
406.1130, 5729.000
407.3080, 5760.000
408.5030, 5599.000
409.6980, 5682.000
410.8930, 5582.000
412.0870, 5451.000
413.2820, 5568.000
414.4760, 5432.000
415.6700, 5415.000
416.8630, 5418.000
418.0570, 5413.000
419.2500, 5355.000
420.4440, 5318.000
421.6370, 5320.000
422.8290, 5137.000
424.0220, 5236.000
425.2150, 5161.000
426.4070, 5206.000
427.5990, 5104.000
428.7910, 5245.000
429.9830, 5151.000
431.1740, 5147.000
432.3660, 5112.000
433.5570, 5207.000
434.7480, 5155.000
435.9390, 5165.000
437.1300, 5179.000
438.3200, 5162.295
439.5110, 5162.000
440.7010, 5170.000
441.8910, 5166.000
443.0810, 5177.000
444.2700, 5270.000
445.4600, 5205.000
446.6490, 5089.000
447.8380, 5177.000
449.0270, 5124.000
450.2160, 5185.000
451.4040, 5081.000
452.5930, 5150.000
453.7810, 5213.000
454.9690, 5144.000
456.1570, 5140.000
457.3440, 5218.000
458.5320, 5273.000
459.7190, 5265.000
460.9060, 5304.000
462.0930, 5302.000
463.2800, 5396.000
464.4660, 5359.000
465.6530, 5384.000
466.8390, 5359.000
468.0250, 5416.000
469.2110, 5486.000
470.3970, 5523.000
471.5820, 5479.000
472.7680, 5611.000
473.9530, 5600.000
475.1380, 5718.000
476.3230, 5734.000
477.5070, 6006.000
478.6920, 5905.000
479.8760, 6215.000
481.0600, 6203.000
482.2440, 6434.000
483.4280, 6571.000
484.6110, 6682.000
485.7950, 6743.000
486.9780, 6710.000
488.1610, 6614.000
489.3440, 6586.000
490.5260, 6479.000
491.7090, 6388.000
492.8910, 6400.572
494.0730, 6428.000
495.2550, 6448.000
496.4370, 6538.000
497.6190, 6639.000
498.8000, 6881.000
499.9810, 7179.000
501.1620, 7585.000
502.3430, 7972.000
503.5240, 8562.000
504.7050, 8885.000
505.8850, 9228.000
507.0650, 9328.000
508.2450, 9075.000
509.4250, 8810.000
510.6050, 8379.000
511.7840, 7933.000
512.9630, 7731.000
514.1430, 7269.000
515.3220, 7002.000
516.5000, 6937.000
517.6790, 6748.997
518.8570, 7077.494
520.0360, 7254.699
521.2140, 7285.332
522.3920, 6914.828
523.5690, 6921.587
524.7470, 7045.000
525.9240, 7066.000
527.1010, 7008.000
528.2780, 7084.000
529.4550, 7153.000
530.6320, 7221.000
531.8080, 7178.000
532.9850, 7187.000
534.1610, 7273.000
535.3370, 7367.000
536.5130, 7366.000
537.6880, 7545.000
538.8640, 7716.000
540.0390, 7760.000
541.2140, 7989.000
542.3890, 8358.000
543.5640, 8567.000
544.7380, 8937.000
545.9130, 9513.000
547.0870, 9971.000
548.2610, 10358.00
549.4350, 11086.00
550.6090, 11956.00
551.7820, 13004.00
552.9550, 14295.00
554.1290, 15654.00
555.3020, 17284.00
556.4740, 18812.00
557.6470, 20422.00
558.8200, 21631.00
559.9920, 22488.00
561.1640, 22421.00
562.3360, 21467.00
563.5080, 20104.00
564.6790, 18327.00
565.8510, 16285.00
567.0220, 14536.00
568.1930, 12865.00
569.3640, 11506.00
570.5350, 10626.00
571.7050, 9620.000
572.8760, 9005.000
574.0460, 8499.000
575.2160, 7856.000
576.3860, 7681.000
577.5550, 7314.000
578.7250, 7207.000
579.8940, 6948.000
581.0630, 6896.000
582.2320, 6705.000
583.4010, 6707.000
584.5700, 6746.000
585.7380, 6803.000
586.9070, 6778.801
588.0750, 6764.155
589.2430, 6727.000
590.4110, 6658.000
591.5780, 6573.000
592.7460, 6494.000
593.9130, 6431.000
595.0800, 6347.176
596.2470, 6297.444
597.4140, 6203.000
598.5800, 6223.000
599.7470, 6178.000
600.9130, 6197.762
602.0790, 6151.000
603.2450, 6236.000
604.4100, 6233.000
605.5760, 6274.000
606.7410, 6235.000
607.9070, 6325.000
609.0720, 6333.000
610.2360, 6288.000
611.4010, 6408.000
612.5660, 6283.000
613.7300, 6210.000
614.8940, 6262.000
616.0580, 6203.000
617.2220, 6116.624
618.3860, 6046.000
619.5490, 5998.000
620.7120, 5947.440
621.8750, 5933.000
623.0380, 5909.000
624.2010, 5984.000
625.3640, 6039.000
626.5260, 5976.000
627.6880, 6054.000
628.8510, 6074.000
630.0120, 6279.000
631.1740, 6413.000
632.3360, 6557.000
633.4970, 6680.000
634.6580, 6883.000
635.8200, 7208.000
636.9800, 7435.000
638.1410, 7589.000
639.3020, 7846.000
640.4620, 7898.000
641.6220, 7872.000
642.7820, 7795.000
643.9420, 7621.000
645.1020, 7321.000
646.2610, 7093.000
647.4210, 6958.000
648.5800, 6837.000
649.7390, 6663.000
650.8980, 6448.000
652.0570, 6445.000
653.2150, 6207.000
654.3730, 6209.000
655.5320, 6227.000
656.6900, 6151.000
657.8470, 6067.000
659.0050, 5963.000
660.1620, 5993.000
661.3200, 5806.000
662.4770, 5869.000
663.6340, 5854.000
664.7910, 5793.000
665.9470, 5726.000
667.1040, 5778.000
668.2600, 5646.000
669.4160, 5747.000
670.5720, 5676.000
671.7280, 5714.000
672.8840, 5680.000
674.0390, 5617.000
675.1940, 5621.000
676.3490, 5694.000
677.5040, 5564.000
678.6590, 5658.000
679.8140, 5639.000
680.9680, 5555.000
682.1220, 5567.000
683.2760, 5655.000
684.4300, 5599.000
685.5840, 5601.000
686.7380, 5547.000
687.8910, 5640.000
689.0440, 5560.000
690.1970, 5549.000
691.3500, 5569.000
692.5030, 5515.000
693.6560, 5648.000
694.8080, 5639.000
695.9600, 5608.000
697.1120, 5624.000
698.2640, 5534.000
699.4160, 5581.000
700.5670, 5624.000
701.7190, 5670.000
702.8700, 5623.000
704.0210, 5544.000
705.1720, 5546.000
706.3230, 5600.000
707.4730, 5662.000
708.6240, 5651.994
709.7740, 5678.100
710.9240, 5651.000
712.0740, 5665.000
713.2230, 5654.000
714.3730, 5629.000
715.5220, 5753.000
716.6720, 5767.000
717.8210, 5725.000
718.9690, 5627.000
720.1180, 5777.000
721.2670, 5693.000
722.4150, 5714.000
723.5630, 5724.000
724.7110, 5720.000
725.8590, 5807.000
727.0070, 5832.000
728.1540, 5838.000
729.3020, 5817.000
730.4490, 5793.000
731.5960, 5831.000
732.7430, 5848.000
733.8890, 5861.000
735.0360, 5876.000
736.1820, 5867.000
737.3280, 5857.000
738.4740, 5915.000
739.6200, 5900.000
740.7660, 5971.000
741.9120, 5962.000
743.0570, 5961.000
744.2020, 5992.000
745.3470, 5973.000
746.4920, 6091.000
747.6370, 6081.000
748.7810, 6093.000
749.9250, 6059.000
751.0700, 6077.000
752.2140, 6180.000
753.3580, 6073.000
754.5010, 6034.000
755.6450, 6182.000
756.7880, 6154.000
757.9310, 6155.000
759.0740, 6100.000
760.2170, 6192.000
761.3600, 6280.000
762.5020, 6219.000
763.6450, 6281.000
764.7870, 6290.000
765.9290, 6211.000
767.0710, 6294.000
768.2120, 6375.000
769.3540, 6373.000
770.4950, 6382.000
771.6370, 6381.813
772.7780, 6346.304
773.9180, 6334.000
775.0590, 6280.000
776.2000, 6252.000
777.3400, 6253.000
778.4800, 6298.000
779.6200, 6223.000
780.7600, 6329.000
781.9000, 6188.000
783.0390, 6261.000
784.1790, 6287.000
785.3180, 6374.000
786.4570, 6368.000
787.5960, 6330.000
788.7350, 6286.000
789.8730, 6408.000
791.0120, 6405.000
792.1500, 6419.000
793.2880, 6365.000
794.4260, 6314.000
795.5630, 6461.000
796.7010, 6479.000
797.8380, 6412.000
798.9760, 6393.000
800.1130, 6516.000
801.2500, 6444.000
802.3860, 6465.000
803.5230, 6486.000
804.6590, 6487.000
805.7960, 6640.000
806.9320, 6589.000
808.0680, 6551.000
809.2030, 6666.000
810.3390, 6577.000
811.4740, 6678.000
812.6100, 6663.000
813.7450, 6700.217
814.8800, 6801.000
816.0140, 6777.000
817.1490, 6796.000
818.2830, 6784.000
819.4180, 6820.338
820.5520, 6821.000
821.6860, 6902.469
822.8200, 6960.000
823.9530, 7001.000
825.0870, 7028.000
826.2200, 7057.000
827.3530, 7151.000
828.4860, 7117.000
829.6190, 7206.000
830.7510, 7189.000
831.8840, 7331.000
833.0160, 7394.000
834.1480, 7424.000
835.2800, 7390.000
836.4120, 7517.000
837.5440, 7649.000
838.6750, 7770.000
839.8070, 7880.000
840.9380, 7893.000
842.0690, 8031.000
843.2000, 8116.000
844.3300, 8298.162
845.4610, 8707.000
846.5910, 8750.000
847.7220, 9032.000
848.8520, 9333.000
849.9810, 9515.000
851.1110, 9947.000
852.2410, 10351.00
853.3700, 10829.00
854.4990, 11270.00
855.6280, 11665.00
856.7570, 12381.00
857.8860, 13053.00
859.0150, 13746.00
860.1430, 14279.00
861.2710, 15041.00
862.3990, 15795.00
863.5270, 15821.00
864.6550, 16062.00
865.7830, 16005.00
866.9100, 15795.00
868.0370, 15197.00
869.1640, 14865.00
870.2910, 14223.00
871.4180, 13877.00
872.5450, 13364.00
873.6710, 13050.00
874.7980, 12887.00
875.9240, 12680.00
877.0500, 12488.00
878.1760, 12497.00
879.3010, 12580.00
880.4270, 12444.00
881.5520, 12563.00
882.6770, 12732.00
883.8020, 12869.00
884.9270, 13140.88
886.0520, 13512.00
887.1760, 13794.00
888.3010, 14170.00
889.4250, 14661.52
890.5490, 15270.00
891.6730, 15925.00
892.7970, 16573.00
893.9200, 17328.00
895.0440, 18357.00
896.1670, 19117.00
897.2900, 20214.00
898.4130, 21149.00
899.5360, 22200.00
900.6580, 23671.00
901.7810, 25097.00
902.9030, 26935.00
904.0250, 29297.00
905.1470, 31707.00
906.2690, 35638.00
907.3910, 39666.00
908.5120, 45144.00
909.6330, 51332.00
910.7540, 58774.00
911.8750, 68366.00
912.9960, 79034.00
914.1170, 91101.00
915.2380, 103854.0
916.3580, 116589.0
917.4780, 127721.0
918.5980, 130438.0
919.7180, 130416.0
920.8380, 130434.0
921.9570, 130444.0
923.0770, 127720.0
924.1960, 115727.0
925.3150, 102404.0
926.4340, 89720.00
927.5530, 76937.00
928.6710, 65855.00
929.7900, 56896.00
930.9080, 49277.00
932.0260, 43134.00
933.1440, 38105.00
934.2620, 34118.00
935.3800, 30641.00
936.4970, 27646.00
937.6140, 25113.00
938.7320, 22979.00
939.8490, 21569.00
940.9660, 19805.00
942.0820, 18553.00
943.1990, 17546.00
944.3150, 16593.00
945.4310, 15611.00
946.5470, 14890.00
947.6630, 14161.00
948.7790, 13697.00
949.8950, 13151.00
951.0100, 12699.06
952.1250, 12499.00
953.2400, 11902.00
954.3550, 11850.00
955.4700, 11454.00
956.5850, 11275.00
957.6990, 10958.00
958.8140, 10894.00
959.9280, 10799.00
961.0420, 10601.00
962.1560, 10525.00
963.2690, 10286.00
964.3830, 10227.00
965.4960, 10239.00
966.6090, 10111.00
967.7230, 9981.000
968.8350, 9914.000
969.9480, 9805.000
971.0610, 9762.228
972.1730, 9802.000
973.2850, 9640.000
974.3980, 9691.000
975.5100, 9522.000
976.6210, 9604.000
977.7330, 9551.000
978.8440, 9570.000
979.9560, 9495.000
981.0670, 9566.000
982.1780, 9559.000
983.2890, 9507.000
984.3990, 9768.000
985.5100, 9434.000
986.6200, 9503.000
987.7310, 9526.000
988.8410, 9275.000
989.9510, 9360.000
991.0600, 9263.000
992.1700, 9279.000
993.2790, 9257.000
994.3890, 9170.000
995.4980, 9095.000
996.6070, 9037.000
997.7160, 9114.000
998.8240, 9096.000
999.9330, 9014.000
1001.041, 9087.000
1002.149, 8929.000
1003.257, 8960.000
1004.365, 9065.000
1005.473, 9072.000
1006.580, 9058.000
1007.688, 8974.000
1008.795, 8935.000
1009.902, 9099.000
1011.009, 9254.000
1012.116, 9149.000
1013.222, 9157.000
1014.329, 9242.000
1015.435, 9204.000
1016.541, 9283.000
1017.647, 9404.000
1018.753, 9517.000
1019.859, 9542.000
1020.964, 9658.000
1022.070, 9614.000
1023.175, 9757.000
1024.280, 9752.000
1025.385, 9725.000
1026.490, 10014.00
1027.594, 9916.000
1028.699, 9956.000
1029.803, 10081.00
1030.907, 10203.00
1032.011, 10336.00
1033.115, 10404.00
1034.219, 10652.00
1035.322, 10688.00
1036.426, 10676.00
1037.529, 10912.00
1038.632, 11065.00
1039.735, 11269.00
1040.837, 11457.00
1041.940, 11478.00
1043.042, 11839.00
1044.145, 11960.00
1045.247, 12320.00
1046.349, 12592.00
1047.451, 12657.00
1048.552, 12811.00
1049.654, 12921.00
1050.755, 12903.00
1051.856, 12882.00
1052.957, 12677.00
1054.058, 12362.00
1055.159, 12002.00
1056.259, 11743.00
1057.360, 11543.00
1058.460, 11157.00
1059.560, 10626.00
1060.660, 10305.00
1061.760, 10063.00
1062.860, 9920.000
1063.959, 9597.000
1065.058, 9473.000
1066.158, 9299.000
1067.257, 9065.000
1068.355, 9132.000
1069.454, 8989.000
1070.553, 8948.000
1071.651, 8744.000
1072.749, 8722.000
1073.847, 8690.000
1074.945, 8678.000
1076.043, 8631.000
1077.141, 8469.000
1078.238, 8584.000
1079.336, 8594.000
1080.433, 8774.000
1081.530, 8626.217
1082.627, 8752.000
1083.723, 8451.000
1084.820, 8393.000
1085.916, 8536.000
1087.013, 8408.000
1088.109, 8463.000
1089.205, 8412.567
1090.301, 8447.000
1091.396, 8439.074
1092.492, 8384.000
1093.587, 8398.000
1094.682, 8375.000
1095.777, 8292.000
1096.872, 8306.000
1097.967, 8202.000
1099.061, 8233.000
1100.156, 8185.000
1101.250, 8163.000
1102.344, 8242.000
1103.438, 8204.000
1104.532, 8214.000
1105.626, 8256.000
1106.719, 8325.000
1107.813, 8268.000
1108.906, 8276.000
1109.999, 8321.000
1111.092, 8252.000
1112.184, 8282.000
1113.277, 8189.000
1114.370, 8156.000
1115.462, 8218.000
1116.554, 8161.000
1117.646, 8199.000
1118.738, 8300.000
1119.829, 8195.000
1120.921, 8137.000
1122.012, 8180.000
1123.104, 8178.000
1124.195, 8155.000
1125.286, 8164.000
1126.376, 8188.023
1127.467, 8163.000
1128.557, 8238.000
1129.648, 8215.000
1130.738, 8193.000
1131.828, 8270.000
1132.918, 8200.000
1134.008, 8287.000
1135.097, 8232.000
1136.186, 8193.000
1137.276, 8300.000
1138.365, 8171.000
1139.454, 8383.000
1140.543, 8286.000
1141.631, 8297.000
1142.720, 8257.000
1143.808, 8180.000
1144.896, 8373.000
1145.984, 8249.000
1147.072, 8283.000
1148.160, 8221.000
1149.248, 8239.000
1150.335, 8279.000
1151.422, 8380.000
1152.509, 8383.000
1153.596, 8425.000
1154.683, 8434.000
1155.770, 8397.000
1156.857, 8487.000
1157.943, 8323.000
1159.029, 8326.000
1160.115, 8404.000
1161.201, 8503.000
1162.287, 8483.000
1163.373, 8480.000
1164.458, 8654.000
1165.543, 8633.000
1166.629, 8601.000
1167.714, 8637.000
1168.799, 8569.000
1169.883, 8624.000
1170.968, 8697.000
1172.052, 8715.000
1173.137, 8813.000
1174.221, 8767.000
1175.305, 8896.000
1176.389, 8778.000
1177.472, 8815.000
1178.556, 8804.000
1179.639, 8873.000
1180.722, 8840.000
1181.805, 8815.000
1182.888, 8861.000
1183.971, 8823.000
1185.054, 8898.000
1186.136, 8918.000
1187.219, 8862.000
1188.301, 8874.000
1189.383, 8933.000
1190.465, 8882.000
1191.547, 8905.000
1192.628, 8996.000
1193.710, 9020.000
1194.791, 8968.000
1195.872, 9007.000
1196.953, 8889.000
1198.034, 8950.000
1199.115, 8979.000
1200.195, 8952.000
1201.276, 8996.000
1202.356, 9078.000
1203.436, 9074.000
1204.516, 9020.416
1205.596, 9025.617
1206.675, 8987.873
1207.755, 8976.000
1208.834, 8947.000
1209.913, 8991.000
1210.992, 9019.973
1212.071, 9027.000
1213.150, 9012.000
1214.229, 8943.000
1215.307, 8855.000
1216.386, 8855.000
1217.464, 8829.011
1218.542, 8928.000
1219.620, 8845.000
1220.697, 8953.000
1221.775, 8969.000
1222.852, 8973.000
1223.930, 8942.000
1225.007, 8845.000
1226.084, 8827.554
1227.161, 8857.000
1228.237, 8727.000
1229.314, 8754.000
1230.390, 8716.968
1231.466, 8832.000
1232.543, 8827.000
1233.619, 8840.000
1234.694, 8917.000
1235.770, 8971.000
1236.845, 8884.000
1237.921, 8926.000
1238.996, 8948.000
1240.071, 8869.000
1241.146, 8957.000
1242.221, 8837.000
1243.295, 8915.000
1244.370, 8862.000
1245.444, 8999.000
1246.518, 8988.000
1247.592, 8930.000
1248.666, 8854.000
1249.740, 9053.000
1250.814, 9177.000
1251.887, 9033.000
1252.960, 8947.000
1254.034, 9019.000
1255.107, 9066.000
1256.179, 9064.000
1257.252, 9081.000
1258.325, 8967.000
1259.397, 9077.000
1260.469, 9120.000
1261.542, 9299.000
1262.614, 9259.062
1263.685, 9290.000
1264.757, 9283.000
1265.829, 9274.862
1266.900, 9300.000
1267.971, 9288.000
1269.042, 9253.000
1270.113, 9300.000
1271.184, 9200.000
1272.255, 9274.000
1273.325, 9212.000
1274.396, 9126.000
1275.466, 9271.000
1276.536, 9258.000
1277.606, 9353.000
1278.676, 9212.000
1279.745, 9345.000
1280.815, 9401.000
1281.884, 9360.000
1282.953, 9607.000
1284.022, 9325.000
1285.091, 9321.000
1286.160, 9415.000
1287.229, 9295.000
1288.297, 9191.000
1289.366, 9299.000
1290.434, 9293.000
1291.502, 9360.000
1292.570, 9287.000
1293.637, 9311.875
1294.705, 9287.000
1295.773, 9312.000
1296.840, 9289.000
1297.907, 9322.000
1298.974, 9298.000
1300.041, 9309.000
1301.108, 9295.000
1302.174, 9273.000
1303.241, 9319.000
1304.307, 9398.000
1305.373, 9188.000
1306.439, 9405.000
1307.505, 9147.000
1308.571, 9340.000
1309.636, 9377.000
1310.702, 9274.000
1311.767, 9231.000
1312.832, 9283.000
1313.897, 9374.000
1314.962, 9355.000
1316.027, 9242.000
1317.091, 9386.000
1318.156, 9235.000
1319.220, 9186.000
1320.284, 9235.000
1321.348, 9276.000
1322.412, 9313.000
1323.475, 9289.000
1324.539, 9326.000
1325.602, 9272.000
1326.666, 9180.000
1327.729, 9315.000
1328.792, 9107.000
1329.855, 9131.000
1330.917, 9266.000
1331.980, 9113.000
1333.042, 9272.000
1334.104, 9175.000
1335.167, 9299.000
1336.229, 9262.000
1337.290, 9237.000
1338.352, 9211.000
1339.414, 9178.000
1340.475, 9235.000
1341.536, 9182.082
1342.597, 9309.000
1343.658, 9166.000
1344.719, 9221.000
1345.780, 9290.000
1346.840, 9259.000
1347.901, 9393.000
1348.961, 9326.000
1350.021, 9259.000
1351.081, 9293.000
1352.141, 9235.000
1353.200, 9126.000
1354.260, 9253.000
1355.319, 9391.000
1356.379, 9421.000
1357.438, 9270.000
1358.497, 9370.000
1359.555, 9365.000
1360.614, 9361.000
1361.673, 9493.000
1362.731, 9315.000
1363.789, 9375.000
1364.847, 9401.000
1365.905, 9477.000
1366.963, 9416.000
1368.021, 9475.000
1369.078, 9409.000
1370.136, 9316.000
1371.193, 9476.000
1372.250, 9463.000
1373.307, 9362.000
1374.364, 9407.000
1375.420, 9541.000
1376.477, 9528.000
1377.533, 9569.000
1378.589, 9500.000
1379.646, 9395.000
1380.702, 9387.000
1381.757, 9566.000
1382.813, 9606.000
1383.869, 9521.000
1384.924, 9454.000
1385.979, 9566.000
1387.034, 9443.000
1388.089, 9560.000
1389.144, 9514.000
1390.199, 9520.000
1391.253, 9547.000
1392.308, 9552.000
1393.362, 9468.000
1394.416, 9556.000
1395.470, 9551.000
1396.524, 9597.000
1397.577, 9640.000
1398.631, 9678.000
1399.684, 9621.000
1400.738, 9697.000
1401.791, 9703.000
1402.844, 9640.000
1403.897, 9700.000
1404.949, 9714.000
1406.002, 9726.000
1407.054, 9633.000
1408.107, 9756.000
1409.159, 9774.000
1410.211, 9713.000
1411.263, 9834.000
1412.314, 9674.000
1413.366, 9745.000
1414.417, 9789.000
1415.468, 9862.000
1416.520, 9803.000
1417.571, 9813.000
1418.621, 9818.000
1419.672, 9879.000
1420.723, 9851.000
1421.773, 9781.000
1422.824, 9773.000
1423.874, 9840.000
1424.924, 9872.000
1425.974, 9911.000
1427.023, 9964.000
1428.073, 9852.000
1429.122, 9856.000
1430.172, 10024.00
1431.221, 9855.000
1432.270, 10029.00
1433.319, 9852.000
1434.367, 9918.000
1435.416, 10072.00
1436.465, 9987.000
1437.513, 10045.00
1438.561, 10109.00
1439.609, 10077.00
1440.657, 10114.00
1441.705, 10019.00
1442.752, 10062.00
1443.800, 9929.000
1444.847, 10076.00
1445.894, 10113.00
1446.942, 10027.00
1447.988, 10100.00
1449.035, 10023.00
1450.082, 9990.000
1451.128, 10153.00
1452.175, 10075.00
1453.221, 10052.00
1454.267, 10164.00
1455.313, 10092.00
1456.359, 10057.00
1457.405, 10017.00
1458.450, 10162.00
1459.496, 10184.00
1460.541, 10233.00
1461.586, 10136.00
1462.631, 10215.00
1463.676, 10132.45
1464.720, 10146.00
1465.765, 10084.00
1466.809, 10171.00
1467.854, 10163.84
1468.898, 10268.00
1469.942, 10242.00
1470.986, 10223.00
1472.029, 10298.00
1473.073, 10238.00
1474.116, 10237.00
1475.160, 10355.00
1476.203, 10360.00
1477.246, 10398.00
1478.289, 10395.00
1479.332, 10361.00
1480.374, 10394.00
1481.417, 10352.00
1482.459, 10418.00
1483.501, 10308.00
1484.543, 10491.00
1485.585, 10412.00
1486.627, 10511.00
1487.669, 10556.00
1488.710, 10349.00
1489.752, 10483.00
1490.793, 10500.00
1491.834, 10515.00
1492.875, 10522.00
1493.916, 10502.00
1494.956, 10551.00
1495.997, 10511.00
1497.037, 10638.00
1498.077, 10603.00
1499.118, 10521.00
1500.158, 10693.00
1501.197, 10434.00
1502.237, 10647.00
1503.277, 10687.00
1504.316, 10608.00
1505.355, 10562.00
1506.395, 10655.00
1507.434, 10696.00
1508.473, 10602.00
1509.511, 10618.00
1510.550, 10847.00
1511.588, 10573.00
1512.627, 10679.00
1513.665, 10749.00
1514.703, 10666.00
1515.741, 10762.00
1516.779, 10791.00
1517.816, 10669.00
1518.854, 10736.00
1519.891, 10651.00
1520.928, 10723.00
1521.966, 10801.00
1523.003, 10702.00
1524.039, 10782.00
1525.076, 10861.00
1526.113, 10650.00
1527.149, 10705.00
1528.185, 10597.00
1529.221, 10706.00
1530.257, 10687.00
1531.293, 10657.00
1532.329, 10678.00
1533.365, 10742.00
1534.400, 10786.00
1535.435, 10691.00
1536.471, 10734.00
1537.506, 10691.00
1538.541, 10745.00
1539.575, 10730.00
1540.610, 10700.00
1541.644, 10590.00
1542.679, 10650.00
1543.713, 10709.00
1544.747, 10835.00
1545.781, 10661.00
1546.815, 10606.00
1547.849, 10632.00
1548.882, 10729.00
1549.916, 10687.90
1550.949, 10756.00
1551.982, 10695.00
1553.015, 10794.00
1554.048, 10805.00
1555.081, 10889.00
1556.113, 10773.00
1557.146, 10707.00
1558.178, 10874.00
1559.210, 10643.00
1560.242, 10714.00
1561.274, 10804.00
1562.306, 10714.00
1563.338, 10820.00
1564.369, 10669.00
1565.400, 10748.00
1566.432, 10729.00
1567.463, 10721.86
1568.494, 10758.00
1569.525, 10764.00
1570.555, 10804.00
1571.586, 10821.00
1572.616, 10722.00
1573.647, 10859.00
1574.677, 10649.00
1575.707, 10762.00
1576.737, 10809.00
1577.766, 10732.00
1578.796, 10719.00
##END=



