##NAMES=Pyrope
##RRUFFID=R040159
##IDEAL CHEMISTRY=Mg_3_Al_2_(SiO_4_)_3_
##LOCALITY=Meronitz, Bohemia
##OWNER=RRUFF
##SOURCE=University of Arizona Mineral Museum
##DESCRIPTION=Deep red crystal fragments
##STATUS=The identification of this mineral has been confirmed by X-ray diffraction and chemical analysis
##URL=rruff.info/R040159
##MEASURED CHEMISTRY=(Mg_2.17_Fe^2+^_0.47_Ca_0.34_Mn_0.02_)_Σ=3_(Al_1.86_Cr_0.11_Ti_0.03_)_Σ=2_((Si_0.99_Al_0.01_)_Σ=1_O_4_)_3_; trace amounts of Rb?
##PIN_ID=L01351
##ORIENTATION=Laser parallel to (1 1 1). Fiducial mark perpendicular to laser is parallel to [-1 1 0]
88.22800, 4856.000
89.46700, 4707.000
90.70600, 4917.000
91.94400, 4970.000
93.18300, 4881.000
94.42100, 4682.000
95.65900, 4753.064
96.89700, 4711.819
98.13500, 4763.000
99.37300, 4788.000
100.6100, 4802.000
101.8480, 4821.000
103.0850, 4850.000
104.3220, 4965.000
105.5590, 5053.000
106.7950, 5111.000
108.0320, 5251.000
109.2680, 5160.000
110.5040, 5148.000
111.7400, 5169.000
112.9760, 5447.000
114.2120, 5639.000
115.4470, 5796.000
116.6820, 5904.000
117.9170, 5773.000
119.1520, 5704.000
120.3870, 5742.000
121.6220, 5668.000
122.8560, 5522.000
124.0900, 5413.000
125.3240, 5470.000
126.5580, 5209.000
127.7920, 5263.000
129.0260, 5274.000
130.2590, 5229.000
131.4920, 5232.000
132.7250, 5333.000
133.9580, 5222.000
135.1910, 5312.000
136.4230, 5201.000
137.6560, 5393.000
138.8880, 5363.000
140.1200, 5430.000
141.3520, 5407.000
142.5830, 5262.000
143.8150, 5342.000
145.0460, 5407.000
146.2770, 5449.000
147.5080, 5313.000
148.7390, 5286.000
149.9700, 5236.000
151.2000, 5226.000
152.4310, 5200.000
153.6610, 5152.000
154.8910, 5049.000
156.1210, 4902.000
157.3500, 4874.000
158.5800, 4834.000
159.8090, 4897.000
161.0380, 4833.000
162.2670, 4642.000
163.4960, 4703.000
164.7240, 4651.000
165.9530, 4624.000
167.1810, 4638.000
168.4090, 4668.000
169.6370, 4694.000
170.8650, 4674.000
172.0920, 4633.000
173.3200, 4607.000
174.5470, 4575.000
175.7740, 4594.445
177.0010, 4739.000
178.2280, 4674.000
179.4540, 4805.000
180.6810, 4904.000
181.9070, 4889.000
183.1330, 4989.000
184.3590, 5067.000
185.5850, 5125.000
186.8100, 5253.000
188.0350, 5421.000
189.2610, 5568.000
190.4860, 5654.000
191.7110, 5804.000
192.9350, 6042.000
194.1600, 6309.753
195.3840, 6321.580
196.6080, 6433.992
197.8320, 6376.000
199.0560, 6531.000
200.2800, 6585.000
201.5030, 6811.000
202.7270, 6899.000
203.9500, 7019.000
205.1730, 7127.982
206.3950, 7074.000
207.6180, 7232.000
208.8410, 7245.000
210.0630, 7182.466
211.2850, 7092.000
212.5070, 6964.000
213.7290, 6796.000
214.9500, 6738.000
216.1720, 6679.000
217.3930, 6485.000
218.6140, 6312.000
219.8350, 6257.000
221.0560, 6237.000
222.2770, 5976.000
223.4970, 5990.000
224.7170, 5933.000
225.9370, 5763.000
227.1570, 5670.000
228.3770, 5703.000
229.5970, 5567.000
230.8160, 5719.000
232.0350, 5686.000
233.2540, 5631.000
234.4730, 5680.000
235.6920, 5663.000
236.9110, 5678.000
238.1290, 5702.000
239.3470, 5776.000
240.5650, 5787.000
241.7830, 5768.000
243.0010, 5766.000
244.2180, 5908.000
245.4360, 5792.000
246.6530, 5899.000
247.8700, 5862.000
249.0870, 5943.000
250.3040, 5833.000
251.5200, 5955.000
252.7370, 5946.000
253.9530, 5921.000
255.1690, 5885.000
256.3850, 5924.000
257.6000, 5975.000
258.8160, 5842.000
260.0310, 5908.000
261.2460, 5910.000
262.4610, 5865.000
263.6760, 5837.000
264.8910, 5897.000
266.1050, 5911.000
267.3200, 5872.000
268.5340, 5914.000
269.7480, 5774.000
270.9620, 5922.000
272.1750, 5931.000
273.3890, 5836.000
274.6020, 5870.000
275.8150, 5826.000
277.0280, 5826.000
278.2410, 5832.222
279.4540, 5798.000
280.6660, 5852.000
281.8790, 5867.000
283.0910, 5908.000
284.3030, 5770.000
285.5140, 5906.000
286.7260, 5820.000
287.9380, 5873.000
289.1490, 6005.000
290.3600, 5882.000
291.5710, 5830.000
292.7820, 5969.000
293.9920, 5879.252
295.2030, 5909.606
296.4130, 5919.000
297.6230, 5910.000
298.8330, 6015.000
300.0430, 6044.000
301.2520, 6104.000
302.4620, 6097.000
303.6710, 6147.000
304.8800, 6137.000
306.0890, 6229.000
307.2980, 6402.000
308.5070, 6350.000
309.7150, 6523.000
310.9230, 6645.000
312.1310, 6597.000
313.3390, 6748.000
314.5470, 6849.000
315.7550, 6992.000
316.9620, 7054.957
318.1690, 7150.000
319.3760, 7155.000
320.5830, 7164.000
321.7900, 7180.000
322.9960, 7320.000
324.2030, 7260.000
325.4090, 7209.000
326.6150, 7364.000
327.8210, 7454.000
329.0270, 7545.000
330.2320, 7682.000
331.4380, 7830.754
332.6430, 7976.000
333.8480, 8208.000
335.0530, 8444.000
336.2580, 8703.000
337.4620, 9152.000
338.6670, 9532.000
339.8710, 9897.000
341.0750, 10269.00
342.2790, 10853.00
343.4820, 11465.00
344.6860, 12252.00
345.8890, 13103.00
347.0920, 14125.00
348.2960, 15200.00
349.4980, 16509.32
350.7010, 17982.02
351.9040, 19512.00
353.1060, 21399.00
354.3080, 23278.00
355.5100, 25355.00
356.7120, 27576.00
357.9140, 29059.00
359.1150, 30601.00
360.3170, 31211.00
361.5180, 31645.00
362.7190, 31028.00
363.9200, 29735.00
365.1200, 27990.00
366.3210, 26057.00
367.5210, 24032.00
368.7210, 21942.00
369.9210, 20143.00
371.1210, 18449.00
372.3210, 16973.74
373.5200, 15826.00
374.7200, 14561.00
375.9190, 13655.00
377.1180, 12876.00
378.3170, 12053.00
379.5150, 11435.00
380.7140, 10899.00
381.9120, 10265.00
383.1110, 9857.000
384.3090, 9326.865
385.5060, 8831.000
386.7040, 8470.000
387.9020, 7962.000
389.0990, 7691.000
390.2960, 7410.861
391.4930, 7246.000
392.6900, 6958.000
393.8860, 6718.000
395.0830, 6430.000
396.2790, 6329.000
397.4750, 6108.000
398.6710, 6024.000
399.8670, 5865.222
401.0630, 5769.000
402.2580, 5610.000
403.4540, 5466.000
404.6490, 5392.000
405.8440, 5330.000
407.0390, 5194.000
408.2330, 5061.000
409.4280, 5123.000
410.6220, 5037.000
411.8160, 4917.000
413.0100, 4932.000
414.2040, 4868.000
415.3980, 4841.000
416.5910, 4781.000
417.7850, 4752.000
418.9780, 4709.777
420.1710, 4670.312
421.3640, 4605.000
422.5560, 4608.000
423.7490, 4504.000
424.9410, 4485.000
426.1330, 4519.000
427.3250, 4508.000
428.5170, 4526.000
429.7090, 4495.032
430.9000, 4483.284
432.0910, 4442.000
433.2820, 4444.000
434.4730, 4469.000
435.6640, 4472.000
436.8550, 4463.551
438.0450, 4397.000
439.2360, 4444.000
440.4260, 4470.000
441.6160, 4478.000
442.8060, 4394.000
443.9950, 4428.000
445.1850, 4480.000
446.3740, 4444.000
447.5630, 4511.000
448.7520, 4525.000
449.9410, 4455.000
451.1300, 4610.000
452.3180, 4582.000
453.5060, 4637.000
454.6950, 4663.000
455.8830, 4772.000
457.0700, 4748.000
458.2580, 4832.000
459.4450, 4939.000
460.6330, 5014.000
461.8200, 5065.175
463.0070, 5158.000
464.1940, 5133.000
465.3800, 5219.000
466.5670, 5231.000
467.7530, 5321.000
468.9390, 5365.000
470.1250, 5472.000
471.3110, 5513.000
472.4970, 5593.000
473.6820, 5602.000
474.8680, 5672.000
476.0530, 5751.000
477.2380, 5867.000
478.4230, 5875.000
479.6070, 6048.000
480.7920, 6125.000
481.9760, 6302.000
483.1600, 6381.000
484.3440, 6458.000
485.5280, 6646.000
486.7120, 6656.000
487.8950, 6595.000
489.0780, 6560.000
490.2620, 6448.000
491.4450, 6231.000
492.6270, 6263.000
493.8100, 6146.000
494.9920, 6230.000
496.1750, 6211.000
497.3570, 6301.000
498.5390, 6319.000
499.7210, 6467.000
500.9020, 6628.758
502.0840, 6894.000
503.2650, 7092.000
504.4460, 7324.000
505.6270, 7676.000
506.8080, 7952.000
507.9890, 8132.000
509.1690, 8159.000
510.3500, 8086.000
511.5300, 8055.000
512.7100, 7813.000
513.8900, 7626.000
515.0690, 7445.000
516.2490, 7309.000
517.4280, 7165.000
518.6070, 7051.000
519.7860, 7002.000
520.9650, 7018.000
522.1440, 7006.891
523.3220, 7078.000
524.5010, 7069.000
525.6790, 7117.000
526.8570, 7113.000
528.0350, 7122.000
529.2130, 7189.000
530.3900, 7249.000
531.5670, 7273.000
532.7450, 7453.343
533.9220, 7563.326
535.0980, 7806.000
536.2750, 7963.000
537.4520, 8122.000
538.6280, 8463.000
539.8040, 8832.000
540.9800, 9305.000
542.1560, 9774.000
543.3320, 10315.00
544.5070, 10934.00
545.6830, 11775.00
546.8580, 12631.00
548.0330, 13781.00
549.2080, 14957.00
550.3830, 16536.00
551.5570, 18161.00
552.7310, 20001.00
553.9060, 21991.00
555.0800, 23810.00
556.2540, 25531.00
557.4270, 26828.00
558.6010, 27118.00
559.7740, 26388.00
560.9470, 24834.00
562.1210, 22901.00
563.2930, 20254.00
564.4660, 17541.00
565.6390, 15339.00
566.8110, 13392.00
567.9830, 11772.00
569.1550, 10424.00
570.3270, 9400.000
571.4990, 8493.000
572.6710, 7800.000
573.8420, 7361.000
575.0130, 6910.000
576.1840, 6677.000
577.3550, 6353.000
578.5260, 6157.000
579.6970, 6043.000
580.8670, 5821.000
582.0370, 5761.000
583.2070, 5672.000
584.3770, 5591.000
585.5470, 5527.000
586.7170, 5493.000
587.8860, 5480.000
589.0550, 5393.000
590.2240, 5383.000
591.3930, 5283.000
592.5620, 5296.000
593.7310, 5267.000
594.8990, 5271.000
596.0670, 5143.000
597.2350, 5016.000
598.4030, 5041.000
599.5710, 4880.000
600.7390, 4914.000
601.9060, 4783.000
603.0740, 4739.000
604.2410, 4708.000
605.4080, 4711.000
606.5740, 4623.000
607.7410, 4688.000
608.9080, 4643.000
610.0740, 4572.000
611.2400, 4619.000
612.4060, 4462.000
613.5720, 4539.000
614.7370, 4500.000
615.9030, 4523.000
617.0680, 4602.000
618.2330, 4565.000
619.3980, 4586.000
620.5630, 4585.000
621.7280, 4620.000
622.8920, 4709.000
624.0570, 4790.000
625.2210, 4893.000
626.3850, 5021.000
627.5490, 5133.000
628.7120, 5310.000
629.8760, 5493.000
631.0390, 5823.000
632.2020, 5988.000
633.3650, 6316.000
634.5280, 6788.000
635.6910, 7102.000
636.8530, 7599.000
638.0160, 8007.000
639.1780, 8442.000
640.3400, 8798.000
641.5020, 9004.000
642.6640, 9133.000
643.8250, 9053.000
644.9870, 8686.000
646.1480, 8122.000
647.3090, 7657.000
648.4700, 7168.000
649.6300, 6580.000
650.7910, 6306.000
651.9510, 5868.000
653.1120, 5617.000
654.2720, 5375.000
655.4320, 5220.000
656.5910, 5034.682
657.7510, 4885.000
658.9100, 4762.000
660.0690, 4667.000
661.2290, 4563.000
662.3880, 4461.915
663.5460, 4373.000
664.7050, 4290.000
665.8630, 4213.000
667.0220, 4171.000
668.1800, 4044.000
669.3380, 3974.000
670.4950, 3890.000
671.6530, 3947.000
672.8100, 3876.000
673.9680, 3844.000
675.1250, 3809.000
676.2820, 3747.000
677.4390, 3723.000
678.5950, 3686.348
679.7520, 3638.000
680.9080, 3629.000
682.0640, 3588.000
683.2200, 3557.000
684.3760, 3578.000
685.5320, 3592.000
686.6870, 3575.000
687.8420, 3583.000
688.9980, 3525.000
690.1530, 3568.000
691.3070, 3592.000
692.4620, 3519.000
693.6170, 3491.000
694.7710, 3519.000
695.9250, 3534.000
697.0790, 3433.000
698.2330, 3467.000
699.3870, 3466.000
700.5400, 3448.000
701.6940, 3443.000
702.8470, 3463.000
704.0000, 3469.000
705.1530, 3465.901
706.3050, 3463.364
707.4580, 3470.000
708.6100, 3478.682
709.7630, 3476.000
710.9150, 3504.000
712.0660, 3513.000
713.2180, 3520.864
714.3700, 3405.000
715.5210, 3498.000
716.6720, 3470.000
717.8240, 3406.000
718.9740, 3451.000
720.1250, 3442.000
721.2760, 3444.000
722.4260, 3410.000
723.5770, 3491.000
724.7270, 3490.000
725.8770, 3476.000
727.0260, 3479.000
728.1760, 3548.000
729.3250, 3521.000
730.4750, 3556.000
731.6240, 3472.000
732.7730, 3506.000
733.9220, 3508.000
735.0700, 3491.000
736.2190, 3481.000
737.3670, 3512.000
738.5150, 3518.000
739.6630, 3509.000
740.8110, 3519.743
741.9590, 3539.000
743.1060, 3526.000
744.2540, 3578.000
745.4010, 3610.000
746.5480, 3563.000
747.6950, 3524.000
748.8410, 3585.000
749.9880, 3518.000
751.1340, 3624.000
752.2800, 3507.000
753.4260, 3467.000
754.5720, 3542.000
755.7180, 3602.000
756.8640, 3537.000
758.0090, 3562.000
759.1540, 3525.000
760.2990, 3524.505
761.4440, 3499.000
762.5890, 3515.000
763.7340, 3505.736
764.8780, 3574.000
766.0220, 3537.000
767.1660, 3568.000
768.3100, 3654.000
769.4540, 3559.000
770.5980, 3557.000
771.7410, 3614.000
772.8840, 3641.000
774.0280, 3641.000
775.1700, 3617.000
776.3130, 3652.000
777.4560, 3668.000
778.5980, 3663.000
779.7410, 3687.000
780.8830, 3721.000
782.0250, 3648.000
783.1670, 3785.000
784.3080, 3758.000
785.4500, 3718.000
786.5910, 3817.000
787.7320, 3816.000
788.8730, 3804.000
790.0140, 3819.000
791.1550, 3849.000
792.2950, 3893.000
793.4360, 3854.000
794.5760, 3875.000
795.7160, 3855.000
796.8560, 3949.000
797.9960, 3859.000
799.1350, 3910.000
800.2750, 3864.000
801.4140, 3983.000
802.5530, 3930.000
803.6920, 3938.000
804.8310, 4077.000
805.9690, 4061.000
807.1080, 4181.000
808.2460, 4104.000
809.3840, 4100.000
810.5220, 4202.000
811.6600, 4225.000
812.7970, 4320.000
813.9350, 4297.000
815.0720, 4437.000
816.2090, 4443.000
817.3460, 4439.000
818.4830, 4571.000
819.6200, 4624.000
820.7560, 4616.000
821.8930, 4762.000
823.0290, 4822.000
824.1650, 4937.000
825.3010, 4958.000
826.4360, 5187.000
827.5720, 5121.000
828.7070, 5285.000
829.8420, 5287.000
830.9770, 5325.000
832.1120, 5528.000
833.2470, 5734.000
834.3820, 5750.000
835.5160, 5806.000
836.6500, 5871.000
837.7840, 6136.000
838.9180, 6396.000
840.0520, 6596.000
841.1860, 6911.000
842.3190, 7210.955
843.4520, 7505.000
844.5850, 7942.000
845.7180, 8413.000
846.8510, 8920.000
847.9840, 9531.000
849.1160, 10220.00
850.2490, 10944.00
851.3810, 11880.00
852.5130, 12761.00
853.6450, 13824.00
854.7760, 14931.00
855.9080, 16016.00
857.0390, 17164.00
858.1700, 17898.00
859.3010, 18605.00
860.4320, 18841.00
861.5630, 18934.00
862.6930, 18764.00
863.8240, 18074.00
864.9540, 17279.00
866.0840, 16580.00
867.2140, 15664.00
868.3440, 14844.00
869.4730, 13943.00
870.6030, 13289.00
871.7320, 12776.00
872.8610, 12106.00
873.9900, 11620.00
875.1190, 11138.00
876.2470, 10938.00
877.3760, 10613.00
878.5040, 10459.00
879.6320, 10297.00
880.7600, 10326.00
881.8880, 10304.02
883.0150, 10299.00
884.1430, 10500.00
885.2700, 10652.00
886.3970, 10904.00
887.5240, 10989.00
888.6510, 11349.00
889.7780, 11659.00
890.9040, 12027.00
892.0310, 12566.00
893.1570, 12790.00
894.2830, 13449.00
895.4090, 14047.00
896.5350, 14566.00
897.6600, 15410.00
898.7860, 16101.00
899.9110, 17303.00
901.0360, 18580.00
902.1610, 20358.00
903.2860, 22260.00
904.4100, 24657.00
905.5350, 27556.00
906.6590, 31013.00
907.7830, 35354.00
908.9070, 40090.00
910.0310, 46142.00
911.1540, 52519.00
912.2780, 59955.00
913.4010, 67276.00
914.5240, 75085.00
915.6470, 82036.00
916.7700, 87491.00
917.8930, 91528.00
919.0150, 92310.00
920.1380, 89478.00
921.2600, 84596.00
922.3820, 77866.00
923.5040, 69490.00
924.6260, 61122.00
925.7470, 53543.00
926.8690, 46475.00
927.9900, 40270.00
929.1110, 35007.00
930.2320, 30749.00
931.3530, 27207.00
932.4730, 24212.00
933.5940, 21656.00
934.7140, 19538.00
935.8340, 17756.00
936.9540, 16317.00
938.0740, 14913.00
939.1930, 13872.00
940.3130, 12667.00
941.4320, 11852.00
942.5510, 11226.00
943.6700, 10434.00
944.7890, 9762.000
945.9080, 9405.000
947.0260, 8976.000
948.1450, 8639.000
949.2630, 8320.928
950.3810, 8036.205
951.4990, 7783.089
952.6170, 7590.000
953.7340, 7360.000
954.8520, 7212.000
955.9690, 7070.000
957.0860, 7125.000
958.2030, 7019.854
959.3200, 6861.011
960.4360, 6939.000
961.5530, 6570.000
962.6690, 6437.000
963.7850, 6441.000
964.9010, 6352.000
966.0170, 6404.000
967.1330, 6195.000
968.2480, 6168.000
969.3630, 6113.000
970.4790, 6021.000
971.5940, 5987.085
972.7080, 5994.000
973.8230, 5920.000
974.9380, 5875.000
976.0520, 5931.000
977.1660, 5883.000
978.2800, 5839.000
979.3940, 5804.000
980.5080, 5808.000
981.6220, 5782.000
982.7350, 5812.000
983.8480, 5802.000
984.9610, 5706.000
986.0740, 5679.000
987.1870, 5708.000
988.3000, 5502.000
989.4120, 5547.000
990.5250, 5507.000
991.6370, 5428.000
992.7490, 5282.000
993.8610, 5264.000
994.9720, 5149.000
996.0840, 5184.000
997.1950, 5019.000
998.3060, 5000.000
999.4170, 4953.000
1000.528, 4837.000
1001.639, 4904.000
1002.750, 4859.000
1003.860, 4794.000
1004.970, 4844.000
1006.080, 4730.000
1007.190, 4868.000
1008.300, 4796.227
1009.410, 4918.000
1010.519, 4777.000
1011.628, 4886.000
1012.738, 4966.000
1013.846, 4989.000
1014.955, 5021.000
1016.064, 5087.144
1017.172, 5148.815
1018.281, 5220.000
1019.389, 5331.000
1020.497, 5447.000
1021.605, 5584.000
1022.713, 5647.000
1023.820, 5640.000
1024.928, 5781.000
1026.035, 5961.000
1027.142, 6011.000
1028.249, 5961.000
1029.356, 6137.000
1030.462, 6073.000
1031.569, 6154.000
1032.675, 6226.000
1033.781, 6386.000
1034.887, 6502.000
1035.993, 6447.000
1037.098, 6624.000
1038.204, 6728.000
1039.309, 6825.000
1040.415, 7162.000
1041.520, 7187.000
1042.624, 7453.000
1043.729, 7669.000
1044.834, 7929.000
1045.938, 8131.000
1047.042, 8376.000
1048.146, 8598.000
1049.250, 8832.000
1050.354, 8964.000
1051.458, 9119.000
1052.561, 9251.000
1053.664, 9165.000
1054.767, 9083.000
1055.870, 8720.000
1056.973, 8264.000
1058.076, 7935.000
1059.178, 7515.000
1060.281, 7113.902
1061.383, 6601.000
1062.485, 6365.000
1063.587, 5932.000
1064.688, 5671.000
1065.790, 5419.000
1066.891, 5291.000
1067.993, 5051.000
1069.094, 4927.000
1070.195, 4741.000
1071.295, 4619.000
1072.396, 4509.000
1073.496, 4446.000
1074.597, 4262.000
1075.697, 4312.000
1076.797, 4313.000
1077.897, 4110.000
1078.996, 4133.000
1080.096, 4085.000
1081.195, 3974.000
1082.294, 4052.000
1083.393, 4028.000
1084.492, 3966.000
1085.591, 4006.000
1086.689, 3985.000
1087.788, 3925.000
1088.886, 3903.000
1089.984, 3844.000
1091.082, 3842.000
1092.180, 3881.000
1093.277, 3799.000
1094.375, 3833.000
1095.472, 3835.000
1096.569, 3733.000
1097.666, 3797.000
1098.763, 3837.000
1099.860, 3720.000
1100.956, 3746.000
1102.053, 3702.000
1103.149, 3776.000
1104.245, 3682.000
1105.341, 3685.000
1106.436, 3692.000
1107.532, 3611.000
1108.627, 3650.000
1109.723, 3668.000
1110.818, 3686.000
1111.913, 3635.000
1113.007, 3643.086
1114.102, 3591.000
1115.197, 3602.000
1116.291, 3628.000
1117.385, 3603.337
1118.479, 3577.561
1119.573, 3548.000
1120.666, 3548.833
1121.760, 3522.000
1122.853, 3556.000
1123.947, 3576.000
1125.040, 3586.000
1126.132, 3568.000
1127.225, 3510.000
1128.318, 3463.000
1129.410, 3478.649
1130.502, 3477.699
1131.595, 3493.000
1132.687, 3489.009
1133.778, 3497.000
1134.870, 3481.000
1135.961, 3471.000
1137.053, 3466.000
1138.144, 3446.000
1139.235, 3493.000
1140.326, 3491.000
1141.416, 3503.467
1142.507, 3476.000
1143.597, 3517.000
1144.688, 3481.000
1145.778, 3460.000
1146.868, 3459.000
1147.957, 3495.000
1149.047, 3424.000
1150.136, 3468.000
1151.226, 3425.000
1152.315, 3471.000
1153.404, 3528.000
1154.493, 3491.000
1155.581, 3439.000
1156.670, 3470.000
1157.758, 3590.000
1158.846, 3474.000
1159.934, 3513.000
1161.022, 3455.000
1162.110, 3586.000
1163.198, 3522.000
1164.285, 3545.052
1165.372, 3504.000
1166.459, 3517.000
1167.546, 3526.763
1168.633, 3546.000
1169.720, 3548.000
1170.806, 3556.000
1171.892, 3548.000
1172.979, 3543.000
1174.065, 3584.000
1175.150, 3590.000
1176.236, 3577.635
1177.322, 3650.000
1178.407, 3558.000
1179.492, 3579.000
1180.577, 3602.000
1181.662, 3574.000
1182.747, 3665.000
1183.832, 3587.000
1184.916, 3696.000
1186.000, 3639.000
1187.084, 3594.000
1188.168, 3603.000
1189.252, 3582.962
1190.336, 3645.000
1191.419, 3566.000
1192.503, 3647.000
1193.586, 3578.000
1194.669, 3659.000
1195.752, 3667.000
1196.835, 3606.000
1197.917, 3696.000
1199.000, 3656.000
1200.082, 3661.000
1201.164, 3596.000
1202.246, 3636.000
1203.328, 3534.000
1204.409, 3629.000
1205.491, 3540.000
1206.572, 3655.000
1207.653, 3595.000
1208.734, 3636.000
1209.815, 3678.000
1210.896, 3572.000
1211.976, 3535.000
1213.057, 3578.000
1214.137, 3648.000
1215.217, 3649.000
1216.297, 3551.000
1217.377, 3520.000
1218.456, 3464.000
1219.536, 3530.000
1220.615, 3574.000
1221.694, 3564.000
1222.773, 3594.885
1223.852, 3576.000
1224.931, 3592.000
1226.009, 3556.000
1227.088, 3537.000
1228.166, 3540.000
1229.244, 3480.000
1230.322, 3522.000
1231.400, 3505.000
1232.477, 3568.000
1233.555, 3510.000
1234.632, 3571.000
1235.709, 3557.000
1236.786, 3544.000
1237.863, 3468.000
1238.939, 3484.000
1240.016, 3524.000
1241.092, 3568.000
1242.168, 3556.000
1243.245, 3567.000
1244.320, 3524.000
1245.396, 3505.000
1246.472, 3449.000
1247.547, 3543.000
1248.622, 3470.000
1249.697, 3542.000
1250.772, 3449.000
1251.847, 3489.000
1252.922, 3559.000
1253.996, 3455.000
1255.071, 3494.000
1256.145, 3573.000
1257.219, 3535.000
1258.293, 3524.000
1259.366, 3503.000
1260.440, 3492.000
1261.513, 3493.579
1262.587, 3552.000
1263.660, 3510.000
1264.733, 3566.815
1265.805, 3594.000
1266.878, 3615.000
1267.951, 3562.000
1269.023, 3559.000
1270.095, 3473.000
1271.167, 3493.000
1272.239, 3523.190
1273.311, 3511.057
1274.382, 3533.858
1275.454, 3559.000
1276.525, 3540.000
1277.596, 3565.000
1278.667, 3541.395
1279.738, 3619.000
1280.808, 3584.000
1281.879, 3572.000
1282.949, 3670.000
1284.019, 3588.000
1285.089, 3588.000
1286.159, 3562.000
1287.229, 3586.000
1288.298, 3540.000
1289.368, 3499.000
1290.437, 3461.000
1291.506, 3454.000
1292.575, 3569.000
1293.644, 3549.000
1294.712, 3537.000
1295.781, 3473.000
1296.849, 3568.000
1297.917, 3517.000
1298.985, 3500.000
1300.053, 3527.000
1301.121, 3514.000
1302.188, 3460.000
1303.255, 3497.000
1304.323, 3479.910
1305.390, 3481.000
1306.457, 3502.000
1307.523, 3476.000
1308.590, 3499.000
1309.656, 3482.913
1310.723, 3520.000
1311.789, 3478.000
1312.855, 3454.000
1313.921, 3493.000
1314.986, 3529.000
1316.052, 3419.000
1317.117, 3446.000
1318.182, 3425.000
1319.248, 3424.000
1320.312, 3446.000
1321.377, 3425.000
1322.442, 3400.000
1323.506, 3428.000
1324.571, 3454.000
1325.635, 3351.000
1326.699, 3404.902
1327.762, 3377.289
1328.826, 3412.000
1329.890, 3361.000
1330.953, 3336.000
1332.016, 3304.000
1333.079, 3311.969
1334.142, 3337.000
1335.205, 3353.000
1336.268, 3296.000
1337.330, 3320.000
1338.392, 3303.000
1339.454, 3325.000
1340.516, 3365.000
1341.578, 3382.000
1342.640, 3294.000
1343.701, 3337.000
1344.763, 3288.000
1345.824, 3317.000
1346.885, 3216.000
1347.946, 3322.000
1349.007, 3324.000
1350.067, 3280.000
1351.128, 3362.000
1352.188, 3326.000
1353.248, 3242.000
1354.308, 3274.000
1355.368, 3280.000
1356.428, 3266.000
1357.487, 3358.000
1358.547, 3377.000
1359.606, 3341.772
1360.665, 3317.000
1361.724, 3262.000
1362.783, 3308.000
1363.841, 3289.000
1364.900, 3327.000
1365.958, 3320.000
1367.016, 3283.000
1368.074, 3362.000
1369.132, 3339.000
1370.190, 3250.000
1371.247, 3277.000
1372.304, 3269.000
1373.362, 3318.000
1374.419, 3298.000
1375.476, 3306.000
1376.532, 3243.000
1377.589, 3320.000
1378.645, 3294.000
1379.702, 3320.000
1380.758, 3295.000
1381.814, 3317.000
1382.870, 3335.000
1383.925, 3314.000
1384.981, 3332.000
1386.036, 3339.438
1387.092, 3336.776
1388.147, 3350.000
1389.202, 3333.000
1390.256, 3305.000
1391.311, 3276.000
1392.365, 3379.000
1393.420, 3298.000
1394.474, 3299.000
1395.528, 3302.000
1396.582, 3233.000
1397.636, 3293.000
1398.689, 3320.000
1399.742, 3316.000
1400.796, 3253.000
1401.849, 3275.000
1402.902, 3284.000
1403.955, 3349.000
1405.007, 3356.000
1406.060, 3316.000
1407.112, 3324.000
1408.164, 3318.000
1409.216, 3280.000
1410.268, 3273.000
1411.320, 3373.000
1412.371, 3310.000
1413.423, 3393.000
1414.474, 3344.000
1415.525, 3354.000
1416.576, 3360.000
1417.627, 3363.000
1418.678, 3379.000
1419.728, 3373.000
1420.778, 3338.000
1421.829, 3386.000
1422.879, 3378.000
1423.928, 3282.000
1424.978, 3341.000
1426.028, 3375.000
1427.077, 3436.000
1428.126, 3347.000
1429.176, 3347.000
1430.225, 3373.000
1431.273, 3394.000
1432.322, 3389.000
1433.371, 3402.731
1434.419, 3392.000
1435.467, 3405.000
1436.515, 3401.000
1437.563, 3400.000
1438.611, 3412.491
1439.658, 3384.000
1440.706, 3415.000
1441.753, 3393.000
1442.800, 3354.000
1443.847, 3335.000
1444.894, 3355.000
1445.941, 3391.000
1446.987, 3363.482
1448.034, 3391.000
1449.080, 3342.000
1450.126, 3365.000
1451.172, 3374.000
1452.218, 3397.000
1453.263, 3326.000
1454.309, 3305.000
1455.354, 3403.000
1456.399, 3362.000
1457.444, 3483.000
1458.489, 3419.000
1459.534, 3407.000
1460.579, 3366.000
1461.623, 3437.000
1462.667, 3346.000
1463.711, 3380.000
1464.755, 3354.000
1465.799, 3499.000
1466.843, 3427.000
1467.886, 3380.000
1468.930, 3505.000
1469.973, 3475.000
1471.016, 3437.000
1472.059, 3496.000
1473.101, 3497.000
1474.144, 3358.000
1475.186, 3452.000
1476.229, 3400.000
1477.271, 3429.000
1478.313, 3505.000
1479.355, 3508.000
1480.396, 3496.000
1481.438, 3501.000
1482.479, 3578.000
1483.520, 3403.000
1484.561, 3466.000
1485.602, 3555.000
1486.643, 3465.000
1487.684, 3503.000
1488.724, 3463.000
1489.765, 3524.000
1490.805, 3523.000
1491.845, 3515.000
1492.885, 3553.000
1493.924, 3579.000
1494.964, 3576.000
1496.003, 3521.000
1497.042, 3475.000
1498.082, 3522.000
1499.120, 3513.248
1500.159, 3598.000
1501.198, 3569.000
1502.236, 3575.000
1503.275, 3577.000
1504.313, 3555.000
1505.351, 3510.000
1506.389, 3518.000
1507.427, 3629.000
1508.464, 3539.000
1509.502, 3582.000
1510.539, 3579.000
1511.576, 3531.000
1512.613, 3569.000
1513.650, 3635.000
1514.687, 3604.123
1515.723, 3614.358
1516.759, 3627.000
1517.796, 3569.000
1518.832, 3627.000
1519.868, 3614.000
1520.903, 3569.000
1521.939, 3600.000
1522.975, 3623.000
1524.010, 3531.000
1525.045, 3560.000
1526.080, 3569.466
1527.115, 3557.335
1528.150, 3612.000
1529.184, 3579.000
1530.219, 3563.000
1531.253, 3550.000
1532.287, 3611.000
1533.321, 3547.000
1534.355, 3490.000
1535.388, 3590.000
1536.422, 3590.000
1537.455, 3509.000
1538.488, 3556.000
1539.522, 3527.000
1540.554, 3585.000
1541.587, 3534.000
1542.620, 3573.000
1543.652, 3635.000
1544.685, 3566.000
1545.717, 3605.000
1546.749, 3624.000
1547.781, 3552.000
1548.812, 3550.000
1549.844, 3603.000
1550.875, 3554.000
1551.906, 3595.000
1552.938, 3685.000
1553.968, 3767.000
1554.999, 3720.000
1556.030, 3617.000
1557.060, 3619.000
1558.091, 3614.000
1559.121, 3553.000
1560.151, 3550.000
1561.181, 3608.000
1562.211, 3566.000
1563.240, 3552.000
1564.270, 3673.000
1565.299, 3635.000
1566.328, 3661.000
1567.357, 3589.000
1568.386, 3606.000
1569.415, 3650.000
1570.443, 3586.000
1571.472, 3588.000
1572.500, 3670.000
1573.528, 3608.000
1574.556, 3607.000
1575.584, 3531.000
1576.611, 3697.000
##END=



