##NAMES=Pyrope
##RRUFFID=R060445
##IDEAL CHEMISTRY=Mg_3_Al_2_(SiO_4_)_3_
##LOCALITY=Tanzania
##OWNER=RRUFF
##SOURCE=Gemological Institute of America
##DESCRIPTION=Deep red water worn pebble, variety rhodolite
##STATUS=The identification of this mineral has been confirmed by X-ray diffraction and chemical analysis
##URL=rruff.info/R060445
##MEASURED CHEMISTRY=(Mg_1.83_Fe_1.08_Ca_0.07_Mn_0.02_)_Î£=3_Al_2.00_(Si_1.00_O_4_)_3_
##PIN_ID=L00835
##ORIENTATION=Laser parallel to a* (1 0 0). Fiducial mark perpendicular to laser is parallel to -c [0 0 -1]
61.44800, 631.0000
62.69200, 645.0000
63.93500, 630.0000
65.17800, 657.0000
66.42100, 668.0000
67.66400, 735.0000
68.90700, 759.0000
70.15000, 696.0000
71.39200, 765.0000
72.63400, 737.0000
73.87600, 826.0000
75.11800, 922.0000
76.36000, 928.0000
77.60100, 957.0000
78.84200, 920.0000
80.08400, 934.0000
81.32500, 930.7012
82.56500, 961.0000
83.80600, 933.0000
85.04600, 927.0000
86.28700, 942.0000
87.52700, 985.0000
88.76700, 929.0000
90.00600, 877.0000
91.24600, 971.0000
92.48500, 1003.000
93.72500, 1086.000
94.96400, 1145.000
96.20300, 1198.000
97.44100, 1263.000
98.68000, 1381.000
99.91800, 1540.000
101.1560, 1645.000
102.3940, 1724.000
103.6320, 1809.000
104.8700, 2010.000
106.1070, 2166.000
107.3450, 2127.000
108.5820, 2114.000
109.8190, 2200.000
111.0550, 2279.000
112.2920, 2358.000
113.5290, 2463.000
114.7650, 2534.615
116.0010, 2621.000
117.2370, 2694.000
118.4730, 2726.000
119.7080, 2799.000
120.9440, 2714.000
122.1790, 2853.000
123.4140, 2830.000
124.6490, 2872.000
125.8830, 2952.000
127.1180, 3003.000
128.3520, 3075.000
129.5870, 3170.000
130.8210, 3054.000
132.0540, 3150.000
133.2880, 3120.000
134.5220, 3160.000
135.7550, 3305.000
136.9880, 3250.000
138.2210, 3278.000
139.4540, 3399.000
140.6860, 3433.000
141.9190, 3491.000
143.1510, 3429.000
144.3830, 3487.000
145.6150, 3496.000
146.8470, 3480.000
148.0790, 3540.000
149.3100, 3577.000
150.5410, 3589.000
151.7720, 3601.454
153.0030, 3525.000
154.2340, 3555.000
155.4640, 3539.000
156.6950, 3448.000
157.9250, 3499.000
159.1550, 3546.000
160.3850, 3425.000
161.6150, 3459.000
162.8440, 3458.000
164.0730, 3497.000
165.3030, 3533.000
166.5320, 3488.000
167.7600, 3468.000
168.9890, 3434.000
170.2180, 3453.000
171.4460, 3455.000
172.6740, 3502.000
173.9020, 3548.000
175.1300, 3615.527
176.3570, 3667.013
177.5850, 3770.000
178.8120, 3807.000
180.0390, 3848.000
181.2660, 3960.000
182.4930, 3993.000
183.7190, 4020.000
184.9460, 4006.000
186.1720, 3987.000
187.3980, 3996.000
188.6240, 3964.000
189.8500, 3971.000
191.0750, 3862.000
192.3010, 3907.000
193.5260, 3923.000
194.7510, 3905.000
195.9760, 3965.000
197.2000, 4006.440
198.4250, 4036.000
199.6490, 4163.000
200.8730, 4268.000
202.0970, 4400.000
203.3210, 4398.000
204.5450, 4504.000
205.7680, 4583.000
206.9920, 4688.000
208.2150, 4762.000
209.4380, 4764.000
210.6610, 4825.000
211.8830, 4606.000
213.1060, 4471.000
214.3280, 4438.000
215.5500, 4209.000
216.7720, 4199.000
217.9940, 3995.000
219.2150, 3924.000
220.4370, 3861.000
221.6580, 3919.000
222.8790, 3856.000
224.1000, 3808.000
225.3210, 3793.000
226.5410, 3755.095
227.7620, 3752.000
228.9820, 3754.000
230.2020, 3779.000
231.4220, 3863.000
232.6410, 3780.000
233.8610, 3856.000
235.0800, 3926.000
236.2990, 3916.000
237.5180, 3882.000
238.7370, 3931.897
239.9560, 3929.000
241.1750, 3979.000
242.3930, 4007.000
243.6110, 4038.000
244.8290, 4053.000
246.0470, 4105.000
247.2640, 4137.000
248.4820, 4160.000
249.6990, 4236.000
250.9160, 4286.000
252.1330, 4334.000
253.3500, 4298.000
254.5670, 4314.000
255.7830, 4337.000
256.9990, 4373.000
258.2160, 4296.000
259.4310, 4326.000
260.6470, 4415.000
261.8630, 4314.000
263.0780, 4421.000
264.2930, 4372.000
265.5090, 4539.000
266.7230, 4538.000
267.9380, 4583.000
269.1530, 4571.000
270.3670, 4514.000
271.5810, 4572.000
272.7950, 4572.000
274.0090, 4634.000
275.2230, 4564.000
276.4370, 4684.000
277.6500, 4619.000
278.8630, 4628.000
280.0760, 4738.000
281.2890, 4704.000
282.5020, 4666.000
283.7140, 4598.000
284.9270, 4735.000
286.1390, 4686.000
287.3510, 4732.000
288.5630, 4638.000
289.7740, 4695.000
290.9860, 4668.000
292.1970, 4724.000
293.4080, 4783.000
294.6190, 4800.000
295.8300, 4755.000
297.0410, 4774.000
298.2510, 4853.000
299.4610, 4927.000
300.6710, 4938.000
301.8810, 4978.000
303.0910, 4961.000
304.3010, 5082.000
305.5100, 5183.000
306.7200, 5153.000
307.9290, 5272.000
309.1380, 5342.000
310.3460, 5357.000
311.5550, 5467.000
312.7630, 5582.000
313.9720, 5772.000
315.1800, 5882.000
316.3880, 6045.000
317.5950, 6133.000
318.8030, 6203.000
320.0100, 5997.000
321.2180, 6080.000
322.4250, 6166.000
323.6320, 6283.000
324.8380, 6304.000
326.0450, 6469.000
327.2510, 6543.000
328.4570, 6828.000
329.6640, 6989.000
330.8690, 7375.000
332.0750, 7535.000
333.2810, 8061.000
334.4860, 8345.000
335.6910, 8929.000
336.8960, 9185.000
338.1010, 9567.000
339.3060, 10101.00
340.5100, 10644.00
341.7150, 11094.00
342.9190, 11700.00
344.1230, 12312.00
345.3270, 13119.00
346.5300, 14071.00
347.7340, 15242.00
348.9370, 16364.00
350.1400, 17913.00
351.3430, 19663.00
352.5460, 21203.00
353.7490, 22665.00
354.9510, 23866.00
356.1540, 23939.00
357.3560, 23431.00
358.5580, 22123.00
359.7600, 20599.00
360.9610, 18551.00
362.1630, 16712.00
363.3640, 15214.00
364.5650, 13797.00
365.7660, 12611.00
366.9670, 11825.00
368.1680, 11271.00
369.3680, 10840.00
370.5680, 10315.00
371.7680, 10149.00
372.9680, 9796.000
374.1680, 9525.000
375.3680, 9068.000
376.5670, 8576.000
377.7660, 8125.000
378.9660, 7714.000
380.1640, 7196.000
381.3630, 6842.032
382.5620, 6364.000
383.7600, 6126.000
384.9590, 5810.000
386.1570, 5521.000
387.3550, 5426.000
388.5520, 5168.000
389.7500, 5067.000
390.9470, 4916.000
392.1450, 4746.000
393.3420, 4691.000
394.5390, 4585.892
395.7350, 4643.000
396.9320, 4514.000
398.1280, 4454.000
399.3250, 4524.000
400.5210, 4445.000
401.7160, 4450.000
402.9120, 4406.000
404.1080, 4366.000
405.3030, 4347.438
406.4980, 4329.000
407.6930, 4276.000
408.8880, 4274.000
410.0830, 4217.000
411.2780, 4281.000
412.4720, 4254.000
413.6660, 4346.000
414.8600, 4222.000
416.0540, 4197.000
417.2480, 4263.000
418.4410, 4146.000
419.6350, 4159.000
420.8280, 4223.000
422.0210, 4192.000
423.2140, 4112.000
424.4070, 4172.000
425.5990, 4143.000
426.7920, 4176.000
427.9840, 4167.000
429.1760, 4196.000
430.3680, 4082.000
431.5590, 4200.000
432.7510, 4131.000
433.9420, 4099.000
435.1330, 4214.000
436.3240, 4183.000
437.5150, 4223.000
438.7060, 4161.000
439.8960, 4266.000
441.0870, 4208.000
442.2770, 4135.000
443.4670, 4300.000
444.6570, 4195.000
445.8470, 4274.000
447.0360, 4165.000
448.2250, 4202.000
449.4150, 4250.000
450.6040, 4158.000
451.7920, 4131.000
452.9810, 4292.000
454.1700, 4271.000
455.3580, 4221.000
456.5460, 4248.000
457.7340, 4313.000
458.9220, 4253.000
460.1100, 4310.000
461.2970, 4302.000
462.4850, 4336.000
463.6720, 4360.000
464.8590, 4315.000
466.0460, 4270.000
467.2320, 4314.275
468.4190, 4407.000
469.6050, 4399.000
470.7910, 4381.000
471.9770, 4461.000
473.1630, 4405.000
474.3490, 4564.000
475.5340, 4624.000
476.7200, 4614.000
477.9050, 4676.000
479.0900, 4770.000
480.2750, 4816.000
481.4590, 4884.000
482.6440, 5102.000
483.8280, 5214.000
485.0120, 5238.000
486.1960, 5251.000
487.3800, 5276.000
488.5640, 5196.000
489.7470, 5049.000
490.9310, 4935.000
492.1140, 5027.000
493.2970, 4883.000
494.4800, 4929.000
495.6620, 4972.000
496.8450, 5186.000
498.0270, 5173.000
499.2090, 5365.000
500.3910, 5522.000
501.5730, 5759.000
502.7550, 5927.000
503.9360, 6182.000
505.1170, 6230.000
506.2990, 6286.000
507.4800, 6367.000
508.6600, 6225.000
509.8410, 5968.000
511.0220, 5700.000
512.2020, 5557.000
513.3820, 5351.000
514.5620, 5255.000
515.7420, 5427.000
516.9220, 5320.000
518.1010, 5323.000
519.2800, 5451.000
520.4600, 5473.000
521.6390, 5344.000
522.8170, 5472.000
523.9960, 5433.000
525.1750, 5444.000
526.3530, 5506.000
527.5310, 5527.000
528.7090, 5546.115
529.8870, 5476.000
531.0650, 5603.000
532.2420, 5538.000
533.4190, 5615.000
534.5970, 5595.000
535.7740, 5704.000
536.9500, 5695.000
538.1270, 5917.000
539.3040, 5899.000
540.4800, 6027.000
541.6560, 6257.000
542.8320, 6485.000
544.0080, 6803.000
545.1840, 7142.000
546.3590, 7323.000
547.5340, 7807.000
548.7100, 8429.000
549.8850, 9098.000
551.0600, 10038.00
552.2340, 10849.00
553.4090, 11977.00
554.5830, 13192.00
555.7570, 14555.00
556.9310, 15679.00
558.1050, 16535.00
559.2790, 17140.00
560.4520, 16974.00
561.6260, 16033.00
562.7990, 14921.00
563.9720, 13391.00
565.1450, 11867.00
566.3170, 10553.00
567.4900, 9380.000
568.6620, 8493.000
569.8350, 7748.000
571.0070, 7149.000
572.1780, 6908.000
573.3500, 6439.000
574.5220, 6252.000
575.6930, 5921.000
576.8640, 5737.000
578.0350, 5662.000
579.2060, 5507.000
580.3770, 5340.000
581.5470, 5294.000
582.7180, 5286.000
583.8880, 5275.000
585.0580, 5248.000
586.2280, 5203.000
587.3980, 5269.000
588.5670, 5232.000
589.7370, 5272.000
590.9060, 5304.000
592.0750, 5281.000
593.2440, 5208.000
594.4130, 5146.000
595.5810, 5114.000
596.7500, 5069.312
597.9180, 5026.000
599.0860, 5019.000
600.2540, 4993.000
601.4220, 4979.000
602.5890, 4957.000
603.7570, 5017.000
604.9240, 4961.000
606.0910, 5017.000
607.2580, 5006.000
608.4250, 4881.000
609.5910, 5059.000
610.7580, 4980.000
611.9240, 5001.000
613.0900, 5043.000
614.2560, 5015.560
615.4220, 5037.000
616.5870, 5018.000
617.7530, 5059.000
618.9180, 5036.000
620.0830, 4892.000
621.2480, 4967.000
622.4130, 4847.000
623.5770, 4953.000
624.7420, 4802.000
625.9060, 4937.000
627.0700, 5022.000
628.2340, 4969.000
629.3980, 5022.000
630.5620, 5128.000
631.7250, 5132.000
632.8880, 5387.000
634.0510, 5402.000
635.2140, 5560.000
636.3770, 5735.000
637.5400, 5791.000
638.7020, 6057.000
639.8650, 6271.000
641.0270, 6266.000
642.1890, 6312.000
643.3510, 6272.000
644.5120, 6093.000
645.6740, 5908.000
646.8350, 5796.000
647.9960, 5528.000
649.1570, 5340.000
650.3180, 5401.000
651.4790, 5216.000
652.6390, 5186.000
653.8000, 5086.000
654.9600, 5073.000
656.1200, 5031.000
657.2800, 4917.000
658.4390, 4872.000
659.5990, 4953.000
660.7580, 4849.000
661.9170, 4841.000
663.0770, 4873.000
664.2350, 4768.000
665.3940, 4872.000
666.5530, 4721.000
667.7110, 4803.000
668.8690, 4852.000
670.0270, 4712.000
671.1850, 4779.000
672.3430, 4755.000
673.5000, 4733.000
674.6580, 4811.000
675.8150, 4734.000
676.9720, 4718.000
678.1290, 4830.000
679.2860, 4748.000
680.4420, 4814.000
681.5990, 4735.000
682.7550, 4688.000
683.9110, 4726.000
685.0670, 4706.000
686.2230, 4717.000
687.3790, 4734.000
688.5340, 4716.000
689.6890, 4744.000
690.8440, 4749.000
691.9990, 4741.000
693.1540, 4684.000
694.3090, 4728.000
695.4630, 4723.000
696.6170, 4710.000
697.7720, 4812.000
698.9260, 4789.000
700.0790, 4781.000
701.2330, 4756.000
702.3870, 4725.000
703.5400, 4839.000
704.6930, 4864.000
705.8460, 4808.000
706.9990, 4849.000
708.1510, 4851.000
709.3040, 4913.000
710.4560, 4839.000
711.6090, 4915.000
712.7610, 4879.000
713.9120, 4899.000
715.0640, 4852.000
716.2160, 4905.000
717.3670, 4932.000
718.5180, 4905.000
719.6690, 4862.000
720.8200, 4843.000
721.9710, 4855.052
723.1210, 4903.000
724.2720, 4885.000
725.4220, 4926.000
726.5720, 4910.000
727.7220, 4970.000
728.8720, 4959.351
730.0210, 4983.274
731.1710, 4964.000
732.3200, 4988.000
733.4690, 5006.000
734.6180, 4997.130
735.7670, 4966.000
736.9150, 5001.000
738.0640, 5015.000
739.2120, 5030.000
740.3600, 5079.000
741.5080, 5080.660
742.6560, 5067.179
743.8040, 5096.000
744.9510, 5034.000
746.0980, 5013.000
747.2450, 5044.000
748.3920, 5002.000
749.5390, 5059.000
750.6860, 5028.000
751.8320, 5051.000
752.9790, 5056.000
754.1250, 5036.000
755.2710, 5135.000
756.4170, 5085.000
757.5620, 5158.000
758.7080, 5095.000
759.8530, 5035.000
760.9990, 5078.000
762.1440, 5144.000
763.2880, 5075.000
764.4330, 5100.000
765.5780, 5023.000
766.7220, 5137.000
767.8660, 5073.000
769.0100, 5101.000
770.1540, 5183.000
771.2980, 5119.000
772.4420, 5153.000
773.5850, 5111.000
774.7280, 5196.000
775.8710, 5131.000
777.0140, 5187.000
778.1570, 5212.000
779.3000, 5167.000
780.4420, 5148.000
781.5840, 5225.000
782.7270, 5232.000
783.8690, 5192.000
785.0100, 5227.000
786.1520, 5171.000
787.2940, 5185.007
788.4350, 5269.000
789.5760, 5203.000
790.7170, 5205.000
791.8580, 5241.000
792.9980, 5274.000
794.1390, 5186.000
795.2790, 5224.000
796.4200, 5237.000
797.5600, 5268.000
798.6990, 5282.000
799.8390, 5303.000
800.9790, 5393.000
802.1180, 5304.000
803.2570, 5326.000
804.3960, 5343.000
805.5350, 5482.000
806.6740, 5390.000
807.8130, 5424.000
808.9510, 5517.000
810.0890, 5486.000
811.2270, 5510.000
812.3650, 5542.000
813.5030, 5575.000
814.6410, 5565.000
815.7780, 5590.000
816.9150, 5580.000
818.0530, 5617.458
819.1900, 5710.000
820.3260, 5675.000
821.4630, 5721.000
822.5990, 5712.000
823.7360, 5648.000
824.8720, 5752.000
826.0080, 5760.000
827.1440, 5734.000
828.2790, 5790.000
829.4150, 5843.000
830.5500, 5755.000
831.6860, 5873.000
832.8210, 5873.000
833.9560, 5836.000
835.0900, 5946.000
836.2250, 6029.000
837.3590, 5942.000
838.4930, 6159.000
839.6280, 6142.000
840.7610, 6204.000
841.8950, 6191.000
843.0290, 6265.000
844.1620, 6381.000
845.2950, 6422.000
846.4290, 6489.000
847.5620, 6636.000
848.6940, 6752.000
849.8270, 6833.000
850.9590, 7094.000
852.0920, 7215.000
853.2240, 7386.000
854.3560, 7751.000
855.4880, 8008.000
856.6190, 8411.000
857.7510, 8760.000
858.8820, 9203.000
860.0130, 9653.000
861.1450, 10273.00
862.2750, 10835.00
863.4060, 11189.00
864.5370, 11687.00
865.6670, 11853.00
866.7970, 11904.00
867.9270, 11902.00
869.0570, 11440.00
870.1870, 10931.00
871.3170, 10469.00
872.4460, 10033.00
873.5750, 9615.000
874.7040, 9201.000
875.8330, 9064.000
876.9620, 8957.000
878.0910, 8712.000
879.2190, 8607.000
880.3480, 8524.000
881.4760, 8567.000
882.6040, 8657.000
883.7320, 8727.000
884.8590, 8640.000
885.9870, 8892.000
887.1140, 8956.000
888.2410, 9302.000
889.3680, 9331.000
890.4950, 9613.000
891.6220, 10127.00
892.7490, 10339.00
893.8750, 10653.00
895.0010, 11008.00
896.1270, 11417.00
897.2530, 11958.00
898.3790, 12305.00
899.5050, 13019.00
900.6300, 13508.00
901.7550, 14268.00
902.8800, 14946.00
904.0050, 15669.00
905.1300, 16822.00
906.2550, 17863.00
907.3790, 19548.00
908.5040, 21449.00
909.6280, 24069.00
910.7520, 27171.00
911.8760, 30863.00
912.9990, 35732.00
914.1230, 41129.00
915.2460, 48412.00
916.3690, 56377.00
917.4930, 64585.00
918.6150, 73926.00
919.7380, 82356.00
920.8610, 89247.00
921.9830, 92384.00
923.1050, 91559.00
924.2280, 86682.00
925.3490, 79695.00
926.4710, 69837.00
927.5930, 60834.00
928.7140, 51487.00
929.8360, 44022.00
930.9570, 37545.00
932.0780, 32497.00
933.1990, 28290.00
934.3190, 24932.00
935.4400, 22158.00
936.5600, 19914.00
937.6800, 18146.00
938.8000, 16533.00
939.9200, 15226.00
941.0400, 14301.00
942.1600, 13412.00
943.2790, 12478.00
944.3980, 11856.00
945.5170, 11242.00
946.6360, 10695.00
947.7550, 10190.00
948.8740, 9879.000
949.9920, 9432.000
951.1100, 9246.000
952.2280, 8989.000
953.3460, 8902.000
954.4640, 8511.000
955.5820, 8463.000
956.6990, 8200.000
957.8170, 8053.000
958.9340, 7967.000
960.0510, 7776.000
961.1680, 7800.000
962.2850, 7687.000
963.4010, 7586.000
964.5170, 7590.000
965.6340, 7481.000
966.7500, 7517.000
967.8660, 7410.000
968.9810, 7406.000
970.0970, 7425.000
971.2130, 7364.000
972.3280, 7214.000
973.4430, 7200.000
974.5580, 7150.208
975.6730, 7406.000
976.7870, 7183.000
977.9020, 7249.000
979.0160, 7413.000
980.1300, 7323.000
981.2440, 7446.000
982.3580, 7479.000
983.4720, 7496.000
984.5860, 7514.000
985.6990, 7622.000
986.8120, 7563.000
987.9250, 7714.000
989.0380, 7544.000
990.1510, 7562.000
991.2630, 7478.000
992.3760, 7379.000
993.4880, 7484.000
994.6000, 7330.000
995.7120, 7373.000
996.8240, 7199.000
997.9360, 7230.000
999.0470, 7102.000
1000.159, 7110.000
1001.270, 7144.000
1002.381, 7195.000
1003.492, 7083.000
1004.602, 7021.000
1005.713, 6944.000
1006.823, 6886.565
1007.934, 6882.000
1009.044, 6814.000
1010.154, 6825.000
1011.263, 6834.000
1012.373, 6815.953
1013.482, 6888.000
1014.592, 6829.000
1015.701, 6858.000
1016.810, 6878.000
1017.919, 6979.000
1019.027, 6949.000
1020.136, 6946.000
1021.244, 6952.000
1022.352, 6977.858
1023.460, 6958.000
1024.568, 7044.000
1025.676, 7080.000
1026.784, 7075.000
1027.891, 7101.000
1028.998, 7215.000
1030.105, 7206.000
1031.212, 7324.000
1032.319, 7408.000
1033.426, 7315.000
1034.532, 7334.000
1035.638, 7384.000
1036.745, 7488.000
1037.851, 7574.000
1038.956, 7729.000
1040.062, 7762.177
1041.168, 7721.000
1042.273, 7858.000
1043.378, 7845.000
1044.483, 7896.000
1045.588, 8178.000
1046.693, 8205.000
1047.798, 8490.000
1048.902, 8573.000
1050.006, 8628.000
1051.110, 8848.000
1052.214, 9028.000
1053.318, 9125.000
1054.422, 9181.000
1055.525, 9175.000
1056.629, 9045.000
1057.732, 9095.000
1058.835, 8768.000
1059.938, 8683.000
1061.040, 8326.000
1062.143, 8219.000
1063.245, 8061.000
1064.348, 7780.000
1065.450, 7569.000
1066.552, 7434.000
1067.653, 7237.000
1068.755, 7127.000
1069.856, 7042.000
1070.958, 6967.822
1072.059, 6904.000
1073.160, 6901.000
1074.261, 6906.000
1075.361, 6867.000
1076.462, 6791.000
1077.562, 6794.000
1078.662, 6682.000
1079.762, 6700.000
1080.862, 6618.000
1081.962, 6728.000
1083.062, 6747.000
1084.161, 6549.000
1085.260, 6602.000
1086.359, 6729.000
1087.458, 6561.000
1088.557, 6568.000
1089.656, 6520.000
1090.754, 6542.000
1091.853, 6680.000
1092.951, 6548.000
1094.049, 6539.000
1095.147, 6586.000
1096.244, 6419.000
1097.342, 6476.000
1098.439, 6511.000
1099.537, 6561.000
1100.634, 6563.000
1101.731, 6608.000
1102.827, 6603.000
1103.924, 6536.000
1105.021, 6498.000
1106.117, 6520.951
1107.213, 6523.000
1108.309, 6567.000
1109.405, 6590.000
1110.501, 6607.000
1111.596, 6512.000
1112.691, 6523.000
1113.787, 6533.000
1114.882, 6584.000
1115.977, 6524.000
1117.071, 6497.000
1118.166, 6503.000
1119.260, 6589.000
1120.355, 6460.000
1121.449, 6524.000
1122.543, 6539.000
1123.637, 6495.000
1124.730, 6533.000
1125.824, 6562.000
1126.917, 6524.000
1128.010, 6492.000
1129.103, 6539.000
1130.196, 6553.000
1131.289, 6460.000
1132.382, 6458.000
1133.474, 6456.771
1134.566, 6468.000
1135.659, 6495.000
1136.750, 6527.000
1137.842, 6534.201
1138.934, 6545.920
1140.025, 6544.000
1141.117, 6540.000
1142.208, 6514.000
1143.299, 6489.000
1144.390, 6501.000
1145.481, 6516.000
1146.571, 6620.000
1147.662, 6557.000
1148.752, 6606.000
1149.842, 6602.000
1150.932, 6592.000
1152.022, 6609.306
1153.111, 6605.293
1154.201, 6606.000
1155.290, 6609.000
1156.379, 6600.000
1157.468, 6587.836
1158.557, 6550.000
1159.646, 6630.000
1160.734, 6612.000
1161.823, 6679.000
1162.911, 6679.000
1163.999, 6741.000
1165.087, 6708.000
1166.175, 6537.000
1167.262, 6754.000
1168.350, 6731.000
1169.437, 6613.000
1170.524, 6713.000
1171.611, 6778.000
1172.698, 6794.000
1173.785, 6879.000
1174.872, 6901.000
1175.958, 6921.150
1177.044, 6805.000
1178.130, 6914.000
1179.216, 6851.000
1180.302, 6776.000
1181.388, 6821.000
1182.473, 6822.047
1183.558, 6864.000
1184.644, 6920.000
1185.729, 6936.000
1186.813, 6973.000
1187.898, 7086.000
1188.983, 6987.000
1190.067, 6964.000
1191.151, 7035.000
1192.235, 6904.000
1193.319, 7015.000
1194.403, 6892.000
1195.487, 6938.000
1196.570, 6956.000
1197.653, 7104.000
1198.737, 7011.000
1199.820, 6965.000
1200.902, 7000.000
1201.985, 6957.000
1203.068, 7054.000
1204.150, 7035.000
1205.232, 7025.000
1206.314, 7015.000
1207.396, 6927.000
1208.478, 7006.000
1209.560, 7019.000
1210.641, 7045.000
1211.722, 6834.000
1212.804, 7043.000
1213.885, 6999.000
1214.965, 6967.000
1216.046, 7109.000
1217.127, 7049.000
1218.207, 7007.000
1219.287, 7027.000
1220.367, 7033.000
1221.447, 7011.000
1222.527, 7113.000
1223.607, 6965.000
1224.686, 6969.000
1225.765, 7017.000
1226.845, 7086.000
1227.924, 7013.000
1229.002, 7050.000
1230.081, 7011.000
1231.160, 7076.000
1232.238, 7053.000
1233.316, 7134.000
1234.394, 7141.000
1235.472, 7073.000
1236.550, 7144.000
1237.628, 7176.000
1238.705, 7118.000
1239.783, 7050.000
1240.860, 7085.000
1241.937, 7083.000
1243.014, 7002.000
1244.090, 7094.000
1245.167, 7124.000
1246.243, 7021.000
1247.319, 6949.000
1248.396, 7154.000
1249.471, 7105.000
1250.547, 7095.000
1251.623, 7114.000
1252.698, 7133.000
1253.774, 7107.000
1254.849, 6968.000
1255.924, 7035.000
1256.999, 7124.000
1258.074, 7048.000
1259.148, 7244.000
1260.222, 7196.000
1261.297, 7106.000
1262.371, 7075.000
1263.445, 7116.000
1264.519, 7201.000
1265.592, 7107.000
1266.666, 7143.000
1267.739, 7212.000
1268.812, 7230.000
1269.885, 7323.000
1270.958, 7291.000
1272.031, 7270.000
1273.104, 7314.000
1274.176, 7293.437
1275.248, 7350.000
1276.320, 7296.000
1277.392, 7364.000
1278.464, 7345.000
1279.536, 7295.000
1280.607, 7331.000
1281.679, 7309.000
1282.750, 7351.000
1283.821, 7365.755
1284.892, 7316.000
1285.963, 7406.000
1287.033, 7409.000
1288.104, 7411.783
1289.174, 7339.000
1290.244, 7383.000
1291.314, 7338.000
1292.384, 7330.000
1293.454, 7451.000
1294.523, 7283.000
1295.592, 7376.000
1296.662, 7385.000
1297.731, 7205.000
1298.800, 7388.000
1299.868, 7354.000
1300.937, 7249.000
1302.006, 7448.000
1303.074, 7395.000
1304.142, 7418.000
1305.210, 7447.000
1306.278, 7407.000
1307.346, 7423.912
1308.413, 7438.000
1309.481, 7444.000
1310.548, 7389.000
1311.615, 7473.000
1312.682, 7270.000
1313.749, 7294.000
1314.815, 7376.000
1315.882, 7363.000
1316.948, 7472.000
1318.014, 7301.000
1319.080, 7315.000
1320.146, 7380.000
1321.212, 7317.000
1322.278, 7310.000
1323.343, 7310.000
1324.408, 7438.000
1325.473, 7300.000
1326.538, 7362.000
1327.603, 7255.000
1328.668, 7347.000
1329.732, 7222.000
1330.797, 7284.000
1331.861, 7247.000
1332.925, 7334.000
1333.989, 7298.000
1335.053, 7373.000
1336.116, 7369.896
1337.180, 7353.000
1338.243, 7375.000
1339.306, 7369.000
1340.369, 7377.000
1341.432, 7285.000
1342.495, 7336.000
1343.557, 7315.000
1344.620, 7257.000
1345.682, 7454.000
1346.744, 7282.000
1347.806, 7338.000
1348.868, 7331.000
1349.930, 7293.180
1350.991, 7389.000
1352.052, 7314.000
1353.114, 7398.000
1354.175, 7447.000
1355.235, 7410.000
1356.296, 7279.000
1357.357, 7389.000
1358.417, 7332.000
1359.478, 7450.000
1360.538, 7300.000
1361.598, 7331.000
1362.657, 7281.000
1363.717, 7390.000
1364.777, 7482.000
1365.836, 7385.000
1366.895, 7432.000
1367.954, 7398.000
1369.013, 7410.000
1370.072, 7418.000
1371.131, 7459.000
1372.189, 7551.000
1373.247, 7577.000
1374.306, 7402.000
1375.364, 7511.000
1376.422, 7384.000
1377.479, 7390.000
1378.537, 7323.000
1379.594, 7303.365
1380.651, 7382.000
1381.709, 7332.000
1382.766, 7428.000
1383.822, 7536.000
1384.879, 7506.000
1385.936, 7573.000
1386.992, 7494.000
1388.048, 7559.000
1389.104, 7610.000
1390.160, 7442.000
1391.216, 7427.000
1392.272, 7499.000
1393.327, 7528.000
1394.382, 7560.000
1395.437, 7515.000
1396.492, 7554.000
1397.547, 7526.000
1398.602, 7546.000
1399.657, 7568.000
1400.711, 7602.000
1401.765, 7588.753
1402.819, 7607.000
1403.873, 7588.000
1404.927, 7564.000
1405.981, 7615.000
1407.034, 7538.000
1408.088, 7592.000
1409.141, 7672.000
1410.194, 7618.000
1411.247, 7624.000
1412.300, 7608.000
1413.352, 7615.000
1414.405, 7600.000
1415.457, 7618.000
1416.509, 7530.000
1417.561, 7598.673
1418.613, 7603.000
1419.665, 7687.000
1420.716, 7632.000
1421.768, 7656.000
1422.819, 7812.000
1423.870, 7766.000
1424.921, 7701.000
1425.972, 7796.000
1427.022, 7699.000
1428.073, 7787.000
1429.123, 7682.000
1430.173, 7741.000
1431.224, 7784.000
1432.273, 7924.000
1433.323, 7693.000
1434.373, 7759.000
1435.422, 7743.000
1436.472, 7843.000
1437.521, 7807.000
1438.570, 7868.000
1439.619, 7875.822
1440.667, 7777.000
1441.716, 7892.000
1442.764, 7838.000
1443.813, 7859.000
1444.861, 7947.000
1445.909, 7754.000
1446.956, 7980.000
1448.004, 7948.000
1449.052, 7892.000
1450.099, 7988.000
1451.146, 7962.000
1452.193, 7917.000
1453.240, 7992.000
1454.287, 8000.000
1455.334, 7941.000
1456.380, 7945.000
1457.426, 7886.000
1458.473, 7982.000
1459.519, 8028.000
1460.565, 7982.000
1461.610, 7933.000
1462.656, 7976.182
1463.701, 7949.917
1464.747, 8035.000
1465.792, 7961.000
1466.837, 8011.000
1467.881, 8002.000
1468.926, 7964.000
1469.971, 7962.000
1471.015, 7956.000
1472.059, 7900.000
1473.103, 8075.000
1474.147, 7993.000
1475.191, 8194.000
1476.235, 8088.000
1477.278, 8026.000
1478.322, 8052.000
1479.365, 8058.000
1480.408, 8062.000
1481.451, 8084.000
1482.493, 8095.000
1483.536, 8150.000
1484.578, 7998.000
1485.621, 8261.000
1486.663, 8075.000
1487.705, 8106.000
1488.747, 8136.000
1489.788, 8224.000
1490.830, 8101.000
1491.871, 8265.000
1492.913, 8209.000
1493.954, 8284.000
1494.995, 8113.000
1496.036, 8200.000
1497.076, 8110.000
1498.117, 8198.000
1499.157, 8047.000
1500.197, 8251.000
1501.237, 8327.000
1502.277, 8300.000
1503.317, 8261.000
1504.357, 8243.000
1505.396, 8355.000
1506.436, 8326.000
1507.475, 8455.000
1508.514, 8266.000
1509.553, 8157.000
1510.591, 8290.000
1511.630, 8328.000
1512.668, 8289.000
1513.707, 8354.000
1514.745, 8311.000
1515.783, 8406.000
1516.821, 8370.000
1517.858, 8300.000
1518.896, 8248.000
1519.933, 8341.000
1520.971, 8240.000
1522.008, 8357.000
1523.045, 8303.000
1524.081, 8366.000
1525.118, 8327.000
1526.155, 8332.000
1527.191, 8357.000
1528.227, 8427.000
1529.263, 8310.000
1530.299, 8410.000
1531.335, 8373.000
1532.371, 8380.000
1533.406, 8402.000
1534.441, 8360.000
1535.477, 8187.000
1536.512, 8455.000
1537.547, 8535.000
1538.581, 8342.000
1539.616, 8452.000
1540.650, 8396.000
1541.685, 8458.000
1542.719, 8463.000
1543.753, 8458.000
1544.787, 8349.000
1545.820, 8472.000
1546.854, 8409.000
1547.887, 8502.000
1548.921, 8385.000
1549.954, 8478.000
1550.987, 8460.000
1552.019, 8386.000
1553.052, 8491.000
1554.085, 8528.000
1555.117, 8454.000
1556.149, 8424.000
1557.181, 8467.000
1558.213, 8519.000
1559.245, 8615.000
1560.277, 8571.000
1561.308, 8473.000
1562.340, 8431.000
1563.371, 8472.000
1564.402, 8492.000
1565.433, 8509.000
1566.463, 8563.000
1567.494, 8614.000
1568.524, 8516.000
1569.555, 8598.000
1570.585, 8578.000
1571.615, 8511.000
1572.645, 8589.000
1573.675, 8601.000
1574.704, 8520.000
1575.734, 8586.000
1576.763, 8567.000
1577.792, 8676.000
1578.821, 8597.000
##END=



