##NAMES=Pyrope
##RRUFFID=R060441
##IDEAL CHEMISTRY=Mg_3_Al_2_(SiO_4_)_3_
##LOCALITY=Apache County, Arizona, USA
##OWNER=RRUFF
##SOURCE=Gemological Institute of America
##DESCRIPTION=Deep red fragment
##STATUS=The identification of this mineral has been confirmed by X-ray diffraction and chemical analysis
##URL=rruff.info/R060441
##MEASURED CHEMISTRY=(Mg_1.83_Fe_0.75_Ca_0.39_Mn_0.03_)_Σ=3_(Al_1.95_Cr_0.05_)_Σ=2_(Si_1.00_O_4_)_3_
##PIN_ID=L00962
##ORIENTATION=Laser parallel to a [1 0 0]. Fiducial mark perpendicular to laser is parallel to -c* (0 0 -1)
62.89900, 115.0000
64.14700, 118.0000
65.39500, 112.0000
66.64300, 103.0000
67.89000, 116.0000
69.13800, 111.0000
70.38500, 114.7394
71.63200, 109.0000
72.87900, 129.0000
74.12500, 111.0000
75.37200, 133.0000
76.61800, 136.0000
77.86400, 121.0000
79.10900, 147.0000
80.35500, 160.0000
81.60000, 162.0000
82.84600, 156.0000
84.09100, 192.0000
85.33500, 230.0000
86.58000, 219.0000
87.82400, 244.0000
89.06900, 308.0000
90.31300, 382.0000
91.55600, 485.0000
92.80000, 520.0000
94.04300, 621.0000
95.28700, 713.0000
96.53000, 784.0000
97.77300, 886.0000
99.01500, 997.0000
100.2580, 1127.000
101.5000, 1274.000
102.7420, 1444.000
103.9840, 1544.000
105.2260, 1701.000
106.4670, 1969.000
107.7080, 2269.000
108.9490, 2234.000
110.1900, 2265.000
111.4310, 2196.000
112.6720, 2322.000
113.9120, 2417.000
115.1520, 2589.000
116.3920, 2686.055
117.6320, 2784.564
118.8710, 2913.000
120.1110, 2905.000
121.3500, 2999.467
122.5890, 2945.000
123.8270, 3123.000
125.0660, 3057.000
126.3040, 3044.000
127.5430, 3127.000
128.7810, 3113.000
130.0180, 3091.000
131.2560, 3231.000
132.4940, 3278.000
133.7310, 3276.000
134.9680, 3265.000
136.2050, 3285.000
137.4410, 3254.000
138.6780, 3411.000
139.9140, 3414.234
141.1500, 3536.000
142.3860, 3512.000
143.6220, 3410.000
144.8570, 3397.000
146.0920, 3436.000
147.3280, 3441.000
148.5620, 3355.000
149.7970, 3423.000
151.0320, 3346.000
152.2660, 3336.000
153.5000, 3332.000
154.7340, 3261.000
155.9680, 3267.000
157.2020, 3169.000
158.4350, 3089.000
159.6680, 3033.000
160.9010, 3012.000
162.1340, 2886.000
163.3670, 2895.000
164.5990, 2904.000
165.8310, 2769.000
167.0630, 2748.000
168.2950, 2769.000
169.5270, 2782.000
170.7580, 2814.985
171.9900, 2875.233
173.2210, 2914.000
174.4510, 3013.000
175.6820, 3084.000
176.9130, 3144.000
178.1430, 3340.000
179.3730, 3475.000
180.6030, 3718.000
181.8330, 3876.000
183.0620, 4095.000
184.2920, 4226.066
185.5210, 4340.000
186.7500, 4388.000
187.9790, 4419.000
189.2070, 4397.250
190.4360, 4288.000
191.6640, 4238.000
192.8920, 4151.000
194.1200, 3980.000
195.3480, 3921.000
196.5750, 3836.000
197.8020, 3875.000
199.0290, 3883.000
200.2560, 3832.000
201.4830, 3862.000
202.7090, 3850.000
203.9360, 3776.000
205.1620, 3869.000
206.3880, 3877.000
207.6140, 3848.000
208.8390, 3880.000
210.0650, 3846.000
211.2900, 3814.000
212.5150, 3895.000
213.7400, 3897.000
214.9640, 3973.000
216.1890, 3865.000
217.4130, 3863.000
218.6370, 3882.000
219.8610, 3955.000
221.0850, 3917.000
222.3080, 3871.000
223.5310, 3881.000
224.7540, 3917.000
225.9770, 3781.000
227.2000, 3896.000
228.4230, 3910.000
229.6450, 3875.000
230.8670, 4000.000
232.0890, 4038.000
233.3110, 4000.000
234.5320, 4047.000
235.7540, 4149.000
236.9750, 4134.000
238.1960, 4133.000
239.4170, 4248.000
240.6380, 4328.000
241.8580, 4375.000
243.0780, 4328.000
244.2990, 4425.000
245.5180, 4438.000
246.7380, 4476.000
247.9580, 4519.824
249.1770, 4590.000
250.3960, 4534.000
251.6150, 4559.000
252.8340, 4472.000
254.0530, 4485.000
255.2710, 4694.000
256.4890, 4525.000
257.7070, 4595.000
258.9250, 4531.000
260.1430, 4556.000
261.3600, 4577.000
262.5770, 4547.000
263.7950, 4618.000
265.0110, 4645.000
266.2280, 4704.000
267.4450, 4634.000
268.6610, 4686.000
269.8770, 4644.000
271.0930, 4741.000
272.3090, 4679.000
273.5250, 4678.000
274.7400, 4749.000
275.9550, 4760.000
277.1700, 4761.345
278.3850, 4753.000
279.6000, 4756.000
280.8140, 4758.044
282.0290, 4784.000
283.2430, 4770.000
284.4570, 4774.000
285.6700, 4787.000
286.8840, 4773.000
288.0970, 4826.000
289.3100, 4894.000
290.5230, 4833.000
291.7360, 4837.000
292.9490, 4948.000
294.1610, 4842.000
295.3740, 4958.000
296.5860, 5023.000
297.7970, 5132.000
299.0090, 5066.000
300.2210, 5157.000
301.4320, 5228.000
302.6430, 5188.000
303.8540, 5270.000
305.0650, 5301.000
306.2750, 5403.000
307.4860, 5479.000
308.6960, 5553.000
309.9060, 5504.000
311.1160, 5613.000
312.3260, 5639.000
313.5350, 5728.000
314.7440, 5788.000
315.9530, 5873.524
317.1620, 6082.000
318.3710, 6087.000
319.5800, 6224.000
320.7880, 6383.000
321.9960, 6404.000
323.2040, 6570.000
324.4120, 6736.000
325.6200, 6963.000
326.8270, 7104.000
328.0340, 7458.000
329.2410, 7854.000
330.4480, 8011.000
331.6550, 8477.000
332.8610, 8903.000
334.0680, 9474.000
335.2740, 9998.534
336.4800, 10474.00
337.6860, 11210.00
338.8910, 11795.00
340.0970, 12523.00
341.3020, 13176.00
342.5070, 13934.00
343.7120, 14558.00
344.9170, 15354.00
346.1210, 16245.00
347.3250, 17241.00
348.5290, 18375.00
349.7330, 19639.00
350.9370, 21219.00
352.1410, 22728.00
353.3440, 24601.00
354.5470, 26694.00
355.7500, 29025.00
356.9530, 31021.00
358.1560, 33066.00
359.3580, 34830.00
360.5610, 35733.00
361.7630, 35609.00
362.9650, 35322.00
364.1660, 34556.00
365.3680, 32964.00
366.5690, 29976.00
367.7710, 27403.00
368.9720, 25122.00
370.1720, 23299.00
371.3730, 21642.00
372.5740, 19989.00
373.7740, 18812.00
374.9740, 17679.00
376.1740, 16631.00
377.3740, 15646.34
378.5730, 14774.00
379.7730, 13889.00
380.9720, 13120.00
382.1710, 12323.05
383.3700, 11550.00
384.5680, 10876.00
385.7670, 10243.00
386.9650, 9630.000
388.1630, 9057.136
389.3610, 8519.800
390.5590, 8004.000
391.7560, 7544.000
392.9540, 7099.965
394.1510, 6695.852
395.3480, 6389.000
396.5450, 6023.000
397.7420, 5791.000
398.9380, 5580.000
400.1340, 5195.000
401.3300, 5015.000
402.5260, 4846.000
403.7220, 4696.000
404.9180, 4582.000
406.1130, 4390.000
407.3080, 4230.000
408.5030, 4115.000
409.6980, 4028.000
410.8930, 3930.000
412.0870, 3922.000
413.2820, 3819.000
414.4760, 3719.000
415.6700, 3647.000
416.8630, 3529.000
418.0570, 3502.000
419.2500, 3425.000
420.4440, 3343.000
421.6370, 3259.000
422.8290, 3180.000
424.0220, 3173.000
425.2150, 3167.000
426.4070, 3149.000
427.5990, 3122.806
428.7910, 3119.000
429.9830, 3060.000
431.1740, 3053.000
432.3660, 3030.000
433.5570, 3048.000
434.7480, 3031.000
435.9390, 3011.000
437.1300, 3028.000
438.3200, 3014.731
439.5110, 2966.000
440.7010, 3007.000
441.8910, 2967.000
443.0810, 2942.000
444.2700, 2968.000
445.4600, 2954.000
446.6490, 2969.000
447.8380, 2973.000
449.0270, 2933.000
450.2160, 2982.000
451.4040, 2941.000
452.5930, 2884.000
453.7810, 2957.000
454.9690, 2957.000
456.1570, 2975.000
457.3440, 3027.000
458.5320, 2996.000
459.7190, 3080.000
460.9060, 3129.000
462.0930, 3148.000
463.2800, 3172.000
464.4660, 3211.000
465.6530, 3239.000
466.8390, 3243.000
468.0250, 3245.000
469.2110, 3319.000
470.3970, 3402.000
471.5820, 3351.000
472.7680, 3390.000
473.9530, 3341.000
475.1380, 3436.000
476.3230, 3446.000
477.5070, 3399.000
478.6920, 3442.000
479.8760, 3374.000
481.0600, 3382.000
482.2440, 3379.000
483.4280, 3438.000
484.6110, 3360.000
485.7950, 3459.000
486.9780, 3510.406
488.1610, 3483.096
489.3440, 3678.000
490.5260, 3488.000
491.7090, 3532.000
492.8910, 3557.000
494.0730, 3462.000
495.2550, 3612.000
496.4370, 3592.000
497.6190, 3643.000
498.8000, 3688.000
499.9810, 3754.000
501.1620, 3823.115
502.3430, 3864.000
503.5240, 3967.000
504.7050, 4030.000
505.8850, 4075.000
507.0650, 4184.000
508.2450, 4261.000
509.4250, 4392.000
510.6050, 4377.000
511.7840, 4408.000
512.9630, 4423.000
514.1430, 4346.000
515.3220, 4432.000
516.5000, 4444.000
517.6790, 4547.000
518.8570, 4557.000
520.0360, 4674.000
521.2140, 4781.000
522.3920, 4811.000
523.5690, 4973.000
524.7470, 5030.000
525.9240, 5035.000
527.1010, 5270.000
528.2780, 5291.000
529.4550, 5248.000
530.6320, 5311.000
531.8080, 5422.000
532.9850, 5420.000
534.1610, 5525.000
535.3370, 5614.000
536.5130, 5612.000
537.6880, 5885.000
538.8640, 6026.000
540.0390, 6353.000
541.2140, 6420.000
542.3890, 6882.000
543.5640, 7186.000
544.7380, 7609.000
545.9130, 8177.000
547.0870, 8727.000
548.2610, 9455.000
549.4350, 10380.00
550.6090, 11437.66
551.7820, 12668.58
552.9550, 14113.00
554.1290, 15643.00
555.3020, 17460.00
556.4740, 19424.00
557.6470, 21500.00
558.8200, 22846.00
559.9920, 24165.00
561.1640, 24104.00
562.3360, 23246.00
563.5080, 21708.00
564.6790, 19127.00
565.8510, 17054.00
567.0220, 14562.00
568.1930, 12490.00
569.3640, 10682.00
570.5350, 9385.000
571.7050, 8052.000
572.8760, 7162.000
574.0460, 6378.000
575.2160, 5852.000
576.3860, 5417.000
577.5550, 5063.000
578.7250, 4734.000
579.8940, 4530.000
581.0630, 4281.000
582.2320, 4126.000
583.4010, 4064.000
584.5700, 3937.000
585.7380, 3839.000
586.9070, 3861.000
588.0750, 3682.000
589.2430, 3622.000
590.4110, 3581.000
591.5780, 3466.000
592.7460, 3522.000
593.9130, 3408.000
595.0800, 3420.000
596.2470, 3341.000
597.4140, 3371.000
598.5800, 3280.000
599.7470, 3278.000
600.9130, 3292.000
602.0790, 3295.000
603.2450, 3270.000
604.4100, 3184.000
605.5760, 3203.000
606.7410, 3265.000
607.9070, 3200.000
609.0720, 3250.000
610.2360, 3262.000
611.4010, 3221.000
612.5660, 3206.000
613.7300, 3377.000
614.8940, 3212.000
616.0580, 3261.000
617.2220, 3233.000
618.3860, 3149.000
619.5490, 3223.000
620.7120, 3073.000
621.8750, 3078.000
623.0380, 2972.000
624.2010, 3026.000
625.3640, 3002.000
626.5260, 3063.000
627.6880, 3086.000
628.8510, 3135.000
630.0120, 3173.000
631.1740, 3235.000
632.3360, 3238.000
633.4970, 3311.000
634.6580, 3474.000
635.8200, 3508.000
636.9800, 3590.000
638.1410, 3789.000
639.3020, 3840.000
640.4620, 3933.000
641.6220, 4005.000
642.7820, 3991.000
643.9420, 4006.000
645.1020, 3991.000
646.2610, 3939.000
647.4210, 3816.000
648.5800, 3722.000
649.7390, 3586.000
650.8980, 3614.000
652.0570, 3452.000
653.2150, 3431.000
654.3730, 3383.000
655.5320, 3237.000
656.6900, 3239.000
657.8470, 3199.000
659.0050, 3116.000
660.1620, 3003.000
661.3200, 2957.000
662.4770, 2857.096
663.6340, 2826.000
664.7910, 2712.000
665.9470, 2686.000
667.1040, 2665.000
668.2600, 2661.000
669.4160, 2568.000
670.5720, 2474.000
671.7280, 2503.000
672.8840, 2418.000
674.0390, 2383.000
675.1940, 2345.000
676.3490, 2289.000
677.5040, 2272.613
678.6590, 2308.000
679.8140, 2224.000
680.9680, 2228.000
682.1220, 2193.000
683.2760, 2153.000
684.4300, 2184.000
685.5840, 2182.000
686.7380, 2149.000
687.8910, 2141.000
689.0440, 2099.000
690.1970, 2047.000
691.3500, 2100.000
692.5030, 2046.000
693.6560, 2143.000
694.8080, 2194.000
695.9600, 2009.000
697.1120, 2050.000
698.2640, 1965.000
699.4160, 1990.000
700.5670, 2014.000
701.7190, 2025.000
702.8700, 2057.000
704.0210, 2055.000
705.1720, 1971.000
706.3230, 2067.000
707.4730, 1979.000
708.6240, 1977.000
709.7740, 2027.000
710.9240, 1988.000
712.0740, 2023.000
713.2230, 2029.000
714.3730, 2070.000
715.5220, 1958.000
716.6720, 1984.000
717.8210, 2016.000
718.9690, 1996.000
720.1180, 2035.000
721.2670, 2021.000
722.4150, 1999.000
723.5630, 2009.000
724.7110, 2033.000
725.8590, 2073.000
727.0070, 2049.000
728.1540, 2074.000
729.3020, 2015.000
730.4490, 2021.000
731.5960, 2089.000
732.7430, 2034.000
733.8890, 2038.000
735.0360, 2046.000
736.1820, 2048.000
737.3280, 2081.000
738.4740, 2114.000
739.6200, 2097.000
740.7660, 2094.000
741.9120, 2051.000
743.0570, 2097.000
744.2020, 2140.000
745.3470, 2113.000
746.4920, 2192.000
747.6370, 2179.000
748.7810, 2165.000
749.9250, 2143.000
751.0700, 2142.000
752.2140, 2162.000
753.3580, 2171.000
754.5010, 2126.000
755.6450, 2195.000
756.7880, 2134.000
757.9310, 2183.000
759.0740, 2172.000
760.2170, 2219.000
761.3600, 2175.000
762.5020, 2136.000
763.6450, 2155.000
764.7870, 2220.000
765.9290, 2254.000
767.0710, 2250.000
768.2120, 2278.000
769.3540, 2266.000
770.4950, 2223.000
771.6370, 2291.000
772.7780, 2229.000
773.9180, 2305.000
775.0590, 2314.000
776.2000, 2293.000
777.3400, 2283.000
778.4800, 2283.000
779.6200, 2264.000
780.7600, 2324.000
781.9000, 2384.000
783.0390, 2319.000
784.1790, 2281.000
785.3180, 2408.000
786.4570, 2348.000
787.5960, 2354.000
788.7350, 2354.000
789.8730, 2420.000
791.0120, 2474.000
792.1500, 2456.000
793.2880, 2484.000
794.4260, 2432.000
795.5630, 2515.000
796.7010, 2478.000
797.8380, 2563.000
798.9760, 2575.000
800.1130, 2556.000
801.2500, 2531.000
802.3860, 2575.000
803.5230, 2660.000
804.6590, 2631.000
805.7960, 2699.000
806.9320, 2714.000
808.0680, 2725.764
809.2030, 2735.000
810.3390, 2767.000
811.4740, 2778.000
812.6100, 2812.000
813.7450, 2939.000
814.8800, 2946.000
816.0140, 3085.000
817.1490, 3133.000
818.2830, 3279.000
819.4180, 3296.000
820.5520, 3270.000
821.6860, 3394.000
822.8200, 3576.000
823.9530, 3651.000
825.0870, 3820.000
826.2200, 3813.000
827.3530, 3963.000
828.4860, 4015.000
829.6190, 4116.000
830.7510, 4169.000
831.8840, 4179.000
833.0160, 4207.000
834.1480, 4313.000
835.2800, 4286.000
836.4120, 4314.000
837.5440, 4264.000
838.6750, 4333.000
839.8070, 4527.000
840.9380, 4583.000
842.0690, 4673.000
843.2000, 4887.000
844.3300, 4869.000
845.4610, 5166.000
846.5910, 5267.000
847.7220, 5419.000
848.8520, 5771.000
849.9810, 5885.000
851.1110, 6235.000
852.2410, 6410.000
853.3700, 6780.000
854.4990, 7139.000
855.6280, 7352.000
856.7570, 7657.000
857.8860, 8069.000
859.0150, 8346.000
860.1430, 8526.000
861.2710, 8664.000
862.3990, 8782.626
863.5270, 8901.000
864.6550, 8847.000
865.7830, 8717.000
866.9100, 8601.000
868.0370, 8343.000
869.1640, 8295.000
870.2910, 7994.000
871.4180, 7816.000
872.5450, 7749.000
873.6710, 7696.000
874.7980, 7586.000
875.9240, 7470.000
877.0500, 7499.000
878.1760, 7589.000
879.3010, 7758.000
880.4270, 7934.000
881.5520, 8010.000
882.6770, 8223.000
883.8020, 8632.000
884.9270, 9072.000
886.0520, 9499.000
887.1760, 10110.00
888.3010, 10122.00
889.4250, 10778.00
890.5490, 10582.00
891.6730, 10996.00
892.7970, 11630.00
893.9200, 12147.00
895.0440, 12891.00
896.1670, 13852.00
897.2900, 14782.00
898.4130, 16094.00
899.5360, 17119.97
900.6580, 18496.00
901.7810, 20007.00
902.9030, 22284.00
904.0250, 24996.00
905.1470, 28013.00
906.2690, 32110.00
907.3910, 36505.00
908.5120, 42086.00
909.6330, 48464.00
910.7540, 56295.00
911.8750, 65291.00
912.9960, 74933.00
914.1170, 85461.00
915.2380, 96150.00
916.3580, 106384.0
917.4780, 114523.0
918.5980, 119581.0
919.7180, 121139.0
920.8380, 118863.0
921.9570, 112713.0
923.0770, 103526.0
924.1960, 92863.00
925.3150, 81599.00
926.4340, 70941.00
927.5530, 61234.00
928.6710, 52304.00
929.7900, 45491.00
930.9080, 39299.00
932.0260, 34789.00
933.1440, 30504.00
934.2620, 27014.00
935.3800, 24207.00
936.4970, 21680.00
937.6140, 19602.00
938.7320, 17670.00
939.8490, 16085.00
940.9660, 14623.00
942.0820, 13605.00
943.1990, 12350.00
944.3150, 11304.00
945.4310, 10702.00
946.5470, 9968.000
947.6630, 9481.000
948.7790, 8880.000
949.8950, 8507.000
951.0100, 8035.000
952.1250, 7787.000
953.2400, 7475.143
954.3550, 7219.000
955.4700, 7041.000
956.5850, 6937.000
957.6990, 6837.000
958.8140, 6669.000
959.9280, 6477.000
961.0420, 6378.000
962.1560, 6322.000
963.2690, 6162.000
964.3830, 6072.000
965.4960, 5943.000
966.6090, 5831.000
967.7230, 5749.000
968.8350, 5684.000
969.9480, 5572.000
971.0610, 5514.000
972.1730, 5403.000
973.2850, 5368.000
974.3980, 5325.000
975.5100, 5166.000
976.6210, 5203.000
977.7330, 5126.000
978.8440, 5146.000
979.9560, 5146.000
981.0670, 5086.000
982.1780, 5124.000
983.2890, 5006.000
984.3990, 5049.000
985.5100, 4885.000
986.6200, 4916.000
987.7310, 4830.000
988.8410, 4887.000
989.9510, 4715.000
991.0600, 4655.000
992.1700, 4474.000
993.2790, 4503.000
994.3890, 4472.000
995.4980, 4308.000
996.6070, 4173.000
997.7160, 4175.000
998.8240, 4182.000
999.9330, 4058.000
1001.041, 4047.000
1002.149, 3941.000
1003.257, 3876.000
1004.365, 3938.000
1005.473, 3885.000
1006.580, 3827.000
1007.688, 3897.000
1008.795, 3883.000
1009.902, 3944.000
1011.009, 4010.000
1012.116, 3988.000
1013.222, 4201.000
1014.329, 4147.000
1015.435, 4354.000
1016.541, 4391.000
1017.647, 4466.000
1018.753, 4626.000
1019.859, 4667.000
1020.964, 4850.000
1022.070, 4962.000
1023.175, 4966.000
1024.280, 5075.000
1025.385, 5185.000
1026.490, 5207.000
1027.594, 5223.000
1028.699, 5214.000
1029.803, 5192.000
1030.907, 5240.000
1032.011, 5248.000
1033.115, 5257.000
1034.219, 5282.000
1035.322, 5279.916
1036.426, 5275.324
1037.529, 5278.000
1038.632, 5268.000
1039.735, 5250.000
1040.837, 5286.000
1041.940, 5190.000
1043.042, 5319.000
1044.145, 5300.000
1045.247, 5460.000
1046.349, 5377.000
1047.451, 5401.000
1048.552, 5479.000
1049.654, 5484.000
1050.755, 5398.000
1051.856, 5409.000
1052.957, 5322.000
1054.058, 5231.000
1055.159, 5110.073
1056.259, 4913.000
1057.360, 4757.000
1058.460, 4563.000
1059.560, 4310.000
1060.660, 4154.000
1061.760, 3962.000
1062.860, 3848.000
1063.959, 3759.000
1065.058, 3555.000
1066.158, 3461.000
1067.257, 3331.000
1068.355, 3261.000
1069.454, 3174.000
1070.553, 3096.000
1071.651, 3071.000
1072.749, 3038.000
1073.847, 2967.000
1074.945, 2935.000
1076.043, 2872.000
1077.141, 2813.000
1078.238, 2792.000
1079.336, 2784.000
1080.433, 2751.000
1081.530, 2737.000
1082.627, 2725.000
1083.723, 2700.000
1084.820, 2652.000
1085.916, 2665.000
1087.013, 2543.771
1088.109, 2636.177
1089.205, 2685.020
1090.301, 2692.224
1091.396, 2556.332
1092.492, 2587.454
1093.587, 2540.798
1094.682, 2616.000
1095.777, 2523.000
1096.872, 2513.000
1097.967, 2531.000
1099.061, 2486.000
1100.156, 2522.000
1101.250, 2512.000
1102.344, 2502.000
1103.438, 2457.000
1104.532, 2440.810
1105.626, 2411.166
1106.719, 2423.000
1107.813, 2368.000
1108.906, 2447.000
1109.999, 2465.000
1111.092, 2384.000
1112.184, 2334.000
1113.277, 2377.000
1114.370, 2357.000
1115.462, 2433.000
1116.554, 2387.000
1117.646, 2296.000
1118.738, 2335.000
1119.829, 2374.000
1120.921, 2314.000
1122.012, 2316.000
1123.104, 2349.000
1124.195, 2274.000
1125.286, 2316.000
1126.376, 2320.000
1127.467, 2252.000
1128.557, 2242.000
1129.648, 2240.000
1130.738, 2282.000
1131.828, 2304.000
1132.918, 2313.000
1134.008, 2313.180
1135.097, 2280.000
1136.186, 2286.000
1137.276, 2267.000
1138.365, 2255.000
1139.454, 2333.000
1140.543, 2228.000
1141.631, 2278.436
1142.720, 2313.000
1143.808, 2277.000
1144.896, 2290.000
1145.984, 2247.000
1147.072, 2316.000
1148.160, 2306.000
1149.248, 2282.000
1150.335, 2308.000
1151.422, 2302.585
1152.509, 2299.028
1153.596, 2317.000
1154.683, 2293.000
1155.770, 2282.000
1156.857, 2275.000
1157.943, 2305.000
1159.029, 2306.669
1160.115, 2313.522
1161.201, 2340.000
1162.287, 2336.000
1163.373, 2346.000
1164.458, 2381.000
1165.543, 2391.000
1166.629, 2394.399
1167.714, 2428.000
1168.799, 2397.000
1169.883, 2403.000
1170.968, 2417.000
1172.052, 2446.000
1173.137, 2455.000
1174.221, 2449.000
1175.305, 2544.000
1176.389, 2564.000
1177.472, 2488.000
1178.556, 2564.000
1179.639, 2532.000
1180.722, 2530.000
1181.805, 2568.000
1182.888, 2591.000
1183.971, 2590.280
1185.054, 2588.000
1186.136, 2579.000
1187.219, 2570.000
1188.301, 2530.000
1189.383, 2576.000
1190.465, 2580.000
1191.547, 2519.000
1192.628, 2534.000
1193.710, 2556.000
1194.791, 2616.000
1195.872, 2577.000
1196.953, 2484.000
1198.034, 2602.000
1199.115, 2511.000
1200.195, 2561.000
1201.276, 2543.000
1202.356, 2543.000
1203.436, 2540.000
1204.516, 2578.000
1205.596, 2548.162
1206.675, 2549.000
1207.755, 2505.000
1208.834, 2514.000
1209.913, 2484.000
1210.992, 2442.000
1212.071, 2506.000
1213.150, 2497.000
1214.229, 2466.000
1215.307, 2465.000
1216.386, 2443.000
1217.464, 2509.000
1218.542, 2484.000
1219.620, 2440.000
1220.697, 2487.000
1221.775, 2450.000
1222.852, 2425.000
1223.930, 2423.000
1225.007, 2465.000
1226.084, 2451.000
1227.161, 2382.000
1228.237, 2347.000
1229.314, 2401.000
1230.390, 2314.000
1231.466, 2344.000
1232.543, 2393.000
1233.619, 2363.000
1234.694, 2428.000
1235.770, 2416.000
1236.845, 2380.000
1237.921, 2426.000
1238.996, 2330.000
1240.071, 2319.000
1241.146, 2308.000
1242.221, 2321.000
1243.295, 2355.000
1244.370, 2368.000
1245.444, 2322.000
1246.518, 2349.000
1247.592, 2334.000
1248.666, 2363.000
1249.740, 2362.000
1250.814, 2395.000
1251.887, 2382.100
1252.960, 2356.286
1254.034, 2381.000
1255.107, 2325.000
1256.179, 2369.000
1257.252, 2460.000
1258.325, 2390.000
1259.397, 2364.000
1260.469, 2342.000
1261.542, 2464.000
1262.614, 2460.000
1263.685, 2428.000
1264.757, 2455.000
1265.829, 2395.000
1266.900, 2422.000
1267.971, 2391.000
1269.042, 2483.000
1270.113, 2465.000
1271.184, 2462.000
1272.255, 2465.000
1273.325, 2467.820
1274.396, 2472.888
1275.466, 2481.000
1276.536, 2484.000
1277.606, 2472.000
1278.676, 2468.609
1279.745, 2451.000
1280.815, 2463.000
1281.884, 2476.000
1282.953, 2451.000
1284.022, 2430.000
1285.091, 2391.000
1286.160, 2437.000
1287.229, 2430.000
1288.297, 2465.000
1289.366, 2477.000
1290.434, 2368.000
1291.502, 2407.000
1292.570, 2400.000
1293.637, 2408.000
1294.705, 2397.000
1295.773, 2403.527
1296.840, 2399.000
1297.907, 2398.000
1298.974, 2403.000
1300.041, 2402.943
1301.108, 2397.885
1302.174, 2402.000
1303.241, 2409.000
1304.307, 2392.000
1305.373, 2393.442
1306.439, 2395.224
1307.505, 2372.000
1308.571, 2399.000
1309.636, 2376.000
1310.702, 2371.000
1311.767, 2327.000
1312.832, 2362.000
1313.897, 2406.000
1314.962, 2365.000
1316.027, 2309.000
1317.091, 2330.000
1318.156, 2351.000
1319.220, 2236.000
1320.284, 2351.000
1321.348, 2356.000
1322.412, 2200.000
1323.475, 2265.000
1324.539, 2212.000
1325.602, 2300.000
1326.666, 2186.000
1327.729, 2188.000
1328.792, 2125.000
1329.855, 2223.000
1330.917, 2200.000
1331.980, 2204.438
1333.042, 2274.000
1334.104, 2174.000
1335.167, 2232.000
1336.229, 2150.000
1337.290, 2177.000
1338.352, 2180.446
1339.414, 2241.000
1340.475, 2192.000
1341.536, 2146.000
1342.597, 2138.000
1343.658, 2162.000
1344.719, 2213.000
1345.780, 2158.000
1346.840, 2093.000
1347.901, 2113.000
1348.961, 2180.000
1350.021, 2098.000
1351.081, 2160.000
1352.141, 2076.000
1353.200, 2173.000
1354.260, 2223.000
1355.319, 2122.000
1356.379, 2190.000
1357.438, 2149.000
1358.497, 2081.000
1359.555, 2093.000
1360.614, 2123.000
1361.673, 2142.000
1362.731, 2144.643
1363.789, 2163.000
1364.847, 2139.000
1365.905, 2148.000
1366.963, 2129.000
1368.021, 2110.675
1369.078, 2140.000
1370.136, 2101.000
1371.193, 2068.000
1372.250, 2132.000
1373.307, 2190.000
1374.364, 2105.000
1375.420, 2141.000
1376.477, 2124.000
1377.533, 2141.000
1378.589, 2099.000
1379.646, 2139.000
1380.702, 2108.000
1381.757, 2099.000
1382.813, 2145.000
1383.869, 2190.000
1384.924, 2110.000
1385.979, 2203.000
1387.034, 2138.000
1388.089, 2169.000
1389.144, 2102.000
1390.199, 2157.000
1391.253, 2106.000
1392.308, 2120.000
1393.362, 2165.000
1394.416, 2173.000
1395.470, 2197.000
1396.524, 2161.000
1397.577, 2211.000
1398.631, 2144.000
1399.684, 2160.000
1400.738, 2189.000
1401.791, 2187.000
1402.844, 2202.000
1403.897, 2161.000
1404.949, 2220.000
1406.002, 2140.000
1407.054, 2240.000
1408.107, 2155.000
1409.159, 2225.000
1410.211, 2144.000
1411.263, 2185.000
1412.314, 2196.588
1413.366, 2193.000
1414.417, 2235.000
1415.468, 2243.000
1416.520, 2266.000
1417.571, 2251.000
1418.621, 2165.000
1419.672, 2180.000
1420.723, 2152.000
1421.773, 2190.000
1422.824, 2195.000
1423.874, 2239.000
1424.924, 2263.000
1425.974, 2304.510
1427.023, 2285.189
1428.073, 2286.646
1429.122, 2233.000
1430.172, 2277.000
1431.221, 2252.000
1432.270, 2313.000
1433.319, 2262.000
1434.367, 2249.000
1435.416, 2210.000
1436.465, 2239.000
1437.513, 2253.000
1438.561, 2195.000
1439.609, 2289.000
1440.657, 2312.000
1441.705, 2242.000
1442.752, 2287.000
1443.800, 2242.000
1444.847, 2237.000
1445.894, 2295.000
1446.942, 2259.000
1447.988, 2255.000
1449.035, 2274.000
1450.082, 2248.000
1451.128, 2321.000
1452.175, 2290.000
1453.221, 2326.000
1454.267, 2331.034
1455.313, 2293.000
1456.359, 2313.000
1457.405, 2318.000
1458.450, 2272.000
1459.496, 2273.000
1460.541, 2318.000
1461.586, 2371.000
1462.631, 2262.000
1463.676, 2343.000
1464.720, 2288.000
1465.765, 2312.000
1466.809, 2315.000
1467.854, 2363.000
1468.898, 2266.000
1469.942, 2373.000
1470.986, 2370.000
1472.029, 2448.000
1473.073, 2375.000
1474.116, 2390.000
1475.160, 2394.000
1476.203, 2358.000
1477.246, 2375.000
1478.289, 2349.000
1479.332, 2425.000
1480.374, 2394.000
1481.417, 2416.000
1482.459, 2399.000
1483.501, 2412.000
1484.543, 2433.000
1485.585, 2418.000
1486.627, 2442.000
1487.669, 2474.000
1488.710, 2381.000
1489.752, 2428.000
1490.793, 2440.000
1491.834, 2439.000
1492.875, 2494.000
1493.916, 2418.000
1494.956, 2466.000
1495.997, 2469.000
1497.037, 2460.000
1498.077, 2563.000
1499.118, 2534.000
1500.158, 2541.000
1501.197, 2482.000
1502.237, 2429.000
1503.277, 2478.000
1504.316, 2476.000
1505.355, 2503.000
1506.395, 2454.000
1507.434, 2518.000
1508.473, 2527.000
1509.511, 2479.000
1510.550, 2500.000
1511.588, 2489.000
1512.627, 2476.000
1513.665, 2530.000
1514.703, 2485.000
1515.741, 2605.000
1516.779, 2550.000
1517.816, 2490.000
1518.854, 2563.000
1519.891, 2509.000
1520.928, 2481.000
1521.966, 2506.000
1523.003, 2502.000
1524.039, 2508.000
1525.076, 2450.000
1526.113, 2454.000
1527.149, 2428.000
1528.185, 2421.596
1529.221, 2426.496
1530.257, 2429.000
1531.293, 2435.000
1532.329, 2447.000
1533.365, 2444.000
1534.400, 2472.317
1535.435, 2477.233
1536.471, 2517.000
1537.506, 2507.000
1538.541, 2507.000
1539.575, 2531.000
1540.610, 2521.454
1541.644, 2479.000
1542.679, 2514.000
1543.713, 2503.000
1544.747, 2476.000
1545.781, 2488.318
1546.815, 2476.000
1547.849, 2474.000
1548.882, 2494.000
1549.916, 2484.000
1550.949, 2526.702
1551.982, 2522.000
1553.015, 2609.000
1554.048, 2647.000
1555.081, 2685.000
1556.113, 2442.000
1557.146, 2482.000
1558.178, 2409.000
1559.210, 2468.000
1560.242, 2418.000
1561.274, 2441.000
1562.306, 2436.000
1563.338, 2509.000
1564.369, 2435.000
1565.400, 2513.000
1566.432, 2505.000
1567.463, 2470.000
1568.494, 2454.000
1569.525, 2463.000
1570.555, 2584.000
1571.586, 2429.000
1572.616, 2511.000
1573.647, 2449.000
1574.677, 2424.000
1575.707, 2560.000
1576.737, 2791.000
1577.766, 2468.000
1578.796, 2520.000
##END=



