##NAMES=Pyrope
##RRUFFID=R050446
##IDEAL CHEMISTRY=Mg_3_Al_2_(SiO_4_)_3_
##LOCALITY=Sunset Crater, Arizona, USA
##OWNER=RRUFF
##SOURCE=Marcus Origlieri
##DESCRIPTION=Red fragment
##STATUS=The identification of this mineral has been confirmed by X-ray diffraction and chemical analysis
##URL=rruff.info/R050446
##MEASURED CHEMISTRY=(Mg_1.93_Fe^2+^_0.65_Ca_0.42_)_Î£=3_Al_2.00_(Si_1.00_O_4_)_3_
##PIN_ID=L01215
##ORIENTATION=Laser parallel to a* (1 0 0). Fiducial mark perpendicular to laser is parallel to c [0 0 1]
62.89900, 56.00000
64.14700, 80.00000
65.39500, 77.00000
66.64300, 73.00000
67.89000, 70.00000
69.13800, 67.00000
70.38500, 83.00000
71.63200, 73.00000
72.87900, 69.00000
74.12500, 66.00000
75.37200, 88.00000
76.61800, 79.00000
77.86400, 105.0000
79.10900, 96.00000
80.35500, 111.0000
81.60000, 108.0000
82.84600, 113.0000
84.09100, 123.0000
85.33500, 139.0000
86.58000, 178.0780
87.82400, 221.0000
89.06900, 283.0000
90.31300, 349.0000
91.55600, 428.0000
92.80000, 528.0000
94.04300, 594.0000
95.28700, 691.0000
96.53000, 804.0000
97.77300, 939.0000
99.01500, 1056.000
100.2580, 1228.000
101.5000, 1394.000
102.7420, 1558.000
103.9840, 1650.000
105.2260, 1847.000
106.4670, 1975.000
107.7080, 2215.000
108.9490, 2334.000
110.1900, 2389.000
111.4310, 2487.000
112.6720, 2523.000
113.9120, 2626.000
115.1520, 2787.000
116.3920, 2946.000
117.6320, 2955.000
118.8710, 3081.000
120.1110, 3085.000
121.3500, 3154.000
122.5890, 3148.000
123.8270, 3254.000
125.0660, 3273.000
126.3040, 3235.000
127.5430, 3316.000
128.7810, 3302.561
130.0180, 3403.000
131.2560, 3359.000
132.4940, 3420.000
133.7310, 3510.000
134.9680, 3485.000
136.2050, 3485.000
137.4410, 3573.000
138.6780, 3506.000
139.9140, 3570.000
141.1500, 3593.000
142.3860, 3608.000
143.6220, 3611.000
144.8570, 3655.000
146.0920, 3614.000
147.3280, 3644.000
148.5620, 3594.000
149.7970, 3636.000
151.0320, 3670.000
152.2660, 3591.000
153.5000, 3629.000
154.7340, 3632.000
155.9680, 3604.000
157.2020, 3605.000
158.4350, 3612.000
159.6680, 3571.000
160.9010, 3541.000
162.1340, 3546.000
163.3670, 3580.000
164.5990, 3538.000
165.8310, 3540.000
167.0630, 3490.000
168.2950, 3456.000
169.5270, 3500.000
170.7580, 3489.339
171.9900, 3538.000
173.2210, 3538.000
174.4510, 3611.000
175.6820, 3630.000
176.9130, 3678.000
178.1430, 3693.000
179.3730, 3779.000
180.6030, 3743.000
181.8330, 3803.000
183.0620, 3882.000
184.2920, 3897.433
185.5210, 4122.000
186.7500, 4011.000
187.9790, 4168.000
189.2070, 4268.000
190.4360, 4250.000
191.6640, 4184.000
192.8920, 4286.000
194.1200, 4177.000
195.3480, 4260.000
196.5750, 4355.000
197.8020, 4294.000
199.0290, 4302.000
200.2560, 4232.000
201.4830, 4342.000
202.7090, 4412.000
203.9360, 4405.000
205.1620, 4444.000
206.3880, 4403.000
207.6140, 4502.000
208.8390, 4502.000
210.0650, 4492.000
211.2900, 4404.000
212.5150, 4499.000
213.7400, 4448.000
214.9640, 4476.000
216.1890, 4436.000
217.4130, 4456.000
218.6370, 4395.000
219.8610, 4377.114
221.0850, 4393.000
222.3080, 4323.000
223.5310, 4327.000
224.7540, 4327.000
225.9770, 4267.000
227.2000, 4312.000
228.4230, 4321.000
229.6450, 4231.000
230.8670, 4337.000
232.0890, 4323.000
233.3110, 4273.000
234.5320, 4334.000
235.7540, 4305.000
236.9750, 4399.000
238.1960, 4397.000
239.4170, 4450.000
240.6380, 4399.000
241.8580, 4393.000
243.0780, 4444.000
244.2990, 4441.000
245.5180, 4443.000
246.7380, 4452.000
247.9580, 4475.000
249.1770, 4478.000
250.3960, 4510.000
251.6150, 4520.000
252.8340, 4482.000
254.0530, 4508.000
255.2710, 4482.000
256.4890, 4507.000
257.7070, 4478.000
258.9250, 4517.000
260.1430, 4515.727
261.3600, 4477.000
262.5770, 4536.000
263.7950, 4542.000
265.0110, 4555.000
266.2280, 4601.000
267.4450, 4605.000
268.6610, 4540.000
269.8770, 4599.000
271.0930, 4557.000
272.3090, 4588.000
273.5250, 4560.000
274.7400, 4565.000
275.9550, 4651.000
277.1700, 4630.000
278.3850, 4663.000
279.6000, 4646.666
280.8140, 4601.000
282.0290, 4600.000
283.2430, 4624.000
284.4570, 4640.000
285.6700, 4632.000
286.8840, 4699.000
288.0970, 4649.000
289.3100, 4639.000
290.5230, 4671.000
291.7360, 4771.000
292.9490, 4689.000
294.1610, 4724.000
295.3740, 4748.000
296.5860, 4730.000
297.7970, 4731.000
299.0090, 4753.425
300.2210, 4816.000
301.4320, 4813.000
302.6430, 4807.000
303.8540, 4874.000
305.0650, 4865.000
306.2750, 5000.000
307.4860, 4938.000
308.6960, 5010.000
309.9060, 5051.000
311.1160, 5057.000
312.3260, 5131.000
313.5350, 5235.000
314.7440, 5129.000
315.9530, 5322.000
317.1620, 5332.000
318.3710, 5334.000
319.5800, 5436.000
320.7880, 5331.000
321.9960, 5496.000
323.2040, 5572.000
324.4120, 5552.000
325.6200, 5618.000
326.8270, 5613.000
328.0340, 5738.000
329.2410, 5747.000
330.4480, 5834.000
331.6550, 5843.000
332.8610, 5985.000
334.0680, 6198.000
335.2740, 6232.000
336.4800, 6474.000
337.6860, 6658.000
338.8910, 6909.000
340.0970, 7122.009
341.3020, 7371.000
342.5070, 7587.000
343.7120, 7823.000
344.9170, 8101.000
346.1210, 8498.000
347.3250, 8908.000
348.5290, 9078.000
349.7330, 9667.000
350.9370, 10229.00
352.1410, 10949.00
353.3440, 11559.00
354.5470, 12278.00
355.7500, 13171.00
356.9530, 13936.00
358.1560, 14672.00
359.3580, 15476.00
360.5610, 16005.00
361.7630, 16360.00
362.9650, 16356.00
364.1660, 16120.00
365.3680, 15722.00
366.5690, 14911.00
367.7710, 13873.00
368.9720, 13082.00
370.1720, 12232.00
371.3730, 11547.00
372.5740, 10800.00
373.7740, 10214.00
374.9740, 9608.000
376.1740, 9351.000
377.3740, 8776.000
378.5730, 8487.000
379.7730, 8177.000
380.9720, 7776.000
382.1710, 7531.000
383.3700, 7185.000
384.5680, 7061.000
385.7670, 6790.000
386.9650, 6626.000
388.1630, 6481.000
389.3610, 6265.000
390.5590, 6044.000
391.7560, 5948.000
392.9540, 5818.000
394.1510, 5722.000
395.3480, 5674.000
396.5450, 5583.000
397.7420, 5476.000
398.9380, 5315.000
400.1340, 5263.000
401.3300, 5238.000
402.5260, 5104.000
403.7220, 5058.000
404.9180, 5119.000
406.1130, 5015.000
407.3080, 4887.000
408.5030, 4955.000
409.6980, 4969.000
410.8930, 4892.000
412.0870, 4838.000
413.2820, 4762.000
414.4760, 4762.000
415.6700, 4809.000
416.8630, 4772.000
418.0570, 4834.000
419.2500, 4732.000
420.4440, 4806.000
421.6370, 4749.000
422.8290, 4739.000
424.0220, 4715.000
425.2150, 4653.000
426.4070, 4648.044
427.5990, 4677.000
428.7910, 4611.000
429.9830, 4646.000
431.1740, 4644.000
432.3660, 4634.000
433.5570, 4712.000
434.7480, 4684.000
435.9390, 4719.000
437.1300, 4692.000
438.3200, 4721.000
439.5110, 4706.879
440.7010, 4709.312
441.8910, 4695.000
443.0810, 4696.000
444.2700, 4719.000
445.4600, 4678.000
446.6490, 4678.000
447.8380, 4672.000
449.0270, 4738.000
450.2160, 4696.000
451.4040, 4717.000
452.5930, 4741.000
453.7810, 4680.000
454.9690, 4721.000
456.1570, 4712.000
457.3440, 4797.000
458.5320, 4813.000
459.7190, 4770.000
460.9060, 4826.000
462.0930, 4846.000
463.2800, 4883.000
464.4660, 4859.000
465.6530, 4803.000
466.8390, 4904.000
468.0250, 4821.000
469.2110, 5023.000
470.3970, 4919.000
471.5820, 4996.000
472.7680, 4886.000
473.9530, 5007.000
475.1380, 5023.000
476.3230, 5045.000
477.5070, 5123.000
478.6920, 5192.000
479.8760, 5099.000
481.0600, 5126.000
482.2440, 5155.000
483.4280, 5183.963
484.6110, 5311.000
485.7950, 5326.000
486.9780, 5401.000
488.1610, 5477.000
489.3440, 5474.000
490.5260, 5472.000
491.7090, 5405.000
492.8910, 5393.000
494.0730, 5357.000
495.2550, 5323.000
496.4370, 5383.000
497.6190, 5363.000
498.8000, 5425.000
499.9810, 5444.000
501.1620, 5594.000
502.3430, 5621.000
503.5240, 5765.000
504.7050, 5867.000
505.8850, 6054.000
507.0650, 6173.000
508.2450, 6311.000
509.4250, 6276.000
510.6050, 6326.000
511.7840, 6293.000
512.9630, 6205.000
514.1430, 6130.000
515.3220, 6037.000
516.5000, 5988.815
517.6790, 5912.000
518.8570, 5920.000
520.0360, 5849.000
521.2140, 5867.000
522.3920, 5948.000
523.5690, 5974.000
524.7470, 5936.000
525.9240, 5961.000
527.1010, 6037.000
528.2780, 5973.000
529.4550, 6154.000
530.6320, 6122.000
531.8080, 6125.000
532.9850, 6166.000
534.1610, 6214.000
535.3370, 6198.000
536.5130, 6219.000
537.6880, 6316.000
538.8640, 6301.000
540.0390, 6515.000
541.2140, 6620.000
542.3890, 6702.000
543.5640, 6793.000
544.7380, 6966.000
545.9130, 7242.000
547.0870, 7552.000
548.2610, 7909.000
549.4350, 8136.000
550.6090, 8424.000
551.7820, 9062.000
552.9550, 9588.000
554.1290, 10262.00
555.3020, 10871.00
556.4740, 11752.00
557.6470, 12454.00
558.8200, 13122.00
559.9920, 13596.00
561.1640, 13782.00
562.3360, 13570.00
563.5080, 13088.00
564.6790, 12287.00
565.8510, 11378.00
567.0220, 10506.00
568.1930, 9430.000
569.3640, 8698.000
570.5350, 8139.000
571.7050, 7587.000
572.8760, 7256.000
574.0460, 6841.000
575.2160, 6625.000
576.3860, 6424.000
577.5550, 6265.000
578.7250, 6129.635
579.8940, 6012.000
581.0630, 5943.000
582.2320, 5929.000
583.4010, 5900.000
584.5700, 5780.000
585.7380, 5806.000
586.9070, 5752.000
588.0750, 5765.000
589.2430, 5882.000
590.4110, 5779.000
591.5780, 5769.000
592.7460, 5732.000
593.9130, 5641.000
595.0800, 5599.000
596.2470, 5673.000
597.4140, 5619.000
598.5800, 5694.000
599.7470, 5682.000
600.9130, 5579.000
602.0790, 5581.000
603.2450, 5575.000
604.4100, 5608.000
605.5760, 5519.000
606.7410, 5620.000
607.9070, 5576.000
609.0720, 5645.000
610.2360, 5620.000
611.4010, 5657.000
612.5660, 5659.000
613.7300, 5641.000
614.8940, 5671.000
616.0580, 5728.000
617.2220, 5686.000
618.3860, 5688.000
619.5490, 5621.000
620.7120, 5674.000
621.8750, 5590.000
623.0380, 5692.000
624.2010, 5686.000
625.3640, 5687.000
626.5260, 5547.000
627.6880, 5798.000
628.8510, 5679.000
630.0120, 5820.000
631.1740, 5802.000
632.3360, 5912.000
633.4970, 5958.000
634.6580, 6065.000
635.8200, 6082.000
636.9800, 6328.000
638.1410, 6412.000
639.3020, 6443.000
640.4620, 6517.000
641.6220, 6786.000
642.7820, 6690.000
643.9420, 6897.000
645.1020, 6890.000
646.2610, 6863.000
647.4210, 6592.000
648.5800, 6615.000
649.7390, 6450.000
650.8980, 6418.000
652.0570, 6213.000
653.2150, 6140.000
654.3730, 6096.095
655.5320, 6058.260
656.6900, 6038.000
657.8470, 6041.000
659.0050, 6029.000
660.1620, 5889.000
661.3200, 5939.000
662.4770, 5923.000
663.6340, 5779.000
664.7910, 5876.000
665.9470, 5862.000
667.1040, 5751.000
668.2600, 5813.000
669.4160, 5778.000
670.5720, 5707.000
671.7280, 5795.000
672.8840, 5772.000
674.0390, 5737.000
675.1940, 5709.000
676.3490, 5642.000
677.5040, 5672.000
678.6590, 5624.000
679.8140, 5610.000
680.9680, 5737.000
682.1220, 5649.000
683.2760, 5656.000
684.4300, 5596.000
685.5840, 5752.000
686.7380, 5732.000
687.8910, 5702.000
689.0440, 5645.000
690.1970, 5649.000
691.3500, 5705.000
692.5030, 5678.000
693.6560, 5698.000
694.8080, 5733.000
695.9600, 5728.000
697.1120, 5716.000
698.2640, 5619.000
699.4160, 5642.000
700.5670, 5764.000
701.7190, 5684.000
702.8700, 5739.000
704.0210, 5698.000
705.1720, 5732.000
706.3230, 5659.000
707.4730, 5690.000
708.6240, 5687.315
709.7740, 5754.000
710.9240, 5691.000
712.0740, 5747.000
713.2230, 5722.000
714.3730, 5804.000
715.5220, 5747.000
716.6720, 5760.000
717.8210, 5838.000
718.9690, 5800.000
720.1180, 5869.000
721.2670, 5809.000
722.4150, 5779.000
723.5630, 5911.000
724.7110, 5802.000
725.8590, 5779.000
727.0070, 5820.000
728.1540, 5877.000
729.3020, 5967.000
730.4490, 5909.000
731.5960, 5910.000
732.7430, 5920.000
733.8890, 5911.000
735.0360, 6037.000
736.1820, 5985.000
737.3280, 6063.000
738.4740, 6006.000
739.6200, 5990.000
740.7660, 5906.000
741.9120, 5984.000
743.0570, 6078.000
744.2020, 6007.000
745.3470, 6103.000
746.4920, 6068.000
747.6370, 6093.000
748.7810, 6070.000
749.9250, 6103.000
751.0700, 6084.000
752.2140, 6107.000
753.3580, 6079.000
754.5010, 6072.378
755.6450, 6153.000
756.7880, 6079.000
757.9310, 6114.000
759.0740, 6201.000
760.2170, 6242.000
761.3600, 6177.000
762.5020, 6252.000
763.6450, 6284.000
764.7870, 6371.000
765.9290, 6243.000
767.0710, 6261.000
768.2120, 6253.000
769.3540, 6239.000
770.4950, 6296.000
771.6370, 6366.000
772.7780, 6352.000
773.9180, 6373.069
775.0590, 6344.000
776.2000, 6346.000
777.3400, 6330.000
778.4800, 6309.000
779.6200, 6307.000
780.7600, 6349.000
781.9000, 6347.000
783.0390, 6372.000
784.1790, 6317.000
785.3180, 6391.000
786.4570, 6358.000
787.5960, 6396.000
788.7350, 6482.000
789.8730, 6482.000
791.0120, 6469.000
792.1500, 6453.000
793.2880, 6462.305
794.4260, 6472.729
795.5630, 6492.000
796.7010, 6513.000
797.8380, 6526.848
798.9760, 6578.000
800.1130, 6558.000
801.2500, 6547.000
802.3860, 6555.188
803.5230, 6614.230
804.6590, 6572.000
805.7960, 6726.000
806.9320, 6767.000
808.0680, 6725.000
809.2030, 6776.000
810.3390, 6843.000
811.4740, 6873.000
812.6100, 6881.000
813.7450, 6856.000
814.8800, 6942.000
816.0140, 6960.000
817.1490, 7034.000
818.2830, 7006.000
819.4180, 7151.000
820.5520, 7085.000
821.6860, 7212.000
822.8200, 7444.000
823.9530, 7268.000
825.0870, 7416.000
826.2200, 7446.000
827.3530, 7540.000
828.4860, 7592.561
829.6190, 7599.000
830.7510, 7682.000
831.8840, 7699.000
833.0160, 7763.000
834.1480, 7732.000
835.2800, 7796.000
836.4120, 7746.000
837.5440, 7836.000
838.6750, 7960.000
839.8070, 7938.000
840.9380, 8026.000
842.0690, 8125.000
843.2000, 8215.000
844.3300, 8362.000
845.4610, 8608.000
846.5910, 8594.000
847.7220, 8905.000
848.8520, 8989.000
849.9810, 9184.000
851.1110, 9534.000
852.2410, 9657.000
853.3700, 10085.00
854.4990, 10354.00
855.6280, 10674.00
856.7570, 11075.00
857.8860, 11206.00
859.0150, 11412.00
860.1430, 11627.00
861.2710, 11513.00
862.3990, 11593.00
863.5270, 11511.00
864.6550, 11295.00
865.7830, 11013.00
866.9100, 10784.00
868.0370, 10528.00
869.1640, 10317.00
870.2910, 10158.22
871.4180, 10023.00
872.5450, 9866.000
873.6710, 9779.000
874.7980, 9606.000
875.9240, 9703.000
877.0500, 9696.000
878.1760, 9604.000
879.3010, 9749.000
880.4270, 9723.000
881.5520, 9618.000
882.6770, 9788.000
883.8020, 9897.000
884.9270, 10013.00
886.0520, 10088.00
887.1760, 10328.00
888.3010, 10621.00
889.4250, 10786.00
890.5490, 10934.00
891.6730, 11120.00
892.7970, 11538.00
893.9200, 11732.00
895.0440, 12191.00
896.1670, 12485.00
897.2900, 12898.00
898.4130, 13389.00
899.5360, 13914.00
900.6580, 14663.00
901.7810, 15355.00
902.9030, 16500.00
904.0250, 17724.00
905.1470, 19138.00
906.2690, 20988.00
907.3910, 23229.00
908.5120, 25741.00
909.6330, 28765.00
910.7540, 32228.00
911.8750, 36008.00
912.9960, 40340.00
914.1170, 44783.00
915.2380, 49114.00
916.3580, 53022.00
917.4780, 55930.00
918.5980, 57386.00
919.7180, 57391.00
920.8380, 55820.00
921.9570, 52619.00
923.0770, 48254.00
924.1960, 44231.00
925.3150, 39601.00
926.4340, 35020.00
927.5530, 31302.00
928.6710, 27653.00
929.7900, 24746.00
930.9080, 22465.00
932.0260, 20443.00
933.1440, 18851.00
934.2620, 17498.00
935.3800, 16276.00
936.4970, 15070.00
937.6140, 14294.00
938.7320, 13655.00
939.8490, 13046.00
940.9660, 12464.03
942.0820, 11976.89
943.1990, 11488.00
944.3150, 11120.00
945.4310, 10773.00
946.5470, 10453.00
947.6630, 10302.00
948.7790, 10033.00
949.8950, 9870.000
951.0100, 9708.000
952.1250, 9790.000
953.2400, 9480.000
954.3550, 9426.000
955.4700, 9453.000
956.5850, 9254.000
957.6990, 9209.000
958.8140, 9144.000
959.9280, 8984.000
961.0420, 9096.000
962.1560, 8887.000
963.2690, 8943.000
964.3830, 9046.000
965.4960, 8881.000
966.6090, 8828.000
967.7230, 8780.000
968.8350, 8820.000
969.9480, 8745.000
971.0610, 8766.000
972.1730, 8750.000
973.2850, 8658.000
974.3980, 8666.000
975.5100, 8574.000
976.6210, 8580.000
977.7330, 8638.000
978.8440, 8653.000
979.9560, 8661.000
981.0670, 8650.000
982.1780, 8647.062
983.2890, 8690.000
984.3990, 8647.000
985.5100, 8640.000
986.6200, 8699.000
987.7310, 8678.000
988.8410, 8677.000
989.9510, 8608.000
991.0600, 8522.000
992.1700, 8577.000
993.2790, 8584.000
994.3890, 8465.000
995.4980, 8560.000
996.6070, 8406.000
997.7160, 8481.000
998.8240, 8335.000
999.9330, 8481.000
1001.041, 8419.000
1002.149, 8292.000
1003.257, 8226.000
1004.365, 8336.000
1005.473, 8422.000
1006.580, 8347.000
1007.688, 8356.000
1008.795, 8414.000
1009.902, 8331.000
1011.009, 8332.000
1012.116, 8458.000
1013.222, 8519.000
1014.329, 8573.000
1015.435, 8669.000
1016.541, 8658.000
1017.647, 8721.000
1018.753, 8680.000
1019.859, 8824.000
1020.964, 8796.000
1022.070, 8920.000
1023.175, 8894.000
1024.280, 9014.000
1025.385, 9055.000
1026.490, 9024.000
1027.594, 9015.000
1028.699, 9070.509
1029.803, 9032.000
1030.907, 9150.000
1032.011, 9257.000
1033.115, 9255.000
1034.219, 9400.000
1035.322, 9415.031
1036.426, 9360.000
1037.529, 9466.000
1038.632, 9470.000
1039.735, 9451.000
1040.837, 9612.000
1041.940, 9779.000
1043.042, 9640.000
1044.145, 9856.000
1045.247, 9772.000
1046.349, 10014.00
1047.451, 10146.00
1048.552, 10117.00
1049.654, 10127.00
1050.755, 10279.00
1051.856, 10349.00
1052.957, 10213.00
1054.058, 10116.00
1055.159, 10008.00
1056.259, 9923.000
1057.360, 9919.000
1058.460, 9674.000
1059.560, 9580.000
1060.660, 9334.000
1061.760, 9253.000
1062.860, 9127.000
1063.959, 9101.000
1065.058, 8969.022
1066.158, 8892.641
1067.257, 8751.000
1068.355, 8743.000
1069.454, 8650.000
1070.553, 8634.000
1071.651, 8631.000
1072.749, 8575.210
1073.847, 8477.000
1074.945, 8515.000
1076.043, 8450.000
1077.141, 8418.000
1078.238, 8437.000
1079.336, 8461.000
1080.433, 8427.460
1081.530, 8409.000
1082.627, 8390.000
1083.723, 8411.000
1084.820, 8407.000
1085.916, 8402.265
1087.013, 8485.000
1088.109, 8400.000
1089.205, 8328.000
1090.301, 8333.000
1091.396, 8426.000
1092.492, 8349.000
1093.587, 8304.000
1094.682, 8417.000
1095.777, 8319.000
1096.872, 8296.000
1097.967, 8510.000
1099.061, 8389.000
1100.156, 8242.000
1101.250, 8330.000
1102.344, 8335.000
1103.438, 8299.000
1104.532, 8358.000
1105.626, 8328.000
1106.719, 8348.000
1107.813, 8418.000
1108.906, 8264.000
1109.999, 8347.000
1111.092, 8421.000
1112.184, 8317.000
1113.277, 8365.000
1114.370, 8376.300
1115.462, 8436.000
1116.554, 8457.000
1117.646, 8445.135
1118.738, 8448.000
1119.829, 8421.000
1120.921, 8389.000
1122.012, 8406.000
1123.104, 8447.000
1124.195, 8422.000
1125.286, 8468.000
1126.376, 8503.000
1127.467, 8415.000
1128.557, 8443.000
1129.648, 8431.000
1130.738, 8390.000
1131.828, 8509.000
1132.918, 8525.000
1134.008, 8579.000
1135.097, 8424.000
1136.186, 8411.000
1137.276, 8463.000
1138.365, 8478.000
1139.454, 8570.000
1140.543, 8449.000
1141.631, 8469.000
1142.720, 8644.000
1143.808, 8438.000
1144.896, 8494.000
1145.984, 8466.000
1147.072, 8578.000
1148.160, 8551.000
1149.248, 8520.000
1150.335, 8676.000
1151.422, 8664.000
1152.509, 8519.000
1153.596, 8688.000
1154.683, 8604.000
1155.770, 8642.000
1156.857, 8647.000
1157.943, 8614.000
1159.029, 8573.000
1160.115, 8709.000
1161.201, 8728.000
1162.287, 8674.000
1163.373, 8646.000
1164.458, 8705.000
1165.543, 8689.362
1166.629, 8902.000
1167.714, 8815.000
1168.799, 8722.000
1169.883, 8929.000
1170.968, 8745.000
1172.052, 8697.000
1173.137, 8884.000
1174.221, 8781.000
1175.305, 8864.000
1176.389, 8823.000
1177.472, 8884.000
1178.556, 8901.000
1179.639, 8884.000
1180.722, 8898.000
1181.805, 8858.000
1182.888, 8953.000
1183.971, 9006.000
1185.054, 8956.000
1186.136, 8908.000
1187.219, 8883.000
1188.301, 8901.000
1189.383, 8936.000
1190.465, 8998.000
1191.547, 9087.000
1192.628, 9051.805
1193.710, 9065.000
1194.791, 9005.818
1195.872, 9053.000
1196.953, 9060.000
1198.034, 8988.000
1199.115, 9006.000
1200.195, 8931.000
1201.276, 9019.000
1202.356, 9037.000
1203.436, 8976.000
1204.516, 9011.000
1205.596, 8972.000
1206.675, 9075.000
1207.755, 9002.000
1208.834, 9087.000
1209.913, 9125.000
1210.992, 9087.000
1212.071, 9139.000
1213.150, 8964.000
1214.229, 9089.000
1215.307, 9202.000
1216.386, 9068.000
1217.464, 9100.000
1218.542, 9073.000
1219.620, 9199.000
1220.697, 9053.000
1221.775, 9102.000
1222.852, 9074.000
1223.930, 9065.000
1225.007, 9082.789
1226.084, 9036.901
1227.161, 9101.000
1228.237, 9048.000
1229.314, 9070.000
1230.390, 9066.376
1231.466, 9077.000
1232.543, 9058.000
1233.619, 9074.000
1234.694, 9091.000
1235.770, 9164.000
1236.845, 9165.000
1237.921, 9177.000
1238.996, 9212.000
1240.071, 9202.000
1241.146, 9086.000
1242.221, 9070.000
1243.295, 9123.000
1244.370, 9088.000
1245.444, 9230.000
1246.518, 9171.000
1247.592, 9138.000
1248.666, 9278.000
1249.740, 9328.000
1250.814, 9229.000
1251.887, 9249.000
1252.960, 9260.000
1254.034, 9126.000
1255.107, 9214.000
1256.179, 9281.000
1257.252, 9220.000
1258.325, 9284.000
1259.397, 9242.000
1260.469, 9208.000
1261.542, 9341.000
1262.614, 9361.000
1263.685, 9319.000
1264.757, 9286.000
1265.829, 9198.000
1266.900, 9296.000
1267.971, 9272.000
1269.042, 9340.000
1270.113, 9237.000
1271.184, 9334.000
1272.255, 9476.000
1273.325, 9400.000
1274.396, 9340.000
1275.466, 9340.000
1276.536, 9437.000
1277.606, 9312.000
1278.676, 9523.000
1279.745, 9600.000
1280.815, 9364.000
1281.884, 9276.000
1282.953, 9340.000
1284.022, 9372.000
1285.091, 9440.000
1286.160, 9414.000
1287.229, 9356.000
1288.297, 9477.000
1289.366, 9439.000
1290.434, 9297.000
1291.502, 9514.000
1292.570, 9507.000
1293.637, 9498.000
1294.705, 9387.000
1295.773, 9414.000
1296.840, 9432.000
1297.907, 9590.000
1298.974, 9475.000
1300.041, 9448.000
1301.108, 9491.000
1302.174, 9445.000
1303.241, 9572.000
1304.307, 9478.000
1305.373, 9610.000
1306.439, 9665.000
1307.505, 9564.000
1308.571, 9538.000
1309.636, 9489.000
1310.702, 9588.000
1311.767, 9667.000
1312.832, 9576.000
1313.897, 9547.000
1314.962, 9501.000
1316.027, 9552.000
1317.091, 9636.000
1318.156, 9568.000
1319.220, 9542.000
1320.284, 9607.000
1321.348, 9525.000
1322.412, 9646.000
1323.475, 9451.000
1324.539, 9676.000
1325.602, 9525.000
1326.666, 9575.000
1327.729, 9580.000
1328.792, 9634.000
1329.855, 9704.000
1330.917, 9649.000
1331.980, 9586.000
1333.042, 9666.000
1334.104, 9497.000
1335.167, 9607.000
1336.229, 9543.000
1337.290, 9571.000
1338.352, 9555.000
1339.414, 9584.000
1340.475, 9589.000
1341.536, 9593.000
1342.597, 9586.245
1343.658, 9699.000
1344.719, 9550.000
1345.780, 9588.000
1346.840, 9568.000
1347.901, 9678.000
1348.961, 9747.000
1350.021, 9700.000
1351.081, 9663.000
1352.141, 9739.000
1353.200, 9716.000
1354.260, 9738.000
1355.319, 9681.000
1356.379, 9854.000
1357.438, 9676.000
1358.497, 9611.000
1359.555, 9757.000
1360.614, 9804.000
1361.673, 9753.000
1362.731, 9684.000
1363.789, 9785.000
1364.847, 9688.000
1365.905, 9815.000
1366.963, 9792.000
1368.021, 9859.000
1369.078, 10000.00
1370.136, 9714.000
1371.193, 9867.000
1372.250, 9910.000
1373.307, 9721.000
1374.364, 9843.000
1375.420, 9782.000
1376.477, 9850.000
1377.533, 9753.000
1378.589, 9878.000
1379.646, 9901.000
1380.702, 9956.000
1381.757, 9925.000
1382.813, 9937.805
1383.869, 9842.000
1384.924, 9944.000
1385.979, 9883.000
1387.034, 9954.000
1388.089, 9916.000
1389.144, 9775.000
1390.199, 9879.000
1391.253, 9827.000
1392.308, 9821.000
1393.362, 9767.000
1394.416, 9993.000
1395.470, 10029.00
1396.524, 10007.00
1397.577, 9922.000
1398.631, 9964.348
1399.684, 10027.00
1400.738, 10001.00
1401.791, 9971.000
1402.844, 10031.00
1403.897, 9937.000
1404.949, 9870.000
1406.002, 9965.000
1407.054, 9990.000
1408.107, 9908.000
1409.159, 10010.00
1410.211, 9925.000
1411.263, 9900.000
1412.314, 10100.00
1413.366, 10068.00
1414.417, 10088.00
1415.468, 10137.00
1416.520, 10032.00
1417.571, 10098.00
1418.621, 10156.00
1419.672, 10150.00
1420.723, 10107.00
1421.773, 10106.00
1422.824, 10055.00
1423.874, 9985.000
1424.924, 10081.00
1425.974, 10088.00
1427.023, 10058.00
1428.073, 10235.00
1429.122, 10086.00
1430.172, 10172.00
1431.221, 10105.00
1432.270, 10142.00
1433.319, 10178.00
1434.367, 10196.00
1435.416, 10172.00
1436.465, 10105.00
1437.513, 10169.00
1438.561, 10137.00
1439.609, 10208.00
1440.657, 10269.00
1441.705, 10184.00
1442.752, 10340.00
1443.800, 10168.00
1444.847, 10165.00
1445.894, 10291.00
1446.942, 10319.00
1447.988, 10290.00
1449.035, 10312.00
1450.082, 10265.00
1451.128, 10234.00
1452.175, 10398.00
1453.221, 10288.00
1454.267, 10098.00
1455.313, 10390.00
1456.359, 10219.00
1457.405, 10452.00
1458.450, 10464.00
1459.496, 10411.00
1460.541, 10316.00
1461.586, 10245.00
1462.631, 10407.00
1463.676, 10322.00
1464.720, 10443.00
1465.765, 10257.00
1466.809, 10356.00
1467.854, 10326.00
1468.898, 10396.00
1469.942, 10400.07
1470.986, 10412.00
1472.029, 10400.00
1473.073, 10372.00
1474.116, 10359.00
1475.160, 10364.00
1476.203, 10345.11
1477.246, 10403.00
1478.289, 10368.00
1479.332, 10436.00
1480.374, 10537.00
1481.417, 10492.00
1482.459, 10294.00
1483.501, 10558.00
1484.543, 10490.00
1485.585, 10519.00
1486.627, 10640.00
1487.669, 10539.00
1488.710, 10560.00
1489.752, 10658.00
1490.793, 10549.00
1491.834, 10531.00
1492.875, 10554.00
1493.916, 10500.00
1494.956, 10557.00
1495.997, 10471.00
1497.037, 10585.00
1498.077, 10663.00
1499.118, 10572.00
1500.158, 10649.00
1501.197, 10501.00
1502.237, 10585.00
1503.277, 10494.00
1504.316, 10705.00
1505.355, 10661.00
1506.395, 10629.00
1507.434, 10480.00
1508.473, 10616.00
1509.511, 10647.00
1510.550, 10722.00
1511.588, 10636.00
1512.627, 10710.00
1513.665, 10712.00
1514.703, 10765.00
1515.741, 10788.00
1516.779, 10679.00
1517.816, 10676.00
1518.854, 10706.00
1519.891, 10682.00
1520.928, 10711.48
1521.966, 10645.00
1523.003, 10744.00
1524.039, 10701.00
1525.076, 10694.00
1526.113, 10753.00
1527.149, 10760.00
1528.185, 10769.90
1529.221, 10787.34
1530.257, 10763.00
1531.293, 10791.00
1532.329, 10747.00
1533.365, 10742.00
1534.400, 10737.00
1535.435, 10769.00
1536.471, 10813.00
1537.506, 10704.00
1538.541, 10878.00
1539.575, 10744.00
1540.610, 10747.00
1541.644, 10830.00
1542.679, 10795.00
1543.713, 10710.00
1544.747, 10756.00
1545.781, 10735.00
1546.815, 10655.00
1547.849, 10742.00
1548.882, 10749.00
1549.916, 10762.00
1550.949, 10738.00
1551.982, 10761.91
1553.015, 10816.00
1554.048, 10779.00
1555.081, 10806.00
1556.113, 10794.00
1557.146, 10842.00
1558.178, 10771.00
1559.210, 10877.00
1560.242, 10918.00
1561.274, 10834.00
1562.306, 10805.00
1563.338, 10796.00
1564.369, 10734.00
1565.400, 10848.00
1566.432, 10794.00
1567.463, 10791.00
1568.494, 10857.00
1569.525, 10707.00
1570.555, 10772.76
1571.586, 10869.00
1572.616, 10827.00
1573.647, 10865.00
1574.677, 10973.00
1575.707, 10971.00
1576.737, 10986.00
1577.766, 11063.00
1578.796, 10916.00
##END=



