##NAMES=Quartz
##RRUFFID=R060604
##IDEAL CHEMISTRY=SiO_2_
##LOCALITY=Piedras Parada, Veracruz, Mexico
##OWNER=RRUFF
##SOURCE=Michael Scott
##DESCRIPTION=Purple hexagonal prisms, variety amethyst
##STATUS=The identification of this mineral has been confirmed by X-ray diffraction and chemical analysis
##URL=rruff.info/R060604
##MEASURED CHEMISTRY=Si_1.00_O_2_
##PIN_ID=L00806
##ORIENTATION=Laser parallel to a* (1 0 0). Fiducial mark perpendicular to laser is parallel to c [0 0 1]
62.16800, 1314.000
63.41100, 1488.000
64.65300, 1641.000
65.89600, 1840.000
67.13800, 2035.000
68.38000, 2279.000
69.62200, 2480.000
70.86300, 2637.000
72.10500, 2838.000
73.34600, 3031.000
74.58700, 3265.000
75.82800, 3474.000
77.06900, 3653.000
78.30900, 3753.000
79.55000, 4022.000
80.79000, 4109.000
82.03000, 4257.000
83.27000, 4454.000
84.51000, 4585.000
85.74900, 4733.000
86.98900, 4921.000
88.22800, 5032.000
89.46700, 5069.000
90.70600, 5071.000
91.94400, 5150.000
93.18300, 5223.232
94.42100, 5404.000
95.65900, 5425.000
96.89700, 5493.000
98.13500, 5599.000
99.37300, 5570.000
100.6100, 5646.000
101.8480, 5592.000
103.0850, 5633.000
104.3220, 5643.000
105.5590, 5793.000
106.7950, 5802.000
108.0320, 5869.000
109.2680, 5883.000
110.5040, 5871.000
111.7400, 5927.000
112.9760, 5949.000
114.2120, 6015.000
115.4470, 6143.000
116.6820, 6131.000
117.9170, 6274.000
119.1520, 6417.000
120.3870, 6509.000
121.6220, 6843.000
122.8560, 7308.000
124.0900, 7814.000
125.3240, 8667.000
126.5580, 9728.000
127.7920, 10436.00
129.0260, 10970.00
130.2590, 10999.00
131.4920, 10649.00
132.7250, 9964.000
133.9580, 8933.000
135.1910, 8120.000
136.4230, 7611.000
137.6560, 7245.000
138.8880, 7072.000
140.1200, 7085.000
141.3520, 6971.000
142.5830, 6867.000
143.8150, 6820.000
145.0460, 6945.000
146.2770, 6876.000
147.5080, 6940.000
148.7390, 6822.000
149.9700, 6924.000
151.2000, 6904.000
152.4310, 6985.000
153.6610, 6884.000
154.8910, 6983.000
156.1210, 6795.000
157.3500, 6882.000
158.5800, 6809.000
159.8090, 6815.000
161.0380, 6863.000
162.2670, 6897.000
163.4960, 6900.000
164.7240, 6998.000
165.9530, 6928.000
167.1810, 7084.000
168.4090, 7053.000
169.6370, 7265.000
170.8650, 7173.000
172.0920, 7238.000
173.3200, 7324.000
174.5470, 7360.000
175.7740, 7298.000
177.0010, 7504.000
178.2280, 7561.000
179.4540, 7598.000
180.6810, 7782.000
181.9070, 7925.000
183.1330, 7945.000
184.3590, 8125.000
185.5850, 8313.000
186.8100, 8461.420
188.0350, 8706.740
189.2610, 8898.000
190.4860, 9199.000
191.7110, 9501.000
192.9350, 9776.000
194.1600, 10113.00
195.3840, 10538.00
196.6080, 11137.00
197.8320, 11489.00
199.0560, 11959.00
200.2800, 12584.00
201.5030, 13013.00
202.7270, 13411.00
203.9500, 13967.00
205.1730, 14257.00
206.3950, 14458.68
207.6180, 14658.00
208.8410, 14531.00
210.0630, 14354.00
211.2850, 14045.00
212.5070, 13686.00
213.7290, 13363.00
214.9500, 12871.00
216.1720, 12357.00
217.3930, 11916.00
218.6140, 11495.00
219.8350, 11082.00
221.0560, 10629.00
222.2770, 10225.00
223.4970, 10028.00
224.7170, 9630.000
225.9370, 9581.000
227.1570, 9363.000
228.3770, 9132.000
229.5970, 8889.000
230.8160, 8770.000
232.0350, 8703.000
233.2540, 8604.000
234.4730, 8326.000
235.6920, 8414.000
236.9110, 8257.000
238.1290, 8143.000
239.3470, 8201.000
240.5650, 8237.000
241.7830, 8021.000
243.0010, 8016.000
244.2180, 8056.000
245.4360, 7870.000
246.6530, 7808.000
247.8700, 7852.000
249.0870, 7902.000
250.3040, 7891.000
251.5200, 7777.000
252.7370, 7788.000
253.9530, 7749.000
255.1690, 7806.000
256.3850, 7670.000
257.6000, 7729.000
258.8160, 7854.000
260.0310, 7769.000
261.2460, 7800.000
262.4610, 7755.000
263.6760, 7741.000
264.8910, 7726.000
266.1050, 7726.000
267.3200, 7709.480
268.5340, 7783.000
269.7480, 7663.000
270.9620, 7670.000
272.1750, 7598.000
273.3890, 7636.000
274.6020, 7575.000
275.8150, 7513.000
277.0280, 7664.000
278.2410, 7591.000
279.4540, 7558.000
280.6660, 7515.000
281.8790, 7603.000
283.0910, 7572.000
284.3030, 7608.000
285.5140, 7506.000
286.7260, 7645.000
287.9380, 7586.000
289.1490, 7687.000
290.3600, 7671.000
291.5710, 7612.000
292.7820, 7615.000
293.9920, 7632.000
295.2030, 7613.000
296.4130, 7593.000
297.6230, 7666.000
298.8330, 7698.000
300.0430, 7616.000
301.2520, 7592.000
302.4620, 7671.000
303.6710, 7660.000
304.8800, 7677.000
306.0890, 7722.000
307.2980, 7789.000
308.5070, 7731.000
309.7150, 7766.000
310.9230, 7737.000
312.1310, 7755.000
313.3390, 7780.000
314.5470, 7734.000
315.7550, 7786.000
316.9620, 7889.000
318.1690, 7805.000
319.3760, 7800.000
320.5830, 7867.000
321.7900, 7839.000
322.9960, 7859.000
324.2030, 7815.000
325.4090, 7865.000
326.6150, 7955.000
327.8210, 7966.000
329.0270, 8002.000
330.2320, 7858.000
331.4380, 7820.000
332.6430, 7892.000
333.8480, 7932.000
335.0530, 7925.000
336.2580, 8072.000
337.4620, 7915.000
338.6670, 8090.000
339.8710, 8022.000
341.0750, 8004.000
342.2790, 8005.000
343.4820, 8051.000
344.6860, 8067.000
345.8890, 8166.000
347.0920, 8196.000
348.2960, 8301.000
349.4980, 8342.000
350.7010, 8570.000
351.9040, 8959.000
353.1060, 9371.000
354.3080, 9784.000
355.5100, 10069.00
356.7120, 10146.00
357.9140, 9959.000
359.1150, 9570.000
360.3170, 9051.000
361.5180, 8835.000
362.7190, 8473.000
363.9200, 8392.000
365.1200, 8371.000
366.3210, 8315.000
367.5210, 8292.345
368.7210, 8274.941
369.9210, 8261.000
371.1210, 8246.000
372.3210, 8231.000
373.5200, 8205.000
374.7200, 8205.000
375.9190, 8221.000
377.1180, 8264.000
378.3170, 8237.000
379.5150, 8225.000
380.7140, 8203.000
381.9120, 8237.810
383.1110, 8277.000
384.3090, 8312.000
385.5060, 8426.000
386.7040, 8448.000
387.9020, 8471.000
389.0990, 8439.000
390.2960, 8637.000
391.4930, 8813.000
392.6900, 9084.000
393.8860, 9134.000
395.0830, 9192.000
396.2790, 9135.000
397.4750, 9055.000
398.6710, 8880.000
399.8670, 8879.000
401.0630, 8906.000
402.2580, 8966.000
403.4540, 9098.000
404.6490, 8950.000
405.8440, 8963.000
407.0390, 8981.000
408.2330, 8761.000
409.4280, 8666.000
410.6220, 8680.000
411.8160, 8743.000
413.0100, 8696.000
414.2040, 8617.000
415.3980, 8706.000
416.5910, 8606.000
417.7850, 8700.000
418.9780, 8715.000
420.1710, 8689.000
421.3640, 8806.000
422.5560, 8794.000
423.7490, 8820.000
424.9410, 8886.984
426.1330, 8833.000
427.3250, 8946.000
428.5170, 8898.000
429.7090, 8840.000
430.9000, 8845.000
432.0910, 8937.000
433.2820, 9044.000
434.4730, 8986.000
435.6640, 9006.000
436.8550, 9092.000
438.0450, 9089.000
439.2360, 9103.000
440.4260, 9274.000
441.6160, 9378.000
442.8060, 9325.000
443.9950, 9402.000
445.1850, 9670.000
446.3740, 9815.000
447.5630, 10036.89
448.7520, 10308.00
449.9410, 10574.00
451.1300, 10872.00
452.3180, 11293.00
453.5060, 11878.00
454.6950, 12467.00
455.8830, 13708.00
457.0700, 14954.00
458.2580, 17061.00
459.4450, 19819.00
460.6330, 23707.00
461.8200, 28434.00
463.0070, 33710.00
464.1940, 38246.00
465.3800, 40358.00
466.5670, 40469.00
467.7530, 37932.00
468.9390, 33565.00
470.1250, 29078.00
471.3110, 24634.00
472.4970, 21008.00
473.6820, 18529.00
474.8680, 16641.00
476.0530, 15162.00
477.2380, 14052.00
478.4230, 13307.00
479.6070, 12757.00
480.7920, 12313.00
481.9760, 11897.00
483.1600, 11648.00
484.3440, 11421.00
485.5280, 11290.00
486.7120, 10948.00
487.8950, 10849.00
489.0780, 10722.00
490.2620, 10491.00
491.4450, 10558.00
492.6270, 10506.00
493.8100, 10361.00
494.9920, 10344.00
496.1750, 10265.00
497.3570, 10308.00
498.5390, 10232.00
499.7210, 10036.00
500.9020, 10130.00
502.0840, 9934.000
503.2650, 9974.000
504.4460, 9822.000
505.6270, 9976.000
506.8080, 10000.00
507.9890, 10003.00
509.1690, 10010.00
510.3500, 9969.000
511.5300, 9972.000
512.7100, 9974.000
513.8900, 9871.000
515.0690, 9930.000
516.2490, 9813.000
517.4280, 9864.000
518.6070, 9770.000
519.7860, 9807.000
520.9650, 9882.000
522.1440, 9980.000
523.3220, 9928.000
524.5010, 9774.000
525.6790, 9859.000
526.8570, 9766.000
528.0350, 9862.000
529.2130, 9789.000
530.3900, 9774.000
531.5670, 9872.000
532.7450, 9818.000
533.9220, 9787.000
535.0980, 9833.089
536.2750, 9817.000
537.4520, 9862.000
538.6280, 9852.000
539.8040, 9855.000
540.9800, 9813.000
542.1560, 9863.000
543.3320, 9850.000
544.5070, 9958.000
545.6830, 9949.188
546.8580, 9873.000
548.0330, 9972.000
549.2080, 9989.000
550.3830, 9983.000
551.5570, 9903.000
552.7310, 9843.000
553.9060, 9921.000
555.0800, 9767.000
556.2540, 9888.000
557.4270, 9730.000
558.6010, 9808.000
559.7740, 9974.000
560.9470, 9796.000
562.1210, 9818.000
563.2930, 9935.000
564.4660, 9984.000
565.6390, 9971.000
566.8110, 9935.000
567.9830, 9986.000
569.1550, 9945.000
570.3270, 10029.00
571.4990, 10023.00
572.6710, 9983.000
573.8420, 9920.000
575.0130, 10060.00
576.1840, 10175.00
577.3550, 9901.000
578.5260, 10044.00
579.6970, 10018.00
580.8670, 10031.00
582.0370, 9997.000
583.2070, 10174.00
584.3770, 10022.00
585.5470, 10227.00
586.7170, 10185.00
587.8860, 10054.00
589.0550, 10058.00
590.2240, 10119.00
591.3930, 10131.00
592.5620, 10054.00
593.7310, 10087.00
594.8990, 10194.00
596.0670, 10139.00
597.2350, 10288.00
598.4030, 10129.00
599.5710, 10127.00
600.7390, 10224.00
601.9060, 10249.00
603.0740, 10173.00
604.2410, 10327.00
605.4080, 10176.00
606.5740, 10134.00
607.7410, 10310.00
608.9080, 10219.00
610.0740, 10284.00
611.2400, 10219.00
612.4060, 10346.00
613.5720, 10262.00
614.7370, 10343.00
615.9030, 10336.00
617.0680, 10325.00
618.2330, 10228.00
619.3980, 10297.00
620.5630, 10273.00
621.7280, 10336.00
622.8920, 10223.00
624.0570, 10254.00
625.2210, 10463.00
626.3850, 10437.00
627.5490, 10345.00
628.7120, 10515.00
629.8760, 10436.00
631.0390, 10450.00
632.2020, 10407.00
633.3650, 10427.00
634.5280, 10475.00
635.6910, 10401.00
636.8530, 10462.00
638.0160, 10324.00
639.1780, 10402.00
640.3400, 10581.00
641.5020, 10428.00
642.6640, 10454.00
643.8250, 10420.00
644.9870, 10442.00
646.1480, 10485.00
647.3090, 10538.00
648.4700, 10457.00
649.6300, 10577.00
650.7910, 10446.00
651.9510, 10525.00
653.1120, 10593.00
654.2720, 10492.00
655.4320, 10580.00
656.5910, 10572.00
657.7510, 10583.00
658.9100, 10548.00
660.0690, 10572.42
661.2290, 10637.00
662.3880, 10609.00
663.5460, 10618.00
664.7050, 10648.00
665.8630, 10647.00
667.0220, 10630.00
668.1800, 10610.00
669.3380, 10578.00
670.4950, 10748.00
671.6530, 10647.00
672.8100, 10742.00
673.9680, 10587.00
675.1250, 10733.00
676.2820, 10593.00
677.4390, 10783.00
678.5950, 10783.00
679.7520, 10798.00
680.9080, 10906.00
682.0640, 10716.00
683.2200, 10877.00
684.3760, 10745.00
685.5320, 10934.00
686.6870, 10859.00
687.8420, 10816.00
688.9980, 10908.00
690.1530, 11033.00
691.3070, 10941.00
692.4620, 10966.00
693.6170, 10931.00
694.7710, 11200.00
695.9250, 11277.00
697.0790, 11199.00
698.2330, 11322.00
699.3870, 11245.00
700.5400, 11178.00
701.6940, 11124.00
702.8470, 11088.80
704.0000, 11069.00
705.1530, 11050.00
706.3050, 11097.00
707.4580, 11099.00
708.6100, 10999.00
709.7630, 11067.00
710.9150, 11156.00
712.0660, 10982.00
713.2180, 11082.00
714.3700, 11197.00
715.5210, 11124.00
716.6720, 11092.00
717.8240, 11143.00
718.9740, 11071.00
720.1250, 11139.00
721.2760, 11065.00
722.4260, 11113.00
723.5770, 11224.00
724.7270, 11069.00
725.8770, 11121.00
727.0260, 11195.00
728.1760, 11116.00
729.3250, 11124.00
730.4750, 11217.00
731.6240, 11179.00
732.7730, 11213.00
733.9220, 11164.00
735.0700, 11160.00
736.2190, 11089.00
737.3670, 11129.49
738.5150, 11115.19
739.6630, 11223.00
740.8110, 11148.00
741.9590, 11230.00
743.1060, 11272.00
744.2540, 11325.00
745.4010, 11251.00
746.5480, 11363.00
747.6950, 11251.00
748.8410, 11290.00
749.9880, 11314.00
751.1340, 11449.00
752.2800, 11367.00
753.4260, 11496.00
754.5720, 11394.00
755.7180, 11333.00
756.8640, 11591.00
758.0090, 11620.00
759.1540, 11331.00
760.2990, 11377.00
761.4440, 11421.00
762.5890, 11461.00
763.7340, 11405.00
764.8780, 11452.00
766.0220, 11466.00
767.1660, 11487.00
768.3100, 11407.00
769.4540, 11422.00
770.5980, 11529.00
771.7410, 11343.00
772.8840, 11538.00
774.0280, 11449.00
775.1700, 11595.00
776.3130, 11559.00
777.4560, 11573.00
778.5980, 11464.00
779.7410, 11562.00
780.8830, 11584.00
782.0250, 11740.00
783.1670, 11490.00
784.3080, 11544.00
785.4500, 11653.00
786.5910, 11589.00
787.7320, 11707.00
788.8730, 11692.00
790.0140, 11661.00
791.1550, 11829.00
792.2950, 11729.00
793.4360, 11782.00
794.5760, 11683.00
795.7160, 11690.00
796.8560, 11718.00
797.9960, 11699.92
799.1350, 11828.00
800.2750, 11712.00
801.4140, 11789.00
802.5530, 11732.00
803.6920, 11913.00
804.8310, 11832.00
805.9690, 11931.00
807.1080, 12091.00
808.2460, 12000.00
809.3840, 12019.00
810.5220, 12085.00
811.6600, 12201.00
812.7970, 12007.00
813.9350, 11891.00
815.0720, 12031.00
816.2090, 11970.00
817.3460, 11961.00
818.4830, 12025.00
819.6200, 12007.00
820.7560, 11958.00
821.8930, 12038.00
823.0290, 12052.00
824.1650, 11991.00
825.3010, 12063.73
826.4360, 12032.00
827.5720, 12112.00
828.7070, 12045.00
829.8420, 12034.00
830.9770, 12028.00
832.1120, 12016.00
833.2470, 12020.49
834.3820, 12058.00
835.5160, 12066.00
836.6500, 12099.00
837.7840, 12110.65
838.9180, 12191.00
840.0520, 12147.00
841.1860, 12175.00
842.3190, 12223.00
843.4520, 12064.00
844.5850, 12110.00
845.7180, 12121.00
846.8510, 12148.00
847.9840, 12263.00
849.1160, 12071.00
850.2490, 12225.00
851.3810, 12149.00
852.5130, 12259.00
853.6450, 12229.00
854.7760, 12309.00
855.9080, 12325.69
857.0390, 12343.00
858.1700, 12341.00
859.3010, 12332.00
860.4320, 12299.00
861.5630, 12281.00
862.6930, 12403.00
863.8240, 12319.00
864.9540, 12224.00
866.0840, 12337.00
867.2140, 12309.00
868.3440, 12445.00
869.4730, 12556.00
870.6030, 12422.00
871.7320, 12340.00
872.8610, 12424.00
873.9900, 12357.00
875.1190, 12232.00
876.2470, 12360.00
877.3760, 12379.00
878.5040, 12475.00
879.6320, 12502.67
880.7600, 12464.00
881.8880, 12522.00
883.0150, 12574.00
884.1430, 12538.00
885.2700, 12432.00
886.3970, 12418.00
887.5240, 12415.19
888.6510, 12414.60
889.7780, 12429.00
890.9040, 12513.00
892.0310, 12465.00
893.1570, 12564.00
894.2830, 12495.00
895.4090, 12498.00
896.5350, 12672.00
897.6600, 12612.00
898.7860, 12615.00
899.9110, 12654.00
901.0360, 12521.00
902.1610, 12634.00
903.2860, 12595.00
904.4100, 12533.00
905.5350, 12606.00
906.6590, 12571.00
907.7830, 12634.44
908.9070, 12568.00
910.0310, 12706.00
911.1540, 12727.00
912.2780, 12624.00
913.4010, 12761.00
914.5240, 12764.00
915.6470, 12763.00
916.7700, 12820.00
917.8930, 12683.00
919.0150, 12780.00
920.1380, 12779.00
921.2600, 12715.00
922.3820, 12899.00
923.5040, 12778.00
924.6260, 12807.00
925.7470, 12907.00
926.8690, 12850.00
927.9900, 12834.00
929.1110, 12895.00
930.2320, 12935.00
931.3530, 12779.00
932.4730, 12820.00
933.5940, 12849.00
934.7140, 12746.00
935.8340, 12751.00
936.9540, 12725.00
938.0740, 12709.44
939.1930, 12759.86
940.3130, 12728.00
941.4320, 12880.00
942.5510, 12914.00
943.6700, 13000.00
944.7890, 13038.10
945.9080, 13001.00
947.0260, 13086.00
948.1450, 13103.00
949.2630, 13150.00
950.3810, 12985.00
951.4990, 12893.00
952.6170, 13025.00
953.7340, 13114.00
954.8520, 12959.00
955.9690, 13026.00
957.0860, 13125.00
958.2030, 13053.00
959.3200, 13015.00
960.4360, 12913.00
961.5530, 13070.00
962.6690, 13100.00
963.7850, 12958.00
964.9010, 13003.00
966.0170, 12981.00
967.1330, 13187.00
968.2480, 13063.00
969.3630, 13184.00
970.4790, 13063.00
971.5940, 13124.00
972.7080, 13081.00
973.8230, 13165.00
974.9380, 13126.00
976.0520, 13081.00
977.1660, 13044.00
978.2800, 13129.00
979.3940, 13153.00
980.5080, 13166.00
981.6220, 13141.00
982.7350, 13175.00
983.8480, 13204.00
984.9610, 13239.46
986.0740, 13248.00
987.1870, 13253.43
988.3000, 13295.00
989.4120, 13244.00
990.5250, 13229.00
991.6370, 13229.75
992.7490, 13250.00
993.8610, 13265.00
994.9720, 13302.00
996.0840, 13362.00
997.1950, 13395.00
998.3060, 13346.00
999.4170, 13312.00
1000.528, 13367.00
1001.639, 13391.00
1002.750, 13362.00
1003.860, 13324.00
1004.970, 13325.00
1006.080, 13316.18
1007.190, 13417.00
1008.300, 13304.00
1009.410, 13348.00
1010.519, 13292.00
1011.628, 13428.00
1012.738, 13588.00
1013.846, 13410.00
1014.955, 13343.00
1016.064, 13363.00
1017.172, 13512.00
1018.281, 13262.00
1019.389, 13410.00
1020.497, 13562.00
1021.605, 13463.00
1022.713, 13773.00
1023.820, 13593.00
1024.928, 13619.00
1026.035, 13465.00
1027.142, 13638.00
1028.249, 13591.00
1029.356, 13532.00
1030.462, 13523.00
1031.569, 13593.00
1032.675, 13558.00
1033.781, 13599.00
1034.887, 13513.00
1035.993, 13684.00
1037.098, 13556.00
1038.204, 13760.00
1039.309, 13603.00
1040.415, 13582.00
1041.520, 13689.00
1042.624, 13633.00
1043.729, 13772.00
1044.834, 13699.00
1045.938, 13745.00
1047.042, 13735.00
1048.146, 13802.00
1049.250, 13748.00
1050.354, 13680.00
1051.458, 13901.00
1052.561, 13702.00
1053.664, 13859.00
1054.767, 13832.00
1055.870, 13801.00
1056.973, 13795.00
1058.076, 13790.18
1059.178, 13760.00
1060.281, 13793.00
1061.383, 13800.00
1062.485, 13780.00
1063.587, 14063.00
1064.688, 14078.00
1065.790, 13878.00
1066.891, 13976.00
1067.993, 13794.00
1069.094, 13930.00
1070.195, 13909.00
1071.295, 14031.00
1072.396, 13892.00
1073.496, 13896.00
1074.597, 14040.00
1075.697, 13901.00
1076.797, 13902.00
1077.897, 13986.00
1078.996, 14031.00
1080.096, 14105.00
1081.195, 14191.00
1082.294, 14143.00
1083.393, 14062.00
1084.492, 14193.00
1085.591, 14186.00
1086.689, 14005.00
1087.788, 14161.00
1088.886, 14177.00
1089.984, 14057.00
1091.082, 14023.00
1092.180, 13997.00
1093.277, 13994.77
1094.375, 14059.00
1095.472, 14081.00
1096.569, 14107.00
1097.666, 14191.00
1098.763, 14175.00
1099.860, 14213.51
1100.956, 14180.00
1102.053, 14216.00
1103.149, 14255.00
1104.245, 14199.00
1105.341, 14307.00
1106.436, 14071.00
1107.532, 14183.00
1108.627, 14100.00
1109.723, 14142.00
1110.818, 14248.00
1111.913, 14271.00
1113.007, 14278.00
1114.102, 14311.00
1115.197, 14268.00
1116.291, 14343.00
1117.385, 14158.00
1118.479, 14313.00
1119.573, 14235.00
1120.666, 14385.00
1121.760, 14377.00
1122.853, 14431.00
1123.947, 14491.00
1125.040, 14436.00
1126.132, 14240.00
1127.225, 14336.00
1128.318, 14358.00
1129.410, 14251.00
1130.502, 14340.00
1131.595, 14434.00
1132.687, 14434.00
1133.778, 14450.00
1134.870, 14464.00
1135.961, 14311.00
1137.053, 14647.00
1138.144, 14427.00
1139.235, 14575.00
1140.326, 14563.00
1141.416, 14468.00
1142.507, 14378.00
1143.597, 14524.00
1144.688, 14472.00
1145.778, 14526.00
1146.868, 14611.00
1147.957, 14480.00
1149.047, 14605.00
1150.136, 14600.00
1151.226, 14600.00
1152.315, 14774.00
1153.404, 14750.00
1154.493, 14828.00
1155.581, 15047.00
1156.670, 15158.00
1157.758, 15284.00
1158.846, 15306.00
1159.934, 15402.00
1161.022, 15419.00
1162.110, 15401.00
1163.198, 15327.00
1164.285, 15093.00
1165.372, 14944.00
1166.459, 14966.00
1167.546, 14859.00
1168.633, 14763.00
1169.720, 14674.00
1170.806, 14674.00
1171.892, 14797.00
1172.979, 14797.00
1174.065, 14827.00
1175.150, 14627.00
1176.236, 14765.00
1177.322, 14645.00
1178.407, 14704.13
1179.492, 14718.00
1180.577, 14819.00
1181.662, 14716.00
1182.747, 14721.00
1183.832, 14757.00
1184.916, 14731.00
1186.000, 14782.00
1187.084, 14768.00
1188.168, 14834.00
1189.252, 14698.00
1190.336, 14766.00
1191.419, 14769.00
1192.503, 14694.00
1193.586, 14720.00
1194.669, 14791.00
1195.752, 14771.00
1196.835, 14883.00
1197.917, 14782.00
1199.000, 14872.00
1200.082, 15033.00
1201.164, 14965.00
1202.246, 14840.00
1203.328, 14763.00
1204.409, 14744.59
1205.491, 14749.00
1206.572, 14835.00
1207.653, 14792.00
1208.734, 14816.08
1209.815, 14896.00
1210.896, 14822.00
1211.976, 14972.00
1213.057, 15019.00
1214.137, 14869.00
1215.217, 15077.00
1216.297, 15051.00
1217.377, 15028.00
1218.456, 14995.00
1219.536, 14990.00
1220.615, 15010.00
1221.694, 15055.00
1222.773, 15029.00
1223.852, 15026.00
1224.931, 15159.00
1226.009, 15107.00
1227.088, 15126.00
1228.166, 15237.00
1229.244, 15128.00
1230.322, 15249.00
1231.400, 15261.00
1232.477, 15274.00
1233.555, 15252.00
1234.632, 15248.00
1235.709, 15324.00
1236.786, 15223.00
1237.863, 15184.00
1238.939, 15280.00
1240.016, 15254.00
1241.092, 15174.00
1242.168, 15174.00
1243.245, 15153.00
1244.320, 15287.00
1245.396, 15276.00
1246.472, 15273.00
1247.547, 15300.75
1248.622, 15145.00
1249.697, 15287.00
1250.772, 15225.00
1251.847, 15239.00
1252.922, 15318.00
1253.996, 15129.00
1255.071, 15218.00
1256.145, 15417.00
1257.219, 15268.00
1258.293, 15251.00
1259.366, 15252.00
1260.440, 15260.00
1261.513, 15276.00
1262.587, 15297.00
1263.660, 15391.00
1264.733, 15379.98
1265.805, 15314.00
1266.878, 15437.00
1267.951, 15340.00
1269.023, 15423.00
1270.095, 15402.00
1271.167, 15264.00
1272.239, 15394.00
1273.311, 15491.00
1274.382, 15293.00
1275.454, 15430.00
1276.525, 15372.00
1277.596, 15399.00
1278.667, 15272.00
1279.738, 15213.00
1280.808, 15194.00
1281.879, 15148.00
1282.949, 15145.00
1284.019, 15193.00
1285.089, 15159.71
1286.159, 15223.00
1287.229, 15144.00
1288.298, 15279.00
1289.368, 15266.00
1290.437, 15332.00
1291.506, 15407.00
1292.575, 15307.00
1293.644, 15287.00
1294.712, 15339.00
1295.781, 15389.00
1296.849, 15386.00
1297.917, 15335.00
1298.985, 15530.00
1300.053, 15572.00
1301.121, 15531.00
1302.188, 15480.00
1303.255, 15523.00
1304.323, 15479.00
1305.390, 15507.27
1306.457, 15484.00
1307.523, 15570.00
1308.590, 15581.00
1309.656, 15636.00
1310.723, 15585.00
1311.789, 15603.00
1312.855, 15465.00
1313.921, 15485.00
1314.986, 15638.00
1316.052, 15414.00
1317.117, 15688.00
1318.182, 15732.00
1319.248, 15537.00
1320.312, 15448.00
1321.377, 15517.00
1322.442, 15727.00
1323.506, 15474.00
1324.571, 15657.00
1325.635, 15488.00
1326.699, 15735.00
1327.762, 15632.00
1328.826, 15595.00
1329.890, 15610.00
1330.953, 15662.00
1332.016, 15691.00
1333.079, 15716.00
1334.142, 15787.00
1335.205, 15728.00
1336.268, 15587.00
1337.330, 15729.00
1338.392, 15884.00
1339.454, 15647.00
1340.516, 15828.00
1341.578, 15729.00
1342.640, 15719.00
1343.701, 15841.00
1344.763, 15743.00
1345.824, 15748.00
1346.885, 15844.00
1347.946, 15893.00
1349.007, 15799.00
1350.067, 15804.00
1351.128, 15844.66
1352.188, 15818.60
1353.248, 15908.00
1354.308, 15903.00
1355.368, 15866.00
1356.428, 16015.00
1357.487, 15889.00
1358.547, 15950.00
1359.606, 15869.00
1360.665, 15937.00
1361.724, 15923.00
1362.783, 15932.00
1363.841, 15943.67
1364.900, 15937.98
1365.958, 15949.00
1367.016, 15960.00
1368.074, 15992.00
1369.132, 16048.00
1370.190, 16068.00
1371.247, 16018.00
1372.304, 16071.00
1373.362, 16043.67
1374.419, 16026.00
1375.476, 16014.00
1376.532, 16087.00
1377.589, 16057.00
1378.645, 16038.00
1379.702, 16012.00
1380.758, 15999.00
1381.814, 15976.00
1382.870, 15944.00
1383.925, 16074.00
1384.981, 15994.00
1386.036, 16119.00
1387.092, 16200.00
1388.147, 15995.00
1389.202, 16033.00
1390.256, 16099.00
1391.311, 16182.00
1392.365, 16069.00
1393.420, 16231.00
1394.474, 16078.00
1395.528, 16186.00
1396.582, 16098.00
1397.636, 16064.00
1398.689, 16269.00
1399.742, 16304.00
1400.796, 16279.00
1401.849, 16065.00
1402.902, 16320.00
1403.955, 16171.00
1405.007, 16088.00
1406.060, 16194.00
1407.112, 16120.00
1408.164, 16370.00
1409.216, 16220.00
1410.268, 16077.00
1411.320, 16244.00
1412.371, 16207.00
1413.423, 16244.00
1414.474, 16046.00
1415.525, 16275.00
1416.576, 16227.00
1417.627, 16140.00
1418.678, 16304.00
1419.728, 16211.00
1420.778, 16234.00
1421.829, 16349.00
1422.879, 16438.00
1423.928, 16331.00
1424.978, 16342.00
1426.028, 16252.00
1427.077, 16415.00
1428.126, 16421.00
1429.176, 16150.00
1430.225, 16410.00
1431.273, 16294.00
1432.322, 16486.00
1433.371, 16217.00
1434.419, 16257.00
1435.467, 16403.00
1436.515, 16270.00
1437.563, 16524.00
1438.611, 16246.00
1439.658, 16510.00
1440.706, 16563.00
1441.753, 16528.00
1442.800, 16404.00
1443.847, 16336.00
1444.894, 16396.00
1445.941, 16428.00
1446.987, 16391.00
1448.034, 16495.00
1449.080, 16555.00
1450.126, 16557.00
1451.172, 16393.00
1452.218, 16596.00
1453.263, 16525.00
1454.309, 16561.00
1455.354, 16656.00
1456.399, 16593.00
1457.444, 16521.00
1458.489, 16636.00
1459.534, 16668.00
1460.579, 16640.43
1461.623, 16555.00
1462.667, 16643.00
1463.711, 16514.00
1464.755, 16571.00
1465.799, 16537.00
1466.843, 16571.00
1467.886, 16547.00
1468.930, 16517.00
1469.973, 16659.00
1471.016, 16367.00
1472.059, 16542.00
1473.101, 16462.00
1474.144, 16598.00
1475.186, 16616.00
1476.229, 16587.00
1477.271, 16487.00
1478.313, 16642.00
1479.355, 16774.00
1480.396, 16590.00
1481.438, 16530.00
1482.479, 16571.00
1483.520, 16667.00
1484.561, 16766.00
1485.602, 16763.00
1486.643, 16662.00
1487.684, 16760.00
1488.724, 16635.00
1489.765, 16856.00
1490.805, 16605.00
1491.845, 16670.00
1492.885, 16776.00
1493.924, 16629.00
1494.964, 16712.00
1496.003, 16769.00
1497.042, 16766.00
1498.082, 16785.00
1499.120, 17012.00
1500.159, 16937.00
1501.198, 16737.00
1502.236, 16573.00
1503.275, 16701.00
1504.313, 16725.00
1505.351, 17032.00
1506.389, 16684.00
1507.427, 16854.00
1508.464, 16743.00
1509.502, 16900.00
1510.539, 16830.00
1511.576, 16856.00
1512.613, 16857.00
1513.650, 16912.00
1514.687, 16910.00
1515.723, 16859.00
1516.759, 17030.00
1517.796, 16973.00
1518.832, 16793.00
1519.868, 16833.00
1520.903, 16881.00
1521.939, 16871.00
1522.975, 16896.00
1524.010, 16913.14
1525.045, 16895.00
1526.080, 16964.00
1527.115, 16996.00
1528.150, 17071.00
1529.184, 16961.00
1530.219, 16909.00
1531.253, 16913.00
1532.287, 16913.00
1533.321, 17161.00
1534.355, 16853.00
1535.388, 17070.00
1536.422, 17022.00
1537.455, 16991.00
1538.488, 17096.00
1539.522, 16978.00
1540.554, 17053.00
1541.587, 16961.00
1542.620, 16949.00
1543.652, 17106.00
1544.685, 16974.00
1545.717, 17186.00
1546.749, 17111.00
1547.781, 16854.00
1548.812, 17065.00
1549.844, 17227.00
1550.875, 16961.00
1551.906, 17150.00
1552.938, 17150.00
1553.968, 17161.00
1554.999, 17071.00
1556.030, 17061.00
1557.060, 17096.00
1558.091, 17006.00
1559.121, 17303.00
1560.151, 17146.00
1561.181, 17175.00
1562.211, 17095.00
1563.240, 17010.00
1564.270, 17200.00
1565.299, 17170.00
1566.328, 17006.00
1567.357, 17042.00
1568.386, 16963.00
1569.415, 16935.00
1570.443, 17058.00
1571.472, 17077.00
1572.500, 17043.00
1573.528, 17129.00
1574.556, 17121.00
1575.584, 17322.00
1576.611, 17137.00
1577.639, 17187.00
1578.666, 17107.00
##END=



