##NAMES=Quartz
##RRUFFID=R060604
##IDEAL CHEMISTRY=SiO_2_
##LOCALITY=Piedras Parada, Veracruz, Mexico
##OWNER=RRUFF
##SOURCE=Michael Scott
##DESCRIPTION=Purple hexagonal prisms, variety amethyst
##STATUS=The identification of this mineral has been confirmed by X-ray diffraction and chemical analysis
##URL=rruff.info/R060604
##MEASURED CHEMISTRY=Si_1.00_O_2_
62.16800, 1113.000
63.41100, 1221.000
64.65300, 1297.000
65.89600, 1452.000
67.13800, 1566.000
68.38000, 1787.000
69.62200, 1876.000
70.86300, 2114.000
72.10500, 2270.000
73.34600, 2449.000
74.58700, 2545.000
75.82800, 2780.000
77.06900, 3026.000
78.30900, 3120.000
79.55000, 3128.000
80.79000, 3180.000
82.03000, 3310.000
83.27000, 3563.000
84.51000, 3826.000
85.74900, 4010.000
86.98900, 4000.000
88.22800, 3984.000
89.46700, 4101.000
90.70600, 4145.000
91.94400, 4341.000
93.18300, 4448.000
94.42100, 4461.000
95.65900, 4564.000
96.89700, 4563.000
98.13500, 4523.000
99.37300, 4651.000
100.6100, 4754.000
101.8480, 4784.000
103.0850, 4840.444
104.3220, 4875.422
105.5590, 4885.000
106.7950, 4921.000
108.0320, 4975.316
109.2680, 5008.303
110.5040, 5074.000
111.7400, 5078.000
112.9760, 5202.000
114.2120, 5325.000
115.4470, 5565.000
116.6820, 5861.000
117.9170, 5901.000
119.1520, 6051.000
120.3870, 6407.000
121.6220, 6796.000
122.8560, 7551.000
124.0900, 8864.000
125.3240, 10930.00
126.5580, 13073.00
127.7920, 15299.00
129.0260, 16632.00
130.2590, 16425.00
131.4920, 15246.00
132.7250, 13445.00
133.9580, 11401.00
135.1910, 9632.000
136.4230, 8422.000
137.6560, 7737.000
138.8880, 7384.000
140.1200, 7407.000
141.3520, 7443.000
142.5830, 7362.000
143.8150, 7313.430
145.0460, 7225.951
146.2770, 7087.000
147.5080, 6934.000
148.7390, 6752.000
149.9700, 6646.244
151.2000, 6349.000
152.4310, 6412.000
153.6610, 6266.000
154.8910, 6138.000
156.1210, 6203.000
157.3500, 6149.000
158.5800, 6091.000
159.8090, 6003.000
161.0380, 5994.000
162.2670, 5924.000
163.4960, 5950.000
164.7240, 6067.000
165.9530, 6089.000
167.1810, 6111.000
168.4090, 6201.000
169.6370, 6241.000
170.8650, 6363.000
172.0920, 6305.000
173.3200, 6338.000
174.5470, 6467.000
175.7740, 6444.000
177.0010, 6578.000
178.2280, 6728.000
179.4540, 6759.000
180.6810, 6848.000
181.9070, 7041.000
183.1330, 7234.000
184.3590, 7204.000
185.5850, 7498.000
186.8100, 7716.000
188.0350, 7863.000
189.2610, 8262.000
190.4860, 8616.000
191.7110, 8890.000
192.9350, 9382.000
194.1600, 9792.000
195.3840, 10289.00
196.6080, 10929.00
197.8320, 11356.00
199.0560, 11946.00
200.2800, 12445.00
201.5030, 13241.00
202.7270, 13777.00
203.9500, 14416.00
205.1730, 14649.00
206.3950, 14939.00
207.6180, 15098.00
208.8410, 14864.00
210.0630, 14801.00
211.2850, 14525.00
212.5070, 14078.00
213.7290, 13692.00
214.9500, 13036.00
216.1720, 12511.00
217.3930, 11932.00
218.6140, 11192.00
219.8350, 10671.00
221.0560, 10387.00
222.2770, 9793.000
223.4970, 9505.000
224.7170, 9124.000
225.9370, 8776.000
227.1570, 8570.000
228.3770, 8407.000
229.5970, 8126.000
230.8160, 8017.000
232.0350, 7756.000
233.2540, 7525.000
234.4730, 7497.000
235.6920, 7406.000
236.9110, 7232.000
238.1290, 7142.000
239.3470, 7151.000
240.5650, 7228.000
241.7830, 7400.000
243.0010, 6895.000
244.2180, 6875.000
245.4360, 6753.000
246.6530, 6844.000
247.8700, 6780.000
249.0870, 6642.000
250.3040, 6718.000
251.5200, 6643.000
252.7370, 6598.000
253.9530, 6528.000
255.1690, 6606.000
256.3850, 6513.000
257.6000, 6572.000
258.8160, 6549.000
260.0310, 6614.000
261.2460, 6579.000
262.4610, 6753.000
263.6760, 6676.000
264.8910, 6861.000
266.1050, 6680.000
267.3200, 6556.000
268.5340, 6643.000
269.7480, 6490.000
270.9620, 6484.000
272.1750, 6375.000
273.3890, 6276.000
274.6020, 6351.000
275.8150, 6358.000
277.0280, 6360.000
278.2410, 6394.000
279.4540, 6382.210
280.6660, 6478.000
281.8790, 6395.000
283.0910, 6366.000
284.3030, 6412.000
285.5140, 6330.000
286.7260, 6369.000
287.9380, 6277.000
289.1490, 6361.000
290.3600, 6264.000
291.5710, 6260.000
292.7820, 6220.000
293.9920, 6268.000
295.2030, 6259.000
296.4130, 6313.000
297.6230, 6338.000
298.8330, 6245.000
300.0430, 6305.000
301.2520, 6329.000
302.4620, 6238.000
303.6710, 6318.000
304.8800, 6308.000
306.0890, 6314.000
307.2980, 6385.000
308.5070, 6289.000
309.7150, 6403.000
310.9230, 6321.000
312.1310, 6349.000
313.3390, 6302.000
314.5470, 6411.000
315.7550, 6370.000
316.9620, 6370.000
318.1690, 6398.000
319.3760, 6395.000
320.5830, 6327.000
321.7900, 6461.000
322.9960, 6376.000
324.2030, 6419.000
325.4090, 6363.000
326.6150, 6401.000
327.8210, 6432.000
329.0270, 6490.000
330.2320, 6495.000
331.4380, 6491.000
332.6430, 6498.000
333.8480, 6561.000
335.0530, 6568.000
336.2580, 6559.000
337.4620, 6538.000
338.6670, 6483.000
339.8710, 6484.000
341.0750, 6501.000
342.2790, 6553.000
343.4820, 6598.516
344.6860, 6659.675
345.8890, 6739.000
347.0920, 6814.000
348.2960, 6897.000
349.4980, 6999.000
350.7010, 7211.000
351.9040, 7448.000
353.1060, 8026.000
354.3080, 8503.000
355.5100, 9011.000
356.7120, 8843.000
357.9140, 8602.000
359.1150, 8296.000
360.3170, 7887.000
361.5180, 7322.000
362.7190, 7137.000
363.9200, 6872.000
365.1200, 6856.000
366.3210, 6865.000
367.5210, 6734.000
368.7210, 6775.000
369.9210, 6829.000
371.1210, 6790.000
372.3210, 6708.000
373.5200, 6732.000
374.7200, 6800.000
375.9190, 6742.000
377.1180, 6839.000
378.3170, 6914.000
379.5150, 6800.000
380.7140, 6894.000
381.9120, 6879.000
383.1110, 6987.000
384.3090, 7067.000
385.5060, 7088.000
386.7040, 7192.000
387.9020, 7193.000
389.0990, 7273.000
390.2960, 7523.000
391.4930, 7829.000
392.6900, 8485.000
393.8860, 8913.000
395.0830, 9358.000
396.2790, 9521.000
397.4750, 9259.000
398.6710, 8874.000
399.8670, 8210.000
401.0630, 7652.000
402.2580, 7535.000
403.4540, 7414.000
404.6490, 7217.000
405.8440, 7163.000
407.0390, 7154.000
408.2330, 7258.000
409.4280, 7212.000
410.6220, 7182.000
411.8160, 7146.000
413.0100, 7151.000
414.2040, 7192.000
415.3980, 7250.000
416.5910, 7258.000
417.7850, 7252.000
418.9780, 7282.567
420.1710, 7264.000
421.3640, 7310.000
422.5560, 7335.000
423.7490, 7359.000
424.9410, 7299.000
426.1330, 7389.000
427.3250, 7381.000
428.5170, 7355.000
429.7090, 7405.000
430.9000, 7463.000
432.0910, 7513.000
433.2820, 7643.000
434.4730, 7597.000
435.6640, 7721.000
436.8550, 7690.000
438.0450, 7700.000
439.2360, 7740.000
440.4260, 7776.164
441.6160, 7865.526
442.8060, 7955.000
443.9950, 8147.000
445.1850, 8355.000
446.3740, 8661.000
447.5630, 8896.000
448.7520, 9202.000
449.9410, 9792.000
451.1300, 10202.00
452.3180, 10742.00
453.5060, 11295.00
454.6950, 12125.00
455.8830, 13074.00
457.0700, 14373.00
458.2580, 16728.00
459.4450, 19829.00
460.6330, 24503.00
461.8200, 29859.00
463.0070, 36324.00
464.1940, 41748.00
465.3800, 45432.00
466.5670, 45867.00
467.7530, 42840.00
468.9390, 37987.00
470.1250, 32359.00
471.3110, 27201.00
472.4970, 22543.00
473.6820, 19055.00
474.8680, 16967.00
476.0530, 15217.00
477.2380, 13741.00
478.4230, 12677.00
479.6070, 12117.00
480.7920, 11405.00
481.9760, 11054.00
483.1600, 10604.00
484.3440, 10320.00
485.5280, 10136.00
486.7120, 9863.000
487.8950, 9818.000
489.0780, 9585.000
490.2620, 9457.000
491.4450, 9330.000
492.6270, 9256.000
493.8100, 9058.000
494.9920, 8944.000
496.1750, 8965.000
497.3570, 8932.000
498.5390, 8762.000
499.7210, 8840.000
500.9020, 8751.000
502.0840, 8668.000
503.2650, 8770.000
504.4460, 8542.000
505.6270, 8674.000
506.8080, 8632.000
507.9890, 8604.000
509.1690, 8646.000
510.3500, 8553.000
511.5300, 8561.000
512.7100, 8547.000
513.8900, 8422.000
515.0690, 8412.000
516.2490, 8415.000
517.4280, 8522.000
518.6070, 8418.000
519.7860, 8420.000
520.9650, 8376.000
522.1440, 8419.000
523.3220, 8346.000
524.5010, 8308.000
525.6790, 8329.317
526.8570, 8352.309
528.0350, 8314.000
529.2130, 8355.814
530.3900, 8400.000
531.5670, 8401.000
532.7450, 8378.000
533.9220, 8399.000
535.0980, 8364.000
536.2750, 8325.000
537.4520, 8356.515
538.6280, 8338.000
539.8040, 8360.000
540.9800, 8410.000
542.1560, 8337.000
543.3320, 8354.000
544.5070, 8354.000
545.6830, 8449.000
546.8580, 8369.000
548.0330, 8415.000
549.2080, 8362.000
550.3830, 8663.000
551.5570, 9139.000
552.7310, 9278.000
553.9060, 9030.000
555.0800, 8437.000
556.2540, 8332.000
557.4270, 8314.000
558.6010, 8475.000
559.7740, 8304.000
560.9470, 8440.000
562.1210, 8454.000
563.2930, 8428.000
564.4660, 8475.000
565.6390, 8426.000
566.8110, 8435.000
567.9830, 8477.000
569.1550, 8534.000
570.3270, 8463.000
571.4990, 8446.000
572.6710, 8480.000
573.8420, 8471.000
575.0130, 8464.000
576.1840, 8451.000
577.3550, 8538.000
578.5260, 8474.000
579.6970, 8609.000
580.8670, 8533.000
582.0370, 8450.000
583.2070, 8539.000
584.3770, 8595.000
585.5470, 8517.000
586.7170, 8671.000
587.8860, 8573.000
589.0550, 8646.000
590.2240, 8579.000
591.3930, 8582.000
592.5620, 8628.000
593.7310, 8594.000
594.8990, 8617.082
596.0670, 8616.015
597.2350, 8605.000
598.4030, 8645.000
599.5710, 8595.000
600.7390, 8678.000
601.9060, 8663.000
603.0740, 8655.000
604.2410, 8637.000
605.4080, 8646.885
606.5740, 8675.000
607.7410, 8669.000
608.9080, 8689.000
610.0740, 8702.000
611.2400, 8617.000
612.4060, 8864.000
613.5720, 8721.000
614.7370, 8866.000
615.9030, 8797.000
617.0680, 8836.000
618.2330, 8898.000
619.3980, 8769.000
620.5630, 8810.000
621.7280, 8875.000
622.8920, 8864.000
624.0570, 8780.000
625.2210, 8777.000
626.3850, 8861.000
627.5490, 8939.000
628.7120, 8952.000
629.8760, 8918.000
631.0390, 8896.000
632.2020, 8907.496
633.3650, 8951.000
634.5280, 8949.000
635.6910, 8922.000
636.8530, 9003.000
638.0160, 8997.000
639.1780, 9041.000
640.3400, 9067.000
641.5020, 9002.000
642.6640, 9066.000
643.8250, 9071.000
644.9870, 9132.000
646.1480, 9021.000
647.3090, 9068.000
648.4700, 9164.000
649.6300, 8960.000
650.7910, 9057.000
651.9510, 8940.000
653.1120, 9041.000
654.2720, 9107.000
655.4320, 9078.000
656.5910, 9153.000
657.7510, 9099.000
658.9100, 9072.000
660.0690, 9140.000
661.2290, 9098.000
662.3880, 9078.000
663.5460, 9126.000
664.7050, 9170.000
665.8630, 9061.000
667.0220, 9093.000
668.1800, 9113.000
669.3380, 9183.000
670.4950, 9219.000
671.6530, 9257.000
672.8100, 9224.000
673.9680, 9230.000
675.1250, 9110.000
676.2820, 9141.000
677.4390, 9227.000
678.5950, 9140.000
679.7520, 9338.000
680.9080, 9306.000
682.0640, 9362.000
683.2200, 9444.000
684.3760, 9314.000
685.5320, 9380.000
686.6870, 9442.000
687.8420, 9477.000
688.9980, 9451.000
690.1530, 9601.000
691.3070, 9616.000
692.4620, 9885.000
693.6170, 10007.00
694.7710, 10125.00
695.9250, 10186.00
697.0790, 10171.80
698.2330, 10114.00
699.3870, 10012.00
700.5400, 9954.000
701.6940, 9760.000
702.8470, 9653.000
704.0000, 9675.000
705.1530, 9659.000
706.3050, 9619.000
707.4580, 9529.000
708.6100, 9572.000
709.7630, 9654.000
710.9150, 9760.000
712.0660, 9719.000
713.2180, 9658.000
714.3700, 9741.000
715.5210, 9751.000
716.6720, 9731.000
717.8240, 9717.000
718.9740, 9701.000
720.1250, 9693.000
721.2760, 9798.000
722.4260, 9681.000
723.5770, 9728.000
724.7270, 9607.000
725.8770, 9601.000
727.0260, 9627.000
728.1760, 9860.000
729.3250, 9672.000
730.4750, 9711.000
731.6240, 9581.000
732.7730, 9760.000
733.9220, 9676.000
735.0700, 9628.000
736.2190, 9798.000
737.3670, 9764.000
738.5150, 9784.000
739.6630, 9785.000
740.8110, 9876.000
741.9590, 9943.000
743.1060, 9796.000
744.2540, 9926.000
745.4010, 9865.000
746.5480, 9817.000
747.6950, 9832.000
748.8410, 9898.000
749.9880, 9813.000
751.1340, 9846.000
752.2800, 9745.000
753.4260, 9947.000
754.5720, 9821.000
755.7180, 10020.00
756.8640, 9981.000
758.0090, 10020.00
759.1540, 10004.00
760.2990, 10014.00
761.4440, 9830.000
762.5890, 10017.00
763.7340, 10010.00
764.8780, 10154.00
766.0220, 10061.00
767.1660, 10067.00
768.3100, 10034.00
769.4540, 10080.00
770.5980, 10143.00
771.7410, 10058.00
772.8840, 10061.00
774.0280, 9998.000
775.1700, 10061.00
776.3130, 10207.00
777.4560, 10048.00
778.5980, 10195.00
779.7410, 10198.00
780.8830, 10262.00
782.0250, 10239.00
783.1670, 10182.00
784.3080, 10221.00
785.4500, 10220.73
786.5910, 10241.89
787.7320, 10267.00
788.8730, 10322.00
790.0140, 10313.00
791.1550, 10365.00
792.2950, 10498.00
793.4360, 10603.00
794.5760, 10564.00
795.7160, 10535.00
796.8560, 10578.52
797.9960, 10598.00
799.1350, 10638.00
800.2750, 10627.99
801.4140, 10600.00
802.5530, 10593.00
803.6920, 10517.00
804.8310, 10480.00
805.9690, 10490.00
807.1080, 10643.00
808.2460, 10548.00
809.3840, 10603.00
810.5220, 10672.00
811.6600, 10547.00
812.7970, 10701.00
813.9350, 10512.00
815.0720, 10613.00
816.2090, 10665.00
817.3460, 10470.00
818.4830, 10745.00
819.6200, 10493.00
820.7560, 10633.00
821.8930, 10646.00
823.0290, 10709.00
824.1650, 10705.00
825.3010, 10676.00
826.4360, 10613.00
827.5720, 10552.00
828.7070, 10625.12
829.8420, 10697.00
830.9770, 10771.00
832.1120, 10747.00
833.2470, 10782.00
834.3820, 10743.00
835.5160, 10722.00
836.6500, 10907.00
837.7840, 10822.00
838.9180, 10713.00
840.0520, 10678.00
841.1860, 10915.00
842.3190, 10925.00
843.4520, 10809.00
844.5850, 10827.00
845.7180, 10793.00
846.8510, 10950.00
847.9840, 10927.00
849.1160, 10764.00
850.2490, 10970.00
851.3810, 10973.00
852.5130, 10824.00
853.6450, 10951.00
854.7760, 11049.00
855.9080, 10915.00
857.0390, 11038.16
858.1700, 11027.00
859.3010, 11115.00
860.4320, 11028.00
861.5630, 11089.00
862.6930, 11070.00
863.8240, 11007.00
864.9540, 11060.00
866.0840, 11194.00
867.2140, 11050.00
868.3440, 11233.00
869.4730, 11123.00
870.6030, 11114.00
871.7320, 11167.00
872.8610, 11092.00
873.9900, 11222.00
875.1190, 11130.00
876.2470, 11078.00
877.3760, 11140.00
878.5040, 11279.00
879.6320, 11151.00
880.7600, 11372.00
881.8880, 11303.00
883.0150, 11196.00
884.1430, 11254.00
885.2700, 11290.00
886.3970, 11235.00
887.5240, 11171.00
888.6510, 11202.00
889.7780, 11221.71
890.9040, 11309.00
892.0310, 11300.00
893.1570, 11430.00
894.2830, 11375.00
895.4090, 11370.00
896.5350, 11454.00
897.6600, 11551.00
898.7860, 11321.00
899.9110, 11368.00
901.0360, 11284.00
902.1610, 11451.00
903.2860, 11452.00
904.4100, 11505.00
905.5350, 11491.00
906.6590, 11648.00
907.7830, 11477.00
908.9070, 11422.00
910.0310, 11567.00
911.1540, 11442.00
912.2780, 11564.00
913.4010, 11689.00
914.5240, 11564.00
915.6470, 11794.00
916.7700, 11736.00
917.8930, 11643.00
919.0150, 11543.00
920.1380, 11713.00
921.2600, 11685.00
922.3820, 11619.00
923.5040, 11568.00
924.6260, 11638.00
925.7470, 11693.00
926.8690, 11688.00
927.9900, 11779.00
929.1110, 11767.43
930.2320, 11734.00
931.3530, 11753.00
932.4730, 11758.88
933.5940, 11790.41
934.7140, 11810.00
935.8340, 11861.00
936.9540, 11900.00
938.0740, 11890.00
939.1930, 11933.00
940.3130, 11866.00
941.4320, 11909.00
942.5510, 11815.00
943.6700, 11794.00
944.7890, 11897.00
945.9080, 11943.00
947.0260, 11872.00
948.1450, 11959.00
949.2630, 11877.00
950.3810, 11839.00
951.4990, 11907.00
952.6170, 12118.00
953.7340, 11940.00
954.8520, 12027.00
955.9690, 11916.00
957.0860, 11949.00
958.2030, 12053.00
959.3200, 12005.00
960.4360, 12065.00
961.5530, 12103.00
962.6690, 12049.00
963.7850, 12034.00
964.9010, 12086.00
966.0170, 12180.00
967.1330, 12110.00
968.2480, 12092.00
969.3630, 12100.00
970.4790, 12240.00
971.5940, 12143.00
972.7080, 12140.00
973.8230, 12178.00
974.9380, 12101.00
976.0520, 12182.94
977.1660, 12151.00
978.2800, 12265.00
979.3940, 12280.00
980.5080, 12242.00
981.6220, 12107.00
982.7350, 12306.00
983.8480, 12332.00
984.9610, 12209.00
986.0740, 12299.00
987.1870, 12362.00
988.3000, 12473.00
989.4120, 12302.00
990.5250, 12344.00
991.6370, 12345.00
992.7490, 12440.00
993.8610, 12329.00
994.9720, 12531.00
996.0840, 12317.00
997.1950, 12463.00
998.3060, 12314.00
999.4170, 12495.00
1000.528, 12593.00
1001.639, 12471.00
1002.750, 12582.00
1003.860, 12695.00
1004.970, 12579.00
1006.080, 12437.00
1007.190, 12401.00
1008.300, 12493.00
1009.410, 12602.00
1010.519, 12509.00
1011.628, 12553.00
1012.738, 12755.00
1013.846, 12620.00
1014.955, 12580.00
1016.064, 12695.00
1017.172, 12552.00
1018.281, 12523.00
1019.389, 12609.00
1020.497, 12651.00
1021.605, 12830.00
1022.713, 12617.00
1023.820, 12807.00
1024.928, 12706.00
1026.035, 12745.00
1027.142, 12666.00
1028.249, 12807.00
1029.356, 12868.00
1030.462, 12846.00
1031.569, 12980.00
1032.675, 12953.00
1033.781, 12843.00
1034.887, 12892.00
1035.993, 12901.00
1037.098, 12997.00
1038.204, 13030.00
1039.309, 13072.00
1040.415, 13113.72
1041.520, 13152.03
1042.624, 13194.00
1043.729, 13204.00
1044.834, 13307.00
1045.938, 13275.00
1047.042, 13337.00
1048.146, 13270.00
1049.250, 13348.00
1050.354, 13254.00
1051.458, 13283.00
1052.561, 13240.00
1053.664, 13237.00
1054.767, 13193.00
1055.870, 13082.00
1056.973, 13340.00
1058.076, 13063.00
1059.178, 13234.00
1060.281, 13132.00
1061.383, 13346.00
1062.485, 13450.00
1063.587, 13415.00
1064.688, 13441.00
1065.790, 13465.00
1066.891, 13570.00
1067.993, 13493.00
1069.094, 13582.00
1070.195, 13568.00
1071.295, 13278.00
1072.396, 13515.00
1073.496, 13465.00
1074.597, 13609.00
1075.697, 13379.00
1076.797, 13601.00
1077.897, 13502.00
1078.996, 13582.00
1080.096, 13504.00
1081.195, 13674.00
1082.294, 13864.00
1083.393, 13938.00
1084.492, 14368.00
1085.591, 15011.00
1086.689, 15293.00
1087.788, 15186.00
1088.886, 14480.00
1089.984, 14123.00
1091.082, 13893.00
1092.180, 13884.00
1093.277, 13706.00
1094.375, 13619.00
1095.472, 13734.00
1096.569, 13780.00
1097.666, 13655.00
1098.763, 13785.00
1099.860, 13718.00
1100.956, 13722.00
1102.053, 13810.00
1103.149, 13722.00
1104.245, 13637.00
1105.341, 13622.00
1106.436, 13726.00
1107.532, 13796.00
1108.627, 13773.00
1109.723, 13835.00
1110.818, 13915.00
1111.913, 13849.00
1113.007, 13902.00
1114.102, 13896.00
1115.197, 13921.00
1116.291, 13817.00
1117.385, 13923.00
1118.479, 13867.00
1119.573, 13895.00
1120.666, 14025.00
1121.760, 13984.00
1122.853, 14193.00
1123.947, 13967.00
1125.040, 14276.00
1126.132, 14083.00
1127.225, 14085.00
1128.318, 14161.00
1129.410, 14122.00
1130.502, 14206.00
1131.595, 14209.00
1132.687, 14130.00
1133.778, 14170.00
1134.870, 14074.00
1135.961, 14176.00
1137.053, 14185.00
1138.144, 14267.00
1139.235, 14225.00
1140.326, 14283.00
1141.416, 14258.00
1142.507, 14276.00
1143.597, 14343.00
1144.688, 14230.00
1145.778, 14413.00
1146.868, 14484.00
1147.957, 14480.00
1149.047, 14410.00
1150.136, 14569.00
1151.226, 14612.00
1152.315, 14839.00
1153.404, 14811.00
1154.493, 15012.00
1155.581, 15005.00
1156.670, 15494.00
1157.758, 15551.00
1158.846, 15845.00
1159.934, 16137.00
1161.022, 16478.00
1162.110, 16572.00
1163.198, 16419.00
1164.285, 16282.00
1165.372, 15988.00
1166.459, 15433.00
1167.546, 15303.00
1168.633, 15189.00
1169.720, 14930.00
1170.806, 14870.00
1171.892, 14731.00
1172.979, 14977.00
1174.065, 14882.00
1175.150, 14812.00
1176.236, 14803.00
1177.322, 14758.00
1178.407, 14940.00
1179.492, 14887.00
1180.577, 14846.00
1181.662, 14880.00
1182.747, 14841.57
1183.832, 14830.00
1184.916, 14834.00
1186.000, 14897.00
1187.084, 14910.00
1188.168, 14910.00
1189.252, 14946.00
1190.336, 14826.00
1191.419, 14887.00
1192.503, 14868.00
1193.586, 14925.00
1194.669, 14976.00
1195.752, 14982.00
1196.835, 15005.00
1197.917, 14930.00
1199.000, 15031.00
1200.082, 15091.00
1201.164, 15131.00
1202.246, 14938.00
1203.328, 15141.00
1204.409, 15014.00
1205.491, 15128.00
1206.572, 14934.00
1207.653, 15122.00
1208.734, 15154.00
1209.815, 15106.00
1210.896, 15310.00
1211.976, 15430.00
1213.057, 15303.00
1214.137, 15269.00
1215.217, 15310.00
1216.297, 15243.00
1217.377, 15221.00
1218.456, 15414.00
1219.536, 15208.00
1220.615, 15441.00
1221.694, 15401.00
1222.773, 15408.00
1223.852, 15311.00
1224.931, 15494.00
1226.009, 15244.00
1227.088, 15415.00
1228.166, 15391.00
1229.244, 15443.00
1230.322, 15480.00
1231.400, 15479.00
1232.477, 15631.00
1233.555, 15458.00
1234.632, 15660.00
1235.709, 15632.00
1236.786, 15630.00
1237.863, 15555.00
1238.939, 15639.00
1240.016, 15606.00
1241.092, 15839.00
1242.168, 15760.00
1243.245, 15679.00
1244.320, 15560.00
1245.396, 15805.00
1246.472, 15699.00
1247.547, 15804.00
1248.622, 15772.00
1249.697, 15799.00
1250.772, 15822.00
1251.847, 15832.25
1252.922, 15772.00
1253.996, 15895.00
1255.071, 15838.00
1256.145, 15884.00
1257.219, 15923.00
1258.293, 15800.00
1259.366, 15955.00
1260.440, 15944.00
1261.513, 15972.00
1262.587, 16112.00
1263.660, 16070.00
1264.733, 16024.00
1265.805, 16101.00
1266.878, 16053.00
1267.951, 16051.00
1269.023, 16108.00
1270.095, 16218.00
1271.167, 16120.00
1272.239, 16225.00
1273.311, 16183.00
1274.382, 15999.00
1275.454, 16324.00
1276.525, 16322.00
1277.596, 16394.00
1278.667, 16099.00
1279.738, 16387.00
1280.808, 16231.00
1281.879, 16163.00
1282.949, 16353.00
1284.019, 16227.00
1285.089, 16326.00
1286.159, 16296.00
1287.229, 16410.00
1288.298, 16332.00
1289.368, 16244.00
1290.437, 16425.00
1291.506, 16551.00
1292.575, 16480.00
1293.644, 16510.00
1294.712, 16493.00
1295.781, 16593.00
1296.849, 16459.00
1297.917, 16564.00
1298.985, 16564.00
1300.053, 16591.00
1301.121, 16719.00
1302.188, 16641.00
1303.255, 16786.00
1304.323, 16737.00
1305.390, 16800.00
1306.457, 16614.00
1307.523, 16784.00
1308.590, 16837.00
1309.656, 16728.00
1310.723, 16810.00
1311.789, 16796.00
1312.855, 16775.00
1313.921, 16829.00
1314.986, 16825.43
1316.052, 17002.00
1317.117, 16887.00
1318.182, 16952.00
1319.248, 17015.00
1320.312, 16983.00
1321.377, 17039.00
1322.442, 16999.00
1323.506, 16986.00
1324.571, 16963.00
1325.635, 16922.00
1326.699, 17067.00
1327.762, 17200.00
1328.826, 17201.00
1329.890, 17357.00
1330.953, 17208.00
1332.016, 17036.00
1333.079, 17186.00
1334.142, 17308.00
1335.205, 17331.00
1336.268, 17339.00
1337.330, 17362.00
1338.392, 17427.00
1339.454, 17352.00
1340.516, 17400.66
1341.578, 17305.00
1342.640, 17408.00
1343.701, 17420.00
1344.763, 17402.00
1345.824, 17472.00
1346.885, 17443.73
1347.946, 17510.00
1349.007, 17458.00
1350.067, 17467.00
1351.128, 17536.00
1352.188, 17568.00
1353.248, 17692.00
1354.308, 17680.00
1355.368, 17624.00
1356.428, 17757.00
1357.487, 17804.00
1358.547, 17635.00
1359.606, 17744.00
1360.665, 17777.00
1361.724, 17804.00
1362.783, 17879.00
1363.841, 17895.70
1364.900, 17858.00
1365.958, 17916.00
1367.016, 17898.00
1368.074, 17814.00
1369.132, 18020.00
1370.190, 17958.00
1371.247, 18106.00
1372.304, 18208.00
1373.362, 17936.00
1374.419, 18109.00
1375.476, 17850.00
1376.532, 18080.00
1377.589, 18202.00
1378.645, 18158.00
1379.702, 18166.00
1380.758, 18174.00
1381.814, 18130.00
1382.870, 18229.00
1383.925, 18238.00
1384.981, 18273.00
1386.036, 18363.00
1387.092, 18313.00
1388.147, 18477.00
1389.202, 18365.00
1390.256, 18456.00
1391.311, 18395.00
1392.365, 18365.00
1393.420, 18417.00
1394.474, 18356.84
1395.528, 18451.00
1396.582, 18420.00
1397.636, 18461.00
1398.689, 18464.46
1399.742, 18600.00
1400.796, 18509.00
1401.849, 18589.00
1402.902, 18745.00
1403.955, 18728.00
1405.007, 18623.00
1406.060, 18751.00
1407.112, 18880.00
1408.164, 18716.00
1409.216, 18716.00
1410.268, 18738.00
1411.320, 18710.00
1412.371, 18755.47
1413.423, 18770.00
1414.474, 18851.00
1415.525, 18904.00
1416.576, 18998.00
1417.627, 18914.00
1418.678, 19032.00
1419.728, 18960.00
1420.778, 18913.00
1421.829, 19186.00
1422.879, 18972.00
1423.928, 18980.00
1424.978, 19139.00
1426.028, 19345.00
1427.077, 19374.00
1428.126, 19095.00
1429.176, 19150.00
1430.225, 19227.00
1431.273, 19461.00
1432.322, 19287.00
1433.371, 19375.00
1434.419, 19229.00
1435.467, 19431.00
1436.515, 19519.00
1437.563, 19443.00
1438.611, 19469.00
1439.658, 19593.00
1440.706, 19452.00
1441.753, 19550.00
1442.800, 19721.00
1443.847, 19700.00
1444.894, 19536.00
1445.941, 19716.00
1446.987, 19802.00
1448.034, 19639.00
1449.080, 19688.00
1450.126, 19746.00
1451.172, 19765.00
1452.218, 19814.00
1453.263, 19699.00
1454.309, 19823.00
1455.354, 20020.00
1456.399, 19815.00
1457.444, 19999.00
1458.489, 19933.00
1459.534, 19844.00
1460.579, 19877.00
1461.623, 19894.00
1462.667, 19773.00
1463.711, 20102.00
1464.755, 20146.00
1465.799, 20170.00
1466.843, 20100.00
1467.886, 20100.00
1468.930, 20118.00
1469.973, 20161.00
1471.016, 20196.00
1472.059, 20168.00
1473.101, 20255.00
1474.144, 20298.00
1475.186, 20459.00
1476.229, 20490.00
1477.271, 20497.29
1478.313, 20408.00
1479.355, 20437.00
1480.396, 20388.00
1481.438, 20316.00
1482.479, 20445.00
1483.520, 20544.00
1484.561, 20411.00
1485.602, 20642.00
1486.643, 20569.00
1487.684, 20430.00
1488.724, 20604.00
1489.765, 20498.00
1490.805, 20658.00
1491.845, 20576.00
1492.885, 20644.00
1493.924, 20661.64
1494.964, 20607.81
1496.003, 20756.00
1497.042, 20591.00
1498.082, 20804.00
1499.120, 20943.00
1500.159, 20653.00
1501.198, 20839.00
1502.236, 20856.00
1503.275, 20983.00
1504.313, 20816.00
1505.351, 21161.00
1506.389, 20861.00
1507.427, 20986.00
1508.464, 21100.00
1509.502, 21076.00
1510.539, 21047.00
1511.576, 20918.00
1512.613, 21113.00
1513.650, 21096.00
1514.687, 21177.00
1515.723, 21158.00
1516.759, 21154.00
1517.796, 21189.46
1518.832, 21203.29
1519.868, 21242.00
1520.903, 21253.00
1521.939, 21329.00
1522.975, 21310.82
1524.010, 21484.00
1525.045, 21439.00
1526.080, 21429.00
1527.115, 21648.00
1528.150, 21364.00
1529.184, 21689.00
1530.219, 21647.00
1531.253, 21598.00
1532.287, 21579.00
1533.321, 21629.00
1534.355, 21594.00
1535.388, 21740.00
1536.422, 21784.00
1537.455, 21791.00
1538.488, 21864.00
1539.522, 21859.01
1540.554, 21776.00
1541.587, 21888.00
1542.620, 21768.00
1543.652, 21810.00
1544.685, 21984.00
1545.717, 21983.00
1546.749, 21914.00
1547.781, 21892.00
1548.812, 21948.00
1549.844, 22049.00
1550.875, 22164.00
1551.906, 22224.00
1552.938, 22159.00
1553.968, 22211.00
1554.999, 22484.00
1556.030, 22141.00
1557.060, 22414.00
1558.091, 22208.00
1559.121, 22196.00
1560.151, 22455.00
1561.181, 22301.00
1562.211, 22250.00
1563.240, 22314.00
1564.270, 22612.00
1565.299, 22287.00
1566.328, 22597.00
1567.357, 22693.00
1568.386, 22356.00
1569.415, 22526.00
1570.443, 22580.00
1571.472, 22637.00
1572.500, 22609.00
1573.528, 22645.00
1574.556, 22712.00
1575.584, 22824.00
1576.611, 22688.00
1577.639, 22868.00
1578.666, 22857.00
##END=



