##NAMES=Quartz
##RRUFFID=R040031
##IDEAL CHEMISTRY=SiO_2_
##LOCALITY=Spruce Claim, King County, Washington, USA
##OWNER=RRUFF
##SOURCE=Bob Downs
##DESCRIPTION=Colorless hexagonal prism
##STATUS=The identification of this mineral has been confirmed by X-ray diffraction and chemical analysis
##URL=rruff.info/R040031
##MEASURED CHEMISTRY=Si_1.00_O_2_
##PIN_ID=L00402
##ORIENTATION=Laser parallel to c* (0 0 1). Fiducial mark perpendicular to laser is parallel to a [1 0 0]
102.2560, 2488.000
103.4880, 2738.000
104.7190, 3485.000
105.9500, 6058.000
107.1810, 14192.00
108.4120, 27019.00
109.6430, 29364.00
110.8740, 19073.00
112.1050, 7932.000
113.3350, 5728.000
114.5650, 4973.000
115.7950, 4928.000
117.0250, 5401.000
118.2550, 6175.000
119.4850, 7025.000
120.7140, 8327.000
121.9430, 9512.000
123.1730, 11276.00
124.4020, 13881.00
125.6310, 17741.00
126.8590, 22810.00
128.0880, 29563.00
129.3160, 38135.00
130.5450, 44809.00
131.7730, 45918.00
133.0010, 39917.00
134.2290, 30786.00
135.4560, 23075.00
136.6840, 17016.00
137.9110, 12834.00
139.1380, 10199.00
140.3650, 8618.000
141.5920, 7715.000
142.8190, 7252.000
144.0460, 6990.000
145.2720, 6893.000
146.4990, 6792.000
147.7250, 6718.000
148.9510, 6636.000
150.1770, 6497.570
151.4020, 6371.873
152.6280, 6192.000
153.8530, 6054.000
155.0790, 5849.000
156.3040, 5668.000
157.5290, 5449.000
158.7530, 5386.000
159.9780, 5279.000
161.2030, 5224.000
162.4270, 5208.000
163.6510, 5237.000
164.8750, 5419.000
166.0990, 5515.000
167.3230, 5806.000
168.5470, 6012.000
169.7700, 6254.000
170.9930, 6505.000
172.2160, 6793.000
173.4390, 7041.000
174.6620, 7529.000
175.8850, 7830.000
177.1080, 8224.000
178.3300, 8787.000
179.5520, 9241.000
180.7740, 10028.00
181.9960, 10621.00
183.2180, 11281.00
184.4400, 12185.00
185.6610, 13224.00
186.8820, 14321.00
188.1040, 15515.00
189.3250, 16916.00
190.5450, 18648.00
191.7660, 20761.00
192.9870, 22807.00
194.2070, 25458.00
195.4270, 28073.00
196.6480, 31459.00
197.8680, 34699.00
199.0870, 38222.00
200.3070, 41705.00
201.5270, 45562.00
202.7460, 49720.00
203.9650, 52995.00
205.1840, 56460.00
206.4030, 58876.00
207.6220, 60602.00
208.8400, 60822.00
210.0590, 60864.00
211.2770, 59250.00
212.4950, 57298.00
213.7130, 54716.00
214.9310, 51644.00
216.1490, 47754.00
217.3660, 44323.00
218.5840, 40284.00
219.8010, 36573.00
221.0180, 33096.00
222.2350, 29964.05
223.4520, 27247.00
224.6680, 24628.00
225.8850, 22455.00
227.1010, 20679.00
228.3170, 19000.00
229.5330, 17616.00
230.7490, 16082.00
231.9650, 14957.00
233.1810, 13811.00
234.3960, 13092.00
235.6110, 12002.00
236.8260, 11323.00
238.0410, 10609.00
239.2560, 10102.00
240.4710, 9520.000
241.6850, 8956.000
242.9000, 8542.000
244.1140, 8195.000
245.3280, 7749.000
246.5420, 7502.000
247.7550, 7226.000
248.9690, 6971.000
250.1820, 6668.000
251.3960, 6564.000
252.6090, 6301.000
253.8220, 6018.000
255.0350, 5791.000
256.2470, 5747.000
257.4600, 5473.000
258.6720, 5432.000
259.8840, 5376.000
261.0960, 5217.000
262.3080, 5134.000
263.5200, 5012.000
264.7320, 4915.000
265.9430, 4831.000
267.1540, 4578.000
268.3650, 4435.000
269.5760, 4127.000
270.7870, 3764.000
271.9980, 3575.000
273.2080, 3347.000
274.4190, 3196.000
275.6290, 3130.000
276.8390, 2978.000
278.0490, 2934.000
279.2590, 2742.000
280.4680, 2781.000
281.6780, 2645.000
282.8870, 2629.000
284.0960, 2389.000
285.3050, 2515.000
286.5140, 2381.000
287.7230, 2312.000
288.9310, 2285.000
290.1400, 2343.000
291.3480, 2211.000
292.5560, 2175.000
293.7640, 2129.000
294.9720, 2076.000
296.1790, 2078.000
297.3870, 2039.000
298.5940, 2019.748
299.8010, 1957.000
301.0080, 1964.000
302.2150, 1955.000
303.4220, 1889.000
304.6290, 1863.000
305.8350, 1836.000
307.0410, 1844.000
308.2470, 1843.000
309.4530, 1895.000
310.6590, 1882.000
311.8650, 1839.000
313.0700, 1902.000
314.2750, 1906.000
315.4810, 1877.000
316.6860, 1814.000
317.8900, 1882.000
319.0950, 1816.000
320.3000, 1900.000
321.5040, 1846.000
322.7080, 1831.000
323.9120, 1863.000
325.1160, 1881.000
326.3200, 1907.000
327.5240, 1905.000
328.7270, 1860.000
329.9310, 1898.000
331.1340, 1890.000
332.3370, 1952.000
333.5400, 1961.000
334.7420, 1998.293
335.9450, 1952.000
337.1470, 2067.000
338.3500, 2126.000
339.5520, 2147.000
340.7540, 2253.000
341.9550, 2296.000
343.1570, 2498.000
344.3590, 2629.000
345.5600, 2902.000
346.7610, 3233.000
347.9620, 3686.000
349.1630, 4248.000
350.3640, 5012.000
351.5640, 6252.000
352.7650, 8076.000
353.9650, 10887.00
355.1650, 14547.00
356.3650, 17867.00
357.5650, 18659.00
358.7640, 15872.00
359.9640, 11816.00
361.1630, 8159.000
362.3620, 5649.000
363.5610, 4139.000
364.7600, 3108.000
365.9590, 2542.000
367.1580, 2231.000
368.3560, 1987.000
369.5540, 1885.000
370.7520, 1831.000
371.9500, 1797.000
373.1480, 1754.950
374.3460, 1745.326
375.5430, 1747.000
376.7410, 1749.000
377.9380, 1803.000
379.1350, 1829.708
380.3320, 1834.000
381.5280, 1986.000
382.7250, 2066.000
383.9210, 2197.000
385.1180, 2364.000
386.3140, 2813.000
387.5100, 3148.000
388.7050, 3709.000
389.9010, 4516.000
391.0960, 5737.000
392.2920, 7540.000
393.4870, 10221.00
394.6820, 13264.00
395.8770, 14664.00
397.0720, 12903.00
398.2660, 9579.000
399.4610, 6793.000
400.6550, 5056.000
401.8490, 3829.000
403.0430, 3052.000
404.2370, 2708.000
405.4300, 2515.000
406.6240, 2346.000
407.8170, 2212.000
409.0100, 2248.000
410.2030, 2247.000
411.3960, 2206.000
412.5890, 2221.000
413.7810, 2226.000
414.9740, 2264.794
416.1660, 2304.468
417.3580, 2399.000
418.5500, 2428.000
419.7420, 2537.000
420.9330, 2640.000
422.1250, 2672.000
423.3160, 2665.000
424.5070, 2875.000
425.6980, 2868.000
426.8890, 2983.000
428.0800, 3036.000
429.2700, 3198.000
430.4610, 3257.000
431.6510, 3416.000
432.8410, 3540.000
434.0310, 3684.000
435.2210, 3997.000
436.4100, 4138.000
437.6000, 4520.000
438.7890, 4708.000
439.9780, 5064.000
441.1670, 5639.000
442.3560, 6145.000
443.5450, 6768.000
444.7330, 7563.000
445.9210, 8480.000
447.1100, 9836.000
448.2980, 11252.00
449.4860, 12987.00
450.6730, 15350.00
451.8610, 18328.00
453.0480, 21773.00
454.2360, 26321.00
455.4230, 32596.00
456.6100, 40894.00
457.7970, 52092.00
458.9830, 67021.00
460.1700, 86861.00
461.3560, 112931.0
462.5420, 146329.0
463.7280, 185154.0
464.9140, 221513.0
466.1000, 244683.0
467.2850, 246222.0
468.4710, 223860.0
469.6560, 189425.0
470.8410, 152122.0
472.0260, 119419.0
473.2110, 92882.00
474.3960, 72831.00
475.5800, 58181.00
476.7640, 47379.00
477.9490, 39524.00
479.1330, 33617.00
480.3160, 29127.00
481.5000, 25742.00
482.6840, 22809.00
483.8670, 20684.00
485.0500, 18510.00
486.2330, 17003.00
487.4160, 15665.00
488.5990, 14492.00
489.7820, 13357.00
490.9640, 12603.00
492.1470, 11790.00
493.3290, 11067.00
494.5110, 10497.00
495.6930, 9921.000
496.8740, 9453.000
498.0560, 8892.000
499.2370, 8519.000
500.4180, 8178.000
501.5990, 7758.000
502.7800, 7542.000
503.9610, 7239.000
505.1420, 6950.000
506.3220, 6739.000
507.5020, 6463.000
508.6820, 6143.000
509.8620, 5875.000
511.0420, 5686.000
512.2220, 5536.000
513.4010, 5379.000
514.5810, 5279.000
515.7600, 5165.000
516.9390, 5096.000
518.1180, 5088.000
519.2970, 4850.000
520.4750, 4802.000
521.6540, 4803.000
522.8320, 4666.000
524.0100, 4573.000
525.1880, 4478.000
526.3660, 4366.000
527.5430, 4315.000
528.7210, 4144.000
529.8980, 4095.000
531.0750, 4057.863
532.2520, 3995.022
533.4290, 4030.000
534.6060, 3922.000
535.7820, 3905.000
536.9590, 3796.000
538.1350, 3706.000
539.3110, 3765.000
540.4870, 3692.000
541.6630, 3639.000
542.8380, 3611.000
544.0140, 3543.000
545.1890, 3471.000
546.3640, 3424.946
547.5390, 3365.000
548.7140, 3322.000
549.8890, 3230.000
551.0630, 3204.000
552.2380, 3214.000
553.4120, 3028.000
554.5860, 3130.000
555.7600, 3065.000
556.9330, 2942.000
558.1070, 2867.000
559.2800, 2825.000
560.4540, 2788.000
561.6270, 2724.000
562.8000, 2634.000
563.9730, 2670.000
565.1450, 2608.000
566.3180, 2542.000
567.4900, 2626.000
568.6620, 2589.000
569.8340, 2536.000
571.0060, 2522.000
572.1780, 2572.000
573.3490, 2544.000
574.5210, 2538.000
575.6920, 2451.000
576.8630, 2491.000
578.0340, 2479.000
579.2050, 2408.000
580.3750, 2469.000
581.5460, 2473.000
582.7160, 2415.000
583.8860, 2426.000
585.0560, 2399.000
586.2260, 2370.000
587.3960, 2414.000
588.5650, 2393.000
589.7340, 2431.000
590.9040, 2408.000
592.0730, 2421.418
593.2410, 2424.000
594.4100, 2427.000
595.5790, 2422.000
596.7470, 2404.000
597.9150, 2385.000
599.0840, 2302.000
600.2510, 2279.000
601.4190, 2235.000
602.5870, 2288.000
603.7540, 2220.000
604.9220, 2265.000
606.0890, 2284.000
607.2560, 2246.000
608.4230, 2151.000
609.5890, 2230.000
610.7560, 2162.000
611.9220, 2194.000
613.0880, 2065.000
614.2540, 2045.000
615.4200, 2118.000
616.5860, 2134.000
617.7520, 2133.000
618.9170, 2120.000
620.0820, 2196.000
621.2480, 2129.000
622.4120, 2055.000
623.5770, 2123.000
624.7420, 2073.000
625.9060, 2092.000
627.0710, 2154.000
628.2350, 2035.000
629.3990, 2019.000
630.5630, 2111.000
631.7260, 2076.000
632.8900, 2043.000
634.0530, 2102.000
635.2170, 2086.000
636.3800, 2051.000
637.5430, 2094.000
638.7050, 2060.000
639.8680, 2039.000
641.0300, 2081.000
642.1930, 2012.000
643.3550, 2040.000
644.5170, 2055.000
645.6790, 2053.000
646.8400, 2023.000
648.0020, 1997.000
649.1630, 2001.000
650.3240, 1979.000
651.4850, 2023.000
652.6460, 1957.000
653.8070, 1930.000
654.9670, 1974.000
656.1280, 1905.000
657.2880, 1907.000
658.4480, 1911.000
659.6080, 1897.000
660.7680, 1850.000
661.9270, 1897.000
663.0870, 1823.000
664.2460, 1850.000
665.4050, 1797.000
666.5640, 1836.000
667.7230, 1898.000
668.8820, 1819.000
670.0400, 1881.000
671.1990, 1852.000
672.3570, 1938.000
673.5150, 1894.000
674.6730, 1911.000
675.8310, 1958.000
676.9880, 1972.000
678.1450, 1922.000
679.3030, 2047.000
680.4600, 2110.000
681.6170, 2156.000
682.7740, 2113.000
683.9300, 2219.000
685.0870, 2270.000
686.2430, 2406.000
687.3990, 2494.000
688.5550, 2628.000
689.7110, 2852.000
690.8670, 3116.482
692.0220, 3481.000
693.1770, 3842.000
694.3330, 4271.000
695.4880, 4784.000
696.6430, 5145.000
697.7970, 5219.000
698.9520, 4933.000
700.1060, 4416.000
701.2600, 3966.000
702.4150, 3520.000
703.5690, 3091.000
704.7220, 2737.000
705.8760, 2611.000
707.0290, 2495.000
708.1830, 2364.000
709.3360, 2285.000
710.4890, 2245.000
711.6420, 2137.000
712.7940, 2169.000
713.9470, 2082.000
715.0990, 2117.000
716.2510, 1968.000
717.4030, 1993.000
718.5550, 1983.000
719.7070, 1924.000
720.8590, 1968.000
722.0100, 2015.000
723.1610, 2025.000
724.3120, 1881.000
725.4630, 1963.000
726.6140, 1942.000
727.7650, 1937.000
728.9150, 2009.000
730.0650, 1888.000
731.2160, 1950.000
732.3660, 1955.000
733.5150, 1879.000
734.6650, 1917.000
735.8150, 1826.000
736.9640, 1988.000
738.1130, 1890.000
739.2620, 1960.000
740.4110, 1954.000
741.5600, 1925.000
742.7080, 1946.000
743.8570, 1871.000
745.0050, 1922.000
746.1530, 1860.000
747.3010, 1907.000
748.4490, 1878.000
749.5960, 1918.000
750.7440, 1859.000
751.8910, 1928.000
753.0380, 1886.000
754.1850, 1877.000
755.3320, 1861.000
756.4790, 1851.000
757.6250, 1864.000
758.7720, 1858.487
759.9180, 1824.000
761.0640, 1880.000
762.2100, 1876.000
763.3550, 1908.176
764.5010, 1831.000
765.6460, 1922.000
766.7920, 1882.000
767.9370, 1860.000
769.0820, 1878.000
770.2260, 1896.000
771.3710, 1901.000
772.5150, 1882.000
773.6600, 1917.000
774.8040, 1867.000
775.9480, 1923.000
777.0910, 1956.000
778.2350, 1912.000
779.3790, 1997.000
780.5220, 1953.000
781.6650, 1909.000
782.8080, 1942.000
783.9510, 1965.000
785.0940, 1977.000
786.2360, 2063.000
787.3790, 2075.000
788.5210, 2131.000
789.6630, 2099.000
790.8050, 2156.000
791.9470, 2265.000
793.0880, 2330.000
794.2300, 2504.000
795.3710, 2518.000
796.5120, 2683.000
797.6530, 2703.000
798.7940, 2808.000
799.9340, 2669.000
801.0750, 2579.000
802.2150, 2475.000
803.3550, 2412.000
804.4950, 2409.000
805.6350, 2320.000
806.7750, 2363.000
807.9140, 2227.000
809.0540, 2279.000
810.1930, 2284.000
811.3320, 2264.000
812.4710, 2219.000
813.6100, 2220.000
814.7480, 2184.000
815.8870, 2232.000
817.0250, 2232.000
818.1630, 2252.000
819.3010, 2201.000
820.4390, 2142.000
821.5760, 2249.000
822.7140, 2166.000
823.8510, 2229.000
824.9880, 2154.000
826.1250, 2107.000
827.2620, 2168.000
828.3990, 2198.000
829.5350, 2170.000
830.6710, 2235.000
831.8080, 2140.000
832.9440, 2211.000
834.0800, 2158.000
835.2150, 2165.000
836.3510, 2093.000
837.4860, 2280.000
838.6210, 2248.000
839.7560, 2229.000
840.8910, 2148.000
842.0260, 2234.000
843.1610, 2230.000
844.2950, 2257.000
845.4290, 2266.666
846.5640, 2177.000
847.6980, 2231.000
848.8310, 2208.000
849.9650, 2143.000
851.0980, 2250.000
852.2320, 2217.000
853.3650, 2231.000
854.4980, 2216.000
855.6310, 2263.000
856.7630, 2217.000
857.8960, 2166.000
859.0280, 2212.000
860.1610, 2229.000
861.2930, 2202.000
862.4240, 2189.000
863.5560, 2144.000
864.6880, 2144.217
865.8190, 2093.000
866.9500, 2120.000
868.0820, 2095.000
869.2120, 2052.000
870.3430, 2079.000
871.4740, 2038.000
872.6040, 2072.000
873.7350, 2120.000
874.8650, 2082.000
875.9950, 2055.000
877.1250, 2073.000
878.2540, 2058.995
879.3840, 2114.000
880.5130, 2080.000
881.6420, 2107.000
882.7710, 2130.000
883.9000, 2114.000
885.0290, 2105.000
886.1570, 2142.000
887.2860, 2216.000
888.4140, 2245.000
889.5420, 2211.000
890.6700, 2215.000
891.7980, 2202.000
892.9250, 2328.000
894.0530, 2278.000
895.1800, 2321.000
896.3070, 2286.000
897.4340, 2278.000
898.5610, 2305.000
899.6870, 2275.000
900.8140, 2282.000
901.9400, 2227.000
903.0660, 2220.000
904.1920, 2257.000
905.3180, 2224.000
906.4440, 2185.000
907.5690, 2140.000
908.6950, 2160.000
909.8200, 2179.000
910.9450, 2234.000
912.0700, 2193.000
913.1940, 2191.000
914.3190, 2283.000
915.4430, 2323.000
916.5680, 2291.000
917.6920, 2273.000
918.8150, 2276.000
919.9390, 2290.000
921.0630, 2303.000
922.1860, 2354.000
923.3100, 2238.000
924.4330, 2382.000
925.5560, 2270.000
926.6780, 2243.000
927.8010, 2242.000
928.9230, 2257.000
930.0460, 2210.000
931.1680, 2210.000
932.2900, 2163.000
933.4120, 2175.000
934.5330, 2137.000
935.6550, 2087.000
936.7760, 2141.000
937.8970, 2082.000
939.0180, 2018.000
940.1390, 2073.000
941.2600, 2170.000
942.3810, 2096.000
943.5010, 2097.000
944.6210, 2117.000
945.7410, 2049.000
946.8610, 2013.000
947.9810, 2046.000
949.1010, 2044.000
950.2200, 1959.000
951.3390, 2042.000
952.4580, 2035.000
953.5770, 1979.000
954.6960, 2074.000
955.8150, 2003.000
956.9330, 2090.000
958.0520, 2069.000
959.1700, 2007.000
960.2880, 2017.000
961.4050, 1926.000
962.5230, 2057.000
963.6410, 1948.000
964.7580, 1979.000
965.8750, 2028.000
966.9920, 2004.000
968.1090, 1922.000
969.2260, 1864.000
970.3420, 1840.000
971.4590, 1894.000
972.5750, 1921.000
973.6910, 1866.000
974.8070, 1818.000
975.9230, 1782.000
977.0380, 1814.000
978.1540, 1843.000
979.2690, 1790.000
980.3840, 1775.000
981.4990, 1832.000
982.6140, 1810.000
983.7280, 1758.000
984.8430, 1784.000
985.9570, 1781.000
987.0710, 1824.000
988.1850, 1753.000
989.2990, 1777.000
990.4130, 1796.000
991.5260, 1754.000
992.6400, 1825.000
993.7530, 1815.000
994.8660, 1806.000
995.9790, 1756.000
997.0910, 1820.000
998.2040, 1790.000
999.3160, 1802.000
1000.429, 1786.000
1001.541, 1777.000
1002.652, 1783.103
1003.764, 1876.000
1004.876, 1792.000
1005.987, 1803.000
1007.098, 1818.000
1008.210, 1745.000
1009.320, 1793.000
1010.431, 1790.000
1011.542, 1811.000
1012.652, 1808.000
1013.763, 1798.000
1014.873, 1762.000
1015.983, 1792.000
1017.093, 1800.000
1018.202, 1827.000
1019.312, 1799.000
1020.421, 1833.000
1021.530, 1842.761
1022.639, 1862.000
1023.748, 1878.000
1024.857, 1849.000
1025.965, 1856.000
1027.074, 1806.000
1028.182, 1869.000
1029.290, 1908.000
1030.398, 1880.000
1031.505, 1867.000
1032.613, 1799.000
1033.720, 1848.000
1034.828, 1801.000
1035.935, 1891.000
1037.042, 1933.000
1038.148, 1921.000
1039.255, 1897.000
1040.361, 1885.000
1041.468, 1924.000
1042.574, 1917.000
1043.680, 1975.000
1044.786, 1907.000
1045.891, 1940.000
1046.997, 1913.000
1048.102, 1969.000
1049.207, 1974.000
1050.312, 1940.000
1051.417, 1979.000
1052.522, 1974.000
1053.626, 2002.000
1054.730, 2037.000
1055.835, 1968.000
1056.939, 2041.000
1058.043, 2047.000
1059.146, 2029.000
1060.250, 2189.000
1061.353, 2182.000
1062.456, 2376.000
1063.559, 2387.000
1064.662, 2538.000
1065.765, 2818.000
1066.868, 2810.000
1067.970, 2912.000
1069.072, 2817.000
1070.174, 2697.000
1071.276, 2671.000
1072.378, 2479.000
1073.480, 2496.000
1074.581, 2307.000
1075.682, 2380.000
1076.784, 2350.000
1077.885, 2387.000
1078.985, 2500.000
1080.086, 2672.000
1081.187, 2891.000
1082.287, 2909.000
1083.387, 2982.000
1084.487, 2987.000
1085.587, 2874.000
1086.687, 2650.000
1087.786, 2578.000
1088.885, 2394.000
1089.985, 2333.000
1091.084, 2262.000
1092.182, 2158.000
1093.281, 2132.000
1094.380, 2122.000
1095.478, 2047.000
1096.576, 2082.000
1097.674, 2058.000
1098.772, 2037.000
1099.870, 2066.000
1100.968, 2071.000
1102.065, 2059.105
1103.162, 2051.602
1104.259, 2042.000
1105.356, 2014.000
1106.453, 2007.000
1107.550, 2009.000
1108.646, 1985.000
1109.743, 2003.000
1110.839, 1931.000
1111.935, 2009.000
1113.030, 1999.000
1114.126, 1954.000
1115.222, 2044.000
1116.317, 1990.000
1117.412, 1935.000
1118.507, 1960.000
1119.602, 1961.000
1120.697, 1988.000
1121.791, 1977.000
1122.885, 1974.000
1123.980, 1953.000
1125.074, 1967.000
1126.168, 1971.000
1127.261, 1960.000
1128.355, 1972.902
1129.448, 1908.000
1130.541, 1993.000
1131.635, 1962.000
1132.727, 1990.000
1133.820, 2082.000
1134.913, 2106.000
1136.005, 2110.000
1137.097, 2182.000
1138.190, 2103.000
1139.281, 2221.000
1140.373, 2244.000
1141.465, 2308.000
1142.556, 2377.000
1143.648, 2423.000
1144.739, 2543.000
1145.830, 2521.000
1146.921, 2636.000
1148.011, 2729.000
1149.102, 2921.000
1150.192, 2958.000
1151.282, 3216.000
1152.372, 3498.000
1153.462, 3728.000
1154.552, 4196.000
1155.641, 4660.000
1156.731, 5461.000
1157.820, 6370.000
1158.909, 7496.000
1159.998, 8954.000
1161.086, 10224.00
1162.175, 11245.00
1163.263, 11326.00
1164.351, 10827.00
1165.440, 9560.000
1166.527, 7958.000
1167.615, 6663.000
1168.703, 5594.000
1169.790, 4580.000
1170.877, 4122.000
1171.965, 3519.000
1173.051, 3169.000
1174.138, 2957.000
1175.225, 2780.000
1176.311, 2708.000
1177.398, 2494.000
1178.484, 2408.000
1179.570, 2346.000
1180.655, 2340.000
1181.741, 2289.000
1182.827, 2361.000
1183.912, 2220.000
1184.997, 2219.000
1186.082, 2177.000
1187.167, 2073.000
1188.251, 2122.000
1189.336, 2081.000
1190.420, 2091.000
1191.505, 2021.000
1192.589, 2103.000
1193.672, 2133.000
1194.756, 2055.000
1195.840, 2050.000
1196.923, 2067.000
1198.006, 2054.000
1199.089, 2098.000
1200.172, 1986.000
1201.255, 2144.000
1202.337, 2013.000
1203.420, 2005.000
1204.502, 2072.000
1205.584, 2093.000
1206.666, 2044.000
1207.748, 2070.000
1208.829, 2035.000
1209.911, 1988.000
1210.992, 2050.000
1212.073, 1981.000
1213.154, 2020.000
1214.235, 2020.000
1215.316, 2007.000
1216.396, 2002.000
1217.476, 2058.000
1218.556, 2024.000
1219.636, 2040.981
1220.716, 1962.000
1221.796, 2018.000
1222.875, 2002.000
1223.955, 1944.000
1225.034, 1988.000
1226.113, 2041.000
1227.192, 2049.000
1228.270, 2055.000
1229.349, 2068.060
1230.427, 2069.986
1231.505, 2070.000
1232.583, 2046.000
1233.661, 2058.000
1234.739, 1981.000
1235.817, 2015.000
1236.894, 2040.000
1237.971, 1998.000
1239.048, 2035.000
1240.125, 2046.000
1241.202, 1997.000
1242.278, 1981.000
1243.355, 2027.000
1244.431, 2041.000
1245.507, 1968.000
1246.583, 2002.000
1247.659, 1987.000
1248.734, 1992.000
1249.810, 2006.000
1250.885, 1941.000
1251.960, 1997.000
1253.035, 2044.000
1254.110, 1986.000
1255.185, 2056.000
1256.259, 1974.000
1257.333, 2012.000
1258.408, 2011.000
1259.482, 2002.000
1260.555, 2010.584
1261.629, 2064.000
1262.702, 2017.000
1263.776, 1995.000
1264.849, 2037.000
1265.922, 1942.000
1266.995, 2089.000
1268.068, 2009.000
1269.140, 2040.000
1270.212, 1952.000
1271.285, 1926.000
1272.357, 2032.000
1273.428, 2029.000
1274.500, 1938.000
1275.572, 2077.000
1276.643, 1974.000
1277.714, 1988.000
1278.785, 2046.000
1279.856, 1960.000
1280.927, 1969.000
1281.998, 1971.000
1283.068, 2017.000
1284.138, 1963.000
1285.208, 1883.000
1286.278, 1999.000
1287.348, 1947.000
1288.418, 1915.000
1289.487, 1993.000
1290.556, 1896.000
1291.625, 1962.000
1292.694, 1929.000
1293.763, 1952.000
1294.832, 1912.000
1295.900, 1902.000
1296.969, 1856.000
1298.037, 1993.000
1299.105, 1954.000
1300.172, 1936.000
1301.240, 1982.000
1302.308, 1960.000
1303.375, 1915.000
1304.442, 1915.000
1305.509, 1938.000
1306.576, 1904.033
1307.643, 1921.000
1308.709, 1888.000
1309.775, 1887.000
1310.842, 1909.000
1311.908, 1856.000
1312.974, 1856.000
1314.039, 1921.000
1315.105, 1949.000
1316.170, 1952.000
1317.235, 1967.166
1318.300, 1965.296
1319.365, 1944.000
1320.430, 1933.000
1321.495, 1906.000
1322.559, 1895.901
1323.623, 1909.000
1324.687, 1883.000
1325.751, 1902.000
1326.815, 1924.000
1327.879, 1908.000
1328.942, 1942.000
1330.005, 1911.000
1331.068, 1938.000
1332.131, 1922.000
1333.194, 1894.000
1334.257, 1924.000
1335.319, 1948.000
1336.381, 1916.000
1337.444, 1915.000
1338.505, 1994.000
1339.567, 1914.000
1340.629, 1961.000
1341.690, 1848.000
1342.752, 1914.000
1343.813, 1905.000
1344.874, 1938.000
1345.935, 1979.000
1346.995, 1894.000
1348.056, 1866.000
1349.116, 1940.000
1350.176, 1954.000
1351.236, 1946.000
1352.296, 1927.000
1353.356, 1900.000
1354.415, 1909.245
1355.475, 1867.000
1356.534, 1916.000
1357.593, 1954.000
1358.652, 1948.000
1359.711, 1929.000
1360.769, 1948.000
1361.827, 1954.672
1362.886, 2014.000
1363.944, 1977.000
1365.002, 1987.000
1366.059, 1961.000
1367.117, 1921.000
1368.174, 1969.000
1369.232, 1932.000
1370.289, 1947.000
1371.346, 1925.000
1372.402, 1925.000
1373.459, 2001.000
1374.515, 1942.000
1375.572, 1958.000
1376.628, 1926.000
1377.684, 1987.000
1378.740, 1962.000
1379.795, 1973.000
1380.851, 1946.000
1381.906, 1952.000
1382.961, 1973.370
1384.016, 1918.000
1385.071, 2019.000
1386.125, 1990.000
1387.180, 1990.000
1388.234, 1908.000
1389.288, 1957.000
1390.342, 1941.000
1391.396, 1943.000
1392.450, 1914.000
1393.503, 1970.000
1394.557, 2050.000
1395.610, 1929.000
1396.663, 2060.000
1397.716, 1960.000
1398.768, 1967.000
1399.821, 2011.000
1400.873, 1961.000
1401.925, 1977.000
1402.978, 2016.000
1404.029, 1993.000
1405.081, 1983.000
1406.133, 1973.000
1407.184, 2017.000
1408.235, 2014.000
1409.286, 1971.000
1410.337, 2028.000
1411.388, 2029.000
1412.439, 1994.000
1413.489, 2034.000
1414.539, 1938.000
1415.589, 2054.000
1416.639, 2028.000
1417.689, 2062.000
1418.738, 2021.000
1419.788, 2052.000
1420.837, 1974.000
1421.886, 2029.000
1422.935, 2023.000
1423.984, 2036.000
1425.033, 2037.000
1426.081, 2057.000
1427.129, 2056.877
1428.177, 2088.000
1429.225, 2061.000
1430.273, 2087.000
1431.321, 2088.000
1432.368, 2062.000
1433.416, 2097.000
1434.463, 2115.000
1435.510, 2084.000
1436.557, 2138.000
1437.603, 2110.000
1438.650, 2082.000
1439.696, 2086.000
1440.742, 2090.000
1441.788, 2171.000
1442.834, 2050.000
1443.880, 2083.000
1444.925, 2153.000
1445.971, 2052.000
1447.016, 2075.000
1448.061, 2083.000
1449.106, 2063.000
1450.150, 2067.000
1451.195, 2064.536
1452.239, 2134.000
1453.284, 2075.000
1454.328, 2067.000
1455.371, 2097.000
1456.415, 2195.000
1457.459, 2133.000
1458.502, 2121.000
1459.545, 2139.000
1460.588, 2103.000
1461.631, 2116.000
1462.674, 2075.000
1463.717, 2079.191
1464.759, 2103.000
1465.801, 2076.000
1466.843, 2087.000
1467.885, 2082.000
1468.927, 2082.906
1469.969, 2093.000
1471.010, 2102.000
1472.051, 2095.000
1473.093, 2117.000
1474.134, 2093.000
1475.174, 2059.000
1476.215, 2081.000
1477.255, 2118.000
1478.296, 2078.000
1479.336, 2110.000
1480.376, 2123.000
1481.416, 2042.000
1482.455, 2135.000
1483.495, 2052.000
1484.534, 2161.000
1485.573, 2118.000
1486.612, 2101.000
1487.651, 2094.000
1488.690, 2076.036
1489.728, 2083.681
1490.766, 2072.000
1491.805, 2092.000
1492.843, 2108.000
1493.881, 2093.000
1494.918, 2123.002
1495.956, 2103.000
1496.993, 2146.000
1498.030, 2159.000
1499.067, 2138.000
1500.104, 2109.000
1501.141, 2092.000
1502.177, 2072.000
1503.214, 2081.000
1504.250, 2160.000
1505.286, 2096.000
1506.322, 2090.000
1507.358, 2014.000
1508.393, 2126.000
1509.429, 2058.000
1510.464, 2171.000
1511.499, 2016.000
1512.534, 2112.000
1513.569, 2120.000
1514.603, 2133.000
1515.638, 2169.000
1516.672, 2089.000
1517.706, 2201.000
1518.740, 2092.000
1519.774, 2218.000
1520.807, 2099.000
1521.841, 2110.000
1522.874, 2077.000
1523.907, 2100.000
1524.940, 2181.000
1525.973, 2101.000
1527.005, 2120.000
1528.038, 2123.000
1529.070, 2082.000
1530.102, 2140.000
1531.134, 2093.000
1532.166, 2157.000
1533.198, 2128.000
1534.229, 2150.000
1535.260, 2134.000
1536.292, 2197.000
1537.323, 2146.000
1538.353, 2092.000
1539.384, 2172.000
1540.415, 2126.000
1541.445, 2133.000
1542.475, 2191.000
1543.505, 2172.000
1544.535, 2180.000
1545.565, 2209.000
1546.594, 2160.000
1547.623, 2201.000
1548.653, 2156.000
1549.682, 2155.000
1550.711, 2210.000
1551.739, 2117.000
1552.768, 2148.000
1553.796, 2144.000
1554.824, 2190.000
1555.852, 2159.000
1556.880, 2183.317
1557.908, 2145.000
1558.936, 2193.000
1559.963, 2181.000
1560.990, 2163.000
1562.017, 2163.000
1563.044, 2165.000
1564.071, 2217.000
1565.097, 2162.000
1566.124, 2163.000
1567.150, 2228.000
1568.176, 2206.000
1569.202, 2189.000
1570.228, 2205.000
1571.253, 2202.000
1572.279, 2228.000
1573.304, 2222.000
1574.329, 2257.000
1575.354, 2223.000
1576.379, 2240.000
1577.404, 2229.000
1578.428, 2201.000
##END=



