##NAMES=Quartz
##RRUFFID=R060604
##IDEAL CHEMISTRY=SiO_2_
##LOCALITY=Piedras Parada, Veracruz, Mexico
##OWNER=RRUFF
##SOURCE=Michael Scott
##DESCRIPTION=Purple hexagonal prisms, variety amethyst
##STATUS=The identification of this mineral has been confirmed by X-ray diffraction and chemical analysis
##URL=rruff.info/R060604
##MEASURED CHEMISTRY=Si_1.00_O_2_
62.16800, 937.0000
63.41100, 1018.000
64.65300, 1102.000
65.89600, 1166.000
67.13800, 1318.000
68.38000, 1467.000
69.62200, 1574.000
70.86300, 1680.000
72.10500, 1842.000
73.34600, 2034.000
74.58700, 2170.000
75.82800, 2298.000
77.06900, 2411.315
78.30900, 2527.000
79.55000, 2567.000
80.79000, 2634.000
82.03000, 2663.000
83.27000, 2948.000
84.51000, 3148.000
85.74900, 3193.000
86.98900, 3238.000
88.22800, 3216.000
89.46700, 3238.000
90.70600, 3389.000
91.94400, 3419.000
93.18300, 3591.000
94.42100, 3477.000
95.65900, 3537.000
96.89700, 3612.000
98.13500, 3490.000
99.37300, 3563.000
100.6100, 3626.000
101.8480, 3596.000
103.0850, 3653.000
104.3220, 3686.000
105.5590, 3741.000
106.7950, 3799.000
108.0320, 3822.048
109.2680, 3841.476
110.5040, 3885.000
111.7400, 3892.000
112.9760, 3939.000
114.2120, 4065.000
115.4470, 4195.000
116.6820, 4370.000
117.9170, 4395.000
119.1520, 4555.000
120.3870, 4833.000
121.6220, 5094.000
122.8560, 5662.000
124.0900, 6617.000
125.3240, 8099.000
126.5580, 9500.000
127.7920, 11036.00
129.0260, 12023.00
130.2590, 11941.00
131.4920, 11141.00
132.7250, 9791.000
133.9580, 8379.000
135.1910, 7018.000
136.4230, 5988.000
137.6560, 5650.000
138.8880, 5343.000
140.1200, 5256.000
141.3520, 5259.000
142.5830, 5297.000
143.8150, 5354.000
145.0460, 5268.657
146.2770, 5185.372
147.5080, 5117.000
148.7390, 4908.000
149.9700, 4849.000
151.2000, 4755.000
152.4310, 4676.000
153.6610, 4638.000
154.8910, 4559.000
156.1210, 4641.000
157.3500, 4593.000
158.5800, 4528.000
159.8090, 4524.000
161.0380, 4476.000
162.2670, 4526.000
163.4960, 4503.000
164.7240, 4533.000
165.9530, 4636.000
167.1810, 4649.000
168.4090, 4699.000
169.6370, 4760.000
170.8650, 4800.000
172.0920, 4822.000
173.3200, 4924.000
174.5470, 4896.000
175.7740, 5000.000
177.0010, 5113.000
178.2280, 5150.000
179.4540, 5212.000
180.6810, 5391.000
181.9070, 5443.000
183.1330, 5631.000
184.3590, 5702.000
185.5850, 5961.000
186.8100, 6133.000
188.0350, 6340.000
189.2610, 6593.000
190.4860, 6912.000
191.7110, 7240.000
192.9350, 7594.000
194.1600, 8129.000
195.3840, 8596.000
196.6080, 9090.000
197.8320, 9579.000
199.0560, 10157.00
200.2800, 10664.00
201.5030, 11392.00
202.7270, 11832.00
203.9500, 12421.00
205.1730, 12763.00
206.3950, 12934.00
207.6180, 13018.00
208.8410, 12888.00
210.0630, 12778.00
211.2850, 12494.00
212.5070, 12136.00
213.7290, 11546.00
214.9500, 11139.00
216.1720, 10442.00
217.3930, 9945.000
218.6140, 9400.000
219.8350, 8817.000
221.0560, 8382.000
222.2770, 8026.000
223.4970, 7647.000
224.7170, 7247.000
225.9370, 7097.000
227.1570, 6877.000
228.3770, 6621.000
229.5970, 6376.000
230.8160, 6192.000
232.0350, 6020.356
233.2540, 5949.000
234.4730, 5758.000
235.6920, 5717.000
236.9110, 5615.000
238.1290, 5495.000
239.3470, 5328.000
240.5650, 5296.000
241.7830, 5264.000
243.0010, 5263.000
244.2180, 5218.683
245.4360, 5204.000
246.6530, 5154.000
247.8700, 5102.000
249.0870, 5077.000
250.3040, 5076.000
251.5200, 5009.000
252.7370, 4960.000
253.9530, 4998.000
255.1690, 4945.000
256.3850, 4919.000
257.6000, 4931.000
258.8160, 4959.000
260.0310, 4893.000
261.2460, 4942.000
262.4610, 4985.000
263.6760, 4903.000
264.8910, 4905.000
266.1050, 4958.000
267.3200, 4806.000
268.5340, 4773.000
269.7480, 4702.000
270.9620, 4707.000
272.1750, 4626.000
273.3890, 4694.000
274.6020, 4599.000
275.8150, 4616.000
277.0280, 4613.000
278.2410, 4622.000
279.4540, 4687.000
280.6660, 4536.000
281.8790, 4595.000
283.0910, 4577.000
284.3030, 4465.000
285.5140, 4622.000
286.7260, 4648.000
287.9380, 4572.000
289.1490, 4583.000
290.3600, 4498.000
291.5710, 4600.000
292.7820, 4544.000
293.9920, 4569.000
295.2030, 4524.000
296.4130, 4508.000
297.6230, 4566.000
298.8330, 4560.000
300.0430, 4578.000
301.2520, 4564.000
302.4620, 4603.000
303.6710, 4578.000
304.8800, 4534.000
306.0890, 4609.000
307.2980, 4615.000
308.5070, 4493.000
309.7150, 4514.000
310.9230, 4472.000
312.1310, 4568.000
313.3390, 4695.000
314.5470, 4547.000
315.7550, 4601.000
316.9620, 4683.000
318.1690, 4529.000
319.3760, 4575.000
320.5830, 4609.000
321.7900, 4604.000
322.9960, 4661.000
324.2030, 4626.000
325.4090, 4582.000
326.6150, 4596.000
327.8210, 4607.000
329.0270, 4604.000
330.2320, 4635.000
331.4380, 4639.000
332.6430, 4739.000
333.8480, 4722.000
335.0530, 4683.000
336.2580, 4619.000
337.4620, 4626.000
338.6670, 4735.000
339.8710, 4743.000
341.0750, 4754.000
342.2790, 4742.000
343.4820, 4814.000
344.6860, 4800.000
345.8890, 4910.000
347.0920, 4991.000
348.2960, 5040.000
349.4980, 5114.000
350.7010, 5290.000
351.9040, 5700.000
353.1060, 6076.000
354.3080, 6737.000
355.5100, 7067.000
356.7120, 7286.000
357.9140, 6907.000
359.1150, 6266.000
360.3170, 5765.000
361.5180, 5483.000
362.7190, 5158.000
363.9200, 4929.000
365.1200, 4942.000
366.3210, 4752.000
367.5210, 4860.000
368.7210, 4861.000
369.9210, 4758.000
371.1210, 4805.000
372.3210, 4831.000
373.5200, 4788.000
374.7200, 4885.000
375.9190, 4926.000
377.1180, 4883.000
378.3170, 4857.000
379.5150, 4905.000
380.7140, 5019.000
381.9120, 4975.000
383.1110, 5077.000
384.3090, 5160.000
385.5060, 5055.000
386.7040, 5081.000
387.9020, 5114.000
389.0990, 5277.768
390.2960, 5416.000
391.4930, 5793.000
392.6900, 6142.000
393.8860, 6539.000
395.0830, 6798.000
396.2790, 6835.000
397.4750, 6523.000
398.6710, 6156.000
399.8670, 5864.000
401.0630, 5504.000
402.2580, 5381.000
403.4540, 5197.000
404.6490, 5101.000
405.8440, 5181.000
407.0390, 5096.000
408.2330, 5121.000
409.4280, 5113.000
410.6220, 5058.000
411.8160, 5087.000
413.0100, 5209.000
414.2040, 5104.000
415.3980, 5253.000
416.5910, 5183.000
417.7850, 5187.000
418.9780, 5152.000
420.1710, 5125.000
421.3640, 5196.000
422.5560, 5279.000
423.7490, 5307.000
424.9410, 5330.776
426.1330, 5347.000
427.3250, 5290.000
428.5170, 5354.000
429.7090, 5252.000
430.9000, 5374.000
432.0910, 5360.000
433.2820, 5523.000
434.4730, 5441.000
435.6640, 5489.000
436.8550, 5545.000
438.0450, 5569.000
439.2360, 5655.000
440.4260, 5734.000
441.6160, 5831.000
442.8060, 5959.000
443.9950, 6085.000
445.1850, 6149.000
446.3740, 6343.000
447.5630, 6652.000
448.7520, 6955.000
449.9410, 7294.000
451.1300, 7598.000
452.3180, 8095.000
453.5060, 8674.000
454.6950, 9478.000
455.8830, 10537.00
457.0700, 12050.00
458.2580, 14082.00
459.4450, 17146.00
460.6330, 21437.00
461.8200, 26990.00
463.0070, 33292.00
464.1940, 38653.00
465.3800, 42192.00
466.5670, 41970.00
467.7530, 38815.00
468.9390, 34089.00
470.1250, 28402.00
471.3110, 23146.00
472.4970, 18941.00
473.6820, 15949.00
474.8680, 13878.00
476.0530, 12167.00
477.2380, 10925.00
478.4230, 10049.00
479.6070, 9461.000
480.7920, 8957.000
481.9760, 8514.000
483.1600, 8122.000
484.3440, 7898.000
485.5280, 7638.000
486.7120, 7445.000
487.8950, 7273.000
489.0780, 7060.000
490.2620, 7087.000
491.4450, 6994.000
492.6270, 6749.000
493.8100, 6807.000
494.9920, 6614.000
496.1750, 6652.000
497.3570, 6527.000
498.5390, 6449.000
499.7210, 6407.000
500.9020, 6353.000
502.0840, 6387.000
503.2650, 6277.000
504.4460, 6296.000
505.6270, 6337.000
506.8080, 6318.000
507.9890, 6214.000
509.1690, 6187.000
510.3500, 6130.000
511.5300, 6093.000
512.7100, 6071.099
513.8900, 6041.422
515.0690, 6034.000
516.2490, 6027.000
517.4280, 6016.000
518.6070, 6049.000
519.7860, 6065.000
520.9650, 6082.000
522.1440, 5981.000
523.3220, 6046.000
524.5010, 6003.000
525.6790, 6107.000
526.8570, 6061.000
528.0350, 5967.000
529.2130, 6036.000
530.3900, 5916.000
531.5670, 5900.000
532.7450, 5877.000
533.9220, 5784.000
535.0980, 5907.000
536.2750, 5924.000
537.4520, 5860.000
538.6280, 5916.000
539.8040, 5875.000
540.9800, 5929.000
542.1560, 5990.000
543.3320, 5939.000
544.5070, 5926.000
545.6830, 5811.000
546.8580, 5824.000
548.0330, 5884.000
549.2080, 5947.000
550.3830, 5836.000
551.5570, 5827.000
552.7310, 5828.000
553.9060, 5889.000
555.0800, 5912.000
556.2540, 5954.000
557.4270, 5915.000
558.6010, 5844.000
559.7740, 5892.000
560.9470, 5926.000
562.1210, 5773.000
563.2930, 5832.000
564.4660, 5830.000
565.6390, 5862.000
566.8110, 5956.000
567.9830, 5825.000
569.1550, 5785.000
570.3270, 5842.000
571.4990, 5915.000
572.6710, 5791.000
573.8420, 5860.000
575.0130, 5882.000
576.1840, 5902.000
577.3550, 5851.000
578.5260, 6020.000
579.6970, 5934.000
580.8670, 5870.000
582.0370, 5992.000
583.2070, 5950.000
584.3770, 5909.000
585.5470, 5973.000
586.7170, 5998.000
587.8860, 5945.000
589.0550, 5970.000
590.2240, 5966.971
591.3930, 6068.000
592.5620, 5997.000
593.7310, 6004.000
594.8990, 6057.000
596.0670, 6015.000
597.2350, 6007.000
598.4030, 5963.000
599.5710, 6027.000
600.7390, 6053.000
601.9060, 6052.000
603.0740, 6076.000
604.2410, 6175.000
605.4080, 5996.000
606.5740, 6016.000
607.7410, 5988.000
608.9080, 6075.000
610.0740, 5982.000
611.2400, 6079.000
612.4060, 6068.000
613.5720, 6130.000
614.7370, 5974.000
615.9030, 6058.000
617.0680, 6030.000
618.2330, 6058.000
619.3980, 6115.000
620.5630, 6085.000
621.7280, 6097.000
622.8920, 6037.000
624.0570, 6145.000
625.2210, 6061.000
626.3850, 6108.000
627.5490, 6093.000
628.7120, 6134.000
629.8760, 6183.000
631.0390, 6135.000
632.2020, 6146.000
633.3650, 6107.000
634.5280, 6128.000
635.6910, 6038.000
636.8530, 6234.000
638.0160, 6079.000
639.1780, 6178.000
640.3400, 6142.000
641.5020, 6135.000
642.6640, 6142.000
643.8250, 6201.000
644.9870, 6170.000
646.1480, 6180.886
647.3090, 6130.000
648.4700, 6175.000
649.6300, 6184.000
650.7910, 6218.000
651.9510, 6249.000
653.1120, 6161.000
654.2720, 6237.000
655.4320, 6210.000
656.5910, 6104.000
657.7510, 6185.000
658.9100, 6183.000
660.0690, 6207.000
661.2290, 6195.000
662.3880, 6205.861
663.5460, 6201.000
664.7050, 6216.000
665.8630, 6205.000
667.0220, 6211.000
668.1800, 6277.000
669.3380, 6200.000
670.4950, 6310.000
671.6530, 6250.000
672.8100, 6261.000
673.9680, 6234.000
675.1250, 6164.000
676.2820, 6325.000
677.4390, 6218.000
678.5950, 6280.000
679.7520, 6308.000
680.9080, 6285.000
682.0640, 6297.000
683.2200, 6297.000
684.3760, 6270.000
685.5320, 6278.000
686.6870, 6411.000
687.8420, 6429.000
688.9980, 6452.000
690.1530, 6437.000
691.3070, 6520.730
692.4620, 6637.000
693.6170, 6690.000
694.7710, 6773.000
695.9250, 6882.000
697.0790, 6867.000
698.2330, 6937.000
699.3870, 6843.000
700.5400, 6805.000
701.6940, 6635.000
702.8470, 6665.000
704.0000, 6656.000
705.1530, 6636.000
706.3050, 6628.000
707.4580, 6463.000
708.6100, 6464.000
709.7630, 6437.000
710.9150, 6561.000
712.0660, 6461.000
713.2180, 6453.000
714.3700, 6554.000
715.5210, 6523.000
716.6720, 6490.000
717.8240, 6476.000
718.9740, 6567.000
720.1250, 6479.000
721.2760, 6491.000
722.4260, 6444.000
723.5770, 6597.000
724.7270, 6521.000
725.8770, 6609.000
727.0260, 6439.000
728.1760, 6554.000
729.3250, 6558.000
730.4750, 6563.000
731.6240, 6531.000
732.7730, 6567.000
733.9220, 6617.000
735.0700, 6548.000
736.2190, 6659.000
737.3670, 6610.000
738.5150, 6647.000
739.6630, 6641.000
740.8110, 6613.000
741.9590, 6690.000
743.1060, 6602.000
744.2540, 6523.000
745.4010, 6574.000
746.5480, 6678.000
747.6950, 6527.000
748.8410, 6525.000
749.9880, 6648.000
751.1340, 6581.000
752.2800, 6557.000
753.4260, 6645.000
754.5720, 6738.000
755.7180, 6645.000
756.8640, 6652.000
758.0090, 6672.000
759.1540, 6718.000
760.2990, 6717.000
761.4440, 6749.000
762.5890, 6683.000
763.7340, 6702.000
764.8780, 6643.000
766.0220, 6670.000
767.1660, 6730.000
768.3100, 6677.000
769.4540, 6759.000
770.5980, 6652.000
771.7410, 6786.000
772.8840, 6701.000
774.0280, 6830.000
775.1700, 6725.000
776.3130, 6821.000
777.4560, 6758.000
778.5980, 6796.000
779.7410, 6735.000
780.8830, 6733.000
782.0250, 6753.000
783.1670, 6746.376
784.3080, 6870.000
785.4500, 6743.000
786.5910, 6872.000
787.7320, 6784.000
788.8730, 6941.000
790.0140, 6858.000
791.1550, 6895.000
792.2950, 6994.000
793.4360, 7001.000
794.5760, 6983.000
795.7160, 7002.000
796.8560, 6968.000
797.9960, 7006.738
799.1350, 7027.000
800.2750, 7064.000
801.4140, 7041.000
802.5530, 7042.000
803.6920, 7040.000
804.8310, 7012.000
805.9690, 7033.000
807.1080, 7061.000
808.2460, 7026.000
809.3840, 7007.000
810.5220, 7029.000
811.6600, 6984.000
812.7970, 6989.000
813.9350, 7058.000
815.0720, 6978.000
816.2090, 7057.000
817.3460, 7085.000
818.4830, 7084.000
819.6200, 7122.321
820.7560, 7124.000
821.8930, 7104.000
823.0290, 7049.000
824.1650, 6944.000
825.3010, 7084.000
826.4360, 7108.000
827.5720, 7189.000
828.7070, 7005.000
829.8420, 7118.000
830.9770, 7065.000
832.1120, 7107.000
833.2470, 7049.000
834.3820, 7065.186
835.5160, 7124.000
836.6500, 7089.000
837.7840, 7139.000
838.9180, 7173.000
840.0520, 7209.000
841.1860, 7079.000
842.3190, 7185.000
843.4520, 7164.000
844.5850, 7114.000
845.7180, 7159.000
846.8510, 7249.000
847.9840, 7126.000
849.1160, 7186.000
850.2490, 7242.000
851.3810, 7234.000
852.5130, 7232.000
853.6450, 7250.901
854.7760, 7313.000
855.9080, 7267.000
857.0390, 7284.000
858.1700, 7314.000
859.3010, 7268.000
860.4320, 7281.000
861.5630, 7292.000
862.6930, 7332.000
863.8240, 7300.000
864.9540, 7375.000
866.0840, 7255.000
867.2140, 7284.000
868.3440, 7170.000
869.4730, 7303.000
870.6030, 7358.000
871.7320, 7270.000
872.8610, 7418.000
873.9900, 7371.000
875.1190, 7349.000
876.2470, 7365.000
877.3760, 7397.000
878.5040, 7317.000
879.6320, 7289.000
880.7600, 7330.000
881.8880, 7303.489
883.0150, 7342.000
884.1430, 7331.000
885.2700, 7340.617
886.3970, 7358.640
887.5240, 7371.000
888.6510, 7388.000
889.7780, 7429.000
890.9040, 7454.000
892.0310, 7450.000
893.1570, 7557.000
894.2830, 7568.000
895.4090, 7476.000
896.5350, 7442.000
897.6600, 7582.000
898.7860, 7487.000
899.9110, 7529.000
901.0360, 7524.000
902.1610, 7543.000
903.2860, 7498.000
904.4100, 7539.000
905.5350, 7408.000
906.6590, 7589.000
907.7830, 7531.000
908.9070, 7657.000
910.0310, 7533.000
911.1540, 7613.000
912.2780, 7553.000
913.4010, 7698.000
914.5240, 7683.000
915.6470, 7682.000
916.7700, 7518.000
917.8930, 7628.000
919.0150, 7576.000
920.1380, 7512.000
921.2600, 7594.000
922.3820, 7700.000
923.5040, 7607.000
924.6260, 7675.000
925.7470, 7690.000
926.8690, 7660.000
927.9900, 7692.000
929.1110, 7667.000
930.2320, 7678.822
931.3530, 7635.000
932.4730, 7687.000
933.5940, 7711.000
934.7140, 7696.000
935.8340, 7661.000
936.9540, 7750.000
938.0740, 7697.000
939.1930, 7694.000
940.3130, 7716.000
941.4320, 7704.000
942.5510, 7714.881
943.6700, 7741.743
944.7890, 7733.000
945.9080, 7792.000
947.0260, 7822.000
948.1450, 7831.000
949.2630, 7841.000
950.3810, 7836.837
951.4990, 7795.000
952.6170, 7810.000
953.7340, 7804.000
954.8520, 7787.000
955.9690, 7680.000
957.0860, 7704.000
958.2030, 7897.000
959.3200, 7766.000
960.4360, 7722.000
961.5530, 7892.000
962.6690, 7840.000
963.7850, 7808.000
964.9010, 7835.000
966.0170, 7806.000
967.1330, 7777.000
968.2480, 7805.000
969.3630, 7949.000
970.4790, 7927.000
971.5940, 7955.487
972.7080, 7750.000
973.8230, 7904.000
974.9380, 7906.000
976.0520, 7809.000
977.1660, 7957.000
978.2800, 7897.000
979.3940, 7815.000
980.5080, 7823.000
981.6220, 8018.000
982.7350, 7906.000
983.8480, 7956.000
984.9610, 7869.000
986.0740, 7963.000
987.1870, 7918.000
988.3000, 7857.000
989.4120, 7936.000
990.5250, 7935.000
991.6370, 7888.000
992.7490, 7954.000
993.8610, 7928.000
994.9720, 7935.110
996.0840, 8026.000
997.1950, 7929.000
998.3060, 7982.000
999.4170, 7956.000
1000.528, 8048.000
1001.639, 7971.000
1002.750, 8096.000
1003.860, 8019.000
1004.970, 8027.000
1006.080, 8083.000
1007.190, 7989.000
1008.300, 8071.000
1009.410, 8003.000
1010.519, 8062.000
1011.628, 8085.000
1012.738, 8155.000
1013.846, 8090.000
1014.955, 8054.000
1016.064, 8028.000
1017.172, 8098.000
1018.281, 8194.000
1019.389, 8154.000
1020.497, 8175.000
1021.605, 8181.000
1022.713, 8186.000
1023.820, 8247.000
1024.928, 8140.000
1026.035, 8153.000
1027.142, 8313.000
1028.249, 8177.000
1029.356, 8218.000
1030.462, 8201.000
1031.569, 8308.000
1032.675, 8233.000
1033.781, 8265.000
1034.887, 8230.000
1035.993, 8405.000
1037.098, 8413.000
1038.204, 8474.000
1039.309, 8617.000
1040.415, 8653.000
1041.520, 8642.000
1042.624, 8775.000
1043.729, 8819.000
1044.834, 8925.000
1045.938, 8983.000
1047.042, 8944.000
1048.146, 8821.000
1049.250, 8808.000
1050.354, 8745.000
1051.458, 8599.000
1052.561, 8588.000
1053.664, 8505.000
1054.767, 8491.784
1055.870, 8474.000
1056.973, 8513.000
1058.076, 8551.000
1059.178, 8589.000
1060.281, 8553.000
1061.383, 8567.000
1062.485, 8601.000
1063.587, 8609.000
1064.688, 8705.000
1065.790, 8623.000
1066.891, 8655.000
1067.993, 8664.000
1069.094, 8575.000
1070.195, 8589.000
1071.295, 8569.000
1072.396, 8504.000
1073.496, 8556.000
1074.597, 8588.000
1075.697, 8498.000
1076.797, 8523.000
1077.897, 8667.000
1078.996, 8556.000
1080.096, 8592.000
1081.195, 8851.000
1082.294, 8679.000
1083.393, 8825.000
1084.492, 8683.000
1085.591, 8858.000
1086.689, 9040.000
1087.788, 9035.000
1088.886, 8789.000
1089.984, 8784.000
1091.082, 8696.000
1092.180, 8655.000
1093.277, 8682.000
1094.375, 8631.000
1095.472, 8588.000
1096.569, 8635.000
1097.666, 8719.000
1098.763, 8618.000
1099.860, 8692.000
1100.956, 8600.000
1102.053, 8693.000
1103.149, 8631.000
1104.245, 8738.000
1105.341, 8676.000
1106.436, 8643.000
1107.532, 8574.000
1108.627, 8593.675
1109.723, 8706.000
1110.818, 8657.000
1111.913, 8655.000
1113.007, 8723.000
1114.102, 8717.000
1115.197, 8697.000
1116.291, 8637.000
1117.385, 8724.000
1118.479, 8642.000
1119.573, 8800.000
1120.666, 8735.000
1121.760, 8767.000
1122.853, 8885.000
1123.947, 8869.000
1125.040, 8868.000
1126.132, 8886.000
1127.225, 8847.000
1128.318, 8876.000
1129.410, 8862.000
1130.502, 8837.000
1131.595, 8912.000
1132.687, 8861.000
1133.778, 8846.000
1134.870, 8817.000
1135.961, 8828.077
1137.053, 8843.761
1138.144, 8874.000
1139.235, 8913.000
1140.326, 8945.000
1141.416, 8993.000
1142.507, 8910.000
1143.597, 8929.000
1144.688, 8958.000
1145.778, 8940.000
1146.868, 9029.000
1147.957, 9141.000
1149.047, 9106.000
1150.136, 9052.000
1151.226, 9069.000
1152.315, 9193.000
1153.404, 9273.000
1154.493, 9409.000
1155.581, 9522.000
1156.670, 9722.000
1157.758, 9975.000
1158.846, 10103.00
1159.934, 10339.00
1161.022, 10616.00
1162.110, 10538.00
1163.198, 10427.00
1164.285, 10379.00
1165.372, 10052.00
1166.459, 9896.000
1167.546, 9624.000
1168.633, 9500.000
1169.720, 9463.000
1170.806, 9375.000
1171.892, 9293.022
1172.979, 9177.000
1174.065, 9163.000
1175.150, 9164.000
1176.236, 9159.271
1177.322, 9060.000
1178.407, 9170.000
1179.492, 9141.000
1180.577, 9180.000
1181.662, 9095.000
1182.747, 9231.000
1183.832, 9140.000
1184.916, 9191.000
1186.000, 9030.000
1187.084, 9143.000
1188.168, 9201.000
1189.252, 9226.000
1190.336, 9178.000
1191.419, 9298.000
1192.503, 9171.000
1193.586, 9125.000
1194.669, 9144.000
1195.752, 9169.000
1196.835, 9102.000
1197.917, 9265.000
1199.000, 9168.000
1200.082, 9216.000
1201.164, 9094.000
1202.246, 9109.000
1203.328, 9113.000
1204.409, 9230.000
1205.491, 9184.000
1206.572, 9292.000
1207.653, 9311.000
1208.734, 9325.000
1209.815, 9233.000
1210.896, 9286.000
1211.976, 9149.000
1213.057, 9173.000
1214.137, 9334.000
1215.217, 9381.000
1216.297, 9195.000
1217.377, 9337.000
1218.456, 9195.000
1219.536, 9290.000
1220.615, 9359.000
1221.694, 9302.000
1222.773, 9385.000
1223.852, 9394.000
1224.931, 9399.000
1226.009, 9373.000
1227.088, 9391.013
1228.166, 9447.000
1229.244, 9418.000
1230.322, 9426.000
1231.400, 9468.000
1232.477, 9371.000
1233.555, 9472.000
1234.632, 9334.000
1235.709, 9592.000
1236.786, 9572.000
1237.863, 9499.000
1238.939, 9374.000
1240.016, 9427.000
1241.092, 9522.000
1242.168, 9482.000
1243.245, 9474.000
1244.320, 9465.000
1245.396, 9498.000
1246.472, 9381.000
1247.547, 9524.000
1248.622, 9419.000
1249.697, 9362.000
1250.772, 9628.000
1251.847, 9424.000
1252.922, 9412.000
1253.996, 9665.000
1255.071, 9456.000
1256.145, 9487.000
1257.219, 9454.000
1258.293, 9544.000
1259.366, 9563.000
1260.440, 9529.000
1261.513, 9636.000
1262.587, 9576.000
1263.660, 9547.000
1264.733, 9665.000
1265.805, 9647.000
1266.878, 9623.000
1267.951, 9520.000
1269.023, 9664.000
1270.095, 9755.000
1271.167, 9640.000
1272.239, 9700.000
1273.311, 9687.000
1274.382, 9627.000
1275.454, 9664.000
1276.525, 9638.000
1277.596, 9664.000
1278.667, 9750.000
1279.738, 9707.000
1280.808, 9534.000
1281.879, 9567.000
1282.949, 9622.000
1284.019, 9741.000
1285.089, 9683.000
1286.159, 9692.000
1287.229, 9552.000
1288.298, 9668.000
1289.368, 9625.000
1290.437, 9751.000
1291.506, 9693.000
1292.575, 9810.000
1293.644, 9715.000
1294.712, 9770.000
1295.781, 9907.000
1296.849, 9707.000
1297.917, 9640.000
1298.985, 9766.000
1300.053, 9754.000
1301.121, 9785.000
1302.188, 9819.000
1303.255, 9854.000
1304.323, 9898.420
1305.390, 9919.009
1306.457, 9948.000
1307.523, 9910.000
1308.590, 9832.000
1309.656, 9703.000
1310.723, 9738.008
1311.789, 9855.000
1312.855, 9751.000
1313.921, 9898.000
1314.986, 9870.000
1316.052, 9989.000
1317.117, 9922.000
1318.182, 9970.000
1319.248, 9921.000
1320.312, 9856.000
1321.377, 9886.000
1322.442, 9921.000
1323.506, 9899.000
1324.571, 9962.000
1325.635, 9932.000
1326.699, 9931.000
1327.762, 9927.000
1328.826, 9909.000
1329.890, 9994.000
1330.953, 10052.00
1332.016, 9964.000
1333.079, 9935.000
1334.142, 9867.000
1335.205, 10043.00
1336.268, 9939.000
1337.330, 9842.000
1338.392, 10071.00
1339.454, 9912.000
1340.516, 10128.00
1341.578, 10014.00
1342.640, 10022.00
1343.701, 10126.00
1344.763, 10018.00
1345.824, 10136.00
1346.885, 10100.00
1347.946, 10055.00
1349.007, 10075.00
1350.067, 10215.00
1351.128, 10056.00
1352.188, 10155.00
1353.248, 10037.00
1354.308, 10112.00
1355.368, 9943.000
1356.428, 9997.000
1357.487, 9955.000
1358.547, 10220.00
1359.606, 10272.00
1360.665, 10141.00
1361.724, 10080.00
1362.783, 10150.00
1363.841, 10098.00
1364.900, 10087.00
1365.958, 10164.00
1367.016, 10192.00
1368.074, 10239.00
1369.132, 10139.00
1370.190, 10127.00
1371.247, 10128.00
1372.304, 10168.00
1373.362, 10183.51
1374.419, 10217.00
1375.476, 10259.00
1376.532, 10239.00
1377.589, 10279.00
1378.645, 10179.00
1379.702, 10138.00
1380.758, 10269.00
1381.814, 10256.00
1382.870, 10375.00
1383.925, 10242.00
1384.981, 10263.00
1386.036, 10286.00
1387.092, 10353.00
1388.147, 10280.00
1389.202, 10399.00
1390.256, 10319.00
1391.311, 10382.00
1392.365, 10288.00
1393.420, 10445.00
1394.474, 10280.00
1395.528, 10402.00
1396.582, 10319.00
1397.636, 10373.00
1398.689, 10345.00
1399.742, 10236.00
1400.796, 10367.00
1401.849, 10312.00
1402.902, 10352.00
1403.955, 10353.00
1405.007, 10406.00
1406.060, 10265.00
1407.112, 10418.00
1408.164, 10393.00
1409.216, 10454.00
1410.268, 10613.00
1411.320, 10471.00
1412.371, 10404.00
1413.423, 10550.00
1414.474, 10460.00
1415.525, 10461.00
1416.576, 10391.00
1417.627, 10428.00
1418.678, 10615.00
1419.728, 10536.00
1420.778, 10539.00
1421.829, 10605.00
1422.879, 10554.00
1423.928, 10545.00
1424.978, 10528.00
1426.028, 10520.78
1427.077, 10619.00
1428.126, 10554.00
1429.176, 10589.00
1430.225, 10662.00
1431.273, 10804.00
1432.322, 10736.00
1433.371, 10651.00
1434.419, 10669.00
1435.467, 10594.00
1436.515, 10724.00
1437.563, 10682.00
1438.611, 10666.00
1439.658, 10833.00
1440.706, 10839.00
1441.753, 10739.00
1442.800, 10740.00
1443.847, 10732.00
1444.894, 10711.89
1445.941, 10780.00
1446.987, 10745.00
1448.034, 10716.00
1449.080, 10768.00
1450.126, 10742.00
1451.172, 10781.00
1452.218, 10775.00
1453.263, 10861.00
1454.309, 10882.00
1455.354, 10773.00
1456.399, 10780.00
1457.444, 10866.00
1458.489, 10818.00
1459.534, 10844.00
1460.579, 10895.00
1461.623, 10846.00
1462.667, 10762.00
1463.711, 10876.00
1464.755, 10798.00
1465.799, 10953.00
1466.843, 10859.00
1467.886, 10806.00
1468.930, 10829.00
1469.973, 10808.95
1471.016, 10827.00
1472.059, 10854.00
1473.101, 10818.74
1474.144, 10816.53
1475.186, 10767.00
1476.229, 10780.00
1477.271, 10758.00
1478.313, 10773.00
1479.355, 10807.00
1480.396, 10703.00
1481.438, 10899.00
1482.479, 10921.00
1483.520, 10746.00
1484.561, 11006.00
1485.602, 10911.00
1486.643, 10798.00
1487.684, 10944.00
1488.724, 10838.00
1489.765, 10892.00
1490.805, 10861.00
1491.845, 11019.00
1492.885, 10898.00
1493.924, 10906.00
1494.964, 10935.00
1496.003, 10843.00
1497.042, 10962.00
1498.082, 10970.00
1499.120, 10842.00
1500.159, 10831.00
1501.198, 10944.00
1502.236, 10807.00
1503.275, 10985.00
1504.313, 10965.00
1505.351, 10857.00
1506.389, 10958.00
1507.427, 10904.00
1508.464, 10986.00
1509.502, 11002.00
1510.539, 10918.00
1511.576, 10996.00
1512.613, 10896.00
1513.650, 11012.00
1514.687, 10972.00
1515.723, 11036.00
1516.759, 11016.00
1517.796, 10925.00
1518.832, 11173.00
1519.868, 11059.00
1520.903, 10934.00
1521.939, 11069.00
1522.975, 11052.00
1524.010, 11047.00
1525.045, 11110.00
1526.080, 11106.00
1527.115, 10976.00
1528.150, 11007.00
1529.184, 11031.00
1530.219, 11164.00
1531.253, 11053.00
1532.287, 11175.00
1533.321, 11080.00
1534.355, 11079.00
1535.388, 11242.00
1536.422, 11148.00
1537.455, 11191.00
1538.488, 11157.00
1539.522, 11053.00
1540.554, 11212.00
1541.587, 11168.00
1542.620, 11224.00
1543.652, 11274.00
1544.685, 11261.00
1545.717, 11174.00
1546.749, 11224.00
1547.781, 11304.00
1548.812, 11164.00
1549.844, 11166.00
1550.875, 11280.00
1551.906, 11313.00
1552.938, 11266.00
1553.968, 11272.00
1554.999, 11268.00
1556.030, 11316.00
1557.060, 11311.00
1558.091, 11253.00
1559.121, 11217.00
1560.151, 11205.38
1561.181, 11274.00
1562.211, 11193.00
1563.240, 11288.00
1564.270, 11330.00
1565.299, 11163.00
1566.328, 11251.00
1567.357, 11256.00
1568.386, 11403.00
1569.415, 11282.00
1570.443, 11326.00
1571.472, 11319.00
1572.500, 11273.00
1573.528, 11379.00
1574.556, 11358.00
1575.584, 11368.00
1576.611, 11344.00
1577.639, 11347.00
1578.666, 11508.00
##END=



