##NAMES=Quartz
##RRUFFID=R060604
##IDEAL CHEMISTRY=SiO_2_
##LOCALITY=Piedras Parada, Veracruz, Mexico
##OWNER=RRUFF
##SOURCE=Michael Scott
##DESCRIPTION=Purple hexagonal prisms, variety amethyst
##STATUS=The identification of this mineral has been confirmed by X-ray diffraction and chemical analysis
##URL=rruff.info/R060604
##MEASURED CHEMISTRY=Si_1.00_O_2_
62.16800, 2174.000
63.41100, 2486.000
64.65300, 2856.000
65.89600, 3158.000
67.13800, 3566.000
68.38000, 4055.000
69.62200, 4647.000
70.86300, 5019.000
72.10500, 5697.000
73.34600, 6162.000
74.58700, 6720.000
75.82800, 7325.000
77.06900, 7791.268
78.30900, 8352.268
79.55000, 8800.000
80.79000, 9398.000
82.03000, 9916.000
83.27000, 10452.00
84.51000, 10978.00
85.74900, 11453.00
86.98900, 11695.00
88.22800, 11956.00
89.46700, 12444.00
90.70600, 12608.00
91.94400, 13172.00
93.18300, 13340.00
94.42100, 13431.00
95.65900, 13783.00
96.89700, 13872.00
98.13500, 14092.00
99.37300, 14177.00
100.6100, 14410.00
101.8480, 14683.00
103.0850, 14695.00
104.3220, 14868.00
105.5590, 14936.00
106.7950, 15134.00
108.0320, 15412.00
109.2680, 15640.00
110.5040, 15754.00
111.7400, 15692.00
112.9760, 15917.00
114.2120, 15988.00
115.4470, 16422.00
116.6820, 16768.00
117.9170, 16962.00
119.1520, 16997.00
120.3870, 17417.00
121.6220, 18030.00
122.8560, 18442.00
124.0900, 19600.00
125.3240, 21316.00
126.5580, 22912.00
127.7920, 24167.00
129.0260, 25162.00
130.2590, 25325.00
131.4920, 24397.00
132.7250, 23163.00
133.9580, 21847.00
135.1910, 20279.00
136.4230, 19499.00
137.6560, 19036.00
138.8880, 18998.00
140.1200, 18979.00
141.3520, 19079.00
142.5830, 19357.00
143.8150, 19238.00
145.0460, 19363.00
146.2770, 19257.00
147.5080, 19108.00
148.7390, 19009.00
149.9700, 18852.00
151.2000, 18641.00
152.4310, 18650.00
153.6610, 18591.00
154.8910, 18511.00
156.1210, 18585.00
157.3500, 18635.00
158.5800, 18656.00
159.8090, 18650.00
161.0380, 18515.00
162.2670, 18642.00
163.4960, 18859.00
164.7240, 18738.00
165.9530, 18892.00
167.1810, 18980.00
168.4090, 18805.00
169.6370, 19140.00
170.8650, 19186.00
172.0920, 19251.00
173.3200, 19306.00
174.5470, 19351.00
175.7740, 19329.00
177.0010, 19591.00
178.2280, 19680.00
179.4540, 19765.00
180.6810, 20105.00
181.9070, 20158.00
183.1330, 20290.00
184.3590, 20367.00
185.5850, 20668.00
186.8100, 20975.00
188.0350, 21150.00
189.2610, 21631.00
190.4860, 21684.00
191.7110, 22467.00
192.9350, 22653.00
194.1600, 23338.00
195.3840, 24068.00
196.6080, 24404.00
197.8320, 25268.00
199.0560, 25468.00
200.2800, 26435.00
201.5030, 26908.00
202.7270, 27723.00
203.9500, 28243.00
205.1730, 28748.00
206.3950, 28805.00
207.6180, 28827.00
208.8410, 28791.00
210.0630, 28736.00
211.2850, 28364.00
212.5070, 28047.00
213.7290, 27488.00
214.9500, 26973.00
216.1720, 26001.00
217.3930, 25760.00
218.6140, 25156.00
219.8350, 24467.00
221.0560, 24217.00
222.2770, 23585.00
223.4970, 23480.00
224.7170, 22941.00
225.9370, 22764.00
227.1570, 22409.00
228.3770, 22272.00
229.5970, 22109.00
230.8160, 21940.00
232.0350, 21919.00
233.2540, 21802.00
234.4730, 21521.00
235.6920, 21558.00
236.9110, 21438.00
238.1290, 21539.00
239.3470, 21271.00
240.5650, 21307.00
241.7830, 21287.00
243.0010, 21187.00
244.2180, 21157.00
245.4360, 21158.00
246.6530, 21201.00
247.8700, 21004.00
249.0870, 21059.00
250.3040, 21207.00
251.5200, 21014.00
252.7370, 21258.00
253.9530, 21035.00
255.1690, 21039.00
256.3850, 21235.00
257.6000, 21111.00
258.8160, 21142.00
260.0310, 21212.00
261.2460, 21161.00
262.4610, 21326.00
263.6760, 21497.00
264.8910, 21526.00
266.1050, 21601.00
267.3200, 21347.00
268.5340, 21483.00
269.7480, 21168.00
270.9620, 21217.00
272.1750, 21163.00
273.3890, 21025.00
274.6020, 21111.00
275.8150, 21132.00
277.0280, 21292.00
278.2410, 21069.00
279.4540, 21226.00
280.6660, 21299.00
281.8790, 21109.00
283.0910, 21383.00
284.3030, 21219.00
285.5140, 21315.00
286.7260, 21338.00
287.9380, 21472.00
289.1490, 21538.00
290.3600, 21446.00
291.5710, 21496.70
292.7820, 21393.00
293.9920, 21473.00
295.2030, 21441.00
296.4130, 21517.00
297.6230, 21471.00
298.8330, 21437.00
300.0430, 21337.00
301.2520, 21567.00
302.4620, 21635.00
303.6710, 21631.00
304.8800, 21590.00
306.0890, 21543.00
307.2980, 21635.00
308.5070, 21561.00
309.7150, 21700.00
310.9230, 21706.00
312.1310, 21638.00
313.3390, 21887.00
314.5470, 21870.00
315.7550, 21817.00
316.9620, 21928.00
318.1690, 21894.00
319.3760, 22011.00
320.5830, 22129.00
321.7900, 21873.00
322.9960, 22226.00
324.2030, 22023.00
325.4090, 22064.00
326.6150, 22049.00
327.8210, 22246.00
329.0270, 22243.00
330.2320, 22533.00
331.4380, 22318.00
332.6430, 22161.00
333.8480, 22131.00
335.0530, 22571.00
336.2580, 22473.00
337.4620, 22583.00
338.6670, 22458.00
339.8710, 22686.00
341.0750, 22608.00
342.2790, 22679.00
343.4820, 22628.00
344.6860, 22650.00
345.8890, 22750.00
347.0920, 22756.00
348.2960, 22980.00
349.4980, 23065.00
350.7010, 23215.00
351.9040, 23702.00
353.1060, 24351.00
354.3080, 24988.00
355.5100, 25393.00
356.7120, 25111.00
357.9140, 24817.00
359.1150, 24333.00
360.3170, 23898.00
361.5180, 23529.00
362.7190, 23244.00
363.9200, 23352.00
365.1200, 23221.00
366.3210, 23177.00
367.5210, 23252.00
368.7210, 23310.00
369.9210, 23182.00
371.1210, 23285.00
372.3210, 23208.00
373.5200, 23323.00
374.7200, 23330.00
375.9190, 23353.00
377.1180, 23486.00
378.3170, 23532.00
379.5150, 23508.00
380.7140, 23700.00
381.9120, 23590.00
383.1110, 23594.00
384.3090, 23725.00
385.5060, 23855.00
386.7040, 23691.00
387.9020, 23787.00
389.0990, 24037.00
390.2960, 24272.00
391.4930, 24746.00
392.6900, 25265.00
393.8860, 25686.00
395.0830, 25541.00
396.2790, 25866.00
397.4750, 25736.00
398.6710, 25403.00
399.8670, 25072.00
401.0630, 24488.00
402.2580, 24528.00
403.4540, 24408.00
404.6490, 24296.00
405.8440, 24317.00
407.0390, 24178.00
408.2330, 24488.00
409.4280, 24439.00
410.6220, 24519.00
411.8160, 24359.00
413.0100, 24413.00
414.2040, 24702.00
415.3980, 24496.00
416.5910, 24677.00
417.7850, 24668.00
418.9780, 24550.00
420.1710, 24651.00
421.3640, 24691.00
422.5560, 24633.00
423.7490, 24764.00
424.9410, 24838.00
426.1330, 24937.00
427.3250, 25046.46
428.5170, 25147.00
429.7090, 25220.00
430.9000, 25086.00
432.0910, 25078.00
433.2820, 25184.00
434.4730, 25137.70
435.6640, 25232.07
436.8550, 25251.00
438.0450, 25406.00
439.2360, 25574.00
440.4260, 25722.00
441.6160, 25590.00
442.8060, 25824.00
443.9950, 26121.00
445.1850, 26198.00
446.3740, 26768.00
447.5630, 26826.00
448.7520, 27229.00
449.9410, 27641.00
451.1300, 28227.00
452.3180, 28556.00
453.5060, 29457.00
454.6950, 30387.00
455.8830, 31284.00
457.0700, 33227.00
458.2580, 35562.00
459.4450, 39086.00
460.6330, 43693.00
461.8200, 49804.00
463.0070, 56011.00
464.1940, 61368.00
465.3800, 63845.00
466.5670, 63925.00
467.7530, 60883.00
468.9390, 55854.00
470.1250, 50212.00
471.3110, 44995.00
472.4970, 40748.00
473.6820, 37490.00
474.8680, 35049.00
476.0530, 33267.00
477.2380, 32063.00
478.4230, 31195.00
479.6070, 30546.00
480.7920, 30029.00
481.9760, 29610.00
483.1600, 29337.00
484.3440, 28911.00
485.5280, 28805.00
486.7120, 28618.00
487.8950, 28463.00
489.0780, 28394.00
490.2620, 28055.00
491.4450, 28012.00
492.6270, 27960.00
493.8100, 28028.00
494.9920, 27850.00
496.1750, 27687.00
497.3570, 27802.00
498.5390, 27739.00
499.7210, 27653.00
500.9020, 27795.00
502.0840, 27850.00
503.2650, 27656.00
504.4460, 27521.00
505.6270, 27695.00
506.8080, 27510.00
507.9890, 27588.00
509.1690, 27640.00
510.3500, 27635.00
511.5300, 27675.86
512.7100, 27698.99
513.8900, 27675.00
515.0690, 27718.00
516.2490, 27677.00
517.4280, 27616.00
518.6070, 27620.58
519.7860, 27654.00
520.9650, 27621.00
522.1440, 27734.00
523.3220, 27854.00
524.5010, 27798.00
525.6790, 27873.00
526.8570, 28021.00
528.0350, 27678.00
529.2130, 27915.00
530.3900, 27618.00
531.5670, 27934.00
532.7450, 27957.00
533.9220, 27938.00
535.0980, 27946.00
536.2750, 27941.00
537.4520, 28061.00
538.6280, 27891.00
539.8040, 28031.00
540.9800, 27975.00
542.1560, 28072.00
543.3320, 28095.00
544.5070, 28146.00
545.6830, 28089.00
546.8580, 28113.00
548.0330, 28278.00
549.2080, 28089.00
550.3830, 28052.00
551.5570, 28310.00
552.7310, 28275.00
553.9060, 28243.00
555.0800, 28315.00
556.2540, 28312.00
557.4270, 28155.00
558.6010, 28432.00
559.7740, 28409.00
560.9470, 28524.00
562.1210, 28288.00
563.2930, 28330.00
564.4660, 28408.00
565.6390, 28545.00
566.8110, 28654.00
567.9830, 28731.00
569.1550, 28627.00
570.3270, 28749.00
571.4990, 28675.00
572.6710, 28670.00
573.8420, 28682.00
575.0130, 28699.65
576.1840, 28798.00
577.3550, 28803.00
578.5260, 28964.00
579.6970, 29033.00
580.8670, 29057.00
582.0370, 28749.00
583.2070, 28875.00
584.3770, 29067.00
585.5470, 28935.00
586.7170, 29105.00
587.8860, 29223.00
589.0550, 29085.00
590.2240, 28952.00
591.3930, 29346.00
592.5620, 29311.00
593.7310, 29193.00
594.8990, 29287.00
596.0670, 29387.00
597.2350, 29361.00
598.4030, 29474.04
599.5710, 29609.00
600.7390, 29559.00
601.9060, 29531.00
603.0740, 29447.00
604.2410, 29518.00
605.4080, 29402.00
606.5740, 29470.00
607.7410, 29505.88
608.9080, 29403.00
610.0740, 29610.00
611.2400, 29584.00
612.4060, 29591.00
613.5720, 29808.00
614.7370, 29737.00
615.9030, 29742.00
617.0680, 29957.00
618.2330, 29916.00
619.3980, 29775.00
620.5630, 30058.00
621.7280, 29888.00
622.8920, 30109.00
624.0570, 30129.00
625.2210, 30093.00
626.3850, 30309.00
627.5490, 30061.00
628.7120, 30261.00
629.8760, 30569.00
631.0390, 30167.00
632.2020, 30303.00
633.3650, 30515.00
634.5280, 30335.00
635.6910, 30206.00
636.8530, 30448.00
638.0160, 30515.00
639.1780, 30538.00
640.3400, 30546.00
641.5020, 30600.01
642.6640, 30569.00
643.8250, 30673.00
644.9870, 30637.00
646.1480, 30662.00
647.3090, 30799.00
648.4700, 30876.00
649.6300, 30770.00
650.7910, 30881.00
651.9510, 30834.00
653.1120, 30836.00
654.2720, 30857.00
655.4320, 30847.63
656.5910, 30889.88
657.7510, 30885.00
658.9100, 30970.00
660.0690, 31021.00
661.2290, 31062.00
662.3880, 31096.00
663.5460, 31181.00
664.7050, 31132.00
665.8630, 31116.00
667.0220, 31075.00
668.1800, 31136.00
669.3380, 31321.00
670.4950, 31300.00
671.6530, 31200.00
672.8100, 31219.00
673.9680, 31500.00
675.1250, 31264.00
676.2820, 31424.00
677.4390, 31618.00
678.5950, 31545.00
679.7520, 31687.00
680.9080, 31819.00
682.0640, 31623.00
683.2200, 31642.00
684.3760, 31853.00
685.5320, 31669.00
686.6870, 31918.00
687.8420, 31823.00
688.9980, 31879.00
690.1530, 32110.00
691.3070, 32316.00
692.4620, 32368.00
693.6170, 32363.00
694.7710, 32637.00
695.9250, 32517.00
697.0790, 32583.00
698.2330, 32626.00
699.3870, 32760.00
700.5400, 32534.00
701.6940, 32525.00
702.8470, 32179.00
704.0000, 32574.00
705.1530, 32589.00
706.3050, 32418.00
707.4580, 32455.00
708.6100, 32563.00
709.7630, 32362.00
710.9150, 32749.00
712.0660, 32364.00
713.2180, 32685.00
714.3700, 32509.00
715.5210, 32744.00
716.6720, 32546.00
717.8240, 32944.00
718.9740, 32575.00
720.1250, 32420.00
721.2760, 32828.00
722.4260, 32809.00
723.5770, 32931.00
724.7270, 32994.00
725.8770, 32947.00
727.0260, 32848.00
728.1760, 33066.00
729.3250, 32987.00
730.4750, 32888.00
731.6240, 33111.00
732.7730, 32969.00
733.9220, 33324.00
735.0700, 33141.00
736.2190, 33114.00
737.3670, 33128.00
738.5150, 33127.00
739.6630, 33346.00
740.8110, 33344.00
741.9590, 33476.00
743.1060, 33215.00
744.2540, 33281.00
745.4010, 33431.00
746.5480, 33563.00
747.6950, 33571.00
748.8410, 33524.00
749.9880, 33556.00
751.1340, 33691.00
752.2800, 33669.00
753.4260, 33712.00
754.5720, 33614.00
755.7180, 33753.00
756.8640, 33720.00
758.0090, 33684.00
759.1540, 33783.00
760.2990, 33869.00
761.4440, 33556.00
762.5890, 33758.00
763.7340, 33650.00
764.8780, 33946.00
766.0220, 33899.00
767.1660, 33964.00
768.3100, 33814.00
769.4540, 33966.00
770.5980, 34180.00
771.7410, 34093.00
772.8840, 34005.00
774.0280, 34305.00
775.1700, 34334.00
776.3130, 34499.00
777.4560, 34433.00
778.5980, 34425.00
779.7410, 34529.00
780.8830, 34608.00
782.0250, 34534.00
783.1670, 34597.00
784.3080, 34510.00
785.4500, 34806.00
786.5910, 34798.00
787.7320, 34792.00
788.8730, 34796.00
790.0140, 34724.00
791.1550, 34997.00
792.2950, 34807.00
793.4360, 35136.00
794.5760, 35145.00
795.7160, 35385.00
796.8560, 35190.00
797.9960, 35332.00
799.1350, 35238.00
800.2750, 35339.00
801.4140, 35287.00
802.5530, 35338.00
803.6920, 35442.00
804.8310, 35283.00
805.9690, 35229.00
807.1080, 35322.00
808.2460, 35195.00
809.3840, 35206.00
810.5220, 35386.00
811.6600, 35641.00
812.7970, 35421.00
813.9350, 35483.00
815.0720, 35678.00
816.2090, 35461.00
817.3460, 35688.00
818.4830, 35724.00
819.6200, 35533.00
820.7560, 35735.00
821.8930, 35902.00
823.0290, 35857.00
824.1650, 35880.00
825.3010, 36117.00
826.4360, 35939.00
827.5720, 36149.00
828.7070, 36132.00
829.8420, 35891.00
830.9770, 36166.00
832.1120, 36145.00
833.2470, 36246.00
834.3820, 36084.00
835.5160, 36085.00
836.6500, 36136.57
837.7840, 36193.00
838.9180, 36274.00
840.0520, 36320.00
841.1860, 36463.00
842.3190, 36492.00
843.4520, 36459.00
844.5850, 36691.00
845.7180, 36387.00
846.8510, 36463.00
847.9840, 36578.00
849.1160, 36505.00
850.2490, 36478.00
851.3810, 36656.00
852.5130, 36538.00
853.6450, 36812.00
854.7760, 36737.00
855.9080, 36856.00
857.0390, 37046.00
858.1700, 37076.00
859.3010, 37117.00
860.4320, 37349.00
861.5630, 36987.00
862.6930, 37222.00
863.8240, 37075.00
864.9540, 37166.00
866.0840, 37278.00
867.2140, 37483.00
868.3440, 37307.00
869.4730, 37267.00
870.6030, 37251.00
871.7320, 37257.00
872.8610, 37361.76
873.9900, 37485.00
875.1190, 37522.00
876.2470, 37659.00
877.3760, 37499.00
878.5040, 37594.00
879.6320, 37681.00
880.7600, 37384.00
881.8880, 37767.00
883.0150, 37724.00
884.1430, 37791.00
885.2700, 37743.00
886.3970, 37674.00
887.5240, 37845.00
888.6510, 37914.00
889.7780, 37990.00
890.9040, 37800.00
892.0310, 37915.00
893.1570, 37873.00
894.2830, 38250.00
895.4090, 37933.00
896.5350, 38339.00
897.6600, 38289.00
898.7860, 38051.00
899.9110, 38049.00
901.0360, 38067.00
902.1610, 38460.00
903.2860, 38201.00
904.4100, 38439.00
905.5350, 38210.00
906.6590, 38429.00
907.7830, 38269.00
908.9070, 38465.00
910.0310, 38681.00
911.1540, 38432.00
912.2780, 38459.00
913.4010, 38716.00
914.5240, 38450.00
915.6470, 38702.00
916.7700, 38777.00
917.8930, 38912.00
919.0150, 38878.00
920.1380, 39027.00
921.2600, 38853.00
922.3820, 38884.00
923.5040, 38905.00
924.6260, 39106.00
925.7470, 39165.00
926.8690, 39087.00
927.9900, 39044.00
929.1110, 39187.00
930.2320, 39226.00
931.3530, 39283.00
932.4730, 39177.00
933.5940, 39138.00
934.7140, 39432.00
935.8340, 39357.00
936.9540, 39561.00
938.0740, 39387.00
939.1930, 39300.00
940.3130, 39380.00
941.4320, 39333.00
942.5510, 39385.23
943.6700, 39532.00
944.7890, 39538.00
945.9080, 39587.00
947.0260, 39744.00
948.1450, 39733.00
949.2630, 39826.00
950.3810, 39929.00
951.4990, 39876.00
952.6170, 39985.00
953.7340, 39911.00
954.8520, 40048.00
955.9690, 39817.00
957.0860, 40076.00
958.2030, 40179.00
959.3200, 40042.00
960.4360, 40080.00
961.5530, 39879.00
962.6690, 40102.00
963.7850, 40321.00
964.9010, 40153.00
966.0170, 40041.00
967.1330, 40274.00
968.2480, 40255.00
969.3630, 40297.00
970.4790, 40377.00
971.5940, 40520.00
972.7080, 40639.00
973.8230, 40658.52
974.9380, 40496.00
976.0520, 40718.00
977.1660, 40598.00
978.2800, 40675.00
979.3940, 40490.00
980.5080, 40701.00
981.6220, 40789.00
982.7350, 40723.00
983.8480, 41013.00
984.9610, 40873.00
986.0740, 40808.00
987.1870, 41156.00
988.3000, 41119.00
989.4120, 41108.00
990.5250, 40819.00
991.6370, 40883.00
992.7490, 41160.00
993.8610, 41387.00
994.9720, 41179.00
996.0840, 41241.00
997.1950, 41306.00
998.3060, 41124.00
999.4170, 41462.00
1000.528, 41475.00
1001.639, 41466.00
1002.750, 41435.00
1003.860, 41493.00
1004.970, 41526.22
1006.080, 41529.00
1007.190, 41605.00
1008.300, 41616.42
1009.410, 41641.00
1010.519, 41655.00
1011.628, 41689.00
1012.738, 41665.00
1013.846, 41725.00
1014.955, 41755.51
1016.064, 41815.00
1017.172, 41873.00
1018.281, 41949.00
1019.389, 42051.00
1020.497, 42321.00
1021.605, 42092.00
1022.713, 41942.00
1023.820, 42154.00
1024.928, 42492.00
1026.035, 42298.00
1027.142, 42265.00
1028.249, 42379.00
1029.356, 42445.00
1030.462, 42530.00
1031.569, 42587.01
1032.675, 42619.60
1033.781, 42659.00
1034.887, 42656.00
1035.993, 42641.00
1037.098, 42640.00
1038.204, 42873.00
1039.309, 42824.00
1040.415, 43071.00
1041.520, 43162.00
1042.624, 43167.18
1043.729, 43358.00
1044.834, 43243.00
1045.938, 43309.00
1047.042, 43447.00
1048.146, 43262.00
1049.250, 43646.00
1050.354, 43309.00
1051.458, 43195.00
1052.561, 43454.00
1053.664, 43512.00
1054.767, 43327.00
1055.870, 43391.00
1056.973, 43587.00
1058.076, 43295.00
1059.178, 43376.00
1060.281, 43596.00
1061.383, 43547.00
1062.485, 43605.00
1063.587, 43760.00
1064.688, 43707.00
1065.790, 43984.00
1066.891, 44016.00
1067.993, 43716.00
1069.094, 44005.00
1070.195, 43766.00
1071.295, 44213.00
1072.396, 43992.00
1073.496, 44150.00
1074.597, 43913.00
1075.697, 44044.00
1076.797, 44101.00
1077.897, 44061.00
1078.996, 44428.00
1080.096, 44142.00
1081.195, 44542.00
1082.294, 44399.00
1083.393, 44378.00
1084.492, 44661.00
1085.591, 44677.00
1086.689, 45160.00
1087.788, 44977.00
1088.886, 44841.00
1089.984, 44452.00
1091.082, 44406.00
1092.180, 44669.00
1093.277, 44849.00
1094.375, 44640.00
1095.472, 44476.00
1096.569, 44781.00
1097.666, 44804.00
1098.763, 44713.00
1099.860, 44682.00
1100.956, 44794.00
1102.053, 44837.00
1103.149, 44638.00
1104.245, 44933.00
1105.341, 44846.00
1106.436, 44894.00
1107.532, 45161.00
1108.627, 45200.00
1109.723, 45004.00
1110.818, 45315.00
1111.913, 45262.00
1113.007, 45206.00
1114.102, 45292.00
1115.197, 45309.00
1116.291, 45354.00
1117.385, 45191.00
1118.479, 45422.00
1119.573, 45444.00
1120.666, 45529.32
1121.760, 45843.00
1122.853, 45812.00
1123.947, 45662.00
1125.040, 45868.00
1126.132, 45735.00
1127.225, 45765.00
1128.318, 45918.00
1129.410, 45783.00
1130.502, 46005.00
1131.595, 45811.00
1132.687, 45947.00
1133.778, 46130.00
1134.870, 46291.00
1135.961, 46202.00
1137.053, 46126.00
1138.144, 46135.00
1139.235, 46398.00
1140.326, 46327.00
1141.416, 46213.00
1142.507, 46526.00
1143.597, 46558.00
1144.688, 46595.00
1145.778, 46321.00
1146.868, 46727.00
1147.957, 46333.00
1149.047, 46561.00
1150.136, 46681.00
1151.226, 46962.00
1152.315, 46742.00
1153.404, 47009.00
1154.493, 47277.00
1155.581, 47187.00
1156.670, 47523.00
1157.758, 47766.00
1158.846, 48029.00
1159.934, 48503.00
1161.022, 48502.00
1162.110, 48176.00
1163.198, 48585.00
1164.285, 48274.00
1165.372, 48006.00
1166.459, 47856.00
1167.546, 47666.00
1168.633, 47466.00
1169.720, 47385.00
1170.806, 47469.00
1171.892, 47341.00
1172.979, 47647.00
1174.065, 47330.00
1175.150, 47573.00
1176.236, 47261.00
1177.322, 47496.00
1178.407, 47326.00
1179.492, 47502.00
1180.577, 47440.00
1181.662, 47717.00
1182.747, 47765.00
1183.832, 47771.00
1184.916, 47550.00
1186.000, 47801.00
1187.084, 47350.00
1188.168, 47765.00
1189.252, 47831.00
1190.336, 47891.00
1191.419, 48164.00
1192.503, 48154.00
1193.586, 47759.00
1194.669, 47872.00
1195.752, 47976.00
1196.835, 48284.00
1197.917, 47999.00
1199.000, 48236.00
1200.082, 47960.00
1201.164, 48623.00
1202.246, 48201.00
1203.328, 48413.00
1204.409, 48142.00
1205.491, 48117.00
1206.572, 48645.00
1207.653, 48392.00
1208.734, 48603.00
1209.815, 48819.00
1210.896, 48628.00
1211.976, 48713.00
1213.057, 48686.00
1214.137, 48737.00
1215.217, 48580.00
1216.297, 48884.00
1217.377, 48975.00
1218.456, 49017.00
1219.536, 48898.00
1220.615, 49127.00
1221.694, 49014.00
1222.773, 48920.00
1223.852, 49074.00
1224.931, 48952.20
1226.009, 48929.00
1227.088, 48926.00
1228.166, 49192.00
1229.244, 49264.00
1230.322, 49416.00
1231.400, 49473.00
1232.477, 49519.00
1233.555, 49614.00
1234.632, 49721.00
1235.709, 49869.00
1236.786, 49442.00
1237.863, 49719.00
1238.939, 49402.00
1240.016, 49732.00
1241.092, 49645.00
1242.168, 49747.00
1243.245, 49666.00
1244.320, 49672.34
1245.396, 49612.00
1246.472, 49717.00
1247.547, 49875.00
1248.622, 50052.00
1249.697, 50203.00
1250.772, 49960.00
1251.847, 50173.00
1252.922, 50157.00
1253.996, 50322.00
1255.071, 49914.00
1256.145, 50437.00
1257.219, 49938.00
1258.293, 50282.00
1259.366, 50572.00
1260.440, 50329.00
1261.513, 50499.00
1262.587, 50367.00
1263.660, 50546.00
1264.733, 50631.00
1265.805, 50359.00
1266.878, 50580.00
1267.951, 50509.00
1269.023, 50965.00
1270.095, 50787.00
1271.167, 50710.00
1272.239, 50604.00
1273.311, 50749.00
1274.382, 50755.00
1275.454, 50740.00
1276.525, 50505.00
1277.596, 50988.00
1278.667, 50664.00
1279.738, 51154.00
1280.808, 50810.00
1281.879, 50811.00
1282.949, 51032.00
1284.019, 50702.00
1285.089, 51137.00
1286.159, 51305.00
1287.229, 50961.00
1288.298, 51027.00
1289.368, 51186.00
1290.437, 50978.00
1291.506, 51084.00
1292.575, 51028.00
1293.644, 51225.00
1294.712, 51100.00
1295.781, 51595.00
1296.849, 51498.00
1297.917, 51472.00
1298.985, 51560.00
1300.053, 51386.00
1301.121, 51693.00
1302.188, 51369.00
1303.255, 51505.00
1304.323, 51868.00
1305.390, 51873.00
1306.457, 51805.00
1307.523, 51837.00
1308.590, 51959.00
1309.656, 51947.00
1310.723, 52097.00
1311.789, 52217.00
1312.855, 52074.00
1313.921, 52146.00
1314.986, 52281.00
1316.052, 52086.00
1317.117, 52388.00
1318.182, 52224.00
1319.248, 52537.00
1320.312, 52159.00
1321.377, 52454.00
1322.442, 52515.00
1323.506, 52090.00
1324.571, 52563.00
1325.635, 52660.00
1326.699, 52473.00
1327.762, 52487.00
1328.826, 52498.00
1329.890, 52260.00
1330.953, 52457.00
1332.016, 52553.00
1333.079, 52586.00
1334.142, 52502.00
1335.205, 52589.00
1336.268, 52696.00
1337.330, 53408.00
1338.392, 53205.00
1339.454, 53055.00
1340.516, 53377.00
1341.578, 53059.00
1342.640, 53097.00
1343.701, 53549.00
1344.763, 53161.00
1345.824, 53409.00
1346.885, 53336.00
1347.946, 53327.00
1349.007, 53353.00
1350.067, 53566.00
1351.128, 53311.00
1352.188, 53369.00
1353.248, 53640.00
1354.308, 53703.00
1355.368, 53626.00
1356.428, 53712.00
1357.487, 53511.00
1358.547, 54098.00
1359.606, 54023.00
1360.665, 54019.00
1361.724, 53874.00
1362.783, 54095.00
1363.841, 54244.00
1364.900, 53851.00
1365.958, 53785.00
1367.016, 54086.00
1368.074, 53966.00
1369.132, 54211.00
1370.190, 54037.00
1371.247, 54517.00
1372.304, 54204.00
1373.362, 54339.00
1374.419, 54373.00
1375.476, 54282.00
1376.532, 54520.00
1377.589, 54500.00
1378.645, 54666.00
1379.702, 54777.16
1380.758, 54769.45
1381.814, 54921.00
1382.870, 54816.00
1383.925, 54704.00
1384.981, 54765.00
1386.036, 54878.00
1387.092, 54858.00
1388.147, 54900.00
1389.202, 54521.00
1390.256, 54871.00
1391.311, 55075.00
1392.365, 54934.00
1393.420, 55385.00
1394.474, 54638.00
1395.528, 55150.00
1396.582, 54838.00
1397.636, 55042.00
1398.689, 55139.00
1399.742, 55072.00
1400.796, 55558.00
1401.849, 55219.00
1402.902, 55193.00
1403.955, 55424.00
1405.007, 55097.00
1406.060, 55765.00
1407.112, 55462.00
1408.164, 55429.00
1409.216, 55634.00
1410.268, 55266.00
1411.320, 55651.00
1412.371, 55639.00
1413.423, 55471.00
1414.474, 55764.00
1415.525, 55793.00
1416.576, 55901.00
1417.627, 56002.50
1418.678, 56043.00
1419.728, 56082.00
1420.778, 56070.53
1421.829, 56065.75
1422.879, 56007.00
1423.928, 56029.00
1424.978, 56033.00
1426.028, 56065.00
1427.077, 56289.00
1428.126, 55990.00
1429.176, 56389.00
1430.225, 56707.00
1431.273, 56389.00
1432.322, 56753.00
1433.371, 56157.00
1434.419, 56682.00
1435.467, 56377.00
1436.515, 56618.00
1437.563, 56438.00
1438.611, 56734.00
1439.658, 56883.00
1440.706, 56856.00
1441.753, 56860.00
1442.800, 57134.00
1443.847, 56821.00
1444.894, 57099.00
1445.941, 56879.00
1446.987, 57133.00
1448.034, 57209.00
1449.080, 57251.00
1450.126, 57197.00
1451.172, 57521.00
1452.218, 57322.00
1453.263, 57420.00
1454.309, 57150.00
1455.354, 57354.00
1456.399, 57340.00
1457.444, 57237.00
1458.489, 57157.00
1459.534, 57466.00
1460.579, 57406.00
1461.623, 57541.00
1462.667, 57428.00
1463.711, 57596.00
1464.755, 57712.00
1465.799, 57758.00
1466.843, 57491.00
1467.886, 57413.00
1468.930, 57900.00
1469.973, 57694.00
1471.016, 57955.00
1472.059, 57975.00
1473.101, 57702.00
1474.144, 58180.00
1475.186, 57884.00
1476.229, 58012.00
1477.271, 57843.00
1478.313, 58067.00
1479.355, 57880.00
1480.396, 58002.00
1481.438, 58178.00
1482.479, 58264.00
1483.520, 58329.00
1484.561, 58212.00
1485.602, 58526.00
1486.643, 58399.00
1487.684, 58756.00
1488.724, 58321.00
1489.765, 58415.00
1490.805, 58311.00
1491.845, 58243.00
1492.885, 58439.00
1493.924, 58321.00
1494.964, 58460.00
1496.003, 58480.00
1497.042, 58660.00
1498.082, 58724.00
1499.120, 58708.00
1500.159, 58705.00
1501.198, 58851.00
1502.236, 58565.00
1503.275, 58770.00
1504.313, 58971.00
1505.351, 58815.00
1506.389, 59169.00
1507.427, 59134.00
1508.464, 59146.47
1509.502, 58932.00
1510.539, 59155.00
1511.576, 59179.00
1512.613, 59224.00
1513.650, 59088.00
1514.687, 59166.54
1515.723, 59419.00
1516.759, 59142.00
1517.796, 59302.00
1518.832, 59151.00
1519.868, 59332.00
1520.903, 59818.00
1521.939, 59616.00
1522.975, 59909.00
1524.010, 59720.00
1525.045, 59398.00
1526.080, 59983.00
1527.115, 59879.00
1528.150, 59808.00
1529.184, 59898.00
1530.219, 59881.00
1531.253, 59865.00
1532.287, 59984.00
1533.321, 59911.00
1534.355, 60018.00
1535.388, 60220.00
1536.422, 60393.00
1537.455, 60084.00
1538.488, 60348.00
1539.522, 60341.00
1540.554, 60154.00
1541.587, 60308.00
1542.620, 60312.00
1543.652, 60487.00
1544.685, 60572.00
1545.717, 60198.00
1546.749, 60318.00
1547.781, 60350.00
1548.812, 60403.00
1549.844, 60791.00
1550.875, 60521.00
1551.906, 60587.00
1552.938, 60827.00
1553.968, 60579.00
1554.999, 60856.00
1556.030, 60562.00
1557.060, 60969.00
1558.091, 60706.00
1559.121, 60821.00
1560.151, 60975.00
1561.181, 60800.00
1562.211, 61100.00
1563.240, 61101.00
1564.270, 60959.00
1565.299, 61408.00
1566.328, 61482.00
1567.357, 61166.00
1568.386, 61510.00
1569.415, 61192.00
1570.443, 61152.00
1571.472, 60873.00
1572.500, 61209.00
1573.528, 61396.00
1574.556, 61125.00
1575.584, 61663.00
1576.611, 61485.00
1577.639, 61379.00
1578.666, 62060.00
##END=



