##NAMES=Quartz
##RRUFFID=R040031
##IDEAL CHEMISTRY=SiO_2_
##LOCALITY=Spruce Claim, King County, Washington, USA
##OWNER=RRUFF
##SOURCE=Bob Downs
##DESCRIPTION=Colorless hexagonal prism
##STATUS=The identification of this mineral has been confirmed by X-ray diffraction and chemical analysis
##URL=rruff.info/R040031
##MEASURED CHEMISTRY=Si_1.00_O_2_
##PIN_ID=L00425
##ORIENTATION=Laser parallel to b [0 1 0]. Fiducial mark perpendicular to laser is parallel to -c [0 0 -1]
94.86300, 7017.000
96.09600, 7278.000
97.32800, 7261.000
98.56000, 7378.000
99.79200, 7356.000
101.0240, 7372.000
102.2560, 7684.000
103.4880, 7978.000
104.7190, 8088.000
105.9500, 8932.000
107.1810, 10933.00
108.4120, 14538.00
109.6430, 16265.00
110.8740, 14307.00
112.1050, 11285.00
113.3350, 10275.00
114.5650, 9565.000
115.7950, 9663.000
117.0250, 10115.00
118.2550, 10794.00
119.4850, 11088.00
120.7140, 11478.00
121.9430, 11153.00
123.1730, 9570.000
124.4020, 8839.000
125.6310, 8809.000
126.8590, 8771.000
128.0880, 8835.000
129.3160, 9159.000
130.5450, 9368.000
131.7730, 9200.000
133.0010, 8988.000
134.2290, 8951.000
135.4560, 8840.000
136.6840, 8873.000
137.9110, 8704.000
139.1380, 8808.000
140.3650, 9006.000
141.5920, 9386.000
142.8190, 9377.000
144.0460, 9666.000
145.2720, 9927.000
146.4990, 10105.00
147.7250, 10072.00
148.9510, 10159.00
150.1770, 10184.00
151.4020, 10243.00
152.6280, 10106.00
153.8530, 10047.57
155.0790, 9671.000
156.3040, 9822.000
157.5290, 9698.000
158.7530, 9679.000
159.9780, 9762.000
161.2030, 9634.000
162.4270, 9713.000
163.6510, 9871.000
164.8750, 9979.000
166.0990, 10025.00
167.3230, 10263.00
168.5470, 10394.00
169.7700, 10604.00
170.9930, 10786.00
172.2160, 11103.00
173.4390, 11268.00
174.6620, 11752.00
175.8850, 11858.00
177.1080, 12344.00
178.3300, 12810.00
179.5520, 13242.00
180.7740, 14003.00
181.9960, 14491.00
183.2180, 15316.00
184.4400, 15980.00
185.6610, 16763.00
186.8820, 17814.00
188.1040, 19224.00
189.3250, 20380.00
190.5450, 22174.00
191.7660, 23823.00
192.9870, 25870.00
194.2070, 28073.00
195.4270, 30586.00
196.6480, 33409.00
197.8680, 36293.00
199.0870, 39042.00
200.3070, 42361.00
201.5270, 45310.00
202.7460, 48378.00
203.9650, 51706.00
205.1840, 54603.00
206.4030, 56209.00
207.6220, 57402.00
208.8400, 57965.00
210.0590, 57412.00
211.2770, 56114.00
212.4950, 54792.00
213.7130, 52214.00
214.9310, 49307.00
216.1490, 46375.00
217.3660, 42984.00
218.5840, 39889.00
219.8010, 37553.00
221.0180, 34009.00
222.2350, 31017.00
223.4520, 29136.00
224.6680, 26829.00
225.8850, 25048.00
227.1010, 23348.00
228.3170, 21829.00
229.5330, 20409.00
230.7490, 19240.00
231.9650, 18262.00
233.1810, 17285.00
234.3960, 16561.00
235.6110, 15746.00
236.8260, 14882.00
238.0410, 14565.00
239.2560, 13945.00
240.4710, 13562.00
241.6850, 13041.00
242.9000, 12737.00
244.1140, 12297.00
245.3280, 12162.00
246.5420, 11827.00
247.7550, 11679.00
248.9690, 11385.00
250.1820, 11119.00
251.3960, 11053.00
252.6090, 10757.00
253.8220, 10605.00
255.0350, 10403.00
256.2470, 10227.00
257.4600, 10089.93
258.6720, 9948.133
259.8840, 9840.000
261.0960, 9730.000
262.3080, 9654.000
263.5200, 9571.000
264.7320, 9457.000
265.9430, 9356.000
267.1540, 9154.000
268.3650, 8949.000
269.5760, 8625.000
270.7870, 8406.000
271.9980, 8115.000
273.2080, 8017.000
274.4190, 7922.000
275.6290, 7680.000
276.8390, 7553.000
278.0490, 7560.000
279.2590, 7475.000
280.4680, 7327.000
281.6780, 7246.000
282.8870, 7244.000
284.0960, 7140.000
285.3050, 7228.000
286.5140, 7128.000
287.7230, 7057.000
288.9310, 7037.000
290.1400, 6941.000
291.3480, 6878.000
292.5560, 6860.000
293.7640, 6847.000
294.9720, 6703.000
296.1790, 6725.000
297.3870, 6599.000
298.5940, 6654.000
299.8010, 6638.000
301.0080, 6647.000
302.2150, 6609.000
303.4220, 6651.000
304.6290, 6615.604
305.8350, 6482.000
307.0410, 6541.000
308.2470, 6586.000
309.4530, 6485.000
310.6590, 6338.000
311.8650, 6458.000
313.0700, 6581.000
314.2750, 6449.000
315.4810, 6545.000
316.6860, 6318.000
317.8900, 6495.000
319.0950, 6479.000
320.3000, 6519.000
321.5040, 6425.000
322.7080, 6460.000
323.9120, 6400.000
325.1160, 6378.000
326.3200, 6550.000
327.5240, 6406.000
328.7270, 6375.000
329.9310, 6249.000
331.1340, 6373.000
332.3370, 6340.000
333.5400, 6399.000
334.7420, 6416.000
335.9450, 6377.000
337.1470, 6327.000
338.3500, 6403.000
339.5520, 6362.000
340.7540, 6315.000
341.9550, 6467.000
343.1570, 6639.000
344.3590, 6720.000
345.5600, 6937.000
346.7610, 7240.000
347.9620, 7569.000
349.1630, 7936.000
350.3640, 8794.000
351.5640, 9583.000
352.7650, 11241.00
353.9650, 13587.00
355.1650, 16713.00
356.3650, 19427.00
357.5650, 20057.00
358.7640, 18323.00
359.9640, 15569.00
361.1630, 13088.00
362.3620, 11222.00
363.5610, 9757.000
364.7600, 8899.000
365.9590, 8286.000
367.1580, 7794.000
368.3560, 7613.000
369.5540, 7353.000
370.7520, 7124.000
371.9500, 7200.000
373.1480, 7161.000
374.3460, 6974.000
375.5430, 6981.000
376.7410, 6918.000
377.9380, 6938.000
379.1350, 6879.000
380.3320, 6736.000
381.5280, 6852.000
382.7250, 6741.000
383.9210, 6793.000
385.1180, 6663.000
386.3140, 6724.000
387.5100, 6636.000
388.7050, 6789.000
389.9010, 6713.000
391.0960, 6848.000
392.2920, 6886.000
393.4870, 6841.000
394.6820, 6998.000
395.8770, 6897.000
397.0720, 6809.000
398.2660, 6958.000
399.4610, 6885.000
400.6550, 6873.000
401.8490, 6933.000
403.0430, 6983.000
404.2370, 6945.000
405.4300, 6993.000
406.6240, 7015.000
407.8170, 6946.000
409.0100, 6949.000
410.2030, 6856.000
411.3960, 7026.000
412.5890, 7021.000
413.7810, 7064.000
414.9740, 7018.000
416.1660, 7136.000
417.3580, 7175.000
418.5500, 7188.000
419.7420, 7317.000
420.9330, 7344.000
422.1250, 7531.000
423.3160, 7505.000
424.5070, 7466.000
425.6980, 7628.000
426.8890, 7756.000
428.0800, 7686.000
429.2700, 7899.000
430.4610, 8006.000
431.6510, 8013.000
432.8410, 8079.000
434.0310, 8270.000
435.2210, 8534.000
436.4100, 8703.000
437.6000, 9110.000
438.7890, 9080.000
439.9780, 9450.000
441.1670, 9905.000
442.3560, 10404.00
443.5450, 11100.00
444.7330, 11644.00
445.9210, 12399.00
447.1100, 13508.00
448.2980, 14807.00
449.4860, 16512.00
450.6730, 18262.00
451.8610, 21019.00
453.0480, 24451.00
454.2360, 29114.00
455.4230, 35358.00
456.6100, 43504.00
457.7970, 53827.00
458.9830, 67162.00
460.1700, 84077.00
461.3560, 105717.0
462.5420, 132437.0
463.7280, 160375.0
464.9140, 185728.0
466.1000, 197746.0
467.2850, 191512.0
468.4710, 171431.0
469.6560, 143666.0
470.8410, 115450.0
472.0260, 91366.00
473.2110, 72874.00
474.3960, 58461.00
475.5800, 47985.00
476.7640, 40045.00
477.9490, 34598.00
479.1330, 30162.00
480.3160, 27099.00
481.5000, 24494.00
482.6840, 22064.00
483.8670, 20618.00
485.0500, 19178.00
486.2330, 17991.00
487.4160, 17030.00
488.5990, 16210.00
489.7820, 15528.00
490.9640, 14723.00
492.1470, 14362.00
493.3290, 13857.00
494.5110, 13384.00
495.6930, 12997.00
496.8740, 12605.00
498.0560, 12340.00
499.2370, 12125.48
500.4180, 12086.00
501.5990, 11926.00
502.7800, 11916.00
503.9610, 12029.00
505.1420, 11763.00
506.3220, 11662.00
507.5020, 11265.00
508.6820, 11004.00
509.8620, 10705.00
511.0420, 10621.00
512.2220, 10286.00
513.4010, 10069.00
514.5810, 9756.000
515.7600, 9711.000
516.9390, 9648.000
518.1180, 9588.000
519.2970, 9378.000
520.4750, 9358.000
521.6540, 9403.000
522.8320, 9088.000
524.0100, 9244.000
525.1880, 9055.000
526.3660, 8898.000
527.5430, 8876.000
528.7210, 8761.000
529.8980, 8789.000
531.0750, 8710.000
532.2520, 8599.000
533.4290, 8661.000
534.6060, 8623.000
535.7820, 8475.000
536.9590, 8479.000
538.1350, 8489.000
539.3110, 8454.000
540.4870, 8527.000
541.6630, 8339.000
542.8380, 8381.000
544.0140, 8286.000
545.1890, 8324.000
546.3640, 8340.000
547.5390, 8350.000
548.7140, 8393.000
549.8890, 8294.000
551.0630, 8253.000
552.2380, 8301.000
553.4120, 8165.000
554.5860, 8073.000
555.7600, 7934.000
556.9330, 8073.000
558.1070, 7981.000
559.2800, 8091.000
560.4540, 7966.000
561.6270, 7949.000
562.8000, 7935.000
563.9730, 7774.000
565.1450, 7874.000
566.3180, 7785.000
567.4900, 7861.000
568.6620, 7850.000
569.8340, 7686.000
571.0060, 7687.000
572.1780, 7763.000
573.3490, 7788.000
574.5210, 7826.000
575.6920, 7838.066
576.8630, 7923.000
578.0340, 7831.000
579.2050, 7748.000
580.3750, 7730.000
581.5460, 7897.000
582.7160, 7787.000
583.8860, 7777.000
585.0560, 7788.000
586.2260, 7712.000
587.3960, 7715.000
588.5650, 7666.000
589.7340, 7754.000
590.9040, 7841.000
592.0730, 7849.000
593.2410, 7884.000
594.4100, 7909.000
595.5790, 7850.000
596.7470, 7926.000
597.9150, 7771.000
599.0840, 7781.000
600.2510, 7828.000
601.4190, 7891.000
602.5870, 7708.000
603.7540, 7718.000
604.9220, 7749.000
606.0890, 7702.000
607.2560, 7727.000
608.4230, 7692.443
609.5890, 7650.000
610.7560, 7632.000
611.9220, 7578.000
613.0880, 7555.000
614.2540, 7733.000
615.4200, 7640.000
616.5860, 7745.000
617.7520, 7717.000
618.9170, 7830.000
620.0820, 7663.000
621.2480, 7851.000
622.4120, 7688.000
623.5770, 8051.000
624.7420, 7928.000
625.9060, 8120.000
627.0710, 8198.000
628.2350, 8031.000
629.3990, 8116.000
630.5630, 7989.000
631.7260, 7962.000
632.8900, 7780.000
634.0530, 7810.000
635.2170, 7747.000
636.3800, 7686.000
637.5430, 7733.000
638.7050, 7637.000
639.8680, 7750.000
641.0300, 7750.000
642.1930, 7694.000
643.3550, 7874.000
644.5170, 7910.000
645.6790, 8032.000
646.8400, 7997.000
648.0020, 8050.000
649.1630, 8051.172
650.3240, 7983.000
651.4850, 8033.000
652.6460, 7975.467
653.8070, 7983.816
654.9670, 7922.000
656.1280, 7849.000
657.2880, 7738.000
658.4480, 7594.000
659.6080, 7624.000
660.7680, 7552.000
661.9270, 7481.000
663.0870, 7498.000
664.2460, 7416.000
665.4050, 7436.000
666.5640, 7385.000
667.7230, 7491.000
668.8820, 7415.000
670.0400, 7451.000
671.1990, 7408.000
672.3570, 7473.000
673.5150, 7427.000
674.6730, 7389.000
675.8310, 7419.000
676.9880, 7363.000
678.1450, 7387.000
679.3030, 7480.000
680.4600, 7422.000
681.6170, 7442.000
682.7740, 7390.000
683.9300, 7465.000
685.0870, 7464.000
686.2430, 7525.000
687.3990, 7579.000
688.5550, 7461.000
689.7110, 7527.000
690.8670, 7644.000
692.0220, 7557.000
693.1770, 7570.000
694.3330, 7571.000
695.4880, 7494.000
696.6430, 7642.000
697.7970, 7614.000
698.9520, 7708.000
700.1060, 7528.000
701.2600, 7575.000
702.4150, 7630.000
703.5690, 7668.000
704.7220, 7636.000
705.8760, 7655.417
707.0290, 7559.000
708.1830, 7591.000
709.3360, 7577.000
710.4890, 7469.000
711.6420, 7596.000
712.7940, 7489.000
713.9470, 7630.000
715.0990, 7674.000
716.2510, 7658.000
717.4030, 7598.000
718.5550, 7575.000
719.7070, 7539.000
720.8590, 7631.000
722.0100, 7737.000
723.1610, 7688.000
724.3120, 7630.000
725.4630, 7797.000
726.6140, 7675.000
727.7650, 7631.000
728.9150, 7772.000
730.0650, 7616.000
731.2160, 7651.000
732.3660, 7646.000
733.5150, 7755.000
734.6650, 7725.000
735.8150, 7830.000
736.9640, 7893.000
738.1130, 7753.000
739.2620, 7805.000
740.4110, 7811.000
741.5600, 7892.000
742.7080, 7804.000
743.8570, 7808.000
745.0050, 7838.000
746.1530, 7909.000
747.3010, 7977.000
748.4490, 7880.000
749.5960, 7776.000
750.7440, 7758.000
751.8910, 7935.000
753.0380, 7845.000
754.1850, 7869.000
755.3320, 7883.000
756.4790, 7764.000
757.6250, 7887.000
758.7720, 7871.000
759.9180, 7828.000
761.0640, 7947.000
762.2100, 7992.000
763.3550, 7935.000
764.5010, 7815.000
765.6460, 7926.000
766.7920, 8055.000
767.9370, 7919.000
769.0820, 7895.000
770.2260, 8014.000
771.3710, 8064.000
772.5150, 7996.000
773.6600, 8020.000
774.8040, 8064.000
775.9480, 8048.000
777.0910, 8092.000
778.2350, 8155.000
779.3790, 7999.000
780.5220, 8233.000
781.6650, 8119.000
782.8080, 8203.000
783.9510, 8114.000
785.0940, 8172.000
786.2360, 8181.000
787.3790, 8321.000
788.5210, 8221.000
789.6630, 8101.000
790.8050, 8244.000
791.9470, 8329.000
793.0880, 8429.000
794.2300, 8405.000
795.3710, 8529.000
796.5120, 8516.000
797.6530, 8527.000
798.7940, 8704.000
799.9340, 8557.000
801.0750, 8676.000
802.2150, 8712.000
803.3550, 8824.000
804.4950, 8938.000
805.6350, 9079.000
806.7750, 9111.000
807.9140, 9351.000
809.0540, 9452.000
810.1930, 9524.000
811.3320, 9550.000
812.4710, 9457.000
813.6100, 9174.000
814.7480, 9153.000
815.8870, 9050.000
817.0250, 8902.000
818.1630, 8857.000
819.3010, 8761.000
820.4390, 8708.000
821.5760, 8698.000
822.7140, 8707.000
823.8510, 8701.000
824.9880, 8672.000
826.1250, 8734.000
827.2620, 8564.000
828.3990, 8755.000
829.5350, 8631.000
830.6710, 8814.000
831.8080, 8796.000
832.9440, 8770.000
834.0800, 8832.000
835.2150, 8707.000
836.3510, 8788.000
837.4860, 8925.000
838.6210, 8782.000
839.7560, 8888.000
840.8910, 8743.000
842.0260, 8957.000
843.1610, 8910.000
844.2950, 9039.000
845.4290, 8876.000
846.5640, 8980.000
847.6980, 9031.000
848.8310, 8887.000
849.9650, 8870.000
851.0980, 8869.000
852.2320, 8959.000
853.3650, 9083.000
854.4980, 8984.000
855.6310, 9161.000
856.7630, 9183.000
857.8960, 9253.000
859.0280, 9141.000
860.1610, 9235.000
861.2930, 9288.000
862.4240, 9387.000
863.5560, 9122.000
864.6880, 9145.000
865.8190, 9075.000
866.9500, 9215.000
868.0820, 9014.000
869.2120, 9107.000
870.3430, 8937.000
871.4740, 8852.000
872.6040, 8865.000
873.7350, 8904.000
874.8650, 8985.000
875.9950, 8958.000
877.1250, 8984.000
878.2540, 8901.000
879.3840, 8922.000
880.5130, 8914.000
881.6420, 8980.000
882.7710, 9018.000
883.9000, 9095.000
885.0290, 9049.000
886.1570, 9073.000
887.2860, 9196.000
888.4140, 9109.000
889.5420, 9249.000
890.6700, 9060.000
891.7980, 9136.000
892.9250, 9122.000
894.0530, 9197.000
895.1800, 9138.000
896.3070, 9146.000
897.4340, 9067.000
898.5610, 9183.000
899.6870, 9239.000
900.8140, 9151.000
901.9400, 9123.000
903.0660, 9120.000
904.1920, 9117.000
905.3180, 9197.000
906.4440, 9092.000
907.5690, 9065.000
908.6950, 9168.000
909.8200, 9175.000
910.9450, 9105.000
912.0700, 9059.000
913.1940, 9266.000
914.3190, 8935.000
915.4430, 9172.000
916.5680, 9176.000
917.6920, 8988.000
918.8150, 9267.000
919.9390, 9118.000
921.0630, 9181.000
922.1860, 9017.000
923.3100, 9099.000
924.4330, 9038.000
925.5560, 9182.000
926.6780, 9015.000
927.8010, 8888.000
928.9230, 9098.000
930.0460, 8985.000
931.1680, 9049.000
932.2900, 8948.000
933.4120, 9010.000
934.5330, 8984.000
935.6550, 8965.000
936.7760, 9113.000
937.8970, 9004.000
939.0180, 8945.000
940.1390, 9029.000
941.2600, 9064.000
942.3810, 8951.000
943.5010, 9011.000
944.6210, 9044.000
945.7410, 9052.000
946.8610, 8909.000
947.9810, 8961.000
949.1010, 8877.000
950.2200, 9072.000
951.3390, 9164.000
952.4580, 9046.000
953.5770, 8875.000
954.6960, 9167.000
955.8150, 8954.000
956.9330, 9107.000
958.0520, 9223.000
959.1700, 8979.000
960.2880, 8964.000
961.4050, 8941.000
962.5230, 9056.000
963.6410, 9001.000
964.7580, 9003.000
965.8750, 9165.000
966.9920, 9020.000
968.1090, 9033.000
969.2260, 8849.000
970.3420, 9004.000
971.4590, 8923.000
972.5750, 8804.000
973.6910, 8913.000
974.8070, 8887.000
975.9230, 8866.000
977.0380, 8942.000
978.1540, 8948.000
979.2690, 9029.000
980.3840, 8900.000
981.4990, 9052.000
982.6140, 8903.000
983.7280, 8886.000
984.8430, 8934.000
985.9570, 8974.000
987.0710, 9014.000
988.1850, 9011.000
989.2990, 9091.000
990.4130, 9083.000
991.5260, 9145.000
992.6400, 9121.000
993.7530, 8962.000
994.8660, 9003.000
995.9790, 9170.000
997.0910, 9004.000
998.2040, 9104.000
999.3160, 9071.000
1000.429, 9190.000
1001.541, 9424.000
1002.652, 9709.000
1003.764, 9646.000
1004.876, 9709.000
1005.987, 9569.000
1007.098, 9339.000
1008.210, 9324.000
1009.320, 9217.000
1010.431, 9151.000
1011.542, 9140.000
1012.652, 9155.000
1013.763, 9048.000
1014.873, 9263.000
1015.983, 9248.000
1017.093, 9282.000
1018.202, 9230.000
1019.312, 9139.000
1020.421, 9482.000
1021.530, 9284.000
1022.639, 9417.000
1023.748, 9537.000
1024.857, 9341.000
1025.965, 9439.000
1027.074, 9342.000
1028.182, 9374.000
1029.290, 9437.000
1030.398, 9370.000
1031.505, 9373.000
1032.613, 9391.000
1033.720, 9402.000
1034.828, 9378.000
1035.935, 9367.000
1037.042, 9452.000
1038.148, 9420.295
1039.255, 9372.000
1040.361, 9427.000
1041.468, 9397.000
1042.574, 9388.000
1043.680, 9404.000
1044.786, 9356.000
1045.891, 9461.000
1046.997, 9376.000
1048.102, 9499.000
1049.207, 9570.000
1050.312, 9515.000
1051.417, 9534.000
1052.522, 9380.000
1053.626, 9453.000
1054.730, 9440.726
1055.835, 9599.000
1056.939, 9512.000
1058.043, 9589.000
1059.146, 9644.000
1060.250, 9732.000
1061.353, 9711.000
1062.456, 9642.000
1063.559, 9728.000
1064.662, 9653.000
1065.765, 9824.000
1066.868, 9815.000
1067.970, 9977.000
1069.072, 10084.00
1070.174, 10060.00
1071.276, 10240.00
1072.378, 10245.00
1073.480, 10574.00
1074.581, 10700.00
1075.682, 11158.00
1076.784, 11531.00
1077.885, 12137.00
1078.985, 12927.00
1080.086, 14159.00
1081.187, 15216.00
1082.287, 16150.00
1083.387, 16707.00
1084.487, 16370.00
1085.587, 15221.00
1086.687, 13957.00
1087.786, 12837.00
1088.885, 12285.00
1089.985, 11463.00
1091.084, 11061.00
1092.182, 10821.00
1093.281, 10475.00
1094.380, 10422.00
1095.478, 10200.00
1096.576, 10235.00
1097.674, 10045.00
1098.772, 10114.00
1099.870, 10079.00
1100.968, 10073.00
1102.065, 9984.000
1103.162, 10004.39
1104.259, 9885.000
1105.356, 10033.00
1106.453, 9881.000
1107.550, 9932.000
1108.646, 9928.000
1109.743, 9921.000
1110.839, 9966.000
1111.935, 9959.000
1113.030, 9938.114
1114.126, 9888.000
1115.222, 9885.000
1116.317, 9850.000
1117.412, 9842.693
1118.507, 9777.000
1119.602, 9861.000
1120.697, 9844.000
1121.791, 9760.000
1122.885, 9832.000
1123.980, 9804.024
1125.074, 9927.000
1126.168, 9837.000
1127.261, 9793.000
1128.355, 9813.000
1129.448, 9884.000
1130.541, 10028.00
1131.635, 9940.000
1132.727, 9996.000
1133.820, 9900.000
1134.913, 9813.000
1136.005, 9944.000
1137.097, 9826.000
1138.190, 9920.000
1139.281, 9872.000
1140.373, 9863.000
1141.465, 9805.000
1142.556, 10017.00
1143.648, 10059.00
1144.739, 10018.00
1145.830, 9959.000
1146.921, 9919.000
1148.011, 9894.000
1149.102, 9911.114
1150.192, 9918.350
1151.282, 9980.000
1152.372, 10007.00
1153.462, 10033.00
1154.552, 10130.00
1155.641, 10184.80
1156.731, 10193.00
1157.820, 10359.00
1158.909, 10364.00
1159.998, 10456.00
1161.086, 10407.00
1162.175, 10398.36
1163.263, 10340.00
1164.351, 10296.00
1165.440, 10271.79
1166.527, 10226.89
1167.615, 10188.00
1168.703, 10156.00
1169.790, 10068.00
1170.877, 10017.00
1171.965, 10019.51
1173.051, 10046.00
1174.138, 10075.00
1175.225, 10048.00
1176.311, 10153.00
1177.398, 10104.00
1178.484, 10117.00
1179.570, 9972.000
1180.655, 10139.00
1181.741, 10131.00
1182.827, 10126.00
1183.912, 10228.00
1184.997, 10173.00
1186.082, 10219.00
1187.167, 10058.00
1188.251, 10056.00
1189.336, 10147.00
1190.420, 10048.00
1191.505, 10052.00
1192.589, 10101.00
1193.672, 10170.00
1194.756, 10056.00
1195.840, 10058.00
1196.923, 10168.00
1198.006, 10172.00
1199.089, 10265.00
1200.172, 10198.00
1201.255, 10209.00
1202.337, 10120.00
1203.420, 10245.00
1204.502, 10280.00
1205.584, 10315.00
1206.666, 10236.00
1207.748, 10206.00
1208.829, 10182.00
1209.911, 10182.00
1210.992, 10187.34
1212.073, 10333.00
1213.154, 10289.00
1214.235, 10272.00
1215.316, 10452.00
1216.396, 10274.00
1217.476, 10345.00
1218.556, 10341.00
1219.636, 10359.00
1220.716, 10343.00
1221.796, 10379.00
1222.875, 10386.44
1223.955, 10340.00
1225.034, 10434.00
1226.113, 10486.00
1227.192, 10536.00
1228.270, 10496.00
1229.349, 10371.00
1230.427, 10484.00
1231.505, 10443.00
1232.583, 10392.00
1233.661, 10607.00
1234.739, 10521.00
1235.817, 10563.00
1236.894, 10529.00
1237.971, 10717.00
1239.048, 10776.00
1240.125, 10766.00
1241.202, 10685.00
1242.278, 10539.00
1243.355, 10601.00
1244.431, 10620.00
1245.507, 10512.00
1246.583, 10593.00
1247.659, 10623.00
1248.734, 10665.00
1249.810, 10640.00
1250.885, 10668.00
1251.960, 10578.00
1253.035, 10690.00
1254.110, 10542.00
1255.185, 10558.00
1256.259, 10605.00
1257.333, 10554.00
1258.408, 10676.00
1259.482, 10527.00
1260.555, 10720.00
1261.629, 10659.00
1262.702, 10772.00
1263.776, 10806.49
1264.849, 10714.00
1265.922, 10801.00
1266.995, 10888.00
1268.068, 10766.00
1269.140, 10758.00
1270.212, 10855.00
1271.285, 10781.00
1272.357, 10817.78
1273.428, 10811.73
1274.500, 10791.00
1275.572, 10810.00
1276.643, 10807.79
1277.714, 10785.00
1278.785, 10845.00
1279.856, 10894.00
1280.927, 10953.00
1281.998, 10703.00
1283.068, 10899.00
1284.138, 10782.00
1285.208, 10899.00
1286.278, 10747.00
1287.348, 10815.00
1288.418, 10796.00
1289.487, 10823.00
1290.556, 10867.00
1291.625, 10744.00
1292.694, 10826.00
1293.763, 10951.00
1294.832, 10865.00
1295.900, 10909.00
1296.969, 10699.00
1298.037, 10882.00
1299.105, 10892.00
1300.172, 10795.00
1301.240, 10880.00
1302.308, 10847.00
1303.375, 10838.00
1304.442, 10878.00
1305.509, 10795.00
1306.576, 10898.00
1307.643, 10854.00
1308.709, 10888.00
1309.775, 10933.00
1310.842, 10983.00
1311.908, 10957.00
1312.974, 10936.00
1314.039, 11005.00
1315.105, 11034.00
1316.170, 10994.00
1317.235, 10913.00
1318.300, 11051.00
1319.365, 10963.00
1320.430, 11097.00
1321.495, 10946.00
1322.559, 11078.00
1323.623, 11007.00
1324.687, 11091.00
1325.751, 10939.00
1326.815, 10910.00
1327.879, 11014.00
1328.942, 10872.00
1330.005, 10861.00
1331.068, 11015.00
1332.131, 10852.00
1333.194, 10750.00
1334.257, 10690.00
1335.319, 10704.62
1336.381, 10819.00
1337.444, 10802.00
1338.505, 10871.00
1339.567, 10849.00
1340.629, 10999.00
1341.690, 10749.00
1342.752, 10776.00
1343.813, 10916.00
1344.874, 10871.00
1345.935, 10965.00
1346.995, 10967.30
1348.056, 10950.30
1349.116, 10955.00
1350.176, 10872.00
1351.236, 10841.00
1352.296, 10713.00
1353.356, 10762.69
1354.415, 10758.61
1355.475, 10856.00
1356.534, 10845.00
1357.593, 10910.00
1358.652, 10947.00
1359.711, 10852.00
1360.769, 10897.00
1361.827, 10912.00
1362.886, 10843.00
1363.944, 10950.00
1365.002, 10933.00
1366.059, 11013.00
1367.117, 11267.00
1368.174, 11086.00
1369.232, 11040.00
1370.289, 10924.00
1371.346, 11155.00
1372.402, 11077.00
1373.459, 11083.00
1374.515, 11056.00
1375.572, 10995.00
1376.628, 11118.00
1377.684, 11019.00
1378.740, 10988.00
1379.795, 11104.00
1380.851, 11160.00
1381.906, 11043.00
1382.961, 10942.00
1384.016, 11128.00
1385.071, 11124.00
1386.125, 11100.00
1387.180, 11140.00
1388.234, 11265.00
1389.288, 11240.00
1390.342, 11300.00
1391.396, 11114.00
1392.450, 11085.00
1393.503, 11079.09
1394.557, 11091.00
1395.610, 11088.00
1396.663, 11027.00
1397.716, 11076.00
1398.768, 11180.00
1399.821, 11327.00
1400.873, 11262.00
1401.925, 11084.00
1402.978, 11090.00
1404.029, 11282.00
1405.081, 11178.00
1406.133, 11241.00
1407.184, 11150.00
1408.235, 11143.00
1409.286, 11216.00
1410.337, 11167.00
1411.388, 11133.00
1412.439, 11203.00
1413.489, 11262.00
1414.539, 11159.00
1415.589, 11381.00
1416.639, 11210.00
1417.689, 11240.00
1418.738, 11214.00
1419.788, 11189.83
1420.837, 11223.00
1421.886, 11247.00
1422.935, 11302.00
1423.984, 11391.00
1425.033, 11386.00
1426.081, 11370.00
1427.129, 11282.00
1428.177, 11240.00
1429.225, 11360.00
1430.273, 11292.74
1431.321, 11441.00
1432.368, 11298.00
1433.416, 11419.00
1434.463, 11422.00
1435.510, 11495.00
1436.557, 11541.00
1437.603, 11642.00
1438.650, 11717.40
1439.696, 11776.88
1440.742, 11847.00
1441.788, 11916.00
1442.834, 11869.00
1443.880, 11957.00
1444.925, 11897.00
1445.971, 11794.00
1447.016, 11973.00
1448.061, 11982.00
1449.106, 12093.00
1450.150, 12161.00
1451.195, 12076.00
1452.239, 12104.00
1453.284, 12156.00
1454.328, 12143.37
1455.371, 12141.00
1456.415, 12215.00
1457.459, 12197.00
1458.502, 12259.00
1459.545, 12172.00
1460.588, 12033.00
1461.631, 12286.00
1462.674, 12085.00
1463.717, 12158.00
1464.759, 11985.00
1465.801, 11853.00
1466.843, 11858.00
1467.885, 11782.00
1468.927, 11913.00
1469.969, 11895.00
1471.010, 11754.00
1472.051, 11790.00
1473.093, 11695.00
1474.134, 11738.00
1475.174, 11897.00
1476.215, 11785.00
1477.255, 11854.00
1478.296, 11888.00
1479.336, 11766.00
1480.376, 11961.00
1481.416, 11603.00
1482.455, 11837.00
1483.495, 11694.00
1484.534, 11753.00
1485.573, 11668.00
1486.612, 11829.00
1487.651, 11821.00
1488.690, 11846.00
1489.728, 11603.00
1490.766, 11540.00
1491.805, 11681.00
1492.843, 11630.00
1493.881, 11683.00
1494.918, 11639.00
1495.956, 11592.00
1496.993, 11591.00
1498.030, 11712.00
1499.067, 11750.00
1500.104, 11810.00
1501.141, 11620.00
1502.177, 11660.00
1503.214, 11617.00
1504.250, 11625.00
1505.286, 11706.00
1506.322, 11716.00
1507.358, 11637.00
1508.393, 11740.00
1509.429, 11594.00
1510.464, 11701.00
1511.499, 11698.00
1512.534, 11715.00
1513.569, 11752.00
1514.603, 11759.00
1515.638, 11827.00
1516.672, 11738.00
1517.706, 11664.00
1518.740, 11873.00
1519.774, 11811.00
1520.807, 11821.00
1521.841, 11764.00
1522.874, 11754.00
1523.907, 11721.00
1524.940, 11875.00
1525.973, 11642.00
1527.005, 11847.00
1528.038, 11810.00
1529.070, 11802.00
1530.102, 11853.00
1531.134, 11833.00
1532.166, 11832.00
1533.198, 11988.00
1534.229, 11840.00
1535.260, 11816.00
1536.292, 11958.00
1537.323, 11840.00
1538.353, 11998.00
1539.384, 11876.00
1540.415, 11983.00
1541.445, 11907.00
1542.475, 11995.00
1543.505, 12080.00
1544.535, 12224.00
1545.565, 12088.00
1546.594, 11934.00
1547.623, 11971.00
1548.653, 11964.00
1549.682, 12076.00
1550.711, 11963.00
1551.739, 11971.00
1552.768, 11985.00
1553.796, 12032.00
1554.824, 11847.00
1555.852, 12022.00
1556.880, 11916.00
1557.908, 11961.00
1558.936, 11762.00
1559.963, 11907.00
1560.990, 11908.00
1562.017, 12032.00
1563.044, 11997.00
1564.071, 11966.00
1565.097, 12049.00
1566.124, 12083.00
1567.150, 11987.00
1568.176, 12078.00
1569.202, 12030.00
1570.228, 12062.00
1571.253, 12097.00
1572.279, 12029.00
1573.304, 12129.00
1574.329, 12144.00
1575.354, 12153.00
1576.379, 12066.00
1577.404, 12037.00
1578.428, 12050.00
##END=



