##NAMES=Quartz
##RRUFFID=R040031
##IDEAL CHEMISTRY=SiO_2_
##LOCALITY=Spruce Claim, King County, Washington, USA
##OWNER=RRUFF
##SOURCE=Bob Downs
##DESCRIPTION=Colorless hexagonal prism
##STATUS=The identification of this mineral has been confirmed by X-ray diffraction and chemical analysis
##URL=rruff.info/R040031
##MEASURED CHEMISTRY=Si_1.00_O_2_
##PIN_ID=L00425
##ORIENTATION=Laser parallel to b [0 1 0]. Fiducial mark perpendicular to laser is parallel to -c [0 0 -1]
94.86300, 6478.000
96.09600, 6539.000
97.32800, 6827.000
98.56000, 6639.000
99.79200, 6837.000
101.0240, 6811.000
102.2560, 7034.000
103.4880, 7532.000
104.7190, 7650.000
105.9500, 8214.000
107.1810, 10022.00
108.4120, 13780.00
109.6430, 16427.00
110.8740, 15182.00
112.1050, 11568.00
113.3350, 10094.00
114.5650, 9500.000
115.7950, 9668.000
117.0250, 10346.00
118.2550, 11710.00
119.4850, 14168.00
120.7140, 15400.25
121.9430, 16054.91
123.1730, 19008.00
124.4020, 17631.00
125.6310, 18969.00
126.8590, 21771.00
128.0880, 25912.00
129.3160, 31558.00
130.5450, 34627.00
131.7730, 34494.00
133.0010, 30609.00
134.2290, 25223.00
135.4560, 20214.00
136.6840, 16834.00
137.9110, 14389.00
139.1380, 12815.00
140.3650, 12076.00
141.5920, 11469.00
142.8190, 10856.00
144.0460, 10846.00
145.2720, 10785.00
146.4990, 10983.00
147.7250, 10963.00
148.9510, 10811.00
150.1770, 10884.00
151.4020, 10514.00
152.6280, 10507.00
153.8530, 10447.00
155.0790, 10127.00
156.3040, 10177.00
157.5290, 9950.000
158.7530, 9868.000
159.9780, 9778.000
161.2030, 9670.000
162.4270, 9873.000
163.6510, 10440.00
164.8750, 10841.00
166.0990, 10544.00
167.3230, 10541.00
168.5470, 10628.00
169.7700, 10724.00
170.9930, 10876.00
172.2160, 10981.00
173.4390, 11350.00
174.6620, 11634.00
175.8850, 11883.00
177.1080, 12516.00
178.3300, 13103.00
179.5520, 13522.00
180.7740, 13995.00
181.9960, 14579.00
183.2180, 15250.00
184.4400, 15796.00
185.6610, 16628.00
186.8820, 17637.00
188.1040, 18610.00
189.3250, 20015.00
190.5450, 21436.00
191.7660, 23037.00
192.9870, 24851.00
194.2070, 27009.00
195.4270, 29313.00
196.6480, 31881.00
197.8680, 34830.00
199.0870, 37309.00
200.3070, 40540.00
201.5270, 43681.00
202.7460, 46435.00
203.9650, 49539.00
205.1840, 52840.00
206.4030, 54119.00
207.6220, 55377.00
208.8400, 55837.00
210.0590, 55290.00
211.2770, 54069.00
212.4950, 52383.00
213.7130, 50456.00
214.9310, 47677.00
216.1490, 44775.00
217.3660, 41600.00
218.5840, 38551.00
219.8010, 35752.00
221.0180, 33009.00
222.2350, 30393.00
223.4520, 28046.00
224.6680, 25917.00
225.8850, 24290.00
227.1010, 22707.00
228.3170, 21320.00
229.5330, 20076.00
230.7490, 18844.00
231.9650, 17976.00
233.1810, 16989.00
234.3960, 16124.00
235.6110, 15561.00
236.8260, 14607.00
238.0410, 14334.00
239.2560, 13773.00
240.4710, 13472.00
241.6850, 12893.00
242.9000, 12652.00
244.1140, 12161.00
245.3280, 11928.00
246.5420, 11901.00
247.7550, 11444.00
248.9690, 11373.00
250.1820, 11140.00
251.3960, 11047.00
252.6090, 10798.00
253.8220, 10504.00
255.0350, 10410.00
256.2470, 10312.00
257.4600, 10124.00
258.6720, 10096.00
259.8840, 10024.00
261.0960, 9974.679
262.3080, 9990.000
263.5200, 9964.000
264.7320, 10069.00
265.9430, 10115.00
267.1540, 10091.00
268.3650, 9672.000
269.5760, 9334.000
270.7870, 9040.000
271.9980, 8774.000
273.2080, 8671.000
274.4190, 8320.000
275.6290, 8159.000
276.8390, 7920.000
278.0490, 7913.000
279.2590, 7772.000
280.4680, 7733.000
281.6780, 7656.000
282.8870, 7552.000
284.0960, 7511.000
285.3050, 7510.000
286.5140, 7380.000
287.7230, 7400.000
288.9310, 7372.000
290.1400, 7295.000
291.3480, 7230.000
292.5560, 7264.000
293.7640, 7242.000
294.9720, 7150.000
296.1790, 7140.000
297.3870, 7061.000
298.5940, 7110.000
299.8010, 7011.000
301.0080, 7001.000
302.2150, 7106.000
303.4220, 7060.000
304.6290, 7065.000
305.8350, 7025.000
307.0410, 7039.000
308.2470, 7006.000
309.4530, 7007.000
310.6590, 7033.000
311.8650, 7012.000
313.0700, 7001.814
314.2750, 7100.000
315.4810, 6978.000
316.6860, 7012.000
317.8900, 7056.000
319.0950, 6974.000
320.3000, 7061.000
321.5040, 7041.000
322.7080, 7099.000
323.9120, 7040.000
325.1160, 7090.000
326.3200, 6999.000
327.5240, 7024.000
328.7270, 7146.000
329.9310, 6981.000
331.1340, 7264.000
332.3370, 7251.000
333.5400, 7102.000
334.7420, 7121.000
335.9450, 7149.000
337.1470, 7267.000
338.3500, 7218.000
339.5520, 7494.000
340.7540, 7562.000
341.9550, 7610.000
343.1570, 7736.000
344.3590, 7816.000
345.5600, 8064.000
346.7610, 8477.000
347.9620, 8854.000
349.1630, 9382.000
350.3640, 10202.00
351.5640, 11208.00
352.7650, 12662.00
353.9650, 14973.00
355.1650, 17450.00
356.3650, 19965.00
357.5650, 20372.00
358.7640, 17718.00
359.9640, 14875.00
361.1630, 12262.00
362.3620, 10387.00
363.5610, 9068.000
364.7600, 8227.000
365.9590, 7729.000
367.1580, 7465.000
368.3560, 7367.000
369.5540, 7170.000
370.7520, 7074.000
371.9500, 6987.000
373.1480, 6931.321
374.3460, 6957.000
375.5430, 6903.000
376.7410, 6921.000
377.9380, 6907.000
379.1350, 6937.000
380.3320, 6994.000
381.5280, 6963.000
382.7250, 6921.000
383.9210, 7038.000
385.1180, 6924.000
386.3140, 7207.000
387.5100, 7178.000
388.7050, 7233.000
389.9010, 7331.000
391.0960, 7480.000
392.2920, 7562.000
393.4870, 7873.000
394.6820, 8030.000
395.8770, 8418.000
397.0720, 8426.000
398.2660, 8915.000
399.4610, 9458.000
400.6550, 10253.00
401.8490, 11662.00
403.0430, 13182.00
404.2370, 14449.00
405.4300, 14428.00
406.6240, 13134.00
407.8170, 11464.00
409.0100, 10107.00
410.2030, 9207.000
411.3960, 8527.000
412.5890, 8184.000
413.7810, 7945.000
414.9740, 7946.000
416.1660, 7844.000
417.3580, 8031.000
418.5500, 7901.000
419.7420, 7895.000
420.9330, 7986.000
422.1250, 8006.000
423.3160, 8026.000
424.5070, 8079.000
425.6980, 8159.000
426.8890, 8322.000
428.0800, 8395.000
429.2700, 8482.000
430.4610, 8504.000
431.6510, 8709.000
432.8410, 8770.000
434.0310, 8900.000
435.2210, 9119.000
436.4100, 9280.000
437.6000, 9539.000
438.7890, 9803.000
439.9780, 10029.00
441.1670, 10591.00
442.3560, 10970.00
443.5450, 11449.00
444.7330, 12228.00
445.9210, 13067.00
447.1100, 14012.00
448.2980, 15316.00
449.4860, 17002.00
450.6730, 18735.00
451.8610, 21535.00
453.0480, 24849.00
454.2360, 29353.00
455.4230, 35696.00
456.6100, 43759.00
457.7970, 53902.00
458.9830, 67007.00
460.1700, 84263.00
461.3560, 107042.0
462.5420, 133595.0
463.7280, 163629.0
464.9140, 191557.0
466.1000, 206204.0
467.2850, 205094.0
468.4710, 186067.0
469.6560, 157823.0
470.8410, 127460.0
472.0260, 101614.0
473.2110, 80941.00
474.3960, 64516.00
475.5800, 52856.00
476.7640, 44252.00
477.9490, 38059.00
479.1330, 33203.00
480.3160, 29751.00
481.5000, 26750.00
482.6840, 24709.00
483.8670, 22585.00
485.0500, 21104.00
486.2330, 19849.00
487.4160, 18912.00
488.5990, 17919.00
489.7820, 16992.00
490.9640, 16418.00
492.1470, 15680.00
493.3290, 15145.27
494.5110, 14735.00
495.6930, 14282.00
496.8740, 13886.00
498.0560, 13637.00
499.2370, 13350.00
500.4180, 13404.00
501.5990, 13046.00
502.7800, 13131.00
503.9610, 12953.00
505.1420, 12730.00
506.3220, 12664.00
507.5020, 12412.00
508.6820, 12301.00
509.8620, 12030.00
511.0420, 11759.00
512.2220, 11374.00
513.4010, 11204.00
514.5810, 11077.00
515.7600, 10764.00
516.9390, 10602.00
518.1180, 10341.00
519.2970, 10413.00
520.4750, 10324.00
521.6540, 10179.00
522.8320, 10161.00
524.0100, 9994.000
525.1880, 9942.000
526.3660, 9870.000
527.5430, 9856.000
528.7210, 9798.302
529.8980, 9659.000
531.0750, 9701.000
532.2520, 9613.000
533.4290, 9528.000
534.6060, 9579.000
535.7820, 9468.000
536.9590, 9263.000
538.1350, 9312.000
539.3110, 9368.000
540.4870, 9229.000
541.6630, 9366.000
542.8380, 9326.000
544.0140, 9131.000
545.1890, 9113.000
546.3640, 9186.000
547.5390, 9270.000
548.7140, 9160.000
549.8890, 8901.000
551.0630, 8921.000
552.2380, 8938.000
553.4120, 8845.000
554.5860, 8824.000
555.7600, 8804.000
556.9330, 8737.000
558.1070, 8761.000
559.2800, 8624.000
560.4540, 8550.000
561.6270, 8655.000
562.8000, 8696.000
563.9730, 8440.000
565.1450, 8469.000
566.3180, 8557.000
567.4900, 8520.000
568.6620, 8525.000
569.8340, 8481.000
571.0060, 8515.000
572.1780, 8558.000
573.3490, 8442.000
574.5210, 8582.000
575.6920, 8518.000
576.8630, 8495.000
578.0340, 8660.000
579.2050, 8554.000
580.3750, 8494.000
581.5460, 8447.000
582.7160, 8491.000
583.8860, 8498.000
585.0560, 8563.000
586.2260, 8491.000
587.3960, 8592.000
588.5650, 8505.000
589.7340, 8559.000
590.9040, 8491.000
592.0730, 8654.000
593.2410, 8869.000
594.4100, 8711.933
595.5790, 8595.000
596.7470, 8501.000
597.9150, 8615.000
599.0840, 8510.000
600.2510, 8465.000
601.4190, 8545.000
602.5870, 8464.000
603.7540, 8459.000
604.9220, 8614.000
606.0890, 8498.000
607.2560, 8508.000
608.4230, 8586.000
609.5890, 8436.000
610.7560, 8378.000
611.9220, 8519.000
613.0880, 8419.000
614.2540, 8400.000
615.4200, 8482.000
616.5860, 8514.000
617.7520, 8547.000
618.9170, 8505.000
620.0820, 8612.000
621.2480, 8750.000
622.4120, 8545.000
623.5770, 8788.000
624.7420, 8847.000
625.9060, 8802.000
627.0710, 9002.000
628.2350, 9012.000
629.3990, 8909.000
630.5630, 8768.000
631.7260, 8769.000
632.8900, 8727.000
634.0530, 8697.000
635.2170, 8632.000
636.3800, 8693.000
637.5430, 8593.000
638.7050, 8684.000
639.8680, 8609.000
641.0300, 8564.000
642.1930, 8740.000
643.3550, 8755.000
644.5170, 8768.000
645.6790, 8813.000
646.8400, 8728.000
648.0020, 8848.000
649.1630, 8711.000
650.3240, 8748.000
651.4850, 8839.000
652.6460, 8841.000
653.8070, 8910.000
654.9670, 8670.000
656.1280, 8789.000
657.2880, 8568.000
658.4480, 8736.000
659.6080, 8576.000
660.7680, 8490.000
661.9270, 8418.000
663.0870, 8339.627
664.2460, 8335.871
665.4050, 8302.000
666.5640, 8334.000
667.7230, 8445.000
668.8820, 8418.000
670.0400, 8339.000
671.1990, 8457.000
672.3570, 8338.000
673.5150, 8402.000
674.6730, 8470.000
675.8310, 8408.000
676.9880, 8482.000
678.1450, 8515.000
679.3030, 8470.000
680.4600, 8481.000
681.6170, 8475.472
682.7740, 8635.000
683.9300, 8509.000
685.0870, 8593.000
686.2430, 8714.000
687.3990, 8683.000
688.5550, 8878.000
689.7110, 8925.000
690.8670, 9158.000
692.0220, 9302.000
693.1770, 9377.000
694.3330, 9762.000
695.4880, 10216.00
696.6430, 10434.00
697.7970, 10803.00
698.9520, 10964.00
700.1060, 10867.00
701.2600, 10643.00
702.4150, 10311.00
703.5690, 9849.000
704.7220, 9693.000
705.8760, 9383.000
707.0290, 9165.000
708.1830, 8951.000
709.3360, 9000.000
710.4890, 8904.000
711.6420, 8864.000
712.7940, 8862.000
713.9470, 8842.000
715.0990, 8841.000
716.2510, 8679.000
717.4030, 8645.000
718.5550, 8725.000
719.7070, 8570.000
720.8590, 8761.000
722.0100, 8771.000
723.1610, 8787.000
724.3120, 8904.000
725.4630, 8832.972
726.6140, 8797.000
727.7650, 8750.000
728.9150, 8751.471
730.0650, 8734.867
731.2160, 8764.000
732.3660, 8767.000
733.5150, 8740.000
734.6650, 8816.000
735.8150, 8860.000
736.9640, 8910.000
738.1130, 8893.000
739.2620, 8833.000
740.4110, 8865.000
741.5600, 8922.000
742.7080, 8803.000
743.8570, 8860.000
745.0050, 8971.000
746.1530, 8817.000
747.3010, 8916.000
748.4490, 8937.000
749.5960, 8974.000
750.7440, 8868.000
751.8910, 8922.000
753.0380, 8931.000
754.1850, 8753.000
755.3320, 8854.000
756.4790, 8859.000
757.6250, 8880.000
758.7720, 8784.000
759.9180, 8848.000
761.0640, 8900.000
762.2100, 8988.000
763.3550, 8828.000
764.5010, 8992.000
765.6460, 8944.000
766.7920, 8983.000
767.9370, 9005.000
769.0820, 9071.000
770.2260, 8959.000
771.3710, 9010.000
772.5150, 8953.000
773.6600, 9040.000
774.8040, 9136.000
775.9480, 8993.000
777.0910, 9092.000
778.2350, 9118.000
779.3790, 8997.000
780.5220, 9095.000
781.6650, 9116.000
782.8080, 9174.000
783.9510, 9183.000
785.0940, 9189.000
786.2360, 9254.000
787.3790, 9234.000
788.5210, 9198.000
789.6630, 9236.000
790.8050, 9367.000
791.9470, 9244.000
793.0880, 9350.000
794.2300, 9401.000
795.3710, 9353.000
796.5120, 9632.000
797.6530, 9502.000
798.7940, 9551.000
799.9340, 9719.000
801.0750, 9554.000
802.2150, 9668.000
803.3550, 9834.000
804.4950, 10017.00
805.6350, 10251.00
806.7750, 10205.00
807.9140, 10329.00
809.0540, 10730.00
810.1930, 10962.00
811.3320, 10820.00
812.4710, 10646.00
813.6100, 10592.00
814.7480, 10194.00
815.8870, 10315.00
817.0250, 9988.000
818.1630, 10077.00
819.3010, 9928.000
820.4390, 9841.000
821.5760, 9866.000
822.7140, 9767.000
823.8510, 9805.000
824.9880, 9700.000
826.1250, 9690.000
827.2620, 9680.000
828.3990, 9666.000
829.5350, 9656.000
830.6710, 9633.000
831.8080, 9807.000
832.9440, 9794.000
834.0800, 9796.000
835.2150, 9690.000
836.3510, 9777.000
837.4860, 9905.000
838.6210, 9859.000
839.7560, 9897.000
840.8910, 9942.500
842.0260, 9946.199
843.1610, 10022.00
844.2950, 9960.000
845.4290, 10033.00
846.5640, 9944.000
847.6980, 10081.00
848.8310, 10025.00
849.9650, 9981.000
851.0980, 9977.000
852.2320, 10085.00
853.3650, 10083.00
854.4980, 10064.00
855.6310, 10177.00
856.7630, 10109.00
857.8960, 10158.00
859.0280, 10207.00
860.1610, 10364.00
861.2930, 10294.00
862.4240, 10402.00
863.5560, 10401.00
864.6880, 10198.00
865.8190, 10050.00
866.9500, 10217.00
868.0820, 9985.000
869.2120, 10072.00
870.3430, 10001.00
871.4740, 10030.00
872.6040, 9926.000
873.7350, 10020.00
874.8650, 10052.00
875.9950, 10076.00
877.1250, 10123.00
878.2540, 10029.00
879.3840, 10104.00
880.5130, 9998.000
881.6420, 9943.000
882.7710, 10072.00
883.9000, 10168.00
885.0290, 10148.00
886.1570, 10017.00
887.2860, 10099.00
888.4140, 10158.00
889.5420, 10179.00
890.6700, 10191.00
891.7980, 10252.86
892.9250, 10278.00
894.0530, 10307.00
895.1800, 10341.00
896.3070, 10351.40
897.4340, 10456.00
898.5610, 10362.00
899.6870, 10396.00
900.8140, 10378.00
901.9400, 10270.00
903.0660, 10283.00
904.1920, 10518.00
905.3180, 10342.00
906.4440, 10335.00
907.5690, 10170.00
908.6950, 10347.00
909.8200, 10251.00
910.9450, 10264.00
912.0700, 10202.00
913.1940, 10415.00
914.3190, 10225.00
915.4430, 10329.00
916.5680, 10473.00
917.6920, 10221.00
918.8150, 10335.00
919.9390, 10296.00
921.0630, 10375.00
922.1860, 10482.00
923.3100, 10287.00
924.4330, 10344.00
925.5560, 10185.00
926.6780, 10328.00
927.8010, 10107.00
928.9230, 10337.00
930.0460, 10393.00
931.1680, 10315.00
932.2900, 10232.00
933.4120, 10274.00
934.5330, 10208.00
935.6550, 10133.00
936.7760, 10205.00
937.8970, 10188.00
939.0180, 10183.00
940.1390, 10227.00
941.2600, 10090.00
942.3810, 10292.00
943.5010, 10207.00
944.6210, 10319.00
945.7410, 10153.00
946.8610, 10178.00
947.9810, 10160.00
949.1010, 10421.00
950.2200, 10209.00
951.3390, 10249.00
952.4580, 10280.00
953.5770, 10142.00
954.6960, 10280.00
955.8150, 10393.00
956.9330, 10442.00
958.0520, 10362.00
959.1700, 10254.00
960.2880, 10310.00
961.4050, 10361.00
962.5230, 10273.00
963.6410, 10395.00
964.7580, 10257.00
965.8750, 10305.00
966.9920, 10284.00
968.1090, 10265.00
969.2260, 10235.00
970.3420, 10171.00
971.4590, 10160.67
972.5750, 10132.58
973.6910, 10128.00
974.8070, 10094.00
975.9230, 10110.00
977.0380, 10075.00
978.1540, 10100.00
979.2690, 9983.000
980.3840, 10212.00
981.4990, 10084.00
982.6140, 9984.000
983.7280, 10181.00
984.8430, 10115.00
985.9570, 10202.00
987.0710, 10314.00
988.1850, 10250.00
989.2990, 10287.00
990.4130, 10357.00
991.5260, 10267.00
992.6400, 10307.00
993.7530, 10256.00
994.8660, 10351.00
995.9790, 10257.00
997.0910, 10350.00
998.2040, 10364.00
999.3160, 10515.00
1000.429, 10609.26
1001.541, 10579.00
1002.652, 10823.00
1003.764, 10952.00
1004.876, 10965.00
1005.987, 10657.00
1007.098, 10492.00
1008.210, 10603.00
1009.320, 10415.00
1010.431, 10332.00
1011.542, 10398.00
1012.652, 10385.00
1013.763, 10314.00
1014.873, 10381.00
1015.983, 10385.00
1017.093, 10394.00
1018.202, 10524.00
1019.312, 10483.00
1020.421, 10519.00
1021.530, 10538.00
1022.639, 10627.00
1023.748, 10557.00
1024.857, 10663.00
1025.965, 10800.00
1027.074, 10548.00
1028.182, 10671.00
1029.290, 10795.00
1030.398, 10654.00
1031.505, 10647.00
1032.613, 10612.00
1033.720, 10668.00
1034.828, 10552.00
1035.935, 10561.00
1037.042, 10673.00
1038.148, 10737.00
1039.255, 10614.00
1040.361, 10653.00
1041.468, 10654.00
1042.574, 10614.00
1043.680, 10711.00
1044.786, 10617.00
1045.891, 10654.00
1046.997, 10589.00
1048.102, 10681.00
1049.207, 10673.00
1050.312, 10905.00
1051.417, 10689.00
1052.522, 10720.00
1053.626, 10593.00
1054.730, 10804.00
1055.835, 10933.00
1056.939, 10787.00
1058.043, 10800.00
1059.146, 10714.00
1060.250, 10865.00
1061.353, 10711.00
1062.456, 10862.00
1063.559, 10863.00
1064.662, 10821.00
1065.765, 11058.00
1066.868, 10957.00
1067.970, 10891.00
1069.072, 10878.00
1070.174, 10871.57
1071.276, 10944.00
1072.378, 10934.00
1073.480, 11071.00
1074.581, 11106.00
1075.682, 11073.00
1076.784, 11235.00
1077.885, 11297.00
1078.985, 11332.00
1080.086, 11440.00
1081.187, 11777.00
1082.287, 11793.00
1083.387, 11937.00
1084.487, 12054.00
1085.587, 11768.00
1086.687, 11653.00
1087.786, 11507.00
1088.885, 11525.00
1089.985, 11420.68
1091.084, 11306.00
1092.182, 11362.00
1093.281, 11236.00
1094.380, 11283.00
1095.478, 11203.00
1096.576, 11170.00
1097.674, 11293.00
1098.772, 11268.00
1099.870, 11184.00
1100.968, 11398.00
1102.065, 11203.00
1103.162, 11176.00
1104.259, 11223.00
1105.356, 11088.00
1106.453, 11092.00
1107.550, 11297.00
1108.646, 11168.00
1109.743, 11188.00
1110.839, 11163.00
1111.935, 11150.05
1113.030, 11405.00
1114.126, 11207.00
1115.222, 11243.00
1116.317, 11327.00
1117.412, 11154.00
1118.507, 11292.00
1119.602, 11300.00
1120.697, 11278.00
1121.791, 11178.00
1122.885, 11268.00
1123.980, 11220.00
1125.074, 11230.00
1126.168, 11333.00
1127.261, 11295.29
1128.355, 11261.00
1129.448, 11320.00
1130.541, 11278.00
1131.635, 11296.00
1132.727, 11236.00
1133.820, 11437.00
1134.913, 11416.00
1136.005, 11526.00
1137.097, 11305.00
1138.190, 11496.00
1139.281, 11485.00
1140.373, 11549.00
1141.465, 11525.00
1142.556, 11537.00
1143.648, 11620.00
1144.739, 11701.00
1145.830, 11820.00
1146.921, 11804.00
1148.011, 11996.00
1149.102, 11962.00
1150.192, 12087.00
1151.282, 12329.00
1152.372, 12718.00
1153.462, 12758.00
1154.552, 13474.00
1155.641, 13752.00
1156.731, 14417.00
1157.820, 14864.00
1158.909, 15370.00
1159.998, 15417.00
1161.086, 15212.00
1162.175, 14836.00
1163.263, 14317.00
1164.351, 13688.00
1165.440, 13400.00
1166.527, 12879.00
1167.615, 12653.00
1168.703, 12452.00
1169.790, 12310.00
1170.877, 12199.00
1171.965, 12012.00
1173.051, 11977.00
1174.138, 11907.00
1175.225, 11803.00
1176.311, 11933.00
1177.398, 11853.00
1178.484, 11839.00
1179.570, 11713.00
1180.655, 11718.00
1181.741, 11599.00
1182.827, 11707.00
1183.912, 11749.00
1184.997, 11814.00
1186.082, 11753.00
1187.167, 11746.00
1188.251, 11735.00
1189.336, 11752.00
1190.420, 11736.00
1191.505, 11778.00
1192.589, 11782.00
1193.672, 12002.00
1194.756, 11763.00
1195.840, 11732.00
1196.923, 11924.00
1198.006, 11842.00
1199.089, 11949.00
1200.172, 11905.00
1201.255, 11907.00
1202.337, 11880.00
1203.420, 11933.00
1204.502, 12091.00
1205.584, 12005.00
1206.666, 12147.00
1207.748, 12014.00
1208.829, 12024.00
1209.911, 12089.00
1210.992, 12285.00
1212.073, 12187.00
1213.154, 12234.00
1214.235, 12215.00
1215.316, 12243.00
1216.396, 12274.00
1217.476, 12534.00
1218.556, 12514.00
1219.636, 12687.00
1220.716, 12715.00
1221.796, 13044.00
1222.875, 12973.00
1223.955, 13319.00
1225.034, 13457.00
1226.113, 13898.00
1227.192, 13834.00
1228.270, 14335.00
1229.349, 14346.00
1230.427, 14589.00
1231.505, 14773.00
1232.583, 14608.00
1233.661, 14580.00
1234.739, 14403.00
1235.817, 14047.00
1236.894, 14022.00
1237.971, 13776.00
1239.048, 13671.00
1240.125, 13385.00
1241.202, 13238.00
1242.278, 13149.00
1243.355, 12902.00
1244.431, 12968.00
1245.507, 12769.00
1246.583, 12873.00
1247.659, 12786.00
1248.734, 12756.00
1249.810, 12649.00
1250.885, 12626.00
1251.960, 12623.00
1253.035, 12611.00
1254.110, 12408.00
1255.185, 12454.00
1256.259, 12301.00
1257.333, 12375.00
1258.408, 12541.00
1259.482, 12332.00
1260.555, 12440.00
1261.629, 12515.00
1262.702, 12449.00
1263.776, 12362.00
1264.849, 12432.00
1265.922, 12466.00
1266.995, 12565.00
1268.068, 12493.00
1269.140, 12580.00
1270.212, 12588.00
1271.285, 12452.00
1272.357, 12460.00
1273.428, 12553.00
1274.500, 12442.00
1275.572, 12589.00
1276.643, 12614.00
1277.714, 12584.00
1278.785, 12768.00
1279.856, 12452.00
1280.927, 12482.00
1281.998, 12472.00
1283.068, 12471.00
1284.138, 12487.00
1285.208, 12351.00
1286.278, 12453.00
1287.348, 12372.00
1288.418, 12372.00
1289.487, 12481.00
1290.556, 12378.00
1291.625, 12481.00
1292.694, 12501.00
1293.763, 12456.00
1294.832, 12460.00
1295.900, 12472.00
1296.969, 12507.00
1298.037, 12480.62
1299.105, 12512.93
1300.172, 12445.00
1301.240, 12522.00
1302.308, 12522.00
1303.375, 12472.00
1304.442, 12487.00
1305.509, 12443.00
1306.576, 12472.00
1307.643, 12490.00
1308.709, 12626.00
1309.775, 12625.00
1310.842, 12685.00
1311.908, 12663.00
1312.974, 12706.00
1314.039, 12773.00
1315.105, 12646.00
1316.170, 12754.00
1317.235, 12705.00
1318.300, 12675.00
1319.365, 12750.00
1320.430, 12831.00
1321.495, 12804.00
1322.559, 12608.00
1323.623, 12618.00
1324.687, 12756.00
1325.751, 12673.00
1326.815, 12745.00
1327.879, 12801.00
1328.942, 12672.00
1330.005, 12707.00
1331.068, 12675.00
1332.131, 12536.00
1333.194, 12556.00
1334.257, 12627.00
1335.319, 12748.00
1336.381, 12591.00
1337.444, 12520.00
1338.505, 12581.00
1339.567, 12387.00
1340.629, 12619.00
1341.690, 12496.00
1342.752, 12681.00
1343.813, 12458.00
1344.874, 12632.00
1345.935, 12609.00
1346.995, 12608.00
1348.056, 12642.00
1349.116, 12552.00
1350.176, 12573.00
1351.236, 12674.00
1352.296, 12565.00
1353.356, 12630.00
1354.415, 12585.00
1355.475, 12600.00
1356.534, 12708.00
1357.593, 12724.00
1358.652, 12645.00
1359.711, 12590.00
1360.769, 12550.00
1361.827, 12543.00
1362.886, 12537.24
1363.944, 12569.88
1365.002, 12587.00
1366.059, 12641.00
1367.117, 12708.00
1368.174, 12687.00
1369.232, 12825.00
1370.289, 12841.00
1371.346, 12867.00
1372.402, 12753.00
1373.459, 12817.00
1374.515, 12795.00
1375.572, 12796.00
1376.628, 12833.00
1377.684, 12842.15
1378.740, 12873.00
1379.795, 12898.00
1380.851, 12988.00
1381.906, 13007.00
1382.961, 12849.00
1384.016, 13005.00
1385.071, 12865.00
1386.125, 12810.00
1387.180, 12940.00
1388.234, 12770.00
1389.288, 12895.00
1390.342, 13095.00
1391.396, 13079.00
1392.450, 12923.00
1393.503, 13067.00
1394.557, 13085.00
1395.610, 13015.00
1396.663, 13026.00
1397.716, 13043.00
1398.768, 12958.00
1399.821, 13051.00
1400.873, 13089.00
1401.925, 13050.00
1402.978, 13007.00
1404.029, 12924.00
1405.081, 13067.00
1406.133, 13105.00
1407.184, 13082.00
1408.235, 13036.00
1409.286, 12932.00
1410.337, 12969.00
1411.388, 12909.00
1412.439, 13003.00
1413.489, 13092.00
1414.539, 12976.00
1415.589, 13097.00
1416.639, 13039.00
1417.689, 13001.00
1418.738, 13050.00
1419.788, 13154.00
1420.837, 13023.00
1421.886, 13227.00
1422.935, 13133.00
1423.984, 13152.00
1425.033, 13155.00
1426.081, 13131.00
1427.129, 13213.00
1428.177, 13149.00
1429.225, 13179.00
1430.273, 13312.00
1431.321, 13181.00
1432.368, 13400.00
1433.416, 13428.00
1434.463, 13452.00
1435.510, 13453.00
1436.557, 13509.00
1437.603, 13430.00
1438.650, 13649.00
1439.696, 13581.00
1440.742, 13744.00
1441.788, 13731.00
1442.834, 13763.00
1443.880, 13729.00
1444.925, 13817.00
1445.971, 13843.00
1447.016, 13757.00
1448.061, 13929.00
1449.106, 13792.00
1450.150, 13962.00
1451.195, 14068.00
1452.239, 13960.00
1453.284, 14089.00
1454.328, 14127.00
1455.371, 14134.00
1456.415, 14219.00
1457.459, 14075.00
1458.502, 14182.00
1459.545, 14055.00
1460.588, 13959.00
1461.631, 14107.00
1462.674, 13908.00
1463.717, 14062.00
1464.759, 13910.00
1465.801, 13847.00
1466.843, 13879.00
1467.885, 13799.00
1468.927, 13667.00
1469.969, 13649.00
1471.010, 13662.00
1472.051, 13740.00
1473.093, 13843.00
1474.134, 13647.00
1475.174, 13784.00
1476.215, 13637.00
1477.255, 13755.00
1478.296, 13708.00
1479.336, 13574.00
1480.376, 13752.00
1481.416, 13719.00
1482.455, 13799.00
1483.495, 13635.00
1484.534, 13803.00
1485.573, 13556.00
1486.612, 13638.00
1487.651, 13767.00
1488.690, 13646.00
1489.728, 13558.00
1490.766, 13554.00
1491.805, 13490.04
1492.843, 13688.00
1493.881, 13516.00
1494.918, 13578.00
1495.956, 13734.00
1496.993, 13621.00
1498.030, 13691.00
1499.067, 13423.00
1500.104, 13528.00
1501.141, 13602.00
1502.177, 13436.00
1503.214, 13758.00
1504.250, 13676.00
1505.286, 13544.00
1506.322, 13638.00
1507.358, 13553.00
1508.393, 13732.00
1509.429, 13510.00
1510.464, 13707.00
1511.499, 13796.00
1512.534, 13655.00
1513.569, 13738.00
1514.603, 13546.00
1515.638, 13821.00
1516.672, 13811.00
1517.706, 13780.00
1518.740, 13690.00
1519.774, 13829.00
1520.807, 13759.00
1521.841, 13837.00
1522.874, 13689.00
1523.907, 13913.00
1524.940, 13720.00
1525.973, 13855.00
1527.005, 13826.00
1528.038, 13860.00
1529.070, 13793.00
1530.102, 13947.00
1531.134, 13879.00
1532.166, 13848.00
1533.198, 13934.00
1534.229, 13916.00
1535.260, 13918.00
1536.292, 13904.00
1537.323, 13951.00
1538.353, 13938.00
1539.384, 13814.00
1540.415, 14031.00
1541.445, 13934.00
1542.475, 14118.00
1543.505, 13936.00
1544.535, 14072.00
1545.565, 13894.00
1546.594, 13980.00
1547.623, 13841.00
1548.653, 13898.00
1549.682, 13990.00
1550.711, 14010.00
1551.739, 14018.85
1552.768, 14052.19
1553.796, 13961.00
1554.824, 14010.00
1555.852, 13934.00
1556.880, 13786.00
1557.908, 13957.00
1558.936, 13815.00
1559.963, 13939.00
1560.990, 14018.00
1562.017, 13982.00
1563.044, 13882.00
1564.071, 13959.00
1565.097, 13978.00
1566.124, 13976.00
1567.150, 13947.00
1568.176, 14178.00
1569.202, 14028.00
1570.228, 14105.00
1571.253, 14085.00
1572.279, 13889.00
1573.304, 14203.00
1574.329, 14032.00
1575.354, 14084.00
1576.379, 14306.00
1577.404, 14098.00
1578.428, 14075.00
##END=



