##NAMES=Quartz
##RRUFFID=R040031
##IDEAL CHEMISTRY=SiO_2_
##LOCALITY=Spruce Claim, King County, Washington, USA
##OWNER=RRUFF
##SOURCE=Bob Downs
##DESCRIPTION=Colorless hexagonal prism
##STATUS=The identification of this mineral has been confirmed by X-ray diffraction and chemical analysis
##URL=rruff.info/R040031
##MEASURED CHEMISTRY=Si_1.00_O_2_
##PIN_ID=L00425
##ORIENTATION=Laser parallel to b [0 1 0]. Fiducial mark perpendicular to laser is parallel to -c [0 0 -1]
94.86300, 4105.000
96.09600, 4231.000
97.32800, 4321.000
98.56000, 4420.000
99.79200, 4383.000
101.0240, 4698.000
102.2560, 4947.000
103.4880, 5137.000
104.7190, 5534.000
105.9500, 5970.000
107.1810, 8419.000
108.4120, 12773.00
109.6430, 14854.00
110.8740, 12852.00
112.1050, 8887.000
113.3350, 7575.000
114.5650, 7038.000
115.7950, 7543.000
117.0250, 8940.000
118.2550, 11037.00
119.4850, 11972.00
120.7140, 12760.00
121.9430, 14091.00
123.1730, 13438.00
124.4020, 12911.00
125.6310, 13677.00
126.8590, 15690.00
128.0880, 18733.00
129.3160, 22235.00
130.5450, 24778.00
131.7730, 24122.00
133.0010, 21228.00
134.2290, 17353.00
135.4560, 14110.00
136.6840, 11504.00
137.9110, 9727.000
139.1380, 8700.000
140.3650, 8075.000
141.5920, 7584.000
142.8190, 7407.000
144.0460, 7305.000
145.2720, 7309.000
146.4990, 7218.000
147.7250, 7197.362
148.9510, 7189.000
150.1770, 7116.000
151.4020, 7151.000
152.6280, 7042.000
153.8530, 7026.000
155.0790, 6926.000
156.3040, 6722.000
157.5290, 6620.000
158.7530, 6643.000
159.9780, 6626.000
161.2030, 6560.000
162.4270, 6717.000
163.6510, 6723.000
164.8750, 6769.000
166.0990, 6845.000
167.3230, 7013.000
168.5470, 7074.000
169.7700, 6940.000
170.9930, 7201.000
172.2160, 7177.000
173.4390, 7414.000
174.6620, 7644.000
175.8850, 7867.000
177.1080, 8180.000
178.3300, 8408.934
179.5520, 8553.000
180.7740, 8921.000
181.9960, 9262.000
183.2180, 9505.000
184.4400, 9993.000
185.6610, 10383.00
186.8820, 11075.00
188.1040, 11746.00
189.3250, 12352.00
190.5450, 13329.00
191.7660, 14158.00
192.9870, 15099.00
194.2070, 16439.00
195.4270, 17662.00
196.6480, 19289.00
197.8680, 20747.00
199.0870, 22371.00
200.3070, 24342.00
201.5270, 25812.00
202.7460, 27584.00
203.9650, 29228.00
205.1840, 30737.00
206.4030, 31702.00
207.6220, 32448.00
208.8400, 32523.00
210.0590, 32304.00
211.2770, 31554.00
212.4950, 30740.00
213.7130, 29483.00
214.9310, 27954.00
216.1490, 26257.00
217.3660, 24571.00
218.5840, 22710.00
219.8010, 21156.00
221.0180, 19635.00
222.2350, 18081.00
223.4520, 16942.00
224.6680, 15612.00
225.8850, 14810.00
227.1010, 13911.00
228.3170, 13049.00
229.5330, 12348.00
230.7490, 11710.00
231.9650, 11170.00
233.1810, 10529.00
234.3960, 10304.00
235.6110, 9879.000
236.8260, 9289.000
238.0410, 9186.000
239.2560, 8950.000
240.4710, 8612.000
241.6850, 8382.000
242.9000, 8148.000
244.1140, 8008.000
245.3280, 7989.000
246.5420, 7773.000
247.7550, 7494.000
248.9690, 7534.000
250.1820, 7420.000
251.3960, 7284.000
252.6090, 7386.000
253.8220, 7370.000
255.0350, 7231.000
256.2470, 7376.000
257.4600, 7361.000
258.6720, 7497.000
259.8840, 7768.000
261.0960, 8115.000
262.3080, 8306.000
263.5200, 9037.000
264.7320, 9791.000
265.9430, 10626.00
267.1540, 10781.00
268.3650, 10232.00
269.5760, 9433.000
270.7870, 8420.000
271.9980, 7810.781
273.2080, 7141.354
274.4190, 6436.000
275.6290, 6210.000
276.8390, 5825.000
278.0490, 5725.000
279.2590, 5656.000
280.4680, 5568.000
281.6780, 5447.000
282.8870, 5453.000
284.0960, 5300.000
285.3050, 5489.000
286.5140, 5280.000
287.7230, 5326.000
288.9310, 5198.000
290.1400, 5194.000
291.3480, 5271.000
292.5560, 5184.000
293.7640, 5161.000
294.9720, 5057.000
296.1790, 5070.000
297.3870, 5046.000
298.5940, 5085.000
299.8010, 5133.000
301.0080, 5026.000
302.2150, 5067.000
303.4220, 5025.000
304.6290, 4946.000
305.8350, 4893.000
307.0410, 4916.173
308.2470, 4918.042
309.4530, 4987.000
310.6590, 4996.000
311.8650, 5038.000
313.0700, 5048.000
314.2750, 5033.000
315.4810, 4957.000
316.6860, 4987.000
317.8900, 4988.000
319.0950, 4944.000
320.3000, 5042.000
321.5040, 5008.000
322.7080, 4981.000
323.9120, 5014.000
325.1160, 4903.000
326.3200, 5040.000
327.5240, 4941.000
328.7270, 4956.000
329.9310, 4952.000
331.1340, 4905.000
332.3370, 4943.000
333.5400, 5024.000
334.7420, 5035.000
335.9450, 4999.000
337.1470, 5063.000
338.3500, 5051.000
339.5520, 5120.000
340.7540, 5077.000
341.9550, 5203.000
343.1570, 5256.000
344.3590, 5353.000
345.5600, 5420.000
346.7610, 5602.000
347.9620, 5850.000
349.1630, 6023.000
350.3640, 6639.000
351.5640, 7245.000
352.7650, 7999.000
353.9650, 9303.000
355.1650, 10892.00
356.3650, 12215.00
357.5650, 12411.00
358.7640, 11202.00
359.9640, 9654.000
361.1630, 8298.000
362.3620, 7172.000
363.5610, 6462.000
364.7600, 5977.000
365.9590, 5711.000
367.1580, 5528.000
368.3560, 5336.000
369.5540, 5286.000
370.7520, 5238.000
371.9500, 5289.000
373.1480, 5283.000
374.3460, 5164.000
375.5430, 5101.000
376.7410, 5091.000
377.9380, 5071.000
379.1350, 5122.000
380.3320, 5132.000
381.5280, 5155.000
382.7250, 5073.000
383.9210, 5192.000
385.1180, 5072.000
386.3140, 5174.000
387.5100, 5263.000
388.7050, 5326.000
389.9010, 5375.838
391.0960, 5450.000
392.2920, 5449.000
393.4870, 5518.000
394.6820, 5582.000
395.8770, 5733.000
397.0720, 5736.000
398.2660, 5930.000
399.4610, 6152.000
400.6550, 6556.000
401.8490, 7150.000
403.0430, 7780.000
404.2370, 8358.000
405.4300, 8252.000
406.6240, 7565.000
407.8170, 6916.000
409.0100, 6364.000
410.2030, 6038.000
411.3960, 5761.000
412.5890, 5699.000
413.7810, 5534.000
414.9740, 5623.000
416.1660, 5435.000
417.3580, 5588.000
418.5500, 5423.000
419.7420, 5532.000
420.9330, 5637.000
422.1250, 5660.000
423.3160, 5705.000
424.5070, 5726.000
425.6980, 5778.763
426.8890, 5859.000
428.0800, 5886.000
429.2700, 5930.000
430.4610, 5989.000
431.6510, 6017.000
432.8410, 6083.000
434.0310, 6167.000
435.2210, 6331.000
436.4100, 6559.000
437.6000, 6685.000
438.7890, 6783.000
439.9780, 6865.000
441.1670, 7191.000
442.3560, 7410.000
443.5450, 7833.000
444.7330, 8184.000
445.9210, 8672.000
447.1100, 9320.000
448.2980, 9959.000
449.4860, 10797.00
450.6730, 11861.00
451.8610, 13430.00
453.0480, 15496.00
454.2360, 18063.00
455.4230, 21611.00
456.6100, 26183.00
457.7970, 32126.00
458.9830, 39515.00
460.1700, 49349.00
461.3560, 61730.00
462.5420, 76752.00
463.7280, 93765.00
464.9140, 108205.0
466.1000, 115765.0
467.2850, 112929.0
468.4710, 101755.0
469.6560, 85443.00
470.8410, 69330.00
472.0260, 55367.00
473.2110, 44429.00
474.3960, 36030.00
475.5800, 29705.00
476.7640, 25398.00
477.9490, 21982.00
479.1330, 19183.00
480.3160, 17481.00
481.5000, 15815.00
482.6840, 14763.00
483.8670, 13616.00
485.0500, 12770.00
486.2330, 12137.00
487.4160, 11491.00
488.5990, 11139.00
489.7820, 10595.00
490.9640, 10402.00
492.1470, 9998.000
493.3290, 9542.000
494.5110, 9520.000
495.6930, 9214.000
496.8740, 8982.000
498.0560, 8810.000
499.2370, 8852.000
500.4180, 8595.000
501.5990, 8573.000
502.7800, 8773.000
503.9610, 8618.000
505.1420, 8767.000
506.3220, 8827.000
507.5020, 9046.000
508.6820, 9165.000
509.8620, 9192.000
511.0420, 8922.000
512.2220, 8539.000
513.4010, 8114.000
514.5810, 7816.000
515.7600, 7562.000
516.9390, 7372.000
518.1180, 7365.000
519.2970, 7177.000
520.4750, 6990.000
521.6540, 7095.000
522.8320, 6999.000
524.0100, 6912.000
525.1880, 6898.000
526.3660, 6785.000
527.5430, 6857.000
528.7210, 6691.000
529.8980, 6700.000
531.0750, 6649.000
532.2520, 6758.000
533.4290, 6712.000
534.6060, 6790.000
535.7820, 6685.000
536.9590, 6767.000
538.1350, 6608.000
539.3110, 6574.000
540.4870, 6584.000
541.6630, 6531.000
542.8380, 6450.000
544.0140, 6535.000
545.1890, 6399.000
546.3640, 6555.000
547.5390, 6428.000
548.7140, 6488.000
549.8890, 6491.000
551.0630, 6446.000
552.2380, 6343.000
553.4120, 6294.000
554.5860, 6367.000
555.7600, 6316.000
556.9330, 6341.000
558.1070, 6363.000
559.2800, 6329.000
560.4540, 6271.000
561.6270, 6316.000
562.8000, 6221.000
563.9730, 6233.646
565.1450, 6229.000
566.3180, 6230.000
567.4900, 6238.000
568.6620, 6268.000
569.8340, 6317.000
571.0060, 6323.204
572.1780, 6286.000
573.3490, 6353.000
574.5210, 6258.000
575.6920, 6252.000
576.8630, 6321.000
578.0340, 6242.000
579.2050, 6257.000
580.3750, 6221.000
581.5460, 6236.000
582.7160, 6333.000
583.8860, 6199.000
585.0560, 6287.000
586.2260, 6329.000
587.3960, 6180.000
588.5650, 6337.000
589.7340, 6367.000
590.9040, 6335.000
592.0730, 6338.000
593.2410, 6349.000
594.4100, 6315.000
595.5790, 6309.000
596.7470, 6300.341
597.9150, 6291.459
599.0840, 6280.000
600.2510, 6288.000
601.4190, 6279.000
602.5870, 6273.000
603.7540, 6285.000
604.9220, 6281.000
606.0890, 6282.000
607.2560, 6212.000
608.4230, 6287.000
609.5890, 6284.000
610.7560, 6254.000
611.9220, 6413.000
613.0880, 6159.000
614.2540, 6262.000
615.4200, 6235.000
616.5860, 6331.000
617.7520, 6374.000
618.9170, 6389.000
620.0820, 6259.000
621.2480, 6204.000
622.4120, 6211.000
623.5770, 6306.000
624.7420, 6307.000
625.9060, 6263.000
627.0710, 6317.000
628.2350, 6358.000
629.3990, 6305.000
630.5630, 6367.000
631.7260, 6386.000
632.8900, 6339.000
634.0530, 6272.000
635.2170, 6268.000
636.3800, 6210.000
637.5430, 6234.000
638.7050, 6357.000
639.8680, 6242.000
641.0300, 6369.000
642.1930, 6417.000
643.3550, 6304.000
644.5170, 6384.000
645.6790, 6388.000
646.8400, 6376.000
648.0020, 6322.000
649.1630, 6316.000
650.3240, 6345.000
651.4850, 6395.000
652.6460, 6439.000
653.8070, 6328.000
654.9670, 6320.000
656.1280, 6361.000
657.2880, 6396.000
658.4480, 6391.000
659.6080, 6321.000
660.7680, 6282.000
661.9270, 6264.000
663.0870, 6234.485
664.2460, 6288.000
665.4050, 6227.000
666.5640, 6253.000
667.7230, 6280.000
668.8820, 6237.000
670.0400, 6274.663
671.1990, 6300.000
672.3570, 6295.000
673.5150, 6326.000
674.6730, 6323.611
675.8310, 6300.000
676.9880, 6398.000
678.1450, 6444.000
679.3030, 6502.000
680.4600, 6507.000
681.6170, 6439.000
682.7740, 6408.000
683.9300, 6473.000
685.0870, 6519.000
686.2430, 6496.000
687.3990, 6667.000
688.5550, 6628.000
689.7110, 6638.000
690.8670, 6776.000
692.0220, 6878.000
693.1770, 6861.000
694.3330, 6973.000
695.4880, 7196.000
696.6430, 7230.000
697.7970, 7456.000
698.9520, 7535.000
700.1060, 7471.000
701.2600, 7369.000
702.4150, 7148.000
703.5690, 7051.000
704.7220, 6968.000
705.8760, 6745.000
707.0290, 6818.000
708.1830, 6729.000
709.3360, 6699.000
710.4890, 6694.000
711.6420, 6661.000
712.7940, 6732.000
713.9470, 6591.000
715.0990, 6561.000
716.2510, 6671.000
717.4030, 6460.000
718.5550, 6520.000
719.7070, 6639.000
720.8590, 6655.000
722.0100, 6610.000
723.1610, 6584.000
724.3120, 6562.000
725.4630, 6649.000
726.6140, 6718.000
727.7650, 6704.962
728.9150, 6711.000
730.0650, 6709.000
731.2160, 6696.430
732.3660, 6693.815
733.5150, 6683.000
734.6650, 6682.161
735.8150, 6697.000
736.9640, 6708.000
738.1130, 6766.000
739.2620, 6703.000
740.4110, 6639.000
741.5600, 6679.000
742.7080, 6696.000
743.8570, 6706.000
745.0050, 6688.000
746.1530, 6777.000
747.3010, 6713.000
748.4490, 6822.000
749.5960, 6765.000
750.7440, 6767.000
751.8910, 6805.000
753.0380, 6900.000
754.1850, 6816.000
755.3320, 6744.000
756.4790, 6789.000
757.6250, 6708.000
758.7720, 6767.000
759.9180, 6840.000
761.0640, 6803.000
762.2100, 6766.000
763.3550, 6876.000
764.5010, 6867.000
765.6460, 6901.000
766.7920, 6990.000
767.9370, 6961.000
769.0820, 6827.000
770.2260, 6950.000
771.3710, 6850.000
772.5150, 6817.000
773.6600, 6929.000
774.8040, 6919.000
775.9480, 7057.000
777.0910, 7006.000
778.2350, 6993.000
779.3790, 6986.000
780.5220, 6930.000
781.6650, 6952.000
782.8080, 7004.000
783.9510, 7099.000
785.0940, 7110.000
786.2360, 7156.000
787.3790, 7127.000
788.5210, 7192.000
789.6630, 7166.000
790.8050, 7163.000
791.9470, 7210.000
793.0880, 7259.305
794.2300, 7373.000
795.3710, 7398.000
796.5120, 7495.000
797.6530, 7511.000
798.7940, 7641.000
799.9340, 7814.000
801.0750, 7843.000
802.2150, 8086.000
803.3550, 8257.000
804.4950, 8554.000
805.6350, 8916.000
806.7750, 9400.000
807.9140, 9974.000
809.0540, 10561.00
810.1930, 10629.00
811.3320, 10361.00
812.4710, 10104.00
813.6100, 9432.000
814.7480, 9035.000
815.8870, 8554.000
817.0250, 8410.000
818.1630, 8092.000
819.3010, 8057.000
820.4390, 7745.000
821.5760, 7784.000
822.7140, 7692.000
823.8510, 7666.000
824.9880, 7574.000
826.1250, 7650.000
827.2620, 7589.000
828.3990, 7579.000
829.5350, 7509.000
830.6710, 7506.000
831.8080, 7586.000
832.9440, 7512.000
834.0800, 7541.000
835.2150, 7468.000
836.3510, 7506.000
837.4860, 7534.000
838.6210, 7564.000
839.7560, 7576.132
840.8910, 7587.915
842.0260, 7606.000
843.1610, 7618.000
844.2950, 7665.000
845.4290, 7733.000
846.5640, 7556.000
847.6980, 7777.000
848.8310, 7681.000
849.9650, 7661.000
851.0980, 7789.000
852.2320, 7781.000
853.3650, 7806.000
854.4980, 7829.000
855.6310, 7860.029
856.7630, 7847.000
857.8960, 7933.000
859.0280, 7932.000
860.1610, 7941.000
861.2930, 8008.000
862.4240, 7980.000
863.5560, 8041.000
864.6880, 8000.550
865.8190, 7861.000
866.9500, 7910.000
868.0820, 7782.000
869.2120, 7710.000
870.3430, 7636.000
871.4740, 7632.000
872.6040, 7595.621
873.7350, 7591.618
874.8650, 7593.000
875.9950, 7665.000
877.1250, 7692.000
878.2540, 7723.282
879.3840, 7772.364
880.5130, 7792.000
881.6420, 7812.000
882.7710, 7851.000
883.9000, 7854.763
885.0290, 7887.100
886.1570, 7876.000
887.2860, 7907.000
888.4140, 7927.000
889.5420, 7873.000
890.6700, 7918.605
891.7980, 7866.000
892.9250, 7967.000
894.0530, 7954.000
895.1800, 8003.000
896.3070, 7919.000
897.4340, 8026.000
898.5610, 8003.000
899.6870, 7839.000
900.8140, 8072.000
901.9400, 7940.000
903.0660, 7854.000
904.1920, 8013.000
905.3180, 7960.000
906.4440, 7798.000
907.5690, 7980.000
908.6950, 7794.000
909.8200, 7848.000
910.9450, 8084.000
912.0700, 8017.000
913.1940, 7872.000
914.3190, 7874.000
915.4430, 7915.000
916.5680, 7934.000
917.6920, 7848.000
918.8150, 7896.000
919.9390, 7897.000
921.0630, 8054.000
922.1860, 7968.000
923.3100, 7991.000
924.4330, 7977.000
925.5560, 7985.000
926.6780, 7862.000
927.8010, 7880.000
928.9230, 8008.000
930.0460, 7892.000
931.1680, 7922.000
932.2900, 8007.000
933.4120, 7882.000
934.5330, 7906.000
935.6550, 7883.000
936.7760, 8054.000
937.8970, 7974.000
939.0180, 7940.000
940.1390, 7754.000
941.2600, 7949.000
942.3810, 7951.000
943.5010, 7944.000
944.6210, 7916.000
945.7410, 7877.000
946.8610, 7889.871
947.9810, 7927.000
949.1010, 7898.000
950.2200, 7898.000
951.3390, 7889.000
952.4580, 7943.000
953.5770, 7852.000
954.6960, 8000.000
955.8150, 7959.000
956.9330, 7931.000
958.0520, 7816.000
959.1700, 8048.000
960.2880, 7872.000
961.4050, 7895.000
962.5230, 8022.000
963.6410, 7936.000
964.7580, 7786.000
965.8750, 7958.000
966.9920, 7881.000
968.1090, 7959.000
969.2260, 7956.000
970.3420, 7998.000
971.4590, 8040.000
972.5750, 7950.000
973.6910, 7926.000
974.8070, 7940.000
975.9230, 7830.000
977.0380, 7846.000
978.1540, 7886.000
979.2690, 7841.000
980.3840, 7981.000
981.4990, 7961.000
982.6140, 7946.000
983.7280, 7929.000
984.8430, 7963.000
985.9570, 7947.000
987.0710, 8167.000
988.1850, 7984.000
989.2990, 8124.000
990.4130, 8155.000
991.5260, 8014.000
992.6400, 8070.000
993.7530, 8034.000
994.8660, 8071.000
995.9790, 8043.000
997.0910, 8063.000
998.2040, 8148.000
999.3160, 8191.000
1000.429, 8176.000
1001.541, 8373.000
1002.652, 8586.000
1003.764, 8637.000
1004.876, 8620.000
1005.987, 8436.000
1007.098, 8338.000
1008.210, 8215.000
1009.320, 8066.000
1010.431, 8134.000
1011.542, 8050.000
1012.652, 8244.000
1013.763, 8108.000
1014.873, 8113.000
1015.983, 8131.000
1017.093, 8099.000
1018.202, 8165.000
1019.312, 8237.000
1020.421, 8264.000
1021.530, 8347.000
1022.639, 8299.000
1023.748, 8414.000
1024.857, 8416.000
1025.965, 8442.000
1027.074, 8318.000
1028.182, 8398.000
1029.290, 8415.000
1030.398, 8474.000
1031.505, 8465.000
1032.613, 8391.000
1033.720, 8356.000
1034.828, 8311.000
1035.935, 8385.000
1037.042, 8554.000
1038.148, 8359.000
1039.255, 8208.000
1040.361, 8447.000
1041.468, 8353.000
1042.574, 8408.000
1043.680, 8390.000
1044.786, 8491.000
1045.891, 8478.000
1046.997, 8486.000
1048.102, 8304.000
1049.207, 8468.000
1050.312, 8398.000
1051.417, 8372.000
1052.522, 8459.000
1053.626, 8480.000
1054.730, 8456.000
1055.835, 8597.000
1056.939, 8374.000
1058.043, 8536.000
1059.146, 8534.000
1060.250, 8575.000
1061.353, 8639.000
1062.456, 8667.000
1063.559, 8518.000
1064.662, 8555.000
1065.765, 8558.000
1066.868, 8698.000
1067.970, 8728.000
1069.072, 8668.000
1070.174, 8846.000
1071.276, 8850.000
1072.378, 8787.000
1073.480, 8938.000
1074.581, 9075.000
1075.682, 9181.000
1076.784, 9272.000
1077.885, 9649.000
1078.985, 9797.000
1080.086, 10257.00
1081.187, 10529.00
1082.287, 10923.00
1083.387, 11323.00
1084.487, 10989.00
1085.587, 10908.00
1086.687, 10452.00
1087.786, 9902.000
1088.885, 9848.000
1089.985, 9467.000
1091.084, 9288.000
1092.182, 9210.000
1093.281, 9041.000
1094.380, 8980.000
1095.478, 8907.000
1096.576, 8969.000
1097.674, 8951.000
1098.772, 8949.000
1099.870, 8890.000
1100.968, 8906.000
1102.065, 8835.000
1103.162, 8968.000
1104.259, 8864.000
1105.356, 8872.000
1106.453, 8934.000
1107.550, 8875.000
1108.646, 8970.000
1109.743, 9009.000
1110.839, 8928.000
1111.935, 8969.000
1113.030, 8942.000
1114.126, 8980.000
1115.222, 8870.000
1116.317, 8858.000
1117.412, 8923.000
1118.507, 9011.000
1119.602, 8978.000
1120.697, 9007.000
1121.791, 8904.000
1122.885, 9009.000
1123.980, 8854.000
1125.074, 9074.000
1126.168, 8928.000
1127.261, 8862.000
1128.355, 8941.000
1129.448, 9030.000
1130.541, 9057.000
1131.635, 9096.092
1132.727, 9102.455
1133.820, 9117.000
1134.913, 9073.000
1136.005, 9067.000
1137.097, 9043.000
1138.190, 9112.000
1139.281, 9281.000
1140.373, 9123.000
1141.465, 9068.000
1142.556, 9256.000
1143.648, 9220.000
1144.739, 9211.000
1145.830, 9289.000
1146.921, 9322.000
1148.011, 9321.000
1149.102, 9561.000
1150.192, 9534.000
1151.282, 9657.000
1152.372, 9911.000
1153.462, 9989.000
1154.552, 10392.00
1155.641, 10406.00
1156.731, 10960.00
1157.820, 11444.00
1158.909, 11497.00
1159.998, 11518.00
1161.086, 11475.00
1162.175, 11120.00
1163.263, 10697.00
1164.351, 10515.00
1165.440, 10138.00
1166.527, 9863.000
1167.615, 9881.000
1168.703, 9786.000
1169.790, 9698.000
1170.877, 9537.000
1171.965, 9574.000
1173.051, 9654.000
1174.138, 9510.000
1175.225, 9395.000
1176.311, 9486.000
1177.398, 9432.000
1178.484, 9480.000
1179.570, 9513.000
1180.655, 9593.000
1181.741, 9525.000
1182.827, 9576.070
1183.912, 9429.000
1184.997, 9557.000
1186.082, 9482.000
1187.167, 9389.000
1188.251, 9409.000
1189.336, 9388.530
1190.420, 9513.000
1191.505, 9445.000
1192.589, 9492.000
1193.672, 9538.000
1194.756, 9459.000
1195.840, 9506.000
1196.923, 9458.000
1198.006, 9449.364
1199.089, 9550.000
1200.172, 9475.000
1201.255, 9543.000
1202.337, 9655.000
1203.420, 9766.000
1204.502, 9719.000
1205.584, 9678.000
1206.666, 9758.000
1207.748, 9722.000
1208.829, 9751.000
1209.911, 9708.000
1210.992, 9689.000
1212.073, 9615.000
1213.154, 9793.000
1214.235, 9752.000
1215.316, 9933.000
1216.396, 9857.000
1217.476, 9852.000
1218.556, 10066.00
1219.636, 10044.00
1220.716, 10006.00
1221.796, 10149.00
1222.875, 10226.00
1223.955, 10297.00
1225.034, 10322.00
1226.113, 10534.00
1227.192, 10595.00
1228.270, 10821.00
1229.349, 10781.00
1230.427, 10811.00
1231.505, 11095.00
1232.583, 11089.00
1233.661, 10969.00
1234.739, 10929.00
1235.817, 10867.87
1236.894, 10922.00
1237.971, 10702.00
1239.048, 10620.00
1240.125, 10446.00
1241.202, 10446.00
1242.278, 10394.00
1243.355, 10283.00
1244.431, 10320.00
1245.507, 10188.00
1246.583, 10255.00
1247.659, 10290.00
1248.734, 10257.00
1249.810, 10357.00
1250.885, 10246.00
1251.960, 10205.00
1253.035, 10169.00
1254.110, 10296.00
1255.185, 10063.00
1256.259, 10179.00
1257.333, 10204.00
1258.408, 10146.00
1259.482, 9930.000
1260.555, 10218.00
1261.629, 10070.00
1262.702, 10197.00
1263.776, 10239.00
1264.849, 10224.00
1265.922, 10251.00
1266.995, 10211.00
1268.068, 10227.20
1269.140, 10258.90
1270.212, 10250.00
1271.285, 10326.00
1272.357, 10375.00
1273.428, 10385.00
1274.500, 10184.00
1275.572, 10433.00
1276.643, 10231.00
1277.714, 10362.00
1278.785, 10310.00
1279.856, 10292.00
1280.927, 10294.00
1281.998, 10215.00
1283.068, 10346.00
1284.138, 10238.00
1285.208, 10077.00
1286.278, 10171.00
1287.348, 10244.00
1288.418, 10271.00
1289.487, 10229.00
1290.556, 10284.00
1291.625, 10248.00
1292.694, 10386.00
1293.763, 10427.00
1294.832, 10454.00
1295.900, 10462.00
1296.969, 10506.88
1298.037, 10286.00
1299.105, 10513.00
1300.172, 10450.00
1301.240, 10306.00
1302.308, 10379.00
1303.375, 10361.00
1304.442, 10454.00
1305.509, 10372.00
1306.576, 10469.00
1307.643, 10510.00
1308.709, 10462.00
1309.775, 10454.00
1310.842, 10543.00
1311.908, 10493.00
1312.974, 10343.00
1314.039, 10622.00
1315.105, 10397.00
1316.170, 10559.00
1317.235, 10509.00
1318.300, 10427.00
1319.365, 10534.00
1320.430, 10543.00
1321.495, 10513.00
1322.559, 10497.00
1323.623, 10618.00
1324.687, 10540.00
1325.751, 10611.00
1326.815, 10577.00
1327.879, 10583.00
1328.942, 10544.00
1330.005, 10656.00
1331.068, 10651.00
1332.131, 10415.00
1333.194, 10416.00
1334.257, 10501.00
1335.319, 10553.00
1336.381, 10548.00
1337.444, 10569.00
1338.505, 10616.00
1339.567, 10377.00
1340.629, 10482.00
1341.690, 10409.00
1342.752, 10544.00
1343.813, 10474.00
1344.874, 10432.00
1345.935, 10552.00
1346.995, 10490.00
1348.056, 10580.00
1349.116, 10576.00
1350.176, 10582.00
1351.236, 10608.00
1352.296, 10553.00
1353.356, 10645.00
1354.415, 10467.00
1355.475, 10562.00
1356.534, 10622.00
1357.593, 10595.00
1358.652, 10492.00
1359.711, 10629.00
1360.769, 10608.00
1361.827, 10566.00
1362.886, 10654.00
1363.944, 10571.00
1365.002, 10609.00
1366.059, 10654.00
1367.117, 10668.00
1368.174, 10684.00
1369.232, 10612.00
1370.289, 10626.00
1371.346, 10727.00
1372.402, 10713.00
1373.459, 10780.00
1374.515, 10737.00
1375.572, 10720.00
1376.628, 10702.00
1377.684, 10841.00
1378.740, 10899.00
1379.795, 10992.00
1380.851, 10725.00
1381.906, 10851.00
1382.961, 10820.00
1384.016, 10842.00
1385.071, 10834.00
1386.125, 10768.00
1387.180, 10828.00
1388.234, 10793.00
1389.288, 10888.00
1390.342, 10830.00
1391.396, 10924.00
1392.450, 10925.00
1393.503, 10901.00
1394.557, 10889.00
1395.610, 11012.00
1396.663, 10942.00
1397.716, 10869.00
1398.768, 10788.00
1399.821, 11017.00
1400.873, 10940.00
1401.925, 10949.00
1402.978, 10907.00
1404.029, 10869.00
1405.081, 10880.04
1406.133, 10898.00
1407.184, 10905.00
1408.235, 10962.00
1409.286, 10936.74
1410.337, 11038.00
1411.388, 10910.00
1412.439, 10879.00
1413.489, 10869.00
1414.539, 10952.00
1415.589, 10976.00
1416.639, 11095.00
1417.689, 11032.00
1418.738, 10954.00
1419.788, 10934.00
1420.837, 10998.00
1421.886, 11245.00
1422.935, 11094.00
1423.984, 11096.00
1425.033, 10973.00
1426.081, 10964.00
1427.129, 11128.00
1428.177, 11185.00
1429.225, 11182.00
1430.273, 11227.00
1431.321, 11125.00
1432.368, 11084.00
1433.416, 11163.00
1434.463, 11360.00
1435.510, 11307.00
1436.557, 11422.00
1437.603, 11528.00
1438.650, 11497.00
1439.696, 11620.00
1440.742, 11719.00
1441.788, 11645.00
1442.834, 11682.00
1443.880, 11721.00
1444.925, 11849.00
1445.971, 11854.00
1447.016, 11863.00
1448.061, 11983.00
1449.106, 11934.00
1450.150, 12082.00
1451.195, 12061.00
1452.239, 11998.00
1453.284, 12125.00
1454.328, 12096.00
1455.371, 12039.00
1456.415, 12146.00
1457.459, 12130.00
1458.502, 12005.00
1459.545, 12002.00
1460.588, 12096.00
1461.631, 11963.00
1462.674, 11931.00
1463.717, 11826.00
1464.759, 11660.00
1465.801, 11854.00
1466.843, 11698.00
1467.885, 11780.00
1468.927, 11572.00
1469.969, 11631.00
1471.010, 11717.00
1472.051, 11665.00
1473.093, 11570.00
1474.134, 11629.00
1475.174, 11512.00
1476.215, 11651.00
1477.255, 11718.00
1478.296, 11625.00
1479.336, 11753.00
1480.376, 11571.00
1481.416, 11537.00
1482.455, 11662.00
1483.495, 11561.00
1484.534, 11578.00
1485.573, 11635.00
1486.612, 11511.00
1487.651, 11735.00
1488.690, 11436.00
1489.728, 11534.00
1490.766, 11480.00
1491.805, 11564.00
1492.843, 11445.00
1493.881, 11507.00
1494.918, 11440.00
1495.956, 11472.00
1496.993, 11535.00
1498.030, 11482.00
1499.067, 11520.00
1500.104, 11484.00
1501.141, 11508.00
1502.177, 11459.00
1503.214, 11457.00
1504.250, 11620.00
1505.286, 11550.00
1506.322, 11562.00
1507.358, 11496.00
1508.393, 11527.00
1509.429, 11509.00
1510.464, 11546.00
1511.499, 11537.00
1512.534, 11552.64
1513.569, 11583.31
1514.603, 11587.00
1515.638, 11628.00
1516.672, 11660.00
1517.706, 11652.00
1518.740, 11612.00
1519.774, 11651.00
1520.807, 11594.00
1521.841, 11604.00
1522.874, 11637.00
1523.907, 11732.00
1524.940, 11693.00
1525.973, 11831.00
1527.005, 11647.00
1528.038, 11738.00
1529.070, 11664.00
1530.102, 11722.00
1531.134, 11701.00
1532.166, 11826.00
1533.198, 11644.00
1534.229, 11852.00
1535.260, 11741.00
1536.292, 11725.00
1537.323, 11834.00
1538.353, 11732.00
1539.384, 11864.00
1540.415, 11878.00
1541.445, 11749.00
1542.475, 11915.00
1543.505, 11766.00
1544.535, 11840.00
1545.565, 11790.00
1546.594, 11845.00
1547.623, 11722.00
1548.653, 11871.00
1549.682, 11910.00
1550.711, 11743.00
1551.739, 11816.00
1552.768, 11912.00
1553.796, 11730.00
1554.824, 11635.00
1555.852, 11821.00
1556.880, 11897.00
1557.908, 11813.00
1558.936, 11815.00
1559.963, 11825.00
1560.990, 11709.00
1562.017, 11916.00
1563.044, 11843.00
1564.071, 11927.00
1565.097, 12043.00
1566.124, 11926.00
1567.150, 11863.00
1568.176, 11997.00
1569.202, 11887.00
1570.228, 11915.00
1571.253, 11914.00
1572.279, 11921.00
1573.304, 12031.00
1574.329, 12024.00
1575.354, 11826.00
1576.379, 12024.00
1577.404, 12076.00
1578.428, 11958.00
##END=



