##NAMES=Quartz
##RRUFFID=R040031
##IDEAL CHEMISTRY=SiO_2_
##LOCALITY=Spruce Claim, King County, Washington, USA
##OWNER=RRUFF
##SOURCE=Bob Downs
##DESCRIPTION=Colorless hexagonal prism
##STATUS=The identification of this mineral has been confirmed by X-ray diffraction and chemical analysis
##URL=rruff.info/R040031
##MEASURED CHEMISTRY=Si_1.00_O_2_
##PIN_ID=L00425
##ORIENTATION=Laser parallel to b [0 1 0]. Fiducial mark perpendicular to laser is parallel to -c [0 0 -1]
94.86300, 9147.000
96.09600, 9240.000
97.32800, 9437.000
98.56000, 9385.000
99.79200, 9243.000
101.0240, 9457.000
102.2560, 9727.000
103.4880, 10167.00
104.7190, 10471.00
105.9500, 10950.00
107.1810, 12194.00
108.4120, 14381.00
109.6430, 16040.00
110.8740, 15596.00
112.1050, 14115.00
113.3350, 13197.00
114.5650, 12036.00
115.7950, 12269.00
117.0250, 12809.00
118.2550, 14042.00
119.4850, 15341.00
120.7140, 17447.00
121.9430, 18313.00
123.1730, 16790.00
124.4020, 15931.00
125.6310, 16826.00
126.8590, 18428.00
128.0880, 20772.00
129.3160, 23610.00
130.5450, 25639.00
131.7730, 25483.00
133.0010, 23390.00
134.2290, 19968.00
135.4560, 17553.00
136.6840, 15472.00
137.9110, 13731.00
139.1380, 13007.00
140.3650, 12610.00
141.5920, 12368.00
142.8190, 12025.00
144.0460, 12035.00
145.2720, 12024.00
146.4990, 12427.00
147.7250, 12263.00
148.9510, 12146.00
150.1770, 12119.00
151.4020, 11868.00
152.6280, 11766.00
153.8530, 11684.00
155.0790, 11515.53
156.3040, 11593.00
157.5290, 11330.00
158.7530, 11340.00
159.9780, 11374.00
161.2030, 11402.00
162.4270, 11519.14
163.6510, 11571.00
164.8750, 11784.00
166.0990, 11905.00
167.3230, 12032.00
168.5470, 11816.00
169.7700, 11958.00
170.9930, 12121.00
172.2160, 12240.00
173.4390, 12594.00
174.6620, 12811.00
175.8850, 13025.00
177.1080, 13457.00
178.3300, 13702.00
179.5520, 14074.00
180.7740, 14644.00
181.9960, 14934.00
183.2180, 15466.00
184.4400, 16070.00
185.6610, 16738.00
186.8820, 17409.00
188.1040, 18218.00
189.3250, 19259.00
190.5450, 20356.00
191.7660, 21742.00
192.9870, 22917.00
194.2070, 24716.00
195.4270, 26516.00
196.6480, 28710.00
197.8680, 30756.00
199.0870, 32903.00
200.3070, 35442.00
201.5270, 37914.00
202.7460, 40559.00
203.9650, 42596.00
205.1840, 44514.00
206.4030, 46276.00
207.6220, 47007.00
208.8400, 47474.00
210.0590, 47090.00
211.2770, 46138.00
212.4950, 44872.00
213.7130, 43481.00
214.9310, 41262.00
216.1490, 38801.00
217.3660, 36608.00
218.5840, 34167.00
219.8010, 31632.00
221.0180, 29578.00
222.2350, 27626.00
223.4520, 25721.00
224.6680, 24140.84
225.8850, 22501.00
227.1010, 21374.00
228.3170, 20207.00
229.5330, 19271.00
230.7490, 18276.00
231.9650, 17448.00
233.1810, 16839.00
234.3960, 16015.00
235.6110, 15555.00
236.8260, 14999.00
238.0410, 14447.00
239.2560, 14414.00
240.4710, 13791.00
241.6850, 13490.00
242.9000, 13234.00
244.1140, 12821.00
245.3280, 12777.00
246.5420, 12529.00
247.7550, 12436.00
248.9690, 12165.00
250.1820, 12137.00
251.3960, 11709.00
252.6090, 11665.00
253.8220, 11656.00
255.0350, 11455.00
256.2470, 11656.00
257.4600, 11599.00
258.6720, 11556.00
259.8840, 11555.00
261.0960, 11722.00
262.3080, 11842.00
263.5200, 12131.00
264.7320, 12517.00
265.9430, 12937.00
267.1540, 12964.00
268.3650, 12746.00
269.5760, 12181.00
270.7870, 11430.00
271.9980, 10778.00
273.2080, 10355.00
274.4190, 10122.00
275.6290, 9778.000
276.8390, 9479.000
278.0490, 9462.000
279.2590, 9301.000
280.4680, 9233.000
281.6780, 9248.000
282.8870, 9118.000
284.0960, 8961.000
285.3050, 8976.000
286.5140, 8893.000
287.7230, 8933.000
288.9310, 8912.000
290.1400, 8854.000
291.3480, 8864.939
292.5560, 8889.000
293.7640, 8824.000
294.9720, 8658.000
296.1790, 8619.000
297.3870, 8668.000
298.5940, 8468.000
299.8010, 8449.000
301.0080, 8655.000
302.2150, 8623.000
303.4220, 8499.000
304.6290, 8466.000
305.8350, 8391.000
307.0410, 8463.000
308.2470, 8371.000
309.4530, 8517.000
310.6590, 8298.000
311.8650, 8431.000
313.0700, 8640.000
314.2750, 8515.000
315.4810, 8469.000
316.6860, 8428.000
317.8900, 8493.000
319.0950, 8521.000
320.3000, 8466.000
321.5040, 8414.000
322.7080, 8575.000
323.9120, 8552.000
325.1160, 8520.000
326.3200, 8494.000
327.5240, 8472.789
328.7270, 8446.000
329.9310, 8434.000
331.1340, 8498.000
332.3370, 8491.000
333.5400, 8593.000
334.7420, 8529.000
335.9450, 8622.000
337.1470, 8619.000
338.3500, 8589.000
339.5520, 8690.000
340.7540, 8766.000
341.9550, 8881.000
343.1570, 8866.000
344.3590, 8876.000
345.5600, 9100.000
346.7610, 9283.000
347.9620, 9592.000
349.1630, 9998.000
350.3640, 10563.00
351.5640, 11334.00
352.7650, 12550.00
353.9650, 14264.00
355.1650, 16381.00
356.3650, 18431.00
357.5650, 18857.00
358.7640, 17419.00
359.9640, 15499.00
361.1630, 13486.00
362.3620, 11932.00
363.5610, 10915.00
364.7600, 10034.00
365.9590, 9589.000
367.1580, 9449.000
368.3560, 9185.000
369.5540, 9052.000
370.7520, 8973.000
371.9500, 8888.000
373.1480, 8922.000
374.3460, 8907.000
375.5430, 8786.000
376.7410, 8779.000
377.9380, 8677.000
379.1350, 8791.000
380.3320, 8832.000
381.5280, 8692.000
382.7250, 8765.000
383.9210, 8783.000
385.1180, 8887.000
386.3140, 9024.000
387.5100, 8988.000
388.7050, 9056.000
389.9010, 9000.000
391.0960, 9071.000
392.2920, 9092.000
393.4870, 9142.681
394.6820, 9340.000
395.8770, 9318.000
397.0720, 9580.000
398.2660, 9751.000
399.4610, 9777.000
400.6550, 10350.00
401.8490, 10798.00
403.0430, 11591.00
404.2370, 11977.00
405.4300, 12097.00
406.6240, 11459.00
407.8170, 10726.00
409.0100, 10359.00
410.2030, 9910.000
411.3960, 9620.000
412.5890, 9585.000
413.7810, 9521.000
414.9740, 9611.000
416.1660, 9386.000
417.3580, 9475.000
418.5500, 9477.000
419.7420, 9459.000
420.9330, 9590.000
422.1250, 9551.000
423.3160, 9669.000
424.5070, 9626.000
425.6980, 9732.000
426.8890, 9830.000
428.0800, 10054.00
429.2700, 10005.00
430.4610, 10208.00
431.6510, 10293.00
432.8410, 10204.00
434.0310, 10327.00
435.2210, 10711.00
436.4100, 10683.00
437.6000, 10951.00
438.7890, 11097.00
439.9780, 11291.00
441.1670, 11728.00
442.3560, 12180.00
443.5450, 12463.00
444.7330, 13291.00
445.9210, 13667.00
447.1100, 14630.00
448.2980, 15545.00
449.4860, 16694.00
450.6730, 18065.00
451.8610, 20163.00
453.0480, 22811.00
454.2360, 26144.00
455.4230, 31042.00
456.6100, 37312.00
457.7970, 45196.00
458.9830, 55094.00
460.1700, 67904.00
461.3560, 84997.00
462.5420, 105106.0
463.7280, 127675.0
464.9140, 148756.0
466.1000, 160195.0
467.2850, 159139.0
468.4710, 143727.0
469.6560, 123006.0
470.8410, 100015.0
472.0260, 80587.00
473.2110, 65093.00
474.3960, 52783.00
475.5800, 43745.00
476.7640, 37745.00
477.9490, 32699.00
479.1330, 29117.00
480.3160, 26161.00
481.5000, 24255.00
482.6840, 22599.00
483.8670, 21098.00
485.0500, 19979.00
486.2330, 19122.00
487.4160, 18262.00
488.5990, 17498.00
489.7820, 16782.00
490.9640, 16216.53
492.1470, 15924.00
493.3290, 15364.00
494.5110, 14990.00
495.6930, 14849.00
496.8740, 14560.00
498.0560, 14417.00
499.2370, 14167.00
500.4180, 14157.00
501.5990, 14164.00
502.7800, 14161.00
503.9610, 14061.00
505.1420, 14153.00
506.3220, 14181.00
507.5020, 14192.00
508.6820, 14084.00
509.8620, 13754.00
511.0420, 13734.00
512.2220, 13255.00
513.4010, 13004.00
514.5810, 12871.00
515.7600, 12599.00
516.9390, 12294.00
518.1180, 12340.00
519.2970, 12282.00
520.4750, 12130.00
521.6540, 12221.00
522.8320, 12106.00
524.0100, 11982.00
525.1880, 11928.00
526.3660, 11910.00
527.5430, 11704.00
528.7210, 11755.00
529.8980, 11721.00
531.0750, 11587.00
532.2520, 11590.00
533.4290, 11623.00
534.6060, 11576.00
535.7820, 11678.00
536.9590, 11515.00
538.1350, 11520.00
539.3110, 11612.00
540.4870, 11411.00
541.6630, 11436.00
542.8380, 11470.00
544.0140, 11500.00
545.1890, 11481.36
546.3640, 11539.00
547.5390, 11408.00
548.7140, 11372.00
549.8890, 11279.00
551.0630, 11382.00
552.2380, 11326.00
553.4120, 11368.00
554.5860, 11395.00
555.7600, 11303.00
556.9330, 11171.00
558.1070, 11216.00
559.2800, 11187.00
560.4540, 11154.00
561.6270, 11166.69
562.8000, 11161.44
563.9730, 11151.00
565.1450, 11195.00
566.3180, 11193.00
567.4900, 11221.00
568.6620, 11167.00
569.8340, 11132.00
571.0060, 11277.00
572.1780, 11247.00
573.3490, 11109.00
574.5210, 11273.00
575.6920, 11204.00
576.8630, 11185.00
578.0340, 11266.00
579.2050, 11204.00
580.3750, 11176.00
581.5460, 11279.00
582.7160, 11265.00
583.8860, 11159.00
585.0560, 11265.00
586.2260, 11149.00
587.3960, 11365.00
588.5650, 11298.00
589.7340, 11402.00
590.9040, 11285.00
592.0730, 11383.00
593.2410, 11425.00
594.4100, 11323.00
595.5790, 11409.00
596.7470, 11338.00
597.9150, 11255.00
599.0840, 11201.00
600.2510, 11308.00
601.4190, 11300.00
602.5870, 11360.00
603.7540, 11328.00
604.9220, 11290.00
606.0890, 11341.00
607.2560, 11395.00
608.4230, 11313.00
609.5890, 11361.00
610.7560, 11421.00
611.9220, 11252.00
613.0880, 11180.00
614.2540, 11237.00
615.4200, 11273.00
616.5860, 11431.00
617.7520, 11375.00
618.9170, 11551.00
620.0820, 11416.00
621.2480, 11559.00
622.4120, 11394.00
623.5770, 11613.00
624.7420, 11691.00
625.9060, 11682.00
627.0710, 11728.00
628.2350, 11735.33
629.3990, 11819.00
630.5630, 11682.00
631.7260, 11684.00
632.8900, 11540.00
634.0530, 11517.00
635.2170, 11518.00
636.3800, 11406.00
637.5430, 11464.00
638.7050, 11355.00
639.8680, 11659.00
641.0300, 11533.00
642.1930, 11597.00
643.3550, 11520.00
644.5170, 11588.00
645.6790, 11723.00
646.8400, 11761.00
648.0020, 11869.00
649.1630, 11747.00
650.3240, 11651.00
651.4850, 11685.00
652.6460, 11750.00
653.8070, 11641.00
654.9670, 11782.00
656.1280, 11676.00
657.2880, 11637.00
658.4480, 11489.00
659.6080, 11481.00
660.7680, 11415.66
661.9270, 11357.49
663.0870, 11371.00
664.2460, 11311.00
665.4050, 11360.00
666.5640, 11412.00
667.7230, 11391.00
668.8820, 11470.00
670.0400, 11438.00
671.1990, 11441.00
672.3570, 11411.00
673.5150, 11387.00
674.6730, 11417.00
675.8310, 11273.00
676.9880, 11421.00
678.1450, 11424.00
679.3030, 11564.00
680.4600, 11547.00
681.6170, 11651.00
682.7740, 11643.35
683.9300, 11471.00
685.0870, 11642.00
686.2430, 11575.00
687.3990, 11627.00
688.5550, 11722.00
689.7110, 11771.00
690.8670, 11769.00
692.0220, 11890.00
693.1770, 12016.00
694.3330, 11992.00
695.4880, 12259.00
696.6430, 12378.00
697.7970, 12640.00
698.9520, 12567.00
700.1060, 12577.00
701.2600, 12352.00
702.4150, 12341.00
703.5690, 12209.00
704.7220, 11952.00
705.8760, 11996.00
707.0290, 11875.00
708.1830, 11951.00
709.3360, 11788.00
710.4890, 11742.00
711.6420, 11646.00
712.7940, 11685.00
713.9470, 11624.52
715.0990, 11879.00
716.2510, 11587.00
717.4030, 11718.00
718.5550, 11729.00
719.7070, 11645.00
720.8590, 11603.00
722.0100, 11649.00
723.1610, 11749.00
724.3120, 11834.00
725.4630, 11811.00
726.6140, 11873.13
727.7650, 11828.00
728.9150, 11853.00
730.0650, 11800.00
731.2160, 11680.00
732.3660, 11816.00
733.5150, 11751.00
734.6650, 11851.00
735.8150, 11945.00
736.9640, 12022.00
738.1130, 11798.00
739.2620, 11862.00
740.4110, 11817.00
741.5600, 11903.00
742.7080, 11873.00
743.8570, 11799.00
745.0050, 11857.00
746.1530, 11820.00
747.3010, 11865.00
748.4490, 11917.00
749.5960, 11863.00
750.7440, 11931.00
751.8910, 11837.00
753.0380, 11927.00
754.1850, 11784.00
755.3320, 11715.00
756.4790, 11823.00
757.6250, 11860.00
758.7720, 11948.00
759.9180, 11942.00
761.0640, 11888.00
762.2100, 11948.00
763.3550, 11942.00
764.5010, 11972.00
765.6460, 12022.00
766.7920, 12096.00
767.9370, 11970.00
769.0820, 12024.00
770.2260, 11971.00
771.3710, 12041.00
772.5150, 11942.00
773.6600, 12038.00
774.8040, 12047.00
775.9480, 12093.00
777.0910, 12117.96
778.2350, 12090.00
779.3790, 12148.00
780.5220, 12049.00
781.6650, 12069.00
782.8080, 11980.00
783.9510, 12116.00
785.0940, 12121.00
786.2360, 12114.00
787.3790, 12206.00
788.5210, 12208.00
789.6630, 12381.00
790.8050, 12228.00
791.9470, 12293.00
793.0880, 12369.00
794.2300, 12323.00
795.3710, 12503.00
796.5120, 12567.00
797.6530, 12624.00
798.7940, 12605.00
799.9340, 12708.00
801.0750, 12652.00
802.2150, 12877.00
803.3550, 13109.00
804.4950, 13231.00
805.6350, 13341.00
806.7750, 13708.00
807.9140, 14119.00
809.0540, 14366.00
810.1930, 14540.00
811.3320, 14462.00
812.4710, 14307.00
813.6100, 13930.00
814.7480, 13709.00
815.8870, 13398.00
817.0250, 13184.84
818.1630, 12915.00
819.3010, 12823.00
820.4390, 12750.00
821.5760, 12633.00
822.7140, 12574.00
823.8510, 12629.00
824.9880, 12555.00
826.1250, 12562.00
827.2620, 12619.00
828.3990, 12556.00
829.5350, 12515.00
830.6710, 12572.00
831.8080, 12536.00
832.9440, 12571.00
834.0800, 12481.00
835.2150, 12640.00
836.3510, 12523.00
837.4860, 12649.00
838.6210, 12760.00
839.7560, 12602.00
840.8910, 12726.00
842.0260, 12674.00
843.1610, 12686.00
844.2950, 12672.00
845.4290, 12685.00
846.5640, 12589.00
847.6980, 12697.00
848.8310, 12708.00
849.9650, 12812.00
851.0980, 12739.00
852.2320, 12823.00
853.3650, 12904.00
854.4980, 12703.00
855.6310, 12772.00
856.7630, 12910.00
857.8960, 13000.00
859.0280, 12909.00
860.1610, 12834.00
861.2930, 13007.00
862.4240, 13042.00
863.5560, 12886.00
864.6880, 12924.00
865.8190, 12923.00
866.9500, 12766.00
868.0820, 12687.00
869.2120, 12734.00
870.3430, 12590.00
871.4740, 12775.00
872.6040, 12754.00
873.7350, 12855.00
874.8650, 12816.32
875.9950, 12594.00
877.1250, 12706.00
878.2540, 12647.00
879.3840, 12632.00
880.5130, 12755.00
881.6420, 12770.00
882.7710, 12579.00
883.9000, 12828.00
885.0290, 12728.00
886.1570, 12780.00
887.2860, 12857.00
888.4140, 12755.00
889.5420, 12897.00
890.6700, 12797.00
891.7980, 12770.00
892.9250, 12998.00
894.0530, 13018.00
895.1800, 12995.00
896.3070, 13153.00
897.4340, 12884.00
898.5610, 12996.00
899.6870, 12891.00
900.8140, 13052.00
901.9400, 13033.00
903.0660, 12908.00
904.1920, 13052.00
905.3180, 12993.00
906.4440, 12942.00
907.5690, 12872.00
908.6950, 12975.00
909.8200, 12981.00
910.9450, 13002.00
912.0700, 12798.00
913.1940, 13055.00
914.3190, 12972.00
915.4430, 13039.00
916.5680, 13115.00
917.6920, 12879.00
918.8150, 12842.00
919.9390, 12956.00
921.0630, 13073.00
922.1860, 13107.00
923.3100, 13125.32
924.4330, 13058.00
925.5560, 13032.00
926.6780, 12987.00
927.8010, 12841.00
928.9230, 13033.00
930.0460, 12792.00
931.1680, 13017.00
932.2900, 12977.00
933.4120, 12975.00
934.5330, 12956.00
935.6550, 12906.00
936.7760, 12990.00
937.8970, 12951.00
939.0180, 12840.00
940.1390, 12937.00
941.2600, 12903.00
942.3810, 12797.00
943.5010, 13091.00
944.6210, 12937.00
945.7410, 12900.00
946.8610, 12906.00
947.9810, 13046.00
949.1010, 13010.00
950.2200, 13007.00
951.3390, 12977.00
952.4580, 13006.00
953.5770, 13000.00
954.6960, 13016.00
955.8150, 13012.00
956.9330, 13098.00
958.0520, 13136.00
959.1700, 13046.00
960.2880, 13034.00
961.4050, 12980.00
962.5230, 13121.00
963.6410, 13157.00
964.7580, 12971.00
965.8750, 13196.00
966.9920, 13185.00
968.1090, 13143.00
969.2260, 12928.00
970.3420, 13089.00
971.4590, 13051.00
972.5750, 12995.00
973.6910, 13089.00
974.8070, 12955.00
975.9230, 12866.00
977.0380, 13039.00
978.1540, 12944.00
979.2690, 13003.00
980.3840, 13090.00
981.4990, 13221.00
982.6140, 13117.00
983.7280, 13094.00
984.8430, 13145.00
985.9570, 13071.00
987.0710, 13223.00
988.1850, 13184.00
989.2990, 13158.00
990.4130, 13185.00
991.5260, 13170.00
992.6400, 13282.00
993.7530, 13239.00
994.8660, 13233.00
995.9790, 13148.00
997.0910, 13181.00
998.2040, 13221.03
999.3160, 13360.00
1000.429, 13416.00
1001.541, 13566.00
1002.652, 13774.00
1003.764, 13743.00
1004.876, 13754.00
1005.987, 13614.00
1007.098, 13602.00
1008.210, 13537.00
1009.320, 13356.00
1010.431, 13355.00
1011.542, 13352.00
1012.652, 13318.33
1013.763, 13336.00
1014.873, 13349.00
1015.983, 13381.00
1017.093, 13371.00
1018.202, 13571.00
1019.312, 13375.00
1020.421, 13498.00
1021.530, 13720.00
1022.639, 13802.00
1023.748, 13713.00
1024.857, 13720.00
1025.965, 13699.00
1027.074, 13728.00
1028.182, 13759.00
1029.290, 13832.00
1030.398, 13943.00
1031.505, 13801.00
1032.613, 13820.00
1033.720, 13775.00
1034.828, 13865.00
1035.935, 13875.00
1037.042, 13813.00
1038.148, 13778.00
1039.255, 13985.00
1040.361, 13779.00
1041.468, 13879.00
1042.574, 14096.00
1043.680, 13805.00
1044.786, 13930.00
1045.891, 14007.00
1046.997, 14039.00
1048.102, 14008.00
1049.207, 14035.00
1050.312, 14029.00
1051.417, 13977.00
1052.522, 14146.00
1053.626, 14141.00
1054.730, 14047.00
1055.835, 14140.00
1056.939, 13967.00
1058.043, 14181.00
1059.146, 14153.00
1060.250, 14136.00
1061.353, 14271.00
1062.456, 14259.00
1063.559, 14430.00
1064.662, 14370.00
1065.765, 14548.00
1066.868, 14482.00
1067.970, 14377.00
1069.072, 14435.00
1070.174, 14580.00
1071.276, 14567.00
1072.378, 14720.00
1073.480, 14969.00
1074.581, 14863.00
1075.682, 15027.00
1076.784, 15349.00
1077.885, 15583.00
1078.985, 15920.00
1080.086, 16414.00
1081.187, 17306.00
1082.287, 17615.00
1083.387, 18130.00
1084.487, 17880.00
1085.587, 17434.00
1086.687, 16885.00
1087.786, 16484.00
1088.885, 16026.00
1089.985, 15647.00
1091.084, 15430.00
1092.182, 15275.00
1093.281, 15126.00
1094.380, 15031.39
1095.478, 15048.00
1096.576, 14954.00
1097.674, 15009.00
1098.772, 14958.66
1099.870, 15032.00
1100.968, 14903.00
1102.065, 14905.00
1103.162, 14874.00
1104.259, 14911.00
1105.356, 15008.00
1106.453, 14923.00
1107.550, 14899.00
1108.646, 15015.00
1109.743, 15087.00
1110.839, 15029.00
1111.935, 14925.00
1113.030, 15124.00
1114.126, 15086.00
1115.222, 15050.00
1116.317, 15100.00
1117.412, 15177.00
1118.507, 15102.00
1119.602, 15074.00
1120.697, 15046.00
1121.791, 15179.00
1122.885, 15044.00
1123.980, 15158.00
1125.074, 15112.00
1126.168, 15341.00
1127.261, 15176.00
1128.355, 15202.00
1129.448, 15164.00
1130.541, 15126.00
1131.635, 15299.00
1132.727, 15333.00
1133.820, 15440.00
1134.913, 15502.00
1136.005, 15359.00
1137.097, 15441.00
1138.190, 15349.00
1139.281, 15519.00
1140.373, 15559.00
1141.465, 15538.00
1142.556, 15566.00
1143.648, 15609.00
1144.739, 15678.00
1145.830, 15621.00
1146.921, 15691.00
1148.011, 15853.00
1149.102, 15789.00
1150.192, 15824.00
1151.282, 15898.00
1152.372, 16080.85
1153.462, 16363.00
1154.552, 16561.00
1155.641, 16836.00
1156.731, 17040.00
1157.820, 17464.00
1158.909, 17722.00
1159.998, 17735.00
1161.086, 17855.00
1162.175, 17423.00
1163.263, 17200.00
1164.351, 16979.00
1165.440, 16822.00
1166.527, 16505.00
1167.615, 16410.00
1168.703, 16421.00
1169.790, 16111.00
1170.877, 16194.00
1171.965, 16108.00
1173.051, 16213.00
1174.138, 16101.00
1175.225, 16010.00
1176.311, 16092.00
1177.398, 15990.00
1178.484, 16033.00
1179.570, 15971.00
1180.655, 16088.00
1181.741, 16130.00
1182.827, 16152.00
1183.912, 16175.00
1184.997, 16152.00
1186.082, 16129.00
1187.167, 16235.00
1188.251, 16078.00
1189.336, 16166.00
1190.420, 16268.00
1191.505, 16114.00
1192.589, 16273.00
1193.672, 16288.00
1194.756, 16372.00
1195.840, 16251.00
1196.923, 16281.00
1198.006, 16221.00
1199.089, 16248.99
1200.172, 16312.96
1201.255, 16331.00
1202.337, 16460.00
1203.420, 16492.00
1204.502, 16524.00
1205.584, 16491.00
1206.666, 16435.00
1207.748, 16685.00
1208.829, 16490.00
1209.911, 16569.00
1210.992, 16711.00
1212.073, 16488.00
1213.154, 16556.00
1214.235, 16669.00
1215.316, 16791.00
1216.396, 16807.00
1217.476, 16759.00
1218.556, 16966.00
1219.636, 16882.00
1220.716, 16904.00
1221.796, 17206.00
1222.875, 17174.00
1223.955, 17340.00
1225.034, 17306.00
1226.113, 17464.13
1227.192, 17494.00
1228.270, 17751.00
1229.349, 17852.00
1230.427, 17967.00
1231.505, 18099.00
1232.583, 17890.00
1233.661, 18077.00
1234.739, 17840.00
1235.817, 17665.00
1236.894, 17776.00
1237.971, 17524.00
1239.048, 17723.00
1240.125, 17642.00
1241.202, 17594.00
1242.278, 17458.00
1243.355, 17600.00
1244.431, 17310.00
1245.507, 17216.00
1246.583, 17436.00
1247.659, 17333.00
1248.734, 17390.00
1249.810, 17411.00
1250.885, 17242.00
1251.960, 17394.00
1253.035, 17449.00
1254.110, 17246.00
1255.185, 17335.00
1256.259, 17273.00
1257.333, 17349.00
1258.408, 17434.00
1259.482, 17411.00
1260.555, 17546.00
1261.629, 17472.00
1262.702, 17477.00
1263.776, 17542.00
1264.849, 17502.00
1265.922, 17404.00
1266.995, 17685.00
1268.068, 17770.00
1269.140, 17722.00
1270.212, 17683.00
1271.285, 17720.00
1272.357, 17655.00
1273.428, 17827.00
1274.500, 17650.00
1275.572, 17855.00
1276.643, 17699.00
1277.714, 17751.00
1278.785, 17777.00
1279.856, 17844.00
1280.927, 17823.00
1281.998, 17757.00
1283.068, 17529.00
1284.138, 17739.00
1285.208, 17612.60
1286.278, 17796.00
1287.348, 17652.00
1288.418, 17606.00
1289.487, 17730.00
1290.556, 17823.00
1291.625, 17661.00
1292.694, 17769.00
1293.763, 17785.00
1294.832, 17912.00
1295.900, 17794.00
1296.969, 17759.00
1298.037, 17670.00
1299.105, 17965.00
1300.172, 17861.00
1301.240, 17916.00
1302.308, 17872.00
1303.375, 17776.00
1304.442, 17899.00
1305.509, 17636.00
1306.576, 17720.00
1307.643, 17731.00
1308.709, 17897.00
1309.775, 17976.00
1310.842, 17986.00
1311.908, 18050.00
1312.974, 18142.00
1314.039, 18095.00
1315.105, 18076.00
1316.170, 17963.00
1317.235, 18107.00
1318.300, 18213.00
1319.365, 17915.00
1320.430, 18326.00
1321.495, 18016.00
1322.559, 17986.00
1323.623, 17837.00
1324.687, 18195.00
1325.751, 18204.00
1326.815, 18039.00
1327.879, 18121.00
1328.942, 17988.00
1330.005, 18061.00
1331.068, 18065.00
1332.131, 17948.00
1333.194, 17966.00
1334.257, 17946.00
1335.319, 18059.00
1336.381, 17986.00
1337.444, 17991.00
1338.505, 18116.00
1339.567, 17929.00
1340.629, 18105.00
1341.690, 17864.00
1342.752, 17858.00
1343.813, 18156.00
1344.874, 17974.00
1345.935, 18064.00
1346.995, 18123.00
1348.056, 18008.00
1349.116, 18178.00
1350.176, 18057.00
1351.236, 18140.00
1352.296, 18218.00
1353.356, 18384.00
1354.415, 18262.00
1355.475, 18122.00
1356.534, 18224.00
1357.593, 18169.00
1358.652, 18134.00
1359.711, 18267.00
1360.769, 18125.00
1361.827, 18191.00
1362.886, 18194.00
1363.944, 18204.00
1365.002, 18276.00
1366.059, 18257.00
1367.117, 18193.00
1368.174, 18400.00
1369.232, 18310.00
1370.289, 18265.00
1371.346, 18425.00
1372.402, 18438.00
1373.459, 18315.00
1374.515, 18404.00
1375.572, 18323.00
1376.628, 18425.00
1377.684, 18421.00
1378.740, 18533.00
1379.795, 18364.00
1380.851, 18468.00
1381.906, 18521.00
1382.961, 18487.00
1384.016, 18669.00
1385.071, 18572.00
1386.125, 18445.00
1387.180, 18547.00
1388.234, 18465.00
1389.288, 18470.00
1390.342, 18635.00
1391.396, 18493.00
1392.450, 18453.00
1393.503, 18613.00
1394.557, 18547.00
1395.610, 18382.00
1396.663, 18432.00
1397.716, 18521.00
1398.768, 18584.00
1399.821, 18511.00
1400.873, 18551.00
1401.925, 18628.00
1402.978, 18488.00
1404.029, 18673.00
1405.081, 18588.00
1406.133, 18501.00
1407.184, 18413.00
1408.235, 18433.40
1409.286, 18691.00
1410.337, 18516.00
1411.388, 18561.00
1412.439, 18639.00
1413.489, 18489.00
1414.539, 18420.00
1415.589, 18537.00
1416.639, 18616.00
1417.689, 18705.00
1418.738, 18656.00
1419.788, 18737.00
1420.837, 18629.00
1421.886, 18684.00
1422.935, 18554.00
1423.984, 18721.00
1425.033, 18693.00
1426.081, 18682.00
1427.129, 18791.00
1428.177, 18748.00
1429.225, 18763.00
1430.273, 18843.00
1431.321, 18657.00
1432.368, 18766.00
1433.416, 18869.00
1434.463, 18842.00
1435.510, 19045.00
1436.557, 19017.00
1437.603, 19191.00
1438.650, 19008.00
1439.696, 19123.00
1440.742, 19331.00
1441.788, 19471.00
1442.834, 19302.00
1443.880, 19539.00
1444.925, 19174.00
1445.971, 19403.00
1447.016, 19317.00
1448.061, 19597.00
1449.106, 19587.00
1450.150, 19587.00
1451.195, 19625.00
1452.239, 19484.00
1453.284, 19569.00
1454.328, 19787.00
1455.371, 19621.00
1456.415, 19566.00
1457.459, 19597.00
1458.502, 19866.00
1459.545, 19670.00
1460.588, 19668.00
1461.631, 19562.00
1462.674, 19354.00
1463.717, 19429.00
1464.759, 19512.00
1465.801, 19292.00
1466.843, 19343.00
1467.885, 19343.00
1468.927, 19385.00
1469.969, 19326.08
1471.010, 19188.00
1472.051, 19211.00
1473.093, 19232.00
1474.134, 19226.00
1475.174, 19255.00
1476.215, 19220.00
1477.255, 19259.00
1478.296, 19195.00
1479.336, 19263.00
1480.376, 19286.00
1481.416, 19245.00
1482.455, 19307.00
1483.495, 19200.00
1484.534, 19245.00
1485.573, 19286.00
1486.612, 19285.00
1487.651, 19304.48
1488.690, 19319.71
1489.728, 19294.36
1490.766, 19238.00
1491.805, 19207.00
1492.843, 19184.00
1493.881, 19151.83
1494.918, 19149.00
1495.956, 19124.00
1496.993, 19115.00
1498.030, 19132.00
1499.067, 19107.00
1500.104, 19140.00
1501.141, 18940.00
1502.177, 18894.00
1503.214, 19103.00
1504.250, 18931.00
1505.286, 19031.00
1506.322, 19103.00
1507.358, 18940.00
1508.393, 19155.00
1509.429, 19242.00
1510.464, 19131.00
1511.499, 19236.00
1512.534, 19167.00
1513.569, 19140.00
1514.603, 19460.00
1515.638, 19297.00
1516.672, 19348.00
1517.706, 19354.00
1518.740, 19205.00
1519.774, 19380.00
1520.807, 19340.00
1521.841, 19193.00
1522.874, 19143.00
1523.907, 19214.00
1524.940, 19220.00
1525.973, 19246.00
1527.005, 19245.34
1528.038, 19291.35
1529.070, 19218.00
1530.102, 19377.00
1531.134, 19387.00
1532.166, 19416.00
1533.198, 19589.00
1534.229, 19459.00
1535.260, 19322.00
1536.292, 19325.00
1537.323, 19296.70
1538.353, 19374.00
1539.384, 19377.00
1540.415, 19359.00
1541.445, 19417.00
1542.475, 19334.00
1543.505, 19458.00
1544.535, 19605.00
1545.565, 19395.00
1546.594, 19434.00
1547.623, 19468.00
1548.653, 19410.00
1549.682, 19424.00
1550.711, 19377.00
1551.739, 19484.00
1552.768, 19486.00
1553.796, 19431.21
1554.824, 19433.00
1555.852, 19331.00
1556.880, 19468.00
1557.908, 19489.00
1558.936, 19375.00
1559.963, 19490.00
1560.990, 19299.00
1562.017, 19341.00
1563.044, 19489.00
1564.071, 19563.00
1565.097, 19487.00
1566.124, 19385.00
1567.150, 19272.00
1568.176, 19629.00
1569.202, 19506.00
1570.228, 19586.00
1571.253, 19604.00
1572.279, 19552.00
1573.304, 19646.00
1574.329, 19527.00
1575.354, 19572.00
1576.379, 19770.00
1577.404, 19395.00
1578.428, 19471.00
##END=



