##NAMES=Rhodonite
##RRUFFID=R060549
##IDEAL CHEMISTRY=CaMn^2+^_3_Mn^2+^Si_5_O_15_
##LOCALITY=unknown
##OWNER=RRUFF
##SOURCE=Gemological Institute of America
##DESCRIPTION=Pink cleavage fragment
##STATUS=The identification of this mineral has been confirmed by X-ray diffraction and chemical analysis
##URL=rruff.info/R060549
##MEASURED CHEMISTRY=(Mn_0.76_Ca_0.12_Fe_0.07_Mg_0.06_)Si_0.99_O_3_
##PIN_ID=L01131
##ORIENTATION=Laser parallel to (1 0 1). Fiducial mark perpendicular to laser is parallel to b [0 1 0]
84.51000, 11626.00
85.74900, 12047.00
86.98900, 12347.00
88.22800, 12797.00
89.46700, 13428.00
90.70600, 13999.00
91.94400, 14339.00
93.18300, 14557.00
94.42100, 14364.00
95.65900, 13903.00
96.89700, 13673.00
98.13500, 13089.00
99.37300, 12943.00
100.6100, 12672.00
101.8480, 12181.00
103.0850, 11823.00
104.3220, 11662.00
105.5590, 11823.00
106.7950, 11904.00
108.0320, 12282.00
109.2680, 12967.00
110.5040, 13691.00
111.7400, 14355.00
112.9760, 15030.00
114.2120, 15765.00
115.4470, 16587.00
116.6820, 16615.00
117.9170, 16455.00
119.1520, 15895.00
120.3870, 15443.00
121.6220, 14889.00
122.8560, 14267.00
124.0900, 13681.00
125.3240, 13229.00
126.5580, 12676.00
127.7920, 11995.00
129.0260, 11659.00
130.2590, 11496.00
131.4920, 11296.00
132.7250, 11338.00
133.9580, 11121.00
135.1910, 11178.00
136.4230, 11165.00
137.6560, 10973.00
138.8880, 10953.00
140.1200, 10965.00
141.3520, 10880.00
142.5830, 10667.00
143.8150, 10541.14
145.0460, 10408.81
146.2770, 10200.00
147.5080, 10174.00
148.7390, 10191.00
149.9700, 10151.00
151.2000, 10256.00
152.4310, 10539.00
153.6610, 10771.00
154.8910, 11116.00
156.1210, 11319.00
157.3500, 11650.00
158.5800, 12054.00
159.8090, 12337.00
161.0380, 12552.00
162.2670, 12548.00
163.4960, 12602.00
164.7240, 12688.00
165.9530, 12580.00
167.1810, 12584.00
168.4090, 12612.00
169.6370, 12322.00
170.8650, 12102.00
172.0920, 11837.00
173.3200, 11659.55
174.5470, 11391.00
175.7740, 11377.00
177.0010, 11177.00
178.2280, 11136.00
179.4540, 10979.00
180.6810, 10945.00
181.9070, 10782.00
183.1330, 10703.00
184.3590, 10599.00
185.5850, 10532.00
186.8100, 10251.00
188.0350, 10136.00
189.2610, 9933.000
190.4860, 9904.000
191.7110, 9782.000
192.9350, 9606.000
194.1600, 9693.000
195.3840, 9656.000
196.6080, 9481.000
197.8320, 9582.000
199.0560, 9487.000
200.2800, 9583.000
201.5030, 9423.000
202.7270, 9522.000
203.9500, 9617.000
205.1730, 9569.000
206.3950, 9444.000
207.6180, 9395.000
208.8410, 9469.000
210.0630, 9609.000
211.2850, 9579.000
212.5070, 9751.000
213.7290, 9762.000
214.9500, 9941.000
216.1720, 9860.000
217.3930, 9881.000
218.6140, 9838.000
219.8350, 9857.000
221.0560, 9812.000
222.2770, 9832.000
223.4970, 9814.529
224.7170, 9783.270
225.9370, 9794.000
227.1570, 9759.000
228.3770, 9751.000
229.5970, 9817.000
230.8160, 9907.000
232.0350, 9866.000
233.2540, 10059.00
234.4730, 9979.000
235.6920, 9879.000
236.9110, 10194.00
238.1290, 10209.00
239.3470, 10334.00
240.5650, 10456.00
241.7830, 10575.85
243.0010, 10713.00
244.2180, 10894.00
245.4360, 11054.00
246.6530, 11232.00
247.8700, 11319.00
249.0870, 11580.00
250.3040, 11693.00
251.5200, 11998.00
252.7370, 12136.00
253.9530, 12398.00
255.1690, 12568.00
256.3850, 12918.00
257.6000, 13177.00
258.8160, 13578.00
260.0310, 13986.00
261.2460, 14427.00
262.4610, 14866.00
263.6760, 15192.00
264.8910, 15222.00
266.1050, 15260.00
267.3200, 14937.00
268.5340, 14723.00
269.7480, 14279.00
270.9620, 13738.00
272.1750, 13312.00
273.3890, 13072.00
274.6020, 12683.00
275.8150, 12369.00
277.0280, 12098.00
278.2410, 11942.00
279.4540, 11878.00
280.6660, 11605.00
281.8790, 11341.00
283.0910, 11246.00
284.3030, 10983.00
285.5140, 10954.00
286.7260, 10708.00
287.9380, 10417.00
289.1490, 10432.00
290.3600, 10295.00
291.5710, 10352.00
292.7820, 10252.00
293.9920, 10328.00
295.2030, 10300.00
296.4130, 10313.00
297.6230, 10274.00
298.8330, 10156.00
300.0430, 10275.00
301.2520, 10321.00
302.4620, 10459.00
303.6710, 10342.00
304.8800, 10446.00
306.0890, 10508.00
307.2980, 10554.00
308.5070, 10701.00
309.7150, 10698.00
310.9230, 10954.00
312.1310, 10943.00
313.3390, 11132.00
314.5470, 11523.00
315.7550, 11546.00
316.9620, 11819.00
318.1690, 12089.00
319.3760, 12482.00
320.5830, 12823.00
321.7900, 13383.00
322.9960, 13768.00
324.2030, 13993.00
325.4090, 14217.00
326.6150, 14348.00
327.8210, 14330.00
329.0270, 14409.00
330.2320, 14396.00
331.4380, 14347.00
332.6430, 14065.00
333.8480, 13982.00
335.0530, 13819.00
336.2580, 13748.00
337.4620, 13613.00
338.6670, 13548.00
339.8710, 13219.00
341.0750, 13061.00
342.2790, 12781.00
343.4820, 12553.00
344.6860, 12472.00
345.8890, 12228.00
347.0920, 11909.00
348.2960, 11893.00
349.4980, 11758.00
350.7010, 11700.00
351.9040, 11527.00
353.1060, 11517.00
354.3080, 11266.00
355.5100, 11207.00
356.7120, 11293.00
357.9140, 11141.00
359.1150, 10966.00
360.3170, 11102.00
361.5180, 11169.00
362.7190, 11110.00
363.9200, 11143.00
365.1200, 11075.00
366.3210, 11025.00
367.5210, 11025.00
368.7210, 10993.15
369.9210, 11005.00
371.1210, 10951.00
372.3210, 11002.00
373.5200, 10917.00
374.7200, 10853.00
375.9190, 10762.00
377.1180, 10871.00
378.3170, 10866.00
379.5150, 10724.00
380.7140, 11069.00
381.9120, 11059.00
383.1110, 11125.00
384.3090, 11327.00
385.5060, 11382.00
386.7040, 11507.00
387.9020, 11592.00
389.0990, 11769.00
390.2960, 11606.00
391.4930, 11731.00
392.6900, 11621.00
393.8860, 11433.00
395.0830, 11348.00
396.2790, 11228.75
397.4750, 11155.00
398.6710, 11060.00
399.8670, 10988.00
401.0630, 10966.00
402.2580, 10839.00
403.4540, 10897.00
404.6490, 10740.00
405.8440, 11073.00
407.0390, 10894.00
408.2330, 11246.00
409.4280, 11181.00
410.6220, 11391.00
411.8160, 11525.00
413.0100, 11503.00
414.2040, 11602.00
415.3980, 11761.00
416.5910, 11836.00
417.7850, 11968.00
418.9780, 12017.00
420.1710, 12235.00
421.3640, 12202.00
422.5560, 12209.00
423.7490, 12312.00
424.9410, 12029.00
426.1330, 11982.00
427.3250, 11860.00
428.5170, 11828.00
429.7090, 11773.00
430.9000, 11938.00
432.0910, 11928.00
433.2820, 12067.00
434.4730, 12371.00
435.6640, 12418.00
436.8550, 12438.00
438.0450, 12573.00
439.2360, 12508.00
440.4260, 12659.00
441.6160, 12242.00
442.8060, 12163.00
443.9950, 11869.00
445.1850, 11836.00
446.3740, 11670.00
447.5630, 11696.00
448.7520, 11555.00
449.9410, 11514.00
451.1300, 11708.00
452.3180, 11707.00
453.5060, 11461.00
454.6950, 11653.00
455.8830, 11665.00
457.0700, 11624.00
458.2580, 11765.00
459.4450, 11679.00
460.6330, 11524.00
461.8200, 11541.98
463.0070, 11583.91
464.1940, 11586.45
465.3800, 11551.77
466.5670, 11368.17
467.7530, 11376.86
468.9390, 11308.50
470.1250, 11236.99
471.3110, 11272.73
472.4970, 11110.83
473.6820, 11144.91
474.8680, 11173.00
476.0530, 11116.00
477.2380, 11128.16
478.4230, 11082.00
479.6070, 11069.00
480.7920, 11002.00
481.9760, 10942.00
483.1600, 11009.00
484.3440, 10974.00
485.5280, 11078.00
486.7120, 10838.00
487.8950, 10891.00
489.0780, 10891.00
490.2620, 11048.00
491.4450, 11009.00
492.6270, 11054.00
493.8100, 11057.00
494.9920, 11122.00
496.1750, 11035.00
497.3570, 11096.00
498.5390, 11100.00
499.7210, 11093.00
500.9020, 11120.00
502.0840, 11081.00
503.2650, 11050.00
504.4460, 10922.00
505.6270, 11133.00
506.8080, 11193.00
507.9890, 11176.00
509.1690, 11109.00
510.3500, 11255.00
511.5300, 11208.00
512.7100, 11050.00
513.8900, 11095.00
515.0690, 11026.00
516.2490, 11153.00
517.4280, 11048.00
518.6070, 11185.00
519.7860, 11171.00
520.9650, 11104.00
522.1440, 11159.00
523.3220, 11097.00
524.5010, 11050.00
525.6790, 11016.00
526.8570, 10951.00
528.0350, 11086.00
529.2130, 11123.00
530.3900, 11130.00
531.5670, 11117.00
532.7450, 11279.00
533.9220, 11297.00
535.0980, 11286.00
536.2750, 11447.00
537.4520, 11567.00
538.6280, 11557.00
539.8040, 11633.00
540.9800, 11892.00
542.1560, 12039.00
543.3320, 12233.00
544.5070, 12311.00
545.6830, 12174.00
546.8580, 12152.00
548.0330, 12158.00
549.2080, 12085.00
550.3830, 12069.00
551.5570, 11984.00
552.7310, 12069.00
553.9060, 12145.00
555.0800, 12233.00
556.2540, 12359.00
557.4270, 12548.00
558.6010, 12453.00
559.7740, 12585.00
560.9470, 12372.00
562.1210, 12329.00
563.2930, 12388.00
564.4660, 12293.00
565.6390, 12136.00
566.8110, 12200.00
567.9830, 12238.00
569.1550, 12291.00
570.3270, 12461.00
571.4990, 12504.00
572.6710, 12571.00
573.8420, 12544.00
575.0130, 12614.00
576.1840, 12580.00
577.3550, 12400.00
578.5260, 12162.00
579.6970, 12126.00
580.8670, 11912.00
582.0370, 11898.00
583.2070, 11840.00
584.3770, 11813.00
585.5470, 11804.00
586.7170, 11902.00
587.8860, 11704.00
589.0550, 11669.00
590.2240, 11794.00
591.3930, 11716.00
592.5620, 11787.00
593.7310, 11783.00
594.8990, 11741.00
596.0670, 11644.00
597.2350, 11789.00
598.4030, 11824.00
599.5710, 11686.00
600.7390, 11898.00
601.9060, 11794.00
603.0740, 11648.00
604.2410, 11864.00
605.4080, 11741.00
606.5740, 11766.00
607.7410, 11870.00
608.9080, 11907.00
610.0740, 11887.00
611.2400, 11884.00
612.4060, 11859.00
613.5720, 11961.00
614.7370, 12038.00
615.9030, 12111.00
617.0680, 12147.61
618.2330, 12022.00
619.3980, 12193.00
620.5630, 12167.00
621.7280, 12190.00
622.8920, 12297.00
624.0570, 12431.00
625.2210, 12457.00
626.3850, 12487.00
627.5490, 12455.00
628.7120, 12560.00
629.8760, 12596.00
631.0390, 12638.84
632.2020, 12781.00
633.3650, 12750.00
634.5280, 12800.00
635.6910, 12857.15
636.8530, 12942.32
638.0160, 13088.00
639.1780, 13202.00
640.3400, 13315.25
641.5020, 13465.43
642.6640, 13593.00
643.8250, 13829.00
644.9870, 14069.00
646.1480, 14421.00
647.3090, 14672.00
648.4700, 14894.00
649.6300, 15406.00
650.7910, 15797.00
651.9510, 16384.00
653.1120, 17258.00
654.2720, 18036.00
655.4320, 19199.00
656.5910, 20792.00
657.7510, 22238.00
658.9100, 24035.00
660.0690, 26304.00
661.2290, 28690.00
662.3880, 30751.00
663.5460, 33757.00
664.7050, 36535.00
665.8630, 39992.00
667.0220, 43339.00
668.1800, 46497.00
669.3380, 48752.00
670.4950, 49505.00
671.6530, 48690.00
672.8100, 46218.00
673.9680, 42815.00
675.1250, 38893.00
676.2820, 35469.00
677.4390, 32537.00
678.5950, 30074.00
679.7520, 27903.00
680.9080, 25922.00
682.0640, 24274.00
683.2200, 22847.00
684.3760, 21551.00
685.5320, 20149.00
686.6870, 18766.00
687.8420, 17827.00
688.9980, 17231.00
690.1530, 16535.00
691.3070, 16111.00
692.4620, 15531.00
693.6170, 15096.00
694.7710, 15019.00
695.9250, 14771.00
697.0790, 14575.00
698.2330, 14368.00
699.3870, 14225.00
700.5400, 14067.00
701.6940, 14017.00
702.8470, 14079.00
704.0000, 13910.00
705.1530, 13880.00
706.3050, 13935.00
707.4580, 13847.00
708.6100, 14225.00
709.7630, 14023.90
710.9150, 14117.00
712.0660, 13830.00
713.2180, 14249.00
714.3700, 14168.00
715.5210, 14179.00
716.6720, 13993.00
717.8240, 14090.00
718.9740, 14155.00
720.1250, 13933.00
721.2760, 13888.00
722.4260, 13842.00
723.5770, 13678.00
724.7270, 13694.00
725.8770, 13700.00
727.0260, 13574.00
728.1760, 13564.00
729.3250, 13576.77
730.4750, 13624.00
731.6240, 13672.00
732.7730, 13723.00
733.9220, 13851.00
735.0700, 13932.00
736.2190, 13892.00
737.3670, 14257.00
738.5150, 14167.00
739.6630, 14290.00
740.8110, 14151.00
741.9590, 14027.00
743.1060, 14160.00
744.2540, 13916.00
745.4010, 14018.00
746.5480, 13667.00
747.6950, 13593.00
748.8410, 13476.00
749.9880, 13183.00
751.1340, 13250.00
752.2800, 13290.00
753.4260, 13246.00
754.5720, 13084.00
755.7180, 13080.00
756.8640, 13026.00
758.0090, 13134.00
759.1540, 12895.00
760.2990, 13170.00
761.4440, 13215.00
762.5890, 12984.00
763.7340, 13148.00
764.8780, 12959.00
766.0220, 13040.00
767.1660, 12990.00
768.3100, 13108.00
769.4540, 13054.00
770.5980, 13032.00
771.7410, 12944.00
772.8840, 13002.00
774.0280, 13156.00
775.1700, 13088.00
776.3130, 13154.00
777.4560, 13192.00
778.5980, 13020.00
779.7410, 13084.00
780.8830, 13062.00
782.0250, 13053.00
783.1670, 13196.00
784.3080, 13047.00
785.4500, 13009.00
786.5910, 13171.00
787.7320, 13179.00
788.8730, 13223.00
790.0140, 13267.00
791.1550, 13110.00
792.2950, 13212.00
793.4360, 13042.00
794.5760, 13135.00
795.7160, 13229.00
796.8560, 13205.00
797.9960, 13292.00
799.1350, 13236.00
800.2750, 13283.00
801.4140, 13211.00
802.5530, 13212.00
803.6920, 13285.00
804.8310, 13380.00
805.9690, 13259.00
807.1080, 13311.00
808.2460, 13271.00
809.3840, 13364.00
810.5220, 13464.00
811.6600, 13300.00
812.7970, 13324.00
813.9350, 13392.00
815.0720, 13402.00
816.2090, 13350.00
817.3460, 13470.00
818.4830, 13375.00
819.6200, 13611.00
820.7560, 13506.00
821.8930, 13478.00
823.0290, 13490.00
824.1650, 13425.00
825.3010, 13517.00
826.4360, 13504.00
827.5720, 13418.00
828.7070, 13493.00
829.8420, 13494.00
830.9770, 13440.00
832.1120, 13479.00
833.2470, 13436.00
834.3820, 13722.00
835.5160, 13547.00
836.6500, 13758.00
837.7840, 13598.00
838.9180, 13571.00
840.0520, 13685.00
841.1860, 13515.00
842.3190, 13511.00
843.4520, 13766.00
844.5850, 13600.00
845.7180, 13892.00
846.8510, 13942.00
847.9840, 13711.00
849.1160, 13748.00
850.2490, 13799.00
851.3810, 13764.00
852.5130, 13801.00
853.6450, 13767.00
854.7760, 13795.00
855.9080, 13679.00
857.0390, 13811.00
858.1700, 13733.00
859.3010, 13855.00
860.4320, 13903.58
861.5630, 13961.00
862.6930, 14021.00
863.8240, 14015.00
864.9540, 14025.00
866.0840, 13984.00
867.2140, 13962.00
868.3440, 14011.00
869.4730, 14067.00
870.6030, 14165.00
871.7320, 14009.00
872.8610, 14166.00
873.9900, 14359.00
875.1190, 14253.00
876.2470, 14362.00
877.3760, 14353.00
878.5040, 14440.00
879.6320, 14336.00
880.7600, 14503.00
881.8880, 14462.00
883.0150, 14349.00
884.1430, 14281.00
885.2700, 14405.00
886.3970, 14420.00
887.5240, 14390.00
888.6510, 14381.00
889.7780, 14406.00
890.9040, 14316.00
892.0310, 14433.00
893.1570, 14370.00
894.2830, 14463.00
895.4090, 14480.00
896.5350, 14450.00
897.6600, 14449.00
898.7860, 14530.00
899.9110, 14508.22
901.0360, 14572.38
902.1610, 14547.00
903.2860, 14674.00
904.4100, 14719.00
905.5350, 14767.00
906.6590, 14947.00
907.7830, 14999.00
908.9070, 15153.00
910.0310, 15001.00
911.1540, 15137.00
912.2780, 15262.00
913.4010, 15411.00
914.5240, 15455.00
915.6470, 15384.00
916.7700, 15294.00
917.8930, 15484.00
919.0150, 15187.00
920.1380, 15168.00
921.2600, 15261.00
922.3820, 15258.00
923.5040, 15250.00
924.6260, 15100.00
925.7470, 15300.00
926.8690, 15219.00
927.9900, 15274.66
929.1110, 15366.00
930.2320, 15428.00
931.3530, 15566.00
932.4730, 15764.00
933.5940, 15916.00
934.7140, 16112.00
935.8340, 16358.00
936.9540, 16655.00
938.0740, 16864.00
939.1930, 17105.00
940.3130, 17181.00
941.4320, 17166.00
942.5510, 17123.00
943.6700, 17025.70
944.7890, 16590.00
945.9080, 16670.00
947.0260, 16320.00
948.1450, 15999.00
949.2630, 16056.00
950.3810, 15922.00
951.4990, 15929.00
952.6170, 16041.00
953.7340, 16150.00
954.8520, 16298.00
955.9690, 16284.00
957.0860, 16500.00
958.2030, 16545.00
959.3200, 16909.00
960.4360, 17407.00
961.5530, 17670.00
962.6690, 18008.00
963.7850, 18501.00
964.9010, 19195.00
966.0170, 19910.00
967.1330, 20965.00
968.2480, 22158.00
969.3630, 23626.00
970.4790, 25114.00
971.5940, 26572.00
972.7080, 28402.00
973.8230, 29766.00
974.9380, 30869.00
976.0520, 31447.00
977.1660, 31247.00
978.2800, 31103.00
979.3940, 30278.00
980.5080, 29653.00
981.6220, 29434.00
982.7350, 29229.00
983.8480, 29486.00
984.9610, 29917.00
986.0740, 30091.00
987.1870, 30448.00
988.3000, 30970.00
989.4120, 31446.00
990.5250, 31939.00
991.6370, 32731.00
992.7490, 33278.00
993.8610, 34644.00
994.9720, 35797.00
996.0840, 37293.00
997.1950, 39184.00
998.3060, 40860.00
999.4170, 42396.00
1000.528, 43004.00
1001.639, 43098.00
1002.750, 42081.00
1003.860, 40911.00
1004.970, 38692.00
1006.080, 36580.00
1007.190, 34414.00
1008.300, 32032.00
1009.410, 29897.00
1010.519, 28045.00
1011.628, 26372.00
1012.738, 24888.93
1013.846, 23631.09
1014.955, 22602.00
1016.064, 21738.00
1017.172, 21196.00
1018.281, 20846.00
1019.389, 20345.00
1020.497, 20011.00
1021.605, 19783.00
1022.713, 19672.00
1023.820, 19694.00
1024.928, 19110.00
1026.035, 19227.00
1027.142, 19022.00
1028.249, 18815.00
1029.356, 18410.00
1030.462, 18270.00
1031.569, 18116.00
1032.675, 17969.00
1033.781, 17863.00
1034.887, 17699.34
1035.993, 17439.00
1037.098, 17405.00
1038.204, 17239.00
1039.309, 17095.00
1040.415, 17082.00
1041.520, 16955.00
1042.624, 17000.00
1043.729, 16893.00
1044.834, 16973.00
1045.938, 17051.00
1047.042, 17062.00
1048.146, 17074.68
1049.250, 17078.74
1050.354, 17015.00
1051.458, 17012.00
1052.561, 16946.00
1053.664, 16845.00
1054.767, 16837.91
1055.870, 16661.00
1056.973, 16690.00
1058.076, 16679.00
1059.178, 16434.00
1060.281, 16443.00
1061.383, 16420.00
1062.485, 16419.00
1063.587, 16383.00
1064.688, 16368.00
1065.790, 16390.00
1066.891, 16197.00
1067.993, 16303.00
1069.094, 16182.00
1070.195, 16192.00
1071.295, 16304.00
1072.396, 16079.00
1073.496, 16167.00
1074.597, 16191.00
1075.697, 16288.00
1076.797, 16164.00
1077.897, 16289.00
1078.996, 16338.00
1080.096, 16228.00
1081.195, 16229.00
1082.294, 16287.00
1083.393, 16246.00
1084.492, 16343.00
1085.591, 16280.00
1086.689, 16254.00
1087.788, 16308.00
1088.886, 16255.00
1089.984, 16338.00
1091.082, 16379.00
1092.180, 16299.00
1093.277, 16360.00
1094.375, 16190.00
1095.472, 16227.00
1096.569, 16342.00
1097.666, 16231.00
1098.763, 16399.00
1099.860, 16295.00
1100.956, 16275.00
1102.053, 16280.00
1103.149, 16179.00
1104.245, 16397.00
1105.341, 16486.00
1106.436, 16414.00
1107.532, 16406.00
1108.627, 16357.00
1109.723, 16411.00
1110.818, 16377.00
1111.913, 16319.00
1113.007, 16433.00
1114.102, 16532.00
1115.197, 16413.00
1116.291, 16236.00
1117.385, 16604.00
1118.479, 16434.00
1119.573, 16256.00
1120.666, 16439.00
1121.760, 16514.00
1122.853, 16483.00
1123.947, 16465.00
1125.040, 16356.00
1126.132, 16554.00
1127.225, 16538.00
1128.318, 16498.00
1129.410, 16589.00
1130.502, 16443.00
1131.595, 16423.00
1132.687, 16569.00
1133.778, 16539.00
1134.870, 16635.00
1135.961, 16390.00
1137.053, 16623.00
1138.144, 16568.00
1139.235, 16380.00
1140.326, 16514.00
1141.416, 16449.00
1142.507, 16502.00
1143.597, 16441.00
1144.688, 16453.00
1145.778, 16583.00
1146.868, 16600.00
1147.957, 16639.28
1149.047, 16518.00
1150.136, 16660.00
1151.226, 16753.00
1152.315, 16705.00
1153.404, 16831.00
1154.493, 16630.00
1155.581, 16661.00
1156.670, 16706.00
1157.758, 16700.00
1158.846, 16774.00
1159.934, 16872.00
1161.022, 16735.00
1162.110, 16789.00
1163.198, 16745.00
1164.285, 16814.00
1165.372, 16686.00
1166.459, 16657.00
1167.546, 16668.00
1168.633, 16806.00
1169.720, 16733.00
1170.806, 16794.00
1171.892, 16591.00
1172.979, 16758.00
1174.065, 16883.00
1175.150, 16604.00
1176.236, 16906.00
1177.322, 16762.00
1178.407, 16866.00
1179.492, 16918.00
1180.577, 16768.00
1181.662, 16844.00
1182.747, 16756.00
1183.832, 16866.00
1184.916, 16724.00
1186.000, 16854.00
1187.084, 17035.00
1188.168, 16907.00
1189.252, 16863.00
1190.336, 16749.00
1191.419, 16894.00
1192.503, 16776.00
1193.586, 16986.00
1194.669, 17019.00
1195.752, 16885.00
1196.835, 16808.00
1197.917, 16885.00
1199.000, 16963.00
1200.082, 17004.00
1201.164, 17053.69
1202.246, 17041.00
1203.328, 17091.00
1204.409, 17061.00
1205.491, 17014.00
1206.572, 16949.00
1207.653, 17082.00
1208.734, 17014.00
1209.815, 17094.00
1210.896, 17087.00
1211.976, 17076.00
1213.057, 17090.00
1214.137, 17090.00
1215.217, 17245.00
1216.297, 17183.00
1217.377, 17270.00
1218.456, 17275.00
1219.536, 17138.00
1220.615, 17139.00
1221.694, 17234.00
1222.773, 17234.00
1223.852, 17292.00
1224.931, 17201.00
1226.009, 17186.00
1227.088, 17185.00
1228.166, 17389.00
1229.244, 17221.00
1230.322, 17341.00
1231.400, 17102.00
1232.477, 17386.00
1233.555, 17381.00
1234.632, 17311.00
1235.709, 17353.00
1236.786, 17386.00
1237.863, 17449.00
1238.939, 17391.00
1240.016, 17549.00
1241.092, 17407.00
1242.168, 17532.00
1243.245, 17500.00
1244.320, 17296.00
1245.396, 17504.00
1246.472, 17619.00
1247.547, 17606.00
1248.622, 17690.63
1249.697, 17700.66
1250.772, 17666.00
1251.847, 17686.00
1252.922, 17612.00
1253.996, 17539.00
1255.071, 17558.00
1256.145, 17596.00
1257.219, 17605.00
1258.293, 17587.00
1259.366, 17827.00
1260.440, 17644.00
1261.513, 17745.00
1262.587, 17819.00
1263.660, 17740.00
1264.733, 17774.00
1265.805, 17832.00
1266.878, 17615.00
1267.951, 17818.00
1269.023, 17781.00
1270.095, 17910.00
1271.167, 17855.00
1272.239, 17829.00
1273.311, 17837.00
1274.382, 17847.00
1275.454, 17896.00
1276.525, 17861.00
1277.596, 17889.96
1278.667, 17866.00
1279.738, 17915.00
1280.808, 17942.00
1281.879, 17974.00
1282.949, 18028.00
1284.019, 18009.63
1285.089, 17977.00
1286.159, 18027.00
1287.229, 17982.29
1288.298, 18030.85
1289.368, 17935.00
1290.437, 18075.00
1291.506, 18051.00
1292.575, 17987.00
1293.644, 18039.00
1294.712, 18002.00
1295.781, 18132.00
1296.849, 18105.00
1297.917, 18134.00
1298.985, 18203.00
1300.053, 18012.00
1301.121, 18212.00
1302.188, 18101.00
1303.255, 18293.00
1304.323, 18270.00
1305.390, 18257.00
1306.457, 18248.00
1307.523, 18248.82
1308.590, 18244.00
1309.656, 18245.00
1310.723, 18344.00
1311.789, 18310.00
1312.855, 18464.00
1313.921, 18344.00
1314.986, 18430.00
1316.052, 18427.00
1317.117, 18525.00
1318.182, 18524.94
1319.248, 18383.00
1320.312, 18498.00
1321.377, 18465.00
1322.442, 18356.00
1323.506, 18552.00
1324.571, 18317.00
1325.635, 18427.00
1326.699, 18088.00
1327.762, 18558.00
1328.826, 18419.00
1329.890, 18285.00
1330.953, 18649.00
1332.016, 18515.00
1333.079, 18431.00
1334.142, 18465.00
1335.205, 18479.00
1336.268, 18659.00
1337.330, 18625.00
1338.392, 18606.00
1339.454, 18687.00
1340.516, 18602.00
1341.578, 18513.00
1342.640, 18650.00
1343.701, 18623.00
1344.763, 18634.00
1345.824, 18863.00
1346.885, 18660.00
1347.946, 18740.00
1349.007, 18878.00
1350.067, 18611.00
1351.128, 18998.00
1352.188, 18772.00
1353.248, 18741.00
1354.308, 18712.00
1355.368, 18767.00
1356.428, 18815.00
1357.487, 18931.00
1358.547, 18991.00
1359.606, 18926.00
1360.665, 18892.00
1361.724, 18828.00
1362.783, 18886.00
1363.841, 18836.00
1364.900, 19123.00
1365.958, 18749.00
1367.016, 19054.00
1368.074, 18828.00
1369.132, 19094.00
1370.190, 19097.00
1371.247, 19094.00
1372.304, 19037.00
1373.362, 18954.00
1374.419, 18976.92
1375.476, 18967.09
1376.532, 18960.00
1377.589, 19047.00
1378.645, 18986.00
1379.702, 19061.00
1380.758, 19107.00
1381.814, 19038.00
1382.870, 19228.00
1383.925, 19225.00
1384.981, 19111.00
1386.036, 19175.00
1387.092, 19257.00
1388.147, 19111.00
1389.202, 19181.00
1390.256, 19341.00
1391.311, 19079.00
1392.365, 19351.00
1393.420, 19235.00
1394.474, 19127.00
1395.528, 19176.00
1396.582, 19280.00
1397.636, 19478.00
1398.689, 19274.00
1399.742, 19264.00
1400.796, 19082.00
1401.849, 19192.00
1402.902, 19363.00
1403.955, 19337.00
1405.007, 19365.00
1406.060, 19330.00
1407.112, 19246.00
1408.164, 19335.00
1409.216, 19346.00
1410.268, 19438.00
1411.320, 19480.00
1412.371, 19421.00
1413.423, 19575.00
1414.474, 19499.00
1415.525, 19637.00
1416.576, 19454.00
1417.627, 19441.00
1418.678, 19596.00
1419.728, 19519.00
1420.778, 19409.00
1421.829, 19425.00
1422.879, 19522.00
1423.928, 19466.00
1424.978, 19681.00
1426.028, 19514.00
1427.077, 19472.00
1428.126, 19812.00
1429.176, 19607.00
1430.225, 19698.00
1431.273, 19733.00
1432.322, 19634.00
1433.371, 19739.00
1434.419, 19647.00
1435.467, 19781.00
1436.515, 19741.00
1437.563, 19880.00
1438.611, 19841.00
1439.658, 19818.00
1440.706, 19845.00
1441.753, 19802.00
1442.800, 19934.00
1443.847, 19980.00
1444.894, 19900.00
1445.941, 20072.00
1446.987, 20095.00
1448.034, 20097.00
1449.080, 19950.00
1450.126, 20103.00
1451.172, 20077.00
1452.218, 20283.00
1453.263, 20127.00
1454.309, 20185.00
1455.354, 20050.00
1456.399, 20128.00
1457.444, 20318.00
1458.489, 20267.00
1459.534, 20314.43
1460.579, 20225.00
1461.623, 20256.00
1462.667, 20212.00
1463.711, 20152.00
1464.755, 20161.00
1465.799, 20331.00
1466.843, 20176.00
1467.886, 20239.00
1468.930, 20317.00
1469.973, 20084.00
1471.016, 20174.00
1472.059, 20181.00
1473.101, 20273.00
1474.144, 20332.00
1475.186, 20295.00
1476.229, 20304.00
1477.271, 20239.00
1478.313, 20261.00
1479.355, 20284.00
1480.396, 20224.00
1481.438, 20400.00
1482.479, 20414.00
1483.520, 20365.00
1484.561, 20530.00
1485.602, 20493.16
1486.643, 20403.00
1487.684, 20518.00
1488.724, 20616.00
1489.765, 20589.88
1490.805, 20553.00
1491.845, 20526.00
1492.885, 20434.00
1493.924, 20528.00
1494.964, 20487.00
1496.003, 20557.00
1497.042, 20340.00
1498.082, 20417.00
1499.120, 20365.00
1500.159, 20628.00
1501.198, 20457.00
1502.236, 20262.00
1503.275, 20497.00
1504.313, 20436.00
1505.351, 20331.00
1506.389, 20523.00
1507.427, 20703.00
1508.464, 20578.00
1509.502, 20608.00
1510.539, 20567.00
1511.576, 20737.00
1512.613, 20577.00
1513.650, 20584.00
1514.687, 20847.00
1515.723, 20689.00
1516.759, 20671.00
1517.796, 20869.00
1518.832, 20788.00
1519.868, 20663.00
1520.903, 20907.00
1521.939, 20612.00
1522.975, 20649.00
1524.010, 20690.00
1525.045, 20765.00
1526.080, 20778.90
1527.115, 20814.41
1528.150, 20862.00
1529.184, 20874.00
1530.219, 20988.00
1531.253, 21071.00
1532.287, 20721.00
1533.321, 20845.00
1534.355, 20776.00
1535.388, 20982.00
1536.422, 20932.00
1537.455, 20868.00
1538.488, 20924.00
1539.522, 21001.00
1540.554, 21035.00
1541.587, 20991.00
1542.620, 21003.00
1543.652, 20989.00
1544.685, 20954.00
1545.717, 21035.00
1546.749, 20887.00
1547.781, 20957.00
1548.812, 20982.00
1549.844, 20941.00
1550.875, 21109.00
1551.906, 21106.00
1552.938, 21189.00
1553.968, 21246.61
1554.999, 21253.00
1556.030, 21233.00
1557.060, 21246.00
1558.091, 21036.00
1559.121, 21107.00
1560.151, 21310.00
1561.181, 20962.00
1562.211, 21252.00
1563.240, 21104.00
1564.270, 21105.00
1565.299, 21292.00
1566.328, 21224.00
1567.357, 21128.00
1568.386, 21259.00
1569.415, 21260.00
1570.443, 21242.00
1571.472, 21341.00
1572.500, 21315.00
1573.528, 21141.00
1574.556, 21089.00
1575.584, 21271.00
1576.611, 21623.00
1577.639, 21494.00
##END=



