##NAMES=Rhodonite
##RRUFFID=R060549
##IDEAL CHEMISTRY=CaMn^2+^_3_Mn^2+^Si_5_O_15_
##LOCALITY=unknown
##OWNER=RRUFF
##SOURCE=Gemological Institute of America
##DESCRIPTION=Pink cleavage fragment
##STATUS=The identification of this mineral has been confirmed by X-ray diffraction and chemical analysis
##URL=rruff.info/R060549
##MEASURED CHEMISTRY=(Mn_0.76_Ca_0.12_Fe_0.07_Mg_0.06_)Si_0.99_O_3_
##PIN_ID=L01873
##ORIENTATION=Laser parallel to c* (0 0 1). Fiducial mark perpendicular to laser is parallel to a [1 0 0]
85.74900, 4794.000
86.98900, 4786.000
88.22800, 5062.000
89.46700, 5294.000
90.70600, 5539.000
91.94400, 5737.000
93.18300, 5988.000
94.42100, 5980.000
95.65900, 5993.000
96.89700, 5981.000
98.13500, 5808.000
99.37300, 5704.000
100.6100, 5678.000
101.8480, 5470.000
103.0850, 5457.000
104.3220, 5370.000
105.5590, 5524.000
106.7950, 5836.000
108.0320, 6279.000
109.2680, 6862.000
110.5040, 7212.000
111.7400, 7549.000
112.9760, 8169.000
114.2120, 8486.000
115.4470, 8823.000
116.6820, 8776.000
117.9170, 8434.000
119.1520, 8259.000
120.3870, 7990.000
121.6220, 7703.000
122.8560, 7518.000
124.0900, 7348.997
125.3240, 7297.000
126.5580, 7139.000
127.7920, 7109.943
129.0260, 7087.000
130.2590, 7068.000
131.4920, 7110.000
132.7250, 7187.000
133.9580, 7260.000
135.1910, 7338.000
136.4230, 7371.000
137.6560, 7255.000
138.8880, 7143.000
140.1200, 7061.000
141.3520, 7036.000
142.5830, 6569.000
143.8150, 6382.000
145.0460, 6019.000
146.2770, 5983.000
147.5080, 5818.000
148.7390, 5750.000
149.9700, 5541.000
151.2000, 5553.000
152.4310, 5501.000
153.6610, 5508.000
154.8910, 5516.000
156.1210, 5601.000
157.3500, 5587.000
158.5800, 5635.000
159.8090, 5801.000
161.0380, 5858.000
162.2670, 5968.000
163.4960, 6138.000
164.7240, 6228.000
165.9530, 6265.000
167.1810, 6269.000
168.4090, 6293.000
169.6370, 6247.000
170.8650, 6224.000
172.0920, 6125.000
173.3200, 5995.000
174.5470, 5873.000
175.7740, 5801.000
177.0010, 5676.000
178.2280, 5752.000
179.4540, 5706.000
180.6810, 5637.000
181.9070, 5625.000
183.1330, 5627.000
184.3590, 5532.000
185.5850, 5404.000
186.8100, 5407.000
188.0350, 5545.000
189.2610, 5353.000
190.4860, 5400.000
191.7110, 5489.000
192.9350, 5416.000
194.1600, 5417.000
195.3840, 5460.000
196.6080, 5529.000
197.8320, 5479.000
199.0560, 5503.000
200.2800, 5611.000
201.5030, 5579.000
202.7270, 5598.000
203.9500, 5630.000
205.1730, 5516.000
206.3950, 5485.000
207.6180, 5559.000
208.8410, 5612.000
210.0630, 5671.000
211.2850, 5716.257
212.5070, 5803.000
213.7290, 5767.000
214.9500, 5820.000
216.1720, 5786.000
217.3930, 5657.000
218.6140, 5688.000
219.8350, 5654.000
221.0560, 5580.000
222.2770, 5591.000
223.4970, 5574.000
224.7170, 5612.000
225.9370, 5520.000
227.1570, 5425.000
228.3770, 5456.000
229.5970, 5554.000
230.8160, 5458.000
232.0350, 5486.000
233.2540, 5491.000
234.4730, 5439.000
235.6920, 5537.000
236.9110, 5596.000
238.1290, 5643.398
239.3470, 5719.000
240.5650, 5777.000
241.7830, 5913.000
243.0010, 5943.000
244.2180, 5985.000
245.4360, 6176.000
246.6530, 6316.000
247.8700, 6344.000
249.0870, 6464.000
250.3040, 6619.000
251.5200, 6804.000
252.7370, 6703.000
253.9530, 6812.000
255.1690, 6760.000
256.3850, 6881.000
257.6000, 6853.000
258.8160, 7052.000
260.0310, 7171.000
261.2460, 7287.000
262.4610, 7437.000
263.6760, 7478.869
264.8910, 7547.000
266.1050, 7522.000
267.3200, 7481.000
268.5340, 7399.000
269.7480, 7263.000
270.9620, 7093.000
272.1750, 7019.000
273.3890, 6860.000
274.6020, 6821.000
275.8150, 6684.000
277.0280, 6670.000
278.2410, 6518.000
279.4540, 6416.000
280.6660, 6450.000
281.8790, 6265.000
283.0910, 6205.000
284.3030, 6157.000
285.5140, 6021.000
286.7260, 5862.000
287.9380, 5892.000
289.1490, 5751.000
290.3600, 5771.000
291.5710, 5580.000
292.7820, 5647.000
293.9920, 5642.000
295.2030, 5605.000
296.4130, 5565.000
297.6230, 5555.000
298.8330, 5543.000
300.0430, 5545.000
301.2520, 5625.000
302.4620, 5650.000
303.6710, 5676.000
304.8800, 5658.000
306.0890, 5657.000
307.2980, 5687.000
308.5070, 5728.000
309.7150, 5765.000
310.9230, 5783.000
312.1310, 6024.000
313.3390, 6168.000
314.5470, 6180.000
315.7550, 6274.000
316.9620, 6528.000
318.1690, 6769.000
319.3760, 7077.000
320.5830, 7327.000
321.7900, 7635.000
322.9960, 7951.000
324.2030, 8363.000
325.4090, 8704.000
326.6150, 8654.000
327.8210, 8948.000
329.0270, 8971.000
330.2320, 8970.000
331.4380, 8999.000
332.6430, 8981.000
333.8480, 8942.000
335.0530, 8850.000
336.2580, 8929.000
337.4620, 8688.000
338.6670, 8657.000
339.8710, 8402.000
341.0750, 8161.000
342.2790, 7845.000
343.4820, 7807.000
344.6860, 7599.000
345.8890, 7499.000
347.0920, 7433.000
348.2960, 7367.000
349.4980, 7368.000
350.7010, 7367.000
351.9040, 7218.000
353.1060, 7087.000
354.3080, 6875.000
355.5100, 6863.000
356.7120, 6676.000
357.9140, 6577.000
359.1150, 6481.000
360.3170, 6412.000
361.5180, 6489.000
362.7190, 6425.000
363.9200, 6426.000
365.1200, 6435.878
366.3210, 6310.000
367.5210, 6398.000
368.7210, 6313.000
369.9210, 6222.000
371.1210, 6330.000
372.3210, 6243.000
373.5200, 6038.000
374.7200, 6103.000
375.9190, 5938.000
377.1180, 5969.000
378.3170, 5998.000
379.5150, 5940.000
380.7140, 5974.000
381.9120, 5901.000
383.1110, 5956.000
384.3090, 6018.000
385.5060, 6057.000
386.7040, 6105.000
387.9020, 6241.000
389.0990, 6262.847
390.2960, 6332.000
391.4930, 6341.000
392.6900, 6351.000
393.8860, 6322.000
395.0830, 6342.251
396.2790, 6295.000
397.4750, 6317.000
398.6710, 6237.000
399.8670, 6131.000
401.0630, 6256.000
402.2580, 6222.000
403.4540, 6349.000
404.6490, 6421.000
405.8440, 6625.000
407.0390, 6788.000
408.2330, 6991.000
409.4280, 6990.000
410.6220, 7394.000
411.8160, 7489.000
413.0100, 7597.000
414.2040, 7925.000
415.3980, 8180.000
416.5910, 8587.000
417.7850, 9004.000
418.9780, 9320.000
420.1710, 9726.000
421.3640, 9848.000
422.5560, 9854.000
423.7490, 9587.000
424.9410, 9201.000
426.1330, 8792.000
427.3250, 8392.000
428.5170, 7897.000
429.7090, 7598.000
430.9000, 7171.000
432.0910, 6982.000
433.2820, 6798.000
434.4730, 6696.000
435.6640, 6644.000
436.8550, 6585.000
438.0450, 6546.536
439.2360, 6435.000
440.4260, 6486.000
441.6160, 6378.000
442.8060, 6308.000
443.9950, 6290.000
445.1850, 6191.000
446.3740, 6095.000
447.5630, 6080.000
448.7520, 6123.000
449.9410, 6001.000
451.1300, 6059.000
452.3180, 6033.000
453.5060, 6020.000
454.6950, 6149.000
455.8830, 6156.000
457.0700, 6200.000
458.2580, 6150.000
459.4450, 6173.000
460.6330, 6107.137
461.8200, 6043.000
463.0070, 5966.000
464.1940, 6008.000
465.3800, 5954.000
466.5670, 5836.000
467.7530, 5889.000
468.9390, 5957.000
470.1250, 5928.000
471.3110, 5834.000
472.4970, 5953.000
473.6820, 5874.000
474.8680, 5949.000
476.0530, 5850.000
477.2380, 5873.000
478.4230, 5785.000
479.6070, 5740.000
480.7920, 5730.145
481.9760, 5750.000
483.1600, 5712.000
484.3440, 5712.000
485.5280, 5756.000
486.7120, 5755.000
487.8950, 5753.000
489.0780, 5774.000
490.2620, 5765.000
491.4450, 5798.000
492.6270, 5931.000
493.8100, 5967.000
494.9920, 6086.000
496.1750, 5996.000
497.3570, 6121.000
498.5390, 6158.000
499.7210, 6085.000
500.9020, 6168.000
502.0840, 6229.000
503.2650, 6278.000
504.4460, 6300.000
505.6270, 6427.000
506.8080, 6512.000
507.9890, 6771.000
509.1690, 6848.000
510.3500, 7090.000
511.5300, 7075.000
512.7100, 7030.000
513.8900, 6950.000
515.0690, 6885.000
516.2490, 6801.000
517.4280, 6570.000
518.6070, 6390.000
519.7860, 6300.000
520.9650, 6239.000
522.1440, 6150.000
523.3220, 5989.000
524.5010, 6000.000
525.6790, 5878.000
526.8570, 5964.000
528.0350, 5905.000
529.2130, 5760.000
530.3900, 5916.000
531.5670, 5838.000
532.7450, 5859.000
533.9220, 5853.000
535.0980, 5848.000
536.2750, 5921.000
537.4520, 5845.000
538.6280, 5948.000
539.8040, 6005.000
540.9800, 5998.000
542.1560, 6091.000
543.3320, 6115.327
544.5070, 6191.000
545.6830, 6197.000
546.8580, 6224.000
548.0330, 6250.000
549.2080, 6160.000
550.3830, 6294.000
551.5570, 6301.000
552.7310, 6326.000
553.9060, 6544.000
555.0800, 6671.000
556.2540, 6760.000
557.4270, 6841.723
558.6010, 6865.261
559.7740, 6856.000
560.9470, 6812.000
562.1210, 6708.000
563.2930, 6559.000
564.4660, 6472.000
565.6390, 6437.000
566.8110, 6449.000
567.9830, 6380.193
569.1550, 6346.000
570.3270, 6338.000
571.4990, 6361.000
572.6710, 6419.000
573.8420, 6333.000
575.0130, 6384.000
576.1840, 6361.000
577.3550, 6252.000
578.5260, 6273.000
579.6970, 6271.000
580.8670, 6144.000
582.0370, 6155.000
583.2070, 6167.000
584.3770, 6064.000
585.5470, 5923.000
586.7170, 6101.000
587.8860, 6031.000
589.0550, 5956.000
590.2240, 6062.000
591.3930, 6024.000
592.5620, 6001.000
593.7310, 6109.000
594.8990, 5963.000
596.0670, 6110.000
597.2350, 6078.000
598.4030, 6044.000
599.5710, 6095.000
600.7390, 6106.000
601.9060, 6026.000
603.0740, 6165.000
604.2410, 6196.000
605.4080, 6057.000
606.5740, 6091.000
607.7410, 6138.000
608.9080, 6083.000
610.0740, 6112.000
611.2400, 6186.000
612.4060, 6275.000
613.5720, 6272.000
614.7370, 6283.000
615.9030, 6306.000
617.0680, 6424.000
618.2330, 6423.000
619.3980, 6311.000
620.5630, 6395.000
621.7280, 6343.000
622.8920, 6381.000
624.0570, 6538.000
625.2210, 6515.000
626.3850, 6662.000
627.5490, 6594.000
628.7120, 6669.000
629.8760, 6697.000
631.0390, 6751.000
632.2020, 6825.000
633.3650, 6882.000
634.5280, 6972.119
635.6910, 7041.266
636.8530, 7183.000
638.0160, 7208.000
639.1780, 7363.000
640.3400, 7479.000
641.5020, 7554.000
642.6640, 7806.000
643.8250, 7880.000
644.9870, 8121.000
646.1480, 8300.000
647.3090, 8740.000
648.4700, 8886.000
649.6300, 9316.000
650.7910, 9907.000
651.9510, 10642.00
653.1120, 11325.00
654.2720, 12285.00
655.4320, 13641.00
656.5910, 15032.00
657.7510, 16743.00
658.9100, 18747.00
660.0690, 21029.00
661.2290, 23165.00
662.3880, 25397.00
663.5460, 27036.00
664.7050, 28955.00
665.8630, 31088.00
667.0220, 32587.00
668.1800, 35087.00
669.3380, 36557.00
670.4950, 37049.00
671.6530, 36092.00
672.8100, 33998.00
673.9680, 31079.00
675.1250, 27707.00
676.2820, 24454.00
677.4390, 21875.00
678.5950, 19715.00
679.7520, 18011.00
680.9080, 16334.00
682.0640, 15119.00
683.2200, 13787.00
684.3760, 12751.00
685.5320, 11697.00
686.6870, 10970.00
687.8420, 10320.00
688.9980, 9730.000
690.1530, 9309.000
691.3070, 8900.000
692.4620, 8595.000
693.6170, 8324.000
694.7710, 8150.000
695.9250, 8074.000
697.0790, 7821.000
698.2330, 7678.000
699.3870, 7701.000
700.5400, 7512.000
701.6940, 7420.000
702.8470, 7387.000
704.0000, 7325.000
705.1530, 7302.000
706.3050, 7279.000
707.4580, 7327.000
708.6100, 7260.000
709.7630, 7286.000
710.9150, 7253.000
712.0660, 7337.000
713.2180, 7266.000
714.3700, 7191.000
715.5210, 7408.000
716.6720, 7340.000
717.8240, 7185.000
718.9740, 7154.000
720.1250, 7223.000
721.2760, 7103.000
722.4260, 7036.000
723.5770, 7119.000
724.7270, 6937.000
725.8770, 7020.000
727.0260, 6918.000
728.1760, 6851.000
729.3250, 6890.000
730.4750, 6809.000
731.6240, 6943.000
732.7730, 6795.000
733.9220, 6864.000
735.0700, 6884.000
736.2190, 6995.000
737.3670, 6954.000
738.5150, 6921.000
739.6630, 6944.000
740.8110, 6968.000
741.9590, 6892.000
743.1060, 6870.000
744.2540, 6837.000
745.4010, 6830.000
746.5480, 6782.000
747.6950, 6649.000
748.8410, 6765.000
749.9880, 6663.000
751.1340, 6710.000
752.2800, 6626.000
753.4260, 6645.000
754.5720, 6747.000
755.7180, 6580.000
756.8640, 6641.000
758.0090, 6701.000
759.1540, 6592.000
760.2990, 6644.000
761.4440, 6714.000
762.5890, 6699.000
763.7340, 6706.000
764.8780, 6625.000
766.0220, 6681.000
767.1660, 6625.000
768.3100, 6636.000
769.4540, 6650.000
770.5980, 6736.000
771.7410, 6706.000
772.8840, 6667.000
774.0280, 6721.000
775.1700, 6624.000
776.3130, 6634.000
777.4560, 6690.000
778.5980, 6658.000
779.7410, 6680.000
780.8830, 6732.000
782.0250, 6657.000
783.1670, 6626.000
784.3080, 6671.000
785.4500, 6679.000
786.5910, 6719.000
787.7320, 6702.000
788.8730, 6717.000
790.0140, 6708.000
791.1550, 6746.000
792.2950, 6750.000
793.4360, 6804.000
794.5760, 6780.340
795.7160, 6789.000
796.8560, 6738.000
797.9960, 6780.000
799.1350, 6759.000
800.2750, 6707.000
801.4140, 6776.000
802.5530, 6740.000
803.6920, 6786.000
804.8310, 6721.000
805.9690, 6782.000
807.1080, 6783.000
808.2460, 6830.000
809.3840, 6817.000
810.5220, 6814.000
811.6600, 6755.000
812.7970, 6787.000
813.9350, 6762.000
815.0720, 6838.000
816.2090, 6785.000
817.3460, 6855.000
818.4830, 6923.000
819.6200, 6835.000
820.7560, 6880.000
821.8930, 6759.000
823.0290, 6898.000
824.1650, 6877.000
825.3010, 6846.000
826.4360, 6769.000
827.5720, 6796.420
828.7070, 6974.000
829.8420, 6870.000
830.9770, 6844.000
832.1120, 6973.000
833.2470, 6899.000
834.3820, 6872.000
835.5160, 6825.000
836.6500, 6917.000
837.7840, 6878.000
838.9180, 6983.000
840.0520, 6874.000
841.1860, 7015.000
842.3190, 6976.000
843.4520, 6943.000
844.5850, 7040.000
845.7180, 6953.000
846.8510, 7106.000
847.9840, 7088.000
849.1160, 6948.000
850.2490, 7132.000
851.3810, 7020.000
852.5130, 7224.000
853.6450, 7079.000
854.7760, 7089.000
855.9080, 7185.000
857.0390, 7206.000
858.1700, 7217.000
859.3010, 7150.000
860.4320, 7180.000
861.5630, 7252.000
862.6930, 7227.000
863.8240, 7329.000
864.9540, 7396.000
866.0840, 7352.000
867.2140, 7390.000
868.3440, 7546.000
869.4730, 7631.000
870.6030, 7777.000
871.7320, 7803.000
872.8610, 8001.000
873.9900, 8133.088
875.1190, 8314.000
876.2470, 8459.000
877.3760, 8624.000
878.5040, 8760.000
879.6320, 8824.000
880.7600, 8845.714
881.8880, 8918.000
883.0150, 8744.000
884.1430, 8599.000
885.2700, 8445.000
886.3970, 8343.661
887.5240, 8246.000
888.6510, 8203.000
889.7780, 8094.000
890.9040, 8104.000
892.0310, 7913.000
893.1570, 7917.000
894.2830, 7963.000
895.4090, 7721.000
896.5350, 7935.000
897.6600, 7774.000
898.7860, 7680.000
899.9110, 7785.000
901.0360, 7809.000
902.1610, 7840.000
903.2860, 7845.000
904.4100, 7836.344
905.5350, 7891.000
906.6590, 7819.000
907.7830, 7846.000
908.9070, 7894.000
910.0310, 7992.000
911.1540, 7926.000
912.2780, 7950.000
913.4010, 7930.000
914.5240, 7999.000
915.6470, 8025.000
916.7700, 8115.000
917.8930, 8062.000
919.0150, 7972.000
920.1380, 8060.000
921.2600, 8024.000
922.3820, 8003.000
923.5040, 8081.000
924.6260, 8193.000
925.7470, 8068.000
926.8690, 8183.000
927.9900, 8178.000
929.1110, 8261.000
930.2320, 8332.000
931.3530, 8443.000
932.4730, 8616.000
933.5940, 8765.000
934.7140, 8915.000
935.8340, 9281.000
936.9540, 9560.000
938.0740, 9779.000
939.1930, 9858.000
940.3130, 9946.570
941.4320, 9923.754
942.5510, 9884.000
943.6700, 9711.000
944.7890, 9530.000
945.9080, 9297.000
947.0260, 9180.000
948.1450, 9140.000
949.2630, 9139.000
950.3810, 9100.000
951.4990, 9082.000
952.6170, 9182.000
953.7340, 9240.000
954.8520, 9375.299
955.9690, 9425.000
957.0860, 9693.000
958.2030, 9896.000
959.3200, 10038.00
960.4360, 10418.00
961.5530, 10940.00
962.6690, 11467.00
963.7850, 12040.00
964.9010, 12823.00
966.0170, 13882.00
967.1330, 15089.00
968.2480, 16461.79
969.3630, 17873.00
970.4790, 19750.00
971.5940, 21660.00
972.7080, 23697.00
973.8230, 25364.00
974.9380, 26532.00
976.0520, 27063.00
977.1660, 26670.00
978.2800, 25902.00
979.3940, 24621.00
980.5080, 23668.00
981.6220, 22602.00
982.7350, 21819.00
983.8480, 21625.00
984.9610, 21366.00
986.0740, 21794.00
987.1870, 21908.00
988.3000, 22130.00
989.4120, 22625.00
990.5250, 22894.00
991.6370, 23512.00
992.7490, 23727.00
993.8610, 24067.00
994.9720, 24735.00
996.0840, 25424.00
997.1950, 26309.00
998.3060, 26959.00
999.4170, 27591.00
1000.528, 27767.00
1001.639, 27389.00
1002.750, 26821.00
1003.860, 25594.00
1004.970, 24169.00
1006.080, 22984.00
1007.190, 21789.00
1008.300, 20106.00
1009.410, 18907.00
1010.519, 17680.00
1011.628, 16585.00
1012.738, 15504.00
1013.846, 14424.00
1014.955, 13737.00
1016.064, 12943.00
1017.172, 12507.00
1018.281, 11963.00
1019.389, 11673.00
1020.497, 11364.00
1021.605, 11103.00
1022.713, 10979.00
1023.820, 10913.00
1024.928, 10579.00
1026.035, 10623.00
1027.142, 10485.00
1028.249, 10417.00
1029.356, 10367.00
1030.462, 10331.00
1031.569, 10228.00
1032.675, 10305.00
1033.781, 10279.00
1034.887, 10154.00
1035.993, 10348.00
1037.098, 10540.00
1038.204, 10780.00
1039.309, 10824.00
1040.415, 10761.00
1041.520, 10957.00
1042.624, 10863.00
1043.729, 10789.00
1044.834, 10791.00
1045.938, 10634.00
1047.042, 10777.00
1048.146, 10531.00
1049.250, 10409.00
1050.354, 10227.00
1051.458, 10016.00
1052.561, 9875.000
1053.664, 9762.000
1054.767, 9582.000
1055.870, 9459.731
1056.973, 9337.000
1058.076, 9161.000
1059.178, 9060.000
1060.281, 8869.000
1061.383, 8871.000
1062.485, 8936.000
1063.587, 8729.000
1064.688, 8838.000
1065.790, 8705.000
1066.891, 8607.000
1067.993, 8574.000
1069.094, 8599.000
1070.195, 8674.000
1071.295, 8639.000
1072.396, 8686.000
1073.496, 8577.000
1074.597, 8550.000
1075.697, 8523.000
1076.797, 8367.000
1077.897, 8630.000
1078.996, 8366.000
1080.096, 8511.000
1081.195, 8408.000
1082.294, 8512.000
1083.393, 8318.000
1084.492, 8440.000
1085.591, 8655.000
1086.689, 8436.000
1087.788, 8440.000
1088.886, 8523.000
1089.984, 8450.000
1091.082, 8493.000
1092.180, 8356.000
1093.277, 8526.000
1094.375, 8451.000
1095.472, 8376.000
1096.569, 8455.000
1097.666, 8352.000
1098.763, 8482.000
1099.860, 8422.000
1100.956, 8388.000
1102.053, 8508.000
1103.149, 8429.000
1104.245, 8378.000
1105.341, 8398.000
1106.436, 8481.000
1107.532, 8428.000
1108.627, 8568.000
1109.723, 8568.000
1110.818, 8391.000
1111.913, 8558.000
1113.007, 8429.000
1114.102, 8555.000
1115.197, 8445.000
1116.291, 8424.000
1117.385, 8467.000
1118.479, 8374.000
1119.573, 8624.000
1120.666, 8537.000
1121.760, 8577.000
1122.853, 8574.000
1123.947, 8492.000
1125.040, 8499.000
1126.132, 8559.000
1127.225, 8367.000
1128.318, 8580.000
1129.410, 8476.000
1130.502, 8593.000
1131.595, 8528.000
1132.687, 8612.000
1133.778, 8531.000
1134.870, 8458.000
1135.961, 8629.000
1137.053, 8567.000
1138.144, 8620.000
1139.235, 8545.000
1140.326, 8648.000
1141.416, 8535.000
1142.507, 8549.000
1143.597, 8529.000
1144.688, 8636.000
1145.778, 8625.344
1146.868, 8643.000
1147.957, 8644.000
1149.047, 8669.000
1150.136, 8606.000
1151.226, 8656.000
1152.315, 8626.000
1153.404, 8618.000
1154.493, 8654.000
1155.581, 8497.000
1156.670, 8665.000
1157.758, 8698.000
1158.846, 8601.000
1159.934, 8565.000
1161.022, 8669.000
1162.110, 8614.702
1163.198, 8645.308
1164.285, 8650.000
1165.372, 8657.000
1166.459, 8683.000
1167.546, 8675.000
1168.633, 8688.010
1169.720, 8634.000
1170.806, 8725.000
1171.892, 8721.000
1172.979, 8796.000
1174.065, 8662.000
1175.150, 8699.000
1176.236, 8698.000
1177.322, 8749.000
1178.407, 8644.000
1179.492, 8773.000
1180.577, 8719.000
1181.662, 8736.000
1182.747, 8780.000
1183.832, 8786.000
1184.916, 8714.000
1186.000, 8653.000
1187.084, 8702.000
1188.168, 8675.000
1189.252, 8643.000
1190.336, 8691.000
1191.419, 8674.725
1192.503, 8695.916
1193.586, 8716.000
1194.669, 8747.000
1195.752, 8799.000
1196.835, 8848.000
1197.917, 8816.000
1199.000, 8734.000
1200.082, 8793.000
1201.164, 8891.000
1202.246, 8785.000
1203.328, 8937.000
1204.409, 8812.000
1205.491, 8826.000
1206.572, 8807.000
1207.653, 8789.000
1208.734, 8852.000
1209.815, 8893.000
1210.896, 8992.000
1211.976, 8913.000
1213.057, 8902.000
1214.137, 8875.000
1215.217, 8947.000
1216.297, 8881.000
1217.377, 8838.000
1218.456, 8996.000
1219.536, 8916.000
1220.615, 8957.000
1221.694, 9045.000
1222.773, 9033.000
1223.852, 8932.000
1224.931, 9044.000
1226.009, 9009.000
1227.088, 9056.000
1228.166, 9002.000
1229.244, 8985.947
1230.322, 9081.000
1231.400, 8939.000
1232.477, 9060.000
1233.555, 9095.000
1234.632, 9034.000
1235.709, 9146.000
1236.786, 9029.000
1237.863, 9052.000
1238.939, 9042.000
1240.016, 9119.000
1241.092, 9157.000
1242.168, 9172.351
1243.245, 9201.721
1244.320, 9206.000
1245.396, 9179.000
1246.472, 9169.000
1247.547, 9078.000
1248.622, 9187.000
1249.697, 9291.000
1250.772, 9231.000
1251.847, 9125.000
1252.922, 9267.000
1253.996, 9244.000
1255.071, 9292.000
1256.145, 9257.000
1257.219, 9300.000
1258.293, 9305.000
1259.366, 9281.000
1260.440, 9214.000
1261.513, 9253.000
1262.587, 9323.000
1263.660, 9170.000
1264.733, 9338.000
1265.805, 9389.000
1266.878, 9410.000
1267.951, 9357.000
1269.023, 9305.000
1270.095, 9293.000
1271.167, 9447.000
1272.239, 9431.000
1273.311, 9419.000
1274.382, 9389.000
1275.454, 9289.000
1276.525, 9336.000
1277.596, 9329.000
1278.667, 9409.000
1279.738, 9342.000
1280.808, 9391.000
1281.879, 9307.000
1282.949, 9407.000
1284.019, 9393.000
1285.089, 9412.000
1286.159, 9414.000
1287.229, 9473.000
1288.298, 9469.000
1289.368, 9458.571
1290.437, 9577.000
1291.506, 9452.000
1292.575, 9412.000
1293.644, 9494.000
1294.712, 9431.000
1295.781, 9449.000
1296.849, 9466.000
1297.917, 9571.000
1298.985, 9632.000
1300.053, 9632.000
1301.121, 9604.000
1302.188, 9520.000
1303.255, 9426.000
1304.323, 9525.000
1305.390, 9645.000
1306.457, 9541.000
1307.523, 9603.000
1308.590, 9591.000
1309.656, 9552.000
1310.723, 9693.000
1311.789, 9784.000
1312.855, 9682.000
1313.921, 9731.000
1314.986, 9688.000
1316.052, 9720.000
1317.117, 9630.000
1318.182, 9730.000
1319.248, 9738.000
1320.312, 9624.000
1321.377, 9738.000
1322.442, 9757.000
1323.506, 9759.000
1324.571, 9770.000
1325.635, 9759.000
1326.699, 9755.000
1327.762, 9858.000
1328.826, 9745.000
1329.890, 9862.000
1330.953, 9802.000
1332.016, 9801.000
1333.079, 9763.000
1334.142, 9856.000
1335.205, 9829.000
1336.268, 9799.000
1337.330, 9957.000
1338.392, 9777.000
1339.454, 9830.000
1340.516, 9837.000
1341.578, 9969.000
1342.640, 10014.00
1343.701, 9951.000
1344.763, 10117.00
1345.824, 10000.00
1346.885, 9992.000
1347.946, 9950.000
1349.007, 9921.000
1350.067, 10045.00
1351.128, 9988.000
1352.188, 10020.00
1353.248, 9909.000
1354.308, 10114.00
1355.368, 10081.00
1356.428, 10172.00
1357.487, 10180.00
1358.547, 10204.00
1359.606, 10143.00
1360.665, 10162.33
1361.724, 10235.00
1362.783, 10146.00
1363.841, 10287.00
1364.900, 10288.00
1365.958, 10273.00
1367.016, 10290.00
1368.074, 10240.00
1369.132, 10208.00
1370.190, 10174.00
1371.247, 10209.00
1372.304, 10277.00
1373.362, 10249.00
1374.419, 10385.00
1375.476, 10219.00
1376.532, 10383.00
1377.589, 10302.00
1378.645, 10132.00
1379.702, 10305.00
1380.758, 10388.00
1381.814, 10210.00
1382.870, 10342.00
1383.925, 10302.00
1384.981, 10363.00
1386.036, 10246.00
1387.092, 10433.00
1388.147, 10349.00
1389.202, 10393.00
1390.256, 10347.00
1391.311, 10458.00
1392.365, 10252.00
1393.420, 10364.00
1394.474, 10214.00
1395.528, 10304.00
1396.582, 10408.00
1397.636, 10241.00
1398.689, 10451.00
1399.742, 10406.00
1400.796, 10370.00
1401.849, 10446.00
1402.902, 10444.00
1403.955, 10273.00
1405.007, 10369.00
1406.060, 10489.00
1407.112, 10394.00
1408.164, 10543.00
1409.216, 10380.00
1410.268, 10497.00
1411.320, 10451.00
1412.371, 10500.00
1413.423, 10455.00
1414.474, 10398.00
1415.525, 10429.00
1416.576, 10440.64
1417.627, 10529.00
1418.678, 10521.00
1419.728, 10607.00
1420.778, 10613.00
1421.829, 10499.00
1422.879, 10518.00
1423.928, 10589.00
1424.978, 10620.00
1426.028, 10666.00
1427.077, 10612.00
1428.126, 10658.82
1429.176, 10558.00
1430.225, 10676.00
1431.273, 10650.00
1432.322, 10628.00
1433.371, 10691.00
1434.419, 10726.00
1435.467, 10663.00
1436.515, 10723.00
1437.563, 10856.00
1438.611, 10765.00
1439.658, 10874.00
1440.706, 10724.00
1441.753, 10789.00
1442.800, 10823.00
1443.847, 10730.00
1444.894, 10765.00
1445.941, 10748.26
1446.987, 10783.00
1448.034, 10783.00
1449.080, 10786.00
1450.126, 10887.00
1451.172, 10833.00
1452.218, 10837.00
1453.263, 10888.75
1454.309, 10852.00
1455.354, 10938.00
1456.399, 11027.00
1457.444, 11012.00
1458.489, 11038.55
1459.534, 10966.00
1460.579, 10982.00
1461.623, 10960.00
1462.667, 10891.00
1463.711, 11089.00
1464.755, 11019.00
1465.799, 11089.00
1466.843, 10975.00
1467.886, 11004.00
1468.930, 11050.00
1469.973, 10961.00
1471.016, 11057.00
1472.059, 10992.00
1473.101, 11222.00
1474.144, 10996.00
1475.186, 11125.00
1476.229, 10994.00
1477.271, 11075.00
1478.313, 11086.00
1479.355, 11126.00
1480.396, 11155.00
1481.438, 11069.00
1482.479, 11101.00
1483.520, 11092.00
1484.561, 11188.00
1485.602, 11123.00
1486.643, 11197.00
1487.684, 11194.00
1488.724, 11176.00
1489.765, 11258.00
1490.805, 11112.00
1491.845, 11190.00
1492.885, 11349.00
1493.924, 11281.00
1494.964, 11232.00
1496.003, 11319.00
1497.042, 11215.00
1498.082, 11316.00
1499.120, 11318.00
1500.159, 11355.00
1501.198, 11351.05
1502.236, 11366.66
1503.275, 11294.00
1504.313, 11349.00
1505.351, 11311.00
1506.389, 11220.00
1507.427, 11287.00
1508.464, 11266.90
1509.502, 11418.00
1510.539, 11340.00
1511.576, 11465.00
1512.613, 11539.00
1513.650, 11478.00
1514.687, 11437.00
1515.723, 11449.00
1516.759, 11420.00
1517.796, 11435.63
1518.832, 11416.00
1519.868, 11468.00
1520.903, 11476.00
1521.939, 11481.00
1522.975, 11649.00
1524.010, 11606.00
1525.045, 11601.00
1526.080, 11516.00
1527.115, 11501.00
1528.150, 11506.00
1529.184, 11478.11
1530.219, 11587.00
1531.253, 11528.00
1532.287, 11558.00
1533.321, 11687.00
1534.355, 11665.00
1535.388, 11644.00
1536.422, 11787.00
1537.455, 11664.00
1538.488, 11653.00
1539.522, 11796.00
1540.554, 11800.00
1541.587, 11734.00
1542.620, 11665.00
1543.652, 11613.00
1544.685, 11691.00
1545.717, 11849.00
1546.749, 11726.00
1547.781, 11810.00
1548.812, 11790.00
1549.844, 11857.00
1550.875, 11799.00
1551.906, 11926.00
1552.938, 11778.00
1553.968, 12048.00
1554.999, 12056.00
1556.030, 11925.00
1557.060, 11830.00
1558.091, 11950.00
1559.121, 11911.00
1560.151, 11829.00
1561.181, 11972.00
1562.211, 12004.00
1563.240, 11974.00
1564.270, 11998.00
1565.299, 12032.00
1566.328, 12042.00
1567.357, 12057.00
1568.386, 12180.00
1569.415, 12165.52
1570.443, 12184.25
1571.472, 12190.00
1572.500, 12198.00
1573.528, 12161.00
1574.556, 12235.00
1575.584, 12119.00
1576.611, 12143.00
1577.639, 12167.00
##END=



