##NAMES=Rhodonite
##RRUFFID=R060549
##IDEAL CHEMISTRY=CaMn^2+^_3_Mn^2+^Si_5_O_15_
##LOCALITY=unknown
##OWNER=RRUFF
##SOURCE=Gemological Institute of America
##DESCRIPTION=Pink cleavage fragment
##STATUS=The identification of this mineral has been confirmed by X-ray diffraction and chemical analysis
##URL=rruff.info/R060549
##MEASURED CHEMISTRY=(Mn_0.76_Ca_0.12_Fe_0.07_Mg_0.06_)Si_0.99_O_3_
##PIN_ID=L01873
##ORIENTATION=Laser parallel to c* (0 0 1). Fiducial mark perpendicular to laser is parallel to a [1 0 0]
85.74900, 8718.000
86.98900, 8782.000
88.22800, 8762.000
89.46700, 9147.000
90.70600, 9234.000
91.94400, 9554.000
93.18300, 9829.000
94.42100, 10023.00
95.65900, 10301.00
96.89700, 10477.00
98.13500, 10454.00
99.37300, 10288.00
100.6100, 10157.00
101.8480, 10082.00
103.0850, 9890.000
104.3220, 10150.00
105.5590, 10577.00
106.7950, 11655.00
108.0320, 13275.00
109.2680, 15253.00
110.5040, 16871.00
111.7400, 18727.00
112.9760, 19949.00
114.2120, 20566.00
115.4470, 20483.00
116.6820, 19951.00
117.9170, 18909.00
119.1520, 18040.00
120.3870, 17064.00
121.6220, 16080.00
122.8560, 15408.00
124.0900, 15039.00
125.3240, 14548.00
126.5580, 13782.00
127.7920, 13381.00
129.0260, 12927.00
130.2590, 12299.00
131.4920, 12318.00
132.7250, 11950.00
133.9580, 11786.00
135.1910, 11657.00
136.4230, 11329.00
137.6560, 11165.00
138.8880, 10769.00
140.1200, 10551.00
141.3520, 10113.00
142.5830, 9655.000
143.8150, 9409.000
145.0460, 9178.000
146.2770, 8862.000
147.5080, 8843.000
148.7390, 8757.000
149.9700, 8674.000
151.2000, 8895.000
152.4310, 8859.000
153.6610, 9021.000
154.8910, 9183.000
156.1210, 9398.000
157.3500, 9338.000
158.5800, 9720.000
159.8090, 9951.000
161.0380, 10366.00
162.2670, 10684.00
163.4960, 10861.00
164.7240, 11438.00
165.9530, 11475.00
167.1810, 11599.00
168.4090, 11810.00
169.6370, 11630.00
170.8650, 11435.00
172.0920, 11066.00
173.3200, 10705.00
174.5470, 10457.00
175.7740, 10212.00
177.0010, 9969.000
178.2280, 9836.242
179.4540, 9686.000
180.6810, 9615.000
181.9070, 9559.000
183.1330, 9480.000
184.3590, 9360.000
185.5850, 9185.000
186.8100, 9288.000
188.0350, 9264.000
189.2610, 9359.000
190.4860, 9379.554
191.7110, 9381.000
192.9350, 9461.000
194.1600, 9505.000
195.3840, 9602.000
196.6080, 9754.000
197.8320, 9718.000
199.0560, 9782.000
200.2800, 9745.000
201.5030, 9728.000
202.7270, 9822.000
203.9500, 9785.000
205.1730, 9802.000
206.3950, 9782.000
207.6180, 9793.000
208.8410, 9795.000
210.0630, 9918.000
211.2850, 9962.000
212.5070, 9852.000
213.7290, 10070.00
214.9500, 9768.000
216.1720, 9785.000
217.3930, 9723.000
218.6140, 9617.000
219.8350, 9525.000
221.0560, 9474.794
222.2770, 9578.000
223.4970, 9426.000
224.7170, 9486.000
225.9370, 9592.000
227.1570, 9593.000
228.3770, 9761.000
229.5970, 9482.000
230.8160, 9545.000
232.0350, 9622.000
233.2540, 9535.000
234.4730, 9595.000
235.6920, 9753.000
236.9110, 9599.000
238.1290, 9786.000
239.3470, 9948.000
240.5650, 10082.00
241.7830, 10201.00
243.0010, 10520.00
244.2180, 10540.00
245.4360, 10721.00
246.6530, 11216.00
247.8700, 11335.00
249.0870, 11605.00
250.3040, 11713.00
251.5200, 11713.00
252.7370, 11842.00
253.9530, 11694.00
255.1690, 11680.00
256.3850, 11658.00
257.6000, 11563.00
258.8160, 11488.00
260.0310, 11459.00
261.2460, 11496.00
262.4610, 11442.00
263.6760, 11368.00
264.8910, 11384.00
266.1050, 11259.00
267.3200, 11217.39
268.5340, 11034.00
269.7480, 11023.00
270.9620, 10882.00
272.1750, 10667.00
273.3890, 10571.00
274.6020, 10489.00
275.8150, 10539.00
277.0280, 10440.00
278.2410, 10473.00
279.4540, 10442.00
280.6660, 10328.00
281.8790, 10046.00
283.0910, 10115.00
284.3030, 10007.00
285.5140, 10116.00
286.7260, 9879.000
287.9380, 9821.000
289.1490, 9777.000
290.3600, 9629.000
291.5710, 9699.000
292.7820, 9632.000
293.9920, 9634.000
295.2030, 9594.000
296.4130, 9656.000
297.6230, 9574.000
298.8330, 9597.000
300.0430, 9666.000
301.2520, 9706.000
302.4620, 9765.000
303.6710, 9695.000
304.8800, 9759.000
306.0890, 9700.000
307.2980, 9718.000
308.5070, 9710.000
309.7150, 9861.000
310.9230, 9907.000
312.1310, 10078.00
313.3390, 10210.00
314.5470, 10373.00
315.7550, 10651.00
316.9620, 11015.00
318.1690, 11280.00
319.3760, 11880.00
320.5830, 12253.00
321.7900, 12779.00
322.9960, 13250.00
324.2030, 13727.00
325.4090, 14223.00
326.6150, 14542.00
327.8210, 14968.00
329.0270, 15137.00
330.2320, 15403.00
331.4380, 15431.00
332.6430, 15711.00
333.8480, 15772.00
335.0530, 15895.00
336.2580, 15709.00
337.4620, 15438.00
338.6670, 15239.00
339.8710, 14786.00
341.0750, 14469.00
342.2790, 14224.00
343.4820, 13937.00
344.6860, 13858.00
345.8890, 13683.00
347.0920, 13802.00
348.2960, 13745.00
349.4980, 13668.00
350.7010, 13778.00
351.9040, 13584.00
353.1060, 13130.00
354.3080, 12993.00
355.5100, 12602.00
356.7120, 12363.00
357.9140, 11894.00
359.1150, 11723.00
360.3170, 11400.00
361.5180, 11354.00
362.7190, 11308.00
363.9200, 11305.00
365.1200, 11212.00
366.3210, 11125.00
367.5210, 11160.00
368.7210, 11034.00
369.9210, 10982.00
371.1210, 10922.00
372.3210, 10801.00
373.5200, 10670.00
374.7200, 10559.00
375.9190, 10593.00
377.1180, 10448.00
378.3170, 10396.00
379.5150, 10464.00
380.7140, 10384.00
381.9120, 10411.00
383.1110, 10455.00
384.3090, 10568.00
385.5060, 10623.00
386.7040, 10946.00
387.9020, 10845.00
389.0990, 11127.00
390.2960, 11084.00
391.4930, 10944.00
392.6900, 11050.00
393.8860, 10931.00
395.0830, 10931.00
396.2790, 10921.00
397.4750, 11014.00
398.6710, 11165.00
399.8670, 11159.00
401.0630, 11355.00
402.2580, 11868.00
403.4540, 12004.00
404.6490, 12644.00
405.8440, 13014.00
407.0390, 13380.00
408.2330, 14128.00
409.4280, 14770.00
410.6220, 15406.00
411.8160, 15812.00
413.0100, 16539.00
414.2040, 17520.00
415.3980, 18610.00
416.5910, 19611.00
417.7850, 20909.00
418.9780, 22113.00
420.1710, 22706.00
421.3640, 22976.00
422.5560, 22647.00
423.7490, 21868.00
424.9410, 20757.00
426.1330, 19287.00
427.3250, 17797.00
428.5170, 16401.00
429.7090, 15125.00
430.9000, 14382.00
432.0910, 13395.00
433.2820, 12868.00
434.4730, 12540.00
435.6640, 12139.00
436.8550, 11798.00
438.0450, 11631.00
439.2360, 11318.00
440.4260, 11211.00
441.6160, 11285.00
442.8060, 11070.00
443.9950, 11018.00
445.1850, 10978.00
446.3740, 10941.00
447.5630, 11100.00
448.7520, 11171.00
449.9410, 11150.00
451.1300, 11405.00
452.3180, 11439.00
453.5060, 11543.00
454.6950, 11652.00
455.8830, 11489.00
457.0700, 11525.00
458.2580, 11566.00
459.4450, 11413.00
460.6330, 11152.00
461.8200, 11096.00
463.0070, 10929.00
464.1940, 10813.00
465.3800, 10571.00
466.5670, 10333.00
467.7530, 10345.00
468.9390, 10101.00
470.1250, 9984.000
471.3110, 9960.000
472.4970, 10067.00
473.6820, 9914.000
474.8680, 10056.00
476.0530, 9900.000
477.2380, 9881.000
478.4230, 9842.000
479.6070, 9738.000
480.7920, 9636.000
481.9760, 9689.000
483.1600, 9759.000
484.3440, 9792.000
485.5280, 9662.000
486.7120, 9857.000
487.8950, 9778.000
489.0780, 10001.00
490.2620, 9975.000
491.4450, 10222.00
492.6270, 10466.00
493.8100, 10512.00
494.9920, 10741.00
496.1750, 10736.00
497.3570, 10748.00
498.5390, 10837.00
499.7210, 10733.00
500.9020, 10781.00
502.0840, 10831.00
503.2650, 10785.00
504.4460, 10889.00
505.6270, 11124.00
506.8080, 11431.00
507.9890, 11745.00
509.1690, 11867.00
510.3500, 11930.00
511.5300, 11928.00
512.7100, 11845.00
513.8900, 11488.00
515.0690, 11450.00
516.2490, 11058.00
517.4280, 10693.00
518.6070, 10545.00
519.7860, 10266.00
520.9650, 10062.00
522.1440, 9883.000
523.3220, 9947.000
524.5010, 9828.000
525.6790, 9839.000
526.8570, 9813.000
528.0350, 9702.000
529.2130, 9577.000
530.3900, 9557.000
531.5670, 9600.000
532.7450, 9588.000
533.9220, 9653.000
535.0980, 9645.613
536.2750, 9745.000
537.4520, 9685.000
538.6280, 9669.000
539.8040, 9757.000
540.9800, 9815.000
542.1560, 9826.000
543.3320, 9980.000
544.5070, 10023.00
545.6830, 9937.000
546.8580, 10010.00
548.0330, 9974.000
549.2080, 10076.38
550.3830, 10294.00
551.5570, 10349.00
552.7310, 10557.00
553.9060, 10776.00
555.0800, 11122.00
556.2540, 11314.00
557.4270, 11478.00
558.6010, 11503.00
559.7740, 11371.00
560.9470, 11282.00
562.1210, 11214.00
563.2930, 11116.00
564.4660, 10682.00
565.6390, 10533.00
566.8110, 10459.00
567.9830, 10359.00
569.1550, 10337.00
570.3270, 10382.00
571.4990, 10396.00
572.6710, 10340.00
573.8420, 10229.00
575.0130, 10336.00
576.1840, 10160.00
577.3550, 10395.00
578.5260, 10165.00
579.6970, 10059.00
580.8670, 9874.000
582.0370, 9947.000
583.2070, 9816.000
584.3770, 9930.000
585.5470, 9891.000
586.7170, 9808.000
587.8860, 9835.000
589.0550, 9888.000
590.2240, 9880.000
591.3930, 9899.383
592.5620, 9884.218
593.7310, 9880.000
594.8990, 9851.000
596.0670, 9792.000
597.2350, 9814.000
598.4030, 9830.602
599.5710, 9917.000
600.7390, 9912.000
601.9060, 9942.000
603.0740, 9958.000
604.2410, 9966.000
605.4080, 10044.00
606.5740, 10061.00
607.7410, 10096.00
608.9080, 10067.00
610.0740, 10108.00
611.2400, 10131.00
612.4060, 10122.00
613.5720, 10125.00
614.7370, 10083.00
615.9030, 10211.00
617.0680, 10078.00
618.2330, 10370.00
619.3980, 10408.00
620.5630, 10311.00
621.7280, 10406.00
622.8920, 10394.00
624.0570, 10461.94
625.2210, 10525.52
626.3850, 10660.00
627.5490, 10662.00
628.7120, 10797.00
629.8760, 10876.00
631.0390, 10979.00
632.2020, 11017.00
633.3650, 11244.00
634.5280, 11174.00
635.6910, 11419.00
636.8530, 11518.00
638.0160, 11736.00
639.1780, 11881.00
640.3400, 12001.00
641.5020, 12157.00
642.6640, 12605.00
643.8250, 12770.00
644.9870, 13144.00
646.1480, 13515.00
647.3090, 14196.00
648.4700, 14580.00
649.6300, 15482.00
650.7910, 16230.00
651.9510, 17239.00
653.1120, 18595.00
654.2720, 20403.00
655.4320, 22714.00
656.5910, 25309.00
657.7510, 28428.00
658.9100, 31780.00
660.0690, 35187.00
661.2290, 38546.00
662.3880, 41583.00
663.5460, 44150.00
664.7050, 46471.00
665.8630, 49445.00
667.0220, 52179.00
668.1800, 54609.00
669.3380, 56213.00
670.4950, 55841.00
671.6530, 54578.00
672.8100, 50979.00
673.9680, 46629.00
675.1250, 42103.00
676.2820, 37764.00
677.4390, 33680.00
678.5950, 30981.00
679.7520, 29199.00
680.9080, 26093.00
682.0640, 24196.00
683.2200, 22037.00
684.3760, 20475.00
685.5320, 18983.00
686.6870, 17508.00
687.8420, 16599.00
688.9980, 15752.00
690.1530, 14889.00
691.3070, 14365.00
692.4620, 13763.00
693.6170, 13377.00
694.7710, 13088.00
695.9250, 12822.00
697.0790, 12598.00
698.2330, 12389.00
699.3870, 12195.29
700.5400, 12055.00
701.6940, 11875.00
702.8470, 11794.00
704.0000, 11685.00
705.1530, 11639.00
706.3050, 11651.00
707.4580, 11659.00
708.6100, 11490.00
709.7630, 11500.00
710.9150, 11420.00
712.0660, 11371.00
713.2180, 11415.00
714.3700, 11327.00
715.5210, 11249.00
716.6720, 11135.00
717.8240, 11151.00
718.9740, 11117.00
720.1250, 11018.00
721.2760, 11027.00
722.4260, 10899.00
723.5770, 10867.00
724.7270, 10955.00
725.8770, 10887.00
727.0260, 10837.00
728.1760, 10819.00
729.3250, 10919.00
730.4750, 10892.00
731.6240, 10937.00
732.7730, 10964.93
733.9220, 10949.40
735.0700, 10988.00
736.2190, 10951.00
737.3670, 10925.00
738.5150, 10951.00
739.6630, 11012.00
740.8110, 11010.00
741.9590, 11035.00
743.1060, 10851.00
744.2540, 10965.00
745.4010, 10816.00
746.5480, 10859.00
747.6950, 10718.00
748.8410, 10707.00
749.9880, 10681.00
751.1340, 10585.00
752.2800, 10530.00
753.4260, 10448.00
754.5720, 10442.64
755.7180, 10473.00
756.8640, 10458.00
758.0090, 10488.00
759.1540, 10511.00
760.2990, 10550.00
761.4440, 10548.00
762.5890, 10412.00
763.7340, 10443.00
764.8780, 10480.00
766.0220, 10452.00
767.1660, 10518.00
768.3100, 10467.00
769.4540, 10498.00
770.5980, 10525.00
771.7410, 10580.00
772.8840, 10484.00
774.0280, 10497.00
775.1700, 10375.00
776.3130, 10538.00
777.4560, 10569.00
778.5980, 10577.00
779.7410, 10522.00
780.8830, 10611.00
782.0250, 10451.00
783.1670, 10507.00
784.3080, 10557.00
785.4500, 10660.00
786.5910, 10557.00
787.7320, 10471.00
788.8730, 10602.00
790.0140, 10686.00
791.1550, 10506.00
792.2950, 10522.00
793.4360, 10555.00
794.5760, 10586.00
795.7160, 10654.00
796.8560, 10614.00
797.9960, 10666.00
799.1350, 10669.00
800.2750, 10754.00
801.4140, 10652.00
802.5530, 10719.00
803.6920, 10588.00
804.8310, 10730.00
805.9690, 10709.00
807.1080, 10535.00
808.2460, 10671.00
809.3840, 10630.00
810.5220, 10722.00
811.6600, 10621.00
812.7970, 10682.00
813.9350, 10706.00
815.0720, 10647.00
816.2090, 10651.00
817.3460, 10781.00
818.4830, 10757.00
819.6200, 10778.00
820.7560, 10694.00
821.8930, 10805.00
823.0290, 10805.00
824.1650, 10727.00
825.3010, 10901.00
826.4360, 10823.00
827.5720, 10931.00
828.7070, 10730.00
829.8420, 10838.00
830.9770, 10850.00
832.1120, 10823.00
833.2470, 10886.00
834.3820, 10847.00
835.5160, 10966.00
836.6500, 10921.00
837.7840, 10962.00
838.9180, 10917.00
840.0520, 10918.00
841.1860, 10831.00
842.3190, 10883.00
843.4520, 10797.00
844.5850, 11128.00
845.7180, 10937.00
846.8510, 11089.00
847.9840, 10979.00
849.1160, 11063.00
850.2490, 11046.00
851.3810, 11125.00
852.5130, 11086.00
853.6450, 11180.00
854.7760, 11299.00
855.9080, 11155.00
857.0390, 11287.00
858.1700, 11231.00
859.3010, 11331.00
860.4320, 11445.00
861.5630, 11459.00
862.6930, 11565.36
863.8240, 11731.00
864.9540, 11745.00
866.0840, 11823.00
867.2140, 11985.00
868.3440, 12133.00
869.4730, 12343.00
870.6030, 12729.00
871.7320, 12846.00
872.8610, 13348.00
873.9900, 13609.00
875.1190, 13999.00
876.2470, 14554.00
877.3760, 14882.00
878.5040, 15204.00
879.6320, 15424.00
880.7600, 15257.00
881.8880, 15312.00
883.0150, 14898.00
884.1430, 14519.00
885.2700, 14433.00
886.3970, 14137.00
887.5240, 13634.00
888.6510, 13612.00
889.7780, 13277.00
890.9040, 13154.00
892.0310, 13116.00
893.1570, 12832.00
894.2830, 12816.00
895.4090, 12717.00
896.5350, 12780.00
897.6600, 12734.00
898.7860, 12632.00
899.9110, 12647.00
901.0360, 12599.00
902.1610, 12570.88
903.2860, 12569.13
904.4100, 12540.00
905.5350, 12581.00
906.6590, 12581.00
907.7830, 12654.00
908.9070, 12771.00
910.0310, 12905.00
911.1540, 12894.00
912.2780, 12720.00
913.4010, 12878.00
914.5240, 12813.00
915.6470, 12932.00
916.7700, 12818.00
917.8930, 12851.00
919.0150, 12783.00
920.1380, 12674.00
921.2600, 12595.00
922.3820, 12573.00
923.5040, 12592.75
924.6260, 12739.00
925.7470, 12761.00
926.8690, 12870.00
927.9900, 13047.00
929.1110, 13022.00
930.2320, 13580.00
931.3530, 13762.00
932.4730, 14212.00
933.5940, 14747.00
934.7140, 15269.00
935.8340, 15875.00
936.9540, 16720.00
938.0740, 17361.00
939.1930, 17764.00
940.3130, 17873.00
941.4320, 17783.00
942.5510, 17013.00
943.6700, 16674.00
944.7890, 15879.00
945.9080, 15514.00
947.0260, 15060.00
948.1450, 14640.00
949.2630, 14214.00
950.3810, 14152.00
951.4990, 14198.00
952.6170, 14056.00
953.7340, 14096.00
954.8520, 14191.00
955.9690, 14385.00
957.0860, 14660.00
958.2030, 14850.00
959.3200, 15195.00
960.4360, 15881.00
961.5530, 16147.00
962.6690, 17196.00
963.7850, 18037.00
964.9010, 19245.00
966.0170, 20816.00
967.1330, 22622.00
968.2480, 24528.00
969.3630, 26908.00
970.4790, 29692.00
971.5940, 32792.00
972.7080, 35568.00
973.8230, 37739.00
974.9380, 39238.00
976.0520, 39503.00
977.1660, 39033.00
978.2800, 37580.00
979.3940, 35532.00
980.5080, 34114.00
981.6220, 32201.00
982.7350, 31210.00
983.8480, 30461.00
984.9610, 29687.00
986.0740, 29672.00
987.1870, 29619.00
988.3000, 29347.00
989.4120, 29362.00
990.5250, 29134.00
991.6370, 29132.00
992.7490, 28898.00
993.8610, 29136.00
994.9720, 29161.00
996.0840, 29643.00
997.1950, 29875.00
998.3060, 30545.00
999.4170, 31301.00
1000.528, 31339.00
1001.639, 31891.00
1002.750, 31213.00
1003.860, 30794.00
1004.970, 30335.00
1006.080, 29642.00
1007.190, 28964.00
1008.300, 27953.00
1009.410, 26782.00
1010.519, 25549.00
1011.628, 24417.00
1012.738, 22840.00
1013.846, 21758.00
1014.955, 20452.00
1016.064, 19746.00
1017.172, 19123.00
1018.281, 18665.00
1019.389, 18245.00
1020.497, 17851.00
1021.605, 17408.00
1022.713, 17431.00
1023.820, 17260.00
1024.928, 16934.00
1026.035, 16972.00
1027.142, 16810.00
1028.249, 16693.00
1029.356, 16552.00
1030.462, 16518.00
1031.569, 16488.08
1032.675, 16449.00
1033.781, 16510.00
1034.887, 16698.00
1035.993, 16703.00
1037.098, 17007.00
1038.204, 17362.00
1039.309, 17408.00
1040.415, 17577.00
1041.520, 17679.00
1042.624, 17591.00
1043.729, 17595.00
1044.834, 17430.00
1045.938, 17051.00
1047.042, 16791.00
1048.146, 16415.00
1049.250, 16135.00
1050.354, 15756.00
1051.458, 15123.00
1052.561, 14798.00
1053.664, 14492.00
1054.767, 14243.00
1055.870, 13998.00
1056.973, 13618.00
1058.076, 13679.00
1059.178, 13361.00
1060.281, 13369.00
1061.383, 13184.00
1062.485, 13016.00
1063.587, 13017.00
1064.688, 13041.00
1065.790, 12890.00
1066.891, 12791.00
1067.993, 12741.00
1069.094, 12741.00
1070.195, 12876.00
1071.295, 12839.00
1072.396, 12809.00
1073.496, 12662.00
1074.597, 12657.00
1075.697, 12574.00
1076.797, 12516.00
1077.897, 12764.00
1078.996, 12555.00
1080.096, 12645.00
1081.195, 12523.00
1082.294, 12659.00
1083.393, 12448.00
1084.492, 12485.00
1085.591, 12429.00
1086.689, 12474.00
1087.788, 12661.00
1088.886, 12531.00
1089.984, 12537.00
1091.082, 12396.00
1092.180, 12423.00
1093.277, 12467.00
1094.375, 12511.00
1095.472, 12385.00
1096.569, 12363.00
1097.666, 12393.00
1098.763, 12457.00
1099.860, 12421.00
1100.956, 12381.00
1102.053, 12468.00
1103.149, 12389.00
1104.245, 12512.00
1105.341, 12477.00
1106.436, 12517.00
1107.532, 12532.00
1108.627, 12542.00
1109.723, 12449.00
1110.818, 12556.00
1111.913, 12539.00
1113.007, 12447.00
1114.102, 12570.00
1115.197, 12574.00
1116.291, 12541.00
1117.385, 12541.00
1118.479, 12536.00
1119.573, 12429.00
1120.666, 12434.00
1121.760, 12361.00
1122.853, 12367.00
1123.947, 12455.00
1125.040, 12562.00
1126.132, 12568.00
1127.225, 12606.00
1128.318, 12423.00
1129.410, 12439.00
1130.502, 12574.00
1131.595, 12400.00
1132.687, 12500.00
1133.778, 12477.00
1134.870, 12394.00
1135.961, 12472.00
1137.053, 12516.00
1138.144, 12431.00
1139.235, 12601.00
1140.326, 12639.00
1141.416, 12592.00
1142.507, 12566.00
1143.597, 12581.00
1144.688, 12573.00
1145.778, 12522.00
1146.868, 12692.00
1147.957, 12592.00
1149.047, 12655.00
1150.136, 12496.00
1151.226, 12563.00
1152.315, 12459.00
1153.404, 12535.00
1154.493, 12641.00
1155.581, 12656.00
1156.670, 12643.00
1157.758, 12433.00
1158.846, 12557.00
1159.934, 12735.00
1161.022, 12554.00
1162.110, 12718.00
1163.198, 12557.00
1164.285, 12417.00
1165.372, 12598.00
1166.459, 12559.00
1167.546, 12618.00
1168.633, 12612.67
1169.720, 12836.00
1170.806, 12589.00
1171.892, 12601.00
1172.979, 12706.00
1174.065, 12465.00
1175.150, 12549.00
1176.236, 12542.00
1177.322, 12574.00
1178.407, 12589.00
1179.492, 12700.00
1180.577, 12549.00
1181.662, 12503.00
1182.747, 12687.00
1183.832, 12570.00
1184.916, 12625.00
1186.000, 12536.00
1187.084, 12502.00
1188.168, 12545.87
1189.252, 12581.00
1190.336, 12612.00
1191.419, 12620.00
1192.503, 12651.00
1193.586, 12645.00
1194.669, 12652.00
1195.752, 12750.00
1196.835, 12618.00
1197.917, 12667.00
1199.000, 12666.00
1200.082, 12771.00
1201.164, 12760.92
1202.246, 12772.63
1203.328, 12756.00
1204.409, 12750.00
1205.491, 12687.00
1206.572, 12654.00
1207.653, 12641.00
1208.734, 12771.00
1209.815, 12729.00
1210.896, 12689.00
1211.976, 12844.00
1213.057, 12796.00
1214.137, 12904.00
1215.217, 12668.00
1216.297, 12723.00
1217.377, 12804.00
1218.456, 12830.00
1219.536, 12959.00
1220.615, 12713.00
1221.694, 12812.00
1222.773, 12803.00
1223.852, 12931.00
1224.931, 12744.00
1226.009, 12882.00
1227.088, 12724.00
1228.166, 12913.00
1229.244, 12936.00
1230.322, 12930.00
1231.400, 12751.00
1232.477, 12975.00
1233.555, 12752.00
1234.632, 12981.00
1235.709, 12839.00
1236.786, 13106.00
1237.863, 12989.00
1238.939, 13038.00
1240.016, 12941.00
1241.092, 12966.00
1242.168, 13014.00
1243.245, 12918.00
1244.320, 13046.00
1245.396, 13082.00
1246.472, 12955.00
1247.547, 13145.00
1248.622, 13057.00
1249.697, 13175.00
1250.772, 13099.00
1251.847, 13030.00
1252.922, 13025.00
1253.996, 12981.70
1255.071, 12946.00
1256.145, 12966.00
1257.219, 13040.00
1258.293, 13066.00
1259.366, 13130.00
1260.440, 13123.45
1261.513, 13134.83
1262.587, 13105.00
1263.660, 13113.00
1264.733, 13120.00
1265.805, 13101.00
1266.878, 13183.00
1267.951, 13220.00
1269.023, 13248.00
1270.095, 13237.00
1271.167, 13168.00
1272.239, 13347.00
1273.311, 13248.00
1274.382, 13359.00
1275.454, 13349.00
1276.525, 13369.00
1277.596, 13227.00
1278.667, 13377.00
1279.738, 13470.00
1280.808, 13313.00
1281.879, 13361.00
1282.949, 13261.00
1284.019, 13221.00
1285.089, 13272.00
1286.159, 13223.26
1287.229, 13267.00
1288.298, 13253.00
1289.368, 13267.00
1290.437, 13330.00
1291.506, 13284.95
1292.575, 13314.53
1293.644, 13217.00
1294.712, 13348.00
1295.781, 13289.00
1296.849, 13365.00
1297.917, 13387.00
1298.985, 13437.00
1300.053, 13445.00
1301.121, 13434.47
1302.188, 13453.24
1303.255, 13457.80
1304.323, 13468.00
1305.390, 13479.00
1306.457, 13522.00
1307.523, 13533.00
1308.590, 13540.00
1309.656, 13583.72
1310.723, 13521.00
1311.789, 13661.00
1312.855, 13683.00
1313.921, 13733.00
1314.986, 13604.00
1316.052, 13725.00
1317.117, 13649.00
1318.182, 13736.00
1319.248, 13753.00
1320.312, 13736.00
1321.377, 13768.00
1322.442, 13743.80
1323.506, 13759.00
1324.571, 13716.00
1325.635, 13734.00
1326.699, 13742.00
1327.762, 13732.00
1328.826, 13662.00
1329.890, 13790.00
1330.953, 13654.00
1332.016, 13898.00
1333.079, 13779.00
1334.142, 13793.00
1335.205, 13701.00
1336.268, 13825.00
1337.330, 13802.00
1338.392, 13837.00
1339.454, 13749.00
1340.516, 13872.00
1341.578, 13860.00
1342.640, 13849.00
1343.701, 13909.00
1344.763, 13934.00
1345.824, 13921.00
1346.885, 13968.00
1347.946, 13980.00
1349.007, 13949.00
1350.067, 13974.00
1351.128, 14004.00
1352.188, 13766.00
1353.248, 13858.00
1354.308, 14111.00
1355.368, 13743.00
1356.428, 13995.00
1357.487, 14040.00
1358.547, 13955.00
1359.606, 14011.00
1360.665, 13994.00
1361.724, 14091.00
1362.783, 14142.00
1363.841, 14030.00
1364.900, 14213.00
1365.958, 13965.00
1367.016, 14105.00
1368.074, 14090.00
1369.132, 14135.00
1370.190, 14158.00
1371.247, 14140.00
1372.304, 14187.00
1373.362, 14203.57
1374.419, 14186.00
1375.476, 14258.00
1376.532, 14247.00
1377.589, 14253.00
1378.645, 14177.00
1379.702, 14230.00
1380.758, 14130.00
1381.814, 14197.00
1382.870, 14248.00
1383.925, 14244.00
1384.981, 14317.00
1386.036, 14396.00
1387.092, 14152.00
1388.147, 14338.00
1389.202, 14517.00
1390.256, 14466.00
1391.311, 14228.00
1392.365, 14204.00
1393.420, 14442.00
1394.474, 14426.00
1395.528, 14491.00
1396.582, 14381.00
1397.636, 14338.00
1398.689, 14338.00
1399.742, 14294.00
1400.796, 14421.00
1401.849, 14463.00
1402.902, 14429.00
1403.955, 14539.00
1405.007, 14428.00
1406.060, 14409.00
1407.112, 14594.00
1408.164, 14410.00
1409.216, 14453.00
1410.268, 14530.00
1411.320, 14468.00
1412.371, 14513.00
1413.423, 14470.00
1414.474, 14598.00
1415.525, 14528.00
1416.576, 14560.00
1417.627, 14457.00
1418.678, 14550.00
1419.728, 14726.00
1420.778, 14626.00
1421.829, 14493.00
1422.879, 14565.00
1423.928, 14755.00
1424.978, 14607.00
1426.028, 14899.00
1427.077, 14745.00
1428.126, 14658.00
1429.176, 14677.00
1430.225, 14644.00
1431.273, 14661.48
1432.322, 14707.00
1433.371, 14733.00
1434.419, 14803.00
1435.467, 14852.00
1436.515, 14730.00
1437.563, 14745.00
1438.611, 14792.00
1439.658, 14963.00
1440.706, 14856.00
1441.753, 14932.00
1442.800, 15005.00
1443.847, 14930.00
1444.894, 15010.00
1445.941, 14796.00
1446.987, 14922.00
1448.034, 14975.00
1449.080, 14852.00
1450.126, 14931.00
1451.172, 14886.03
1452.218, 15037.00
1453.263, 14891.00
1454.309, 14854.00
1455.354, 14947.00
1456.399, 15136.00
1457.444, 14973.00
1458.489, 15068.00
1459.534, 15134.00
1460.579, 15168.00
1461.623, 15244.68
1462.667, 15086.00
1463.711, 15307.00
1464.755, 15215.00
1465.799, 15125.00
1466.843, 15195.00
1467.886, 14982.00
1468.930, 15300.00
1469.973, 15130.00
1471.016, 15251.00
1472.059, 15355.00
1473.101, 15232.00
1474.144, 15310.00
1475.186, 15271.00
1476.229, 15313.00
1477.271, 15373.00
1478.313, 15293.00
1479.355, 15358.00
1480.396, 15374.00
1481.438, 15358.46
1482.479, 15328.00
1483.520, 15371.00
1484.561, 15340.00
1485.602, 15351.00
1486.643, 15352.00
1487.684, 15560.00
1488.724, 15346.00
1489.765, 15480.00
1490.805, 15411.00
1491.845, 15314.00
1492.885, 15272.00
1493.924, 15283.28
1494.964, 15528.00
1496.003, 15352.00
1497.042, 15515.00
1498.082, 15553.00
1499.120, 15247.00
1500.159, 15557.00
1501.198, 15354.00
1502.236, 15472.00
1503.275, 15495.00
1504.313, 15680.00
1505.351, 15719.00
1506.389, 15605.00
1507.427, 15550.00
1508.464, 15596.00
1509.502, 15678.00
1510.539, 15723.00
1511.576, 15713.00
1512.613, 15698.00
1513.650, 15559.00
1514.687, 15701.00
1515.723, 15607.00
1516.759, 15595.00
1517.796, 15732.00
1518.832, 15712.00
1519.868, 15734.00
1520.903, 15734.00
1521.939, 15713.00
1522.975, 15681.00
1524.010, 15826.00
1525.045, 15829.00
1526.080, 15859.00
1527.115, 15822.00
1528.150, 15885.00
1529.184, 15897.00
1530.219, 15830.00
1531.253, 16002.00
1532.287, 15880.00
1533.321, 15935.00
1534.355, 15954.00
1535.388, 15995.00
1536.422, 15941.00
1537.455, 16030.00
1538.488, 15949.00
1539.522, 15953.00
1540.554, 15948.00
1541.587, 15995.00
1542.620, 16052.00
1543.652, 16172.00
1544.685, 16122.00
1545.717, 15990.00
1546.749, 16093.00
1547.781, 15959.00
1548.812, 16231.00
1549.844, 16032.00
1550.875, 16143.00
1551.906, 16022.00
1552.938, 16222.00
1553.968, 16264.00
1554.999, 16251.00
1556.030, 16120.00
1557.060, 16296.00
1558.091, 16231.00
1559.121, 16032.00
1560.151, 16252.00
1561.181, 16239.00
1562.211, 16187.00
1563.240, 16204.00
1564.270, 16235.00
1565.299, 16153.00
1566.328, 16227.00
1567.357, 16216.00
1568.386, 16182.00
1569.415, 16264.00
1570.443, 16181.00
1571.472, 16091.00
1572.500, 16270.00
1573.528, 16325.00
1574.556, 16338.00
1575.584, 16329.00
1576.611, 16263.00
1577.639, 16486.00
##END=



