##NAMES=Rhodonite
##RRUFFID=R060549
##IDEAL CHEMISTRY=CaMn^2+^_3_Mn^2+^Si_5_O_15_
##LOCALITY=unknown
##OWNER=RRUFF
##SOURCE=Gemological Institute of America
##DESCRIPTION=Pink cleavage fragment
##STATUS=The identification of this mineral has been confirmed by X-ray diffraction and chemical analysis
##URL=rruff.info/R060549
##MEASURED CHEMISTRY=(Mn_0.76_Ca_0.12_Fe_0.07_Mg_0.06_)Si_0.99_O_3_
##PIN_ID=L01131
##ORIENTATION=Laser parallel to (1 0 1). Fiducial mark perpendicular to laser is parallel to b [0 1 0]
82.03000, 11080.00
83.27000, 11308.00
84.51000, 11561.70
85.74900, 12315.00
86.98900, 12376.00
88.22800, 12763.00
89.46700, 13342.00
90.70600, 13564.00
91.94400, 13855.00
93.18300, 14287.00
94.42100, 14210.00
95.65900, 14280.00
96.89700, 14103.00
98.13500, 13775.00
99.37300, 13552.00
100.6100, 13174.00
101.8480, 12576.00
103.0850, 12278.00
104.3220, 11908.00
105.5590, 11828.00
106.7950, 11915.00
108.0320, 12156.00
109.2680, 12481.00
110.5040, 12707.00
111.7400, 13051.00
112.9760, 13226.00
114.2120, 13727.00
115.4470, 13817.00
116.6820, 13938.00
117.9170, 13936.00
119.1520, 13568.00
120.3870, 13489.00
121.6220, 13135.00
122.8560, 12817.00
124.0900, 13097.00
125.3240, 12938.00
126.5580, 12575.00
127.7920, 12512.00
129.0260, 12560.00
130.2590, 12703.00
131.4920, 12804.00
132.7250, 12924.00
133.9580, 13232.00
135.1910, 13709.00
136.4230, 13932.00
137.6560, 14204.00
138.8880, 14295.00
140.1200, 13997.00
141.3520, 14058.00
142.5830, 13466.00
143.8150, 13038.00
145.0460, 12493.00
146.2770, 12229.00
147.5080, 11826.00
148.7390, 11644.00
149.9700, 11581.00
151.2000, 11585.00
152.4310, 11596.00
153.6610, 11637.00
154.8910, 11907.00
156.1210, 12012.00
157.3500, 12363.00
158.5800, 12446.00
159.8090, 12599.00
161.0380, 12672.00
162.2670, 12853.00
163.4960, 12904.00
164.7240, 12836.00
165.9530, 12728.00
167.1810, 12743.00
168.4090, 12563.92
169.6370, 12370.00
170.8650, 12209.00
172.0920, 12111.00
173.3200, 11846.00
174.5470, 11806.00
175.7740, 11705.00
177.0010, 11483.00
178.2280, 11483.00
179.4540, 11492.00
180.6810, 11528.00
181.9070, 11471.00
183.1330, 11462.61
184.3590, 11393.00
185.5850, 11400.00
186.8100, 11367.00
188.0350, 11371.00
189.2610, 11437.00
190.4860, 11225.00
191.7110, 11281.00
192.9350, 11218.00
194.1600, 11066.00
195.3840, 11040.00
196.6080, 11150.00
197.8320, 11151.00
199.0560, 11113.00
200.2800, 11003.00
201.5030, 11055.00
202.7270, 11109.00
203.9500, 11183.00
205.1730, 11093.00
206.3950, 11095.00
207.6180, 10958.00
208.8410, 10993.00
210.0630, 10993.00
211.2850, 11160.00
212.5070, 11215.00
213.7290, 11397.00
214.9500, 11306.00
216.1720, 11450.00
217.3930, 11528.00
218.6140, 11490.00
219.8350, 11513.00
221.0560, 11526.00
222.2770, 11376.00
223.4970, 11472.00
224.7170, 11362.00
225.9370, 11420.00
227.1570, 11428.00
228.3770, 11488.00
229.5970, 11414.00
230.8160, 11548.00
232.0350, 11582.00
233.2540, 11563.00
234.4730, 11719.00
235.6920, 11729.00
236.9110, 11893.00
238.1290, 11941.00
239.3470, 12173.00
240.5650, 12163.00
241.7830, 12339.00
243.0010, 12318.00
244.2180, 12520.00
245.4360, 12660.00
246.6530, 12826.00
247.8700, 12875.00
249.0870, 13039.00
250.3040, 13006.00
251.5200, 13225.00
252.7370, 13092.00
253.9530, 13244.00
255.1690, 13293.00
256.3850, 13345.00
257.6000, 13400.00
258.8160, 13457.00
260.0310, 13602.00
261.2460, 13831.00
262.4610, 13949.00
263.6760, 14123.00
264.8910, 14069.00
266.1050, 14019.00
267.3200, 14063.00
268.5340, 13861.00
269.7480, 13690.00
270.9620, 13442.00
272.1750, 13432.00
273.3890, 13263.00
274.6020, 13230.00
275.8150, 13096.00
277.0280, 13127.00
278.2410, 12964.00
279.4540, 12932.00
280.6660, 12865.00
281.8790, 12582.00
283.0910, 12689.00
284.3030, 12450.00
285.5140, 12477.00
286.7260, 12456.00
287.9380, 12255.00
289.1490, 12400.00
290.3600, 12612.00
291.5710, 12578.00
292.7820, 12522.00
293.9920, 12659.00
295.2030, 12774.00
296.4130, 12930.00
297.6230, 13250.00
298.8330, 13483.00
300.0430, 13540.00
301.2520, 13872.00
302.4620, 13744.00
303.6710, 14121.00
304.8800, 13894.00
306.0890, 14011.00
307.2980, 13979.00
308.5070, 13970.00
309.7150, 13850.00
310.9230, 13785.00
312.1310, 13728.06
313.3390, 13694.00
314.5470, 13622.00
315.7550, 13606.00
316.9620, 13611.00
318.1690, 13630.00
319.3760, 13763.00
320.5830, 13769.00
321.7900, 13978.00
322.9960, 14197.00
324.2030, 14327.00
325.4090, 14510.00
326.6150, 14656.00
327.8210, 14507.00
329.0270, 14666.00
330.2320, 14642.00
331.4380, 14816.00
332.6430, 14824.00
333.8480, 15022.00
335.0530, 14975.00
336.2580, 15086.00
337.4620, 15073.00
338.6670, 14973.00
339.8710, 15033.00
341.0750, 15005.00
342.2790, 14683.00
343.4820, 14582.00
344.6860, 14586.00
345.8890, 14517.00
347.0920, 14588.00
348.2960, 14520.00
349.4980, 14331.00
350.7010, 14470.00
351.9040, 14195.00
353.1060, 14103.00
354.3080, 13993.00
355.5100, 13728.00
356.7120, 13763.00
357.9140, 13499.00
359.1150, 13347.00
360.3170, 13486.00
361.5180, 13607.00
362.7190, 13451.00
363.9200, 13256.00
365.1200, 13182.00
366.3210, 13247.00
367.5210, 13250.00
368.7210, 13085.00
369.9210, 13159.00
371.1210, 13138.00
372.3210, 12959.00
373.5200, 13083.00
374.7200, 13002.00
375.9190, 12814.00
377.1180, 12778.00
378.3170, 12763.00
379.5150, 12714.00
380.7140, 12936.00
381.9120, 12875.00
383.1110, 12822.00
384.3090, 13037.00
385.5060, 13057.00
386.7040, 13169.00
387.9020, 13291.00
389.0990, 13296.00
390.2960, 13315.07
391.4930, 13224.00
392.6900, 13224.00
393.8860, 13123.00
395.0830, 13022.00
396.2790, 12991.00
397.4750, 12783.00
398.6710, 12633.00
399.8670, 12818.00
401.0630, 12511.00
402.2580, 12530.00
403.4540, 12510.00
404.6490, 12459.00
405.8440, 12571.00
407.0390, 12660.00
408.2330, 12767.00
409.4280, 12682.00
410.6220, 12761.00
411.8160, 12916.00
413.0100, 12799.00
414.2040, 12817.00
415.3980, 12880.00
416.5910, 12823.00
417.7850, 12957.00
418.9780, 12895.00
420.1710, 12914.00
421.3640, 13100.00
422.5560, 13181.00
423.7490, 12915.00
424.9410, 12991.00
426.1330, 12937.00
427.3250, 12941.00
428.5170, 13084.00
429.7090, 12915.00
430.9000, 13120.00
432.0910, 13108.00
433.2820, 13171.00
434.4730, 13232.00
435.6640, 13361.00
436.8550, 13313.00
438.0450, 13488.00
439.2360, 13523.00
440.4260, 13402.00
441.6160, 13285.00
442.8060, 13331.00
443.9950, 13253.62
445.1850, 13142.00
446.3740, 13202.00
447.5630, 13173.00
448.7520, 13081.00
449.9410, 13102.00
451.1300, 13036.00
452.3180, 13208.00
453.5060, 13282.00
454.6950, 13209.00
455.8830, 13120.00
457.0700, 13339.00
458.2580, 13252.00
459.4450, 13401.00
460.6330, 13547.00
461.8200, 13408.00
463.0070, 13473.00
464.1940, 13390.00
465.3800, 13287.00
466.5670, 13332.00
467.7530, 13288.00
468.9390, 13293.11
470.1250, 13239.00
471.3110, 13342.00
472.4970, 13387.00
473.6820, 13448.00
474.8680, 13347.00
476.0530, 13432.00
477.2380, 13360.00
478.4230, 13370.00
479.6070, 13251.00
480.7920, 13237.32
481.9760, 13197.92
483.1600, 13198.00
484.3440, 13126.00
485.5280, 13178.00
486.7120, 13138.00
487.8950, 13264.00
489.0780, 13375.00
490.2620, 13510.00
491.4450, 13430.00
492.6270, 13434.00
493.8100, 13572.00
494.9920, 13851.00
496.1750, 13735.00
497.3570, 13810.00
498.5390, 13700.00
499.7210, 13674.00
500.9020, 13749.00
502.0840, 13708.00
503.2650, 13661.00
504.4460, 13693.63
505.6270, 13512.00
506.8080, 13726.00
507.9890, 13598.00
509.1690, 13668.00
510.3500, 13925.00
511.5300, 13964.00
512.7100, 13715.00
513.8900, 13895.00
515.0690, 13747.00
516.2490, 13800.00
517.4280, 13718.00
518.6070, 13641.00
519.7860, 13604.00
520.9650, 13427.00
522.1440, 13421.00
523.3220, 13465.00
524.5010, 13316.00
525.6790, 13317.00
526.8570, 13201.00
528.0350, 13272.00
529.2130, 13334.00
530.3900, 13421.00
531.5670, 13428.16
532.7450, 13457.61
533.9220, 13420.00
535.0980, 13489.00
536.2750, 13445.00
537.4520, 13520.00
538.6280, 13361.00
539.8040, 13474.00
540.9800, 13488.00
542.1560, 13707.00
543.3320, 13663.00
544.5070, 13761.00
545.6830, 13728.00
546.8580, 13750.23
548.0330, 13924.00
549.2080, 13767.00
550.3830, 13648.00
551.5570, 13632.00
552.7310, 13763.00
553.9060, 13938.00
555.0800, 13804.00
556.2540, 13936.00
557.4270, 13998.00
558.6010, 13978.00
559.7740, 13986.00
560.9470, 14086.00
562.1210, 13904.00
563.2930, 13964.00
564.4660, 13995.00
565.6390, 13887.00
566.8110, 14022.00
567.9830, 14170.00
569.1550, 14205.00
570.3270, 14256.00
571.4990, 14190.00
572.6710, 14181.00
573.8420, 14520.00
575.0130, 14481.00
576.1840, 14148.00
577.3550, 14254.00
578.5260, 13975.00
579.6970, 13959.00
580.8670, 13988.00
582.0370, 13935.00
583.2070, 14128.00
584.3770, 13863.00
585.5470, 13817.00
586.7170, 13649.00
587.8860, 13908.00
589.0550, 14082.00
590.2240, 13856.00
591.3930, 13773.00
592.5620, 13678.00
593.7310, 13693.00
594.8990, 13814.00
596.0670, 13813.00
597.2350, 13754.00
598.4030, 13984.00
599.5710, 13776.00
600.7390, 14129.00
601.9060, 14033.00
603.0740, 13920.00
604.2410, 14034.00
605.4080, 13888.00
606.5740, 14108.00
607.7410, 14075.00
608.9080, 13945.00
610.0740, 14086.00
611.2400, 14137.00
612.4060, 14169.00
613.5720, 14202.00
614.7370, 14258.00
615.9030, 14302.00
617.0680, 14169.00
618.2330, 14395.00
619.3980, 14224.00
620.5630, 14173.00
621.7280, 14422.00
622.8920, 14412.00
624.0570, 14356.00
625.2210, 14630.00
626.3850, 14660.00
627.5490, 14590.00
628.7120, 14605.00
629.8760, 14616.00
631.0390, 14657.00
632.2020, 14798.00
633.3650, 14987.00
634.5280, 14818.00
635.6910, 14981.00
636.8530, 15170.00
638.0160, 15189.00
639.1780, 15329.00
640.3400, 15493.00
641.5020, 15499.00
642.6640, 15733.00
643.8250, 15956.00
644.9870, 16012.00
646.1480, 16230.00
647.3090, 16472.00
648.4700, 16802.00
649.6300, 17215.00
650.7910, 17803.00
651.9510, 18150.00
653.1120, 18904.00
654.2720, 19846.00
655.4320, 21125.00
656.5910, 22185.00
657.7510, 23845.00
658.9100, 25363.00
660.0690, 27736.00
661.2290, 29300.00
662.3880, 31447.00
663.5460, 33577.00
664.7050, 35762.00
665.8630, 38240.00
667.0220, 40982.00
668.1800, 43585.00
669.3380, 45171.00
670.4950, 45597.00
671.6530, 44622.00
672.8100, 42461.00
673.9680, 39449.00
675.1250, 36590.00
676.2820, 33431.00
677.4390, 31041.00
678.5950, 29285.00
679.7520, 27486.00
680.9080, 26032.00
682.0640, 24475.00
683.2200, 23212.00
684.3760, 21868.00
685.5320, 20786.00
686.6870, 19897.00
687.8420, 19193.00
688.9980, 18565.00
690.1530, 18138.00
691.3070, 17721.00
692.4620, 17338.00
693.6170, 16937.00
694.7710, 16872.00
695.9250, 16515.00
697.0790, 16511.00
698.2330, 16296.00
699.3870, 16163.00
700.5400, 16052.00
701.6940, 16162.00
702.8470, 15938.00
704.0000, 16004.00
705.1530, 16090.00
706.3050, 16007.00
707.4580, 16088.00
708.6100, 16205.00
709.7630, 16035.00
710.9150, 16331.00
712.0660, 16342.00
713.2180, 16488.00
714.3700, 16516.00
715.5210, 16495.00
716.6720, 16333.00
717.8240, 16359.00
718.9740, 16528.00
720.1250, 16291.00
721.2760, 16373.00
722.4260, 16270.00
723.5770, 16094.00
724.7270, 16003.00
725.8770, 15962.00
727.0260, 15953.00
728.1760, 15686.00
729.3250, 15674.00
730.4750, 15632.00
731.6240, 15570.00
732.7730, 15773.00
733.9220, 15610.00
735.0700, 15675.00
736.2190, 15837.00
737.3670, 15692.00
738.5150, 15769.00
739.6630, 15781.00
740.8110, 15790.00
741.9590, 15781.08
743.1060, 15823.00
744.2540, 15687.00
745.4010, 15670.00
746.5480, 15570.00
747.6950, 15562.00
748.8410, 15496.00
749.9880, 15429.00
751.1340, 15462.00
752.2800, 15360.00
753.4260, 15309.00
754.5720, 15453.00
755.7180, 15450.00
756.8640, 15575.00
758.0090, 15347.00
759.1540, 15403.00
760.2990, 15317.00
761.4440, 15479.00
762.5890, 15417.78
763.7340, 15400.00
764.8780, 15369.00
766.0220, 15396.00
767.1660, 15329.00
768.3100, 15314.00
769.4540, 15370.00
770.5980, 15422.00
771.7410, 15414.00
772.8840, 15338.00
774.0280, 15240.00
775.1700, 15415.00
776.3130, 15363.00
777.4560, 15415.00
778.5980, 15359.00
779.7410, 15536.00
780.8830, 15435.00
782.0250, 15530.00
783.1670, 15347.00
784.3080, 15382.00
785.4500, 15481.00
786.5910, 15612.00
787.7320, 15542.00
788.8730, 15567.00
790.0140, 15496.00
791.1550, 15420.00
792.2950, 15591.00
793.4360, 15674.00
794.5760, 15586.00
795.7160, 15598.00
796.8560, 15662.00
797.9960, 15735.00
799.1350, 15746.00
800.2750, 15682.00
801.4140, 15554.00
802.5530, 15701.00
803.6920, 15517.00
804.8310, 15562.00
805.9690, 15688.00
807.1080, 15680.00
808.2460, 15765.26
809.3840, 15771.00
810.5220, 15853.00
811.6600, 15876.66
812.7970, 15881.04
813.9350, 15913.00
815.0720, 15874.00
816.2090, 15846.00
817.3460, 15832.00
818.4830, 15801.00
819.6200, 15780.00
820.7560, 15793.00
821.8930, 15802.50
823.0290, 15827.00
824.1650, 15878.00
825.3010, 15919.00
826.4360, 15994.00
827.5720, 15955.00
828.7070, 15813.00
829.8420, 15899.00
830.9770, 15894.00
832.1120, 15963.00
833.2470, 15871.00
834.3820, 16271.00
835.5160, 16181.00
836.6500, 16196.00
837.7840, 16062.00
838.9180, 16032.00
840.0520, 16184.00
841.1860, 16183.00
842.3190, 16071.00
843.4520, 16073.00
844.5850, 16318.00
845.7180, 16066.00
846.8510, 16212.00
847.9840, 16378.00
849.1160, 16112.00
850.2490, 16252.00
851.3810, 16164.00
852.5130, 16322.00
853.6450, 16183.00
854.7760, 16284.00
855.9080, 16202.00
857.0390, 16442.00
858.1700, 16429.00
859.3010, 16344.00
860.4320, 16475.00
861.5630, 16526.00
862.6930, 16554.00
863.8240, 16614.76
864.9540, 16602.00
866.0840, 16669.00
867.2140, 16712.00
868.3440, 16741.77
869.4730, 16555.00
870.6030, 16662.00
871.7320, 16629.00
872.8610, 16537.00
873.9900, 16637.00
875.1190, 16714.00
876.2470, 16748.00
877.3760, 16847.00
878.5040, 16859.00
879.6320, 16932.00
880.7600, 16981.00
881.8880, 17021.00
883.0150, 17048.53
884.1430, 16959.00
885.2700, 16967.00
886.3970, 16970.00
887.5240, 16696.00
888.6510, 16983.00
889.7780, 16784.00
890.9040, 16797.00
892.0310, 17000.00
893.1570, 16878.00
894.2830, 16972.00
895.4090, 17108.00
896.5350, 17058.00
897.6600, 17109.00
898.7860, 17169.00
899.9110, 17212.00
901.0360, 17245.10
902.1610, 17397.00
903.2860, 17293.00
904.4100, 17279.00
905.5350, 17289.00
906.6590, 17496.00
907.7830, 17621.00
908.9070, 17654.00
910.0310, 17816.00
911.1540, 17962.00
912.2780, 17843.00
913.4010, 17963.00
914.5240, 18062.00
915.6470, 18217.00
916.7700, 18180.00
917.8930, 18024.00
919.0150, 18015.00
920.1380, 18021.00
921.2600, 17993.00
922.3820, 18037.00
923.5040, 17851.00
924.6260, 17982.00
925.7470, 17934.00
926.8690, 17884.00
927.9900, 17999.00
929.1110, 17907.00
930.2320, 18071.00
931.3530, 18195.00
932.4730, 18225.00
933.5940, 18576.00
934.7140, 18594.00
935.8340, 18898.00
936.9540, 19107.00
938.0740, 19212.00
939.1930, 19396.00
940.3130, 19524.00
941.4320, 19419.00
942.5510, 19344.00
943.6700, 19251.00
944.7890, 19012.00
945.9080, 18894.00
947.0260, 18777.00
948.1450, 18833.00
949.2630, 18579.00
950.3810, 18699.00
951.4990, 18770.00
952.6170, 18748.00
953.7340, 18724.00
954.8520, 18974.00
955.9690, 19052.00
957.0860, 19250.00
958.2030, 19519.00
959.3200, 19738.00
960.4360, 20140.00
961.5530, 20586.00
962.6690, 20872.00
963.7850, 21455.00
964.9010, 22101.00
966.0170, 22842.00
967.1330, 23931.00
968.2480, 25219.00
969.3630, 26691.00
970.4790, 28224.00
971.5940, 29756.00
972.7080, 31416.00
973.8230, 32890.00
974.9380, 33792.00
976.0520, 34194.00
977.1660, 33939.00
978.2800, 33529.00
979.3940, 32495.00
980.5080, 31758.00
981.6220, 31081.00
982.7350, 30746.00
983.8480, 30816.00
984.9610, 30824.00
986.0740, 31215.00
987.1870, 31927.00
988.3000, 32411.00
989.4120, 32986.00
990.5250, 33424.00
991.6370, 34433.00
992.7490, 35057.00
993.8610, 36366.00
994.9720, 37610.00
996.0840, 38994.00
997.1950, 40301.00
998.3060, 41488.00
999.4170, 42885.00
1000.528, 43135.00
1001.639, 43006.00
1002.750, 41639.00
1003.860, 40110.00
1004.970, 38340.00
1006.080, 36887.18
1007.190, 35262.89
1008.300, 33581.00
1009.410, 32077.00
1010.519, 30145.00
1011.628, 28418.00
1012.738, 27045.00
1013.846, 25602.18
1014.955, 24344.00
1016.064, 23514.00
1017.172, 22795.00
1018.281, 22492.00
1019.389, 21901.00
1020.497, 21588.00
1021.605, 21359.00
1022.713, 21135.00
1023.820, 20957.45
1024.928, 20882.00
1026.035, 20714.00
1027.142, 20601.00
1028.249, 20565.00
1029.356, 20359.00
1030.462, 20232.00
1031.569, 20180.00
1032.675, 19979.00
1033.781, 19895.00
1034.887, 20033.00
1035.993, 19864.00
1037.098, 19799.00
1038.204, 19702.00
1039.309, 19846.00
1040.415, 19749.00
1041.520, 19911.00
1042.624, 19839.00
1043.729, 19945.00
1044.834, 20215.00
1045.938, 20269.00
1047.042, 20349.00
1048.146, 20511.00
1049.250, 20813.00
1050.354, 20744.00
1051.458, 20537.00
1052.561, 20775.00
1053.664, 20602.00
1054.767, 20475.00
1055.870, 20252.00
1056.973, 20203.00
1058.076, 20003.00
1059.178, 19833.00
1060.281, 19813.00
1061.383, 19855.00
1062.485, 19776.00
1063.587, 19678.00
1064.688, 19564.00
1065.790, 19409.00
1066.891, 19462.00
1067.993, 19609.00
1069.094, 19232.00
1070.195, 19439.00
1071.295, 19253.00
1072.396, 19444.00
1073.496, 19325.00
1074.597, 19206.00
1075.697, 19302.00
1076.797, 19321.00
1077.897, 19489.00
1078.996, 19544.00
1080.096, 19498.69
1081.195, 19702.00
1082.294, 19353.00
1083.393, 19393.00
1084.492, 19293.00
1085.591, 19345.00
1086.689, 19400.29
1087.788, 19233.00
1088.886, 19483.00
1089.984, 19551.00
1091.082, 19406.00
1092.180, 19226.00
1093.277, 19277.00
1094.375, 19243.00
1095.472, 19268.00
1096.569, 19273.00
1097.666, 19239.00
1098.763, 19240.00
1099.860, 19282.00
1100.956, 19282.93
1102.053, 19309.00
1103.149, 19335.00
1104.245, 19379.00
1105.341, 19399.00
1106.436, 19423.61
1107.532, 19435.00
1108.627, 19433.00
1109.723, 19450.00
1110.818, 19392.00
1111.913, 19466.00
1113.007, 19423.00
1114.102, 19480.00
1115.197, 19524.00
1116.291, 19510.47
1117.385, 19546.32
1118.479, 19503.00
1119.573, 19530.00
1120.666, 19486.00
1121.760, 19399.00
1122.853, 19415.00
1123.947, 19515.00
1125.040, 19400.00
1126.132, 19527.00
1127.225, 19554.00
1128.318, 19613.00
1129.410, 19553.00
1130.502, 19398.00
1131.595, 19616.00
1132.687, 19575.00
1133.778, 19711.00
1134.870, 19592.00
1135.961, 19604.00
1137.053, 19674.00
1138.144, 19600.00
1139.235, 19678.00
1140.326, 19550.00
1141.416, 19684.00
1142.507, 19756.00
1143.597, 19715.00
1144.688, 19789.00
1145.778, 19665.00
1146.868, 19734.00
1147.957, 19583.00
1149.047, 19717.00
1150.136, 19860.00
1151.226, 19892.00
1152.315, 19976.00
1153.404, 20044.00
1154.493, 19907.00
1155.581, 19741.00
1156.670, 19938.00
1157.758, 19715.00
1158.846, 19918.00
1159.934, 19928.00
1161.022, 19915.00
1162.110, 20005.00
1163.198, 19922.00
1164.285, 20018.00
1165.372, 19870.00
1166.459, 19964.00
1167.546, 19908.00
1168.633, 19949.00
1169.720, 20014.00
1170.806, 20076.00
1171.892, 20050.00
1172.979, 20064.70
1174.065, 19912.00
1175.150, 20016.00
1176.236, 19947.00
1177.322, 19921.00
1178.407, 19924.00
1179.492, 20128.00
1180.577, 20231.00
1181.662, 20218.00
1182.747, 20163.00
1183.832, 20015.00
1184.916, 20089.00
1186.000, 20137.00
1187.084, 19920.00
1188.168, 20329.00
1189.252, 20378.00
1190.336, 20234.00
1191.419, 20229.00
1192.503, 20192.00
1193.586, 20265.00
1194.669, 20229.00
1195.752, 20325.00
1196.835, 20161.00
1197.917, 20411.00
1199.000, 20350.00
1200.082, 20232.00
1201.164, 20592.00
1202.246, 20375.00
1203.328, 20431.00
1204.409, 20522.00
1205.491, 20330.00
1206.572, 20512.00
1207.653, 20498.00
1208.734, 20424.00
1209.815, 20569.00
1210.896, 20423.00
1211.976, 20555.00
1213.057, 20542.00
1214.137, 20464.00
1215.217, 20444.00
1216.297, 20586.00
1217.377, 20792.00
1218.456, 20441.00
1219.536, 20651.00
1220.615, 20501.00
1221.694, 20601.00
1222.773, 20886.00
1223.852, 20659.00
1224.931, 20837.00
1226.009, 20703.00
1227.088, 20805.00
1228.166, 20652.00
1229.244, 20691.00
1230.322, 20863.00
1231.400, 20863.00
1232.477, 20845.00
1233.555, 20815.00
1234.632, 20825.55
1235.709, 20785.00
1236.786, 20877.00
1237.863, 20870.00
1238.939, 20989.00
1240.016, 20818.00
1241.092, 20870.25
1242.168, 20811.00
1243.245, 20852.00
1244.320, 21033.00
1245.396, 21094.00
1246.472, 20962.00
1247.547, 20922.00
1248.622, 21087.00
1249.697, 21180.00
1250.772, 21075.00
1251.847, 21066.00
1252.922, 21187.00
1253.996, 21239.00
1255.071, 21029.00
1256.145, 21134.00
1257.219, 21147.00
1258.293, 21101.00
1259.366, 21111.00
1260.440, 21159.00
1261.513, 21102.00
1262.587, 21184.00
1263.660, 21283.00
1264.733, 21384.00
1265.805, 21220.00
1266.878, 21360.00
1267.951, 21270.00
1269.023, 21450.00
1270.095, 21598.00
1271.167, 21442.00
1272.239, 21501.00
1273.311, 21406.00
1274.382, 21498.00
1275.454, 21562.00
1276.525, 21384.00
1277.596, 21606.00
1278.667, 21378.00
1279.738, 21385.00
1280.808, 21630.00
1281.879, 21597.00
1282.949, 21575.00
1284.019, 21621.00
1285.089, 21534.00
1286.159, 21497.00
1287.229, 21699.00
1288.298, 21618.00
1289.368, 21585.00
1290.437, 21766.00
1291.506, 21764.00
1292.575, 21626.00
1293.644, 21729.00
1294.712, 21586.00
1295.781, 21733.00
1296.849, 21806.00
1297.917, 21945.00
1298.985, 21764.00
1300.053, 21924.00
1301.121, 21795.00
1302.188, 21696.00
1303.255, 21962.00
1304.323, 21850.00
1305.390, 22004.00
1306.457, 21844.00
1307.523, 21886.00
1308.590, 21955.00
1309.656, 22094.00
1310.723, 22150.00
1311.789, 22084.00
1312.855, 21988.00
1313.921, 21991.00
1314.986, 21991.00
1316.052, 22188.00
1317.117, 22190.08
1318.182, 22195.00
1319.248, 22258.00
1320.312, 22233.00
1321.377, 22269.30
1322.442, 22364.00
1323.506, 22270.00
1324.571, 22297.00
1325.635, 22215.00
1326.699, 22195.00
1327.762, 22172.00
1328.826, 22311.00
1329.890, 22347.00
1330.953, 22455.00
1332.016, 22283.00
1333.079, 22448.00
1334.142, 22158.00
1335.205, 22369.00
1336.268, 22425.00
1337.330, 22507.00
1338.392, 22368.00
1339.454, 22401.00
1340.516, 22563.00
1341.578, 22416.00
1342.640, 22596.00
1343.701, 22595.00
1344.763, 22595.00
1345.824, 22697.00
1346.885, 22607.00
1347.946, 22567.00
1349.007, 22651.00
1350.067, 22637.00
1351.128, 22645.00
1352.188, 22694.55
1353.248, 22707.00
1354.308, 22766.00
1355.368, 22775.00
1356.428, 22820.00
1357.487, 22757.00
1358.547, 22681.00
1359.606, 22907.00
1360.665, 22927.00
1361.724, 22661.00
1362.783, 22955.00
1363.841, 22939.00
1364.900, 22725.00
1365.958, 22782.00
1367.016, 22959.00
1368.074, 23020.00
1369.132, 23054.00
1370.190, 23126.00
1371.247, 23119.00
1372.304, 23073.00
1373.362, 23019.00
1374.419, 22994.00
1375.476, 23114.00
1376.532, 23263.00
1377.589, 23165.00
1378.645, 23083.00
1379.702, 23184.00
1380.758, 23138.00
1381.814, 23157.22
1382.870, 23169.00
1383.925, 23204.00
1384.981, 23252.00
1386.036, 23312.00
1387.092, 23316.72
1388.147, 23410.00
1389.202, 23297.00
1390.256, 23358.00
1391.311, 23276.00
1392.365, 23241.00
1393.420, 23324.00
1394.474, 23227.00
1395.528, 23378.00
1396.582, 23293.00
1397.636, 23532.00
1398.689, 23226.00
1399.742, 23311.00
1400.796, 23335.00
1401.849, 23428.00
1402.902, 23412.00
1403.955, 23502.00
1405.007, 23482.22
1406.060, 23556.00
1407.112, 23446.00
1408.164, 23468.00
1409.216, 23450.00
1410.268, 23636.00
1411.320, 23466.00
1412.371, 23744.00
1413.423, 23740.00
1414.474, 23485.00
1415.525, 23689.00
1416.576, 23636.00
1417.627, 23693.00
1418.678, 23762.00
1419.728, 23829.00
1420.778, 23948.00
1421.829, 23756.00
1422.879, 23619.00
1423.928, 23948.00
1424.978, 23765.00
1426.028, 23840.00
1427.077, 23946.00
1428.126, 23748.00
1429.176, 23920.00
1430.225, 24001.00
1431.273, 23982.00
1432.322, 23997.00
1433.371, 23859.00
1434.419, 23941.00
1435.467, 23979.00
1436.515, 24131.00
1437.563, 24117.00
1438.611, 24030.00
1439.658, 24231.00
1440.706, 24329.00
1441.753, 24262.00
1442.800, 24187.00
1443.847, 24158.00
1444.894, 24291.00
1445.941, 24208.00
1446.987, 24461.00
1448.034, 24513.00
1449.080, 24547.00
1450.126, 24342.00
1451.172, 24194.00
1452.218, 24338.00
1453.263, 24468.00
1454.309, 24301.00
1455.354, 24509.00
1456.399, 24449.00
1457.444, 24481.00
1458.489, 24441.00
1459.534, 24450.00
1460.579, 24588.00
1461.623, 24572.00
1462.667, 24577.00
1463.711, 24387.00
1464.755, 24605.00
1465.799, 24544.00
1466.843, 24630.00
1467.886, 24653.00
1468.930, 24678.00
1469.973, 24659.00
1471.016, 24652.00
1472.059, 24602.00
1473.101, 24718.00
1474.144, 24623.00
1475.186, 24651.00
1476.229, 24845.00
1477.271, 24802.00
1478.313, 24805.00
1479.355, 24766.00
1480.396, 24541.00
1481.438, 24841.00
1482.479, 24777.00
1483.520, 24537.00
1484.561, 24891.00
1485.602, 24836.00
1486.643, 24886.00
1487.684, 25034.00
1488.724, 24827.00
1489.765, 24754.00
1490.805, 24868.00
1491.845, 24745.00
1492.885, 24932.00
1493.924, 24892.00
1494.964, 25189.00
1496.003, 25193.00
1497.042, 25189.00
1498.082, 24964.00
1499.120, 25017.00
1500.159, 25120.00
1501.198, 24927.00
1502.236, 25245.00
1503.275, 25289.00
1504.313, 25176.00
1505.351, 25210.00
1506.389, 24993.00
1507.427, 25146.00
1508.464, 25111.00
1509.502, 25225.00
1510.539, 25192.00
1511.576, 25235.00
1512.613, 25349.00
1513.650, 25172.00
1514.687, 25449.00
1515.723, 25284.00
1516.759, 25348.00
1517.796, 25311.00
1518.832, 25211.00
1519.868, 25277.00
1520.903, 25377.00
1521.939, 25183.00
1522.975, 25310.00
1524.010, 25475.00
1525.045, 25678.00
1526.080, 25414.00
1527.115, 25506.00
1528.150, 25559.00
1529.184, 25568.00
1530.219, 25520.00
1531.253, 25689.00
1532.287, 25623.00
1533.321, 25643.00
1534.355, 25785.00
1535.388, 25574.00
1536.422, 25880.00
1537.455, 25581.00
1538.488, 25668.00
1539.522, 25699.00
1540.554, 25717.00
1541.587, 25889.00
1542.620, 25801.00
1543.652, 25927.00
1544.685, 25887.00
1545.717, 25931.00
1546.749, 25882.00
1547.781, 25924.00
1548.812, 25810.00
1549.844, 25957.00
1550.875, 25845.00
1551.906, 25887.00
1552.938, 25976.00
1553.968, 26039.00
1554.999, 26052.00
1556.030, 26052.00
1557.060, 25867.00
1558.091, 26053.00
1559.121, 26200.00
1560.151, 26031.00
1561.181, 26166.00
1562.211, 26119.00
1563.240, 26167.00
1564.270, 26186.00
1565.299, 26099.00
1566.328, 26118.00
1567.357, 26270.00
1568.386, 26368.00
1569.415, 26179.00
1570.443, 26101.00
1571.472, 26201.00
1572.500, 26300.00
1573.528, 26357.00
1574.556, 26052.00
1575.584, 26149.00
1576.611, 26403.00
1577.639, 26435.00
##END=



