##NAMES=Rhodonite
##RRUFFID=R060549
##IDEAL CHEMISTRY=CaMn^2+^_3_Mn^2+^Si_5_O_15_
##LOCALITY=unknown
##OWNER=RRUFF
##SOURCE=Gemological Institute of America
##DESCRIPTION=Pink cleavage fragment
##STATUS=The identification of this mineral has been confirmed by X-ray diffraction and chemical analysis
##URL=rruff.info/R060549
##MEASURED CHEMISTRY=(Mn_0.76_Ca_0.12_Fe_0.07_Mg_0.06_)Si_0.99_O_3_
##PIN_ID=L01873
##ORIENTATION=Laser parallel to c* (0 0 1). Fiducial mark perpendicular to laser is parallel to a [1 0 0]
82.03000, 2853.000
83.27000, 2890.000
84.51000, 3071.000
85.74900, 3227.000
86.98900, 3290.000
88.22800, 3455.000
89.46700, 3732.000
90.70600, 3988.000
91.94400, 4231.000
93.18300, 4273.000
94.42100, 4201.000
95.65900, 4020.000
96.89700, 3860.000
98.13500, 3725.226
99.37300, 3381.000
100.6100, 3411.000
101.8480, 3236.000
103.0850, 3079.000
104.3220, 3233.000
105.5590, 3404.000
106.7950, 3756.000
108.0320, 4488.000
109.2680, 4935.000
110.5040, 5488.000
111.7400, 5709.000
112.9760, 6242.000
114.2120, 6578.000
115.4470, 6738.000
116.6820, 6538.000
117.9170, 6509.000
119.1520, 6179.000
120.3870, 5855.000
121.6220, 5822.000
122.8560, 5685.000
124.0900, 5654.000
125.3240, 5558.000
126.5580, 5442.000
127.7920, 5321.000
129.0260, 5385.000
130.2590, 5546.000
131.4920, 5691.000
132.7250, 5999.000
133.9580, 6245.000
135.1910, 6211.000
136.4230, 6382.000
137.6560, 6434.000
138.8880, 6146.000
140.1200, 6020.000
141.3520, 5749.000
142.5830, 5295.000
143.8150, 4794.000
145.0460, 4415.000
146.2770, 4065.000
147.5080, 3899.000
148.7390, 3668.000
149.9700, 3419.000
151.2000, 3230.000
152.4310, 3280.000
153.6610, 3253.000
154.8910, 3248.000
156.1210, 3258.000
157.3500, 3393.000
158.5800, 3378.000
159.8090, 3429.000
161.0380, 3581.000
162.2670, 3576.000
163.4960, 3584.000
164.7240, 3703.000
165.9530, 3790.000
167.1810, 3759.000
168.4090, 3763.000
169.6370, 3704.000
170.8650, 3645.752
172.0920, 3595.000
173.3200, 3481.000
174.5470, 3357.000
175.7740, 3251.000
177.0010, 3229.000
178.2280, 3211.000
179.4540, 3162.000
180.6810, 3106.000
181.9070, 3183.000
183.1330, 3181.000
184.3590, 3132.000
185.5850, 3096.000
186.8100, 3084.000
188.0350, 3056.000
189.2610, 3052.000
190.4860, 2998.000
191.7110, 3006.000
192.9350, 2993.000
194.1600, 3001.000
195.3840, 3077.000
196.6080, 3080.000
197.8320, 3024.000
199.0560, 3110.000
200.2800, 3083.000
201.5030, 3165.000
202.7270, 3138.000
203.9500, 3202.000
205.1730, 3149.000
206.3950, 3120.000
207.6180, 3195.000
208.8410, 3249.000
210.0630, 3363.000
211.2850, 3473.000
212.5070, 3563.000
213.7290, 3508.000
214.9500, 3557.000
216.1720, 3521.000
217.3930, 3496.000
218.6140, 3515.000
219.8350, 3422.000
221.0560, 3384.000
222.2770, 3303.000
223.4970, 3259.000
224.7170, 3112.000
225.9370, 3132.000
227.1570, 3050.000
228.3770, 3019.000
229.5970, 3008.000
230.8160, 3028.000
232.0350, 2985.000
233.2540, 2947.000
234.4730, 3024.000
235.6920, 3084.000
236.9110, 3118.000
238.1290, 3226.000
239.3470, 3281.000
240.5650, 3369.000
241.7830, 3445.000
243.0010, 3613.000
244.2180, 3721.000
245.4360, 3815.000
246.6530, 3918.000
247.8700, 4047.000
249.0870, 4110.111
250.3040, 4178.000
251.5200, 4194.000
252.7370, 4219.000
253.9530, 4134.000
255.1690, 4172.000
256.3850, 4019.000
257.6000, 3993.000
258.8160, 3923.000
260.0310, 4009.000
261.2460, 3927.000
262.4610, 3946.000
263.6760, 3918.000
264.8910, 3860.000
266.1050, 3800.000
267.3200, 3795.000
268.5340, 3762.000
269.7480, 3583.000
270.9620, 3562.000
272.1750, 3501.000
273.3890, 3386.000
274.6020, 3385.000
275.8150, 3402.000
277.0280, 3321.000
278.2410, 3293.000
279.4540, 3285.000
280.6660, 3211.000
281.8790, 3201.000
283.0910, 3113.000
284.3030, 3190.000
285.5140, 3094.000
286.7260, 3081.000
287.9380, 3003.000
289.1490, 2951.845
290.3600, 2880.000
291.5710, 2860.000
292.7820, 2835.000
293.9920, 2819.000
295.2030, 2779.000
296.4130, 2812.000
297.6230, 2730.000
298.8330, 2728.000
300.0430, 2779.000
301.2520, 2793.000
302.4620, 2800.000
303.6710, 2880.000
304.8800, 2840.000
306.0890, 2880.000
307.2980, 2855.000
308.5070, 2946.000
309.7150, 2917.000
310.9230, 2988.000
312.1310, 3111.000
313.3390, 3143.000
314.5470, 3351.000
315.7550, 3486.000
316.9620, 3699.000
318.1690, 3779.000
319.3760, 4038.000
320.5830, 4351.000
321.7900, 4584.000
322.9960, 4937.000
324.2030, 5270.000
325.4090, 5569.000
326.6150, 5873.000
327.8210, 6003.000
329.0270, 6254.000
330.2320, 6512.000
331.4380, 6534.000
332.6430, 6941.000
333.8480, 6989.000
335.0530, 6982.000
336.2580, 6997.000
337.4620, 6985.000
338.6670, 6766.000
339.8710, 6607.000
341.0750, 6326.000
342.2790, 6089.000
343.4820, 5790.000
344.6860, 5741.000
345.8890, 5513.000
347.0920, 5405.000
348.2960, 5257.000
349.4980, 5170.000
350.7010, 5090.000
351.9040, 4970.000
353.1060, 4828.000
354.3080, 4707.000
355.5100, 4455.000
356.7120, 4301.000
357.9140, 4259.000
359.1150, 4131.000
360.3170, 4122.000
361.5180, 4007.000
362.7190, 4070.000
363.9200, 4015.000
365.1200, 3967.000
366.3210, 3932.000
367.5210, 3878.000
368.7210, 3750.000
369.9210, 3663.000
371.1210, 3556.000
372.3210, 3447.795
373.5200, 3318.000
374.7200, 3251.000
375.9190, 3167.000
377.1180, 3097.000
378.3170, 3081.000
379.5150, 3059.000
380.7140, 3051.000
381.9120, 3049.016
383.1110, 3076.576
384.3090, 3088.000
385.5060, 3163.000
386.7040, 3256.000
387.9020, 3322.000
389.0990, 3371.000
390.2960, 3475.000
391.4930, 3623.000
392.6900, 3477.000
393.8860, 3584.000
395.0830, 3445.000
396.2790, 3493.000
397.4750, 3512.000
398.6710, 3506.000
399.8670, 3463.000
401.0630, 3593.000
402.2580, 3699.000
403.4540, 3844.000
404.6490, 4049.000
405.8440, 4254.000
407.0390, 4412.000
408.2330, 4721.000
409.4280, 4974.000
410.6220, 5347.000
411.8160, 5605.000
413.0100, 5933.000
414.2040, 6453.000
415.3980, 6860.000
416.5910, 7403.000
417.7850, 8071.000
418.9780, 8545.000
420.1710, 9034.000
421.3640, 9170.000
422.5560, 9047.000
423.7490, 8580.000
424.9410, 8121.000
426.1330, 7528.000
427.3250, 6699.000
428.5170, 6101.000
429.7090, 5592.000
430.9000, 5114.000
432.0910, 4847.000
433.2820, 4598.000
434.4730, 4473.000
435.6640, 4299.000
436.8550, 4380.000
438.0450, 4206.000
439.2360, 4095.000
440.4260, 4015.000
441.6160, 3844.000
442.8060, 3693.000
443.9950, 3510.000
445.1850, 3406.000
446.3740, 3247.000
447.5630, 3161.000
448.7520, 3153.000
449.9410, 3035.000
451.1300, 3117.000
452.3180, 2986.000
453.5060, 3023.000
454.6950, 2968.000
455.8830, 2971.000
457.0700, 3025.000
458.2580, 2920.000
459.4450, 2928.000
460.6330, 2906.000
461.8200, 2799.000
463.0070, 2837.000
464.1940, 2780.000
465.3800, 2777.000
466.5670, 2763.000
467.7530, 2704.000
468.9390, 2726.000
470.1250, 2730.000
471.3110, 2688.000
472.4970, 2743.000
473.6820, 2716.000
474.8680, 2749.000
476.0530, 2680.000
477.2380, 2627.000
478.4230, 2639.000
479.6070, 2628.000
480.7920, 2528.000
481.9760, 2477.000
483.1600, 2383.000
484.3440, 2382.000
485.5280, 2362.514
486.7120, 2440.000
487.8950, 2401.000
489.0780, 2450.000
490.2620, 2512.000
491.4450, 2550.000
492.6270, 2629.208
493.8100, 2796.000
494.9920, 2796.000
496.1750, 2879.000
497.3570, 2991.000
498.5390, 2978.000
499.7210, 3027.000
500.9020, 3018.000
502.0840, 3135.000
503.2650, 3256.000
504.4460, 3312.000
505.6270, 3709.000
506.8080, 3828.000
507.9890, 4167.000
509.1690, 4363.000
510.3500, 4443.000
511.5300, 4496.000
512.7100, 4410.000
513.8900, 4150.000
515.0690, 3935.000
516.2490, 3690.000
517.4280, 3382.000
518.6070, 3190.000
519.7860, 2967.000
520.9650, 2800.000
522.1440, 2759.000
523.3220, 2598.000
524.5010, 2550.000
525.6790, 2454.000
526.8570, 2417.000
528.0350, 2381.000
529.2130, 2364.000
530.3900, 2316.000
531.5670, 2315.000
532.7450, 2301.000
533.9220, 2314.000
535.0980, 2340.000
536.2750, 2348.000
537.4520, 2406.000
538.6280, 2396.000
539.8040, 2428.000
540.9800, 2522.000
542.1560, 2642.000
543.3320, 2640.000
544.5070, 2700.000
545.6830, 2608.000
546.8580, 2641.000
548.0330, 2536.000
549.2080, 2686.000
550.3830, 2637.000
551.5570, 2601.000
552.7310, 2703.000
553.9060, 2703.000
555.0800, 2773.000
556.2540, 2899.000
557.4270, 2908.000
558.6010, 2930.000
559.7740, 2940.000
560.9470, 2870.000
562.1210, 2830.000
563.2930, 2726.000
564.4660, 2736.000
565.6390, 2708.000
566.8110, 2795.000
567.9830, 2806.000
569.1550, 2799.000
570.3270, 2862.000
571.4990, 2877.000
572.6710, 2926.000
573.8420, 2945.000
575.0130, 2860.000
576.1840, 2823.000
577.3550, 2768.000
578.5260, 2703.000
579.6970, 2686.000
580.8670, 2518.000
582.0370, 2369.000
583.2070, 2325.000
584.3770, 2301.000
585.5470, 2285.000
586.7170, 2280.000
587.8860, 2238.000
589.0550, 2179.000
590.2240, 2223.000
591.3930, 2153.000
592.5620, 2186.000
593.7310, 2179.000
594.8990, 2203.000
596.0670, 2200.000
597.2350, 2204.000
598.4030, 2204.000
599.5710, 2207.781
600.7390, 2226.000
601.9060, 2213.000
603.0740, 2217.000
604.2410, 2211.000
605.4080, 2182.000
606.5740, 2250.000
607.7410, 2229.000
608.9080, 2241.000
610.0740, 2283.000
611.2400, 2262.000
612.4060, 2310.000
613.5720, 2308.000
614.7370, 2298.000
615.9030, 2355.000
617.0680, 2407.000
618.2330, 2433.000
619.3980, 2448.000
620.5630, 2462.000
621.7280, 2440.000
622.8920, 2551.000
624.0570, 2497.000
625.2210, 2559.000
626.3850, 2587.000
627.5490, 2602.000
628.7120, 2711.000
629.8760, 2756.000
631.0390, 2802.000
632.2020, 2862.000
633.3650, 2908.000
634.5280, 2955.000
635.6910, 3011.000
636.8530, 3116.000
638.0160, 3174.000
639.1780, 3330.000
640.3400, 3432.000
641.5020, 3606.000
642.6640, 3693.000
643.8250, 3961.000
644.9870, 4166.000
646.1480, 4295.000
647.3090, 4618.000
648.4700, 4946.000
649.6300, 5353.000
650.7910, 5795.000
651.9510, 6543.000
653.1120, 7162.000
654.2720, 8348.000
655.4320, 9532.000
656.5910, 11024.00
657.7510, 12889.00
658.9100, 15019.00
660.0690, 16767.00
661.2290, 18705.00
662.3880, 20607.00
663.5460, 22135.00
664.7050, 23989.00
665.8630, 25582.00
667.0220, 27574.00
668.1800, 29135.00
669.3380, 29758.00
670.4950, 30173.00
671.6530, 29077.00
672.8100, 26765.00
673.9680, 24039.00
675.1250, 21275.00
676.2820, 18765.00
677.4390, 16592.00
678.5950, 14531.00
679.7520, 13036.00
680.9080, 11745.00
682.0640, 10492.00
683.2200, 9293.000
684.3760, 8255.000
685.5320, 7412.000
686.6870, 6678.000
687.8420, 5991.000
688.9980, 5554.000
690.1530, 5055.000
691.3070, 4665.000
692.4620, 4424.000
693.6170, 4175.000
694.7710, 4056.000
695.9250, 3783.000
697.0790, 3696.000
698.2330, 3569.000
699.3870, 3470.000
700.5400, 3327.000
701.6940, 3218.000
702.8470, 3156.000
704.0000, 3154.000
705.1530, 3170.000
706.3050, 3085.000
707.4580, 3048.000
708.6100, 3044.000
709.7630, 3064.000
710.9150, 3037.254
712.0660, 3041.964
713.2180, 3022.000
714.3700, 3019.000
715.5210, 3021.000
716.6720, 2989.000
717.8240, 2934.000
718.9740, 2952.000
720.1250, 2907.000
721.2760, 2829.000
722.4260, 2806.000
723.5770, 2762.000
724.7270, 2725.000
725.8770, 2675.000
727.0260, 2652.000
728.1760, 2641.000
729.3250, 2589.000
730.4750, 2621.000
731.6240, 2563.000
732.7730, 2623.000
733.9220, 2646.000
735.0700, 2642.000
736.2190, 2575.000
737.3670, 2587.000
738.5150, 2617.000
739.6630, 2591.000
740.8110, 2633.000
741.9590, 2585.000
743.1060, 2551.000
744.2540, 2522.000
745.4010, 2527.000
746.5480, 2471.000
747.6950, 2419.000
748.8410, 2346.000
749.9880, 2401.000
751.1340, 2317.000
752.2800, 2365.000
753.4260, 2347.000
754.5720, 2340.000
755.7180, 2305.000
756.8640, 2276.000
758.0090, 2346.000
759.1540, 2311.000
760.2990, 2309.000
761.4440, 2248.000
762.5890, 2336.000
763.7340, 2291.000
764.8780, 2305.000
766.0220, 2298.000
767.1660, 2253.000
768.3100, 2298.000
769.4540, 2218.000
770.5980, 2285.000
771.7410, 2333.000
772.8840, 2313.000
774.0280, 2289.000
775.1700, 2289.000
776.3130, 2238.000
777.4560, 2331.000
778.5980, 2262.000
779.7410, 2261.000
780.8830, 2232.000
782.0250, 2301.000
783.1670, 2307.000
784.3080, 2295.000
785.4500, 2258.000
786.5910, 2266.000
787.7320, 2257.000
788.8730, 2277.000
790.0140, 2281.000
791.1550, 2265.000
792.2950, 2318.000
793.4360, 2255.000
794.5760, 2271.000
795.7160, 2318.000
796.8560, 2311.000
797.9960, 2274.000
799.1350, 2308.000
800.2750, 2296.000
801.4140, 2279.000
802.5530, 2272.000
803.6920, 2290.000
804.8310, 2250.000
805.9690, 2308.000
807.1080, 2283.000
808.2460, 2298.000
809.3840, 2307.000
810.5220, 2287.000
811.6600, 2237.000
812.7970, 2379.000
813.9350, 2336.000
815.0720, 2345.000
816.2090, 2280.000
817.3460, 2287.000
818.4830, 2342.000
819.6200, 2280.000
820.7560, 2339.000
821.8930, 2372.000
823.0290, 2335.000
824.1650, 2322.000
825.3010, 2319.000
826.4360, 2326.000
827.5720, 2324.000
828.7070, 2326.217
829.8420, 2364.000
830.9770, 2329.000
832.1120, 2361.000
833.2470, 2364.000
834.3820, 2325.000
835.5160, 2377.000
836.6500, 2399.000
837.7840, 2352.000
838.9180, 2374.000
840.0520, 2405.000
841.1860, 2395.000
842.3190, 2385.000
843.4520, 2372.000
844.5850, 2438.000
845.7180, 2425.000
846.8510, 2440.000
847.9840, 2450.000
849.1160, 2472.000
850.2490, 2456.000
851.3810, 2466.000
852.5130, 2490.000
853.6450, 2472.000
854.7760, 2462.000
855.9080, 2527.000
857.0390, 2524.000
858.1700, 2577.000
859.3010, 2528.000
860.4320, 2614.000
861.5630, 2646.000
862.6930, 2732.000
863.8240, 2736.000
864.9540, 2847.000
866.0840, 2861.000
867.2140, 2934.000
868.3440, 3108.000
869.4730, 3142.000
870.6030, 3394.000
871.7320, 3568.000
872.8610, 3750.000
873.9900, 4006.000
875.1190, 4236.000
876.2470, 4494.000
877.3760, 4681.000
878.5040, 4901.000
879.6320, 4947.000
880.7600, 4982.000
881.8880, 4907.000
883.0150, 4768.000
884.1430, 4531.000
885.2700, 4314.000
886.3970, 4118.000
887.5240, 3937.000
888.6510, 3784.194
889.7780, 3636.000
890.9040, 3522.000
892.0310, 3414.490
893.1570, 3340.000
894.2830, 3267.000
895.4090, 3214.000
896.5350, 3205.000
897.6600, 3158.000
898.7860, 3128.656
899.9110, 3092.000
901.0360, 3069.000
902.1610, 3067.000
903.2860, 3046.000
904.4100, 3048.138
905.5350, 3035.000
906.6590, 3035.000
907.7830, 3061.000
908.9070, 3017.000
910.0310, 3107.000
911.1540, 3047.000
912.2780, 3107.000
913.4010, 3112.000
914.5240, 3085.000
915.6470, 3171.000
916.7700, 3160.000
917.8930, 3106.000
919.0150, 3191.000
920.1380, 3165.000
921.2600, 3171.000
922.3820, 3171.000
923.5040, 3191.000
924.6260, 3221.000
925.7470, 3227.000
926.8690, 3315.000
927.9900, 3406.000
929.1110, 3463.000
930.2320, 3593.000
931.3530, 3738.000
932.4730, 3927.000
933.5940, 4101.000
934.7140, 4389.000
935.8340, 4751.000
936.9540, 5046.000
938.0740, 5363.000
939.1930, 5489.000
940.3130, 5527.000
941.4320, 5448.000
942.5510, 5266.000
943.6700, 5074.000
944.7890, 4839.000
945.9080, 4626.000
947.0260, 4383.000
948.1450, 4308.000
949.2630, 4103.003
950.3810, 4111.579
951.4990, 4132.749
952.6170, 4168.216
953.7340, 4128.237
954.8520, 4286.963
955.9690, 4427.873
957.0860, 4610.397
958.2030, 4923.238
959.3200, 5121.457
960.4360, 5511.000
961.5530, 6036.000
962.6690, 6431.000
963.7850, 7199.000
964.9010, 8065.000
966.0170, 9075.000
967.1330, 10416.00
968.2480, 11908.00
969.3630, 13512.00
970.4790, 15383.00
971.5940, 17365.00
972.7080, 19098.00
973.8230, 20654.00
974.9380, 21844.00
976.0520, 22113.00
977.1660, 21656.00
978.2800, 20930.00
979.3940, 19707.00
980.5080, 18362.00
981.6220, 17682.00
982.7350, 16906.00
983.8480, 16624.00
984.9610, 16696.00
986.0740, 16741.00
987.1870, 17114.00
988.3000, 17293.00
989.4120, 17632.00
990.5250, 18041.00
991.6370, 18398.00
992.7490, 18944.00
993.8610, 19768.00
994.9720, 20639.00
996.0840, 21853.00
997.1950, 22762.00
998.3060, 23905.00
999.4170, 24795.00
1000.528, 25325.00
1001.639, 24988.00
1002.750, 24583.00
1003.860, 23752.00
1004.970, 22557.00
1006.080, 21341.00
1007.190, 19963.00
1008.300, 18631.00
1009.410, 17418.00
1010.519, 15734.00
1011.628, 14147.00
1012.738, 13028.00
1013.846, 11581.00
1014.955, 10436.00
1016.064, 9628.000
1017.172, 8779.000
1018.281, 7995.000
1019.389, 7604.000
1020.497, 7288.000
1021.605, 6910.000
1022.713, 6712.000
1023.820, 6493.000
1024.928, 6444.000
1026.035, 6243.000
1027.142, 6169.000
1028.249, 6178.000
1029.356, 6028.000
1030.462, 5909.000
1031.569, 5874.000
1032.675, 5995.000
1033.781, 6017.547
1034.887, 6107.166
1035.993, 6246.000
1037.098, 6320.000
1038.204, 6425.000
1039.309, 6554.000
1040.415, 6674.000
1041.520, 6777.000
1042.624, 6765.000
1043.729, 6823.000
1044.834, 6722.000
1045.938, 6650.000
1047.042, 6570.000
1048.146, 6385.000
1049.250, 6207.000
1050.354, 6009.000
1051.458, 5720.000
1052.561, 5386.000
1053.664, 5300.000
1054.767, 4847.000
1055.870, 4663.000
1056.973, 4406.000
1058.076, 4281.000
1059.178, 4072.000
1060.281, 3895.000
1061.383, 3755.000
1062.485, 3760.000
1063.587, 3671.000
1064.688, 3592.000
1065.790, 3595.000
1066.891, 3478.000
1067.993, 3442.000
1069.094, 3392.558
1070.195, 3320.000
1071.295, 3288.000
1072.396, 3274.000
1073.496, 3219.000
1074.597, 3164.000
1075.697, 3142.000
1076.797, 3085.000
1077.897, 3110.000
1078.996, 3040.000
1080.096, 3040.000
1081.195, 3049.000
1082.294, 3005.000
1083.393, 2990.000
1084.492, 2958.000
1085.591, 2953.000
1086.689, 2898.000
1087.788, 2924.000
1088.886, 2882.000
1089.984, 2858.000
1091.082, 2883.000
1092.180, 2878.000
1093.277, 2814.000
1094.375, 2912.000
1095.472, 2863.000
1096.569, 2882.000
1097.666, 2778.000
1098.763, 2862.000
1099.860, 2795.000
1100.956, 2853.000
1102.053, 2795.000
1103.149, 2742.000
1104.245, 2746.000
1105.341, 2830.000
1106.436, 2831.000
1107.532, 2825.000
1108.627, 2792.000
1109.723, 2798.000
1110.818, 2825.000
1111.913, 2780.000
1113.007, 2863.000
1114.102, 2840.000
1115.197, 2757.000
1116.291, 2749.000
1117.385, 2848.000
1118.479, 2787.000
1119.573, 2836.000
1120.666, 2769.000
1121.760, 2747.000
1122.853, 2803.000
1123.947, 2778.000
1125.040, 2782.575
1126.132, 2818.000
1127.225, 2766.000
1128.318, 2754.000
1129.410, 2735.000
1130.502, 2768.000
1131.595, 2715.000
1132.687, 2747.000
1133.778, 2688.000
1134.870, 2611.000
1135.961, 2682.000
1137.053, 2716.000
1138.144, 2690.000
1139.235, 2715.000
1140.326, 2644.000
1141.416, 2703.000
1142.507, 2685.000
1143.597, 2648.000
1144.688, 2713.000
1145.778, 2731.000
1146.868, 2703.804
1147.957, 2700.000
1149.047, 2675.000
1150.136, 2650.000
1151.226, 2669.000
1152.315, 2668.000
1153.404, 2729.000
1154.493, 2699.000
1155.581, 2641.000
1156.670, 2675.000
1157.758, 2628.000
1158.846, 2655.000
1159.934, 2691.000
1161.022, 2658.000
1162.110, 2670.000
1163.198, 2680.000
1164.285, 2684.000
1165.372, 2665.000
1166.459, 2687.464
1167.546, 2681.000
1168.633, 2705.000
1169.720, 2635.000
1170.806, 2613.000
1171.892, 2606.000
1172.979, 2631.000
1174.065, 2572.000
1175.150, 2644.000
1176.236, 2609.000
1177.322, 2532.000
1178.407, 2582.000
1179.492, 2627.000
1180.577, 2581.000
1181.662, 2590.000
1182.747, 2607.000
1183.832, 2593.000
1184.916, 2598.000
1186.000, 2565.000
1187.084, 2607.000
1188.168, 2603.000
1189.252, 2597.000
1190.336, 2567.000
1191.419, 2653.000
1192.503, 2560.000
1193.586, 2571.000
1194.669, 2614.000
1195.752, 2531.000
1196.835, 2605.000
1197.917, 2577.000
1199.000, 2554.000
1200.082, 2595.000
1201.164, 2554.000
1202.246, 2620.000
1203.328, 2602.000
1204.409, 2656.000
1205.491, 2615.000
1206.572, 2562.000
1207.653, 2679.000
1208.734, 2641.000
1209.815, 2589.000
1210.896, 2596.000
1211.976, 2653.000
1213.057, 2547.000
1214.137, 2608.000
1215.217, 2579.000
1216.297, 2592.000
1217.377, 2637.000
1218.456, 2615.000
1219.536, 2543.000
1220.615, 2610.000
1221.694, 2566.000
1222.773, 2560.000
1223.852, 2578.000
1224.931, 2568.000
1226.009, 2610.000
1227.088, 2650.000
1228.166, 2613.000
1229.244, 2548.000
1230.322, 2659.000
1231.400, 2599.000
1232.477, 2654.000
1233.555, 2564.000
1234.632, 2608.000
1235.709, 2598.000
1236.786, 2608.000
1237.863, 2608.000
1238.939, 2638.000
1240.016, 2614.000
1241.092, 2621.000
1242.168, 2627.000
1243.245, 2612.282
1244.320, 2629.000
1245.396, 2600.000
1246.472, 2608.000
1247.547, 2609.000
1248.622, 2677.000
1249.697, 2617.000
1250.772, 2657.000
1251.847, 2685.000
1252.922, 2595.000
1253.996, 2646.000
1255.071, 2589.000
1256.145, 2655.000
1257.219, 2662.000
1258.293, 2674.000
1259.366, 2620.000
1260.440, 2628.000
1261.513, 2699.000
1262.587, 2595.000
1263.660, 2688.000
1264.733, 2614.000
1265.805, 2692.000
1266.878, 2695.000
1267.951, 2615.000
1269.023, 2694.000
1270.095, 2651.000
1271.167, 2665.000
1272.239, 2647.000
1273.311, 2651.000
1274.382, 2738.000
1275.454, 2642.000
1276.525, 2632.000
1277.596, 2729.000
1278.667, 2639.000
1279.738, 2639.000
1280.808, 2713.000
1281.879, 2642.000
1282.949, 2604.000
1284.019, 2689.000
1285.089, 2759.000
1286.159, 2770.000
1287.229, 2733.000
1288.298, 2690.000
1289.368, 2709.000
1290.437, 2680.898
1291.506, 2685.388
1292.575, 2671.000
1293.644, 2708.000
1294.712, 2708.000
1295.781, 2742.000
1296.849, 2804.000
1297.917, 2711.000
1298.985, 2711.000
1300.053, 2741.000
1301.121, 2661.000
1302.188, 2737.000
1303.255, 2763.000
1304.323, 2716.000
1305.390, 2750.000
1306.457, 2818.000
1307.523, 2731.000
1308.590, 2664.000
1309.656, 2741.000
1310.723, 2752.000
1311.789, 2821.000
1312.855, 2820.301
1313.921, 2764.000
1314.986, 2815.000
1316.052, 2793.000
1317.117, 2789.000
1318.182, 2839.000
1319.248, 2789.000
1320.312, 2773.000
1321.377, 2784.000
1322.442, 2789.000
1323.506, 2776.360
1324.571, 2788.000
1325.635, 2785.000
1326.699, 2732.000
1327.762, 2789.000
1328.826, 2810.000
1329.890, 2866.000
1330.953, 2817.000
1332.016, 2808.000
1333.079, 2869.000
1334.142, 2766.000
1335.205, 2872.000
1336.268, 2976.000
1337.330, 2882.826
1338.392, 2841.000
1339.454, 2791.000
1340.516, 2826.206
1341.578, 2825.150
1342.640, 2932.000
1343.701, 2866.000
1344.763, 2882.000
1345.824, 2843.000
1346.885, 2772.000
1347.946, 2941.000
1349.007, 2878.000
1350.067, 2889.000
1351.128, 2875.000
1352.188, 2892.000
1353.248, 2874.000
1354.308, 2819.000
1355.368, 2854.000
1356.428, 2841.000
1357.487, 2855.000
1358.547, 2926.000
1359.606, 2843.000
1360.665, 2925.000
1361.724, 2832.000
1362.783, 2853.000
1363.841, 2892.000
1364.900, 2892.000
1365.958, 2865.000
1367.016, 2870.000
1368.074, 2935.000
1369.132, 2891.000
1370.190, 2897.000
1371.247, 2910.000
1372.304, 2839.000
1373.362, 2859.000
1374.419, 2874.000
1375.476, 2860.000
1376.532, 2845.000
1377.589, 2868.000
1378.645, 2901.000
1379.702, 2886.000
1380.758, 2872.000
1381.814, 2918.000
1382.870, 2842.000
1383.925, 2983.000
1384.981, 2938.000
1386.036, 2941.000
1387.092, 2939.000
1388.147, 2889.000
1389.202, 2923.000
1390.256, 2879.000
1391.311, 2854.000
1392.365, 2873.000
1393.420, 2951.000
1394.474, 2902.000
1395.528, 2900.000
1396.582, 2898.000
1397.636, 2872.000
1398.689, 2865.000
1399.742, 2958.000
1400.796, 2872.000
1401.849, 2912.000
1402.902, 2925.000
1403.955, 2884.000
1405.007, 2914.000
1406.060, 2876.000
1407.112, 2876.000
1408.164, 2910.000
1409.216, 2952.000
1410.268, 2886.000
1411.320, 2932.000
1412.371, 2952.000
1413.423, 2917.000
1414.474, 2914.000
1415.525, 2914.000
1416.576, 2926.000
1417.627, 2890.000
1418.678, 2922.155
1419.728, 2891.000
1420.778, 2947.000
1421.829, 2957.000
1422.879, 2932.000
1423.928, 2910.000
1424.978, 2946.000
1426.028, 2924.000
1427.077, 2973.000
1428.126, 2925.000
1429.176, 2953.000
1430.225, 2933.000
1431.273, 2983.000
1432.322, 2976.000
1433.371, 3001.000
1434.419, 2977.000
1435.467, 2956.000
1436.515, 2954.000
1437.563, 2971.000
1438.611, 2973.000
1439.658, 3005.000
1440.706, 2930.000
1441.753, 2968.000
1442.800, 2985.000
1443.847, 3049.000
1444.894, 3021.000
1445.941, 2993.000
1446.987, 3043.000
1448.034, 2988.000
1449.080, 3003.000
1450.126, 3029.000
1451.172, 3027.000
1452.218, 3055.000
1453.263, 3027.000
1454.309, 3046.000
1455.354, 3029.000
1456.399, 2992.000
1457.444, 2953.000
1458.489, 3008.000
1459.534, 3093.000
1460.579, 3000.000
1461.623, 3007.000
1462.667, 3080.000
1463.711, 2998.000
1464.755, 3036.000
1465.799, 2999.000
1466.843, 3066.000
1467.886, 3030.000
1468.930, 3047.000
1469.973, 3030.000
1471.016, 3014.000
1472.059, 2943.000
1473.101, 2992.000
1474.144, 2957.000
1475.186, 3018.000
1476.229, 3026.000
1477.271, 2996.000
1478.313, 3041.000
1479.355, 3031.226
1480.396, 3089.000
1481.438, 3051.000
1482.479, 3041.000
1483.520, 3058.000
1484.561, 3068.000
1485.602, 3056.468
1486.643, 3066.836
1487.684, 3065.659
1488.724, 3068.000
1489.765, 3065.000
1490.805, 3067.321
1491.845, 3061.135
1492.885, 3049.000
1493.924, 3039.000
1494.964, 3041.000
1496.003, 3048.000
1497.042, 3041.000
1498.082, 3025.000
1499.120, 3024.463
1500.159, 3003.000
1501.198, 3021.000
1502.236, 3062.000
1503.275, 3090.000
1504.313, 3080.000
1505.351, 3057.000
1506.389, 3080.000
1507.427, 3102.000
1508.464, 3020.000
1509.502, 3094.000
1510.539, 3046.000
1511.576, 3054.000
1512.613, 3053.000
1513.650, 3072.000
1514.687, 3109.000
1515.723, 3067.000
1516.759, 3067.000
1517.796, 3099.000
1518.832, 3057.000
1519.868, 3037.000
1520.903, 3149.000
1521.939, 3076.000
1522.975, 3098.000
1524.010, 3097.000
1525.045, 3066.000
1526.080, 3087.675
1527.115, 3084.000
1528.150, 3106.000
1529.184, 3104.000
1530.219, 3127.000
1531.253, 3080.000
1532.287, 3086.000
1533.321, 3073.000
1534.355, 3132.000
1535.388, 3121.000
1536.422, 3108.000
1537.455, 3132.000
1538.488, 3109.000
1539.522, 3160.000
1540.554, 3119.000
1541.587, 3161.000
1542.620, 3096.000
1543.652, 3197.000
1544.685, 3115.000
1545.717, 3155.000
1546.749, 3233.000
1547.781, 3187.000
1548.812, 3164.000
1549.844, 3162.000
1550.875, 3168.287
1551.906, 3193.000
1552.938, 3233.000
1553.968, 3282.000
1554.999, 3346.000
1556.030, 3224.000
1557.060, 3208.000
1558.091, 3222.000
1559.121, 3154.000
1560.151, 3131.000
1561.181, 3224.000
1562.211, 3258.000
1563.240, 3232.000
1564.270, 3170.000
1565.299, 3184.000
1566.328, 3196.000
1567.357, 3169.000
1568.386, 3249.000
1569.415, 3215.000
1570.443, 3200.000
1571.472, 3234.000
1572.500, 3203.000
1573.528, 3229.000
1574.556, 3250.000
1575.584, 3224.000
1576.611, 3305.000
1577.639, 3275.000
##END=



