##NAMES=Rhodonite
##RRUFFID=R040041
##IDEAL CHEMISTRY=CaMn^2+^_3_Mn^2+^Si_5_O_15_
##LOCALITY=Franklin, Sussex County, New Jersey, USA
##OWNER=RRUFF
##SOURCE=University of Arizona Mineral Museum
##DESCRIPTION=Pink prismatic crystals
##STATUS=The identification of this mineral has been confirmed by X-ray diffraction and chemical analysis
##URL=rruff.info/R040041
##MEASURED CHEMISTRY=(Mn_0.63_Ca_0.21_Zn_0.12_Mg_0.02_Fe_0.02_)_Î£=1_Si_1.00_O_3_
##PIN_ID=L00154
##ORIENTATION=Laser parallel to (1 1 0). Fiducial mark perpendicular to laser is parallel to c [0 0 1]
64.63500, 402.0000
65.87000, 412.0000
67.10500, 483.0000
68.34000, 541.0000
69.57400, 641.0000
70.80900, 699.0000
72.04300, 790.0000
73.27700, 1089.000
74.51100, 1397.000
75.74500, 1688.000
76.97800, 2097.000
78.21200, 2447.000
79.44500, 2793.000
80.67800, 2874.000
81.91200, 3030.000
83.14400, 3126.000
84.37700, 3334.000
85.61000, 3899.000
86.84200, 4258.000
88.07500, 4795.000
89.30700, 5312.000
90.53900, 6271.000
91.77100, 7548.000
93.00200, 8960.755
94.23400, 10756.00
95.46500, 12630.00
96.69700, 14538.00
97.92800, 16813.00
99.15900, 18874.00
100.3900, 21322.00
101.6200, 23958.00
102.8510, 26832.00
104.0810, 29155.00
105.3120, 31464.00
106.5420, 34763.00
107.7720, 38437.00
109.0020, 42017.00
110.2310, 46137.00
111.4610, 49681.00
112.6900, 52912.00
113.9190, 53838.00
115.1480, 52388.00
116.3770, 48343.00
117.6060, 42705.00
118.8350, 36461.00
120.0630, 31918.00
121.2920, 28914.00
122.5200, 27596.00
123.7480, 26060.00
124.9760, 25107.00
126.2040, 24812.00
127.4310, 24701.00
128.6590, 23831.00
129.8860, 22792.00
131.1130, 21251.00
132.3400, 19700.00
133.5670, 18152.00
134.7940, 16957.00
136.0200, 15735.00
137.2470, 14946.00
138.4730, 14199.00
139.6990, 13670.00
140.9250, 13409.00
142.1510, 13390.00
143.3770, 13252.00
144.6020, 13152.00
145.8280, 13285.00
147.0530, 13225.00
148.2780, 13074.00
149.5030, 13149.00
150.7280, 13419.00
151.9520, 14053.00
153.1770, 14545.00
154.4010, 15359.00
155.6250, 15764.00
156.8490, 16445.00
158.0730, 16428.00
159.2970, 16203.00
160.5210, 16015.00
161.7440, 15531.00
162.9680, 15235.00
164.1910, 14595.00
165.4140, 14217.00
166.6370, 13809.00
167.8590, 13287.00
169.0820, 13019.00
170.3040, 13024.00
171.5270, 13035.00
172.7490, 13189.00
173.9710, 13263.00
175.1930, 13329.00
176.4140, 13251.00
177.6360, 13376.00
178.8570, 13124.56
180.0780, 13007.00
181.2990, 12497.00
182.5200, 11942.00
183.7410, 11313.00
184.9620, 10786.00
186.1820, 10256.00
187.4030, 9995.000
188.6230, 9953.000
189.8430, 9986.000
191.0630, 9968.000
192.2830, 10150.00
193.5020, 10397.00
194.7220, 10384.00
195.9410, 10243.00
197.1600, 10138.00
198.3790, 9864.497
199.5980, 9816.000
200.8170, 9407.000
202.0350, 9213.000
203.2540, 9384.000
204.4720, 9461.000
205.6900, 9755.000
206.9080, 10181.00
208.1260, 10464.00
209.3430, 11036.00
210.5610, 11481.00
211.7780, 11881.00
212.9960, 12325.00
214.2130, 12498.00
215.4290, 12575.00
216.6460, 12479.00
217.8630, 11943.00
219.0790, 11603.00
220.2960, 11245.00
221.5120, 10692.00
222.7280, 10453.00
223.9440, 10436.00
225.1590, 10179.00
226.3750, 10269.00
227.5900, 10256.00
228.8060, 10608.00
230.0210, 10829.00
231.2360, 11078.00
232.4510, 11652.00
233.6650, 11899.00
234.8800, 12489.00
236.0940, 13058.00
237.3080, 13818.00
238.5220, 14745.00
239.7360, 15516.00
240.9500, 16675.00
242.1640, 17507.00
243.3770, 18539.00
244.5910, 19328.00
245.8040, 20014.00
247.0170, 20539.00
248.2300, 21161.00
249.4420, 21464.00
250.6550, 21688.00
251.8670, 21352.00
253.0800, 21285.00
254.2920, 21169.00
255.5040, 21214.00
256.7160, 21316.57
257.9270, 21415.00
259.1390, 21803.00
260.3500, 22168.00
261.5610, 22726.00
262.7720, 22934.00
263.9830, 22905.00
265.1940, 22695.00
266.4050, 22077.00
267.6150, 21406.00
268.8260, 20586.00
270.0360, 19665.00
271.2460, 19109.00
272.4560, 18633.00
273.6650, 18395.00
274.8750, 17932.00
276.0840, 18020.00
277.2940, 17819.00
278.5030, 18036.00
279.7120, 17691.44
280.9200, 17461.00
282.1290, 17042.00
283.3380, 16925.00
284.5460, 16529.00
285.7540, 16010.00
286.9620, 15574.00
288.1700, 14899.00
289.3780, 14363.00
290.5860, 13952.00
291.7930, 13241.00
293.0000, 12941.00
294.2080, 12587.00
295.4150, 12247.00
296.6210, 12061.00
297.8280, 11906.00
299.0350, 11824.31
300.2410, 11830.19
301.4470, 11900.00
302.6530, 12034.00
303.8590, 12270.00
305.0650, 12550.00
306.2710, 12664.00
307.4760, 12895.00
308.6820, 13362.00
309.8870, 13720.00
311.0920, 14218.00
312.2970, 14957.00
313.5020, 15751.00
314.7060, 16474.00
315.9110, 17574.00
317.1150, 18381.00
318.3190, 19847.00
319.5230, 21239.00
320.7270, 22498.00
321.9300, 23825.00
323.1340, 25080.00
324.3370, 26187.00
325.5410, 27407.00
326.7440, 28145.00
327.9470, 29294.00
329.1490, 30417.00
330.3520, 31876.00
331.5550, 33115.00
332.7570, 34630.00
333.9590, 36137.00
335.1610, 37350.00
336.3630, 38471.00
337.5650, 38844.00
338.7660, 39072.00
339.9680, 38330.00
341.1690, 37150.00
342.3700, 35345.00
343.5710, 33410.00
344.7720, 31782.00
345.9720, 30342.00
347.1730, 28812.00
348.3730, 27540.00
349.5730, 26085.00
350.7730, 24742.00
351.9730, 23193.00
353.1730, 21926.00
354.3730, 20711.00
355.5720, 19598.00
356.7710, 18731.00
357.9710, 18334.00
359.1700, 17999.00
360.3680, 17707.00
361.5670, 17765.00
362.7660, 17526.00
363.9640, 17350.00
365.1620, 17313.00
366.3600, 16988.00
367.5580, 16760.00
368.7560, 16341.00
369.9540, 16019.00
371.1510, 15526.00
372.3480, 15068.00
373.5450, 14491.00
374.7420, 14190.00
375.9390, 13629.00
377.1360, 13327.00
378.3330, 13046.00
379.5290, 13015.00
380.7250, 12830.00
381.9210, 12847.00
383.1170, 13085.00
384.3130, 13102.00
385.5090, 13319.00
386.7040, 13585.00
387.8990, 13425.00
389.0950, 13639.00
390.2900, 13513.00
391.4850, 13123.00
392.6790, 13003.00
393.8740, 12680.00
395.0680, 12063.00
396.2620, 11992.00
397.4570, 11806.00
398.6510, 11599.00
399.8440, 11504.00
401.0380, 11579.00
402.2310, 11856.00
403.4250, 12154.00
404.6180, 12406.00
405.8110, 13011.00
407.0040, 13847.00
408.1970, 14448.00
409.3890, 15606.00
410.5820, 16732.00
411.7740, 18378.00
412.9660, 19835.00
414.1580, 21505.00
415.3500, 23255.00
416.5420, 25271.00
417.7330, 27051.00
418.9240, 28693.00
420.1160, 29514.00
421.3070, 29776.40
422.4980, 29259.81
423.6880, 28613.00
424.8790, 26465.00
426.0690, 24355.00
427.2600, 21888.00
428.4500, 19574.00
429.6400, 17696.00
430.8300, 15893.00
432.0190, 14477.00
433.2090, 13467.00
434.3980, 12872.00
435.5870, 12109.00
436.7760, 11890.00
437.9650, 11413.00
439.1540, 11309.00
440.3430, 11089.00
441.5310, 10924.00
442.7190, 10714.00
443.9080, 10818.00
445.0960, 10862.00
446.2830, 10845.00
447.4710, 10956.00
448.6590, 11089.00
449.8460, 11138.00
451.0330, 11190.00
452.2200, 11449.00
453.4070, 11649.00
454.5940, 11757.00
455.7800, 11704.00
456.9670, 11802.00
458.1530, 11553.00
459.3390, 11299.00
460.5250, 10865.00
461.7110, 10511.00
462.8970, 10024.00
464.0820, 9803.000
465.2680, 9313.000
466.4530, 9218.000
467.6380, 8943.000
468.8230, 9000.000
470.0080, 8789.000
471.1920, 8740.000
472.3770, 8469.000
473.5610, 8650.000
474.7450, 8630.000
475.9290, 8646.000
477.1130, 8573.000
478.2970, 8494.000
479.4800, 8710.000
480.6640, 8632.000
481.8470, 8753.000
483.0300, 8866.000
484.2130, 8974.000
485.3960, 9198.283
486.5780, 9408.000
487.7610, 9673.000
488.9430, 9950.000
490.1250, 10206.00
491.3070, 10701.00
492.4890, 11019.00
493.6710, 11354.00
494.8520, 11609.00
496.0340, 11763.00
497.2150, 11921.00
498.3960, 11769.00
499.5770, 11742.00
500.7570, 11648.00
501.9380, 11621.00
503.1180, 11676.00
504.2990, 11942.00
505.4790, 12407.00
506.6590, 13068.00
507.8390, 13789.00
509.0180, 14550.00
510.1980, 15508.00
511.3770, 16356.00
512.5560, 17103.00
513.7360, 17553.00
514.9140, 17701.00
516.0930, 17447.00
517.2720, 16505.00
518.4500, 15957.00
519.6290, 14744.00
520.8070, 13855.00
521.9850, 13159.00
523.1620, 12228.00
524.3400, 11716.00
525.5180, 10960.00
526.6950, 10583.00
527.8720, 10307.00
529.0490, 9896.000
530.2260, 9619.000
531.4030, 9502.000
532.5790, 9360.000
533.7560, 9211.000
534.9320, 9166.585
536.1080, 9090.000
537.2840, 9114.000
538.4600, 9148.000
539.6360, 9199.687
540.8110, 9102.000
541.9860, 9280.000
543.1620, 9355.000
544.3370, 9325.000
545.5120, 9727.000
546.6860, 9876.000
547.8610, 10091.00
549.0350, 10409.00
550.2090, 10748.00
551.3840, 11245.00
552.5580, 11787.00
553.7310, 12182.00
554.9050, 12738.00
556.0780, 13285.00
557.2520, 13728.00
558.4250, 13697.00
559.5980, 13570.00
560.7710, 13328.00
561.9430, 12694.00
563.1160, 12142.00
564.2880, 11482.00
565.4610, 10805.00
566.6330, 10557.00
567.8050, 9917.000
568.9760, 9783.000
570.1480, 9592.000
571.3200, 9397.000
572.4910, 9216.000
573.6620, 9281.000
574.8330, 9060.000
576.0040, 9095.000
577.1740, 8925.000
578.3450, 8964.000
579.5150, 8851.000
580.6860, 8784.000
581.8560, 8679.000
583.0260, 8685.000
584.1950, 8603.000
585.3650, 8687.000
586.5340, 8687.000
587.7040, 8647.778
588.8730, 8575.000
590.0420, 8600.000
591.2110, 8573.000
592.3790, 8578.000
593.5480, 8592.000
594.7160, 8578.247
595.8840, 8575.924
597.0520, 8576.000
598.2200, 8560.000
599.3880, 8562.000
600.5550, 8571.000
601.7230, 8658.000
602.8900, 8682.000
604.0570, 8768.000
605.2240, 8691.000
606.3910, 8757.000
607.5580, 8808.000
608.7240, 8932.000
609.8900, 8868.000
611.0570, 9037.000
612.2230, 9070.000
613.3880, 9235.000
614.5540, 9275.000
615.7200, 9433.000
616.8850, 9431.000
618.0500, 9535.000
619.2150, 9609.000
620.3800, 9803.000
621.5450, 9769.000
622.7100, 9979.000
623.8740, 10063.00
625.0380, 10235.00
626.2020, 10569.00
627.3660, 10525.00
628.5300, 10909.00
629.6940, 10938.00
630.8570, 11278.00
632.0210, 11670.00
633.1840, 11787.33
634.3470, 11948.00
635.5100, 12326.00
636.6730, 12708.00
637.8350, 13237.00
638.9980, 13503.00
640.1600, 13970.00
641.3220, 14635.00
642.4840, 15127.00
643.6460, 15877.00
644.8070, 16713.00
645.9690, 17653.00
647.1300, 18778.00
648.2910, 20144.00
649.4520, 21896.00
650.6130, 23826.00
651.7740, 26304.00
652.9340, 29449.00
654.0950, 33291.00
655.2550, 37940.00
656.4150, 44001.00
657.5750, 51552.00
658.7350, 61227.00
659.8940, 72125.00
661.0540, 85234.00
662.2130, 99910.00
663.3720, 115788.0
664.5310, 131453.0
665.6900, 146520.0
666.8490, 158560.0
668.0070, 166807.0
669.1650, 170482.0
670.3240, 168235.0
671.4820, 159074.0
672.6400, 146090.0
673.7970, 130112.0
674.9550, 113909.0
676.1120, 98606.00
677.2690, 85404.00
678.4270, 74309.00
679.5830, 65204.00
680.7400, 57621.00
681.8970, 50814.00
683.0530, 45292.00
684.2100, 40113.00
685.3660, 35807.00
686.5220, 31316.00
687.6780, 27599.00
688.8330, 24532.00
689.9890, 22208.00
691.1440, 20357.00
692.2990, 18617.00
693.4540, 17437.00
694.6090, 16254.00
695.7640, 15402.00
696.9180, 14642.00
698.0730, 14315.00
699.2270, 13772.00
700.3810, 13377.00
701.5350, 13042.00
702.6890, 12940.00
703.8430, 12910.00
704.9960, 12933.00
706.1490, 13058.00
707.3030, 13258.00
708.4560, 13528.00
709.6080, 13849.00
710.7610, 14197.00
711.9140, 14705.00
713.0660, 15124.00
714.2180, 15415.00
715.3700, 15567.00
716.5220, 15369.00
717.6740, 14810.00
718.8250, 14287.00
719.9770, 13735.00
721.1280, 13065.00
722.2790, 12545.00
723.4300, 11954.00
724.5810, 11575.00
725.7320, 11345.00
726.8820, 10999.00
728.0320, 10764.00
729.1830, 10700.00
730.3330, 10565.00
731.4820, 10614.00
732.6320, 10424.00
733.7820, 10661.00
734.9310, 10597.00
736.0800, 10743.00
737.2290, 10731.00
738.3780, 10813.00
739.5270, 10723.00
740.6750, 10747.00
741.8240, 10820.00
742.9720, 10729.00
744.1200, 10689.00
745.2680, 10485.00
746.4160, 10315.00
747.5640, 9973.000
748.7110, 9914.000
749.8580, 9777.000
751.0060, 9450.000
752.1530, 9407.000
753.2990, 9232.000
754.4460, 9252.000
755.5930, 9221.000
756.7390, 9035.000
757.8850, 9104.077
759.0310, 9107.000
760.1770, 9103.000
761.3230, 9057.000
762.4690, 9018.000
763.6140, 8860.000
764.7590, 8991.000
765.9040, 8910.000
767.0490, 8925.000
768.1940, 8967.000
769.3390, 8997.000
770.4830, 8940.000
771.6270, 8845.000
772.7720, 8778.000
773.9160, 8827.000
775.0590, 8751.000
776.2030, 8836.000
777.3470, 8850.000
778.4900, 8764.000
779.6330, 8811.000
780.7760, 8829.000
781.9190, 8851.000
783.0620, 8844.788
784.2040, 8787.000
785.3470, 8804.000
786.4890, 8798.000
787.6310, 8766.000
788.7730, 8832.000
789.9150, 8937.000
791.0570, 8915.000
792.1980, 8895.000
793.3390, 8931.000
794.4810, 8838.000
795.6210, 8923.000
796.7620, 9061.000
797.9030, 8990.000
799.0430, 8864.000
800.1840, 9037.000
801.3240, 8861.000
802.4640, 9093.000
803.6040, 9111.000
804.7440, 9112.000
805.8830, 9136.000
807.0230, 9005.000
808.1620, 8958.000
809.3010, 9086.000
810.4400, 9026.000
811.5790, 9153.000
812.7170, 9061.000
813.8560, 9077.000
814.9940, 9128.000
816.1320, 9061.000
817.2700, 9137.000
818.4080, 9172.000
819.5460, 9190.000
820.6830, 9108.000
821.8200, 9150.000
822.9580, 9186.000
824.0950, 9170.000
825.2310, 9007.000
826.3680, 9193.000
827.5050, 9152.000
828.6410, 9315.000
829.7770, 9272.000
830.9130, 9275.000
832.0490, 9161.000
833.1850, 9185.000
834.3210, 9287.000
835.4560, 9243.000
836.5910, 9362.000
837.7260, 9445.000
838.8610, 9278.000
839.9960, 9451.000
841.1310, 9321.000
842.2650, 9318.000
843.4000, 9489.000
844.5340, 9406.000
845.6680, 9679.000
846.8010, 9604.000
847.9350, 9604.000
849.0690, 9548.000
850.2020, 9733.000
851.3350, 9717.000
852.4680, 10024.00
853.6010, 9970.000
854.7340, 9921.000
855.8660, 10184.00
856.9990, 10110.00
858.1310, 10489.00
859.2630, 10550.00
860.3950, 10782.00
861.5270, 11033.00
862.6580, 11475.00
863.7900, 11907.00
864.9210, 12409.00
866.0520, 12892.00
867.1830, 13772.00
868.3140, 14612.00
869.4450, 15742.00
870.5750, 16639.00
871.7060, 17572.00
872.8360, 18582.00
873.9660, 19655.00
875.0960, 20029.00
876.2250, 20229.00
877.3550, 20119.00
878.4840, 19862.00
879.6130, 19455.00
880.7420, 18890.00
881.8710, 18687.00
883.0000, 18277.00
884.1290, 18277.00
885.2570, 18114.00
886.3850, 18223.00
887.5130, 18259.00
888.6410, 18467.00
889.7690, 18411.00
890.8970, 18154.00
892.0240, 17537.00
893.1510, 16889.00
894.2790, 16272.00
895.4050, 15823.00
896.5320, 15102.00
897.6590, 14537.00
898.7850, 14324.00
899.9120, 14128.00
901.0380, 13954.00
902.1640, 14029.00
903.2900, 14149.00
904.4150, 14449.00
905.5410, 14721.00
906.6660, 15400.00
907.7920, 16183.00
908.9170, 17125.00
910.0420, 17936.00
911.1660, 19030.00
912.2910, 19750.00
913.4150, 20128.00
914.5400, 20529.00
915.6640, 20518.00
916.7880, 20167.00
917.9110, 19303.00
919.0350, 18517.00
920.1580, 17621.00
921.2820, 16961.00
922.4050, 16587.00
923.5280, 16040.00
924.6510, 15967.00
925.7730, 15787.00
926.8960, 15826.00
928.0180, 16234.00
929.1400, 16745.00
930.2620, 17707.00
931.3840, 18692.00
932.5060, 19965.00
933.6270, 21448.00
934.7490, 23096.00
935.8700, 24603.00
936.9910, 25571.00
938.1120, 26014.00
939.2330, 25566.00
940.3530, 24603.00
941.4740, 22880.00
942.5940, 21099.00
943.7140, 19402.00
944.8340, 18134.00
945.9540, 17048.00
947.0730, 16314.00
948.1930, 15973.00
949.3120, 15677.00
950.4310, 15506.00
951.5500, 15535.00
952.6690, 15577.00
953.7870, 15819.00
954.9060, 16079.00
956.0240, 16600.00
957.1420, 17252.00
958.2600, 18138.00
959.3780, 19216.00
960.4960, 20500.00
961.6130, 22368.00
962.7310, 24579.00
963.8480, 27525.00
964.9650, 31203.00
966.0820, 35882.00
967.1990, 41200.00
968.3150, 47497.00
969.4310, 54122.00
970.5480, 60910.00
971.6640, 66805.00
972.7800, 71108.00
973.8950, 73543.00
975.0110, 73562.00
976.1260, 70488.00
977.2420, 67297.00
978.3570, 62833.00
979.4720, 58669.00
980.5870, 55867.00
981.7010, 54165.00
982.8160, 53965.00
983.9300, 54945.00
985.0440, 57710.00
986.1580, 61904.00
987.2720, 67352.00
988.3860, 74010.00
989.4990, 80381.00
990.6120, 86114.00
991.7260, 90322.00
992.8390, 91759.00
993.9510, 90250.00
995.0640, 86269.00
996.1770, 81182.00
997.2890, 76459.00
998.4010, 72833.00
999.5130, 70644.00
1000.625, 69329.00
1001.737, 67989.00
1002.848, 66694.00
1003.960, 63997.00
1005.071, 60407.00
1006.182, 56205.00
1007.293, 50993.00
1008.404, 46081.00
1009.514, 41508.00
1010.625, 37647.00
1011.735, 34832.00
1012.845, 32361.00
1013.955, 30893.00
1015.065, 29570.00
1016.175, 28908.00
1017.284, 28435.00
1018.393, 27909.00
1019.503, 28284.00
1020.612, 28359.00
1021.720, 28581.00
1022.829, 28948.00
1023.937, 29853.00
1025.046, 30841.00
1026.154, 31351.00
1027.262, 32372.00
1028.370, 32774.00
1029.478, 33263.00
1030.585, 33551.00
1031.692, 33625.71
1032.800, 33746.00
1033.907, 33484.00
1035.014, 33407.00
1036.120, 33127.00
1037.227, 33473.00
1038.333, 33425.00
1039.440, 34019.00
1040.546, 34976.00
1041.652, 36436.00
1042.757, 39064.00
1043.863, 39840.00
1044.968, 41625.00
1046.074, 44173.00
1047.179, 43186.00
1048.284, 42939.00
1049.388, 41492.00
1050.493, 38404.00
1051.598, 34932.00
1052.702, 31197.00
1053.806, 28010.00
1054.910, 24887.00
1056.014, 22440.00
1057.117, 20532.00
1058.221, 18850.00
1059.324, 17759.00
1060.427, 16975.00
1061.530, 16196.00
1062.633, 15428.00
1063.736, 15101.00
1064.838, 14622.00
1065.941, 14367.00
1067.043, 14126.00
1068.145, 13927.00
1069.247, 13729.00
1070.349, 13641.00
1071.450, 13485.00
1072.552, 13541.00
1073.653, 13353.00
1074.754, 13235.00
1075.855, 13326.00
1076.955, 13334.00
1078.056, 13318.00
1079.156, 13595.00
1080.257, 13190.00
1081.357, 12951.00
1082.457, 12926.00
1083.557, 12973.00
1084.656, 12898.00
1085.756, 12823.00
1086.855, 12665.00
1087.954, 12763.00
1089.053, 12846.00
1090.152, 12690.00
1091.250, 12433.00
1092.349, 12358.00
1093.447, 12303.00
1094.545, 12084.00
1095.643, 12094.00
1096.741, 12120.00
1097.839, 12008.00
1098.936, 12084.00
1100.034, 12007.00
1101.131, 11998.00
1102.228, 11969.00
1103.325, 11956.00
1104.421, 11770.00
1105.518, 11894.00
1106.614, 11836.00
1107.710, 11886.00
1108.806, 12033.00
1109.902, 11990.00
1110.998, 11992.00
1112.094, 12015.00
1113.189, 11966.00
1114.284, 12042.00
1115.379, 11966.00
1116.474, 12021.00
1117.569, 12009.00
1118.664, 11902.00
1119.758, 12017.00
1120.852, 11886.00
1121.946, 12002.00
1123.040, 11924.00
1124.134, 11915.00
1125.228, 11834.00
1126.321, 11787.00
1127.414, 12008.00
1128.507, 11746.00
1129.600, 11923.00
1130.693, 11902.00
1131.786, 11901.00
1132.878, 11787.00
1133.971, 11865.00
1135.063, 11950.00
1136.155, 11936.00
1137.247, 11864.00
1138.338, 11831.00
1139.430, 11885.00
1140.521, 11911.00
1141.612, 11859.00
1142.703, 11908.00
1143.794, 11828.00
1144.885, 11949.00
1145.975, 11847.00
1147.066, 11804.00
1148.156, 11881.00
1149.246, 11846.00
1150.336, 11945.00
1151.425, 11845.00
1152.515, 11966.00
1153.604, 11989.00
1154.693, 11900.00
1155.783, 11876.00
1156.871, 11950.00
1157.960, 11848.00
1159.049, 11930.00
1160.137, 11914.00
1161.225, 11915.00
1162.313, 11871.00
1163.401, 11714.00
1164.489, 11740.00
1165.577, 11836.00
1166.664, 11894.00
1167.751, 11715.00
1168.838, 11774.00
1169.925, 11677.00
1171.012, 11669.00
1172.099, 11547.00
1173.185, 11581.00
1174.272, 11776.00
1175.358, 11632.00
1176.444, 11666.00
1177.529, 11544.00
1178.615, 11718.00
1179.700, 11551.00
1180.786, 11382.00
1181.871, 11779.00
1182.956, 11596.00
1184.041, 11694.00
1185.125, 11734.00
1186.210, 11521.00
1187.294, 11717.00
1188.378, 11738.00
1189.462, 11541.00
1190.546, 11642.00
1191.630, 11722.00
1192.713, 11739.00
1193.797, 11693.00
1194.880, 11680.00
1195.963, 11720.00
1197.046, 11725.00
1198.129, 11622.00
1199.211, 11736.00
1200.293, 11707.00
1201.376, 11566.00
1202.458, 11690.00
1203.540, 11648.00
1204.621, 11765.00
1205.703, 11734.00
1206.784, 11739.00
1207.865, 11792.00
1208.947, 11900.00
1210.027, 11877.49
1211.108, 11920.12
1212.189, 11844.00
1213.269, 11917.00
1214.349, 11816.00
1215.430, 11780.00
1216.509, 11789.00
1217.589, 11899.00
1218.669, 11835.00
1219.748, 11867.00
1220.827, 11964.00
1221.907, 11897.00
1222.986, 11935.00
1224.064, 11908.00
1225.143, 11818.00
1226.221, 11981.00
1227.300, 11924.00
1228.378, 11972.00
1229.456, 11969.00
1230.534, 12128.00
1231.611, 12060.00
1232.689, 12030.00
1233.766, 11846.00
1234.843, 11994.00
1235.920, 11980.00
1236.997, 12015.00
1238.074, 12010.00
1239.150, 12008.00
1240.226, 12004.00
1241.303, 12023.00
1242.379, 12023.00
1243.454, 12032.36
1244.530, 12038.00
1245.606, 12063.00
1246.681, 12127.00
1247.756, 12175.00
1248.831, 12056.00
1249.906, 12127.00
1250.981, 12169.96
1252.055, 12152.56
1253.130, 12341.00
1254.204, 12155.00
1255.278, 12250.00
1256.352, 12158.00
1257.425, 12206.00
1258.499, 12359.00
1259.572, 12143.00
1260.646, 12350.00
1261.719, 12302.00
1262.791, 12271.00
1263.864, 12235.00
1264.937, 12378.00
1266.009, 12363.00
1267.081, 12367.00
1268.153, 12447.00
1269.225, 12327.00
1270.297, 12436.00
1271.369, 12543.00
1272.440, 12400.00
1273.511, 12463.00
1274.582, 12585.00
1275.653, 12511.00
1276.724, 12445.00
1277.795, 12490.00
1278.865, 12616.00
1279.935, 12584.00
1281.006, 12636.28
1282.076, 12732.00
1283.145, 12641.00
1284.215, 12649.00
1285.284, 12612.00
1286.354, 12836.00
1287.423, 12875.00
1288.492, 12776.00
1289.561, 12917.00
1290.629, 12726.00
1291.698, 12679.00
1292.766, 12958.00
1293.834, 12953.00
1294.902, 12905.00
1295.970, 12821.00
1297.037, 13055.00
1298.105, 12895.00
1299.172, 12914.00
1300.239, 13098.00
1301.306, 12883.00
1302.373, 13107.00
1303.440, 12874.00
1304.506, 12907.00
1305.573, 13049.00
1306.639, 12935.00
1307.705, 12953.00
1308.771, 12946.00
1309.836, 13139.00
1310.902, 13078.00
1311.967, 12867.00
1313.033, 13183.00
1314.098, 13052.00
1315.162, 13089.00
1316.227, 13128.00
1317.292, 13140.00
1318.356, 13179.00
1319.420, 13193.00
1320.484, 13284.00
1321.548, 13233.00
1322.612, 13269.00
1323.675, 13217.00
1324.739, 13339.00
1325.802, 13274.00
1326.865, 13204.00
1327.928, 13358.00
1328.991, 13351.00
1330.053, 13353.00
1331.116, 13325.00
1332.178, 13418.00
1333.240, 13251.00
1334.302, 13428.00
1335.363, 13348.00
1336.425, 13603.00
1337.486, 13677.00
1338.548, 13554.00
1339.609, 13605.00
1340.670, 13662.00
1341.730, 13664.00
1342.791, 13566.00
1343.851, 13658.00
1344.912, 13545.00
1345.972, 13535.00
1347.032, 13619.00
1348.091, 13681.00
1349.151, 13702.00
1350.210, 13664.00
1351.270, 13685.00
1352.329, 13720.00
1353.388, 13763.00
1354.447, 13775.00
1355.505, 13762.00
1356.564, 13718.00
1357.622, 13767.00
1358.680, 13731.00
1359.738, 13888.00
1360.796, 13853.00
1361.853, 13843.00
1362.911, 13935.00
1363.968, 13892.00
1365.025, 13942.00
1366.082, 13941.00
1367.139, 13928.00
1368.196, 13897.00
1369.252, 13902.99
1370.308, 13919.00
1371.365, 13912.00
1372.421, 13904.00
1373.476, 13937.00
1374.532, 13948.00
1375.588, 14045.00
1376.643, 14080.00
1377.698, 14052.00
1378.753, 13899.00
1379.808, 14031.00
1380.862, 14010.12
1381.917, 14019.00
1382.971, 14104.00
1384.025, 14122.00
1385.079, 14111.00
1386.133, 14072.00
1387.187, 14116.00
1388.240, 14084.00
1389.294, 14097.47
1390.347, 14147.00
1391.400, 14112.00
1392.453, 14190.00
1393.506, 14195.00
1394.558, 14151.00
1395.610, 14183.00
1396.663, 14195.00
1397.715, 14193.92
1398.766, 14224.13
1399.818, 14198.00
1400.870, 14276.00
1401.921, 14238.00
1402.972, 14280.00
1404.023, 14385.00
1405.074, 14290.00
1406.125, 14243.00
1407.175, 14333.00
1408.226, 14423.00
1409.276, 14265.00
1410.326, 14464.00
1411.376, 14458.00
1412.426, 14496.00
1413.475, 14412.00
1414.525, 14460.00
1415.574, 14475.93
1416.623, 14601.00
1417.672, 14554.00
1418.720, 14594.00
1419.769, 14643.00
1420.817, 14608.00
1421.866, 14566.00
1422.914, 14630.00
1423.962, 14638.00
1425.009, 14670.00
1426.057, 14743.00
1427.104, 14714.00
1428.152, 14877.00
1429.199, 14553.00
1430.246, 14683.00
1431.292, 14718.00
1432.339, 14992.00
1433.385, 14942.00
1434.431, 14864.00
1435.478, 14835.00
1436.523, 14920.00
1437.569, 14847.00
1438.615, 14885.00
1439.660, 14882.00
1440.706, 14832.00
1441.751, 14835.00
1442.796, 14869.83
1443.840, 14887.16
1444.885, 14936.00
1445.929, 14965.00
1446.974, 14926.00
1448.018, 14916.07
1449.062, 15022.00
1450.105, 14952.00
1451.149, 15039.00
1452.192, 15102.00
1453.236, 15185.00
1454.279, 15178.27
1455.322, 15088.00
1456.365, 15130.00
1457.407, 15142.00
1458.450, 15086.00
1459.492, 15284.00
1460.534, 15301.00
1461.576, 15296.00
1462.618, 15220.00
1463.659, 15283.00
1464.701, 15283.38
1465.742, 15190.00
1466.783, 15368.00
1467.824, 15352.00
1468.865, 15409.00
1469.906, 15329.00
1470.946, 15388.00
1471.986, 15604.00
1473.026, 15534.00
1474.066, 15422.00
1475.106, 15647.00
1476.146, 15431.00
1477.185, 15335.00
1478.225, 15573.00
1479.264, 15737.00
1480.303, 15572.00
1481.342, 15631.00
1482.380, 15532.00
1483.419, 15595.00
1484.457, 15739.00
1485.495, 15816.00
1486.533, 15659.00
1487.571, 15499.00
1488.609, 15695.00
1489.646, 15652.00
1490.683, 15630.00
1491.721, 15615.00
1492.758, 15539.00
1493.794, 15674.00
1494.831, 15676.00
1495.868, 15627.00
1496.904, 15643.00
1497.940, 15679.00
1498.976, 15653.46
1500.012, 15673.12
1501.047, 15685.00
1502.083, 15675.00
1503.118, 15765.00
1504.153, 15771.00
1505.188, 15928.00
1506.223, 15816.00
1507.258, 15826.00
1508.292, 15669.00
1509.327, 15821.00
1510.361, 15852.00
1511.395, 16065.00
1512.429, 15926.00
1513.462, 15875.00
1514.496, 15954.00
1515.529, 16090.00
1516.563, 16068.00
1517.596, 16029.00
1518.628, 16021.00
1519.661, 16035.00
1520.694, 16152.00
1521.726, 16033.00
1522.758, 16243.00
1523.790, 16224.00
1524.822, 16230.55
1525.854, 16338.00
1526.885, 16235.00
1527.917, 16345.00
1528.948, 16341.00
1529.979, 16333.00
1531.010, 16337.00
1532.040, 16302.00
1533.071, 16296.00
1534.101, 16288.00
1535.131, 16466.00
1536.161, 16318.00
1537.191, 16508.00
1538.221, 16519.00
1539.250, 16319.00
1540.280, 16473.00
1541.309, 16498.00
1542.338, 16582.00
1543.367, 16599.00
1544.396, 16627.69
1545.424, 16513.00
1546.453, 16635.00
1547.481, 16659.00
1548.509, 16608.00
1549.537, 16743.00
1550.564, 16850.00
1551.592, 16724.00
1552.619, 16860.00
1553.646, 16946.00
1554.673, 17143.00
1555.700, 17119.00
1556.727, 17020.00
1557.754, 16788.00
1558.780, 17006.00
1559.806, 16697.00
1560.832, 16850.00
1561.858, 16980.00
1562.884, 17083.00
1563.909, 17038.00
1564.935, 16996.00
1565.960, 17039.00
1566.985, 17150.00
1568.010, 16923.00
1569.035, 17112.00
1570.059, 16969.00
1571.084, 17102.00
1572.108, 17091.00
1573.132, 17177.00
1574.156, 17212.00
1575.179, 17134.00
1576.203, 17209.00
1577.226, 17234.00
1578.250, 17271.00
1579.273, 17242.00
##END=



