##NAMES=Rhodonite
##RRUFFID=R040041
##IDEAL CHEMISTRY=CaMn^2+^_3_Mn^2+^Si_5_O_15_
##LOCALITY=Franklin, Sussex County, New Jersey, USA
##OWNER=RRUFF
##SOURCE=University of Arizona Mineral Museum
##DESCRIPTION=Pink prismatic crystals
##STATUS=The identification of this mineral has been confirmed by X-ray diffraction and chemical analysis
##URL=rruff.info/R040041
##MEASURED CHEMISTRY=(Mn_0.63_Ca_0.21_Zn_0.12_Mg_0.02_Fe_0.02_)_Î£=1_Si_1.00_O_3_
##PIN_ID=L00154
##ORIENTATION=Laser parallel to (1 1 0). Fiducial mark perpendicular to laser is parallel to c [0 0 1]
64.63500, 350.0000
65.87000, 424.0000
67.10500, 413.0000
68.34000, 497.0000
69.57400, 586.0000
70.80900, 713.0000
72.04300, 785.0000
73.27700, 1077.000
74.51100, 1416.000
75.74500, 1779.000
76.97800, 2511.000
78.21200, 3151.000
79.44500, 3090.000
80.67800, 3102.000
81.91200, 3171.000
83.14400, 3251.758
84.37700, 3269.000
85.61000, 3552.000
86.84200, 3813.000
88.07500, 4039.000
89.30700, 4452.000
90.53900, 5057.000
91.77100, 5805.000
93.00200, 6875.000
94.23400, 7867.000
95.46500, 8926.000
96.69700, 10031.00
97.92800, 11255.00
99.15900, 12278.00
100.3900, 13303.00
101.6200, 13983.00
102.8510, 14470.00
104.0810, 13959.58
105.3120, 15496.62
106.5420, 16818.12
107.7720, 17936.46
109.0020, 18243.13
110.2310, 19597.05
111.4610, 20531.78
112.6900, 20915.00
113.9190, 21352.00
115.1480, 21391.00
116.3770, 20010.00
117.6060, 18432.00
118.8350, 16721.00
120.0630, 15716.00
121.2920, 15271.00
122.5200, 15262.00
123.7480, 15751.96
124.9760, 16258.30
126.2040, 17412.00
127.4310, 17727.00
128.6590, 17962.00
129.8860, 17924.00
131.1130, 17461.00
132.3400, 17081.00
133.5670, 16294.00
134.7940, 15538.00
136.0200, 14734.00
137.2470, 14568.00
138.4730, 13272.00
139.6990, 12065.00
140.9250, 11632.00
142.1510, 11288.00
143.3770, 10837.00
144.6020, 10539.00
145.8280, 9647.000
147.0530, 9232.000
148.2780, 9195.000
149.5030, 8400.000
150.7280, 8139.000
151.9520, 7926.000
153.1770, 7801.000
154.4010, 7773.000
155.6250, 7791.000
156.8490, 7923.000
158.0730, 7992.000
159.2970, 7834.000
160.5210, 7657.000
161.7440, 7823.000
162.9680, 8146.000
164.1910, 8538.000
165.4140, 8945.000
166.6370, 9496.000
167.8590, 10227.00
169.0820, 11219.00
170.3040, 12258.00
171.5270, 13206.00
172.7490, 14282.00
173.9710, 15098.00
175.1930, 15542.00
176.4140, 15675.00
177.6360, 15238.00
178.8570, 14996.00
180.0780, 14263.00
181.2990, 13528.00
182.5200, 12611.00
183.7410, 11519.00
184.9620, 10479.00
186.1820, 9406.000
187.4030, 8601.000
188.6230, 8129.000
189.8430, 7670.000
191.0630, 7555.000
192.2830, 7133.000
193.5020, 7149.000
194.7220, 7173.000
195.9410, 7096.000
197.1600, 6971.000
198.3790, 7026.000
199.5980, 7110.000
200.8170, 7054.000
202.0350, 7228.000
203.2540, 7393.000
204.4720, 7482.000
205.6900, 7756.000
206.9080, 8122.000
208.1260, 8531.000
209.3430, 8993.000
210.5610, 9372.000
211.7780, 9764.000
212.9960, 10310.00
214.2130, 10707.00
215.4290, 10935.00
216.6460, 11254.00
217.8630, 11309.00
219.0790, 10989.00
220.2960, 10982.00
221.5120, 10945.00
222.7280, 10737.00
223.9440, 10576.00
225.1590, 10482.00
226.3750, 10555.00
227.5900, 10683.00
228.8060, 10705.00
230.0210, 10910.00
231.2360, 11137.00
232.4510, 11550.00
233.6650, 12013.00
234.8800, 12875.00
236.0940, 13594.00
237.3080, 14661.00
238.5220, 15911.00
239.7360, 17106.00
240.9500, 18464.00
242.1640, 19699.00
243.3770, 21088.00
244.5910, 22072.00
245.8040, 23252.00
247.0170, 24190.00
248.2300, 25151.00
249.4420, 25838.00
250.6550, 26913.00
251.8670, 27493.00
253.0800, 28218.00
254.2920, 29011.00
255.5040, 29644.00
256.7160, 30772.00
257.9270, 31848.00
259.1390, 33521.00
260.3500, 34779.00
261.5610, 36111.00
262.7720, 36719.00
263.9830, 36475.00
265.1940, 35868.00
266.4050, 33984.00
267.6150, 31579.00
268.8260, 28573.00
270.0360, 25710.00
271.2460, 22967.00
272.4560, 20491.00
273.6650, 18887.00
274.8750, 17370.00
276.0840, 16147.00
277.2940, 15483.00
278.5030, 14856.00
279.7120, 14340.00
280.9200, 13893.00
282.1290, 13635.00
283.3380, 13248.00
284.5460, 12826.00
285.7540, 12656.00
286.9620, 12166.00
288.1700, 11932.00
289.3780, 11572.00
290.5860, 11285.00
291.7930, 10911.00
293.0000, 10922.00
294.2080, 10754.00
295.4150, 10831.00
296.6210, 10841.00
297.8280, 11111.00
299.0350, 11145.00
300.2410, 11380.00
301.4470, 11401.00
302.6530, 11517.00
303.8590, 11569.00
305.0650, 11489.00
306.2710, 11510.00
307.4760, 11630.00
308.6820, 11822.00
309.8870, 11813.00
311.0920, 12304.00
312.2970, 12723.00
313.5020, 13352.00
314.7060, 14075.00
315.9110, 15032.00
317.1150, 16111.00
318.3190, 17231.00
319.5230, 18452.00
320.7270, 19587.00
321.9300, 20584.00
323.1340, 21471.00
324.3370, 21940.00
325.5410, 22146.00
326.7440, 21895.00
327.9470, 21263.00
329.1490, 20913.00
330.3520, 19980.00
331.5550, 19467.00
332.7570, 18997.00
333.9590, 18750.00
335.1610, 18398.00
336.3630, 18164.00
337.5650, 18408.00
338.7660, 18109.00
339.9680, 18265.00
341.1690, 18411.00
342.3700, 18444.00
343.5710, 18428.00
344.7720, 18291.00
345.9720, 18425.00
347.1730, 18249.00
348.3730, 18231.00
349.5730, 18001.00
350.7730, 17549.00
351.9730, 17209.00
353.1730, 16831.00
354.3730, 16638.00
355.5720, 16537.00
356.7710, 16858.00
357.9710, 17317.00
359.1700, 17762.00
360.3680, 18677.00
361.5670, 19875.00
362.7660, 20874.00
363.9640, 21900.00
365.1620, 23133.00
366.3600, 24332.00
367.5580, 25053.00
368.7560, 25886.00
369.9540, 25977.00
371.1510, 26134.00
372.3480, 25592.00
373.5450, 24328.00
374.7420, 22980.00
375.9390, 21610.00
377.1360, 19976.00
378.3330, 18642.00
379.5290, 17414.00
380.7250, 16372.64
381.9210, 15522.00
383.1170, 14873.00
384.3130, 14365.00
385.5090, 14139.00
386.7040, 13688.00
387.8990, 13472.00
389.0950, 13089.00
390.2900, 12878.00
391.4850, 12549.00
392.6790, 12133.00
393.8740, 11451.00
395.0680, 11023.00
396.2620, 10624.00
397.4570, 10243.00
398.6510, 9960.000
399.8440, 9829.000
401.0380, 9517.000
402.2310, 9530.000
403.4250, 9415.000
404.6180, 9377.000
405.8110, 9537.000
407.0040, 9528.000
408.1970, 9776.000
409.3890, 9821.000
410.5820, 9994.000
411.7740, 10160.00
412.9660, 10570.00
414.1580, 10531.00
415.3500, 10852.00
416.5420, 11186.00
417.7330, 11291.00
418.9240, 11679.00
420.1160, 11677.00
421.3070, 11901.00
422.4980, 11922.00
423.6880, 11730.00
424.8790, 11232.00
426.0690, 11011.00
427.2600, 10457.00
428.4500, 10098.00
429.6400, 9689.000
430.8300, 9363.000
432.0190, 9208.000
433.2090, 8959.000
434.3980, 8845.000
435.5870, 8803.000
436.7760, 8913.000
437.9650, 8958.000
439.1540, 8797.000
440.3430, 8911.000
441.5310, 8836.000
442.7190, 8808.000
443.9080, 8802.000
445.0960, 8821.000
446.2830, 8790.132
447.4710, 8799.587
448.6590, 8747.000
449.8460, 8733.000
451.0330, 8694.000
452.2200, 8523.000
453.4070, 8548.000
454.5940, 8644.000
455.7800, 8515.000
456.9670, 8565.000
458.1530, 8625.000
459.3390, 8428.000
460.5250, 8456.000
461.7110, 8389.000
462.8970, 8383.000
464.0820, 8400.000
465.2680, 8475.000
466.4530, 8608.000
467.6380, 8650.000
468.8230, 8761.000
470.0080, 8769.371
471.1920, 8764.709
472.3770, 8728.000
473.5610, 8696.000
474.7450, 8587.000
475.9290, 8546.000
477.1130, 8507.000
478.2970, 8521.000
479.4800, 8474.000
480.6640, 8398.000
481.8470, 8438.000
483.0300, 8389.476
484.2130, 8451.000
485.3960, 8387.000
486.5780, 8459.000
487.7610, 8510.000
488.9430, 8700.000
490.1250, 8703.000
491.3070, 8804.000
492.4890, 9023.000
493.6710, 9289.000
494.8520, 9360.000
496.0340, 9424.000
497.2150, 9491.000
498.3960, 9660.000
499.5770, 9696.000
500.7570, 9666.000
501.9380, 9917.000
503.1180, 10212.00
504.2990, 10476.00
505.4790, 11120.00
506.6590, 11644.00
507.8390, 12174.00
509.0180, 12804.00
510.1980, 13600.00
511.3770, 14459.00
512.5560, 15054.00
513.7360, 15749.00
514.9140, 15914.00
516.0930, 15927.00
517.2720, 15791.00
518.4500, 15365.00
519.6290, 14734.00
520.8070, 13879.00
521.9850, 13046.00
523.1620, 12434.00
524.3400, 12055.00
525.5180, 11805.00
526.6950, 11211.00
527.8720, 10358.00
529.0490, 10241.71
530.2260, 10212.13
531.4030, 10092.60
532.5790, 9889.074
533.7560, 9296.897
534.9320, 9246.319
536.1080, 9003.103
537.2840, 8768.627
538.4600, 8843.896
539.6360, 8397.763
540.8110, 8503.218
541.9860, 8412.784
543.1620, 8437.212
544.3370, 8267.740
545.5120, 8180.865
546.6860, 8322.725
547.8610, 8364.839
549.0350, 8240.351
550.2090, 8211.647
551.3840, 8228.854
552.5580, 8368.000
553.7310, 8436.000
554.9050, 8360.000
556.0780, 8458.000
557.2520, 8420.000
558.4250, 8461.000
559.5980, 8449.000
560.7710, 8485.000
561.9430, 8501.279
563.1160, 8580.000
564.2880, 8523.000
565.4610, 8556.000
566.6330, 8529.000
567.8050, 8568.000
568.9760, 8804.000
570.1480, 8735.000
571.3200, 8840.000
572.4910, 8626.000
573.6620, 8817.000
574.8330, 8690.000
576.0040, 8688.000
577.1740, 8621.000
578.3450, 8482.000
579.5150, 8608.000
580.6860, 8466.000
581.8560, 8509.000
583.0260, 8489.000
584.1950, 8382.000
585.3650, 8431.000
586.5340, 8357.000
587.7040, 8232.000
588.8730, 8226.000
590.0420, 8093.000
591.2110, 8135.000
592.3790, 8107.000
593.5480, 8246.000
594.7160, 8169.000
595.8840, 8146.000
597.0520, 8149.000
598.2200, 8153.000
599.3880, 8158.000
600.5550, 8173.000
601.7230, 8327.000
602.8900, 8394.000
604.0570, 8466.000
605.2240, 8476.000
606.3910, 8466.000
607.5580, 8519.000
608.7240, 8532.000
609.8900, 8738.000
611.0570, 8711.000
612.2230, 8754.000
613.3880, 8923.000
614.5540, 8954.000
615.7200, 9062.000
616.8850, 9093.000
618.0500, 9259.000
619.2150, 9371.000
620.3800, 9477.000
621.5450, 9578.000
622.7100, 9782.000
623.8740, 9915.000
625.0380, 9835.000
626.2020, 10262.00
627.3660, 10314.00
628.5300, 10624.00
629.6940, 10826.00
630.8570, 10946.00
632.0210, 11062.00
633.1840, 11485.00
634.3470, 11760.00
635.5100, 12209.00
636.6730, 12612.00
637.8350, 12958.30
638.9980, 13389.00
640.1600, 13780.00
641.3220, 14291.00
642.4840, 14870.00
643.6460, 15637.00
644.8070, 16269.00
645.9690, 17398.00
647.1300, 18256.00
648.2910, 19762.00
649.4520, 21236.00
650.6130, 23258.00
651.7740, 25534.00
652.9340, 28487.00
654.0950, 32109.00
655.2550, 36798.00
656.4150, 42895.00
657.5750, 50359.00
658.7350, 59814.53
659.8940, 70450.00
661.0540, 83462.00
662.2130, 98099.00
663.3720, 114387.0
664.5310, 131406.0
665.6900, 147259.0
666.8490, 161835.0
668.0070, 171986.0
669.1650, 176611.0
670.3240, 175859.0
671.4820, 166808.0
672.6400, 153747.0
673.7970, 136266.0
674.9550, 119193.0
676.1120, 103268.0
677.2690, 88945.00
678.4270, 77173.00
679.5830, 67946.00
680.7400, 60405.00
681.8970, 53468.00
683.0530, 47808.00
684.2100, 42202.00
685.3660, 37391.00
686.5220, 32954.00
687.6780, 28795.00
688.8330, 25669.00
689.9890, 22704.00
691.1440, 20584.00
692.2990, 18893.00
693.4540, 17664.00
694.6090, 16363.00
695.7640, 15662.00
696.9180, 14851.00
698.0730, 14173.00
699.2270, 14043.00
700.3810, 13592.00
701.5350, 13473.00
702.6890, 13499.00
703.8430, 13747.00
704.9960, 13975.00
706.1490, 14397.00
707.3030, 15018.00
708.4560, 15818.00
709.6080, 16744.00
710.7610, 17984.00
711.9140, 19062.00
713.0660, 20109.00
714.2180, 20811.00
715.3700, 21476.00
716.5220, 21271.00
717.6740, 20659.00
718.8250, 19530.00
719.9770, 18068.00
721.1280, 16761.00
722.2790, 15140.00
723.4300, 14166.00
724.5810, 13358.00
725.7320, 12574.00
726.8820, 11875.00
728.0320, 11683.00
729.1830, 11328.00
730.3330, 11111.00
731.4820, 10882.00
732.6320, 10862.00
733.7820, 10855.00
734.9310, 10664.00
736.0800, 10512.00
737.2290, 10594.00
738.3780, 10616.00
739.5270, 10511.00
740.6750, 10409.00
741.8240, 10373.00
742.9720, 10168.00
744.1200, 10070.03
745.2680, 10027.00
746.4160, 9765.000
747.5640, 9606.000
748.7110, 9426.000
749.8580, 9383.000
751.0060, 9174.365
752.1530, 9116.000
753.2990, 8899.000
754.4460, 8878.000
755.5930, 8885.000
756.7390, 8876.000
757.8850, 8838.342
759.0310, 8844.000
760.1770, 8747.000
761.3230, 8712.000
762.4690, 8642.000
763.6140, 8657.000
764.7590, 8674.000
765.9040, 8741.000
767.0490, 8580.000
768.1940, 8559.000
769.3390, 8599.000
770.4830, 8586.000
771.6270, 8535.000
772.7720, 8601.000
773.9160, 8558.000
775.0590, 8610.000
776.2030, 8556.000
777.3470, 8545.676
778.4900, 8450.000
779.6330, 8503.000
780.7760, 8529.000
781.9190, 8531.000
783.0620, 8571.000
784.2040, 8605.979
785.3470, 8608.957
786.4890, 8660.000
787.6310, 8610.000
788.7730, 8551.000
789.9150, 8509.000
791.0570, 8557.000
792.1980, 8584.000
793.3390, 8558.000
794.4810, 8635.000
795.6210, 8609.000
796.7620, 8693.000
797.9030, 8691.000
799.0430, 8584.000
800.1840, 8521.000
801.3240, 8768.000
802.4640, 8672.000
803.6040, 8799.000
804.7440, 8705.000
805.8830, 8709.000
807.0230, 8761.000
808.1620, 8682.000
809.3010, 8749.000
810.4400, 8824.000
811.5790, 8799.000
812.7170, 8840.000
813.8560, 8734.000
814.9940, 8796.000
816.1320, 8657.000
817.2700, 8863.000
818.4080, 8794.000
819.5460, 8808.000
820.6830, 8746.000
821.8200, 8851.000
822.9580, 8696.000
824.0950, 8717.000
825.2310, 8690.000
826.3680, 8625.000
827.5050, 8730.000
828.6410, 8740.000
829.7770, 8828.000
830.9130, 8816.000
832.0490, 8797.000
833.1850, 8835.000
834.3210, 8771.000
835.4560, 8680.000
836.5910, 8879.000
837.7260, 8716.000
838.8610, 8749.000
839.9960, 8757.000
841.1310, 8791.000
842.2650, 8829.000
843.4000, 8858.391
844.5340, 8972.000
845.6680, 8914.951
846.8010, 8919.000
847.9350, 8898.604
849.0690, 8986.000
850.2020, 8913.000
851.3350, 8922.000
852.4680, 9043.000
853.6010, 9189.000
854.7340, 9120.000
855.8660, 9123.000
856.9990, 9165.000
858.1310, 9269.000
859.2630, 9363.000
860.3950, 9464.000
861.5270, 9354.000
862.6580, 9532.000
863.7900, 9854.000
864.9210, 10162.00
866.0520, 10467.00
867.1830, 10768.00
868.3140, 11116.00
869.4450, 11695.00
870.5750, 12017.00
871.7060, 12709.00
872.8360, 13082.00
873.9660, 13415.00
875.0960, 13914.00
876.2250, 13891.00
877.3550, 13784.00
878.4840, 13763.00
879.6130, 13440.00
880.7420, 13115.00
881.8710, 13043.00
883.0000, 12633.00
884.1290, 12311.00
885.2570, 12320.00
886.3850, 12035.00
887.5130, 12049.00
888.6410, 11792.00
889.7690, 11679.00
890.8970, 11697.00
892.0240, 11630.00
893.1510, 11370.00
894.2790, 11066.00
895.4050, 11030.00
896.5320, 10869.00
897.6590, 10712.00
898.7850, 10616.00
899.9120, 10678.00
901.0380, 10566.00
902.1640, 10735.00
903.2900, 10739.00
904.4150, 10707.00
905.5410, 10731.00
906.6660, 11151.00
907.7920, 11191.00
908.9170, 11352.00
910.0420, 11671.00
911.1660, 11810.00
912.2910, 12157.00
913.4150, 12488.00
914.5400, 12686.00
915.6640, 12846.00
916.7880, 12959.00
917.9110, 12875.00
919.0350, 12740.00
920.1580, 12736.00
921.2820, 12615.00
922.4050, 12539.00
923.5280, 12244.00
924.6510, 12134.00
925.7730, 11976.00
926.8960, 12053.00
928.0180, 12166.00
929.1400, 12056.00
930.2620, 12178.00
931.3840, 12308.00
932.5060, 12732.00
933.6270, 13002.00
934.7490, 13295.00
935.8700, 13515.00
936.9910, 13780.00
938.1120, 13931.00
939.2330, 14018.00
940.3530, 14071.00
941.4740, 13691.00
942.5940, 13505.00
943.7140, 13107.00
944.8340, 13120.00
945.9540, 13004.00
947.0730, 13002.00
948.1930, 13043.00
949.3120, 13209.00
950.4310, 13296.00
951.5500, 13714.00
952.6690, 13895.00
953.7870, 14412.00
954.9060, 14754.00
956.0240, 15434.00
957.1420, 15958.00
958.2600, 16964.00
959.3780, 18025.00
960.4960, 19358.00
961.6130, 21368.00
962.7310, 23820.00
963.8480, 26767.00
964.9650, 30066.00
966.0820, 34683.00
967.1990, 40432.00
968.3150, 46496.00
969.4310, 53716.00
970.5480, 60887.00
971.6640, 67185.00
972.7800, 72594.00
973.8950, 74872.00
975.0110, 75652.00
976.1260, 72710.00
977.2420, 68568.00
978.3570, 63736.00
979.4720, 58819.00
980.5870, 54685.00
981.7010, 52313.00
982.8160, 50719.00
983.9300, 50625.00
985.0440, 51796.00
986.1580, 54098.00
987.2720, 57836.00
988.3860, 61575.00
989.4990, 66676.00
990.6120, 71221.00
991.7260, 74964.00
992.8390, 77969.00
993.9510, 78633.00
995.0640, 77605.00
996.1770, 77866.10
997.2890, 77294.52
998.4010, 78976.93
999.5130, 82931.80
1000.625, 82794.00
1001.737, 84697.00
1002.848, 85874.00
1003.960, 84928.00
1005.071, 81405.00
1006.182, 75740.00
1007.293, 68379.00
1008.404, 60141.00
1009.514, 52435.00
1010.625, 45888.00
1011.735, 40693.00
1012.845, 36123.00
1013.955, 33396.00
1015.065, 31203.00
1016.175, 29256.00
1017.284, 27713.00
1018.393, 26591.00
1019.503, 26244.00
1020.612, 25628.00
1021.720, 25052.00
1022.829, 24613.00
1023.937, 24528.00
1025.046, 24413.00
1026.154, 24352.00
1027.262, 24378.00
1028.370, 24187.00
1029.478, 23993.00
1030.585, 23858.00
1031.692, 23400.00
1032.800, 23133.00
1033.907, 22760.00
1035.014, 22503.00
1036.120, 22436.00
1037.227, 22362.00
1038.333, 22562.00
1039.440, 22974.00
1040.546, 23632.00
1041.652, 24536.00
1042.757, 25505.00
1043.863, 26930.00
1044.968, 28751.00
1046.074, 30012.00
1047.179, 31020.00
1048.284, 31434.00
1049.388, 31196.00
1050.493, 30345.00
1051.598, 28789.00
1052.702, 26920.00
1053.806, 24958.00
1054.910, 23054.00
1056.014, 21170.00
1057.117, 19616.00
1058.221, 17868.00
1059.324, 16663.00
1060.427, 15784.00
1061.530, 15247.00
1062.633, 14796.00
1063.736, 14245.29
1064.838, 14045.00
1065.941, 13459.00
1067.043, 13295.00
1068.145, 12980.00
1069.247, 12698.00
1070.349, 12808.00
1071.450, 12478.00
1072.552, 12404.00
1073.653, 12381.00
1074.754, 12279.00
1075.855, 12171.00
1076.955, 12234.00
1078.056, 12099.00
1079.156, 12095.00
1080.257, 12131.00
1081.357, 11881.00
1082.457, 11889.00
1083.557, 12005.00
1084.656, 11861.00
1085.756, 11852.00
1086.855, 11800.00
1087.954, 11788.00
1089.053, 11793.00
1090.152, 11883.00
1091.250, 11634.00
1092.349, 11475.00
1093.447, 11581.00
1094.545, 11635.00
1095.643, 11563.00
1096.741, 11355.00
1097.839, 11303.00
1098.936, 11288.00
1100.034, 11455.00
1101.131, 11460.00
1102.228, 11355.00
1103.325, 11571.00
1104.421, 11386.00
1105.518, 11320.00
1106.614, 11393.00
1107.710, 11494.00
1108.806, 11477.00
1109.902, 11500.00
1110.998, 11511.00
1112.094, 11418.00
1113.189, 11521.00
1114.284, 11439.00
1115.379, 11459.00
1116.474, 11542.00
1117.569, 11444.00
1118.664, 11473.00
1119.758, 11478.00
1120.852, 11467.00
1121.946, 11351.00
1123.040, 11331.00
1124.134, 11308.00
1125.228, 11299.00
1126.321, 11249.00
1127.414, 11161.00
1128.507, 11186.00
1129.600, 11324.00
1130.693, 11187.00
1131.786, 11448.00
1132.878, 11306.00
1133.971, 11247.00
1135.063, 11334.00
1136.155, 11383.00
1137.247, 11345.00
1138.338, 11281.00
1139.430, 11212.00
1140.521, 11301.00
1141.612, 11247.00
1142.703, 11314.00
1143.794, 11276.00
1144.885, 11271.00
1145.975, 11183.00
1147.066, 11300.00
1148.156, 11270.00
1149.246, 11179.00
1150.336, 11294.00
1151.425, 11198.00
1152.515, 11324.00
1153.604, 11400.00
1154.693, 11294.00
1155.783, 11334.00
1156.871, 11297.00
1157.960, 11286.00
1159.049, 11355.00
1160.137, 11312.00
1161.225, 11186.00
1162.313, 11209.00
1163.401, 11200.00
1164.489, 11149.00
1165.577, 11139.00
1166.664, 11135.00
1167.751, 11071.00
1168.838, 11187.00
1169.925, 11164.00
1171.012, 11089.00
1172.099, 11014.00
1173.185, 11009.44
1174.272, 11110.00
1175.358, 10987.00
1176.444, 10994.00
1177.529, 10992.00
1178.615, 10896.00
1179.700, 10972.00
1180.786, 10947.00
1181.871, 10919.00
1182.956, 10945.00
1184.041, 10850.00
1185.125, 10902.00
1186.210, 10993.00
1187.294, 10946.00
1188.378, 11008.00
1189.462, 10848.00
1190.546, 10828.00
1191.630, 10993.00
1192.713, 10869.00
1193.797, 10909.00
1194.880, 10891.00
1195.963, 10985.00
1197.046, 10964.00
1198.129, 11019.00
1199.211, 11019.12
1200.293, 11013.00
1201.376, 11022.00
1202.458, 11009.26
1203.540, 10985.00
1204.621, 10988.00
1205.703, 11026.00
1206.784, 11016.96
1207.865, 11002.00
1208.947, 10992.00
1210.027, 10971.00
1211.108, 10938.00
1212.189, 11123.00
1213.269, 11147.00
1214.349, 11191.00
1215.430, 11100.00
1216.509, 11082.00
1217.589, 11205.00
1218.669, 11166.00
1219.748, 11196.00
1220.827, 11196.00
1221.907, 11214.00
1222.986, 11142.00
1224.064, 11070.00
1225.143, 11056.00
1226.221, 11115.00
1227.300, 11330.00
1228.378, 11100.00
1229.456, 11268.00
1230.534, 11233.00
1231.611, 11089.00
1232.689, 11351.00
1233.766, 11312.00
1234.843, 11293.00
1235.920, 11379.00
1236.997, 11333.00
1238.074, 11299.00
1239.150, 11190.00
1240.226, 11312.00
1241.303, 11270.00
1242.379, 11284.00
1243.454, 11311.00
1244.530, 11348.00
1245.606, 11411.00
1246.681, 11319.00
1247.756, 11407.00
1248.831, 11290.00
1249.906, 11554.00
1250.981, 11362.00
1252.055, 11398.00
1253.130, 11635.00
1254.204, 11462.00
1255.278, 11552.00
1256.352, 11428.00
1257.425, 11413.00
1258.499, 11435.00
1259.572, 11407.99
1260.646, 11536.00
1261.719, 11447.00
1262.791, 11576.00
1263.864, 11596.00
1264.937, 11569.00
1266.009, 11537.00
1267.081, 11554.00
1268.153, 11575.89
1269.225, 11591.00
1270.297, 11649.00
1271.369, 11640.00
1272.440, 11635.00
1273.511, 11684.00
1274.582, 11644.00
1275.653, 11769.00
1276.724, 11762.00
1277.795, 11782.00
1278.865, 11739.00
1279.935, 11802.00
1281.006, 11844.00
1282.076, 11936.00
1283.145, 11783.00
1284.215, 11832.00
1285.284, 11745.00
1286.354, 12041.00
1287.423, 11989.00
1288.492, 11973.00
1289.561, 12026.00
1290.629, 12009.00
1291.698, 12018.00
1292.766, 12100.00
1293.834, 12108.00
1294.902, 11948.00
1295.970, 11983.00
1297.037, 12148.00
1298.105, 11930.00
1299.172, 12035.00
1300.239, 12209.00
1301.306, 12005.00
1302.373, 12156.00
1303.440, 11976.00
1304.506, 12130.00
1305.573, 12241.00
1306.639, 12035.00
1307.705, 12096.00
1308.771, 12189.00
1309.836, 12015.00
1310.902, 12218.00
1311.967, 12358.00
1313.033, 12237.00
1314.098, 12221.00
1315.162, 12292.00
1316.227, 12270.00
1317.292, 12312.00
1318.356, 12283.00
1319.420, 12310.00
1320.484, 12294.00
1321.548, 12349.00
1322.612, 12329.00
1323.675, 12488.00
1324.739, 12405.00
1325.802, 12457.00
1326.865, 12545.00
1327.928, 12544.00
1328.991, 12646.00
1330.053, 12483.00
1331.116, 12533.00
1332.178, 12455.00
1333.240, 12449.00
1334.302, 12531.00
1335.363, 12599.00
1336.425, 12699.00
1337.486, 12599.00
1338.548, 12641.00
1339.609, 12832.00
1340.670, 12684.00
1341.730, 12700.00
1342.791, 12642.00
1343.851, 12706.00
1344.912, 12736.00
1345.972, 12750.00
1347.032, 12871.00
1348.091, 12729.00
1349.151, 12829.00
1350.210, 12730.00
1351.270, 12861.00
1352.329, 12903.00
1353.388, 12814.00
1354.447, 12756.00
1355.505, 12840.00
1356.564, 12791.34
1357.622, 12877.00
1358.680, 12789.00
1359.738, 12866.00
1360.796, 12799.00
1361.853, 12869.00
1362.911, 13006.00
1363.968, 12910.00
1365.025, 12941.00
1366.082, 12980.00
1367.139, 13074.00
1368.196, 12727.00
1369.252, 12951.00
1370.308, 12941.00
1371.365, 12887.00
1372.421, 13005.00
1373.476, 13056.00
1374.532, 12941.00
1375.588, 13114.00
1376.643, 13105.00
1377.698, 13135.00
1378.753, 13181.00
1379.808, 13130.00
1380.862, 13125.34
1381.917, 13131.00
1382.971, 13033.00
1384.025, 13070.00
1385.079, 13011.00
1386.133, 13185.00
1387.187, 13094.00
1388.240, 13346.00
1389.294, 13239.00
1390.347, 13155.00
1391.400, 13347.00
1392.453, 13203.00
1393.506, 13170.00
1394.558, 13243.00
1395.610, 13216.00
1396.663, 13325.00
1397.715, 13303.74
1398.766, 13177.00
1399.818, 13323.00
1400.870, 13284.00
1401.921, 13347.00
1402.972, 13442.00
1404.023, 13290.00
1405.074, 13369.00
1406.125, 13514.00
1407.175, 13446.00
1408.226, 13384.00
1409.276, 13492.00
1410.326, 13618.00
1411.376, 13586.00
1412.426, 13646.82
1413.475, 13424.00
1414.525, 13612.00
1415.574, 13534.00
1416.623, 13435.00
1417.672, 13563.00
1418.720, 13608.00
1419.769, 13609.00
1420.817, 13690.95
1421.866, 13705.22
1422.914, 13755.00
1423.962, 13734.00
1425.009, 13715.00
1426.057, 13653.00
1427.104, 13691.00
1428.152, 13658.23
1429.199, 13589.00
1430.246, 13662.00
1431.292, 13675.00
1432.339, 13714.00
1433.385, 13844.00
1434.431, 13862.00
1435.478, 13848.00
1436.523, 13809.00
1437.569, 13770.00
1438.615, 13837.00
1439.660, 13884.00
1440.706, 13794.00
1441.751, 13849.91
1442.796, 13746.00
1443.840, 13871.00
1444.885, 13905.00
1445.929, 13965.00
1446.974, 13934.00
1448.018, 13789.00
1449.062, 14063.00
1450.105, 14224.00
1451.149, 14051.00
1452.192, 14103.00
1453.236, 13938.00
1454.279, 14022.00
1455.322, 14061.00
1456.365, 14050.00
1457.407, 14223.00
1458.450, 14157.00
1459.492, 14289.00
1460.534, 14200.00
1461.576, 14264.00
1462.618, 14184.00
1463.659, 14502.00
1464.701, 14360.00
1465.742, 14454.00
1466.783, 14306.00
1467.824, 14434.00
1468.865, 14397.00
1469.906, 14215.00
1470.946, 14240.00
1471.986, 14362.00
1473.026, 14475.00
1474.066, 14561.00
1475.106, 14556.00
1476.146, 14528.00
1477.185, 14634.00
1478.225, 14514.00
1479.264, 14417.00
1480.303, 14548.00
1481.342, 14450.00
1482.380, 14503.00
1483.419, 14596.00
1484.457, 14669.00
1485.495, 14673.00
1486.533, 14690.00
1487.571, 14537.00
1488.609, 14554.00
1489.646, 14367.00
1490.683, 14428.00
1491.721, 14537.00
1492.758, 14713.00
1493.794, 14460.00
1494.831, 14594.00
1495.868, 14699.00
1496.904, 14440.00
1497.940, 14641.00
1498.976, 14646.00
1500.012, 14728.00
1501.047, 14540.00
1502.083, 14653.00
1503.118, 14688.00
1504.153, 14670.00
1505.188, 14676.00
1506.223, 14716.03
1507.258, 14751.56
1508.292, 14812.00
1509.327, 14813.00
1510.361, 14838.56
1511.395, 14806.00
1512.429, 14859.00
1513.462, 14854.00
1514.496, 14875.00
1515.529, 14843.00
1516.563, 14861.26
1517.596, 14911.00
1518.628, 14871.00
1519.661, 15046.00
1520.694, 15056.00
1521.726, 15054.00
1522.758, 15038.00
1523.790, 15060.00
1524.822, 14971.00
1525.854, 15210.00
1526.885, 15167.00
1527.917, 15164.00
1528.948, 15045.00
1529.979, 15160.00
1531.010, 15048.00
1532.040, 15211.00
1533.071, 15185.00
1534.101, 15173.00
1535.131, 15204.00
1536.161, 15320.00
1537.191, 15410.00
1538.221, 15409.00
1539.250, 15337.00
1540.280, 15354.00
1541.309, 15336.00
1542.338, 15320.00
1543.367, 15415.00
1544.396, 15333.00
1545.424, 15375.00
1546.453, 15428.00
1547.481, 15598.00
1548.509, 15411.72
1549.537, 15579.49
1550.564, 15681.18
1551.592, 15720.38
1552.619, 15509.83
1553.646, 15621.75
1554.673, 15604.45
1555.700, 15581.84
1556.727, 15739.16
1557.754, 15564.92
1558.780, 15719.37
1559.806, 15742.61
1560.832, 15825.90
1561.858, 15779.15
1562.884, 15772.57
1563.909, 15896.05
1564.935, 15947.52
1565.960, 15885.78
1566.985, 15972.87
1568.010, 15794.06
1569.035, 15848.58
1570.059, 16003.76
1571.084, 15948.57
1572.108, 16038.02
1573.132, 16072.37
1574.156, 15856.34
1575.179, 16075.74
1576.203, 16106.84
1577.226, 15944.56
1578.250, 16149.06
1579.273, 16013.44
##END=



