##NAMES=Rhodonite
##RRUFFID=R060549
##IDEAL CHEMISTRY=CaMn^2+^_3_Mn^2+^Si_5_O_15_
##LOCALITY=unknown
##OWNER=RRUFF
##SOURCE=Gemological Institute of America
##DESCRIPTION=Pink cleavage fragment
##STATUS=The identification of this mineral has been confirmed by X-ray diffraction and chemical analysis
##URL=rruff.info/R060549
##MEASURED CHEMISTRY=(Mn_0.76_Ca_0.12_Fe_0.07_Mg_0.06_)Si_0.99_O_3_
##PIN_ID=L00779
##ORIENTATION=Laser parallel to (0 1 1). Fiducial mark perpendicular to laser is parallel to a [1 0 0]
82.15000, 4122.000
83.38800, 4307.000
84.62600, 4581.000
85.86300, 4824.000
87.10100, 5055.000
88.33800, 5349.000
89.57500, 5624.000
90.81200, 6038.000
92.04900, 6486.000
93.28600, 7023.000
94.52300, 7395.000
95.75900, 7798.000
96.99500, 8051.000
98.23100, 8136.904
99.46700, 8094.629
100.7030, 8031.255
101.9390, 7947.915
103.1740, 7750.137
104.4090, 7565.575
105.6440, 7369.000
106.8790, 7674.000
108.1140, 8386.000
109.3490, 9064.000
110.5830, 10047.00
111.8180, 10979.00
113.0520, 11865.00
114.2860, 12255.00
115.5200, 12450.00
116.7530, 12374.00
117.9870, 12006.00
119.2200, 11553.00
120.4530, 11102.00
121.6860, 10707.00
122.9190, 10339.00
124.1520, 9974.000
125.3850, 9684.000
126.6170, 9210.000
127.8490, 8759.000
129.0810, 8607.000
130.3130, 8452.000
131.5450, 8194.000
132.7770, 8135.000
134.0080, 8166.000
135.2390, 8093.000
136.4710, 7983.000
137.7020, 7901.000
138.9320, 7716.000
140.1630, 7826.000
141.3930, 7603.000
142.6240, 7480.000
143.8540, 7146.000
145.0840, 6978.000
146.3140, 6799.000
147.5440, 6712.000
148.7730, 6628.000
150.0020, 6578.000
151.2320, 6470.000
152.4610, 6587.000
153.6900, 6642.000
154.9180, 6680.000
156.1470, 6877.000
157.3750, 6946.000
158.6040, 7087.000
159.8320, 7219.000
161.0600, 7377.000
162.2870, 7404.000
163.5150, 7670.000
164.7420, 7789.000
165.9700, 7804.000
167.1970, 7753.000
168.4240, 7784.000
169.6510, 7584.000
170.8770, 7490.000
172.1040, 7365.000
173.3300, 7329.000
174.5560, 7066.000
175.7820, 7047.000
177.0080, 6941.000
178.2340, 6899.000
179.4590, 6884.000
180.6850, 6871.000
181.9100, 6760.000
183.1350, 6672.000
184.3600, 6607.000
185.5850, 6528.000
186.8090, 6421.000
188.0340, 6438.000
189.2580, 6352.000
190.4820, 6256.000
191.7060, 6317.000
192.9300, 6210.000
194.1530, 6248.000
195.3770, 6349.000
196.6000, 6422.000
197.8230, 6514.000
199.0460, 6386.000
200.2690, 6367.000
201.4910, 6420.000
202.7140, 6459.000
203.9360, 6585.000
205.1580, 6520.000
206.3800, 6571.000
207.6020, 6695.000
208.8240, 6707.000
210.0450, 6776.000
211.2670, 6809.000
212.4880, 6817.057
213.7090, 6915.000
214.9300, 6845.000
216.1510, 6851.000
217.3710, 6899.000
218.5920, 6761.000
219.8120, 6812.000
221.0320, 6777.000
222.2520, 6709.000
223.4720, 6712.000
224.6910, 6717.000
225.9110, 6714.000
227.1300, 6643.000
228.3490, 6806.000
229.5680, 6813.000
230.7870, 6735.000
232.0050, 6823.000
233.2240, 6759.000
234.4420, 6826.000
235.6600, 6813.000
236.8780, 6944.000
238.0960, 6919.000
239.3140, 7156.000
240.5310, 7177.000
241.7490, 7285.000
242.9660, 7472.000
244.1830, 7488.000
245.4000, 7645.000
246.6160, 7827.000
247.8330, 7960.000
249.0490, 8144.000
250.2660, 8290.000
251.4820, 8383.000
252.6980, 8609.000
253.9130, 8870.000
255.1290, 8877.000
256.3440, 9059.000
257.5600, 9180.000
258.7750, 9546.000
259.9900, 9845.000
261.2040, 10100.00
262.4190, 10445.00
263.6330, 10677.00
264.8480, 10808.00
266.0620, 10883.00
267.2760, 10756.00
268.4900, 10543.00
269.7030, 10376.00
270.9170, 9885.000
272.1300, 9639.000
273.3430, 9501.000
274.5560, 9207.000
275.7690, 9101.000
276.9820, 8800.000
278.1940, 8715.000
279.4070, 8578.000
280.6190, 8424.000
281.8310, 8253.000
283.0430, 8198.000
284.2550, 8193.000
285.4660, 7758.000
286.6770, 7572.000
287.8890, 7532.000
289.1000, 7387.000
290.3110, 7243.000
291.5210, 7094.000
292.7320, 7035.000
293.9420, 7015.000
295.1530, 7081.000
296.3630, 7068.000
297.5730, 7056.000
298.7830, 7043.000
299.9920, 7048.544
301.2020, 7084.000
302.4110, 7047.000
303.6200, 7057.000
304.8290, 7020.000
306.0380, 7102.000
307.2470, 7055.000
308.4550, 7119.000
309.6630, 7101.000
310.8720, 7251.000
312.0800, 7293.000
313.2880, 7438.000
314.4950, 7562.000
315.7030, 7736.000
316.9100, 7908.000
318.1170, 8434.000
319.3240, 8688.000
320.5310, 9022.000
321.7380, 9548.000
322.9450, 9929.000
324.1510, 10272.00
325.3570, 10663.00
326.5630, 10903.00
327.7690, 11148.00
328.9750, 11172.00
330.1810, 11125.00
331.3860, 11119.00
332.5910, 11139.00
333.7960, 11304.00
335.0010, 11247.00
336.2060, 11201.00
337.4110, 11047.00
338.6150, 11028.00
339.8200, 10454.00
341.0240, 10249.00
342.2280, 10027.00
343.4320, 9815.000
344.6350, 9581.000
345.8390, 9404.000
347.0420, 9411.000
348.2450, 9360.000
349.4480, 9222.000
350.6510, 9153.788
351.8540, 9023.684
353.0560, 8879.000
354.2590, 8706.000
355.4610, 8498.000
356.6630, 8219.000
357.8650, 8110.000
359.0670, 7936.000
360.2680, 7770.000
361.4700, 7759.000
362.6710, 7612.000
363.8720, 7524.000
365.0730, 7577.000
366.2740, 7507.000
367.4740, 7619.000
368.6750, 7561.000
369.8750, 7574.000
371.0750, 7427.000
372.2750, 7423.000
373.4750, 7405.000
374.6740, 7375.000
375.8740, 7246.000
377.0730, 7305.000
378.2720, 7172.000
379.4710, 7157.000
380.6700, 7223.000
381.8690, 7372.000
383.0670, 7416.000
384.2660, 7442.000
385.4640, 7592.000
386.6620, 7549.000
387.8600, 7689.000
389.0570, 7793.000
390.2550, 7814.000
391.4520, 7846.000
392.6490, 7776.000
393.8460, 7702.000
395.0430, 7553.000
396.2400, 7457.000
397.4370, 7329.000
398.6330, 7216.000
399.8290, 7257.000
401.0250, 7209.000
402.2210, 7310.000
403.4170, 7221.000
404.6130, 7436.000
405.8080, 7457.000
407.0030, 7775.000
408.1980, 7738.000
409.3930, 8004.000
410.5880, 8013.000
411.7830, 8238.000
412.9770, 8424.000
414.1720, 8580.000
415.3660, 8884.000
416.5600, 9017.000
417.7530, 9360.000
418.9470, 9617.000
420.1410, 10020.00
421.3340, 10086.00
422.5270, 9953.000
423.7200, 9735.000
424.9130, 9444.000
426.1060, 9082.000
427.2980, 8752.000
428.4900, 8412.000
429.6830, 8173.000
430.8750, 7860.000
432.0670, 7674.000
433.2580, 7477.000
434.4500, 7344.000
435.6410, 7376.000
436.8320, 7247.000
438.0240, 7266.000
439.2140, 7151.000
440.4050, 7229.000
441.5960, 7195.000
442.7860, 7181.000
443.9760, 7179.000
445.1670, 7197.000
446.3560, 7298.000
447.5460, 7260.000
448.7360, 7392.000
449.9250, 7457.000
451.1150, 7504.000
452.3040, 7569.000
453.4930, 7571.000
454.6810, 7635.000
455.8700, 7536.000
457.0590, 7617.000
458.2470, 7618.000
459.4350, 7463.000
460.6230, 7498.000
461.8110, 7391.000
462.9980, 7279.000
464.1860, 7440.000
465.3730, 7316.000
466.5600, 7243.000
467.7470, 7245.000
468.9340, 7219.000
470.1210, 7141.000
471.3080, 7140.000
472.4940, 7168.000
473.6800, 7068.000
474.8660, 7084.000
476.0520, 7127.000
477.2380, 7007.000
478.4230, 7058.000
479.6090, 6980.000
480.7940, 6935.000
481.9790, 6824.000
483.1640, 6850.000
484.3490, 6833.000
485.5330, 6837.522
486.7180, 6873.294
487.9020, 6921.000
489.0860, 6925.000
490.2700, 7008.000
491.4540, 6994.000
492.6370, 7086.000
493.8210, 7064.000
495.0040, 7132.000
496.1870, 7180.000
497.3700, 7292.000
498.5530, 7359.000
499.7360, 7360.000
500.9180, 7431.199
502.1000, 7325.000
503.2830, 7536.000
504.4650, 7575.000
505.6460, 7714.000
506.8280, 8012.000
508.0100, 8122.000
509.1910, 8362.000
510.3720, 8517.000
511.5530, 8608.000
512.7340, 8586.000
513.9150, 8452.000
515.0950, 8347.000
516.2760, 8097.000
517.4560, 7942.000
518.6360, 7740.000
519.8160, 7666.000
520.9950, 7436.000
522.1750, 7468.000
523.3540, 7464.000
524.5340, 7327.000
525.7130, 7166.000
526.8920, 7190.000
528.0700, 7087.000
529.2490, 7064.000
530.4270, 7154.000
531.6060, 7148.000
532.7840, 7190.000
533.9620, 7202.000
535.1390, 7193.000
536.3170, 7191.000
537.4940, 7205.000
538.6720, 7259.000
539.8490, 7328.000
541.0260, 7354.000
542.2030, 7365.000
543.3790, 7650.000
544.5560, 7686.000
545.7320, 7696.000
546.9080, 7671.000
548.0840, 7694.000
549.2600, 7817.000
550.4360, 7967.000
551.6110, 7901.000
552.7860, 8069.000
553.9620, 8310.000
555.1370, 8444.000
556.3110, 8715.000
557.4860, 8917.000
558.6610, 9064.000
559.8350, 8917.000
561.0090, 8961.000
562.1830, 8605.000
563.3570, 8457.000
564.5310, 8230.000
565.7040, 8177.000
566.8780, 7992.000
568.0510, 7872.000
569.2240, 7707.000
570.3970, 7785.000
571.5700, 7806.000
572.7420, 7790.000
573.9150, 7747.000
575.0870, 7740.000
576.2590, 7676.000
577.4310, 7646.000
578.6030, 7589.000
579.7740, 7539.000
580.9460, 7522.000
582.1170, 7516.000
583.2880, 7422.000
584.4590, 7561.000
585.6300, 7436.000
586.8010, 7485.000
587.9710, 7390.000
589.1410, 7455.000
590.3110, 7309.000
591.4810, 7305.000
592.6510, 7415.000
593.8210, 7383.000
594.9900, 7367.000
596.1600, 7454.000
597.3290, 7447.000
598.4980, 7406.000
599.6670, 7269.000
600.8350, 7424.000
602.0040, 7404.000
603.1720, 7561.000
604.3400, 7499.000
605.5080, 7450.000
606.6760, 7621.000
607.8440, 7495.000
609.0120, 7604.000
610.1790, 7638.000
611.3460, 7567.000
612.5130, 7607.000
613.6800, 7708.000
614.8470, 7790.000
616.0130, 7731.000
617.1800, 7758.000
618.3460, 7813.000
619.5120, 7967.000
620.6780, 7872.000
621.8440, 7893.000
623.0090, 8013.000
624.1750, 8009.000
625.3400, 8179.000
626.5050, 8183.000
627.6700, 8229.000
628.8350, 8236.000
629.9990, 8463.000
631.1640, 8404.000
632.3280, 8454.000
633.4920, 8601.000
634.6560, 8585.000
635.8200, 8820.000
636.9840, 8966.000
638.1470, 9135.000
639.3100, 9265.000
640.4730, 9376.000
641.6360, 9566.000
642.7990, 9814.000
643.9620, 10071.00
645.1240, 10401.00
646.2870, 10791.00
647.4490, 11089.00
648.6110, 11572.00
649.7730, 12189.00
650.9340, 12856.00
652.0960, 13865.00
653.2570, 15057.00
654.4180, 16513.00
655.5790, 18330.00
656.7400, 20353.00
657.9010, 23402.00
659.0620, 26172.00
660.2220, 29253.00
661.3820, 32473.00
662.5420, 35275.00
663.7020, 38231.00
664.8620, 41088.00
666.0210, 43700.00
667.1810, 47099.00
668.3400, 50065.00
669.4990, 52280.00
670.6580, 53178.00
671.8170, 51977.00
672.9750, 48445.00
674.1340, 44548.00
675.2920, 39143.00
676.4500, 34894.00
677.6080, 30834.00
678.7660, 27643.00
679.9230, 25038.00
681.0810, 22718.00
682.2380, 20829.00
683.3950, 19038.00
684.5520, 17383.00
685.7090, 16171.00
686.8660, 14697.00
688.0220, 13902.00
689.1780, 12821.00
690.3340, 12154.00
691.4900, 11673.00
692.6460, 11196.00
693.8020, 10829.00
694.9570, 10528.00
696.1130, 10225.00
697.2680, 9993.537
698.4230, 9844.000
699.5780, 9656.000
700.7320, 9455.000
701.8870, 9426.000
703.0410, 9303.000
704.1950, 9268.000
705.3490, 9285.000
706.5030, 9222.000
707.6570, 9288.000
708.8110, 9216.000
709.9640, 9258.000
711.1170, 9265.000
712.2700, 9215.000
713.4230, 9291.000
714.5760, 9214.000
715.7280, 9261.000
716.8810, 9303.000
718.0330, 9125.000
719.1850, 9045.000
720.3370, 9083.000
721.4890, 9131.000
722.6400, 9045.000
723.7920, 8897.000
724.9430, 8828.000
726.0940, 8701.000
727.2450, 8677.000
728.3960, 8689.000
729.5460, 8636.000
730.6970, 8563.000
731.8470, 8482.000
732.9970, 8583.000
734.1470, 8496.000
735.2970, 8677.000
736.4460, 8615.000
737.5960, 8731.000
738.7450, 8737.000
739.8940, 8608.000
741.0430, 8654.000
742.1920, 8556.000
743.3410, 8649.000
744.4890, 8522.000
745.6370, 8470.000
746.7850, 8421.000
747.9330, 8345.000
749.0810, 8301.000
750.2290, 8248.032
751.3760, 8160.000
752.5240, 8163.000
753.6710, 8117.301
754.8180, 8095.000
755.9650, 8123.000
757.1110, 8086.000
758.2580, 8152.000
759.4040, 8179.000
760.5510, 8073.000
761.6970, 8103.000
762.8420, 8204.000
763.9880, 8109.000
765.1340, 8101.000
766.2790, 8014.000
767.4240, 8186.000
768.5690, 7983.000
769.7140, 8120.000
770.8590, 8162.000
772.0030, 8060.000
773.1480, 8198.000
774.2920, 8109.000
775.4360, 8146.000
776.5800, 8109.000
777.7240, 8121.000
778.8670, 8120.000
780.0110, 8109.141
781.1540, 8193.000
782.2970, 8139.000
783.4400, 8132.000
784.5830, 8220.000
785.7250, 8170.000
786.8680, 8159.000
788.0100, 8093.000
789.1520, 8255.000
790.2940, 8095.000
791.4360, 8104.000
792.5780, 8208.000
793.7190, 8129.000
794.8600, 8341.000
796.0010, 8298.000
797.1420, 8273.000
798.2830, 8193.000
799.4240, 8136.000
800.5640, 8151.680
801.7050, 8187.000
802.8450, 8225.000
803.9850, 8211.000
805.1250, 8325.000
806.2640, 8255.000
807.4040, 8290.000
808.5430, 8237.000
809.6820, 8320.000
810.8210, 8357.000
811.9600, 8313.000
813.0990, 8333.000
814.2370, 8332.000
815.3760, 8389.000
816.5140, 8394.000
817.6520, 8224.000
818.7900, 8480.000
819.9270, 8261.000
821.0650, 8406.000
822.2020, 8436.000
823.3390, 8337.000
824.4760, 8304.000
825.6130, 8314.000
826.7500, 8427.000
827.8870, 8339.000
829.0230, 8410.000
830.1590, 8450.000
831.2950, 8448.000
832.4310, 8437.000
833.5670, 8434.775
834.7030, 8409.000
835.8380, 8435.000
836.9730, 8422.000
838.1080, 8507.000
839.2430, 8546.000
840.3780, 8437.000
841.5130, 8622.000
842.6470, 8446.000
843.7810, 8453.000
844.9150, 8578.000
846.0490, 8532.000
847.1830, 8450.000
848.3170, 8696.000
849.4500, 8637.000
850.5830, 8517.000
851.7160, 8644.000
852.8490, 8686.000
853.9820, 8574.000
855.1150, 8572.000
856.2470, 8724.000
857.3800, 8562.000
858.5120, 8643.000
859.6440, 8689.000
860.7760, 8857.000
861.9070, 8762.000
863.0390, 8857.000
864.1700, 8877.000
865.3010, 8946.000
866.4320, 9027.077
867.5630, 8953.000
868.6940, 9143.000
869.8240, 9222.000
870.9540, 9177.000
872.0850, 9242.000
873.2150, 9542.000
874.3450, 9634.000
875.4740, 9940.000
876.6040, 10100.00
877.7330, 10290.00
878.8620, 10302.00
879.9910, 10411.00
881.1200, 10575.00
882.2490, 10524.00
883.3770, 10543.00
884.5060, 10468.00
885.6340, 10398.00
886.7620, 10246.00
887.8900, 10066.00
889.0180, 10007.00
890.1450, 9950.000
891.2730, 9805.000
892.4000, 9868.000
893.5270, 9921.000
894.6540, 9696.000
895.7810, 9782.000
896.9070, 9714.000
898.0340, 9845.000
899.1600, 9866.000
900.2860, 9830.000
901.4120, 9827.000
902.5380, 9867.000
903.6630, 9912.000
904.7890, 10005.00
905.9140, 9997.000
907.0390, 10105.99
908.1640, 10093.00
909.2890, 10189.00
910.4130, 10286.00
911.5380, 10122.00
912.6620, 10370.00
913.7860, 10307.00
914.9100, 10268.00
916.0340, 10334.00
917.1580, 10318.00
918.2810, 10324.00
919.4040, 10262.00
920.5280, 10259.00
921.6510, 10285.00
922.7730, 10101.00
923.8960, 10203.00
925.0180, 10105.00
926.1410, 10154.00
927.2630, 10203.00
928.3850, 10249.35
929.5070, 10370.00
930.6280, 10481.00
931.7500, 10648.00
932.8710, 10859.00
933.9920, 11131.00
935.1130, 11366.00
936.2340, 11737.00
937.3550, 12190.00
938.4760, 12517.00
939.5960, 12710.00
940.7160, 12871.00
941.8360, 12872.00
942.9560, 12616.00
944.0760, 12332.00
945.1950, 12131.00
946.3150, 11805.00
947.4340, 11566.00
948.5530, 11521.00
949.6720, 11307.00
950.7900, 11251.00
951.9090, 11421.00
953.0270, 11350.00
954.1460, 11450.00
955.2640, 11637.00
956.3820, 11764.00
957.4990, 12064.00
958.6170, 12381.00
959.7340, 12688.00
960.8520, 13092.00
961.9690, 13639.00
963.0860, 14509.00
964.2020, 15118.00
965.3190, 16326.00
966.4350, 17562.00
967.5520, 19112.00
968.6680, 21280.00
969.7840, 23498.00
970.8990, 26072.00
972.0150, 28851.00
973.1310, 31441.00
974.2460, 33910.00
975.3610, 35772.00
976.4760, 36585.00
977.5910, 36175.00
978.7050, 34802.00
979.8200, 32850.00
980.9340, 30887.00
982.0480, 29544.00
983.1620, 28403.00
984.2760, 28096.00
985.3900, 27735.00
986.5030, 27662.00
987.6160, 28049.00
988.7300, 28569.00
989.8430, 28436.00
990.9550, 28708.00
992.0680, 29173.00
993.1810, 29470.00
994.2930, 29936.00
995.4050, 30381.00
996.5170, 30919.00
997.6290, 31664.00
998.7410, 31955.00
999.8520, 32615.00
1000.964, 32468.00
1002.075, 32192.00
1003.186, 30923.00
1004.297, 29670.00
1005.407, 28087.00
1006.518, 26313.00
1007.628, 24550.00
1008.738, 22823.00
1009.848, 21167.00
1010.958, 19710.00
1012.068, 18516.00
1013.178, 17346.00
1014.287, 16424.00
1015.396, 15594.00
1016.505, 14821.00
1017.614, 14346.00
1018.723, 14033.00
1019.831, 13631.00
1020.940, 13347.86
1022.048, 13065.00
1023.156, 12922.00
1024.264, 12778.00
1025.372, 12640.20
1026.479, 12567.72
1027.587, 12493.00
1028.694, 12444.00
1029.801, 12448.00
1030.908, 12390.00
1032.015, 12433.00
1033.121, 12420.00
1034.228, 12449.00
1035.334, 12403.00
1036.440, 12685.00
1037.546, 12631.00
1038.652, 12888.00
1039.758, 13005.00
1040.863, 13033.00
1041.968, 13233.00
1043.074, 13186.00
1044.178, 13235.00
1045.283, 13003.00
1046.388, 12907.00
1047.492, 12691.00
1048.597, 12544.00
1049.701, 12266.00
1050.805, 11973.00
1051.909, 11907.00
1053.012, 11576.00
1054.116, 11407.00
1055.219, 11245.00
1056.322, 11133.00
1057.425, 10905.00
1058.528, 10806.00
1059.631, 10829.00
1060.733, 10687.00
1061.836, 10473.00
1062.938, 10641.00
1064.040, 10479.00
1065.142, 10386.00
1066.243, 10450.00
1067.345, 10253.00
1068.446, 10444.00
1069.547, 10280.00
1070.648, 10298.00
1071.749, 10361.00
1072.850, 10280.00
1073.951, 10220.00
1075.051, 10249.00
1076.151, 10245.00
1077.251, 10193.00
1078.351, 10298.00
1079.451, 10085.00
1080.550, 10179.00
1081.650, 10133.00
1082.749, 10177.00
1083.848, 10209.00
1084.947, 10155.00
1086.046, 10160.00
1087.144, 10169.00
1088.243, 10206.00
1089.341, 10180.00
1090.439, 10119.00
1091.537, 10014.00
1092.635, 10063.00
1093.732, 10062.00
1094.830, 10050.00
1095.927, 10133.00
1097.024, 10117.00
1098.121, 10064.00
1099.218, 10085.00
1100.314, 10067.00
1101.411, 10095.00
1102.507, 10163.00
1103.603, 10050.00
1104.699, 10160.00
1105.795, 10153.00
1106.890, 10203.00
1107.986, 10181.00
1109.081, 10141.00
1110.176, 10198.00
1111.271, 10153.00
1112.366, 10097.00
1113.461, 10110.00
1114.555, 10072.00
1115.649, 10298.00
1116.744, 10069.00
1117.838, 10230.00
1118.931, 10153.00
1120.025, 10341.00
1121.119, 10297.00
1122.212, 10123.00
1123.305, 10222.00
1124.398, 10185.00
1125.491, 10187.00
1126.584, 10177.00
1127.676, 10253.00
1128.768, 10261.00
1129.861, 10130.00
1130.953, 10293.00
1132.044, 10198.00
1133.136, 10185.00
1134.228, 10334.00
1135.319, 10237.00
1136.410, 10248.00
1137.501, 10198.00
1138.592, 10254.00
1139.683, 10231.00
1140.773, 10215.00
1141.864, 10130.00
1142.954, 10248.00
1144.044, 10261.00
1145.134, 10203.00
1146.224, 10141.00
1147.313, 10230.00
1148.402, 10280.00
1149.492, 10240.00
1150.581, 10272.00
1151.670, 10353.00
1152.758, 10315.00
1153.847, 10336.00
1154.935, 10341.00
1156.024, 10262.00
1157.112, 10430.00
1158.200, 10303.00
1159.287, 10293.00
1160.375, 10380.00
1161.462, 10281.00
1162.550, 10348.00
1163.637, 10126.00
1164.724, 10249.00
1165.810, 10260.00
1166.897, 10409.00
1167.983, 10096.00
1169.070, 10264.00
1170.156, 10279.00
1171.242, 10374.00
1172.327, 10386.00
1173.413, 10353.00
1174.499, 10395.41
1175.584, 10374.34
1176.669, 10409.00
1177.754, 10369.00
1178.839, 10393.00
1179.923, 10410.00
1181.008, 10349.00
1182.092, 10366.85
1183.176, 10219.00
1184.260, 10314.00
1185.344, 10335.00
1186.428, 10255.00
1187.511, 10431.00
1188.595, 10273.00
1189.678, 10339.00
1190.761, 10346.00
1191.843, 10571.00
1192.926, 10224.00
1194.009, 10454.00
1195.091, 10288.00
1196.173, 10450.00
1197.255, 10491.00
1198.337, 10250.00
1199.419, 10430.00
1200.500, 10400.00
1201.582, 10513.00
1202.663, 10386.00
1203.744, 10418.00
1204.825, 10468.00
1205.905, 10391.00
1206.986, 10373.00
1208.066, 10418.00
1209.146, 10443.00
1210.226, 10423.00
1211.306, 10419.00
1212.386, 10458.00
1213.466, 10480.00
1214.545, 10620.00
1215.624, 10531.00
1216.703, 10495.00
1217.782, 10396.00
1218.861, 10516.00
1219.939, 10483.00
1221.018, 10613.00
1222.096, 10525.00
1223.174, 10582.00
1224.252, 10622.00
1225.330, 10655.00
1226.407, 10607.00
1227.485, 10612.00
1228.562, 10502.00
1229.639, 10547.00
1230.716, 10669.00
1231.793, 10511.00
1232.869, 10689.00
1233.946, 10642.00
1235.022, 10597.00
1236.098, 10725.00
1237.174, 10641.00
1238.250, 10638.00
1239.325, 10609.00
1240.401, 10643.00
1241.476, 10599.00
1242.551, 10750.00
1243.626, 10701.00
1244.701, 10788.00
1245.776, 10866.00
1246.850, 10615.00
1247.924, 10857.00
1248.999, 10793.00
1250.073, 10828.00
1251.146, 10627.00
1252.220, 10693.00
1253.293, 10817.00
1254.367, 10949.00
1255.440, 10726.00
1256.513, 10698.00
1257.586, 10934.00
1258.658, 10686.00
1259.731, 10758.00
1260.803, 10766.00
1261.875, 10913.00
1262.947, 10801.00
1264.019, 10934.00
1265.091, 10963.00
1266.162, 10780.00
1267.234, 10930.00
1268.305, 10975.00
1269.376, 10915.00
1270.447, 10887.00
1271.517, 10869.00
1272.588, 10913.00
1273.658, 10926.00
1274.729, 11034.00
1275.799, 11017.00
1276.868, 10973.00
1277.938, 10935.00
1279.008, 10894.00
1280.077, 10895.84
1281.146, 10969.00
1282.215, 10909.00
1283.284, 11018.00
1284.353, 11028.00
1285.421, 11094.00
1286.490, 10991.00
1287.558, 11131.00
1288.626, 11246.00
1289.694, 11112.00
1290.762, 11223.00
1291.829, 10951.00
1292.897, 11060.00
1293.964, 11131.00
1295.031, 10932.00
1296.098, 11100.00
1297.165, 11053.00
1298.231, 11076.00
1299.298, 11133.00
1300.364, 11068.00
1301.430, 11179.00
1302.496, 11126.00
1303.562, 11274.00
1304.627, 11113.00
1305.693, 11266.00
1306.758, 11098.00
1307.823, 11092.00
1308.888, 11257.00
1309.953, 11294.00
1311.018, 11213.00
1312.082, 11297.00
1313.146, 11359.00
1314.210, 11254.00
1315.274, 11391.00
1316.338, 11289.00
1317.402, 11356.00
1318.465, 11373.00
1319.529, 11405.00
1320.592, 11342.00
1321.655, 11424.00
1322.718, 11628.00
1323.780, 11291.00
1324.843, 11370.00
1325.905, 11282.00
1326.967, 11496.00
1328.029, 11463.00
1329.091, 11558.00
1330.153, 11524.00
1331.214, 11379.00
1332.275, 11477.00
1333.337, 11448.00
1334.398, 11620.00
1335.458, 11629.00
1336.519, 11489.00
1337.580, 11428.00
1338.640, 11562.00
1339.700, 11521.00
1340.760, 11615.00
1341.820, 11526.00
1342.880, 11597.00
1343.939, 11603.00
1344.999, 11594.00
1346.058, 11667.00
1347.117, 11659.00
1348.176, 11671.00
1349.235, 11668.00
1350.293, 11714.00
1351.351, 11722.45
1352.410, 11629.00
1353.468, 11724.00
1354.526, 11730.00
1355.583, 11634.00
1356.641, 11732.00
1357.698, 11674.00
1358.756, 11611.00
1359.813, 11695.00
1360.869, 11680.00
1361.926, 11700.00
1362.983, 11733.00
1364.039, 11689.00
1365.095, 11798.00
1366.152, 11850.00
1367.207, 11827.00
1368.263, 11821.00
1369.319, 11792.00
1370.374, 11809.00
1371.430, 11835.00
1372.485, 11825.00
1373.540, 11841.74
1374.594, 11850.99
1375.649, 11857.00
1376.703, 11864.00
1377.758, 11882.00
1378.812, 11876.00
1379.866, 11891.25
1380.920, 11873.00
1381.973, 11918.00
1383.027, 11867.00
1384.080, 11891.00
1385.133, 11978.00
1386.186, 12022.00
1387.239, 12010.00
1388.291, 11911.00
1389.344, 12040.00
1390.396, 12092.00
1391.448, 11954.00
1392.500, 12084.00
1393.552, 12008.00
1394.604, 12070.00
1395.655, 12001.00
1396.707, 12014.00
1397.758, 11969.00
1398.809, 11901.00
1399.860, 12029.00
1400.910, 12074.00
1401.961, 12037.00
1403.011, 12025.00
1404.061, 11999.00
1405.111, 11976.00
1406.161, 12170.00
1407.211, 12139.00
1408.260, 12084.00
1409.310, 12161.00
1410.359, 12093.00
1411.408, 12197.00
1412.457, 12233.00
1413.506, 12249.00
1414.554, 12159.00
1415.603, 12152.00
1416.651, 12267.00
1417.699, 12182.00
1418.747, 12209.00
1419.794, 12095.00
1420.842, 12279.00
1421.889, 12172.00
1422.937, 12319.00
1423.984, 12250.00
1425.031, 12214.00
1426.077, 12305.00
1427.124, 12372.00
1428.170, 12252.00
1429.217, 12245.00
1430.263, 12277.00
1431.309, 12296.00
1432.354, 12289.00
1433.400, 12380.00
1434.445, 12301.00
1435.491, 12351.00
1436.536, 12468.00
1437.581, 12432.00
1438.625, 12493.94
1439.670, 12452.00
1440.714, 12535.00
1441.759, 12546.00
1442.803, 12565.00
1443.847, 12376.00
1444.890, 12439.00
1445.934, 12409.08
1446.978, 12393.00
1448.021, 12477.00
1449.064, 12493.00
1450.107, 12612.00
1451.150, 12541.00
1452.192, 12640.00
1453.235, 12572.00
1454.277, 12734.00
1455.319, 12570.00
1456.361, 12586.00
1457.403, 12583.00
1458.445, 12550.00
1459.486, 12643.00
1460.528, 12568.00
1461.569, 12593.00
1462.610, 12736.00
1463.651, 12731.00
1464.691, 12488.00
1465.732, 12684.00
1466.772, 12646.00
1467.812, 12799.00
1468.852, 12838.00
1469.892, 12734.00
1470.932, 12768.00
1471.971, 12916.00
1473.011, 12703.00
1474.050, 12819.00
1475.089, 12698.00
1476.128, 12762.00
1477.166, 12933.00
1478.205, 12884.00
1479.243, 12896.00
1480.282, 12782.00
1481.320, 12771.00
1482.357, 12851.00
1483.395, 12755.00
1484.433, 13027.00
1485.470, 12865.00
1486.507, 12773.00
1487.544, 12899.00
1488.581, 13037.00
1489.618, 12936.00
1490.655, 12883.00
1491.691, 12955.00
1492.727, 12911.00
1493.763, 12934.00
1494.799, 13081.00
1495.835, 13068.00
1496.871, 13037.00
1497.906, 12974.00
1498.941, 13086.00
1499.976, 12937.00
1501.011, 12885.00
1502.046, 13046.00
1503.081, 12847.00
1504.115, 12993.00
1505.149, 12981.00
1506.183, 13017.00
1507.217, 13030.00
1508.251, 13063.00
1509.285, 13125.00
1510.318, 13106.00
1511.352, 13139.00
1512.385, 13074.00
1513.418, 13098.00
1514.450, 13146.00
1515.483, 13187.00
1516.516, 13168.00
1517.548, 13209.00
1518.580, 13234.67
1519.612, 13224.00
1520.644, 13284.00
1521.675, 13262.00
1522.707, 13244.00
1523.738, 13302.00
1524.769, 13308.00
1525.800, 13378.00
1526.831, 13274.00
1527.862, 13292.00
1528.892, 13321.00
1529.923, 13377.00
1530.953, 13369.00
1531.983, 13255.00
1533.013, 13175.00
1534.042, 13401.00
1535.072, 13326.00
1536.101, 13449.00
1537.131, 13358.00
1538.160, 13296.00
1539.188, 13499.00
1540.217, 13329.00
1541.246, 13389.00
1542.274, 13548.00
1543.302, 13282.00
1544.330, 13476.00
1545.358, 13400.00
1546.386, 13495.00
1547.413, 13341.00
1548.441, 13444.00
1549.468, 13603.00
1550.495, 13450.00
1551.522, 13555.00
1552.549, 13473.00
1553.575, 13417.00
1554.602, 13493.08
1555.628, 13578.00
1556.654, 13553.00
1557.680, 13460.00
1558.706, 13421.00
1559.731, 13587.00
1560.757, 13474.00
1561.782, 13618.00
1562.807, 13565.00
1563.832, 13615.00
1564.857, 13546.00
1565.881, 13586.00
1566.906, 13474.00
1567.930, 13636.00
1568.954, 13535.00
1569.978, 13717.00
1571.002, 13529.00
1572.025, 13783.00
1573.049, 13719.00
1574.072, 13510.00
1575.095, 13648.00
1576.118, 13690.00
1577.141, 13733.00
##END=



