##NAMES=Rhodonite
##RRUFFID=R060549
##IDEAL CHEMISTRY=CaMn^2+^_3_Mn^2+^Si_5_O_15_
##LOCALITY=unknown
##OWNER=RRUFF
##SOURCE=Gemological Institute of America
##DESCRIPTION=Pink cleavage fragment
##STATUS=The identification of this mineral has been confirmed by X-ray diffraction and chemical analysis
##URL=rruff.info/R060549
##MEASURED CHEMISTRY=(Mn_0.76_Ca_0.12_Fe_0.07_Mg_0.06_)Si_0.99_O_3_
##PIN_ID=L01657
##ORIENTATION=Laser parallel to -b* (0 -1 0). Fiducial mark perpendicular to laser is parallel to -c [0 0 -1]
81.95600, 8897.000
83.19200, 8906.000
84.42800, 9365.000
85.66300, 9641.000
86.89900, 10062.00
88.13400, 10683.00
89.36900, 11068.00
90.60400, 11652.00
91.83800, 11855.00
93.07300, 12265.00
94.30700, 12456.00
95.54100, 12484.00
96.77500, 12726.00
98.00900, 12467.00
99.24300, 12155.00
100.4770, 11770.00
101.7100, 10903.00
102.9440, 10343.00
104.1770, 9580.000
105.4100, 9292.000
106.6430, 9215.000
107.8750, 9221.000
109.1080, 9394.000
110.3400, 9729.000
111.5720, 9995.000
112.8040, 10227.00
114.0360, 10530.00
115.2680, 10950.00
116.5000, 10810.00
117.7310, 10919.00
118.9620, 10734.00
120.1940, 10444.00
121.4250, 10237.00
122.6550, 10058.00
123.8860, 9809.000
125.1170, 9688.000
126.3470, 9539.000
127.5770, 9530.000
128.8070, 9557.000
130.0370, 9627.000
131.2670, 9779.000
132.4970, 9966.000
133.7260, 10396.00
134.9550, 10673.00
136.1850, 11265.00
137.4140, 11556.00
138.6420, 11751.00
139.8710, 11734.00
141.1000, 11677.00
142.3280, 11162.00
143.5560, 10509.00
144.7840, 9998.000
146.0120, 9594.510
147.2400, 9075.000
148.4680, 8915.000
149.6950, 8776.000
150.9220, 8565.000
152.1500, 8508.000
153.3770, 8666.000
154.6030, 8799.000
155.8300, 8849.000
157.0570, 8957.000
158.2830, 9243.000
159.5090, 9370.000
160.7350, 9678.000
161.9610, 9624.000
163.1870, 9717.000
164.4130, 9704.000
165.6380, 9678.000
166.8630, 9327.000
168.0880, 9283.000
169.3130, 9075.000
170.5380, 8953.000
171.7630, 8685.000
172.9870, 8472.000
174.2120, 8340.000
175.4360, 8330.000
176.6600, 8270.000
177.8840, 8311.000
179.1080, 8393.000
180.3310, 8451.000
181.5550, 8335.000
182.7780, 8252.000
184.0010, 8200.000
185.2240, 8138.320
186.4470, 8081.817
187.6700, 8067.000
188.8920, 7948.000
190.1150, 7909.000
191.3370, 7772.000
192.5590, 7818.000
193.7810, 7632.000
195.0020, 7588.000
196.2240, 7534.000
197.4450, 7560.000
198.6670, 7637.000
199.8880, 7630.000
201.1090, 7631.000
202.3300, 7633.000
203.5500, 7611.000
204.7710, 7666.000
205.9910, 7816.000
207.2110, 7812.000
208.4310, 7802.000
209.6510, 8046.000
210.8710, 8021.000
212.0910, 8215.000
213.3100, 8125.000
214.5290, 8229.000
215.7480, 8324.000
216.9670, 8416.000
218.1860, 8382.000
219.4050, 8345.000
220.6230, 8269.000
221.8420, 8108.000
223.0600, 8137.000
224.2780, 8007.000
225.4960, 8145.000
226.7130, 8115.000
227.9310, 8168.000
229.1480, 8248.000
230.3660, 8239.000
231.5830, 8255.000
232.8000, 8362.000
234.0160, 8408.000
235.2330, 8421.000
236.4490, 8657.000
237.6660, 8791.000
238.8820, 8877.000
240.0980, 9061.000
241.3140, 9106.000
242.5300, 9176.000
243.7450, 9395.000
244.9600, 9497.000
246.1760, 9642.000
247.3910, 9872.000
248.6060, 10049.00
249.8200, 10106.00
251.0350, 10380.00
252.2500, 10403.00
253.4640, 10474.00
254.6780, 10608.00
255.8920, 10782.83
257.1060, 11045.00
258.3190, 11283.00
259.5330, 11573.00
260.7460, 11926.00
261.9600, 12157.00
263.1730, 12361.80
264.3850, 12624.00
265.5980, 12573.00
266.8110, 12563.00
268.0230, 12413.00
269.2360, 11976.00
270.4480, 11798.00
271.6600, 11446.00
272.8710, 11140.00
274.0830, 10993.00
275.2950, 10796.00
276.5060, 10646.00
277.7170, 10556.00
278.9280, 10349.19
280.1390, 10212.00
281.3500, 9963.000
282.5600, 9808.000
283.7710, 9544.000
284.9810, 9444.000
286.1910, 9283.000
287.4010, 9268.000
288.6110, 9219.000
289.8200, 9165.000
291.0300, 9283.000
292.2390, 9312.000
293.4480, 9515.000
294.6570, 9641.000
295.8660, 9814.000
297.0750, 10079.00
298.2830, 10472.00
299.4920, 10723.00
300.7000, 10979.00
301.9080, 11001.00
303.1160, 11178.00
304.3240, 11385.00
305.5310, 11286.00
306.7390, 11473.00
307.9460, 11415.00
309.1530, 11246.00
310.3600, 11213.00
311.5670, 11062.00
312.7740, 11026.00
313.9800, 10883.00
315.1870, 10874.00
316.3930, 10915.00
317.5990, 10961.00
318.8050, 11121.00
320.0110, 11286.00
321.2160, 11592.00
322.4220, 11940.00
323.6270, 12071.00
324.8320, 12349.00
326.0370, 12568.00
327.2420, 12679.00
328.4460, 12661.00
329.6510, 12758.00
330.8550, 12560.00
332.0590, 12676.00
333.2630, 12632.00
334.4670, 12707.00
335.6710, 12774.00
336.8740, 12725.00
338.0780, 12557.00
339.2810, 12353.00
340.4840, 12238.00
341.6870, 11942.00
342.8900, 11750.00
344.0920, 11597.00
345.2950, 11465.00
346.4970, 11202.00
347.6990, 11174.00
348.9010, 11055.00
350.1030, 10949.00
351.3050, 10706.00
352.5060, 10814.00
353.7080, 10485.00
354.9090, 10268.00
356.1100, 9929.000
357.3110, 9843.000
358.5110, 9824.000
359.7120, 9786.000
360.9120, 9698.000
362.1130, 9562.000
363.3130, 9448.000
364.5130, 9350.000
365.7120, 9321.000
366.9120, 9422.000
368.1120, 9239.000
369.3110, 9222.000
370.5100, 9018.000
371.7090, 9119.000
372.9080, 8944.000
374.1070, 8978.000
375.3050, 8810.000
376.5040, 8721.000
377.7020, 8894.000
378.9000, 8799.000
380.0980, 8857.000
381.2950, 8863.000
382.4930, 8939.000
383.6910, 9028.000
384.8880, 9184.000
386.0850, 9205.000
387.2820, 9384.000
388.4790, 9372.000
389.6750, 9447.000
390.8720, 9428.000
392.0680, 9329.000
393.2640, 9264.000
394.4600, 9138.160
395.6560, 8961.000
396.8520, 8857.000
398.0480, 8793.000
399.2430, 8670.838
400.4380, 8397.000
401.6330, 8391.000
402.8280, 8368.000
404.0230, 8263.000
405.2180, 8297.000
406.4120, 8307.000
407.6060, 8180.000
408.8000, 8183.000
409.9940, 8158.000
411.1880, 8255.000
412.3820, 8116.000
413.5750, 8225.000
414.7690, 8069.000
415.9620, 8081.000
417.1550, 7963.000
418.3480, 8089.000
419.5410, 8046.000
420.7330, 8034.000
421.9260, 8103.000
423.1180, 8220.000
424.3100, 8124.000
425.5020, 8110.000
426.6940, 8264.000
427.8850, 8067.000
429.0770, 8103.000
430.2680, 8373.000
431.4590, 8399.000
432.6500, 8432.000
433.8410, 8551.000
435.0320, 8584.000
436.2220, 8518.000
437.4130, 8631.000
438.6030, 8513.000
439.7930, 8634.000
440.9830, 8639.000
442.1730, 8550.000
443.3620, 8494.000
444.5520, 8349.000
445.7410, 8425.000
446.9300, 8312.000
448.1190, 8272.000
449.3080, 8363.000
450.4960, 8338.000
451.6850, 8352.000
452.8730, 8398.000
454.0610, 8471.000
455.2490, 8475.000
456.4370, 8501.000
457.6250, 8650.000
458.8130, 8551.000
460.0000, 8521.000
461.1870, 8630.000
462.3740, 8706.000
463.5610, 8692.000
464.7480, 8715.000
465.9340, 8571.000
467.1210, 8723.000
468.3070, 8595.000
469.4930, 8700.000
470.6790, 8734.000
471.8650, 8815.000
473.0510, 8836.000
474.2360, 8856.000
475.4210, 8842.000
476.6070, 8888.000
477.7920, 8732.000
478.9770, 8759.000
480.1610, 8574.000
481.3460, 8615.000
482.5300, 8570.000
483.7140, 8497.000
484.8980, 8614.000
486.0820, 8580.000
487.2660, 8494.000
488.4500, 8709.000
489.6330, 8666.000
490.8160, 8704.000
492.0000, 8944.000
493.1830, 8881.000
494.3650, 9088.000
495.5480, 9076.000
496.7300, 9030.000
497.9130, 9220.000
499.0950, 9106.000
500.2770, 9019.000
501.4590, 9004.000
502.6410, 8827.000
503.8220, 8861.000
505.0030, 8943.000
506.1850, 9054.000
507.3660, 8964.000
508.5470, 8942.000
509.7270, 8941.000
510.9080, 9160.000
512.0880, 9147.000
513.2690, 9210.000
514.4490, 9032.000
515.6290, 8991.000
516.8090, 8873.000
517.9880, 8889.000
519.1680, 8829.136
520.3470, 8757.467
521.5260, 8742.000
522.7050, 8663.000
523.8840, 8551.000
525.0630, 8581.000
526.2410, 8627.000
527.4200, 8496.000
528.5980, 8413.000
529.7760, 8431.000
530.9540, 8503.000
532.1320, 8575.000
533.3090, 8498.000
534.4870, 8428.000
535.6640, 8539.000
536.8410, 8527.000
538.0180, 8639.000
539.1950, 8732.000
540.3710, 8749.000
541.5480, 8736.000
542.7240, 9049.000
543.9000, 8932.000
545.0760, 9060.000
546.2520, 9115.000
547.4280, 8977.000
548.6040, 8906.000
549.7790, 8855.000
550.9540, 8838.000
552.1290, 8890.000
553.3040, 8857.000
554.4790, 8931.000
555.6530, 9250.000
556.8280, 9289.000
558.0020, 9208.000
559.1760, 9312.000
560.3500, 9222.000
561.5240, 9146.000
562.6980, 9167.000
563.8710, 9070.000
565.0440, 9080.000
566.2170, 8952.000
567.3900, 9064.000
568.5630, 9102.000
569.7360, 9235.000
570.9090, 9291.000
572.0810, 9358.000
573.2530, 9400.995
574.4250, 9450.000
575.5970, 9405.000
576.7690, 9392.000
577.9400, 9315.204
579.1120, 9118.000
580.2830, 9139.000
581.4540, 8984.000
582.6250, 8814.000
583.7960, 8765.000
584.9660, 8692.837
586.1370, 8701.196
587.3070, 8669.000
588.4770, 8783.000
589.6470, 8817.000
590.8170, 8829.000
591.9870, 8906.985
593.1560, 8813.000
594.3260, 8963.000
595.4950, 8903.000
596.6640, 8833.000
597.8330, 8645.000
599.0010, 8756.000
600.1700, 8695.000
601.3380, 8959.000
602.5070, 8973.000
603.6750, 8845.000
604.8430, 8890.000
606.0100, 8810.000
607.1780, 8954.000
608.3450, 8984.000
609.5130, 8959.000
610.6800, 9051.000
611.8470, 9084.000
613.0140, 9021.000
614.1800, 9025.000
615.3470, 9094.000
616.5130, 9213.000
617.6790, 9116.000
618.8450, 9225.000
620.0110, 9133.000
621.1770, 9266.000
622.3420, 9343.000
623.5080, 9426.000
624.6730, 9403.000
625.8380, 9612.000
627.0030, 9525.000
628.1680, 9620.000
629.3320, 9630.000
630.4970, 9712.000
631.6610, 9766.000
632.8250, 9912.000
633.9890, 10048.00
635.1530, 10081.00
636.3160, 10170.00
637.4800, 10293.00
638.6430, 10440.00
639.8060, 10613.00
640.9690, 10844.00
642.1320, 10926.00
643.2950, 11182.00
644.4570, 11486.00
645.6200, 11759.00
646.7820, 12105.00
647.9440, 12571.00
649.1060, 12909.00
650.2670, 13780.00
651.4290, 14530.00
652.5900, 15371.00
653.7520, 16635.00
654.9130, 18160.74
656.0740, 19845.00
657.2340, 22102.00
658.3950, 24607.00
659.5550, 27371.00
660.7160, 30260.00
661.8760, 33058.00
663.0360, 35833.00
664.1960, 38701.00
665.3550, 42260.00
666.5150, 45772.00
667.6740, 49612.00
668.8330, 52662.00
669.9920, 53517.00
671.1510, 52996.00
672.3100, 49818.00
673.4680, 45936.00
674.6270, 40995.00
675.7850, 36489.00
676.9430, 32870.00
678.1010, 29909.00
679.2590, 27169.00
680.4160, 25085.00
681.5740, 23183.00
682.7310, 21251.00
683.8880, 19415.00
685.0450, 17926.00
686.2020, 16539.00
687.3580, 15435.05
688.5150, 14554.00
689.6710, 13746.00
690.8270, 13203.00
691.9830, 12634.00
693.1390, 12329.00
694.2950, 12196.00
695.4500, 11865.00
696.6050, 11611.00
697.7610, 11426.00
698.9160, 11183.00
700.0710, 11211.00
701.2250, 10986.00
702.3800, 11148.00
703.5340, 11032.00
704.6880, 10941.00
705.8420, 11043.00
706.9960, 10977.00
708.1500, 11136.00
709.3040, 11247.00
710.4570, 11315.00
711.6100, 11134.00
712.7640, 11345.00
713.9160, 11250.00
715.0690, 11415.00
716.2220, 11329.00
717.3740, 11485.00
718.5270, 11397.00
719.6790, 11449.00
720.8310, 11335.00
721.9830, 11327.00
723.1340, 11186.00
724.2860, 10953.00
725.4370, 10681.00
726.5880, 10668.00
727.7390, 10455.00
728.8900, 10297.00
730.0410, 10268.00
731.1910, 10257.00
732.3420, 10261.00
733.4920, 10186.00
734.6420, 10213.45
735.7920, 10201.00
736.9420, 10213.00
738.0910, 10251.00
739.2410, 10226.00
740.3900, 10168.00
741.5390, 10195.00
742.6880, 10177.00
743.8370, 10116.07
744.9860, 10018.00
746.1340, 9981.000
747.2820, 9923.000
748.4310, 9825.000
749.5790, 9812.000
750.7260, 9615.000
751.8740, 9562.000
753.0220, 9626.000
754.1690, 9566.000
755.3160, 9626.000
756.4630, 9553.000
757.6100, 9545.000
758.7570, 9643.000
759.9030, 9578.000
761.0500, 9662.000
762.1960, 9493.000
763.3420, 9575.000
764.4880, 9590.000
765.6340, 9552.000
766.7790, 9521.000
767.9250, 9473.000
769.0700, 9568.000
770.2150, 9564.000
771.3600, 9582.000
772.5050, 9588.000
773.6490, 9488.000
774.7940, 9633.000
775.9380, 9452.000
777.0820, 9438.000
778.2260, 9629.000
779.3700, 9613.000
780.5140, 9562.000
781.6570, 9491.000
782.8010, 9562.000
783.9440, 9657.000
785.0870, 9640.000
786.2300, 9653.000
787.3720, 9713.000
788.5150, 9646.000
789.6570, 9617.000
790.8000, 9608.000
791.9420, 9696.000
793.0840, 9639.000
794.2250, 9615.000
795.3670, 9704.000
796.5080, 9545.000
797.6500, 9771.000
798.7910, 9629.000
799.9320, 9694.000
801.0720, 9662.000
802.2130, 9638.317
803.3530, 9728.000
804.4940, 9640.000
805.6340, 9755.000
806.7740, 9777.000
807.9140, 9888.000
809.0530, 9830.000
810.1930, 9751.000
811.3320, 9804.000
812.4710, 9636.000
813.6100, 9723.372
814.7490, 9685.000
815.8880, 9866.000
817.0270, 9734.000
818.1650, 9864.000
819.3030, 9690.000
820.4410, 9915.000
821.5790, 9729.000
822.7170, 9759.000
823.8540, 9799.000
824.9920, 9896.000
826.1290, 9972.000
827.2660, 9765.000
828.4030, 9750.000
829.5400, 9894.000
830.6760, 9876.000
831.8130, 9993.000
832.9490, 9899.000
834.0850, 9958.000
835.2210, 9813.000
836.3570, 10051.00
837.4930, 9958.000
838.6280, 9939.000
839.7640, 9967.000
840.8990, 9912.000
842.0340, 9989.000
843.1690, 9928.000
844.3030, 10004.00
845.4380, 10112.00
846.5720, 9978.000
847.7060, 10022.00
848.8400, 10024.00
849.9740, 10079.00
851.1080, 10038.00
852.2420, 10205.00
853.3750, 10089.00
854.5080, 10141.00
855.6410, 10028.00
856.7740, 10104.00
857.9070, 9967.000
859.0400, 10263.00
860.1720, 10083.00
861.3040, 10133.00
862.4360, 10219.00
863.5680, 10168.00
864.7000, 10247.00
865.8320, 10209.00
866.9630, 10309.00
868.0950, 10204.00
869.2260, 10280.00
870.3570, 10171.00
871.4880, 10255.00
872.6180, 10281.00
873.7490, 10392.00
874.8790, 10266.00
876.0090, 10523.00
877.1390, 10382.00
878.2690, 10484.00
879.3990, 10519.00
880.5280, 10529.00
881.6580, 10579.00
882.7870, 10556.00
883.9160, 10589.41
885.0450, 10526.00
886.1740, 10606.00
887.3020, 10549.00
888.4310, 10511.00
889.5590, 10693.00
890.6870, 10508.00
891.8150, 10709.00
892.9430, 10447.00
894.0700, 10649.00
895.1980, 10881.00
896.3250, 10821.00
897.4520, 10856.00
898.5790, 10711.00
899.7060, 10811.00
900.8330, 10790.00
901.9590, 10897.00
903.0850, 10870.00
904.2120, 11082.00
905.3380, 11193.00
906.4630, 11179.00
907.5890, 11219.00
908.7150, 11386.00
909.8400, 11588.00
910.9650, 11633.00
912.0900, 11865.00
913.2150, 11822.00
914.3400, 11866.00
915.4640, 11982.00
916.5890, 11926.00
917.7130, 11779.00
918.8370, 11817.00
919.9610, 11720.00
921.0850, 11786.00
922.2080, 11513.00
923.3320, 11639.00
924.4550, 11593.00
925.5780, 11541.00
926.7010, 11642.00
927.8240, 11697.00
928.9460, 11593.00
930.0690, 11508.00
931.1910, 11883.00
932.3130, 11897.00
933.4350, 11944.00
934.5570, 12010.00
935.6790, 12379.00
936.8000, 12692.00
937.9220, 12803.00
939.0430, 13010.00
940.1640, 13121.00
941.2850, 13122.00
942.4050, 13112.31
943.5260, 12724.00
944.6460, 12868.00
945.7660, 12640.00
946.8860, 12402.00
948.0060, 12474.00
949.1260, 12550.00
950.2460, 12447.00
951.3650, 12515.00
952.4840, 12618.00
953.6030, 12662.00
954.7220, 12833.00
955.8410, 13043.00
956.9590, 13365.00
958.0780, 13521.00
959.1960, 13901.00
960.3140, 14366.00
961.4320, 14929.00
962.5500, 15660.00
963.6680, 16246.00
964.7850, 17312.00
965.9020, 18324.00
967.0190, 19694.00
968.1360, 21627.00
969.2530, 23719.00
970.3700, 26016.00
971.4860, 28473.00
972.6030, 30742.00
973.7190, 33095.00
974.8350, 34576.00
975.9510, 35478.00
977.0660, 34819.00
978.1820, 33979.00
979.2970, 32665.00
980.4130, 31089.00
981.5280, 30116.00
982.6420, 29390.00
983.7570, 29175.00
984.8720, 29543.00
985.9860, 29804.00
987.1000, 30381.00
988.2140, 31331.00
989.3280, 32238.00
990.4420, 32817.00
991.5560, 34180.00
992.6690, 35222.00
993.7820, 36273.00
994.8950, 37633.00
996.0080, 39614.00
997.1210, 41499.00
998.2340, 42839.00
999.3460, 44164.00
1000.458, 44386.00
1001.571, 43702.00
1002.683, 42462.00
1003.794, 39912.00
1004.906, 37006.00
1006.017, 34024.00
1007.129, 31280.00
1008.240, 28670.00
1009.351, 26410.24
1010.462, 24127.00
1011.572, 22451.00
1012.683, 20933.00
1013.793, 19385.00
1014.904, 18273.00
1016.014, 17438.00
1017.123, 16608.00
1018.233, 16014.00
1019.343, 15440.00
1020.452, 15086.00
1021.561, 14799.00
1022.670, 14638.00
1023.779, 14321.00
1024.888, 14330.00
1025.997, 14130.00
1027.105, 13610.00
1028.213, 13777.00
1029.321, 13710.00
1030.429, 13513.00
1031.537, 13594.00
1032.645, 13401.00
1033.752, 13485.00
1034.859, 13255.00
1035.966, 13244.00
1037.073, 13038.00
1038.180, 13120.00
1039.287, 13099.00
1040.393, 13082.00
1041.500, 13116.00
1042.606, 13014.00
1043.712, 13238.00
1044.818, 13400.00
1045.923, 13396.00
1047.029, 13619.00
1048.134, 13681.00
1049.239, 13828.00
1050.344, 13892.00
1051.449, 13872.00
1052.554, 13829.00
1053.658, 13571.00
1054.763, 13489.00
1055.867, 13262.00
1056.971, 13162.00
1058.075, 13014.00
1059.179, 12913.00
1060.282, 12795.00
1061.385, 12765.00
1062.489, 12591.00
1063.592, 12659.00
1064.695, 12566.00
1065.797, 12460.00
1066.900, 12295.00
1068.002, 12371.00
1069.105, 12388.00
1070.207, 12351.00
1071.309, 12380.00
1072.411, 12322.00
1073.512, 12271.00
1074.614, 12260.00
1075.715, 12245.00
1076.816, 12170.00
1077.917, 12161.00
1079.018, 12243.00
1080.118, 12131.00
1081.219, 12124.00
1082.319, 12022.00
1083.419, 12211.00
1084.519, 12164.00
1085.619, 12146.00
1086.719, 12233.00
1087.818, 12172.26
1088.918, 12100.00
1090.017, 12135.00
1091.116, 12034.00
1092.215, 12004.00
1093.314, 12111.00
1094.412, 12136.00
1095.510, 11908.00
1096.609, 12068.00
1097.707, 12036.00
1098.805, 11908.00
1099.902, 12062.00
1101.000, 12031.00
1102.097, 12211.00
1103.195, 12154.00
1104.292, 12118.00
1105.389, 12103.00
1106.485, 12173.00
1107.582, 12144.00
1108.678, 12185.59
1109.775, 12056.00
1110.871, 12202.00
1111.967, 12171.00
1113.062, 12082.00
1114.158, 12149.00
1115.254, 12082.00
1116.349, 12098.23
1117.444, 12223.00
1118.539, 12145.00
1119.634, 12167.00
1120.728, 12239.00
1121.823, 12201.00
1122.917, 12287.00
1124.011, 12093.00
1125.105, 12185.00
1126.199, 12122.00
1127.293, 12139.00
1128.386, 12264.00
1129.480, 12256.00
1130.573, 12176.00
1131.666, 12294.00
1132.759, 12253.00
1133.851, 12138.00
1134.944, 12196.00
1136.036, 12173.00
1137.129, 12245.00
1138.221, 12269.00
1139.313, 12201.00
1140.404, 12109.00
1141.496, 12312.00
1142.587, 12197.00
1143.678, 12228.00
1144.770, 12325.00
1145.860, 12386.00
1146.951, 12229.00
1148.042, 12195.00
1149.132, 12335.00
1150.223, 12455.00
1151.313, 12305.00
1152.403, 12235.00
1153.492, 12389.00
1154.582, 12412.00
1155.671, 12370.00
1156.761, 12366.00
1157.850, 12391.00
1158.939, 12332.00
1160.028, 12408.00
1161.116, 12449.00
1162.205, 12337.00
1163.293, 12420.00
1164.381, 12396.00
1165.469, 12542.00
1166.557, 12336.00
1167.645, 12576.00
1168.732, 12345.00
1169.820, 12495.00
1170.907, 12335.00
1171.994, 12503.00
1173.081, 12473.00
1174.167, 12549.00
1175.254, 12479.00
1176.340, 12566.00
1177.426, 12518.00
1178.512, 12388.00
1179.598, 12538.00
1180.684, 12381.00
1181.770, 12465.00
1182.855, 12339.00
1183.940, 12551.00
1185.025, 12472.00
1186.110, 12652.00
1187.195, 12558.00
1188.280, 12626.00
1189.364, 12530.00
1190.448, 12513.00
1191.532, 12667.00
1192.616, 12488.00
1193.700, 12625.00
1194.784, 12510.00
1195.867, 12728.00
1196.950, 12516.00
1198.034, 12485.00
1199.117, 12635.00
1200.199, 12538.00
1201.282, 12769.00
1202.364, 12645.00
1203.447, 12687.00
1204.529, 12846.00
1205.611, 12752.00
1206.693, 12795.00
1207.774, 12794.00
1208.856, 12868.00
1209.937, 12797.00
1211.018, 12668.00
1212.099, 12919.00
1213.180, 12682.00
1214.261, 12874.00
1215.341, 12860.00
1216.422, 12908.00
1217.502, 12849.00
1218.582, 12770.00
1219.662, 12721.00
1220.742, 12813.00
1221.821, 12922.00
1222.900, 12852.00
1223.980, 12884.00
1225.059, 12856.00
1226.138, 12834.00
1227.216, 12821.00
1228.295, 13004.00
1229.373, 12863.00
1230.452, 13060.00
1231.530, 12959.00
1232.608, 13026.00
1233.685, 13146.00
1234.763, 13032.00
1235.840, 13058.00
1236.918, 13109.00
1237.995, 13062.00
1239.072, 12950.00
1240.149, 12925.00
1241.225, 13019.00
1242.302, 13046.00
1243.378, 13194.00
1244.454, 13046.00
1245.530, 13202.00
1246.606, 13266.00
1247.681, 13050.00
1248.757, 13265.00
1249.832, 13034.00
1250.907, 13064.00
1251.982, 13070.00
1253.057, 13024.00
1254.132, 12967.00
1255.206, 13288.00
1256.281, 13230.00
1257.355, 13083.00
1258.429, 13430.00
1259.503, 13368.00
1260.576, 13335.00
1261.650, 13319.00
1262.723, 13301.30
1263.797, 13375.00
1264.870, 13351.00
1265.942, 13358.00
1267.015, 13489.00
1268.088, 13389.00
1269.160, 13442.00
1270.232, 13405.00
1271.304, 13409.00
1272.376, 13443.00
1273.448, 13463.00
1274.520, 13547.00
1275.591, 13531.41
1276.662, 13438.00
1277.733, 13533.00
1278.804, 13534.00
1279.875, 13543.00
1280.946, 13575.00
1282.016, 13519.00
1283.086, 13478.00
1284.156, 13451.00
1285.226, 13576.00
1286.296, 13712.00
1287.366, 13574.00
1288.435, 13684.00
1289.505, 13512.00
1290.574, 13591.00
1291.643, 13631.00
1292.711, 13681.00
1293.780, 13621.00
1294.849, 13501.00
1295.917, 13717.00
1296.985, 13813.00
1298.053, 13743.00
1299.121, 13675.00
1300.189, 13768.00
1301.256, 13750.00
1302.323, 13680.00
1303.391, 13656.00
1304.458, 13926.00
1305.524, 13772.00
1306.591, 13965.00
1307.658, 13776.00
1308.724, 13805.00
1309.790, 13976.00
1310.856, 13791.00
1311.922, 13868.00
1312.988, 13967.00
1314.053, 13899.00
1315.119, 14114.00
1316.184, 13868.00
1317.249, 13956.00
1318.314, 13975.00
1319.379, 13976.00
1320.443, 14066.00
1321.508, 14095.00
1322.572, 14094.00
1323.636, 14097.00
1324.700, 14049.00
1325.764, 14080.00
1326.827, 14106.00
1327.891, 14090.00
1328.954, 14162.00
1330.017, 14129.00
1331.080, 14211.00
1332.143, 14246.00
1333.205, 14159.00
1334.268, 14166.00
1335.330, 14147.00
1336.392, 14110.00
1337.454, 14219.00
1338.516, 14246.00
1339.578, 14327.00
1340.639, 14307.00
1341.701, 14228.00
1342.762, 14300.00
1343.823, 14269.00
1344.883, 14367.00
1345.944, 14431.00
1347.005, 14371.00
1348.065, 14234.00
1349.125, 14353.00
1350.185, 14359.00
1351.245, 14412.00
1352.305, 14445.20
1353.364, 14521.00
1354.424, 14500.00
1355.483, 14438.00
1356.542, 14506.00
1357.601, 14470.00
1358.659, 14577.00
1359.718, 14504.00
1360.776, 14420.00
1361.834, 14736.00
1362.893, 14599.00
1363.950, 14602.00
1365.008, 14516.00
1366.066, 14639.00
1367.123, 14715.00
1368.180, 14552.00
1369.237, 14685.00
1370.294, 14727.00
1371.351, 14638.00
1372.408, 14860.00
1373.464, 14733.00
1374.520, 14715.00
1375.576, 14728.00
1376.632, 14688.00
1377.688, 14883.00
1378.744, 14654.00
1379.799, 15043.00
1380.854, 14840.00
1381.910, 14885.00
1382.965, 14866.00
1384.019, 14780.00
1385.074, 14727.00
1386.128, 14752.00
1387.183, 14900.00
1388.237, 14822.00
1389.291, 14839.00
1390.345, 14954.00
1391.398, 14836.00
1392.452, 14792.00
1393.505, 15017.00
1394.558, 14846.00
1395.611, 14950.00
1396.664, 15058.00
1397.717, 15004.00
1398.769, 14970.00
1399.822, 15049.00
1400.874, 14915.00
1401.926, 14912.00
1402.978, 14810.00
1404.029, 15057.00
1405.081, 14906.00
1406.132, 14919.00
1407.183, 15070.00
1408.234, 14976.00
1409.285, 15102.00
1410.336, 15128.00
1411.387, 15255.00
1412.437, 15133.00
1413.487, 15236.00
1414.537, 15178.00
1415.587, 15192.00
1416.637, 15208.00
1417.686, 15351.00
1418.736, 15196.00
1419.785, 15244.00
1420.834, 15212.00
1421.883, 15408.00
1422.932, 15275.00
1423.980, 15382.00
1425.029, 15357.00
1426.077, 15425.00
1427.125, 15172.00
1428.173, 15365.00
1429.221, 15345.00
1430.269, 15343.00
1431.316, 15503.00
1432.363, 15454.64
1433.410, 15496.00
1434.457, 15490.00
1435.504, 15523.00
1436.551, 15568.00
1437.597, 15524.00
1438.644, 15618.00
1439.690, 15464.00
1440.736, 15619.00
1441.781, 15518.00
1442.827, 15624.00
1443.873, 15688.00
1444.918, 15786.00
1445.963, 15818.00
1447.008, 15615.00
1448.053, 15803.00
1449.098, 15642.00
1450.142, 15665.00
1451.186, 15817.00
1452.231, 15772.00
1453.275, 15862.00
1454.319, 15917.00
1455.362, 15855.00
1456.406, 15994.00
1457.449, 15993.00
1458.492, 16067.00
1459.535, 16070.91
1460.578, 15997.33
1461.621, 16067.00
1462.663, 15943.00
1463.706, 15985.00
1464.748, 15978.01
1465.790, 15826.00
1466.832, 15948.00
1467.874, 16028.00
1468.915, 15935.00
1469.957, 15753.00
1470.998, 16171.00
1472.039, 16039.00
1473.080, 15947.00
1474.121, 16189.00
1475.161, 15941.00
1476.202, 16080.00
1477.242, 16134.00
1478.282, 15990.00
1479.322, 16158.00
1480.362, 16178.00
1481.401, 16187.00
1482.441, 16212.00
1483.480, 16144.00
1484.519, 16262.00
1485.558, 16285.00
1486.597, 16362.00
1487.636, 16183.00
1488.674, 16182.00
1489.712, 16283.00
1490.751, 16093.00
1491.788, 16244.00
1492.826, 16090.00
1493.864, 16336.00
1494.901, 16359.00
1495.939, 16305.00
1496.976, 16308.00
1498.013, 16374.00
1499.050, 16359.00
1500.086, 16365.00
1501.123, 16312.00
1502.159, 16406.00
1503.195, 16395.00
1504.231, 16432.00
1505.267, 16486.00
1506.303, 16472.00
1507.338, 16240.00
1508.374, 16368.00
1509.409, 16427.00
1510.444, 16611.00
1511.479, 16562.00
1512.514, 16522.00
1513.548, 16751.00
1514.583, 16589.00
1515.617, 16749.00
1516.651, 16664.00
1517.685, 16740.00
1518.718, 16578.00
1519.752, 16542.00
1520.785, 16943.00
1521.819, 16636.00
1522.852, 16839.00
1523.885, 16780.00
1524.917, 16757.00
1525.950, 16871.00
1526.982, 16839.00
1528.015, 16905.00
1529.047, 17134.00
1530.079, 16855.00
1531.110, 16912.00
1532.142, 16819.00
1533.173, 17017.00
1534.205, 16982.00
1535.236, 16953.00
1536.267, 17017.00
1537.298, 16885.00
1538.328, 16861.00
1539.359, 16996.00
1540.389, 16948.00
1541.419, 17103.00
1542.449, 16971.00
1543.479, 17152.00
1544.508, 17190.00
1545.538, 17095.00
1546.567, 16999.00
1547.596, 17031.00
1548.625, 17133.00
1549.654, 17234.00
1550.683, 17162.00
1551.711, 17245.53
1552.740, 17334.00
1553.768, 17277.00
1554.796, 17277.00
1555.824, 17286.00
1556.851, 17312.00
1557.879, 17417.00
1558.906, 17152.00
1559.933, 17436.00
1560.960, 17381.00
1561.987, 17290.00
1563.014, 17470.00
1564.041, 17325.00
1565.067, 17493.00
1566.093, 17309.00
1567.119, 17492.00
1568.145, 17341.00
1569.171, 17506.00
1570.196, 17499.00
1571.222, 17588.00
1572.247, 17524.00
1573.272, 17568.00
1574.297, 17466.00
1575.322, 17521.00
1576.346, 17483.00
1577.371, 17720.00
##END=



