##NAMES=Rhodonite
##RRUFFID=R060549
##IDEAL CHEMISTRY=CaMn^2+^_3_Mn^2+^Si_5_O_15_
##LOCALITY=unknown
##OWNER=RRUFF
##SOURCE=Gemological Institute of America
##DESCRIPTION=Pink cleavage fragment
##STATUS=The identification of this mineral has been confirmed by X-ray diffraction and chemical analysis
##URL=rruff.info/R060549
##MEASURED CHEMISTRY=(Mn_0.76_Ca_0.12_Fe_0.07_Mg_0.06_)Si_0.99_O_3_
##PIN_ID=L01637
##ORIENTATION=Laser parallel to a* (1 0 0). Fiducial mark perpendicular to laser is parallel to b [0 1 0]
142.3280, 6002.000
143.5560, 6021.000
144.7840, 5960.000
146.0120, 5896.000
147.2400, 5942.000
148.4680, 6071.000
149.6950, 6066.000
150.9220, 6210.000
152.1500, 6382.000
153.3770, 6474.000
154.6030, 6712.000
155.8300, 6913.000
157.0570, 7194.000
158.2830, 7514.000
159.5090, 7616.000
160.7350, 7898.000
161.9610, 8046.000
163.1870, 8203.000
164.4130, 8196.000
165.6380, 8182.000
166.8630, 8065.000
168.0880, 7985.000
169.3130, 7736.000
170.5380, 7692.000
171.7630, 7495.000
172.9870, 7299.000
174.2120, 7208.000
175.4360, 7096.000
176.6600, 6991.000
177.8840, 6865.000
179.1080, 6910.000
180.3310, 6914.000
181.5550, 6836.000
182.7780, 6778.000
184.0010, 6677.000
185.2240, 6592.482
186.4470, 6408.000
187.6700, 6403.000
188.8920, 6206.000
190.1150, 6113.000
191.3370, 6080.000
192.5590, 6095.000
193.7810, 6103.000
195.0020, 6096.340
196.2240, 6141.000
197.4450, 6103.000
198.6670, 6114.000
199.8880, 6115.000
201.1090, 6231.000
202.3300, 6239.053
203.5500, 6167.000
204.7710, 6347.000
205.9910, 6338.000
207.2110, 6412.000
208.4310, 6530.000
209.6510, 6674.000
210.8710, 6709.000
212.0910, 6920.000
213.3100, 7011.000
214.5290, 7083.000
215.7480, 7072.000
216.9670, 7118.000
218.1860, 7007.000
219.4050, 6947.000
220.6230, 6964.000
221.8420, 6876.000
223.0600, 6809.000
224.2780, 6775.000
225.4960, 6718.000
226.7130, 6790.000
227.9310, 6790.816
229.1480, 6898.000
230.3660, 6946.000
231.5830, 6989.000
232.8000, 7192.000
234.0160, 7103.000
235.2330, 7175.000
236.4490, 7511.000
237.6660, 7575.000
238.8820, 7746.000
240.0980, 7763.000
241.3140, 7908.043
242.5300, 8168.000
243.7450, 8145.000
244.9600, 8312.000
246.1760, 8426.000
247.3910, 8653.000
248.6060, 8997.000
249.8200, 9146.000
251.0350, 9284.000
252.2500, 9372.000
253.4640, 9647.000
254.6780, 9867.000
255.8920, 10138.00
257.1060, 10398.00
258.3190, 10781.00
259.5330, 11084.00
260.7460, 11699.00
261.9600, 11830.00
263.1730, 12378.00
264.3850, 12306.00
265.5980, 12142.00
266.8110, 11925.00
268.0230, 11453.00
269.2360, 10971.00
270.4480, 10425.00
271.6600, 9955.000
272.8710, 9549.000
274.0830, 9057.000
275.2950, 8759.000
276.5060, 8445.000
277.7170, 8231.000
278.9280, 7963.000
280.1390, 7783.000
281.3500, 7627.000
282.5600, 7521.000
283.7710, 7304.000
284.9810, 7138.000
286.1910, 7155.000
287.4010, 7169.000
288.6110, 7096.000
289.8200, 7118.000
291.0300, 7215.000
292.2390, 7246.000
293.4480, 7416.000
294.6570, 7462.000
295.8660, 7484.000
297.0750, 7622.000
298.2830, 7845.000
299.4920, 7970.000
300.7000, 8119.000
301.9080, 8149.000
303.1160, 8198.000
304.3240, 8218.000
305.5310, 8274.000
306.7390, 8268.000
307.9460, 8176.000
309.1530, 8183.446
310.3600, 7999.000
311.5670, 8059.000
312.7740, 8005.000
313.9800, 7861.000
315.1870, 7931.000
316.3930, 7944.000
317.5990, 8108.000
318.8050, 8086.000
320.0110, 8260.000
321.2160, 8279.000
322.4220, 8583.000
323.6270, 8841.000
324.8320, 8843.000
326.0370, 9056.000
327.2420, 9178.000
328.4460, 9215.000
329.6510, 9290.000
330.8550, 9616.000
332.0590, 9681.000
333.2630, 9704.000
334.4670, 9998.000
335.6710, 9885.000
336.8740, 9948.000
338.0780, 10024.00
339.2810, 9891.000
340.4840, 9678.000
341.6870, 9545.000
342.8900, 9361.000
344.0920, 9212.000
345.2950, 8996.000
346.4970, 8932.000
347.6990, 8743.000
348.9010, 8535.000
350.1030, 8588.000
351.3050, 8400.000
352.5060, 8389.000
353.7080, 8280.000
354.9090, 8136.000
356.1100, 7948.000
357.3110, 7962.000
358.5110, 7838.000
359.7120, 7809.000
360.9120, 7790.000
362.1130, 7856.000
363.3130, 7833.000
364.5130, 7753.000
365.7120, 7772.000
366.9120, 7740.000
368.1120, 7670.000
369.3110, 7696.000
370.5100, 7622.000
371.7090, 7468.000
372.9080, 7494.000
374.1070, 7427.000
375.3050, 7232.000
376.5040, 7317.000
377.7020, 7349.000
378.9000, 7178.000
380.0980, 7234.000
381.2950, 7328.000
382.4930, 7363.000
383.6910, 7445.000
384.8880, 7452.000
386.0850, 7615.000
387.2820, 7619.000
388.4790, 7689.000
389.6750, 7717.000
390.8720, 7629.000
392.0680, 7585.000
393.2640, 7513.000
394.4600, 7371.000
395.6560, 7191.000
396.8520, 7086.000
398.0480, 6980.000
399.2430, 6866.000
400.4380, 6776.000
401.6330, 6803.000
402.8280, 6735.000
404.0230, 6859.000
405.2180, 6741.000
406.4120, 6799.000
407.6060, 6890.000
408.8000, 6863.000
409.9940, 6929.000
411.1880, 6872.000
412.3820, 6916.000
413.5750, 6964.000
414.7690, 6903.000
415.9620, 6859.000
417.1550, 6820.000
418.3480, 6816.004
419.5410, 6890.000
420.7330, 6813.000
421.9260, 6830.000
423.1180, 6786.000
424.3100, 6778.000
425.5020, 6690.000
426.6940, 6761.000
427.8850, 6748.000
429.0770, 6662.000
430.2680, 6695.000
431.4590, 6779.000
432.6500, 6751.000
433.8410, 6809.000
435.0320, 6820.000
436.2220, 6864.000
437.4130, 6825.000
438.6030, 6884.000
439.7930, 6878.000
440.9830, 6787.000
442.1730, 6859.000
443.3620, 6803.000
444.5520, 6770.000
445.7410, 6749.000
446.9300, 6840.000
448.1190, 6800.000
449.3080, 6847.000
450.4960, 6835.000
451.6850, 6842.968
452.8730, 6921.000
454.0610, 6892.000
455.2490, 6916.000
456.4370, 7003.000
457.6250, 6991.000
458.8130, 7073.000
460.0000, 7015.000
461.1870, 6954.000
462.3740, 7030.000
463.5610, 7003.000
464.7480, 6973.000
465.9340, 7050.000
467.1210, 7131.000
468.3070, 7067.000
469.4930, 6988.000
470.6790, 7099.000
471.8650, 7204.000
473.0510, 7150.000
474.2360, 7135.000
475.4210, 7047.000
476.6070, 6887.000
477.7920, 6927.000
478.9770, 6844.000
480.1610, 6665.000
481.3460, 6653.000
482.5300, 6726.000
483.7140, 6591.000
484.8980, 6599.000
486.0820, 6528.000
487.2660, 6605.000
488.4500, 6647.000
489.6330, 6678.000
490.8160, 6715.000
492.0000, 6730.000
493.1830, 6849.000
494.3650, 6935.000
495.5480, 6839.000
496.7300, 6911.000
497.9130, 6837.000
499.0950, 6898.000
500.2770, 6760.000
501.4590, 6743.000
502.6410, 6644.000
503.8220, 6711.000
505.0030, 6689.000
506.1850, 6657.000
507.3660, 6742.000
508.5470, 6834.000
509.7270, 6863.000
510.9080, 6860.944
512.0880, 6871.000
513.2690, 6788.000
514.4490, 6801.000
515.6290, 6762.000
516.8090, 6726.000
517.9880, 6706.000
519.1680, 6708.000
520.3470, 6639.000
521.5260, 6695.000
522.7050, 6602.000
523.8840, 6578.000
525.0630, 6617.000
526.2410, 6678.000
527.4200, 6603.000
528.5980, 6718.000
529.7760, 6592.000
530.9540, 6567.000
532.1320, 6643.000
533.3090, 6658.000
534.4870, 6685.000
535.6640, 6751.000
536.8410, 6726.000
538.0180, 6775.000
539.1950, 6818.047
540.3710, 6898.000
541.5480, 6916.000
542.7240, 6999.000
543.9000, 7052.000
545.0760, 7150.000
546.2520, 7126.000
547.4280, 7099.000
548.6040, 6980.000
549.7790, 7087.000
550.9540, 7147.000
552.1290, 7163.000
553.3040, 7288.000
554.4790, 7488.000
555.6530, 7518.577
556.8280, 7612.651
558.0020, 7671.000
559.1760, 7631.000
560.3500, 7669.000
561.5240, 7533.000
562.6980, 7534.000
563.8710, 7481.000
565.0440, 7400.000
566.2170, 7489.000
567.3900, 7415.000
568.5630, 7560.000
569.7360, 7679.000
570.9090, 7773.000
572.0810, 7800.000
573.2530, 7751.000
574.4250, 7802.000
575.5970, 7716.276
576.7690, 7585.000
577.9400, 7552.000
579.1120, 7377.000
580.2830, 7272.000
581.4540, 7206.000
582.6250, 7167.000
583.7960, 7171.000
584.9660, 7074.000
586.1370, 7111.000
587.3070, 7065.000
588.4770, 7123.000
589.6470, 7055.000
590.8170, 7022.000
591.9870, 7053.000
593.1560, 7124.000
594.3260, 7082.000
595.4950, 7098.000
596.6640, 7135.000
597.8330, 7077.000
599.0010, 7089.000
600.1700, 7142.000
601.3380, 7046.000
602.5070, 7108.000
603.6750, 7113.000
604.8430, 7135.000
606.0100, 7210.000
607.1780, 7288.000
608.3450, 7214.000
609.5130, 7213.000
610.6800, 7201.000
611.8470, 7178.000
613.0140, 7362.000
614.1800, 7233.000
615.3470, 7362.000
616.5130, 7397.000
617.6790, 7401.000
618.8450, 7500.000
620.0110, 7550.000
621.1770, 7575.000
622.3420, 7700.000
623.5080, 7814.000
624.6730, 7906.000
625.8380, 7912.000
627.0030, 8042.000
628.1680, 8057.000
629.3320, 8237.000
630.4970, 8125.000
631.6610, 8064.000
632.8250, 8166.000
633.9890, 8167.000
635.1530, 8135.000
636.3160, 8338.000
637.4800, 8298.000
638.6430, 8622.000
639.8060, 8633.000
640.9690, 8779.000
642.1320, 9108.000
643.2950, 9255.000
644.4570, 9613.000
645.6200, 9860.000
646.7820, 10057.00
647.9440, 10498.00
649.1060, 10930.51
650.2670, 11356.00
651.4290, 12127.00
652.5900, 12840.00
653.7520, 13720.00
654.9130, 14883.00
656.0740, 16437.00
657.2340, 18355.00
658.3950, 20269.00
659.5550, 22276.00
660.7160, 24829.00
661.8760, 27311.00
663.0360, 30043.00
664.1960, 32551.00
665.3550, 35776.00
666.5150, 39499.00
667.6740, 42896.00
668.8330, 45340.00
669.9920, 46195.00
671.1510, 45805.00
672.3100, 43570.00
673.4680, 40386.00
674.6270, 36329.00
675.7850, 32726.00
676.9430, 29572.00
678.1010, 26813.00
679.2590, 24901.00
680.4160, 22860.00
681.5740, 21154.00
682.7310, 19216.00
683.8880, 17743.00
685.0450, 16124.00
686.2020, 14874.00
687.3580, 13794.00
688.5150, 12739.00
689.6710, 12106.00
690.8270, 11532.00
691.9830, 11147.00
693.1390, 10707.00
694.2950, 10369.00
695.4500, 10036.00
696.6050, 9905.000
697.7610, 9697.000
698.9160, 9536.000
700.0710, 9359.000
701.2250, 9290.000
702.3800, 9346.000
703.5340, 9236.000
704.6880, 9330.000
705.8420, 9281.000
706.9960, 9282.000
708.1500, 9323.000
709.3040, 9496.000
710.4570, 9488.000
711.6100, 9723.000
712.7640, 9588.000
713.9160, 9735.000
715.0690, 9743.000
716.2220, 9781.000
717.3740, 9844.000
718.5270, 9799.250
719.6790, 9710.000
720.8310, 9720.000
721.9830, 9640.000
723.1340, 9581.000
724.2860, 9319.000
725.4370, 9126.000
726.5880, 8967.000
727.7390, 8930.000
728.8900, 8768.000
730.0410, 8676.000
731.1910, 8678.000
732.3420, 8508.000
733.4920, 8564.000
734.6420, 8595.000
735.7920, 8659.000
736.9420, 8658.000
738.0910, 8699.000
739.2410, 8694.000
740.3900, 8606.000
741.5390, 8592.806
742.6880, 8586.000
743.8370, 8518.000
744.9860, 8309.000
746.1340, 8357.000
747.2820, 8129.000
748.4310, 8088.000
749.5790, 8133.000
750.7260, 8082.000
751.8740, 7902.000
753.0220, 7882.000
754.1690, 7851.000
755.3160, 7906.000
756.4630, 7865.000
757.6100, 7802.000
758.7570, 7780.000
759.9030, 7768.000
761.0500, 7807.000
762.1960, 7805.000
763.3420, 7720.000
764.4880, 7738.000
765.6340, 7873.000
766.7790, 7669.000
767.9250, 7785.000
769.0700, 7909.000
770.2150, 7626.000
771.3600, 7730.000
772.5050, 7695.000
773.6490, 7803.000
774.7940, 7737.000
775.9380, 7717.000
777.0820, 7666.000
778.2260, 7719.000
779.3700, 7709.375
780.5140, 7784.000
781.6570, 7792.000
782.8010, 7763.000
783.9440, 7875.000
785.0870, 7833.000
786.2300, 7820.000
787.3720, 7838.000
788.5150, 7791.000
789.6570, 7785.000
790.8000, 7923.000
791.9420, 7871.000
793.0840, 7854.000
794.2250, 7930.000
795.3670, 7916.000
796.5080, 7864.000
797.6500, 7869.000
798.7910, 7891.000
799.9320, 7922.000
801.0720, 7930.000
802.2130, 7887.000
803.3530, 7842.000
804.4940, 7923.000
805.6340, 7961.000
806.7740, 8005.000
807.9140, 8052.000
809.0530, 7912.000
810.1930, 7949.000
811.3320, 7919.000
812.4710, 7887.000
813.6100, 8000.000
814.7490, 7849.000
815.8880, 7977.000
817.0270, 8019.000
818.1650, 7947.000
819.3030, 7934.000
820.4410, 8001.000
821.5790, 8114.000
822.7170, 8028.000
823.8540, 8081.000
824.9920, 8118.000
826.1290, 8097.000
827.2660, 8059.000
828.4030, 8125.000
829.5400, 8232.000
830.6760, 8188.000
831.8130, 8149.000
832.9490, 8085.000
834.0850, 8065.000
835.2210, 8037.000
836.3570, 8180.000
837.4930, 8130.000
838.6280, 8189.000
839.7640, 8167.000
840.8990, 8190.000
842.0340, 8205.000
843.1690, 8216.000
844.3030, 8195.000
845.4380, 8211.659
846.5720, 8281.000
847.7060, 8220.000
848.8400, 8295.000
849.9740, 8305.000
851.1080, 8376.000
852.2420, 8423.814
853.3750, 8472.047
854.5080, 8505.000
855.6410, 8579.000
856.7740, 8566.000
857.9070, 8598.000
859.0400, 8615.000
860.1720, 8697.000
861.3040, 8647.957
862.4360, 8701.000
863.5680, 8608.000
864.7000, 8609.000
865.8320, 8671.000
866.9630, 8553.000
868.0950, 8591.000
869.2260, 8531.000
870.3570, 8450.000
871.4880, 8588.000
872.6180, 8575.000
873.7490, 8686.000
874.8790, 8555.000
876.0090, 8667.000
877.1390, 8663.000
878.2690, 8711.000
879.3990, 8770.000
880.5280, 8711.000
881.6580, 8729.000
882.7870, 8769.000
883.9160, 8649.000
885.0450, 8768.000
886.1740, 8705.000
887.3020, 8662.000
888.4310, 8692.000
889.5590, 8745.000
890.6870, 8727.000
891.8150, 8825.000
892.9430, 8773.000
894.0700, 8745.000
895.1980, 8811.000
896.3250, 8842.000
897.4520, 8818.000
898.5790, 8919.000
899.7060, 8968.000
900.8330, 9007.000
901.9590, 9039.000
903.0850, 9091.000
904.2120, 9217.000
905.3380, 9147.000
906.4630, 9359.000
907.5890, 9383.000
908.7150, 9432.000
909.8400, 9542.000
910.9650, 9691.000
912.0900, 9662.000
913.2150, 9843.000
914.3400, 9738.000
915.4640, 9798.000
916.5890, 9897.000
917.7130, 9822.000
918.8370, 9667.000
919.9610, 9614.000
921.0850, 9540.000
922.2080, 9524.000
923.3320, 9469.000
924.4550, 9553.000
925.5780, 9456.000
926.7010, 9425.000
927.8240, 9516.000
928.9460, 9455.000
930.0690, 9439.000
931.1910, 9508.000
932.3130, 9627.000
933.4350, 9868.000
934.5570, 10012.00
935.6790, 10222.00
936.8000, 10363.00
937.9220, 10684.00
939.0430, 10762.00
940.1640, 10832.00
941.2850, 10760.00
942.4050, 10597.00
943.5260, 10578.00
944.6460, 10394.00
945.7660, 10227.00
946.8860, 10011.00
948.0060, 10038.00
949.1260, 10107.00
950.2460, 10196.00
951.3650, 10012.00
952.4840, 10281.00
953.6030, 10153.00
954.7220, 10381.00
955.8410, 10382.00
956.9590, 10601.00
958.0780, 10740.00
959.1960, 11015.00
960.3140, 11325.00
961.4320, 11581.00
962.5500, 12126.00
963.6680, 12767.00
964.7850, 13577.00
965.9020, 14326.00
967.0190, 15353.00
968.1360, 16498.00
969.2530, 18122.00
970.3700, 19719.00
971.4860, 21607.00
972.6030, 23498.00
973.7190, 24742.00
974.8350, 25944.00
975.9510, 26625.00
977.0660, 26392.00
978.1820, 25511.00
979.2970, 24370.00
980.4130, 23573.00
981.5280, 22775.00
982.6420, 22241.00
983.7570, 22051.00
984.8720, 21924.00
985.9860, 22078.00
987.1000, 22276.00
988.2140, 22608.00
989.3280, 22920.00
990.4420, 23401.00
991.5560, 24159.00
992.6690, 24851.00
993.7820, 25753.00
994.8950, 26998.00
996.0080, 28226.00
997.1210, 29716.00
998.2340, 30826.00
999.3460, 31910.00
1000.458, 32364.00
1001.571, 32464.00
1002.683, 31434.00
1003.794, 30279.00
1004.906, 28461.00
1006.017, 26451.00
1007.129, 24195.00
1008.240, 22254.00
1009.351, 20485.00
1010.462, 19144.00
1011.572, 17759.00
1012.683, 16808.00
1013.793, 15814.00
1014.904, 14929.00
1016.014, 14519.00
1017.123, 13896.00
1018.233, 13453.00
1019.343, 13311.00
1020.452, 13114.00
1021.561, 13043.00
1022.670, 12879.00
1023.779, 12634.00
1024.888, 12649.00
1025.997, 12492.00
1027.105, 12392.00
1028.213, 12204.00
1029.321, 12166.00
1030.429, 11969.00
1031.537, 11828.00
1032.645, 11801.00
1033.752, 11613.31
1034.859, 11412.00
1035.966, 11331.00
1037.073, 11260.00
1038.180, 11088.00
1039.287, 11147.00
1040.393, 11037.00
1041.500, 10948.00
1042.606, 10933.00
1043.712, 10930.00
1044.818, 10955.00
1045.923, 11091.00
1047.029, 11079.00
1048.134, 11291.00
1049.239, 11430.00
1050.344, 11407.00
1051.449, 11432.00
1052.554, 11225.00
1053.658, 11046.00
1054.763, 10964.00
1055.867, 10806.00
1056.971, 10778.00
1058.075, 10598.00
1059.179, 10382.00
1060.282, 10475.00
1061.385, 10148.00
1062.489, 10206.00
1063.592, 10174.00
1064.695, 10185.00
1065.797, 10078.00
1066.900, 10040.00
1068.002, 10046.00
1069.105, 9929.000
1070.207, 9945.000
1071.309, 9837.000
1072.411, 9926.000
1073.512, 9864.000
1074.614, 9833.000
1075.715, 9702.000
1076.816, 9742.000
1077.917, 9796.000
1079.018, 9926.000
1080.118, 9789.000
1081.219, 9850.000
1082.319, 9895.000
1083.419, 9897.000
1084.519, 9966.000
1085.619, 9803.000
1086.719, 9889.000
1087.818, 9740.000
1088.918, 9905.000
1090.017, 9880.000
1091.116, 9779.000
1092.215, 9658.000
1093.314, 9796.000
1094.412, 9739.000
1095.510, 9752.000
1096.609, 9668.000
1097.707, 9654.000
1098.805, 9704.000
1099.902, 9637.000
1101.000, 9816.000
1102.097, 9613.000
1103.195, 9606.000
1104.292, 9753.000
1105.389, 9654.000
1106.485, 9838.000
1107.582, 9765.000
1108.678, 9723.000
1109.775, 9851.000
1110.871, 9882.000
1111.967, 9842.000
1113.062, 9801.000
1114.158, 9734.000
1115.254, 9686.000
1116.349, 9700.625
1117.444, 9690.510
1118.539, 9767.000
1119.634, 9726.000
1120.728, 9796.000
1121.823, 9790.000
1122.917, 9904.000
1124.011, 9785.000
1125.105, 9774.000
1126.199, 9832.000
1127.293, 9752.000
1128.386, 9719.000
1129.480, 9728.000
1130.573, 9712.000
1131.666, 9679.000
1132.759, 9732.000
1133.851, 9901.000
1134.944, 9709.000
1136.036, 9789.000
1137.129, 9695.000
1138.221, 9855.000
1139.313, 9728.000
1140.404, 9649.000
1141.496, 9649.000
1142.587, 9705.000
1143.678, 9769.000
1144.770, 9786.000
1145.860, 9785.000
1146.951, 9775.000
1148.042, 9842.000
1149.132, 9798.000
1150.223, 9721.000
1151.313, 9744.000
1152.403, 9813.000
1153.492, 9737.000
1154.582, 9815.000
1155.671, 9881.000
1156.761, 9797.000
1157.850, 9719.000
1158.939, 9818.000
1160.028, 9670.000
1161.116, 9718.000
1162.205, 9785.000
1163.293, 9872.000
1164.381, 9746.000
1165.469, 9857.000
1166.557, 9776.000
1167.645, 9828.000
1168.732, 9923.000
1169.820, 9843.000
1170.907, 9661.000
1171.994, 9781.000
1173.081, 9768.000
1174.167, 9899.000
1175.254, 9881.248
1176.340, 9832.000
1177.426, 9872.000
1178.512, 9853.000
1179.598, 9868.000
1180.684, 9777.000
1181.770, 9832.000
1182.855, 9880.000
1183.940, 9775.000
1185.025, 9974.000
1186.110, 9898.000
1187.195, 9867.000
1188.280, 9894.000
1189.364, 9845.000
1190.448, 9888.000
1191.532, 9979.000
1192.616, 9919.000
1193.700, 9814.000
1194.784, 9656.000
1195.867, 9766.000
1196.950, 9925.000
1198.034, 9814.000
1199.117, 9906.000
1200.199, 9764.000
1201.282, 9983.000
1202.364, 9860.000
1203.447, 9926.000
1204.529, 9905.000
1205.611, 9919.000
1206.693, 10024.00
1207.774, 9877.000
1208.856, 9965.000
1209.937, 9944.000
1211.018, 9981.000
1212.099, 9911.000
1213.180, 10022.00
1214.261, 9949.000
1215.341, 10112.00
1216.422, 9967.000
1217.502, 10206.00
1218.582, 10024.00
1219.662, 10172.00
1220.742, 9946.000
1221.821, 9937.000
1222.900, 9984.000
1223.980, 9901.000
1225.059, 10038.00
1226.138, 10059.00
1227.216, 10183.00
1228.295, 10112.00
1229.373, 10117.00
1230.452, 10048.00
1231.530, 10215.00
1232.608, 10295.00
1233.685, 10249.00
1234.763, 10070.00
1235.840, 10311.00
1236.918, 10127.00
1237.995, 10126.00
1239.072, 10223.00
1240.149, 10205.00
1241.225, 10279.00
1242.302, 10277.45
1243.378, 10281.00
1244.454, 10279.00
1245.530, 10250.00
1246.606, 10268.00
1247.681, 10292.00
1248.757, 10248.00
1249.832, 10318.00
1250.907, 10339.00
1251.982, 10307.00
1253.057, 10344.00
1254.132, 10274.00
1255.206, 10328.00
1256.281, 10311.00
1257.355, 10202.00
1258.429, 10224.00
1259.503, 10302.00
1260.576, 10346.00
1261.650, 10359.00
1262.723, 10359.00
1263.797, 10446.00
1264.870, 10443.00
1265.942, 10448.00
1267.015, 10382.00
1268.088, 10501.00
1269.160, 10558.00
1270.232, 10562.00
1271.304, 10395.00
1272.376, 10564.00
1273.448, 10556.00
1274.520, 10457.00
1275.591, 10581.00
1276.662, 10499.00
1277.733, 10499.00
1278.804, 10501.00
1279.875, 10552.00
1280.946, 10684.00
1282.016, 10444.00
1283.086, 10480.00
1284.156, 10334.00
1285.226, 10510.00
1286.296, 10432.00
1287.366, 10450.00
1288.435, 10648.00
1289.505, 10568.00
1290.574, 10499.00
1291.643, 10454.00
1292.711, 10481.00
1293.780, 10537.00
1294.849, 10563.00
1295.917, 10584.00
1296.985, 10581.00
1298.053, 10642.00
1299.121, 10554.00
1300.189, 10648.00
1301.256, 10694.00
1302.323, 10627.00
1303.391, 10657.00
1304.458, 10663.00
1305.524, 10627.00
1306.591, 10686.00
1307.658, 10743.00
1308.724, 10812.00
1309.790, 10916.00
1310.856, 10774.00
1311.922, 10856.00
1312.988, 10755.00
1314.053, 10843.00
1315.119, 10816.00
1316.184, 10753.00
1317.249, 10812.00
1318.314, 10883.00
1319.379, 10941.00
1320.443, 10890.00
1321.508, 10903.00
1322.572, 10920.00
1323.636, 10809.00
1324.700, 10977.00
1325.764, 10929.00
1326.827, 10823.00
1327.891, 10685.00
1328.954, 10899.00
1330.017, 10770.00
1331.080, 10917.00
1332.143, 10795.00
1333.205, 10774.00
1334.268, 10770.00
1335.330, 10852.00
1336.392, 10746.00
1337.454, 10804.00
1338.516, 10855.00
1339.578, 10797.00
1340.639, 10826.00
1341.701, 10908.00
1342.762, 10783.00
1343.823, 10901.00
1344.883, 10860.00
1345.944, 10780.00
1347.005, 10668.00
1348.065, 10805.00
1349.125, 10836.00
1350.185, 10771.00
1351.245, 10867.00
1352.305, 10878.00
1353.364, 10907.00
1354.424, 10852.00
1355.483, 10934.00
1356.542, 10944.00
1357.601, 10817.00
1358.659, 10911.00
1359.718, 10953.00
1360.776, 10824.00
1361.834, 10878.00
1362.893, 10839.00
1363.950, 10980.00
1365.008, 10877.00
1366.066, 10929.00
1367.123, 10943.00
1368.180, 10872.00
1369.237, 11054.00
1370.294, 11092.00
1371.351, 10882.00
1372.408, 10933.00
1373.464, 11077.00
1374.520, 11033.00
1375.576, 11041.00
1376.632, 10960.00
1377.688, 11122.00
1378.744, 10981.00
1379.799, 11053.00
1380.854, 11105.00
1381.910, 11043.00
1382.965, 11074.00
1384.019, 11136.00
1385.074, 11128.00
1386.128, 11118.00
1387.183, 11003.00
1388.237, 11246.00
1389.291, 11172.00
1390.345, 11194.00
1391.398, 10989.00
1392.452, 11134.00
1393.505, 10892.00
1394.558, 11134.00
1395.611, 11029.00
1396.664, 11046.00
1397.717, 11127.00
1398.769, 11162.00
1399.822, 11150.21
1400.874, 11122.00
1401.926, 11119.00
1402.978, 11113.00
1404.029, 11114.00
1405.081, 11098.00
1406.132, 11092.51
1407.183, 11148.00
1408.234, 11094.00
1409.285, 11073.00
1410.336, 11120.00
1411.387, 11272.00
1412.437, 11142.00
1413.487, 11220.00
1414.537, 11315.00
1415.587, 11209.00
1416.637, 11174.00
1417.686, 11120.00
1418.736, 11263.00
1419.785, 11234.00
1420.834, 11262.00
1421.883, 11235.00
1422.932, 11229.00
1423.980, 11280.00
1425.029, 11324.00
1426.077, 11261.00
1427.125, 11310.00
1428.173, 11322.00
1429.221, 11314.00
1430.269, 11247.00
1431.316, 11463.00
1432.363, 11404.00
1433.410, 11515.00
1434.457, 11392.00
1435.504, 11486.00
1436.551, 11477.00
1437.597, 11495.43
1438.644, 11612.00
1439.690, 11644.00
1440.736, 11677.00
1441.781, 11884.00
1442.827, 11908.00
1443.873, 11886.00
1444.918, 11967.00
1445.963, 11919.00
1447.008, 11968.00
1448.053, 12062.00
1449.098, 12012.00
1450.142, 11973.00
1451.186, 12095.00
1452.231, 12191.00
1453.275, 12244.00
1454.319, 12065.00
1455.362, 12166.00
1456.406, 12084.00
1457.449, 12216.00
1458.492, 12120.00
1459.535, 12036.00
1460.578, 12128.00
1461.621, 11998.00
1462.663, 12162.00
1463.706, 11930.00
1464.748, 12018.00
1465.790, 11929.00
1466.832, 11805.00
1467.874, 11904.00
1468.915, 11903.00
1469.957, 11783.00
1470.998, 11757.00
1472.039, 11704.00
1473.080, 11702.00
1474.121, 11822.00
1475.161, 11780.00
1476.202, 11890.00
1477.242, 11831.00
1478.282, 11753.00
1479.322, 11808.00
1480.362, 11775.00
1481.401, 11894.00
1482.441, 11716.00
1483.480, 11847.00
1484.519, 11743.00
1485.558, 11771.00
1486.597, 11661.00
1487.636, 11783.00
1488.674, 11657.00
1489.712, 11764.00
1490.751, 11672.00
1491.788, 11773.00
1492.826, 11696.00
1493.864, 11625.00
1494.901, 11689.00
1495.939, 11586.00
1496.976, 11591.00
1498.013, 11638.00
1499.050, 11563.00
1500.086, 11624.00
1501.123, 11636.00
1502.159, 11497.00
1503.195, 11719.00
1504.231, 11611.00
1505.267, 11503.00
1506.303, 11657.00
1507.338, 11647.00
1508.374, 11671.00
1509.409, 11760.00
1510.444, 11605.00
1511.479, 11718.00
1512.514, 11854.00
1513.548, 11657.00
1514.583, 11690.00
1515.617, 11759.00
1516.651, 11658.00
1517.685, 11721.00
1518.718, 11586.00
1519.752, 11842.00
1520.785, 11694.00
1521.819, 11812.00
1522.852, 11819.00
1523.885, 11915.00
1524.917, 11840.00
1525.950, 11918.00
1526.982, 11841.00
1528.015, 11934.00
1529.047, 11878.00
1530.079, 11812.00
1531.110, 11981.00
1532.142, 11910.00
1533.173, 12030.00
1534.205, 11939.00
1535.236, 11940.00
1536.267, 11928.00
1537.298, 11809.00
1538.328, 11877.00
1539.359, 12013.00
1540.389, 11864.00
1541.419, 11819.00
1542.449, 11961.00
1543.479, 11970.00
1544.508, 11873.00
1545.538, 11903.00
1546.567, 11918.00
1547.596, 11997.00
1548.625, 12028.00
1549.654, 11885.00
1550.683, 11893.00
1551.711, 12024.00
1552.740, 12080.00
1553.768, 11868.00
1554.796, 12037.00
1555.824, 11944.00
1556.851, 12023.00
1557.879, 11955.00
1558.906, 11973.00
1559.933, 12055.00
1560.960, 11886.00
1561.987, 11988.00
1563.014, 12079.00
1564.041, 11946.00
1565.067, 12113.00
1566.093, 12021.00
1567.119, 12087.00
1568.145, 12123.00
1569.171, 12104.61
1570.196, 12161.00
1571.222, 12117.00
1572.247, 12032.00
1573.272, 12003.00
1574.297, 12055.00
1575.322, 12153.00
1576.346, 12285.00
1577.371, 12320.00
##END=



