##NAMES=Rhodonite
##RRUFFID=R040041
##IDEAL CHEMISTRY=CaMn^2+^_3_Mn^2+^Si_5_O_15_
##LOCALITY=Franklin, Sussex County, New Jersey, USA
##OWNER=RRUFF
##SOURCE=University of Arizona Mineral Museum
##DESCRIPTION=Pink prismatic crystals
##STATUS=The identification of this mineral has been confirmed by X-ray diffraction and chemical analysis
##URL=rruff.info/R040041
##MEASURED CHEMISTRY=(Mn_0.63_Ca_0.21_Zn_0.12_Mg_0.02_Fe_0.02_)_Î£=1_Si_1.00_O_3_
##PIN_ID=L00154
##ORIENTATION=Laser parallel to (1 1 0). Fiducial mark perpendicular to laser is parallel to c [0 0 1]
64.63500, 526.0000
65.87000, 573.0000
67.10500, 645.0000
68.34000, 707.0000
69.57400, 814.0000
70.80900, 894.0000
72.04300, 1119.000
73.27700, 1424.000
74.51100, 1857.000
75.74500, 2240.000
76.97800, 2581.000
78.21200, 2870.708
79.44500, 3250.000
80.67800, 3328.000
81.91200, 3495.000
83.14400, 3644.000
84.37700, 4024.000
85.61000, 4553.000
86.84200, 4971.000
88.07500, 5510.000
89.30700, 6235.000
90.53900, 7378.000
91.77100, 8736.000
93.00200, 10460.00
94.23400, 12267.00
95.46500, 13939.00
96.69700, 15778.00
97.92800, 17760.00
99.15900, 19181.00
100.3900, 20774.00
101.6200, 22176.00
102.8510, 23056.00
104.0810, 23207.00
105.3120, 23816.00
106.5420, 24664.00
107.7720, 25848.00
109.0020, 26703.00
110.2310, 28048.00
111.4610, 29221.00
112.6900, 30104.00
113.9190, 29807.00
115.1480, 29236.00
116.3770, 27315.00
117.6060, 25074.00
118.8350, 23123.00
120.0630, 21993.00
121.2920, 21806.00
122.5200, 22193.00
123.7480, 22722.00
124.9760, 23057.00
126.2040, 23686.00
127.4310, 23578.00
128.6590, 23101.00
129.8860, 22289.00
131.1130, 21173.00
132.3400, 19522.00
133.5670, 18468.00
134.7940, 17572.00
136.0200, 16503.00
137.2470, 15935.00
138.4730, 15264.00
139.6990, 14824.00
140.9250, 14776.00
142.1510, 14477.00
143.3770, 14337.00
144.6020, 13958.00
145.8280, 13682.00
147.0530, 13499.00
148.2780, 13096.00
149.5030, 12846.00
150.7280, 12939.00
151.9520, 12799.00
153.1770, 13148.00
154.4010, 13173.00
155.6250, 13269.00
156.8490, 13219.00
158.0730, 13083.00
159.2970, 12539.00
160.5210, 12097.00
161.7440, 12126.00
162.9680, 11691.00
164.1910, 11585.00
165.4140, 11796.00
166.6370, 12232.00
167.8590, 12556.00
169.0820, 13087.00
170.3040, 13684.00
171.5270, 14493.00
172.7490, 15143.00
173.9710, 15522.00
175.1930, 15733.03
176.4140, 15821.00
177.6360, 15504.00
178.8570, 15072.00
180.0780, 14421.00
181.2990, 13659.00
182.5200, 12669.00
183.7410, 11850.00
184.9620, 11370.00
186.1820, 10607.00
187.4030, 10296.00
188.6230, 10113.00
189.8430, 9962.000
191.0630, 10092.00
192.2830, 9969.000
193.5020, 9977.324
194.7220, 9944.743
195.9410, 9948.000
197.1600, 9803.000
198.3790, 9744.000
199.5980, 9613.000
200.8170, 9674.712
202.0350, 9729.000
203.2540, 9919.000
204.4720, 10154.00
205.6900, 10474.00
206.9080, 11029.00
208.1260, 11553.00
209.3430, 11957.00
210.5610, 12623.00
211.7780, 13209.00
212.9960, 13470.00
214.2130, 13807.00
215.4290, 13777.00
216.6460, 13673.00
217.8630, 13509.00
219.0790, 13034.00
220.2960, 12656.00
221.5120, 12358.00
222.7280, 12152.87
223.9440, 11988.53
225.1590, 11977.00
226.3750, 11934.00
227.5900, 11995.57
228.8060, 12234.00
230.0210, 12444.00
231.2360, 12731.00
232.4510, 13300.00
233.6650, 13779.00
234.8800, 14357.00
236.0940, 15217.00
237.3080, 16095.00
238.5220, 17067.00
239.7360, 18157.00
240.9500, 19311.00
242.1640, 20685.00
243.3770, 21553.00
244.5910, 22595.00
245.8040, 23395.00
247.0170, 24109.62
248.2300, 24856.00
249.4420, 25351.00
250.6550, 25887.00
251.8670, 26409.00
253.0800, 26670.00
254.2920, 27369.00
255.5040, 27864.00
256.7160, 28656.00
257.9270, 29733.00
259.1390, 30651.00
260.3500, 31567.00
261.5610, 31652.00
262.7720, 31636.00
263.9830, 31183.00
265.1940, 30030.00
266.4050, 28676.00
267.6150, 26448.00
268.8260, 24836.00
270.0360, 22846.00
271.2460, 21218.00
272.4560, 19867.00
273.6650, 19005.00
274.8750, 18250.00
276.0840, 17732.00
277.2940, 17452.00
278.5030, 17182.00
279.7120, 16993.00
280.9200, 17033.00
282.1290, 16721.00
283.3380, 16664.00
284.5460, 16270.00
285.7540, 15937.00
286.9620, 15604.00
288.1700, 15213.00
289.3780, 14708.00
290.5860, 14491.00
291.7930, 13945.00
293.0000, 13718.00
294.2080, 13619.00
295.4150, 13451.00
296.6210, 13643.00
297.8280, 13759.00
299.0350, 13920.00
300.2410, 14071.00
301.4470, 14280.00
302.6530, 14601.00
303.8590, 14732.00
305.0650, 14875.00
306.2710, 14863.00
307.4760, 15135.00
308.6820, 15580.00
309.8870, 15890.00
311.0920, 16418.00
312.2970, 17176.00
313.5020, 18128.00
314.7060, 18940.00
315.9110, 19930.00
317.1150, 21084.00
318.3190, 22313.00
319.5230, 23645.00
320.7270, 24619.00
321.9300, 25329.00
323.1340, 26309.00
324.3370, 26520.00
325.5410, 26561.00
326.7440, 26865.00
327.9470, 26538.00
329.1490, 26556.00
330.3520, 26641.00
331.5550, 26917.00
332.7570, 27128.00
333.9590, 27594.00
335.1610, 27779.00
336.3630, 28093.00
337.5650, 28259.00
338.7660, 27965.00
339.9680, 27627.00
341.1690, 26593.00
342.3700, 26033.00
343.5710, 25044.00
344.7720, 24155.00
345.9720, 23464.00
347.1730, 23111.00
348.3730, 22186.00
349.5730, 21732.00
350.7730, 20930.00
351.9730, 20271.00
353.1730, 19860.00
354.3730, 19398.00
355.5720, 19442.00
356.7710, 19435.00
357.9710, 19752.00
359.1700, 20241.00
360.3680, 20771.00
361.5670, 21569.00
362.7660, 22254.00
363.9640, 22888.00
365.1620, 23799.00
366.3600, 24107.00
367.5580, 24474.00
368.7560, 24383.00
369.9540, 24279.00
371.1510, 23679.00
372.3480, 22979.00
373.5450, 22099.00
374.7420, 20942.00
375.9390, 19783.00
377.1360, 19070.00
378.3330, 18133.00
379.5290, 17317.00
380.7250, 16936.00
381.9210, 16631.00
383.1170, 16233.00
384.3130, 16183.00
385.5090, 16278.00
386.7040, 16153.00
387.8990, 15841.00
389.0950, 15622.00
390.2900, 15279.00
391.4850, 14653.00
392.6790, 14223.00
393.8740, 13823.00
395.0680, 13238.00
396.2620, 12724.00
397.4570, 12267.00
398.6510, 12101.00
399.8440, 11770.00
401.0380, 11816.00
402.2310, 11865.00
403.4250, 11879.00
404.6180, 12019.00
405.8110, 12518.00
407.0040, 12788.00
408.1970, 13141.00
409.3890, 13549.00
410.5820, 14327.00
411.7740, 15076.00
412.9660, 15831.00
414.1580, 16769.00
415.3500, 17707.00
416.5420, 18734.00
417.7330, 19486.00
418.9240, 20000.00
420.1160, 20176.42
421.3070, 20037.80
422.4980, 19682.00
423.6880, 18880.00
424.8790, 17839.00
426.0690, 16551.00
427.2600, 15403.00
428.4500, 14486.00
429.6400, 13565.86
430.8300, 12743.00
432.0190, 12179.00
433.2090, 11799.00
434.3980, 11419.00
435.5870, 11430.00
436.7760, 11224.00
437.9650, 11043.00
439.1540, 10975.00
440.3430, 10929.00
441.5310, 10991.00
442.7190, 10765.00
443.9080, 10815.00
445.0960, 10761.00
446.2830, 10684.00
447.4710, 10698.00
448.6590, 10609.00
449.8460, 10508.00
451.0330, 10704.00
452.2200, 10595.00
453.4070, 10724.00
454.5940, 10618.00
455.7800, 10691.00
456.9670, 10470.00
458.1530, 10498.00
459.3390, 10180.00
460.5250, 10126.00
461.7110, 10251.00
462.8970, 9781.000
464.0820, 9780.000
465.2680, 9894.000
466.4530, 9894.000
467.6380, 9823.000
468.8230, 9812.000
470.0080, 9781.000
471.1920, 9765.751
472.3770, 9761.000
473.5610, 9782.000
474.7450, 9796.000
475.9290, 9854.000
477.1130, 9846.016
478.2970, 10058.00
479.4800, 9910.000
480.6640, 9826.000
481.8470, 9974.000
483.0300, 10078.00
484.2130, 10122.00
485.3960, 10316.00
486.5780, 10472.25
487.7610, 10605.00
488.9430, 10936.00
490.1250, 11251.00
491.3070, 11603.00
492.4890, 11778.00
493.6710, 12039.61
494.8520, 12320.00
496.0340, 12377.00
497.2150, 12533.00
498.3960, 12577.00
499.5770, 12510.00
500.7570, 12780.00
501.9380, 12748.00
503.1180, 13149.25
504.2990, 14096.00
505.4790, 14267.00
506.6590, 15144.00
507.8390, 16343.00
509.0180, 17057.00
510.1980, 17864.00
511.3770, 18644.00
512.5560, 19186.00
513.7360, 19584.00
514.9140, 19669.00
516.0930, 18968.00
517.2720, 18083.00
518.4500, 17210.00
519.6290, 16058.00
520.8070, 14912.00
521.9850, 14152.00
523.1620, 13443.00
524.3400, 12674.00
525.5180, 12035.00
526.6950, 11480.00
527.8720, 11166.00
529.0490, 10749.00
530.2260, 10518.00
531.4030, 10310.00
532.5790, 10094.00
533.7560, 10002.00
534.9320, 9897.000
536.1080, 9851.000
537.2840, 9823.354
538.4600, 9888.479
539.6360, 9934.457
540.8110, 9962.298
541.9860, 9917.755
543.1620, 9966.699
544.3370, 9978.166
545.5120, 9988.100
546.6860, 10134.00
547.8610, 10146.00
549.0350, 10278.00
550.2090, 10560.00
551.3840, 10743.00
552.5580, 11019.00
553.7310, 11140.00
554.9050, 11322.00
556.0780, 11566.00
557.2520, 11534.00
558.4250, 11535.00
559.5980, 11440.18
560.7710, 11317.13
561.9430, 10956.92
563.1160, 10983.89
564.2880, 10954.75
565.4610, 10872.34
566.6330, 10577.52
567.8050, 10557.09
568.9760, 10426.79
570.1480, 10291.89
571.3200, 10310.07
572.4910, 10164.00
573.6620, 10121.00
574.8330, 10096.00
576.0040, 9951.000
577.1740, 9943.000
578.3450, 9892.000
579.5150, 9782.000
580.6860, 9765.000
581.8560, 9657.000
583.0260, 9693.000
584.1950, 9655.000
585.3650, 9592.000
586.5340, 9585.000
587.7040, 9420.000
588.8730, 9443.000
590.0420, 9452.000
591.2110, 9382.000
592.3790, 9454.000
593.5480, 9417.000
594.7160, 9496.000
595.8840, 9475.000
597.0520, 9573.000
598.2200, 9625.000
599.3880, 9603.000
600.5550, 9610.000
601.7230, 9649.000
602.8900, 9552.000
604.0570, 9764.000
605.2240, 9727.000
606.3910, 9857.000
607.5580, 9865.000
608.7240, 9902.000
609.8900, 9981.000
611.0570, 10007.00
612.2230, 10171.00
613.3880, 10272.00
614.5540, 10406.00
615.7200, 10301.00
616.8850, 10455.00
618.0500, 10512.00
619.2150, 10667.00
620.3800, 10780.82
621.5450, 10969.00
622.7100, 11038.00
623.8740, 11173.00
625.0380, 11318.00
626.2020, 11420.00
627.3660, 11682.00
628.5300, 11865.00
629.6940, 12085.00
630.8570, 12282.00
632.0210, 12715.00
633.1840, 12876.00
634.3470, 13257.00
635.5100, 13450.00
636.6730, 13820.00
637.8350, 14392.00
638.9980, 14780.00
640.1600, 15264.00
641.3220, 15841.00
642.4840, 16290.00
643.6460, 17249.00
644.8070, 18026.00
645.9690, 18959.00
647.1300, 20098.00
648.2910, 21539.00
649.4520, 23265.00
650.6130, 25623.00
651.7740, 28425.00
652.9340, 31706.00
654.0950, 36239.00
655.2550, 41234.00
656.4150, 47832.00
657.5750, 55969.00
658.7350, 66263.00
659.8940, 78205.00
661.0540, 92115.00
662.2130, 107032.0
663.3720, 122596.0
664.5310, 137434.0
665.6900, 150751.0
666.8490, 161025.0
668.0070, 166165.0
669.1650, 166196.0
670.3240, 161091.0
671.4820, 149803.0
672.6400, 135922.0
673.7970, 119778.0
674.9550, 104035.0
676.1120, 90444.00
677.2690, 78968.00
678.4270, 69373.00
679.5830, 61118.00
680.7400, 54525.00
681.8970, 48696.00
683.0530, 43328.00
684.2100, 38603.00
685.3660, 34403.00
686.5220, 30173.00
687.6780, 26892.00
688.8330, 24350.00
689.9890, 22118.00
691.1440, 20565.00
692.2990, 19061.00
693.4540, 17896.00
694.6090, 16949.00
695.7640, 16186.00
696.9180, 15731.00
698.0730, 15296.00
699.2270, 14927.00
700.3810, 14820.00
701.5350, 14666.00
702.6890, 14867.00
703.8430, 15035.94
704.9960, 15261.00
706.1490, 15875.00
707.3030, 16377.00
708.4560, 17214.00
709.6080, 18105.00
710.7610, 19115.00
711.9140, 19830.00
713.0660, 20677.00
714.2180, 21262.00
715.3700, 21228.00
716.5220, 20919.00
717.6740, 20208.00
718.8250, 19126.00
719.9770, 17784.00
721.1280, 16545.00
722.2790, 15645.00
723.4300, 14645.00
724.5810, 13957.00
725.7320, 13542.00
726.8820, 12868.00
728.0320, 12710.00
729.1830, 12573.00
730.3330, 12305.00
731.4820, 12262.00
732.6320, 12248.00
733.7820, 12235.00
734.9310, 12190.00
736.0800, 12422.00
737.2290, 12214.00
738.3780, 12460.00
739.5270, 12544.00
740.6750, 12403.15
741.8240, 12323.00
742.9720, 12079.00
744.1200, 12083.00
745.2680, 11657.00
746.4160, 11443.00
747.5640, 11351.00
748.7110, 11139.00
749.8580, 10894.00
751.0060, 10852.00
752.1530, 10619.00
753.2990, 10590.00
754.4460, 10449.00
755.5930, 10421.00
756.7390, 10340.00
757.8850, 10289.00
759.0310, 10319.00
760.1770, 10128.00
761.3230, 10264.00
762.4690, 10193.00
763.6140, 10155.00
764.7590, 10259.00
765.9040, 10241.00
767.0490, 10329.00
768.1940, 10262.00
769.3390, 10199.96
770.4830, 10178.00
771.6270, 10146.42
772.7720, 10154.00
773.9160, 10163.00
775.0590, 10117.00
776.2030, 10206.00
777.3470, 10006.00
778.4900, 10200.00
779.6330, 10159.00
780.7760, 10271.00
781.9190, 10123.00
783.0620, 10079.00
784.2040, 10104.00
785.3470, 10261.00
786.4890, 10098.00
787.6310, 10233.00
788.7730, 10218.00
789.9150, 10138.00
791.0570, 10385.00
792.1980, 10190.00
793.3390, 10209.00
794.4810, 10275.00
795.6210, 10151.00
796.7620, 10301.00
797.9030, 10280.00
799.0430, 10173.00
800.1840, 10316.00
801.3240, 10318.00
802.4640, 10333.00
803.6040, 10463.00
804.7440, 10320.00
805.8830, 10396.00
807.0230, 10357.00
808.1620, 10460.00
809.3010, 10396.00
810.4400, 10404.00
811.5790, 10379.00
812.7170, 10398.00
813.8560, 10401.72
814.9940, 10427.78
816.1320, 10435.00
817.2700, 10474.00
818.4080, 10510.00
819.5460, 10478.00
820.6830, 10447.00
821.8200, 10367.00
822.9580, 10361.54
824.0950, 10350.40
825.2310, 10352.00
826.3680, 10420.00
827.5050, 10488.00
828.6410, 10639.00
829.7770, 10490.00
830.9130, 10459.00
832.0490, 10410.00
833.1850, 10668.00
834.3210, 10495.00
835.4560, 10411.00
836.5910, 10698.00
837.7260, 10593.00
838.8610, 10476.00
839.9960, 10580.00
841.1310, 10588.00
842.2650, 10704.00
843.4000, 10843.00
844.5340, 10755.84
845.6680, 11018.00
846.8010, 10623.00
847.9350, 10864.00
849.0690, 10832.00
850.2020, 10942.00
851.3350, 10837.00
852.4680, 11110.00
853.6010, 11107.00
854.7340, 11162.00
855.8660, 11168.00
856.9990, 11355.00
858.1310, 11468.00
859.2630, 11442.00
860.3950, 11806.00
861.5270, 12057.00
862.6580, 12435.00
863.7900, 12820.00
864.9210, 13354.00
866.0520, 13757.00
867.1830, 14404.00
868.3140, 15218.00
869.4450, 15875.00
870.5750, 16851.00
871.7060, 17663.00
872.8360, 18176.00
873.9660, 18626.46
875.0960, 18814.39
876.2250, 18948.00
877.3550, 18725.00
878.4840, 18510.00
879.6130, 18151.00
880.7420, 17687.00
881.8710, 17434.00
883.0000, 17318.00
884.1290, 17119.00
885.2570, 16900.00
886.3850, 16901.00
887.5130, 16970.00
888.6410, 16807.00
889.7690, 16623.00
890.8970, 16386.00
892.0240, 16141.00
893.1510, 15672.00
894.2790, 15187.00
895.4050, 14792.00
896.5320, 14433.00
897.6590, 14026.00
898.7850, 13833.00
899.9120, 13968.00
901.0380, 13707.00
902.1640, 13964.00
903.2900, 14006.00
904.4150, 14111.00
905.5410, 14419.00
906.6660, 14731.16
907.7920, 15446.00
908.9170, 15732.00
910.0420, 16371.00
911.1660, 17171.00
912.2910, 17386.00
913.4150, 17692.00
914.5400, 17827.00
915.6640, 17653.00
916.7880, 17534.00
917.9110, 17271.00
919.0350, 16676.00
920.1580, 16456.00
921.2820, 16009.00
922.4050, 15716.00
923.5280, 15465.00
924.6510, 15342.00
925.7730, 15418.00
926.8960, 15565.00
928.0180, 15678.00
929.1400, 16053.35
930.2620, 16335.00
931.3840, 16968.00
932.5060, 17666.00
933.6270, 18327.00
934.7490, 19067.00
935.8700, 19661.00
936.9910, 20073.00
938.1120, 20097.00
939.2330, 19732.00
940.3530, 18974.00
941.4740, 18321.00
942.5940, 17406.00
943.7140, 16994.00
944.8340, 16309.00
945.9540, 16024.00
947.0730, 15876.00
948.1930, 15872.00
949.3120, 15874.00
950.4310, 16114.00
951.5500, 16186.00
952.6690, 16616.00
953.7870, 16850.00
954.9060, 17354.00
956.0240, 18048.00
957.1420, 18915.00
958.2600, 19970.00
959.3780, 21410.00
960.4960, 22996.00
961.6130, 25351.00
962.7310, 27936.00
963.8480, 31412.00
964.9650, 35806.00
966.0820, 41265.00
967.1990, 47054.00
968.3150, 54028.00
969.4310, 61248.00
970.5480, 67608.00
971.6640, 73453.00
972.7800, 76747.00
973.8950, 77867.00
975.0110, 76416.00
976.1260, 72593.00
977.2420, 67928.00
978.3570, 63681.00
979.4720, 59430.00
980.5870, 56460.00
981.7010, 55018.00
982.8160, 55054.00
983.9300, 55984.00
985.0440, 58655.00
986.1580, 62392.00
987.2720, 67512.00
988.3860, 73173.00
989.4990, 77841.00
990.6120, 82482.00
991.7260, 85224.00
992.8390, 86146.00
993.9510, 84589.00
995.0640, 82891.00
996.1770, 80915.00
997.2890, 79688.00
998.4010, 79948.00
999.5130, 80962.00
1000.625, 82324.00
1001.737, 82757.00
1002.848, 82325.00
1003.960, 79338.00
1005.071, 74507.00
1006.182, 68422.00
1007.293, 61649.00
1008.404, 54872.00
1009.514, 48750.00
1010.625, 43777.00
1011.735, 39856.00
1012.845, 36812.00
1013.955, 34792.00
1015.065, 32949.00
1016.175, 31865.00
1017.284, 30685.00
1018.393, 30161.00
1019.503, 29837.00
1020.612, 29408.00
1021.720, 29539.00
1022.829, 29131.00
1023.937, 29661.00
1025.046, 29795.00
1026.154, 30327.00
1027.262, 30534.00
1028.370, 30270.00
1029.478, 30785.00
1030.585, 30766.00
1031.692, 30528.00
1032.800, 30550.00
1033.907, 30495.00
1035.014, 30530.00
1036.120, 30718.00
1037.227, 31292.00
1038.333, 31907.00
1039.440, 32737.00
1040.546, 34060.00
1041.652, 36049.00
1042.757, 38101.00
1043.863, 40023.00
1044.968, 42006.00
1046.074, 43207.00
1047.179, 43634.00
1048.284, 42848.00
1049.388, 41023.00
1050.493, 38181.00
1051.598, 35477.00
1052.702, 32226.00
1053.806, 29266.00
1054.910, 26755.00
1056.014, 24484.00
1057.117, 22536.94
1058.221, 20886.00
1059.324, 19582.00
1060.427, 18625.00
1061.530, 17889.00
1062.633, 17317.00
1063.736, 16859.00
1064.838, 16445.00
1065.941, 15995.00
1067.043, 15891.00
1068.145, 15515.00
1069.247, 15455.00
1070.349, 15186.00
1071.450, 15163.00
1072.552, 15027.00
1073.653, 14862.00
1074.754, 14816.00
1075.855, 14804.00
1076.955, 14856.00
1078.056, 14778.00
1079.156, 14666.00
1080.257, 14579.00
1081.357, 14475.00
1082.457, 14582.00
1083.557, 14390.00
1084.656, 14382.00
1085.756, 14464.00
1086.855, 14364.00
1087.954, 14229.00
1089.053, 14214.00
1090.152, 14123.00
1091.250, 13996.00
1092.349, 13968.00
1093.447, 13936.00
1094.545, 13953.00
1095.643, 13735.00
1096.741, 13728.00
1097.839, 13752.00
1098.936, 13793.00
1100.034, 13661.00
1101.131, 13716.00
1102.228, 13700.00
1103.325, 13766.00
1104.421, 13706.00
1105.518, 13684.00
1106.614, 13637.00
1107.710, 13599.00
1108.806, 13630.59
1109.902, 13597.60
1110.998, 13724.00
1112.094, 13627.00
1113.189, 13706.00
1114.284, 13806.00
1115.379, 13751.00
1116.474, 13670.00
1117.569, 13745.00
1118.664, 13682.00
1119.758, 13652.00
1120.852, 13625.00
1121.946, 13708.00
1123.040, 13631.00
1124.134, 13599.00
1125.228, 13574.00
1126.321, 13479.00
1127.414, 13684.00
1128.507, 13550.00
1129.600, 13682.00
1130.693, 13509.00
1131.786, 13701.00
1132.878, 13642.00
1133.971, 13746.00
1135.063, 13598.00
1136.155, 13656.00
1137.247, 13687.00
1138.338, 13708.00
1139.430, 13691.58
1140.521, 13538.00
1141.612, 13595.00
1142.703, 13545.00
1143.794, 13439.00
1144.885, 13541.00
1145.975, 13593.00
1147.066, 13525.00
1148.156, 13613.00
1149.246, 13540.00
1150.336, 13672.00
1151.425, 13677.00
1152.515, 13619.00
1153.604, 13614.00
1154.693, 13594.00
1155.783, 13687.00
1156.871, 13626.00
1157.960, 13487.00
1159.049, 13623.00
1160.137, 13666.00
1161.225, 13557.00
1162.313, 13759.00
1163.401, 13642.00
1164.489, 13574.00
1165.577, 13639.00
1166.664, 13584.00
1167.751, 13623.00
1168.838, 13421.00
1169.925, 13432.00
1171.012, 13428.00
1172.099, 13411.00
1173.185, 13549.00
1174.272, 13430.00
1175.358, 13376.00
1176.444, 13440.00
1177.529, 13192.00
1178.615, 13327.00
1179.700, 13424.00
1180.786, 13390.00
1181.871, 13304.00
1182.956, 13337.00
1184.041, 13404.00
1185.125, 13281.00
1186.210, 13433.00
1187.294, 13396.00
1188.378, 13429.00
1189.462, 13433.00
1190.546, 13293.00
1191.630, 13411.00
1192.713, 13451.00
1193.797, 13358.00
1194.880, 13466.00
1195.963, 13478.00
1197.046, 13542.00
1198.129, 13552.70
1199.211, 13517.59
1200.293, 13537.00
1201.376, 13452.00
1202.458, 13413.00
1203.540, 13455.00
1204.621, 13388.00
1205.703, 13447.00
1206.784, 13452.00
1207.865, 13458.00
1208.947, 13490.00
1210.027, 13436.00
1211.108, 13568.00
1212.189, 13536.03
1213.269, 13668.00
1214.349, 13576.00
1215.430, 13498.00
1216.509, 13549.00
1217.589, 13591.00
1218.669, 13592.00
1219.748, 13634.10
1220.827, 13663.00
1221.907, 13688.00
1222.986, 13655.00
1224.064, 13689.97
1225.143, 13565.00
1226.221, 13669.00
1227.300, 13756.00
1228.378, 13805.00
1229.456, 13705.00
1230.534, 13752.00
1231.611, 13751.00
1232.689, 13855.00
1233.766, 13834.00
1234.843, 13747.00
1235.920, 13845.00
1236.997, 13887.00
1238.074, 13810.00
1239.150, 13828.00
1240.226, 13904.00
1241.303, 13952.00
1242.379, 13998.00
1243.454, 13868.00
1244.530, 13978.26
1245.606, 13983.83
1246.681, 13992.00
1247.756, 14080.00
1248.831, 13894.00
1249.906, 13901.00
1250.981, 13930.00
1252.055, 13966.00
1253.130, 13973.89
1254.204, 14001.00
1255.278, 14030.00
1256.352, 14041.00
1257.425, 14124.00
1258.499, 14105.00
1259.572, 14068.00
1260.646, 14160.00
1261.719, 14037.00
1262.791, 14131.00
1263.864, 14210.00
1264.937, 14258.00
1266.009, 14184.00
1267.081, 14225.00
1268.153, 14177.00
1269.225, 14349.00
1270.297, 14186.00
1271.369, 14361.00
1272.440, 14429.00
1273.511, 14334.00
1274.582, 14518.00
1275.653, 14525.00
1276.724, 14402.00
1277.795, 14511.00
1278.865, 14463.00
1279.935, 14470.00
1281.006, 14654.00
1282.076, 14526.00
1283.145, 14570.00
1284.215, 14550.00
1285.284, 14513.00
1286.354, 14741.00
1287.423, 14640.00
1288.492, 14765.00
1289.561, 14841.00
1290.629, 14748.00
1291.698, 14708.00
1292.766, 14637.00
1293.834, 14795.00
1294.902, 14825.00
1295.970, 14707.00
1297.037, 14919.00
1298.105, 14696.00
1299.172, 14902.00
1300.239, 14838.00
1301.306, 14720.00
1302.373, 14932.00
1303.440, 14909.00
1304.506, 15076.00
1305.573, 14985.00
1306.639, 14794.00
1307.705, 14961.00
1308.771, 14983.00
1309.836, 14896.00
1310.902, 15118.00
1311.967, 14963.00
1313.033, 15156.00
1314.098, 15005.00
1315.162, 15123.00
1316.227, 15168.00
1317.292, 15298.00
1318.356, 15261.45
1319.420, 15254.00
1320.484, 15165.00
1321.548, 15203.00
1322.612, 15125.00
1323.675, 15345.00
1324.739, 15268.00
1325.802, 15185.00
1326.865, 15403.00
1327.928, 15333.00
1328.991, 15334.00
1330.053, 15277.00
1331.116, 15418.00
1332.178, 15830.00
1333.240, 15738.43
1334.302, 15780.62
1335.363, 15704.00
1336.425, 15689.00
1337.486, 15399.00
1338.548, 15572.00
1339.609, 15439.00
1340.670, 15543.00
1341.730, 15640.00
1342.791, 15594.00
1343.851, 15490.00
1344.912, 15507.00
1345.972, 15506.98
1347.032, 15583.00
1348.091, 15549.00
1349.151, 15698.00
1350.210, 15653.00
1351.270, 15753.00
1352.329, 15702.00
1353.388, 15879.00
1354.447, 15841.00
1355.505, 15919.00
1356.564, 15887.00
1357.622, 15731.00
1358.680, 15729.00
1359.738, 15945.00
1360.796, 15931.00
1361.853, 16123.00
1362.911, 15879.00
1363.968, 15931.00
1365.025, 16000.00
1366.082, 15900.00
1367.139, 16086.00
1368.196, 16007.00
1369.252, 15918.00
1370.308, 15992.00
1371.365, 15989.00
1372.421, 16071.00
1373.476, 16030.00
1374.532, 16117.00
1375.588, 16193.00
1376.643, 16118.00
1377.698, 16061.00
1378.753, 16086.00
1379.808, 16033.00
1380.862, 16016.47
1381.917, 16132.00
1382.971, 16005.00
1384.025, 16118.00
1385.079, 16199.00
1386.133, 16157.00
1387.187, 16302.00
1388.240, 16153.00
1389.294, 16356.00
1390.347, 16156.00
1391.400, 16101.00
1392.453, 16296.00
1393.506, 16290.00
1394.558, 16112.00
1395.610, 16297.00
1396.663, 16320.00
1397.715, 16279.00
1398.766, 16474.00
1399.818, 16397.00
1400.870, 16316.00
1401.921, 16197.00
1402.972, 16419.00
1404.023, 16455.00
1405.074, 16462.00
1406.125, 16506.00
1407.175, 16476.00
1408.226, 16559.00
1409.276, 16559.00
1410.326, 16572.00
1411.376, 16700.00
1412.426, 16496.00
1413.475, 16818.00
1414.525, 16783.00
1415.574, 16660.00
1416.623, 16647.00
1417.672, 16751.00
1418.720, 16676.00
1419.769, 16726.00
1420.817, 16672.00
1421.866, 16797.00
1422.914, 16873.00
1423.962, 16975.00
1425.009, 16977.33
1426.057, 17000.70
1427.104, 16974.00
1428.152, 16938.00
1429.199, 16986.00
1430.246, 16889.00
1431.292, 16824.00
1432.339, 16875.00
1433.385, 16836.25
1434.431, 17066.00
1435.478, 16949.00
1436.523, 17061.10
1437.569, 17289.00
1438.615, 17139.00
1439.660, 17246.00
1440.706, 17435.00
1441.751, 17205.00
1442.796, 17116.00
1443.840, 17236.00
1444.885, 17145.00
1445.929, 17360.00
1446.974, 17240.00
1448.018, 17234.00
1449.062, 17257.00
1450.105, 17196.00
1451.149, 17331.00
1452.192, 17379.00
1453.236, 17274.00
1454.279, 17417.00
1455.322, 17403.00
1456.365, 17455.00
1457.407, 17556.00
1458.450, 17570.45
1459.492, 17540.00
1460.534, 17596.00
1461.576, 17598.00
1462.618, 17448.00
1463.659, 17710.00
1464.701, 17756.00
1465.742, 17757.00
1466.783, 17651.00
1467.824, 17596.00
1468.865, 17821.00
1469.906, 17880.00
1470.946, 17960.76
1471.986, 18006.71
1473.026, 18145.00
1474.066, 17916.00
1475.106, 17971.00
1476.146, 17749.00
1477.185, 17827.00
1478.225, 17990.00
1479.264, 17936.00
1480.303, 17923.00
1481.342, 18099.00
1482.380, 18069.00
1483.419, 17955.00
1484.457, 18159.00
1485.495, 17848.00
1486.533, 17892.00
1487.571, 17954.00
1488.609, 18051.00
1489.646, 18033.19
1490.683, 18071.00
1491.721, 18056.00
1492.758, 17993.00
1493.794, 18087.00
1494.831, 17965.00
1495.868, 18207.00
1496.904, 18119.00
1497.940, 18066.00
1498.976, 18226.00
1500.012, 17998.00
1501.047, 18358.00
1502.083, 18184.00
1503.118, 18338.00
1504.153, 18256.00
1505.188, 18129.00
1506.223, 18070.76
1507.258, 18302.02
1508.292, 18441.56
1509.327, 18494.34
1510.361, 18200.41
1511.395, 18354.16
1512.429, 18328.50
1513.462, 18295.46
1514.496, 18512.21
1515.529, 18268.69
1516.563, 18481.48
1517.596, 18512.11
1518.628, 18626.08
1519.661, 18559.56
1520.694, 18548.79
1521.726, 18718.57
1522.758, 18788.37
1523.790, 18701.04
1524.822, 18820.31
1525.854, 18570.45
1526.885, 18644.49
1527.917, 18705.00
1528.948, 18905.00
1529.979, 18654.00
1531.010, 18751.00
1532.040, 18834.00
1533.071, 18750.00
1534.101, 18957.00
1535.131, 18891.00
1536.161, 18857.00
1537.191, 19000.00
1538.221, 18865.00
1539.250, 19050.00
1540.280, 18921.00
1541.309, 19173.00
1542.338, 19107.00
1543.367, 19090.00
1544.396, 19030.00
1545.424, 19110.00
1546.453, 18966.00
1547.481, 19121.00
1548.509, 19201.00
1549.537, 19324.00
1550.564, 19282.00
1551.592, 19287.00
1552.619, 19397.00
1553.646, 19435.00
1554.673, 19437.91
1555.700, 19479.22
1556.727, 19419.00
1557.754, 19478.00
1558.780, 19443.00
1559.806, 19416.00
1560.832, 19468.00
1561.858, 19384.00
1562.884, 19396.00
1563.909, 19368.00
1564.935, 19572.00
1565.960, 19377.00
1566.985, 19677.00
1568.010, 19405.00
1569.035, 19392.00
1570.059, 19515.00
1571.084, 19788.00
1572.108, 19693.00
1573.132, 19732.00
1574.156, 19659.00
1575.179, 19815.00
1576.203, 19838.00
1577.226, 19729.00
1578.250, 19822.00
1579.273, 19845.00
##END=



