##NAMES=Rhodochrosite
##RRUFFID=R040133
##IDEAL CHEMISTRY=Mn^2+^CO_3_
##LOCALITY=Imuris, Sonora, Mexico
##OWNER=RRUFF
##SOURCE=University of Arizona Mineral Museum
##DESCRIPTION=Pink cleavage fragment
##STATUS=The identification of this mineral has been confirmed by X-ray diffraction and chemical analysis
##URL=rruff.info/R040133
##MEASURED CHEMISTRY=(Mn_0.92_Mg_0.02_Ca_0.01_)C_1.02_O_3_
##PIN_ID=L00279
##ORIENTATION=Laser parallel to a* (1 0 0). Fiducial mark perpendicular to laser is parallel to c [0 0 1]
137.863, 583.000
139.245, 580.000
140.626, 601.000
142.007, 584.000
143.388, 583.000
144.768, 568.000
146.149, 580.000
147.529, 582.000
148.909, 567.000
150.289, 579.000
151.669, 570.000
153.048, 559.000
154.427, 553.000
155.806, 543.000
157.185, 543.743
158.564, 545.000
159.942, 547.000
161.320, 561.000
162.698, 563.000
164.076, 565.000
165.454, 557.000
166.831, 541.000
168.209, 555.000
169.586, 548.000
170.962, 558.000
172.339, 572.000
173.715, 564.000
175.092, 583.000
176.468, 580.000
177.843, 609.000
179.219, 609.000
180.594, 676.000
181.970, 695.000
183.345, 745.000
184.719, 743.000
186.094, 733.000
187.468, 731.000
188.843, 679.000
190.217, 631.000
191.590, 595.000
192.964, 584.000
194.337, 564.000
195.711, 571.000
197.084, 557.000
198.456, 550.000
199.829, 535.000
201.201, 536.000
202.574, 551.000
203.946, 561.000
205.317, 543.000
206.689, 535.000
208.060, 548.000
209.432, 544.000
210.803, 523.000
212.173, 538.000
213.544, 533.000
214.914, 536.000
216.285, 547.000
217.655, 531.000
219.024, 537.000
220.394, 533.000
221.763, 529.000
223.133, 543.000
224.502, 551.000
225.870, 544.000
227.239, 540.000
228.607, 527.000
229.976, 524.000
231.344, 539.000
232.711, 524.000
234.079, 536.000
235.446, 533.000
236.814, 530.000
238.181, 551.000
239.547, 542.000
240.914, 548.000
242.280, 559.000
243.647, 564.000
245.013, 572.000
246.378, 580.000
247.744, 553.000
249.109, 545.000
250.475, 559.000
251.840, 557.000
253.204, 556.000
254.569, 561.000
255.933, 559.000
257.298, 564.863
258.662, 559.000
260.025, 576.000
261.389, 577.000
262.753, 583.000
264.116, 621.000
265.479, 588.000
266.842, 599.000
268.204, 635.000
269.567, 627.000
270.929, 668.000
272.291, 692.000
273.653, 711.000
275.014, 785.000
276.376, 832.000
277.737, 926.000
279.098, 1060.000
280.459, 1274.000
281.820, 1551.070
283.180, 1844.000
284.540, 2294.000
285.900, 2759.000
287.260, 3284.000
288.620, 3476.000
289.979, 3630.000
291.339, 3532.000
292.698, 3152.000
294.056, 2577.000
295.415, 2146.000
296.774, 1784.000
298.132, 1495.000
299.490, 1227.000
300.848, 1127.000
302.206, 966.000
303.563, 892.000
304.920, 837.000
306.277, 786.000
307.634, 763.000
308.991, 734.000
310.347, 711.000
311.704, 711.000
313.060, 681.000
314.416, 665.000
315.772, 659.000
317.127, 636.000
318.482, 641.000
319.837, 610.000
321.192, 615.000
322.547, 626.000
323.902, 607.000
325.256, 595.000
326.610, 581.000
327.964, 607.000
329.318, 596.000
330.671, 594.000
332.025, 590.000
333.378, 586.000
334.731, 584.011
336.084, 582.000
337.436, 579.000
338.789, 576.000
340.141, 573.000
341.493, 582.000
342.844, 583.000
344.196, 592.000
345.547, 562.000
346.899, 559.000
348.250, 554.000
349.600, 566.000
350.951, 569.000
352.302, 551.000
353.652, 555.000
355.002, 564.000
356.352, 561.000
357.701, 566.000
359.051, 562.000
360.400, 546.000
361.749, 553.000
363.098, 557.000
364.446, 540.000
365.795, 543.000
367.143, 548.000
368.491, 556.000
369.839, 543.000
371.187, 530.000
372.534, 562.000
373.882, 551.000
375.229, 554.000
376.576, 554.000
377.922, 550.000
379.269, 551.000
380.615, 557.000
381.961, 542.000
383.307, 574.000
384.653, 557.000
385.998, 550.000
387.344, 553.000
388.689, 543.000
390.034, 538.000
391.379, 546.000
392.723, 548.000
394.068, 545.000
395.412, 551.000
396.756, 551.000
398.099, 545.000
399.443, 539.000
400.786, 553.000
402.130, 551.000
403.473, 559.000
404.815, 549.000
406.158, 553.000
407.501, 542.000
408.843, 539.380
410.185, 527.000
411.527, 535.000
412.868, 554.000
414.210, 563.000
415.551, 558.000
416.892, 558.000
418.233, 556.000
419.574, 556.000
420.914, 538.000
422.254, 562.000
423.595, 546.000
424.934, 551.000
426.274, 568.000
427.614, 565.000
428.953, 553.000
430.292, 548.000
431.631, 564.000
432.970, 556.000
434.308, 559.000
435.647, 557.000
436.985, 564.000
438.323, 555.000
439.661, 553.000
440.998, 558.000
442.336, 551.000
443.673, 553.000
445.010, 554.000
446.347, 550.404
447.683, 554.701
449.020, 547.000
450.356, 555.000
451.692, 554.000
453.028, 543.000
454.364, 564.000
455.699, 543.000
457.034, 565.000
458.369, 559.000
459.704, 573.000
461.039, 554.000
462.374, 582.000
463.708, 561.000
465.042, 554.000
466.376, 567.000
467.710, 555.000
469.043, 554.000
470.377, 569.000
471.710, 558.000
473.043, 542.000
474.376, 548.000
475.708, 555.000
477.041, 549.000
478.373, 567.000
479.705, 558.000
481.037, 546.000
482.368, 563.000
483.700, 563.000
485.031, 536.000
486.362, 563.000
487.693, 535.000
489.024, 550.000
490.354, 555.000
491.684, 557.000
493.014, 539.000
494.344, 546.000
495.674, 562.000
497.004, 542.000
498.333, 562.000
499.662, 560.000
500.991, 530.000
502.320, 548.000
503.648, 564.000
504.977, 547.000
506.305, 522.000
507.633, 551.000
508.961, 543.000
510.288, 551.000
511.616, 556.000
512.943, 538.000
514.270, 531.000
515.597, 553.000
516.924, 549.000
518.250, 541.000
519.576, 513.000
520.902, 551.000
522.228, 527.000
523.554, 547.000
524.880, 556.000
526.205, 534.000
527.530, 544.000
528.855, 531.000
530.180, 547.000
531.504, 545.000
532.829, 548.000
534.153, 551.346
535.477, 546.000
536.801, 550.000
538.124, 550.000
539.448, 547.000
540.771, 546.000
542.094, 545.578
543.417, 544.559
544.740, 543.000
546.062, 546.000
547.384, 541.000
548.707, 545.000
550.028, 543.000
551.350, 550.000
552.672, 551.143
553.993, 558.000
555.314, 551.000
556.635, 550.000
557.956, 537.000
559.277, 546.000
560.597, 549.000
561.917, 541.000
563.237, 543.000
564.557, 531.000
565.877, 519.000
567.196, 547.000
568.515, 541.000
569.835, 556.000
571.153, 555.000
572.472, 549.000
573.791, 535.000
575.109, 530.000
576.427, 557.000
577.745, 548.000
579.063, 558.000
580.380, 549.000
581.698, 554.000
583.015, 567.000
584.332, 546.000
585.649, 554.000
586.965, 551.000
588.282, 555.000
589.598, 558.000
590.914, 545.000
592.230, 544.000
593.546, 550.000
594.861, 543.000
596.176, 545.000
597.492, 553.000
598.807, 559.000
600.121, 558.363
601.436, 562.076
602.750, 557.000
604.064, 563.000
605.378, 561.958
606.692, 563.000
608.006, 558.000
609.319, 548.000
610.632, 551.000
611.946, 535.000
613.258, 539.288
614.571, 538.000
615.884, 546.000
617.196, 557.000
618.508, 568.000
619.820, 567.000
621.132, 545.000
622.443, 563.000
623.755, 558.000
625.066, 556.000
626.377, 566.000
627.688, 564.329
628.998, 569.000
630.309, 570.000
631.619, 566.000
632.929, 564.000
634.239, 562.671
635.548, 571.000
636.858, 559.000
638.167, 551.000
639.476, 549.000
640.785, 567.000
642.094, 570.000
643.403, 567.000
644.711, 546.000
646.019, 565.000
647.327, 558.000
648.635, 559.000
649.943, 572.000
651.250, 576.000
652.557, 564.000
653.864, 570.000
655.171, 582.000
656.478, 556.000
657.785, 582.000
659.091, 566.000
660.397, 582.000
661.703, 573.000
663.009, 583.000
664.314, 562.000
665.620, 575.000
666.925, 566.000
668.230, 570.000
669.535, 569.000
670.839, 556.000
672.144, 571.000
673.448, 562.000
674.752, 580.000
676.056, 562.000
677.360, 578.000
678.664, 566.000
679.967, 579.000
681.270, 555.000
682.573, 570.000
683.876, 563.000
685.178, 561.000
686.481, 571.000
687.783, 586.000
689.085, 558.000
690.387, 572.000
691.689, 567.000
692.990, 566.000
694.292, 570.000
695.593, 565.000
696.894, 569.000
698.194, 563.000
699.495, 582.000
700.795, 565.000
702.096, 591.000
703.396, 574.000
704.695, 593.000
705.995, 583.000
707.295, 591.000
708.594, 591.000
709.893, 594.000
711.192, 607.000
712.491, 640.000
713.789, 709.000
715.087, 786.000
716.386, 956.000
717.684, 1178.000
718.981, 1311.000
720.279, 1251.000
721.576, 1048.000
722.874, 875.000
724.171, 730.000
725.468, 671.000
726.764, 660.000
728.061, 617.000
729.357, 604.000
730.653, 613.000
731.949, 578.000
733.245, 595.000
734.541, 589.000
735.836, 583.000
737.131, 594.000
738.426, 586.000
739.721, 577.000
741.016, 573.000
742.310, 581.000
743.605, 574.000
744.899, 574.000
746.193, 585.000
747.487, 565.000
748.780, 575.000
750.074, 583.000
751.367, 574.000
752.660, 576.000
753.953, 574.000
755.245, 575.000
756.538, 576.000
757.830, 577.000
759.122, 579.828
760.414, 582.500
761.706, 584.000
762.997, 588.000
764.289, 586.000
765.580, 584.809
766.871, 579.000
768.162, 582.000
769.452, 578.000
770.743, 572.000
772.033, 575.000
773.323, 592.000
774.613, 586.000
775.903, 587.000
777.193, 580.000
778.482, 572.000
779.771, 590.000
781.060, 581.000
782.349, 578.000
783.638, 566.000
784.926, 566.078
786.214, 598.000
787.502, 572.000
788.790, 579.000
790.078, 599.000
791.366, 582.000
792.653, 582.000
793.940, 580.000
795.227, 581.000
796.514, 580.000
797.801, 597.000
799.087, 606.000
800.373, 577.000
801.659, 597.000
802.945, 586.000
804.231, 585.000
805.517, 588.000
806.802, 588.000
808.087, 590.000
809.372, 595.000
810.657, 588.000
811.942, 593.000
813.226, 585.000
814.510, 582.000
815.794, 594.000
817.078, 599.000
818.362, 587.000
819.646, 602.000
820.929, 598.980
822.212, 603.000
823.495, 601.000
824.778, 593.000
826.061, 587.000
827.343, 599.000
828.625, 613.000
829.907, 579.000
831.189, 591.000
832.471, 607.000
833.753, 587.000
835.034, 611.000
836.315, 572.000
837.596, 604.000
838.877, 583.000
840.158, 602.000
841.438, 605.000
842.718, 590.000
843.999, 610.000
845.278, 591.000
846.558, 609.000
847.838, 614.000
849.117, 596.000
850.396, 605.000
851.675, 615.000
852.954, 588.000
854.233, 612.000
855.511, 593.000
856.790, 607.000
858.068, 606.000
859.346, 601.000
860.624, 592.000
861.901, 620.000
863.179, 607.000
864.456, 609.000
865.733, 641.000
867.010, 642.000
868.286, 636.000
869.563, 615.000
870.839, 632.000
872.115, 634.000
873.391, 633.000
874.667, 623.000
875.943, 602.000
877.218, 617.000
878.493, 593.000
879.768, 611.000
881.043, 602.000
882.318, 607.000
883.593, 623.000
884.867, 596.000
886.141, 622.000
887.415, 604.000
888.689, 607.000
889.962, 607.000
891.236, 614.000
892.509, 626.000
893.782, 597.000
895.055, 612.000
896.328, 589.000
897.601, 624.000
898.873, 626.000
900.145, 617.000
901.417, 629.000
902.689, 611.000
903.961, 619.000
905.232, 635.000
906.503, 639.000
907.775, 637.000
909.045, 613.000
910.316, 624.000
911.587, 614.000
912.857, 629.000
914.128, 619.000
915.398, 620.871
916.667, 637.000
917.937, 619.000
919.207, 629.000
920.476, 628.000
921.745, 633.000
923.014, 633.000
924.283, 617.000
925.552, 631.000
926.820, 645.000
928.088, 629.000
929.356, 634.000
930.624, 626.000
931.892, 660.000
933.160, 649.000
934.427, 647.000
935.694, 650.000
936.961, 631.000
938.228, 652.000
939.495, 640.000
940.761, 639.809
942.028, 640.000
943.294, 637.000
944.560, 658.000
945.825, 660.000
947.091, 657.000
948.356, 655.000
949.622, 657.668
950.887, 641.000
952.152, 655.000
953.416, 657.000
954.681, 641.000
955.945, 633.000
957.210, 624.000
958.474, 621.772
959.737, 624.410
961.001, 624.000
962.265, 643.000
963.528, 647.000
964.791, 669.000
966.054, 652.000
967.317, 647.000
968.579, 677.000
969.842, 647.000
971.104, 670.000
972.366, 643.000
973.628, 643.000
974.890, 679.000
976.151, 662.000
977.412, 652.000
978.674, 674.000
979.935, 650.000
981.195, 660.000
982.456, 663.000
983.717, 654.000
984.977, 668.000
986.237, 649.000
987.497, 663.000
988.757, 677.000
990.016, 669.000
991.276, 670.000
992.535, 668.000
993.794, 673.034
995.053, 668.000
996.312, 691.000
997.570, 703.000
998.829, 719.000
1000.087, 702.000
1001.345, 710.000
1002.603, 706.000
1003.860, 727.000
1005.118, 749.000
1006.375, 747.000
1007.632, 752.000
1008.889, 776.000
1010.146, 753.000
1011.402, 768.000
1012.659, 768.000
1013.915, 770.000
1015.171, 799.000
1016.427, 777.000
1017.683, 764.000
1018.938, 805.000
1020.194, 806.000
1021.449, 833.000
1022.704, 810.000
1023.959, 835.000
1025.213, 832.000
1026.468, 841.000
1027.722, 858.000
1028.976, 852.000
1030.230, 842.000
1031.484, 858.000
1032.738, 838.000
1033.991, 857.000
1035.245, 848.000
1036.498, 853.000
1037.751, 868.000
1039.003, 874.000
1040.256, 866.000
1041.508, 873.000
1042.760, 885.000
1044.013, 893.000
1045.264, 905.000
1046.516, 909.000
1047.768, 950.000
1049.019, 947.000
1050.270, 970.000
1051.521, 999.000
1052.772, 984.000
1054.023, 1040.000
1055.273, 1032.000
1056.523, 1048.000
1057.774, 1099.000
1059.023, 1130.000
1060.273, 1127.000
1061.523, 1176.000
1062.772, 1241.000
1064.022, 1359.000
1065.271, 1457.000
1066.520, 1601.000
1067.768, 1544.000
1069.017, 1499.000
1070.265, 1524.000
1071.513, 1575.000
1072.761, 1639.000
1074.009, 1794.000
1075.257, 1983.000
1076.505, 2188.000
1077.752, 2478.000
1078.999, 2961.000
1080.246, 3646.000
1081.493, 4788.000
1082.740, 7207.000
1083.986, 12200.000
1085.232, 22480.000
1086.478, 41180.000
1087.724, 51420.000
1088.970, 42470.000
1090.216, 25730.000
1091.461, 14000.000
1092.706, 8814.000
1093.952, 5670.000
1095.196, 3814.000
1096.441, 2914.000
1097.686, 2223.000
1098.930, 1889.000
1100.174, 1633.000
1101.418, 1454.000
1102.662, 1328.000
1103.906, 1231.000
1105.150, 1156.000
1106.393, 1109.000
1107.636, 1039.000
1108.879, 1018.000
1110.122, 1001.000
1111.365, 957.000
1112.607, 955.000
1113.849, 914.000
1115.092, 912.000
1116.334, 887.000
1117.575, 850.000
1118.817, 838.000
1120.058, 867.000
1121.300, 824.000
1122.541, 839.000
1123.782, 795.000
1125.023, 798.000
1126.263, 804.000
1127.504, 798.000
1128.744, 814.000
1129.984, 788.000
1131.224, 793.000
1132.464, 775.000
1133.703, 783.000
1134.943, 752.000
1136.182, 756.000
1137.421, 790.000
1138.660, 779.000
1139.898, 769.000
1141.137, 753.000
1142.375, 752.000
1143.613, 753.000
1144.851, 764.000
1146.089, 741.000
1147.327, 735.000
1148.565, 743.000
1149.802, 768.000
1151.039, 737.000
1152.276, 734.000
1153.513, 760.000
1154.749, 718.000
1155.986, 726.000
1157.222, 734.000
1158.458, 754.000
1159.694, 735.000
1160.930, 729.000
1162.166, 733.000
1163.401, 729.000
1164.636, 732.000
1165.872, 729.000
1167.106, 719.000
1168.341, 742.000
1169.576, 716.000
1170.810, 733.000
1172.044, 714.000
1173.279, 732.000
1174.512, 730.000
1175.746, 719.000
1176.980, 732.000
1178.213, 721.000
1179.446, 718.000
1180.679, 726.000
1181.912, 730.000
1183.145, 708.000
1184.378, 713.000
1185.610, 710.484
1186.842, 722.000
1188.074, 719.000
1189.306, 708.000
1190.538, 724.000
1191.769, 715.000
1193.001, 683.000
1194.232, 707.000
1195.463, 730.000
1196.694, 705.000
1197.924, 719.000
1199.155, 733.000
1200.385, 708.000
1201.615, 725.000
1202.845, 713.000
1204.075, 725.000
1205.305, 719.000
1206.534, 717.490
1207.763, 715.000
1208.993, 714.000
1210.222, 714.000
1211.450, 713.000
1212.679, 732.000
1213.907, 723.117
1215.136, 726.000
1216.364, 722.000
1217.592, 718.000
1218.820, 727.000
1220.047, 727.000
1221.275, 714.000
1222.502, 703.000
1223.729, 718.000
1224.956, 718.000
1226.183, 704.000
1227.409, 726.000
1228.636, 711.000
1229.862, 695.000
1231.088, 747.000
1232.314, 732.000
1233.540, 735.000
1234.765, 715.000
1235.991, 708.000
1237.216, 707.430
1238.441, 719.000
1239.666, 714.000
1240.891, 719.000
1242.115, 741.000
1243.339, 711.000
1244.564, 727.000
1245.788, 723.000
1247.012, 744.000
1248.235, 730.000
1249.459, 719.000
1250.682, 747.000
1251.905, 715.000
1253.128, 718.000
1254.351, 729.000
1255.574, 742.000
1256.797, 740.228
1258.019, 750.000
1259.241, 733.000
1260.463, 735.000
1261.685, 716.000
1262.907, 711.000
1264.128, 756.000
1265.350, 724.000
1266.571, 734.000
1267.792, 716.000
1269.013, 701.000
1270.233, 763.000
1271.454, 718.000
1272.674, 735.000
1273.894, 718.000
1275.114, 739.000
1276.334, 718.000
1277.554, 727.000
1278.773, 725.000
1279.993, 727.000
1281.212, 743.000
1282.431, 729.000
1283.650, 731.000
1284.868, 738.000
1286.087, 718.000
1287.305, 743.000
1288.523, 731.000
1289.741, 752.000
1290.959, 749.000
1292.177, 731.000
1293.394, 723.000
1294.612, 740.000
1295.829, 745.000
1297.046, 738.000
1298.263, 737.000
1299.479, 739.377
1300.696, 737.340
1301.912, 744.000
1303.128, 739.000
1304.344, 743.000
1305.560, 743.000
1306.776, 738.816
1307.991, 735.000
1309.207, 732.000
1310.422, 742.000
1311.637, 741.000
1312.852, 727.000
1314.066, 748.000
1315.281, 752.000
1316.495, 734.000
1317.709, 735.000
1318.923, 737.000
1320.137, 744.000
1321.351, 749.000
1322.564, 735.000
1323.777, 746.000
1324.991, 746.000
1326.204, 754.000
1327.416, 734.000
1328.629, 750.000
1329.841, 735.000
1331.054, 740.000
1332.266, 751.000
1333.478, 750.000
1334.690, 742.000
1335.901, 752.000
1337.113, 729.000
1338.324, 751.000
1339.535, 760.000
1340.746, 741.000
1341.957, 751.000
1343.168, 768.000
1344.378, 742.000
1345.589, 774.000
1346.799, 760.000
1348.009, 735.000
1349.219, 764.000
1350.428, 730.000
1351.638, 763.000
1352.847, 762.000
1354.056, 746.000
1355.265, 743.000
1356.474, 769.000
1357.683, 748.000
1358.891, 769.000
1360.100, 732.000
1361.308, 766.000
1362.516, 766.000
1363.724, 753.000
1364.931, 762.000
1366.139, 754.000
1367.346, 775.000
1368.553, 772.000
1369.760, 763.000
1370.967, 755.000
1372.174, 762.000
1373.380, 760.000
1374.587, 759.000
1375.793, 785.000
1376.999, 737.000
1378.205, 768.000
1379.410, 791.000
1380.616, 770.000
1381.821, 780.000
1383.026, 778.000
1384.231, 786.000
1385.436, 790.000
1386.641, 796.842
1387.846, 799.000
1389.050, 814.000
1390.254, 826.000
1391.458, 835.000
1392.662, 826.000
1393.866, 806.000
1395.069, 804.000
1396.273, 820.000
1397.476, 784.000
1398.679, 812.000
1399.882, 810.000
1401.085, 804.000
1402.287, 838.000
1403.490, 838.000
1404.692, 846.000
1405.894, 869.000
1407.096, 874.000
1408.297, 907.000
1409.499, 934.000
1410.700, 982.000
1411.902, 1062.000
1413.103, 1173.000
1414.304, 1358.000
1415.504, 1630.000
1416.705, 1994.000
1417.905, 2440.000
1419.106, 2932.000
1420.306, 2899.000
1421.506, 2684.000
1422.705, 2332.000
1423.905, 1914.000
1425.105, 1652.000
1426.304, 1466.000
1427.503, 1295.000
1428.702, 1210.000
1429.901, 1117.000
1431.099, 1095.000
1432.298, 1018.000
1433.496, 1000.000
1434.694, 980.000
1435.892, 978.000
1437.090, 959.200
1438.288, 950.000
1439.485, 938.000
1440.682, 923.000
1441.879, 921.000
1443.076, 937.000
1444.273, 900.000
1445.470, 918.000
1446.666, 904.000
1447.863, 904.000
1449.059, 898.000
1450.255, 866.000
1451.451, 896.000
1452.646, 899.000
1453.842, 871.000
1455.037, 917.000
1456.233, 865.000
1457.428, 853.000
1458.622, 870.000
1459.817, 829.000
1461.012, 857.000
1462.206, 861.000
1463.400, 813.000
1464.594, 836.000
1465.788, 853.000
1466.982, 839.000
1468.176, 834.000
1469.369, 829.000
1470.562, 842.000
1471.755, 842.000
1472.948, 841.127
1474.141, 856.000
1475.333, 845.000
1476.526, 827.000
1477.718, 842.000
1478.910, 820.000
1480.102, 814.000
1481.294, 834.000
1482.486, 825.000
##END=



