##NAMES=Rhodonite
##RRUFFID=R060549
##IDEAL CHEMISTRY=CaMn^2+^_3_Mn^2+^Si_5_O_15_
##LOCALITY=unknown
##OWNER=RRUFF
##SOURCE=Gemological Institute of America
##DESCRIPTION=Pink cleavage fragment
##STATUS=The identification of this mineral has been confirmed by X-ray diffraction and chemical analysis
##URL=rruff.info/R060549
##MEASURED CHEMISTRY=(Mn_0.76_Ca_0.12_Fe_0.07_Mg_0.06_)Si_0.99_O_3_
##PIN_ID=L01131
##ORIENTATION=Laser parallel to (1 0 1). Fiducial mark perpendicular to laser is parallel to b [0 1 0]
82.03000, 9446.000
83.27000, 9763.000
84.51000, 10281.00
85.74900, 10773.00
86.98900, 10946.00
88.22800, 11549.00
89.46700, 12063.00
90.70600, 12305.00
91.94400, 12620.00
93.18300, 12948.00
94.42100, 12835.00
95.65900, 12967.00
96.89700, 12766.00
98.13500, 12503.00
99.37300, 11882.00
100.6100, 11541.00
101.8480, 10727.00
103.0850, 9874.000
104.3220, 9267.000
105.5590, 8877.000
106.7950, 8741.000
108.0320, 8852.000
109.2680, 8961.000
110.5040, 9034.000
111.7400, 9272.000
112.9760, 9452.000
114.2120, 9488.000
115.4470, 9565.349
116.6820, 9574.585
117.9170, 9515.000
119.1520, 9514.000
120.3870, 9417.000
121.6220, 9366.000
122.8560, 9323.000
124.0900, 9374.688
125.3240, 9610.000
126.5580, 9581.000
127.7920, 9693.000
129.0260, 9885.000
130.2590, 10313.00
131.4920, 10937.00
132.7250, 11337.00
133.9580, 12236.00
135.1910, 12966.00
136.4230, 13863.00
137.6560, 14288.00
138.8880, 14491.00
140.1200, 14561.00
141.3520, 13830.00
142.5830, 13054.00
143.8150, 12121.00
145.0460, 10969.00
146.2770, 10114.00
147.5080, 9605.000
148.7390, 9200.000
149.9700, 8875.000
151.2000, 8667.000
152.4310, 8589.000
153.6610, 8672.000
154.8910, 8733.000
156.1210, 8804.031
157.3500, 9061.000
158.5800, 9070.000
159.8090, 9294.000
161.0380, 9513.000
162.2670, 9624.000
163.4960, 9706.000
164.7240, 9769.000
165.9530, 9495.000
167.1810, 9377.000
168.4090, 9135.000
169.6370, 8933.000
170.8650, 8769.000
172.0920, 8455.000
173.3200, 8450.000
174.5470, 8226.000
175.7740, 8039.000
177.0010, 8228.000
178.2280, 8034.000
179.4540, 7960.000
180.6810, 7846.000
181.9070, 8053.000
183.1330, 8117.000
184.3590, 8039.000
185.5850, 8040.000
186.8100, 8122.000
188.0350, 8191.000
189.2610, 8124.000
190.4860, 8018.000
191.7110, 7852.000
192.9350, 7831.000
194.1600, 7647.000
195.3840, 7682.000
196.6080, 7669.000
197.8320, 7667.000
199.0560, 7496.000
200.2800, 7471.000
201.5030, 7350.000
202.7270, 7474.000
203.9500, 7593.000
205.1730, 7442.000
206.3950, 7497.000
207.6180, 7536.000
208.8410, 7521.000
210.0630, 7652.000
211.2850, 7719.000
212.5070, 7793.000
213.7290, 7720.000
214.9500, 7873.000
216.1720, 8071.000
217.3930, 7972.000
218.6140, 8009.000
219.8350, 8119.000
221.0560, 8033.000
222.2770, 8003.000
223.4970, 7976.000
224.7170, 7986.000
225.9370, 7974.000
227.1570, 7929.000
228.3770, 7995.000
229.5970, 8010.000
230.8160, 8007.000
232.0350, 8096.000
233.2540, 8130.000
234.4730, 8258.000
235.6920, 8446.000
236.9110, 8468.000
238.1290, 8632.000
239.3470, 8734.000
240.5650, 8776.000
241.7830, 9015.000
243.0010, 9112.000
244.2180, 9321.000
245.4360, 9421.000
246.6530, 9571.000
247.8700, 9633.000
249.0870, 9749.000
250.3040, 9840.000
251.5200, 9817.000
252.7370, 9815.000
253.9530, 9949.000
255.1690, 9801.000
256.3850, 9675.000
257.6000, 9733.000
258.8160, 9619.000
260.0310, 9595.000
261.2460, 9658.000
262.4610, 9754.000
263.6760, 9569.000
264.8910, 9650.000
266.1050, 9532.000
267.3200, 9554.000
268.5340, 9521.000
269.7480, 9537.000
270.9620, 9296.000
272.1750, 9388.000
273.3890, 9150.000
274.6020, 9279.000
275.8150, 9319.000
277.0280, 9407.000
278.2410, 9300.000
279.4540, 9264.000
280.6660, 9259.000
281.8790, 9204.000
283.0910, 8978.000
284.3030, 9040.000
285.5140, 8894.000
286.7260, 9007.000
287.9380, 9033.000
289.1490, 8997.000
290.3600, 9086.000
291.5710, 9213.423
292.7820, 9464.000
293.9920, 9650.000
295.2030, 9963.000
296.4130, 10384.00
297.6230, 10619.00
298.8330, 11090.00
300.0430, 11305.00
301.2520, 11769.00
302.4620, 11873.00
303.6710, 11930.00
304.8800, 12068.00
306.0890, 12119.00
307.2980, 12120.00
308.5070, 11943.00
309.7150, 11733.00
310.9230, 11571.00
312.1310, 11403.00
313.3390, 11083.00
314.5470, 10823.00
315.7550, 10686.00
316.9620, 10475.00
318.1690, 10428.00
319.3760, 10307.00
320.5830, 10437.00
321.7900, 10395.00
322.9960, 10457.00
324.2030, 10706.00
325.4090, 10764.00
326.6150, 10993.00
327.8210, 11131.00
329.0270, 11002.00
330.2320, 11421.00
331.4380, 11456.00
332.6430, 11697.00
333.8480, 11893.00
335.0530, 12096.00
336.2580, 12353.00
337.4620, 12559.00
338.6670, 12581.00
339.8710, 12501.00
341.0750, 12367.00
342.2790, 12283.00
343.4820, 12178.59
344.6860, 12074.00
345.8890, 11990.00
347.0920, 11963.00
348.2960, 11900.00
349.4980, 11784.00
350.7010, 11587.00
351.9040, 11523.00
353.1060, 11433.00
354.3080, 11040.00
355.5100, 10982.00
356.7120, 10636.00
357.9140, 10613.00
359.1150, 10483.00
360.3170, 10331.00
361.5180, 10313.00
362.7190, 10187.18
363.9200, 10136.00
365.1200, 10002.00
366.3210, 9915.000
367.5210, 9769.000
368.7210, 9635.000
369.9210, 9606.000
371.1210, 9436.000
372.3210, 9278.000
373.5200, 9106.000
374.7200, 9138.000
375.9190, 8916.000
377.1180, 8953.000
378.3170, 8837.000
379.5150, 8926.000
380.7140, 8874.000
381.9120, 8812.000
383.1110, 8876.000
384.3090, 8806.000
385.5060, 8925.000
386.7040, 9145.000
387.9020, 9083.000
389.0990, 9182.000
390.2960, 9317.000
391.4930, 9125.000
392.6900, 8866.000
393.8860, 8933.000
395.0830, 8602.000
396.2790, 8583.000
397.4750, 8514.000
398.6710, 8318.000
399.8670, 8268.000
401.0630, 8215.000
402.2580, 8177.000
403.4540, 8124.386
404.6490, 8090.275
405.8440, 8047.000
407.0390, 8032.000
408.2330, 8036.000
409.4280, 8031.000
410.6220, 8075.000
411.8160, 8024.000
413.0100, 8151.000
414.2040, 8005.000
415.3980, 8101.000
416.5910, 8053.000
417.7850, 8096.000
418.9780, 8142.000
420.1710, 8184.000
421.3640, 8239.000
422.5560, 8218.443
423.7490, 8350.000
424.9410, 8194.000
426.1330, 8116.000
427.3250, 8154.000
428.5170, 8248.000
429.7090, 8278.000
430.9000, 8296.000
432.0910, 8427.000
433.2820, 8526.000
434.4730, 8587.000
435.6640, 8724.000
436.8550, 8696.000
438.0450, 8943.000
439.2360, 8897.000
440.4260, 8798.000
441.6160, 8898.000
442.8060, 8822.000
443.9950, 8761.000
445.1850, 8678.000
446.3740, 8665.000
447.5630, 8574.000
448.7520, 8695.000
449.9410, 8587.000
451.1300, 8716.000
452.3180, 8552.000
453.5060, 8783.000
454.6950, 8899.000
455.8830, 8929.000
457.0700, 8988.000
458.2580, 9182.000
459.4450, 9180.000
460.6330, 9271.000
461.8200, 9115.000
463.0070, 9135.000
464.1940, 9093.000
465.3800, 9010.000
466.5670, 9018.000
467.7530, 8906.000
468.9390, 9049.000
470.1250, 8994.000
471.3110, 9004.000
472.4970, 9208.000
473.6820, 9261.000
474.8680, 9235.000
476.0530, 9222.000
477.2380, 9154.000
478.4230, 9147.000
479.6070, 9207.000
480.7920, 9028.000
481.9760, 8889.000
483.1600, 8801.000
484.3440, 8815.000
485.5280, 8845.000
486.7120, 8842.188
487.8950, 8817.000
489.0780, 8963.000
490.2620, 9054.000
491.4450, 9228.000
492.6270, 9504.000
493.8100, 9690.000
494.9920, 9830.000
496.1750, 9944.000
497.3570, 10073.00
498.5390, 10081.00
499.7210, 9890.000
500.9020, 9684.000
502.0840, 9697.000
503.2650, 9502.000
504.4460, 9375.000
505.6270, 9407.000
506.8080, 9521.000
507.9890, 9607.000
509.1690, 9632.000
510.3500, 9774.000
511.5300, 9778.000
512.7100, 9788.000
513.8900, 9744.000
515.0690, 9693.000
516.2490, 9529.000
517.4280, 9335.000
518.6070, 9317.000
519.7860, 9163.000
520.9650, 9050.000
522.1440, 8927.000
523.3220, 8715.000
524.5010, 8733.000
525.6790, 8651.000
526.8570, 8609.000
528.0350, 8378.000
529.2130, 8426.000
530.3900, 8423.000
531.5670, 8448.000
532.7450, 8504.000
533.9220, 8393.000
535.0980, 8323.000
536.2750, 8318.000
537.4520, 8463.000
538.6280, 8420.000
539.8040, 8490.000
540.9800, 8503.000
542.1560, 8615.000
543.3320, 8605.000
544.5070, 8560.000
545.6830, 8636.000
546.8580, 8614.000
548.0330, 8567.000
549.2080, 8506.000
550.3830, 8621.000
551.5570, 8565.000
552.7310, 8675.000
553.9060, 8527.000
555.0800, 8456.000
556.2540, 8551.000
557.4270, 8590.000
558.6010, 8708.000
559.7740, 8646.000
560.9470, 8648.000
562.1210, 8676.000
563.2930, 8636.000
564.4660, 8824.000
565.6390, 8794.000
566.8110, 8880.000
567.9830, 8923.000
569.1550, 9166.000
570.3270, 9117.000
571.4990, 9345.000
572.6710, 9325.000
573.8420, 9542.000
575.0130, 9343.000
576.1840, 9359.000
577.3550, 9231.000
578.5260, 9077.000
579.6970, 8993.000
580.8670, 8922.000
582.0370, 8779.000
583.2070, 8831.000
584.3770, 8801.000
585.5470, 8747.000
586.7170, 8683.000
587.8860, 8677.000
589.0550, 8611.000
590.2240, 8704.000
591.3930, 8594.000
592.5620, 8605.000
593.7310, 8639.000
594.8990, 8540.000
596.0670, 8599.000
597.2350, 8620.000
598.4030, 8665.000
599.5710, 8665.000
600.7390, 8710.000
601.9060, 8770.000
603.0740, 8693.000
604.2410, 8703.000
605.4080, 8731.000
606.5740, 8679.000
607.7410, 8772.000
608.9080, 8775.000
610.0740, 8751.000
611.2400, 8789.000
612.4060, 8847.000
613.5720, 8838.000
614.7370, 8917.000
615.9030, 8942.000
617.0680, 9062.000
618.2330, 9043.000
619.3980, 9025.000
620.5630, 9119.000
621.7280, 9111.000
622.8920, 9258.000
624.0570, 9234.000
625.2210, 9241.000
626.3850, 9362.000
627.5490, 9382.000
628.7120, 9373.000
629.8760, 9457.000
631.0390, 9589.000
632.2020, 9606.000
633.3650, 9691.000
634.5280, 9715.000
635.6910, 9913.000
636.8530, 9992.000
638.0160, 10098.00
639.1780, 10249.00
640.3400, 10326.00
641.5020, 10431.00
642.6640, 10665.00
643.8250, 10952.00
644.9870, 11218.00
646.1480, 11382.00
647.3090, 11779.00
648.4700, 12088.00
649.6300, 12715.00
650.7910, 13012.00
651.9510, 13746.00
653.1120, 14826.00
654.2720, 15639.00
655.4320, 17364.00
656.5910, 18782.00
657.7510, 21069.00
658.9100, 23297.00
660.0690, 25522.00
661.2290, 28106.00
662.3880, 30567.00
663.5460, 33162.00
664.7050, 35773.00
665.8630, 38925.00
667.0220, 42202.00
668.1800, 45277.00
669.3380, 47530.00
670.4950, 47894.00
671.6530, 46835.00
672.8100, 44191.00
673.9680, 40895.00
675.1250, 36862.00
676.2820, 33065.00
677.4390, 29833.00
678.5950, 27147.00
679.7520, 25336.00
680.9080, 23046.00
682.0640, 21633.00
683.2200, 19693.00
684.3760, 18395.00
685.5320, 16754.00
686.6870, 15813.00
687.8420, 14682.00
688.9980, 13894.00
690.1530, 13171.00
691.3070, 12754.00
692.4620, 12391.00
693.6170, 11923.00
694.7710, 11721.00
695.9250, 11287.00
697.0790, 11254.00
698.2330, 10940.00
699.3870, 10898.00
700.5400, 10649.00
701.6940, 10753.00
702.8470, 10778.00
704.0000, 10642.00
705.1530, 10641.00
706.3050, 10674.00
707.4580, 10734.00
708.6100, 10767.53
709.7630, 10967.00
710.9150, 10913.00
712.0660, 11051.00
713.2180, 11207.00
714.3700, 11216.00
715.5210, 11296.00
716.6720, 11478.00
717.8240, 11313.00
718.9740, 11353.00
720.1250, 11197.00
721.2760, 11168.00
722.4260, 11221.00
723.5770, 10955.00
724.7270, 10812.00
725.8770, 10668.00
727.0260, 10386.00
728.1760, 10276.00
729.3250, 10216.00
730.4750, 10093.00
731.6240, 9988.000
732.7730, 9960.000
733.9220, 9889.000
735.0700, 9838.105
736.2190, 9827.515
737.3670, 9758.000
738.5150, 9797.000
739.6630, 9781.000
740.8110, 9742.000
741.9590, 9771.000
743.1060, 9640.000
744.2540, 9707.000
745.4010, 9678.000
746.5480, 9573.000
747.6950, 9414.000
748.8410, 9575.000
749.9880, 9395.000
751.1340, 9426.000
752.2800, 9503.000
753.4260, 9440.000
754.5720, 9397.000
755.7180, 9441.000
756.8640, 9405.000
758.0090, 9432.000
759.1540, 9461.000
760.2990, 9381.000
761.4440, 9393.000
762.5890, 9281.000
763.7340, 9203.000
764.8780, 9354.000
766.0220, 9475.000
767.1660, 9358.000
768.3100, 9469.000
769.4540, 9373.000
770.5980, 9358.000
771.7410, 9419.000
772.8840, 9353.000
774.0280, 9294.000
775.1700, 9463.000
776.3130, 9420.000
777.4560, 9406.000
778.5980, 9414.000
779.7410, 9352.000
780.8830, 9404.000
782.0250, 9478.000
783.1670, 9400.000
784.3080, 9530.000
785.4500, 9340.000
786.5910, 9508.000
787.7320, 9448.000
788.8730, 9385.000
790.0140, 9430.000
791.1550, 9503.000
792.2950, 9575.000
793.4360, 9489.000
794.5760, 9567.000
795.7160, 9441.000
796.8560, 9515.000
797.9960, 9625.000
799.1350, 9562.000
800.2750, 9602.000
801.4140, 9572.000
802.5530, 9523.000
803.6920, 9501.000
804.8310, 9578.000
805.9690, 9670.000
807.1080, 9540.000
808.2460, 9524.000
809.3840, 9492.000
810.5220, 9687.000
811.6600, 9690.000
812.7970, 9760.000
813.9350, 9725.000
815.0720, 9635.000
816.2090, 9727.000
817.3460, 9611.000
818.4830, 9727.000
819.6200, 9732.000
820.7560, 9681.000
821.8930, 9642.000
823.0290, 9725.000
824.1650, 9791.000
825.3010, 9876.000
826.4360, 9751.000
827.5720, 9667.000
828.7070, 9768.000
829.8420, 9779.000
830.9770, 9756.000
832.1120, 9820.000
833.2470, 9775.000
834.3820, 9649.000
835.5160, 9713.000
836.6500, 9901.000
837.7840, 9802.000
838.9180, 9805.000
840.0520, 9874.000
841.1860, 9820.000
842.3190, 9804.000
843.4520, 9903.000
844.5850, 10029.00
845.7180, 9897.000
846.8510, 9800.000
847.9840, 9867.000
849.1160, 10008.00
850.2490, 10052.00
851.3810, 9901.000
852.5130, 9898.000
853.6450, 9881.000
854.7760, 10025.00
855.9080, 9988.000
857.0390, 9985.000
858.1700, 10091.00
859.3010, 10070.00
860.4320, 9995.000
861.5630, 10122.00
862.6930, 9997.000
863.8240, 10137.00
864.9540, 10092.00
866.0840, 10176.00
867.2140, 10124.00
868.3440, 10150.00
869.4730, 10086.00
870.6030, 10149.00
871.7320, 10221.00
872.8610, 10274.00
873.9900, 10400.00
875.1190, 10369.00
876.2470, 10327.00
877.3760, 10318.00
878.5040, 10402.00
879.6320, 10485.00
880.7600, 10537.00
881.8880, 10567.00
883.0150, 10644.00
884.1430, 10487.00
885.2700, 10500.00
886.3970, 10567.00
887.5240, 10529.00
888.6510, 10613.00
889.7780, 10602.00
890.9040, 10694.00
892.0310, 10651.00
893.1570, 10559.00
894.2830, 10714.00
895.4090, 10732.00
896.5350, 10584.00
897.6600, 10671.00
898.7860, 10794.00
899.9110, 10692.00
901.0360, 10796.00
902.1610, 10870.00
903.2860, 10841.00
904.4100, 10886.00
905.5350, 11101.00
906.6590, 11096.00
907.7830, 11330.00
908.9070, 11357.00
910.0310, 11621.00
911.1540, 11609.00
912.2780, 11659.00
913.4010, 11810.00
914.5240, 11837.00
915.6470, 11936.00
916.7700, 11862.00
917.8930, 11824.00
919.0150, 11909.00
920.1380, 11837.00
921.2600, 11675.00
922.3820, 11590.00
923.5040, 11582.00
924.6260, 11572.00
925.7470, 11627.00
926.8690, 11638.00
927.9900, 11629.00
929.1110, 11660.00
930.2320, 11626.00
931.3530, 11872.00
932.4730, 11986.00
933.5940, 12064.00
934.7140, 12365.00
935.8340, 12519.00
936.9540, 12844.00
938.0740, 13128.00
939.1930, 13321.00
940.3130, 13236.00
941.4320, 13303.00
942.5510, 13191.00
943.6700, 12922.00
944.7890, 12736.00
945.9080, 12467.00
947.0260, 12523.00
948.1450, 12251.00
949.2630, 12300.00
950.3810, 12225.00
951.4990, 12445.00
952.6170, 12526.00
953.7340, 12620.00
954.8520, 12732.00
955.9690, 12931.00
957.0860, 13209.00
958.2030, 13377.00
959.3200, 13688.00
960.4360, 14122.00
961.5530, 14647.00
962.6690, 15356.82
963.7850, 16199.00
964.9010, 17159.00
966.0170, 18300.00
967.1330, 19578.00
968.2480, 21444.00
969.3630, 23204.00
970.4790, 25493.00
971.5940, 27925.00
972.7080, 30073.00
973.8230, 32284.00
974.9380, 33412.00
976.0520, 34033.00
977.1660, 33636.00
978.2800, 32705.00
979.3940, 31541.00
980.5080, 30084.00
981.6220, 29271.00
982.7350, 28544.00
983.8480, 28439.00
984.9610, 28771.00
986.0740, 29271.00
987.1870, 29914.00
988.3000, 30973.00
989.4120, 31660.00
990.5250, 32951.00
991.6370, 34338.00
992.7490, 35561.00
993.8610, 37074.00
994.9720, 38942.00
996.0840, 41074.00
997.1950, 43215.00
998.3060, 45187.00
999.4170, 46277.00
1000.528, 46787.00
1001.639, 46500.00
1002.750, 45218.00
1003.860, 43001.00
1004.970, 40120.00
1006.080, 37035.00
1007.190, 33980.00
1008.300, 31214.00
1009.410, 28579.00
1010.519, 26476.00
1011.628, 24579.00
1012.738, 23046.00
1013.846, 21006.00
1014.955, 19577.00
1016.064, 18515.00
1017.172, 17410.00
1018.281, 16851.00
1019.389, 15942.00
1020.497, 15531.00
1021.605, 15145.00
1022.713, 14723.00
1023.820, 14527.00
1024.928, 14338.00
1026.035, 14047.00
1027.142, 13995.00
1028.249, 13913.00
1029.356, 13718.00
1030.462, 13539.00
1031.569, 13552.00
1032.675, 13261.00
1033.781, 13348.00
1034.887, 13262.00
1035.993, 13409.00
1037.098, 13230.00
1038.204, 13314.00
1039.309, 13144.00
1040.415, 13403.00
1041.520, 13404.00
1042.624, 13479.00
1043.729, 13632.00
1044.834, 13947.00
1045.938, 14236.00
1047.042, 14534.00
1048.146, 15006.00
1049.250, 15280.00
1050.354, 15318.00
1051.458, 15400.00
1052.561, 15076.00
1053.664, 14868.00
1054.767, 14689.00
1055.870, 14304.00
1056.973, 13973.00
1058.076, 13763.00
1059.178, 13573.00
1060.281, 13484.00
1061.383, 13274.00
1062.485, 13100.00
1063.587, 12949.00
1064.688, 12808.00
1065.790, 12802.00
1066.891, 12678.00
1067.993, 12595.00
1069.094, 12416.00
1070.195, 12501.00
1071.295, 12368.00
1072.396, 12454.00
1073.496, 12291.00
1074.597, 12248.00
1075.697, 12282.00
1076.797, 12173.00
1077.897, 12064.00
1078.996, 12104.00
1080.096, 12090.00
1081.195, 12231.00
1082.294, 12060.00
1083.393, 11882.00
1084.492, 12001.00
1085.591, 11978.00
1086.689, 11940.00
1087.788, 12034.00
1088.886, 12005.00
1089.984, 11918.00
1091.082, 12084.00
1092.180, 11987.00
1093.277, 11807.00
1094.375, 11933.00
1095.472, 11978.00
1096.569, 11902.00
1097.666, 11979.00
1098.763, 11953.00
1099.860, 11833.00
1100.956, 11876.00
1102.053, 11993.00
1103.149, 11835.00
1104.245, 11878.00
1105.341, 12022.00
1106.436, 11943.00
1107.532, 11996.00
1108.627, 11880.00
1109.723, 11946.00
1110.818, 11909.00
1111.913, 11894.28
1113.007, 11966.00
1114.102, 11876.00
1115.197, 11913.00
1116.291, 11878.20
1117.385, 11943.00
1118.479, 11966.00
1119.573, 11974.00
1120.666, 12018.00
1121.760, 11990.00
1122.853, 12093.00
1123.947, 12095.00
1125.040, 12005.00
1126.132, 11877.00
1127.225, 11846.00
1128.318, 11947.00
1129.410, 12011.00
1130.502, 11973.00
1131.595, 12086.00
1132.687, 11935.00
1133.778, 11961.00
1134.870, 12054.00
1135.961, 12003.00
1137.053, 12094.00
1138.144, 11851.00
1139.235, 12013.00
1140.326, 11994.00
1141.416, 11818.00
1142.507, 11984.00
1143.597, 12002.00
1144.688, 12006.00
1145.778, 12058.00
1146.868, 11959.00
1147.957, 11987.00
1149.047, 12031.00
1150.136, 12017.00
1151.226, 12073.00
1152.315, 12139.00
1153.404, 12063.00
1154.493, 12137.99
1155.581, 12099.00
1156.670, 12182.00
1157.758, 12091.00
1158.846, 12082.00
1159.934, 12139.00
1161.022, 12117.00
1162.110, 12084.00
1163.198, 12125.00
1164.285, 12047.00
1165.372, 12183.00
1166.459, 12058.00
1167.546, 12227.00
1168.633, 12086.00
1169.720, 12158.00
1170.806, 12100.00
1171.892, 12178.00
1172.979, 12225.00
1174.065, 12250.00
1175.150, 12237.72
1176.236, 12219.00
1177.322, 12183.00
1178.407, 12189.00
1179.492, 12212.00
1180.577, 12124.00
1181.662, 12140.00
1182.747, 12210.00
1183.832, 12154.00
1184.916, 12196.00
1186.000, 12150.00
1187.084, 12119.00
1188.168, 12164.00
1189.252, 12283.00
1190.336, 12283.00
1191.419, 12230.00
1192.503, 12124.00
1193.586, 12161.38
1194.669, 12211.00
1195.752, 12204.00
1196.835, 12250.00
1197.917, 12316.00
1199.000, 12320.00
1200.082, 12296.00
1201.164, 12333.00
1202.246, 12274.00
1203.328, 12294.00
1204.409, 12328.00
1205.491, 12225.00
1206.572, 12471.00
1207.653, 12476.00
1208.734, 12286.00
1209.815, 12459.00
1210.896, 12268.00
1211.976, 12416.00
1213.057, 12374.00
1214.137, 12444.00
1215.217, 12409.00
1216.297, 12439.00
1217.377, 12343.00
1218.456, 12448.00
1219.536, 12500.00
1220.615, 12353.00
1221.694, 12437.00
1222.773, 12385.00
1223.852, 12476.00
1224.931, 12535.00
1226.009, 12443.00
1227.088, 12626.00
1228.166, 12411.00
1229.244, 12493.00
1230.322, 12692.00
1231.400, 12683.00
1232.477, 12645.00
1233.555, 12687.23
1234.632, 12566.00
1235.709, 12651.00
1236.786, 12518.00
1237.863, 12548.00
1238.939, 12622.00
1240.016, 12691.00
1241.092, 12705.54
1242.168, 12748.00
1243.245, 12729.00
1244.320, 12761.00
1245.396, 12739.00
1246.472, 12696.00
1247.547, 12717.00
1248.622, 12768.00
1249.697, 12772.74
1250.772, 12811.00
1251.847, 12817.00
1252.922, 12898.00
1253.996, 12868.35
1255.071, 12930.00
1256.145, 12720.00
1257.219, 12853.00
1258.293, 12873.00
1259.366, 12743.00
1260.440, 12857.00
1261.513, 12816.00
1262.587, 12818.00
1263.660, 12879.00
1264.733, 12861.00
1265.805, 12792.00
1266.878, 12952.00
1267.951, 12986.00
1269.023, 13023.00
1270.095, 12923.00
1271.167, 13054.00
1272.239, 12950.00
1273.311, 12985.00
1274.382, 13021.00
1275.454, 13129.00
1276.525, 13033.00
1277.596, 13011.00
1278.667, 12942.00
1279.738, 13239.00
1280.808, 13038.00
1281.879, 13092.00
1282.949, 13033.00
1284.019, 12977.00
1285.089, 13153.00
1286.159, 13183.00
1287.229, 13142.00
1288.298, 13017.00
1289.368, 13089.00
1290.437, 13136.00
1291.506, 13132.00
1292.575, 13114.00
1293.644, 13243.00
1294.712, 13111.00
1295.781, 13147.00
1296.849, 13159.00
1297.917, 13243.00
1298.985, 13194.00
1300.053, 13183.00
1301.121, 13278.00
1302.188, 13233.00
1303.255, 13178.00
1304.323, 13322.00
1305.390, 13237.00
1306.457, 13316.00
1307.523, 13189.00
1308.590, 13249.00
1309.656, 13336.00
1310.723, 13419.00
1311.789, 13481.00
1312.855, 13475.00
1313.921, 13482.00
1314.986, 13604.00
1316.052, 13524.00
1317.117, 13512.00
1318.182, 13372.00
1319.248, 13527.00
1320.312, 13418.00
1321.377, 13523.00
1322.442, 13430.00
1323.506, 13312.00
1324.571, 13506.00
1325.635, 13508.00
1326.699, 13549.00
1327.762, 13464.00
1328.826, 13578.00
1329.890, 13554.00
1330.953, 13556.00
1332.016, 13561.00
1333.079, 13655.00
1334.142, 13475.00
1335.205, 13710.00
1336.268, 13694.00
1337.330, 13432.00
1338.392, 13621.00
1339.454, 13466.00
1340.516, 13590.00
1341.578, 13690.00
1342.640, 13664.00
1343.701, 13596.00
1344.763, 13671.00
1345.824, 13636.39
1346.885, 13759.00
1347.946, 13660.00
1349.007, 13730.00
1350.067, 13761.00
1351.128, 13724.00
1352.188, 13777.04
1353.248, 13864.00
1354.308, 13800.00
1355.368, 13866.00
1356.428, 13855.00
1357.487, 13903.00
1358.547, 13836.00
1359.606, 13810.00
1360.665, 13831.00
1361.724, 13788.25
1362.783, 13768.00
1363.841, 13787.00
1364.900, 13918.00
1365.958, 13986.00
1367.016, 13908.00
1368.074, 14008.00
1369.132, 13943.00
1370.190, 13854.00
1371.247, 13828.00
1372.304, 13914.00
1373.362, 13806.00
1374.419, 13996.00
1375.476, 14129.00
1376.532, 13919.00
1377.589, 13978.00
1378.645, 13916.00
1379.702, 14173.00
1380.758, 14032.00
1381.814, 14104.00
1382.870, 14117.00
1383.925, 14176.00
1384.981, 14088.00
1386.036, 14064.00
1387.092, 14150.00
1388.147, 13975.00
1389.202, 14073.00
1390.256, 14273.00
1391.311, 14075.00
1392.365, 14007.00
1393.420, 14100.00
1394.474, 13985.00
1395.528, 14227.00
1396.582, 14052.00
1397.636, 14339.00
1398.689, 14333.00
1399.742, 14050.00
1400.796, 14173.00
1401.849, 14238.00
1402.902, 14163.00
1403.955, 14291.00
1405.007, 14215.00
1406.060, 14248.00
1407.112, 14350.00
1408.164, 14314.99
1409.216, 14394.00
1410.268, 14347.00
1411.320, 14396.00
1412.371, 14405.00
1413.423, 14359.00
1414.474, 14252.00
1415.525, 14348.00
1416.576, 14300.00
1417.627, 14304.00
1418.678, 14417.00
1419.728, 14469.00
1420.778, 14473.43
1421.829, 14517.90
1422.879, 14483.00
1423.928, 14497.00
1424.978, 14504.00
1426.028, 14425.00
1427.077, 14491.00
1428.126, 14391.00
1429.176, 14476.00
1430.225, 14452.00
1431.273, 14587.00
1432.322, 14576.00
1433.371, 14689.00
1434.419, 14584.00
1435.467, 14734.00
1436.515, 14739.00
1437.563, 14562.00
1438.611, 14737.00
1439.658, 14710.00
1440.706, 14746.00
1441.753, 14614.00
1442.800, 14870.00
1443.847, 14634.00
1444.894, 14851.00
1445.941, 14821.00
1446.987, 14855.00
1448.034, 14954.00
1449.080, 14969.00
1450.126, 15035.00
1451.172, 15111.00
1452.218, 14767.00
1453.263, 15003.00
1454.309, 14848.00
1455.354, 15196.00
1456.399, 15075.00
1457.444, 14894.00
1458.489, 15058.00
1459.534, 14871.00
1460.579, 14803.00
1461.623, 14949.00
1462.667, 15035.00
1463.711, 14990.00
1464.755, 15073.91
1465.799, 15035.00
1466.843, 15074.00
1467.886, 15098.00
1468.930, 15034.00
1469.973, 14979.00
1471.016, 14981.70
1472.059, 14964.11
1473.101, 14976.00
1474.144, 15014.00
1475.186, 15067.00
1476.229, 15153.00
1477.271, 15037.00
1478.313, 15071.00
1479.355, 15025.00
1480.396, 15068.00
1481.438, 15186.00
1482.479, 15143.00
1483.520, 15129.00
1484.561, 14975.00
1485.602, 15006.00
1486.643, 15153.00
1487.684, 15147.00
1488.724, 15404.00
1489.765, 15112.00
1490.805, 15317.00
1491.845, 15165.00
1492.885, 15117.00
1493.924, 15139.00
1494.964, 15216.00
1496.003, 15248.00
1497.042, 15251.00
1498.082, 15103.00
1499.120, 15216.00
1500.159, 15358.00
1501.198, 15158.00
1502.236, 15284.00
1503.275, 15322.00
1504.313, 15282.00
1505.351, 15274.00
1506.389, 15335.00
1507.427, 15346.00
1508.464, 15356.00
1509.502, 15414.00
1510.539, 15490.00
1511.576, 15293.00
1512.613, 15415.00
1513.650, 15245.00
1514.687, 15310.00
1515.723, 15423.00
1516.759, 15377.00
1517.796, 15360.00
1518.832, 15384.00
1519.868, 15291.00
1520.903, 15498.00
1521.939, 15605.00
1522.975, 15457.00
1524.010, 15523.00
1525.045, 15530.00
1526.080, 15588.00
1527.115, 15649.00
1528.150, 15479.00
1529.184, 15806.00
1530.219, 15664.00
1531.253, 15602.00
1532.287, 15733.00
1533.321, 15528.00
1534.355, 15603.00
1535.388, 15547.00
1536.422, 15586.00
1537.455, 15554.00
1538.488, 15794.00
1539.522, 15767.00
1540.554, 15757.00
1541.587, 15803.00
1542.620, 15762.72
1543.652, 15795.00
1544.685, 15738.00
1545.717, 15725.00
1546.749, 15736.00
1547.781, 15777.00
1548.812, 15844.00
1549.844, 15846.00
1550.875, 15747.00
1551.906, 15816.00
1552.938, 15811.00
1553.968, 15881.00
1554.999, 15939.00
1556.030, 15895.00
1557.060, 15930.00
1558.091, 15917.09
1559.121, 15919.00
1560.151, 15917.00
1561.181, 15920.00
1562.211, 15980.00
1563.240, 15929.00
1564.270, 15909.00
1565.299, 15976.00
1566.328, 16028.00
1567.357, 15843.00
1568.386, 15913.00
1569.415, 15904.00
1570.443, 15989.00
1571.472, 16081.00
1572.500, 16025.00
1573.528, 16053.00
1574.556, 15960.00
1575.584, 16132.00
1576.611, 16032.00
1577.639, 16177.00
##END=



