##NAMES=Rhodonite
##RRUFFID=R060549
##IDEAL CHEMISTRY=CaMn^2+^_3_Mn^2+^Si_5_O_15_
##LOCALITY=unknown
##OWNER=RRUFF
##SOURCE=Gemological Institute of America
##DESCRIPTION=Pink cleavage fragment
##STATUS=The identification of this mineral has been confirmed by X-ray diffraction and chemical analysis
##URL=rruff.info/R060549
##MEASURED CHEMISTRY=(Mn_0.76_Ca_0.12_Fe_0.07_Mg_0.06_)Si_0.99_O_3_
##PIN_ID=L01642
##ORIENTATION=Laser parallel to (1 1 0). Fiducial mark perpendicular to laser is parallel to c [0 0 1]
153.3770, 5159.000
154.6030, 5228.000
155.8300, 5258.000
157.0570, 5494.000
158.2830, 5465.000
159.5090, 5736.000
160.7350, 5740.000
161.9610, 5863.000
163.1870, 6063.000
164.4130, 6067.000
165.6380, 6093.000
166.8630, 6181.000
168.0880, 6257.000
169.3130, 6203.000
170.5380, 6153.000
171.7630, 6122.000
172.9870, 6044.000
174.2120, 5969.000
175.4360, 6003.000
176.6600, 6072.000
177.8840, 6192.000
179.1080, 6218.000
180.3310, 6165.000
181.5550, 6123.000
182.7780, 6039.000
184.0010, 5868.000
185.2240, 5802.000
186.4470, 5751.000
187.6700, 5708.000
188.8920, 5644.000
190.1150, 5616.000
191.3370, 5608.000
192.5590, 5532.000
193.7810, 5610.000
195.0020, 5522.000
196.2240, 5545.000
197.4450, 5651.000
198.6670, 5731.000
199.8880, 5870.000
201.1090, 5747.000
202.3300, 5778.000
203.5500, 5777.000
204.7710, 5844.000
205.9910, 5917.000
207.2110, 5964.000
208.4310, 5937.000
209.6510, 6086.000
210.8710, 6085.000
212.0910, 6252.000
213.3100, 6276.000
214.5290, 6264.000
215.7480, 6341.000
216.9670, 6409.000
218.1860, 6296.000
219.4050, 6167.000
220.6230, 6201.000
221.8420, 6132.000
223.0600, 6083.000
224.2780, 6195.000
225.4960, 6223.000
226.7130, 6321.000
227.9310, 6384.000
229.1480, 6363.000
230.3660, 6340.000
231.5830, 6518.000
232.8000, 6496.000
234.0160, 6732.000
235.2330, 6783.000
236.4490, 6975.000
237.6660, 7001.000
238.8820, 7152.000
240.0980, 7234.000
241.3140, 7349.000
242.5300, 7438.000
243.7450, 7577.000
244.9600, 7587.000
246.1760, 7789.000
247.3910, 7830.000
248.6060, 8043.000
249.8200, 8215.000
251.0350, 8269.000
252.2500, 8454.000
253.4640, 8517.000
254.6780, 8721.000
255.8920, 8901.000
257.1060, 9052.000
258.3190, 9343.000
259.5330, 9711.000
260.7460, 9897.000
261.9600, 10217.00
263.1730, 10559.00
264.3850, 10410.00
265.5980, 10563.00
266.8110, 10469.00
268.0230, 10063.00
269.2360, 9736.000
270.4480, 9511.000
271.6600, 9024.000
272.8710, 8818.000
274.0830, 8554.000
275.2950, 8322.000
276.5060, 8149.000
277.7170, 8030.000
278.9280, 7802.000
280.1390, 7761.000
281.3500, 7649.000
282.5600, 7478.586
283.7710, 7201.000
284.9810, 7193.000
286.1910, 7111.000
287.4010, 7008.000
288.6110, 7045.000
289.8200, 6892.000
291.0300, 6795.000
292.2390, 6960.000
293.4480, 6798.000
294.6570, 6835.000
295.8660, 6967.000
297.0750, 6846.000
298.2830, 6999.000
299.4920, 6903.000
300.7000, 6910.000
301.9080, 6993.000
303.1160, 6938.000
304.3240, 6954.000
305.5310, 6995.000
306.7390, 7058.000
307.9460, 6947.000
309.1530, 7034.000
310.3600, 7040.000
311.5670, 7095.000
312.7740, 7118.000
313.9800, 7152.000
315.1870, 7230.000
316.3930, 7360.000
317.5990, 7604.000
318.8050, 7734.000
320.0110, 8002.000
321.2160, 8221.000
322.4220, 8582.000
323.6270, 8807.000
324.8320, 9090.000
326.0370, 9253.000
327.2420, 9366.000
328.4460, 9522.000
329.6510, 9555.000
330.8550, 9505.000
332.0590, 9743.000
333.2630, 9771.000
334.4670, 9846.000
335.6710, 9984.000
336.8740, 9937.000
338.0780, 9847.000
339.2810, 9620.000
340.4840, 9477.000
341.6870, 9129.000
342.8900, 8953.000
344.0920, 8841.000
345.2950, 8711.000
346.4970, 8574.999
347.6990, 8433.132
348.9010, 8325.000
350.1030, 8150.000
351.3050, 8018.000
352.5060, 7921.000
353.7080, 7855.000
354.9090, 7749.000
356.1100, 7604.000
357.3110, 7696.000
358.5110, 7542.000
359.7120, 7426.000
360.9120, 7582.000
362.1130, 7473.000
363.3130, 7641.000
364.5130, 7480.000
365.7120, 7706.000
366.9120, 7626.000
368.1120, 7652.000
369.3110, 7706.000
370.5100, 7780.000
371.7090, 7729.000
372.9080, 7585.000
374.1070, 7507.000
375.3050, 7525.000
376.5040, 7271.000
377.7020, 7283.000
378.9000, 7231.000
380.0980, 7089.000
381.2950, 7097.000
382.4930, 7095.000
383.6910, 7075.000
384.8880, 7119.000
386.0850, 7099.000
387.2820, 7143.000
388.4790, 7100.000
389.6750, 7139.000
390.8720, 7073.000
392.0680, 7060.000
393.2640, 7064.000
394.4600, 6895.000
395.6560, 6858.000
396.8520, 6724.000
398.0480, 6864.000
399.2430, 6886.000
400.4380, 6811.000
401.6330, 6702.000
402.8280, 6866.000
404.0230, 6852.000
405.2180, 7021.000
406.4120, 6938.000
407.6060, 7118.000
408.8000, 7162.000
409.9940, 7213.000
411.1880, 7278.000
412.3820, 7244.000
413.5750, 7333.000
414.7690, 7430.000
415.9620, 7601.000
417.1550, 7502.000
418.3480, 7805.000
419.5410, 7914.000
420.7330, 7870.000
421.9260, 7855.000
423.1180, 7869.000
424.3100, 7724.000
425.5020, 7539.000
426.6940, 7531.000
427.8850, 7248.000
429.0770, 7048.000
430.2680, 7077.000
431.4590, 6957.000
432.6500, 6972.000
433.8410, 6938.283
435.0320, 6855.000
436.2220, 6894.000
437.4130, 6843.000
438.6030, 6820.000
439.7930, 6758.000
440.9830, 6725.000
442.1730, 6729.000
443.3620, 6706.000
444.5520, 6724.577
445.7410, 6713.287
446.9300, 6767.000
448.1190, 6724.000
449.3080, 6733.000
450.4960, 6777.000
451.6850, 6842.000
452.8730, 6792.000
454.0610, 6818.000
455.2490, 6864.000
456.4370, 6977.000
457.6250, 6840.000
458.8130, 6914.000
460.0000, 6845.000
461.1870, 6806.000
462.3740, 6970.000
463.5610, 6951.000
464.7480, 7102.000
465.9340, 7000.000
467.1210, 7189.000
468.3070, 7206.000
469.4930, 7256.000
470.6790, 7269.000
471.8650, 7435.000
473.0510, 7463.000
474.2360, 7430.000
475.4210, 7326.000
476.6070, 7124.000
477.7920, 7157.000
478.9770, 7027.000
480.1610, 7072.000
481.3460, 7023.000
482.5300, 6866.000
483.7140, 6905.000
484.8980, 6786.000
486.0820, 7004.000
487.2660, 6873.000
488.4500, 6930.000
489.6330, 6899.000
490.8160, 6946.000
492.0000, 6993.000
493.1830, 6966.000
494.3650, 7148.000
495.5480, 7184.000
496.7300, 7282.000
497.9130, 7322.000
499.0950, 7323.000
500.2770, 7250.000
501.4590, 7347.000
502.6410, 7430.000
503.8220, 7699.000
505.0030, 7822.000
506.1850, 7968.000
507.3660, 8191.000
508.5470, 8445.000
509.7270, 8461.000
510.9080, 8520.000
512.0880, 8516.000
513.2690, 8392.000
514.4490, 8168.000
515.6290, 7998.000
516.8090, 7911.000
517.9880, 7605.000
519.1680, 7641.000
520.3470, 7442.000
521.5260, 7370.000
522.7050, 7254.000
523.8840, 7259.000
525.0630, 7099.000
526.2410, 7257.000
527.4200, 7083.000
528.5980, 7090.000
529.7760, 7100.000
530.9540, 7028.000
532.1320, 7087.000
533.3090, 7045.000
534.4870, 7053.816
535.6640, 7116.000
536.8410, 7083.000
538.0180, 7085.000
539.1950, 7124.000
540.3710, 7194.000
541.5480, 7222.000
542.7240, 7258.000
543.9000, 7189.000
545.0760, 7299.000
546.2520, 7244.000
547.4280, 7299.000
548.6040, 7308.000
549.7790, 7340.000
550.9540, 7337.000
552.1290, 7390.000
553.3040, 7427.000
554.4790, 7524.000
555.6530, 7578.000
556.8280, 7670.000
558.0020, 7629.000
559.1760, 7618.000
560.3500, 7719.000
561.5240, 7609.000
562.6980, 7561.000
563.8710, 7592.000
565.0440, 7597.000
566.2170, 7569.000
567.3900, 7684.000
568.5630, 7762.000
569.7360, 7678.000
570.9090, 7842.000
572.0810, 7899.000
573.2530, 7872.000
574.4250, 8022.000
575.5970, 7854.000
576.7690, 7830.000
577.9400, 7703.000
579.1120, 7689.000
580.2830, 7550.000
581.4540, 7556.000
582.6250, 7497.000
583.7960, 7453.637
584.9660, 7471.000
586.1370, 7399.000
587.3070, 7360.000
588.4770, 7322.995
589.6470, 7469.000
590.8170, 7347.000
591.9870, 7426.000
593.1560, 7486.000
594.3260, 7369.000
595.4950, 7434.000
596.6640, 7479.000
597.8330, 7335.000
599.0010, 7547.000
600.1700, 7440.000
601.3380, 7503.000
602.5070, 7511.000
603.6750, 7460.000
604.8430, 7539.000
606.0100, 7527.108
607.1780, 7556.000
608.3450, 7579.000
609.5130, 7577.000
610.6800, 7620.000
611.8470, 7686.000
613.0140, 7684.000
614.1800, 7651.000
615.3470, 7774.000
616.5130, 7735.000
617.6790, 7678.000
618.8450, 7879.000
620.0110, 7692.000
621.1770, 7978.000
622.3420, 7922.000
623.5080, 7957.000
624.6730, 8082.000
625.8380, 8011.000
627.0030, 8143.000
628.1680, 8074.000
629.3320, 8169.000
630.4970, 8201.000
631.6610, 8262.000
632.8250, 8293.000
633.9890, 8397.279
635.1530, 8509.241
636.3160, 8628.000
637.4800, 8778.000
638.6430, 8927.000
639.8060, 9041.000
640.9690, 9253.000
642.1320, 9279.000
643.2950, 9548.000
644.4570, 9797.000
645.6200, 10121.00
646.7820, 10271.00
647.9440, 10684.00
649.1060, 11225.00
650.2670, 11626.00
651.4290, 12260.00
652.5900, 13167.00
653.7520, 14221.00
654.9130, 15625.00
656.0740, 17127.00
657.2340, 19124.00
658.3950, 21322.00
659.5550, 23713.00
660.7160, 26175.00
661.8760, 28652.00
663.0360, 30801.00
664.1960, 32968.00
665.3550, 35352.00
666.5150, 38437.00
667.6740, 40999.00
668.8330, 42858.00
669.9920, 43652.00
671.1510, 42806.00
672.3100, 40539.00
673.4680, 37337.00
674.6270, 33442.00
675.7850, 29979.00
676.9430, 27106.00
678.1010, 24556.00
679.2590, 22537.00
680.4160, 20780.00
681.5740, 19159.00
682.7310, 17584.00
683.8880, 16296.00
685.0450, 15016.00
686.2020, 14183.00
687.3580, 13099.00
688.5150, 12284.00
689.6710, 11912.00
690.8270, 11460.00
691.9830, 10915.00
693.1390, 10725.00
694.2950, 10502.00
695.4500, 10278.00
696.6050, 10035.00
697.7610, 9897.000
698.9160, 9899.000
700.0710, 9649.000
701.2250, 9456.000
702.3800, 9438.000
703.5340, 9542.000
704.6880, 9461.000
705.8420, 9542.000
706.9960, 9457.000
708.1500, 9544.000
709.3040, 9632.000
710.4570, 9622.000
711.6100, 9823.000
712.7640, 9755.000
713.9160, 9694.000
715.0690, 9831.000
716.2220, 9753.000
717.3740, 9612.000
718.5270, 9796.000
719.6790, 9681.000
720.8310, 9669.000
721.9830, 9541.000
723.1340, 9470.000
724.2860, 9280.000
725.4370, 9178.774
726.5880, 9099.000
727.7390, 8965.000
728.8900, 8877.000
730.0410, 8873.000
731.1910, 8958.000
732.3420, 8823.000
733.4920, 8747.000
734.6420, 8850.000
735.7920, 8731.000
736.9420, 8802.000
738.0910, 8740.000
739.2410, 8841.000
740.3900, 8748.000
741.5390, 8736.000
742.6880, 8668.000
743.8370, 8649.000
744.9860, 8621.000
746.1340, 8614.000
747.2820, 8617.000
748.4310, 8599.295
749.5790, 8347.000
750.7260, 8541.000
751.8740, 8452.000
753.0220, 8327.000
754.1690, 8484.000
755.3160, 8327.000
756.4630, 8415.000
757.6100, 8337.000
758.7570, 8406.000
759.9030, 8366.000
761.0500, 8393.000
762.1960, 8359.000
763.3420, 8429.000
764.4880, 8450.000
765.6340, 8466.000
766.7790, 8470.000
767.9250, 8435.000
769.0700, 8287.000
770.2150, 8337.000
771.3600, 8365.000
772.5050, 8429.000
773.6490, 8458.000
774.7940, 8398.000
775.9380, 8385.000
777.0820, 8449.000
778.2260, 8476.000
779.3700, 8504.156
780.5140, 8514.123
781.6570, 8559.000
782.8010, 8495.000
783.9440, 8479.000
785.0870, 8445.000
786.2300, 8494.000
787.3720, 8409.000
788.5150, 8582.000
789.6570, 8630.000
790.8000, 8551.000
791.9420, 8396.000
793.0840, 8631.000
794.2250, 8577.000
795.3670, 8514.000
796.5080, 8633.000
797.6500, 8552.000
798.7910, 8580.000
799.9320, 8619.000
801.0720, 8622.000
802.2130, 8579.000
803.3530, 8645.000
804.4940, 8542.000
805.6340, 8610.000
806.7740, 8655.000
807.9140, 8666.000
809.0530, 8636.000
810.1930, 8659.562
811.3320, 8624.000
812.4710, 8640.000
813.6100, 8673.000
814.7490, 8630.000
815.8880, 8713.000
817.0270, 8748.000
818.1650, 8566.000
819.3030, 8720.000
820.4410, 8762.000
821.5790, 8799.000
822.7170, 8608.000
823.8540, 8726.000
824.9920, 8577.000
826.1290, 8703.000
827.2660, 8695.000
828.4030, 8756.000
829.5400, 8735.000
830.6760, 8759.000
831.8130, 8784.000
832.9490, 8679.000
834.0850, 8862.000
835.2210, 8694.000
836.3570, 8867.000
837.4930, 8805.000
838.6280, 8869.000
839.7640, 8734.000
840.8990, 8818.000
842.0340, 8902.000
843.1690, 8884.000
844.3030, 8850.000
845.4380, 8850.000
846.5720, 8909.000
847.7060, 8873.000
848.8400, 8871.000
849.9740, 9000.000
851.1080, 8890.000
852.2420, 8977.000
853.3750, 9080.000
854.5080, 8931.000
855.6410, 9004.000
856.7740, 9017.000
857.9070, 8981.000
859.0400, 9103.000
860.1720, 9052.000
861.3040, 9071.000
862.4360, 9180.000
863.5680, 9118.000
864.7000, 9181.000
865.8320, 9349.000
866.9630, 9298.000
868.0950, 9357.000
869.2260, 9416.000
870.3570, 9459.000
871.4880, 9520.000
872.6180, 9784.000
873.7490, 9705.000
874.8790, 9900.000
876.0090, 10146.00
877.1390, 10219.00
878.2690, 10364.00
879.3990, 10376.00
880.5280, 10353.00
881.6580, 10497.00
882.7870, 10309.00
883.9160, 10423.00
885.0450, 10243.00
886.1740, 10132.00
887.3020, 10056.00
888.4310, 9984.000
889.5590, 9830.000
890.6870, 9942.000
891.8150, 10029.00
892.9430, 9747.000
894.0700, 9580.000
895.1980, 9652.000
896.3250, 9745.000
897.4520, 9757.000
898.5790, 9781.000
899.7060, 9626.000
900.8330, 9746.000
901.9590, 9866.000
903.0850, 9732.000
904.2120, 9902.000
905.3380, 9758.000
906.4630, 9722.000
907.5890, 9795.000
908.7150, 9955.000
909.8400, 9947.000
910.9650, 10039.00
912.0900, 10176.00
913.2150, 10092.00
914.3400, 10192.00
915.4640, 10218.00
916.5890, 10209.00
917.7130, 10125.00
918.8370, 10093.00
919.9610, 10066.00
921.0850, 10138.00
922.2080, 10143.00
923.3320, 10171.00
924.4550, 10149.00
925.5780, 10197.00
926.7010, 10204.00
927.8240, 10276.00
928.9460, 10348.00
930.0690, 10328.00
931.1910, 10368.00
932.3130, 10390.00
933.4350, 10484.12
934.5570, 10834.00
935.6790, 10758.00
936.8000, 11016.00
937.9220, 11262.00
939.0430, 11265.00
940.1640, 11443.00
941.2850, 11435.00
942.4050, 11381.00
943.5260, 11291.00
944.6460, 11186.00
945.7660, 11044.00
946.8860, 11074.00
948.0060, 11027.00
949.1260, 10901.00
950.2460, 11008.00
951.3650, 11049.00
952.4840, 11327.00
953.6030, 11371.00
954.7220, 11439.00
955.8410, 11623.00
956.9590, 11752.00
958.0780, 11996.00
959.1960, 12341.00
960.3140, 12708.00
961.4320, 13151.00
962.5500, 13735.00
963.6680, 14554.00
964.7850, 15280.00
965.9020, 16421.00
967.0190, 17785.00
968.1360, 19482.00
969.2530, 21230.00
970.3700, 22977.00
971.4860, 25322.00
972.6030, 27483.00
973.7190, 29284.00
974.8350, 30413.00
975.9510, 30988.00
977.0660, 30404.00
978.1820, 29277.00
979.2970, 27752.00
980.4130, 26092.00
981.5280, 25096.00
982.6420, 24044.00
983.7570, 23533.00
984.8720, 22992.00
985.9860, 23235.00
987.1000, 23211.00
988.2140, 23377.00
989.3280, 23690.00
990.4420, 24025.00
991.5560, 24382.00
992.6690, 24982.00
993.7820, 25740.00
994.8950, 26512.00
996.0080, 27761.00
997.1210, 28343.00
998.2340, 29326.00
999.3460, 30140.00
1000.458, 30265.00
1001.571, 29888.00
1002.683, 29245.00
1003.794, 27887.00
1004.906, 26484.00
1006.017, 24886.00
1007.129, 23402.00
1008.240, 22009.00
1009.351, 20521.00
1010.462, 19566.00
1011.572, 18173.00
1012.683, 17172.00
1013.793, 16204.00
1014.904, 15547.00
1016.014, 14960.00
1017.123, 14302.00
1018.233, 14214.00
1019.343, 13719.00
1020.452, 13730.00
1021.561, 13579.00
1022.670, 13323.00
1023.779, 13215.00
1024.888, 13126.00
1025.997, 13051.00
1027.105, 13017.00
1028.213, 13096.00
1029.321, 13045.64
1030.429, 12852.00
1031.537, 12974.00
1032.645, 12981.00
1033.752, 12779.00
1034.859, 12964.00
1035.966, 13041.00
1037.073, 13075.00
1038.180, 13088.00
1039.287, 13285.00
1040.393, 13276.00
1041.500, 13390.00
1042.606, 13319.00
1043.712, 13483.00
1044.818, 13472.00
1045.923, 13453.00
1047.029, 13326.00
1048.134, 13288.00
1049.239, 13205.00
1050.344, 13094.00
1051.449, 13052.00
1052.554, 12922.00
1053.658, 12622.00
1054.763, 12320.00
1055.867, 12210.00
1056.971, 11881.00
1058.075, 11644.00
1059.179, 11665.00
1060.282, 11768.00
1061.385, 11441.00
1062.489, 11225.00
1063.592, 11464.00
1064.695, 11203.00
1065.797, 11224.00
1066.900, 11260.00
1068.002, 11222.00
1069.105, 11104.00
1070.207, 11133.00
1071.309, 11099.00
1072.411, 11053.00
1073.512, 11029.00
1074.614, 11020.00
1075.715, 11137.00
1076.816, 10954.00
1077.917, 11033.00
1079.018, 10949.00
1080.118, 10903.00
1081.219, 10924.00
1082.319, 10977.00
1083.419, 10926.00
1084.519, 10956.90
1085.619, 10830.00
1086.719, 10980.00
1087.818, 10959.00
1088.918, 11017.00
1090.017, 10865.00
1091.116, 10906.00
1092.215, 10867.00
1093.314, 10944.00
1094.412, 10878.00
1095.510, 10852.00
1096.609, 10946.00
1097.707, 10890.00
1098.805, 10918.00
1099.902, 10915.00
1101.000, 10919.00
1102.097, 10988.00
1103.195, 10932.00
1104.292, 10939.00
1105.389, 10932.00
1106.485, 11018.00
1107.582, 10956.00
1108.678, 11046.00
1109.775, 10950.00
1110.871, 10988.00
1111.967, 11111.00
1113.062, 10955.00
1114.158, 10984.00
1115.254, 11036.00
1116.349, 11017.00
1117.444, 11026.00
1118.539, 11063.00
1119.634, 11077.00
1120.728, 11076.00
1121.823, 11082.54
1122.917, 11023.00
1124.011, 11076.00
1125.105, 11064.00
1126.199, 11079.00
1127.293, 11000.00
1128.386, 11117.00
1129.480, 11069.00
1130.573, 11003.00
1131.666, 11242.00
1132.759, 11069.00
1133.851, 11065.00
1134.944, 11089.00
1136.036, 11229.00
1137.129, 11172.00
1138.221, 11095.00
1139.313, 11150.00
1140.404, 11109.00
1141.496, 11238.00
1142.587, 11102.00
1143.678, 11036.00
1144.770, 11221.00
1145.860, 11163.00
1146.951, 11326.00
1148.042, 11137.00
1149.132, 11184.00
1150.223, 11250.00
1151.313, 11176.00
1152.403, 11156.00
1153.492, 11329.00
1154.582, 11209.00
1155.671, 11201.00
1156.761, 11282.00
1157.850, 11261.00
1158.939, 11269.00
1160.028, 11371.00
1161.116, 11242.00
1162.205, 11156.00
1163.293, 11275.00
1164.381, 11331.00
1165.469, 11260.00
1166.557, 11231.00
1167.645, 11433.00
1168.732, 11277.00
1169.820, 11298.00
1170.907, 11179.00
1171.994, 11143.00
1173.081, 11326.00
1174.167, 11158.00
1175.254, 11318.00
1176.340, 11228.00
1177.426, 11428.00
1178.512, 11288.00
1179.598, 11398.00
1180.684, 11361.00
1181.770, 11280.00
1182.855, 11351.00
1183.940, 11273.00
1185.025, 11339.00
1186.110, 11337.55
1187.195, 11323.63
1188.280, 11382.00
1189.364, 11328.00
1190.448, 11389.00
1191.532, 11410.00
1192.616, 11466.00
1193.700, 11528.00
1194.784, 11348.00
1195.867, 11386.00
1196.950, 11415.00
1198.034, 11559.00
1199.117, 11589.00
1200.199, 11406.00
1201.282, 11404.00
1202.364, 11423.00
1203.447, 11378.84
1204.529, 11699.00
1205.611, 11420.00
1206.693, 11557.00
1207.774, 11596.00
1208.856, 11458.00
1209.937, 11569.00
1211.018, 11609.00
1212.099, 11615.81
1213.180, 11543.00
1214.261, 11663.00
1215.341, 11654.00
1216.422, 11558.00
1217.502, 11628.00
1218.582, 11656.00
1219.662, 11778.00
1220.742, 11716.00
1221.821, 11627.00
1222.900, 11617.00
1223.980, 11675.00
1225.059, 11742.00
1226.138, 11700.00
1227.216, 11693.00
1228.295, 11832.00
1229.373, 11545.00
1230.452, 11828.00
1231.530, 11877.00
1232.608, 11706.00
1233.685, 11853.00
1234.763, 11761.00
1235.840, 11876.00
1236.918, 11689.00
1237.995, 11857.00
1239.072, 11810.00
1240.149, 11830.00
1241.225, 11906.00
1242.302, 11875.00
1243.378, 11878.00
1244.454, 11996.00
1245.530, 11921.00
1246.606, 11964.00
1247.681, 11894.00
1248.757, 11992.00
1249.832, 11933.00
1250.907, 12003.00
1251.982, 11968.00
1253.057, 11889.00
1254.132, 11941.00
1255.206, 11890.00
1256.281, 11954.00
1257.355, 11939.00
1258.429, 11963.00
1259.503, 11909.00
1260.576, 11979.00
1261.650, 12087.00
1262.723, 12037.00
1263.797, 12163.93
1264.870, 12221.00
1265.942, 12291.00
1267.015, 12056.00
1268.088, 12007.00
1269.160, 11961.00
1270.232, 11971.88
1271.304, 12171.00
1272.376, 12111.00
1273.448, 12108.00
1274.520, 12119.00
1275.591, 12103.00
1276.662, 12224.00
1277.733, 12259.00
1278.804, 12238.00
1279.875, 12315.00
1280.946, 12304.00
1282.016, 12226.00
1283.086, 12324.00
1284.156, 12224.00
1285.226, 12233.00
1286.296, 12364.00
1287.366, 12275.00
1288.435, 12226.00
1289.505, 12272.00
1290.574, 12160.00
1291.643, 12224.00
1292.711, 12396.00
1293.780, 12246.00
1294.849, 12334.00
1295.917, 12290.00
1296.985, 12320.00
1298.053, 12425.00
1299.121, 12349.00
1300.189, 12373.00
1301.256, 12330.00
1302.323, 12300.00
1303.391, 12453.00
1304.458, 12347.00
1305.524, 12432.00
1306.591, 12541.00
1307.658, 12360.00
1308.724, 12507.00
1309.790, 12515.00
1310.856, 12588.00
1311.922, 12607.00
1312.988, 12538.00
1314.053, 12649.00
1315.119, 12720.00
1316.184, 12614.00
1317.249, 12660.00
1318.314, 12740.00
1319.379, 12666.00
1320.443, 12656.00
1321.508, 12679.00
1322.572, 12701.00
1323.636, 12707.21
1324.700, 12781.00
1325.764, 12747.00
1326.827, 12696.00
1327.891, 12732.48
1328.954, 12949.00
1330.017, 12801.00
1331.080, 12838.00
1332.143, 12860.00
1333.205, 12798.00
1334.268, 12859.95
1335.330, 12813.00
1336.392, 12895.00
1337.454, 12865.00
1338.516, 12820.00
1339.578, 12957.00
1340.639, 12850.00
1341.701, 12752.00
1342.762, 12899.00
1343.823, 12965.00
1344.883, 12991.00
1345.944, 12998.00
1347.005, 13072.00
1348.065, 13012.00
1349.125, 12921.00
1350.185, 12979.00
1351.245, 13172.00
1352.305, 12999.00
1353.364, 13246.00
1354.424, 13455.00
1355.483, 13248.00
1356.542, 13181.00
1357.601, 13125.00
1358.659, 13097.00
1359.718, 13053.00
1360.776, 13033.00
1361.834, 13118.00
1362.893, 13065.00
1363.950, 13227.00
1365.008, 13261.00
1366.066, 13307.00
1367.123, 13217.00
1368.180, 13203.00
1369.237, 13339.00
1370.294, 13204.00
1371.351, 13275.00
1372.408, 13355.00
1373.464, 13337.00
1374.520, 13421.00
1375.576, 13265.00
1376.632, 13272.00
1377.688, 13320.00
1378.744, 13403.00
1379.799, 13319.00
1380.854, 13270.00
1381.910, 13394.00
1382.965, 13503.00
1384.019, 13495.00
1385.074, 13386.00
1386.128, 13428.00
1387.183, 13360.00
1388.237, 13542.00
1389.291, 13453.00
1390.345, 13524.00
1391.398, 13397.00
1392.452, 13314.00
1393.505, 13520.00
1394.558, 13377.00
1395.611, 13473.00
1396.664, 13514.00
1397.717, 13593.00
1398.769, 13582.00
1399.822, 13599.00
1400.874, 13572.00
1401.926, 13612.00
1402.978, 13692.00
1404.029, 13626.00
1405.081, 13625.00
1406.132, 13720.00
1407.183, 13684.00
1408.234, 13663.00
1409.285, 13769.00
1410.336, 13808.00
1411.387, 13822.46
1412.437, 13923.00
1413.487, 13825.00
1414.537, 13748.00
1415.587, 13659.00
1416.637, 13667.29
1417.686, 13747.00
1418.736, 13722.00
1419.785, 13746.00
1420.834, 13798.00
1421.883, 13657.00
1422.932, 13801.00
1423.980, 13744.47
1425.029, 13694.00
1426.077, 13765.00
1427.125, 13815.00
1428.173, 13894.00
1429.221, 13960.00
1430.269, 14063.00
1431.316, 13813.00
1432.363, 13807.00
1433.410, 13772.00
1434.457, 13965.00
1435.504, 13878.00
1436.551, 13953.00
1437.597, 14084.00
1438.644, 13990.00
1439.690, 14010.00
1440.736, 14141.00
1441.781, 14015.00
1442.827, 13912.00
1443.873, 14006.00
1444.918, 14137.00
1445.963, 13993.00
1447.008, 14162.00
1448.053, 14125.00
1449.098, 14255.00
1450.142, 14182.00
1451.186, 14114.00
1452.231, 14011.00
1453.275, 14289.00
1454.319, 13970.00
1455.362, 14184.00
1456.406, 14051.00
1457.449, 14391.00
1458.492, 14229.00
1459.535, 14253.00
1460.578, 14291.00
1461.621, 14453.00
1462.663, 14298.00
1463.706, 14284.00
1464.748, 14378.00
1465.790, 14282.00
1466.832, 14216.00
1467.874, 14416.00
1468.915, 14532.00
1469.957, 14280.00
1470.998, 14510.00
1472.039, 14389.00
1473.080, 14451.00
1474.121, 14418.00
1475.161, 14517.00
1476.202, 14398.00
1477.242, 14450.00
1478.282, 14515.00
1479.322, 14572.00
1480.362, 14600.00
1481.401, 14454.00
1482.441, 14602.00
1483.480, 14597.00
1484.519, 14709.00
1485.558, 14569.00
1486.597, 14649.00
1487.636, 14629.00
1488.674, 14461.00
1489.712, 14625.00
1490.751, 14870.00
1491.788, 14757.00
1492.826, 14658.00
1493.864, 14756.00
1494.901, 14729.00
1495.939, 14837.00
1496.976, 14820.09
1498.013, 14686.00
1499.050, 14793.00
1500.086, 14811.00
1501.123, 14773.00
1502.159, 14817.00
1503.195, 14897.00
1504.231, 14751.00
1505.267, 14824.00
1506.303, 14883.00
1507.338, 14750.00
1508.374, 14767.00
1509.409, 14768.00
1510.444, 14815.00
1511.479, 15006.00
1512.514, 14805.00
1513.548, 15081.00
1514.583, 14965.00
1515.617, 15151.00
1516.651, 14852.00
1517.685, 15046.00
1518.718, 15087.00
1519.752, 14977.00
1520.785, 14995.00
1521.819, 14901.00
1522.852, 15031.00
1523.885, 14975.69
1524.917, 14985.49
1525.950, 14975.00
1526.982, 15006.00
1528.015, 15028.00
1529.047, 15081.00
1530.079, 15248.00
1531.110, 15210.00
1532.142, 15157.00
1533.173, 15307.00
1534.205, 15287.00
1535.236, 15290.00
1536.267, 15338.00
1537.298, 15204.00
1538.328, 15323.00
1539.359, 15208.00
1540.389, 15323.00
1541.419, 15382.00
1542.449, 15499.00
1543.479, 15403.00
1544.508, 15401.00
1545.538, 15318.00
1546.567, 15401.00
1547.596, 15273.00
1548.625, 15531.00
1549.654, 15354.00
1550.683, 15307.00
1551.711, 15456.00
1552.740, 15418.00
1553.768, 15345.00
1554.796, 15541.00
1555.824, 15601.00
1556.851, 15460.00
1557.879, 15475.00
1558.906, 15506.00
1559.933, 15490.00
1560.960, 15468.00
1561.987, 15496.00
1563.014, 15473.00
1564.041, 15498.00
1565.067, 15555.00
1566.093, 15440.00
1567.119, 15732.00
1568.145, 15669.00
1569.171, 15562.00
1570.196, 15745.00
1571.222, 15758.00
1572.247, 15693.00
1573.272, 15715.00
1574.297, 15665.00
1575.322, 15704.00
1576.346, 15758.00
1577.371, 15637.00
##END=



