##NAMES=Rhodonite
##RRUFFID=R040041
##IDEAL CHEMISTRY=CaMn^2+^_3_Mn^2+^Si_5_O_15_
##LOCALITY=Franklin, Sussex County, New Jersey, USA
##OWNER=RRUFF
##SOURCE=University of Arizona Mineral Museum
##DESCRIPTION=Pink prismatic crystals
##STATUS=The identification of this mineral has been confirmed by X-ray diffraction and chemical analysis
##URL=rruff.info/R040041
##MEASURED CHEMISTRY=(Mn_0.63_Ca_0.21_Zn_0.12_Mg_0.02_Fe_0.02_)_Î£=1_Si_1.00_O_3_
##PIN_ID=L00154
##ORIENTATION=Laser parallel to (1 1 0). Fiducial mark perpendicular to laser is parallel to c [0 0 1]
64.63500, 470.0000
65.87000, 505.0000
67.10500, 560.0000
68.34000, 626.0000
69.57400, 705.0000
70.80900, 836.0000
72.04300, 900.0000
73.27700, 1107.000
74.51100, 1477.000
75.74500, 1798.000
76.97800, 2248.000
78.21200, 2693.000
79.44500, 3065.000
80.67800, 3145.000
81.91200, 3301.000
83.14400, 3312.000
84.37700, 3635.000
85.61000, 3875.000
86.84200, 4224.000
88.07500, 4725.000
89.30700, 5225.000
90.53900, 6031.000
91.77100, 7067.000
93.00200, 8385.000
94.23400, 10074.00
95.46500, 11540.00
96.69700, 13128.00
97.92800, 14810.00
99.15900, 16685.00
100.3900, 18454.00
101.6200, 20425.18
102.8510, 22885.00
104.0810, 24559.00
105.3120, 26482.00
106.5420, 28792.00
107.7720, 31580.00
109.0020, 34119.00
110.2310, 37338.00
111.4610, 40511.00
112.6900, 42941.00
113.9190, 43902.00
115.1480, 42640.00
116.3770, 39960.00
117.6060, 35840.00
118.8350, 30976.00
120.0630, 27296.00
121.2920, 24939.00
122.5200, 23960.00
123.7480, 23441.00
124.9760, 22937.00
126.2040, 22891.00
127.4310, 22750.00
128.6590, 22524.00
129.8860, 21640.00
131.1130, 20812.00
132.3400, 19681.00
133.5670, 18487.00
134.7940, 17104.00
136.0200, 16127.00
137.2470, 15428.00
138.4730, 14468.00
139.6990, 13897.00
140.9250, 13442.00
142.1510, 13031.00
143.3770, 12659.00
144.6020, 12662.00
145.8280, 12404.00
147.0530, 12128.00
148.2780, 11883.00
149.5030, 11681.00
150.7280, 11749.00
151.9520, 11993.00
153.1770, 12466.00
154.4010, 12645.00
155.6250, 13117.00
156.8490, 13412.00
158.0730, 13620.00
159.2970, 13551.00
160.5210, 13452.00
161.7440, 13411.06
162.9680, 13160.00
164.1910, 13097.00
165.4140, 12962.00
166.6370, 12736.00
167.8590, 12859.00
169.0820, 12998.00
170.3040, 13180.00
171.5270, 13559.00
172.7490, 14043.00
173.9710, 16070.00
175.1930, 14650.00
176.4140, 16635.00
177.6360, 15160.00
178.8570, 14254.00
180.0780, 13726.00
181.2990, 13478.00
182.5200, 12662.00
183.7410, 11958.00
184.9620, 11161.00
186.1820, 10435.00
187.4030, 10083.38
188.6230, 9660.000
189.8430, 9603.000
191.0630, 9424.000
192.2830, 9450.000
193.5020, 9502.000
194.7220, 9459.000
195.9410, 9455.000
197.1600, 9299.000
198.3790, 9078.000
199.5980, 8961.000
200.8170, 8862.000
202.0350, 8811.000
203.2540, 9105.000
204.4720, 9254.000
205.6900, 9436.000
206.9080, 9764.000
208.1260, 10159.00
209.3430, 10600.00
210.5610, 10996.00
211.7780, 11461.00
212.9960, 11686.00
214.2130, 12113.00
215.4290, 12234.00
216.6460, 12281.00
217.8630, 11997.00
219.0790, 11912.00
220.2960, 11446.00
221.5120, 11294.00
222.7280, 10807.00
223.9440, 10909.00
225.1590, 10734.00
226.3750, 10722.00
227.5900, 10620.00
228.8060, 10912.00
230.0210, 11245.00
231.2360, 11608.00
232.4510, 11933.00
233.6650, 12276.00
234.8800, 13008.00
236.0940, 13583.00
237.3080, 14568.00
238.5220, 15660.00
239.7360, 16656.00
240.9500, 17939.00
242.1640, 19095.00
243.3770, 20009.00
244.5910, 21116.00
245.8040, 22094.00
247.0170, 22842.00
248.2300, 23415.00
249.4420, 24031.00
250.6550, 24516.00
251.8670, 24579.00
253.0800, 24821.00
254.2920, 25125.00
255.5040, 25312.00
256.7160, 25942.00
257.9270, 26502.00
259.1390, 27483.00
260.3500, 28085.00
261.5610, 28825.00
262.7720, 29259.00
263.9830, 29121.00
265.1940, 28593.00
266.4050, 27969.00
267.6150, 26550.00
268.8260, 24817.00
270.0360, 23223.00
271.2460, 21900.00
272.4560, 20802.00
273.6650, 19699.00
274.8750, 18927.00
276.0840, 18450.00
277.2940, 18005.00
278.5030, 17717.00
279.7120, 17379.00
280.9200, 16983.15
282.1290, 16800.00
283.3380, 16239.00
284.5460, 15801.00
285.7540, 15439.00
286.9620, 14868.00
288.1700, 14615.00
289.3780, 14290.00
290.5860, 13462.00
291.7930, 13005.00
293.0000, 12702.00
294.2080, 12453.00
295.4150, 12277.00
296.6210, 12290.00
297.8280, 12202.02
299.0350, 12236.00
300.2410, 12258.00
301.4470, 12380.00
302.6530, 12462.00
303.8590, 12579.00
305.0650, 12766.00
306.2710, 13034.00
307.4760, 13168.00
308.6820, 13562.00
309.8870, 13832.00
311.0920, 14530.00
312.2970, 15164.00
313.5020, 15787.00
314.7060, 16728.00
315.9110, 17590.00
317.1150, 18734.00
318.3190, 19969.00
319.5230, 21484.00
320.7270, 22916.00
321.9300, 24032.00
323.1340, 25074.00
324.3370, 26294.00
325.5410, 26943.00
326.7440, 27674.00
327.9470, 28048.00
329.1490, 28677.00
330.3520, 29162.00
331.5550, 29981.00
332.7570, 30682.00
333.9590, 31762.00
335.1610, 32295.00
336.3630, 33009.00
337.5650, 33350.00
338.7660, 33341.00
339.9680, 33087.00
341.1690, 32271.00
342.3700, 31030.00
343.5710, 29774.00
344.7720, 28628.00
345.9720, 27832.00
347.1730, 26736.00
348.3730, 25839.00
349.5730, 24718.00
350.7730, 23738.00
351.9730, 22422.00
353.1730, 21405.00
354.3730, 20375.00
355.5720, 19703.00
356.7710, 18923.00
357.9710, 18831.00
359.1700, 18880.00
360.3680, 18751.00
361.5670, 18947.00
362.7660, 19271.00
363.9640, 19416.00
365.1620, 19924.00
366.3600, 19931.00
367.5580, 20054.00
368.7560, 20300.00
369.9540, 20033.00
371.1510, 19795.00
372.3480, 19200.00
373.5450, 18612.00
374.7420, 18022.00
375.9390, 16908.00
377.1360, 16295.00
378.3330, 15521.00
379.5290, 14930.00
380.7250, 14614.00
381.9210, 14264.00
383.1170, 13990.00
384.3130, 13955.00
385.5090, 13821.00
386.7040, 13830.00
387.8990, 13954.00
389.0950, 13767.00
390.2900, 13511.00
391.4850, 13346.00
392.6790, 12993.00
393.8740, 12686.00
395.0680, 12184.00
396.2620, 11913.00
397.4570, 11695.00
398.6510, 11603.00
399.8440, 11278.00
401.0380, 11397.00
402.2310, 11389.00
403.4250, 11471.00
404.6180, 11840.00
405.8110, 12179.00
407.0040, 12693.00
408.1970, 13176.00
409.3890, 13963.00
410.5820, 14771.00
411.7740, 15720.00
412.9660, 16717.00
414.1580, 17945.00
415.3500, 19422.00
416.5420, 20678.00
417.7330, 21728.00
418.9240, 22844.00
420.1160, 23568.00
421.3070, 23834.00
422.4980, 23722.00
423.6880, 22913.00
424.8790, 21588.00
426.0690, 20012.00
427.2600, 18207.00
428.4500, 16671.00
429.6400, 15144.00
430.8300, 14153.00
432.0190, 13026.00
433.2090, 12348.00
434.3980, 12314.00
435.5870, 12269.00
436.7760, 12414.00
437.9650, 12300.00
439.1540, 10899.00
440.3430, 10647.00
441.5310, 10548.00
442.7190, 10611.00
443.9080, 10461.00
445.0960, 10500.00
446.2830, 10530.00
447.4710, 10618.00
448.6590, 10638.00
449.8460, 10698.46
451.0330, 10923.00
452.2200, 10855.00
453.4070, 11020.00
454.5940, 11224.00
455.7800, 11102.00
456.9670, 11197.00
458.1530, 11080.00
459.3390, 10844.00
460.5250, 10588.00
461.7110, 10236.00
462.8970, 9901.000
464.0820, 9770.000
465.2680, 9669.000
466.4530, 9331.000
467.6380, 9264.000
468.8230, 9252.000
470.0080, 9151.000
471.1920, 9208.000
472.3770, 9081.000
473.5610, 9044.000
474.7450, 9088.000
475.9290, 9074.000
477.1130, 8880.000
478.2970, 8947.000
479.4800, 8943.000
480.6640, 9017.000
481.8470, 9075.000
483.0300, 9085.000
484.2130, 9249.000
485.3960, 9402.000
486.5780, 9404.000
487.7610, 9741.000
488.9430, 9767.000
490.1250, 10295.00
491.3070, 10879.00
492.4890, 11263.00
493.6710, 11004.00
494.8520, 11362.00
496.0340, 11447.00
497.2150, 11524.00
498.3960, 11544.00
499.5770, 11555.00
500.7570, 11481.00
501.9380, 11464.00
503.1180, 11549.00
504.2990, 11922.00
505.4790, 12391.00
506.6590, 13001.00
507.8390, 13853.00
509.0180, 14457.00
510.1980, 15410.00
511.3770, 16892.00
512.5560, 17384.00
513.7360, 17310.00
514.9140, 17534.00
516.0930, 17391.00
517.2720, 16909.00
518.4500, 16283.00
519.6290, 15312.00
520.8070, 14767.00
521.9850, 13674.00
523.1620, 12881.00
524.3400, 12206.00
525.5180, 11726.00
526.6950, 11027.00
527.8720, 10680.05
529.0490, 10322.96
530.2260, 9999.000
531.4030, 9872.000
532.5790, 9574.000
533.7560, 9478.000
534.9320, 9306.000
536.1080, 9348.000
537.2840, 9263.000
538.4600, 9136.000
539.6360, 9315.000
540.8110, 9345.000
541.9860, 9426.000
543.1620, 9331.000
544.3370, 9407.000
545.5120, 9673.000
546.6860, 9842.000
547.8610, 9990.000
549.0350, 10104.00
550.2090, 10625.00
551.3840, 10770.00
552.5580, 11372.00
553.7310, 11684.00
554.9050, 12022.00
556.0780, 12519.00
557.2520, 12723.00
558.4250, 12707.00
559.5980, 12943.00
560.7710, 12580.00
561.9430, 12372.00
563.1160, 11835.00
564.2880, 11313.00
565.4610, 10779.00
566.6330, 10429.00
567.8050, 10144.00
568.9760, 9946.000
570.1480, 9774.000
571.3200, 9743.000
572.4910, 9618.000
573.6620, 9569.000
574.8330, 9390.000
576.0040, 9353.000
577.1740, 9325.000
578.3450, 9392.000
579.5150, 9212.000
580.6860, 9175.000
581.8560, 9099.249
583.0260, 9005.000
584.1950, 8956.000
585.3650, 8941.000
586.5340, 8963.000
587.7040, 8842.000
588.8730, 8915.000
590.0420, 8825.000
591.2110, 8899.000
592.3790, 8863.000
593.5480, 8926.000
594.7160, 8904.000
595.8840, 8963.000
597.0520, 8941.000
598.2200, 8840.000
599.3880, 8978.000
600.5550, 9019.000
601.7230, 8925.000
602.8900, 9139.000
604.0570, 9076.000
605.2240, 9244.000
606.3910, 9189.000
607.5580, 9273.000
608.7240, 9314.000
609.8900, 9494.000
611.0570, 9470.000
612.2230, 9571.000
613.3880, 9606.000
614.5540, 9765.000
615.7200, 9755.000
616.8850, 9802.000
618.0500, 9946.000
619.2150, 10166.00
620.3800, 10159.00
621.5450, 10348.00
622.7100, 10452.00
623.8740, 10541.00
625.0380, 10824.00
626.2020, 11065.00
627.3660, 11192.00
628.5300, 11297.00
629.6940, 11491.00
630.8570, 11762.00
632.0210, 12117.00
633.1840, 12370.57
634.3470, 12745.52
635.5100, 12991.00
636.6730, 13498.00
637.8350, 13834.00
638.9980, 14243.00
640.1600, 14702.00
641.3220, 15396.00
642.4840, 15973.00
643.6460, 16608.00
644.8070, 17622.00
645.9690, 18650.00
647.1300, 19602.00
648.2910, 20920.00
649.4520, 22813.00
650.6130, 24851.00
651.7740, 27369.00
652.9340, 30407.00
654.0950, 34757.00
655.2550, 39859.00
656.4150, 45917.00
657.5750, 53572.00
658.7350, 63153.00
659.8940, 75155.00
661.0540, 88506.00
662.2130, 104155.0
663.3720, 121214.0
664.5310, 138338.0
665.6900, 155091.0
666.8490, 169211.0
668.0070, 179285.0
669.1650, 182009.5
670.3240, 182932.0
671.4820, 174176.0
672.6400, 161443.0
673.7970, 144449.0
674.9550, 126629.0
676.1120, 109579.0
677.2690, 94293.00
678.4270, 82274.00
679.5830, 71955.00
680.7400, 63779.00
681.8970, 56310.00
683.0530, 49897.00
684.2100, 44363.00
685.3660, 39418.00
686.5220, 34457.00
687.6780, 30173.00
688.8330, 27044.00
689.9890, 24112.00
691.1440, 22519.00
692.2990, 21260.00
693.4540, 19523.00
694.6090, 17396.00
695.7640, 16487.00
696.9180, 15867.00
698.0730, 15063.00
699.2270, 14675.00
700.3810, 14364.00
701.5350, 13971.00
702.6890, 13881.00
703.8430, 13942.00
704.9960, 13979.00
706.1490, 14065.00
707.3030, 14407.00
708.4560, 14887.00
709.6080, 15603.00
710.7610, 16257.00
711.9140, 16845.00
713.0660, 17497.00
714.2180, 18230.00
715.3700, 18370.00
716.5220, 18321.00
717.6740, 17851.00
718.8250, 17102.00
719.9770, 16075.00
721.1280, 15056.00
722.2790, 14170.00
723.4300, 13449.67
724.5810, 12863.00
725.7320, 12294.00
726.8820, 11892.00
728.0320, 11559.62
729.1830, 11505.00
730.3330, 11225.00
731.4820, 11223.00
732.6320, 11186.00
733.7820, 11268.00
734.9310, 11093.00
736.0800, 11184.00
737.2290, 11125.00
738.3780, 11270.00
739.5270, 11419.00
740.6750, 11307.69
741.8240, 11106.00
742.9720, 11137.00
744.1200, 10894.00
745.2680, 10747.00
746.4160, 10486.00
747.5640, 10385.00
748.7110, 10203.00
749.8580, 10031.22
751.0060, 9762.000
752.1530, 9767.000
753.2990, 9585.000
754.4460, 9559.000
755.5930, 9449.000
756.7390, 9483.000
757.8850, 9424.000
759.0310, 9377.000
760.1770, 9353.000
761.3230, 9453.000
762.4690, 9285.000
763.6140, 9273.000
764.7590, 9352.000
765.9040, 9257.000
767.0490, 9178.000
768.1940, 9196.000
769.3390, 9151.000
770.4830, 9143.000
771.6270, 9114.119
772.7720, 9172.000
773.9160, 9066.000
775.0590, 9054.000
776.2030, 9075.000
777.3470, 9212.000
778.4900, 9213.000
779.6330, 9102.000
780.7760, 9030.000
781.9190, 9167.000
783.0620, 9152.000
784.2040, 9050.000
785.3470, 9166.000
786.4890, 9249.000
787.6310, 9168.000
788.7730, 9202.000
789.9150, 9247.000
791.0570, 9333.000
792.1980, 9258.000
793.3390, 9254.000
794.4810, 9326.000
795.6210, 9189.000
796.7620, 9268.000
797.9030, 9340.000
799.0430, 9349.000
800.1840, 9385.000
801.3240, 9417.761
802.4640, 9414.074
803.6040, 9465.000
804.7440, 9422.000
805.8830, 9435.000
807.0230, 9461.000
808.1620, 9498.000
809.3010, 9310.000
810.4400, 9563.000
811.5790, 9399.000
812.7170, 9470.000
813.8560, 9553.000
814.9940, 9549.000
816.1320, 9462.000
817.2700, 9509.000
818.4080, 9398.000
819.5460, 9478.000
820.6830, 9555.000
821.8200, 9527.000
822.9580, 9588.099
824.0950, 9463.000
825.2310, 9573.000
826.3680, 9465.000
827.5050, 9332.000
828.6410, 9552.000
829.7770, 9535.000
830.9130, 9527.000
832.0490, 9597.000
833.1850, 9638.000
834.3210, 9540.000
835.4560, 9474.000
836.5910, 9560.000
837.7260, 9590.000
838.8610, 9687.000
839.9960, 9681.543
841.1310, 9767.000
842.2650, 9673.000
843.4000, 9826.000
844.5340, 9833.000
845.6680, 9919.000
846.8010, 9818.000
847.9350, 9844.000
849.0690, 9870.000
850.2020, 9860.000
851.3350, 9986.000
852.4680, 10054.00
853.6010, 10064.00
854.7340, 10278.00
855.8660, 10162.00
856.9990, 10333.00
858.1310, 10530.00
859.2630, 10759.00
860.3950, 10754.00
861.5270, 10995.00
862.6580, 11422.00
863.7900, 11572.00
864.9210, 12219.00
866.0520, 12594.00
867.1830, 13287.00
868.3140, 13838.00
869.4450, 14750.00
870.5750, 15782.00
871.7060, 16363.00
872.8360, 17205.00
873.9660, 17943.00
875.0960, 18370.00
876.2250, 18456.00
877.3550, 18658.00
878.4840, 18383.00
879.6130, 18007.00
880.7420, 17514.00
881.8710, 17327.00
883.0000, 17038.00
884.1290, 17259.00
885.2570, 16979.15
886.3850, 17066.00
887.5130, 16687.00
888.6410, 16999.00
889.7690, 16795.00
890.8970, 16682.00
892.0240, 16331.00
893.1510, 15859.00
894.2790, 15329.00
895.4050, 14838.60
896.5320, 14414.71
897.6590, 14057.08
898.7850, 13691.00
899.9120, 13580.00
901.0380, 13472.00
902.1640, 13526.00
903.2900, 13646.46
904.4150, 13792.00
905.5410, 14171.00
906.6660, 14634.00
907.7920, 15140.00
908.9170, 16081.00
910.0420, 16831.00
911.1660, 17246.00
912.2910, 18150.00
913.4150, 18624.00
914.5400, 19060.00
915.6640, 19087.00
916.7880, 18988.00
917.9110, 18369.00
919.0350, 17547.00
920.1580, 17241.00
921.2820, 16622.00
922.4050, 15928.00
923.5280, 15842.00
924.6510, 15381.00
925.7730, 15380.00
926.8960, 15427.00
928.0180, 15552.00
929.1400, 15961.00
930.2620, 16547.00
931.3840, 17324.00
932.5060, 18328.00
933.6270, 19416.00
934.7490, 20669.00
935.8700, 21826.00
936.9910, 22592.00
938.1120, 23042.00
939.2330, 22704.00
940.3530, 22116.00
941.4740, 20871.00
942.5940, 19593.00
943.7140, 18256.00
944.8340, 17266.00
945.9540, 16569.00
947.0730, 15869.00
948.1930, 15661.00
949.3120, 15556.00
950.4310, 15461.00
951.5500, 15669.00
952.6690, 15680.00
953.7870, 16159.00
954.9060, 16321.00
956.0240, 16983.00
957.1420, 17578.00
958.2600, 18661.35
959.3780, 20429.00
960.4960, 21490.00
961.6130, 23731.00
962.7310, 25808.00
963.8480, 28399.00
964.9650, 32566.00
966.0820, 36872.00
967.1990, 42843.00
968.3150, 49629.00
969.4310, 56576.00
970.5480, 64168.00
971.6640, 70520.00
972.7800, 75619.00
973.8950, 78525.00
975.0110, 79001.00
976.1260, 76649.00
977.2420, 72441.00
978.3570, 67688.00
979.4720, 63062.00
980.5870, 59822.00
981.7010, 57081.00
982.8160, 56308.00
983.9300, 56678.00
985.0440, 59423.00
986.1580, 62989.00
987.2720, 67815.00
988.3860, 73523.00
989.4990, 80544.00
990.6120, 86173.00
991.7260, 90836.00
992.8390, 93152.00
993.9510, 92969.00
995.0640, 89653.00
996.1770, 86033.00
997.2890, 81820.00
998.4010, 79595.00
999.5130, 78095.00
1000.625, 78271.00
1001.737, 78419.00
1002.848, 77635.00
1003.960, 75603.00
1005.071, 71449.00
1006.182, 66442.00
1007.293, 60670.00
1008.404, 53942.00
1009.514, 48560.00
1010.625, 42981.00
1011.735, 39159.00
1012.845, 35464.00
1013.955, 33089.00
1015.065, 31330.00
1016.175, 30246.00
1017.284, 29287.00
1018.393, 28703.00
1019.503, 28386.00
1020.612, 28126.00
1021.720, 28398.00
1022.829, 28493.00
1023.937, 28860.00
1025.046, 29438.00
1026.154, 30001.00
1027.262, 30396.00
1028.370, 30750.02
1029.478, 31109.00
1030.585, 31195.00
1031.692, 31265.00
1032.800, 31309.00
1033.907, 30880.00
1035.014, 30552.00
1036.120, 30497.00
1037.227, 30473.00
1038.333, 30982.00
1039.440, 31437.00
1040.546, 32525.00
1041.652, 33151.00
1042.757, 34636.00
1043.863, 36423.00
1044.968, 37893.00
1046.074, 39384.00
1047.179, 40142.00
1048.284, 40238.00
1049.388, 38935.00
1050.493, 36625.00
1051.598, 33914.00
1052.702, 30817.00
1053.806, 27791.00
1054.910, 25022.00
1056.014, 22806.00
1057.117, 21157.00
1058.221, 19416.00
1059.324, 18153.00
1060.427, 17124.00
1061.530, 16456.00
1062.633, 15854.00
1063.736, 15260.00
1064.838, 14936.00
1065.941, 14657.00
1067.043, 14274.00
1068.145, 14171.00
1069.247, 13828.00
1070.349, 13911.00
1071.450, 13725.00
1072.552, 13779.00
1073.653, 13511.00
1074.754, 13502.00
1075.855, 13369.00
1076.955, 13521.00
1078.056, 13423.00
1079.156, 13235.00
1080.257, 13354.00
1081.357, 13116.00
1082.457, 13172.00
1083.557, 13233.00
1084.656, 13066.00
1085.756, 12950.00
1086.855, 12920.00
1087.954, 12978.00
1089.053, 12857.00
1090.152, 12826.00
1091.250, 12711.08
1092.349, 12538.00
1093.447, 12437.00
1094.545, 12429.00
1095.643, 12318.00
1096.741, 12350.00
1097.839, 12430.00
1098.936, 12366.16
1100.034, 12367.67
1101.131, 12378.00
1102.228, 12256.00
1103.325, 12323.00
1104.421, 12233.00
1105.518, 12333.00
1106.614, 12304.00
1107.710, 12391.00
1108.806, 12347.00
1109.902, 12340.00
1110.998, 12227.00
1112.094, 12327.00
1113.189, 12279.00
1114.284, 12326.00
1115.379, 12358.00
1116.474, 12332.00
1117.569, 12335.00
1118.664, 12248.00
1119.758, 12345.00
1120.852, 12119.00
1121.946, 12243.00
1123.040, 12174.00
1124.134, 12127.00
1125.228, 12233.00
1126.321, 12181.00
1127.414, 12223.00
1128.507, 12099.00
1129.600, 12145.00
1130.693, 12122.00
1131.786, 12179.00
1132.878, 12255.00
1133.971, 12233.10
1135.063, 12129.00
1136.155, 12254.00
1137.247, 12227.00
1138.338, 12272.00
1139.430, 12069.00
1140.521, 12275.00
1141.612, 12018.00
1142.703, 12306.00
1143.794, 12224.00
1144.885, 12285.00
1145.975, 12179.00
1147.066, 12182.00
1148.156, 12184.00
1149.246, 12139.00
1150.336, 12111.00
1151.425, 12115.45
1152.515, 12145.00
1153.604, 12121.00
1154.693, 12159.00
1155.783, 12171.00
1156.871, 12055.00
1157.960, 12146.00
1159.049, 12304.00
1160.137, 12079.00
1161.225, 12102.00
1162.313, 12127.00
1163.401, 12014.00
1164.489, 12090.00
1165.577, 12116.00
1166.664, 12078.00
1167.751, 12071.00
1168.838, 12036.00
1169.925, 12074.00
1171.012, 12033.00
1172.099, 11987.00
1173.185, 12027.00
1174.272, 11968.00
1175.358, 11933.00
1176.444, 12134.00
1177.529, 11919.00
1178.615, 11976.00
1179.700, 11888.00
1180.786, 12009.00
1181.871, 11916.00
1182.956, 12047.00
1184.041, 11867.00
1185.125, 11804.00
1186.210, 11814.00
1187.294, 11988.00
1188.378, 11901.00
1189.462, 11926.00
1190.546, 11922.00
1191.630, 11835.00
1192.713, 11917.00
1193.797, 11745.00
1194.880, 11945.00
1195.963, 12111.00
1197.046, 11969.00
1198.129, 11897.00
1199.211, 11858.00
1200.293, 11822.46
1201.376, 11863.00
1202.458, 11848.00
1203.540, 11975.00
1204.621, 12033.00
1205.703, 12059.00
1206.784, 12180.00
1207.865, 12025.00
1208.947, 11876.00
1210.027, 11937.00
1211.108, 11876.00
1212.189, 12057.00
1213.269, 12246.00
1214.349, 12002.00
1215.430, 12017.00
1216.509, 12003.00
1217.589, 12107.00
1218.669, 12044.31
1219.748, 12168.88
1220.827, 12246.55
1221.907, 12279.84
1222.986, 12136.46
1224.064, 12220.68
1225.143, 12213.39
1226.221, 12202.11
1227.300, 12317.75
1228.378, 12198.91
1229.456, 12312.08
1230.534, 12332.32
1231.611, 12394.75
1232.689, 12365.11
1233.766, 12363.61
1234.843, 12453.78
1235.920, 12492.85
1236.997, 12451.74
1238.074, 12515.54
1239.150, 12391.25
1240.226, 12431.59
1241.303, 12542.85
1242.379, 12505.24
1243.454, 12569.60
1244.530, 12594.82
1245.606, 12442.93
1246.681, 12598.45
1247.756, 12620.70
1248.831, 12506.12
1249.906, 12650.44
1250.981, 12554.25
1252.055, 12543.60
1253.130, 12597.29
1254.204, 12583.46
1255.278, 12675.49
1256.352, 12665.11
1257.425, 12645.36
1258.499, 12665.26
1259.572, 12572.01
1260.646, 12688.03
1261.719, 12660.73
1262.791, 12704.33
1263.864, 12763.84
1264.937, 12699.69
1266.009, 12675.57
1267.081, 12742.00
1268.153, 12654.00
1269.225, 12686.00
1270.297, 12729.00
1271.369, 12779.00
1272.440, 12828.00
1273.511, 12735.00
1274.582, 12883.00
1275.653, 12782.00
1276.724, 12907.00
1277.795, 12946.00
1278.865, 12840.00
1279.935, 12862.00
1281.006, 13051.00
1282.076, 12927.00
1283.145, 13018.64
1284.215, 13145.00
1285.284, 12969.00
1286.354, 13204.00
1287.423, 13009.00
1288.492, 13007.00
1289.561, 13113.00
1290.629, 13049.00
1291.698, 13156.00
1292.766, 13156.00
1293.834, 13079.00
1294.902, 13151.00
1295.970, 13147.00
1297.037, 13126.00
1298.105, 13145.00
1299.172, 13152.00
1300.239, 13041.00
1301.306, 13162.00
1302.373, 13191.00
1303.440, 13113.00
1304.506, 13357.00
1305.573, 13363.00
1306.639, 13360.00
1307.705, 13366.00
1308.771, 13376.01
1309.836, 13356.30
1310.902, 13399.00
1311.967, 13395.00
1313.033, 13403.02
1314.098, 13391.00
1315.162, 13404.00
1316.227, 13410.38
1317.292, 13352.19
1318.356, 13449.27
1319.420, 13512.03
1320.484, 13542.30
1321.548, 13442.79
1322.612, 13510.87
1323.675, 13511.76
1324.739, 13509.92
1325.802, 13601.56
1326.865, 13520.91
1327.928, 13611.07
1328.991, 13633.05
1330.053, 13686.21
1331.116, 13671.82
1332.178, 13678.28
1333.240, 13752.34
1334.302, 13788.97
1335.363, 13766.76
1336.425, 13821.91
1337.486, 13738.86
1338.548, 13777.09
1339.609, 13867.61
1340.670, 13848.80
1341.730, 13905.15
1342.791, 13932.88
1343.851, 13830.48
1344.912, 13954.39
1345.972, 13980.42
1347.032, 13905.96
1348.091, 14022.07
1349.151, 13961.47
1350.210, 13963.93
1351.270, 14013.89
1352.329, 13975.00
1353.388, 14109.00
1354.447, 14040.00
1355.505, 14124.00
1356.564, 14015.00
1357.622, 14067.00
1358.680, 14088.00
1359.738, 14040.00
1360.796, 14033.00
1361.853, 14065.75
1362.911, 14054.11
1363.968, 14173.00
1365.025, 14069.00
1366.082, 14190.00
1367.139, 14169.00
1368.196, 14204.00
1369.252, 14276.00
1370.308, 14216.00
1371.365, 14250.00
1372.421, 14303.00
1373.476, 14303.00
1374.532, 14117.00
1375.588, 14334.00
1376.643, 14323.00
1377.698, 14233.00
1378.753, 14468.00
1379.808, 14164.00
1380.862, 14335.00
1381.917, 14433.00
1382.971, 14352.00
1384.025, 14366.00
1385.079, 14418.00
1386.133, 14400.00
1387.187, 14524.00
1388.240, 14435.00
1389.294, 14564.00
1390.347, 14373.00
1391.400, 14487.00
1392.453, 14497.00
1393.506, 14619.00
1394.558, 14609.09
1395.610, 14654.56
1396.663, 14494.00
1397.715, 14688.00
1398.766, 14425.00
1399.818, 14385.00
1400.870, 14641.00
1401.921, 14606.00
1402.972, 14531.00
1404.023, 14589.00
1405.074, 14665.00
1406.125, 14555.00
1407.175, 14710.00
1408.226, 14852.00
1409.276, 14851.00
1410.326, 14813.00
1411.376, 14653.00
1412.426, 14811.00
1413.475, 14632.00
1414.525, 14834.00
1415.574, 15022.00
1416.623, 14827.00
1417.672, 14988.00
1418.720, 14865.00
1419.769, 14931.00
1420.817, 14864.00
1421.866, 15024.00
1422.914, 14983.00
1423.962, 14862.00
1425.009, 15037.00
1426.057, 15145.00
1427.104, 14996.00
1428.152, 14997.00
1429.199, 15064.00
1430.246, 14974.00
1431.292, 15023.00
1432.339, 14996.00
1433.385, 15040.00
1434.431, 15100.00
1435.478, 15267.00
1436.523, 15254.00
1437.569, 15320.68
1438.615, 15369.00
1439.660, 15326.00
1440.706, 15345.00
1441.751, 15260.00
1442.796, 15325.00
1443.840, 15279.00
1444.885, 15404.00
1445.929, 15422.00
1446.974, 15367.00
1448.018, 15343.00
1449.062, 15375.00
1450.105, 15525.00
1451.149, 15341.00
1452.192, 15666.00
1453.236, 15454.00
1454.279, 15410.00
1455.322, 15504.00
1456.365, 15475.00
1457.407, 15611.00
1458.450, 15625.00
1459.492, 15677.00
1460.534, 15466.00
1461.576, 15612.00
1462.618, 15608.00
1463.659, 15810.00
1464.701, 15657.00
1465.742, 15520.00
1466.783, 15619.00
1467.824, 15810.00
1468.865, 15800.00
1469.906, 15778.00
1470.946, 15842.00
1471.986, 15894.00
1473.026, 15887.00
1474.066, 15923.63
1475.106, 15838.00
1476.146, 15903.00
1477.185, 15858.00
1478.225, 15761.00
1479.264, 15827.00
1480.303, 15789.69
1481.342, 15811.00
1482.380, 15867.00
1483.419, 15933.00
1484.457, 16085.00
1485.495, 15926.00
1486.533, 16040.00
1487.571, 15968.00
1488.609, 16039.00
1489.646, 16046.00
1490.683, 15920.00
1491.721, 16069.00
1492.758, 16100.00
1493.794, 16070.00
1494.831, 15935.00
1495.868, 16067.00
1496.904, 16008.00
1497.940, 16027.27
1498.976, 16022.39
1500.012, 16051.00
1501.047, 16006.00
1502.083, 15963.00
1503.118, 16059.00
1504.153, 16211.00
1505.188, 16069.00
1506.223, 16165.00
1507.258, 16209.00
1508.292, 16237.00
1509.327, 16264.66
1510.361, 16124.00
1511.395, 16217.00
1512.429, 16313.00
1513.462, 16185.00
1514.496, 16361.00
1515.529, 16462.00
1516.563, 16378.00
1517.596, 16361.00
1518.628, 16313.00
1519.661, 16504.00
1520.694, 16424.00
1521.726, 16458.00
1522.758, 16421.00
1523.790, 16400.76
1524.822, 16498.00
1525.854, 16393.00
1526.885, 16646.00
1527.917, 16714.00
1528.948, 16538.00
1529.979, 16508.00
1531.010, 16533.00
1532.040, 16660.00
1533.071, 16929.00
1534.101, 16867.51
1535.131, 16977.00
1536.161, 16780.00
1537.191, 16927.00
1538.221, 16703.00
1539.250, 16877.00
1540.280, 16824.00
1541.309, 16892.00
1542.338, 16884.00
1543.367, 16911.00
1544.396, 16899.00
1545.424, 16807.00
1546.453, 17015.00
1547.481, 17230.00
1548.509, 17142.00
1549.537, 17070.00
1550.564, 16974.00
1551.592, 17036.00
1552.619, 17399.00
1553.646, 17290.00
1554.673, 17432.00
1555.700, 17552.00
1556.727, 17376.00
1557.754, 17303.00
1558.780, 17254.00
1559.806, 17370.00
1560.832, 17248.00
1561.858, 17354.00
1562.884, 17496.00
1563.909, 17347.00
1564.935, 17402.00
1565.960, 17354.44
1566.985, 17512.00
1568.010, 17236.00
1569.035, 17370.00
1570.059, 17314.00
1571.084, 17506.00
1572.108, 17587.00
1573.132, 17444.00
1574.156, 17624.00
1575.179, 17619.00
1576.203, 17602.00
1577.226, 17657.00
1578.250, 17578.00
1579.273, 17680.00
##END=



