##NAMES=Rhodonite
##RRUFFID=R060549
##IDEAL CHEMISTRY=CaMn^2+^_3_Mn^2+^Si_5_O_15_
##LOCALITY=unknown
##OWNER=RRUFF
##SOURCE=Gemological Institute of America
##DESCRIPTION=Pink cleavage fragment
##STATUS=The identification of this mineral has been confirmed by X-ray diffraction and chemical analysis
##URL=rruff.info/R060549
##MEASURED CHEMISTRY=(Mn_0.76_Ca_0.12_Fe_0.07_Mg_0.06_)Si_0.99_O_3_
##PIN_ID=L01131
##ORIENTATION=Laser parallel to (1 0 1). Fiducial mark perpendicular to laser is parallel to b [0 1 0]
84.51000, 9675.000
85.74900, 9894.000
86.98900, 10182.00
88.22800, 10521.00
89.46700, 10937.00
90.70600, 11215.00
91.94400, 11470.37
93.18300, 11882.00
94.42100, 11812.00
95.65900, 11838.00
96.89700, 11827.00
98.13500, 11570.00
99.37300, 11416.00
100.6100, 11126.00
101.8480, 10761.00
103.0850, 10359.00
104.3220, 10237.00
105.5590, 10284.00
106.7950, 10541.00
108.0320, 10842.00
109.2680, 11186.00
110.5040, 12094.00
111.7400, 12316.00
112.9760, 12843.00
114.2120, 13270.00
115.4470, 13738.00
116.6820, 13943.00
117.9170, 13751.00
119.1520, 13571.00
120.3870, 13019.00
121.6220, 12797.00
122.8560, 12282.00
124.0900, 12230.00
125.3240, 11762.00
126.5580, 11448.00
127.7920, 10999.00
129.0260, 10893.00
130.2590, 10429.00
131.4920, 10258.00
132.7250, 10237.00
133.9580, 10411.00
135.1910, 10258.00
136.4230, 10298.00
137.6560, 10377.00
138.8880, 10405.00
140.1200, 10559.00
141.3520, 10547.00
142.5830, 10416.00
143.8150, 10272.00
145.0460, 9968.000
146.2770, 9840.000
147.5080, 9694.000
148.7390, 9749.000
149.9700, 9713.000
151.2000, 9697.000
152.4310, 9724.000
153.6610, 9746.000
154.8910, 10021.00
156.1210, 10287.00
157.3500, 10323.00
158.5800, 10520.00
159.8090, 10612.00
161.0380, 10734.00
162.2670, 10988.00
163.4960, 10952.00
164.7240, 11080.00
165.9530, 11033.00
167.1810, 11005.00
168.4090, 10993.00
169.6370, 10763.00
170.8650, 10607.00
172.0920, 10432.00
173.3200, 10286.00
174.5470, 10114.00
175.7740, 10005.00
177.0010, 9857.000
178.2280, 9868.000
179.4540, 9761.000
180.6810, 9800.000
181.9070, 9760.000
183.1330, 9748.000
184.3590, 9666.000
185.5850, 9662.000
186.8100, 9477.000
188.0350, 9356.000
189.2610, 9371.000
190.4860, 9252.000
191.7110, 9370.000
192.9350, 9311.000
194.1600, 9297.000
195.3840, 9308.000
196.6080, 9177.000
197.8320, 9089.000
199.0560, 9090.000
200.2800, 9089.000
201.5030, 9089.906
202.7270, 9070.249
203.9500, 9136.000
205.1730, 9059.000
206.3950, 9044.000
207.6180, 9109.000
208.8410, 9145.000
210.0630, 9020.000
211.2850, 9186.000
212.5070, 9249.000
213.7290, 9224.000
214.9500, 9364.000
216.1720, 9358.000
217.3930, 9333.000
218.6140, 9350.000
219.8350, 9484.000
221.0560, 9370.000
222.2770, 9368.000
223.4970, 9216.000
224.7170, 9342.000
225.9370, 9321.000
227.1570, 9235.000
228.3770, 9387.000
229.5970, 9334.000
230.8160, 9343.000
232.0350, 9359.000
233.2540, 9553.000
234.4730, 9461.000
235.6920, 9676.000
236.9110, 9708.000
238.1290, 9593.000
239.3470, 9826.000
240.5650, 9963.000
241.7830, 9996.000
243.0010, 9986.000
244.2180, 10246.00
245.4360, 10196.00
246.6530, 10377.00
247.8700, 10537.00
249.0870, 10679.00
250.3040, 10792.00
251.5200, 10708.00
252.7370, 11041.00
253.9530, 11006.00
255.1690, 11114.00
256.3850, 11248.00
257.6000, 11533.00
258.8160, 11691.00
260.0310, 11799.00
261.2460, 11940.00
262.4610, 12362.00
263.6760, 12454.00
264.8910, 12508.00
266.1050, 12459.00
267.3200, 12318.00
268.5340, 12284.00
269.7480, 11884.00
270.9620, 11668.00
272.1750, 11389.00
273.3890, 11346.00
274.6020, 11119.00
275.8150, 11010.00
277.0280, 10740.00
278.2410, 10834.00
279.4540, 10692.00
280.6660, 10530.00
281.8790, 10472.00
283.0910, 10209.00
284.3030, 10014.00
285.5140, 10159.00
286.7260, 10123.00
287.9380, 9937.000
289.1490, 9883.000
290.3600, 9960.000
291.5710, 9846.000
292.7820, 9879.000
293.9920, 9918.000
295.2030, 10027.00
296.4130, 10085.00
297.6230, 10099.00
298.8330, 10220.00
300.0430, 10150.00
301.2520, 10143.00
302.4620, 10355.00
303.6710, 10528.00
304.8800, 10465.00
306.0890, 10399.00
307.2980, 10321.00
308.5070, 10486.00
309.7150, 10430.00
310.9230, 10449.00
312.1310, 10388.00
313.3390, 10653.00
314.5470, 10554.00
315.7550, 10687.00
316.9620, 10785.00
318.1690, 10870.00
319.3760, 10965.00
320.5830, 11301.00
321.7900, 11550.00
322.9960, 11566.00
324.2030, 11838.00
325.4090, 11944.00
326.6150, 12027.00
327.8210, 12159.00
329.0270, 12046.00
330.2320, 12060.00
331.4380, 12028.00
332.6430, 12187.00
333.8480, 11895.00
335.0530, 12035.00
336.2580, 11959.21
337.4620, 11805.00
338.6670, 11867.00
339.8710, 11721.00
341.0750, 11635.00
342.2790, 11423.00
343.4820, 11289.00
344.6860, 11300.00
345.8890, 11250.00
347.0920, 11192.00
348.2960, 11145.00
349.4980, 11051.94
350.7010, 11049.00
351.9040, 10886.00
353.1060, 10882.00
354.3080, 10863.00
355.5100, 10681.00
356.7120, 10605.00
357.9140, 10717.00
359.1150, 10625.00
360.3170, 10648.00
361.5180, 10641.00
362.7190, 10640.00
363.9200, 10639.00
365.1200, 10631.98
366.3210, 10621.00
367.5210, 10568.00
368.7210, 10648.00
369.9210, 10511.00
371.1210, 10528.00
372.3210, 10583.00
373.5200, 10473.00
374.7200, 10436.00
375.9190, 10451.00
377.1180, 10411.00
378.3170, 10588.00
379.5150, 10362.00
380.7140, 10498.00
381.9120, 10488.00
383.1110, 10765.00
384.3090, 10689.00
385.5060, 10803.00
386.7040, 11008.00
387.9020, 10909.00
389.0990, 11076.00
390.2960, 11022.00
391.4930, 11094.00
392.6900, 11057.00
393.8860, 11001.00
395.0830, 10880.00
396.2790, 10928.00
397.4750, 10752.00
398.6710, 10543.00
399.8670, 10485.00
401.0630, 10600.00
402.2580, 10482.00
403.4540, 10606.00
404.6490, 10587.00
405.8440, 10633.00
407.0390, 10680.00
408.2330, 10705.00
409.4280, 10766.38
410.6220, 10834.00
411.8160, 10894.00
413.0100, 10904.00
414.2040, 11000.00
415.3980, 11139.00
416.5910, 11205.00
417.7850, 11121.00
418.9780, 11133.00
420.1710, 11356.00
421.3640, 11489.00
422.5560, 11553.00
423.7490, 11496.00
424.9410, 11213.00
426.1330, 11207.00
427.3250, 11241.00
428.5170, 11022.00
429.7090, 11171.00
430.9000, 11014.00
432.0910, 11122.00
433.2820, 11120.00
434.4730, 11230.00
435.6640, 11342.00
436.8550, 11341.00
438.0450, 11367.00
439.2360, 11345.00
440.4260, 11343.00
441.6160, 11243.00
442.8060, 11284.00
443.9950, 11141.00
445.1850, 11082.00
446.3740, 10944.00
447.5630, 11079.00
448.7520, 10979.00
449.9410, 11020.00
451.1300, 11041.00
452.3180, 11085.00
453.5060, 11215.00
454.6950, 11112.00
455.8830, 11281.00
457.0700, 11217.00
458.2580, 11186.00
459.4450, 11266.00
460.6330, 11187.00
461.8200, 11170.00
463.0070, 11171.00
464.1940, 11074.00
465.3800, 11085.00
466.5670, 11088.00
467.7530, 10961.00
468.9390, 11032.00
470.1250, 10889.00
471.3110, 11014.00
472.4970, 11110.00
473.6820, 11044.00
474.8680, 10906.00
476.0530, 10929.00
477.2380, 10937.00
478.4230, 10998.00
479.6070, 10862.00
480.7920, 10687.00
481.9760, 10827.00
483.1600, 10960.00
484.3440, 10623.00
485.5280, 10844.00
486.7120, 10848.00
487.8950, 10781.00
489.0780, 10688.00
490.2620, 10794.00
491.4450, 10824.00
492.6270, 10892.00
493.8100, 10943.08
494.9920, 10947.00
496.1750, 11012.00
497.3570, 11053.00
498.5390, 11053.00
499.7210, 11087.00
500.9020, 10867.00
502.0840, 10971.00
503.2650, 10954.00
504.4460, 10923.00
505.6270, 11018.00
506.8080, 10940.00
507.9890, 10995.00
509.1690, 10897.00
510.3500, 10985.00
511.5300, 11019.00
512.7100, 11095.00
513.8900, 11013.00
515.0690, 11129.00
516.2490, 11015.00
517.4280, 10955.00
518.6070, 11142.00
519.7860, 10955.00
520.9650, 10742.00
522.1440, 10999.00
523.3220, 10953.00
524.5010, 10951.00
525.6790, 10923.00
526.8570, 10945.00
528.0350, 10880.00
529.2130, 10886.78
530.3900, 11007.00
531.5670, 10904.00
532.7450, 10986.00
533.9220, 11085.00
535.0980, 11063.00
536.2750, 10990.00
537.4520, 11117.00
538.6280, 11153.00
539.8040, 11244.00
540.9800, 11306.00
542.1560, 11371.60
543.3320, 11403.00
544.5070, 11485.00
545.6830, 11475.00
546.8580, 11468.00
548.0330, 11558.00
549.2080, 11430.00
550.3830, 11451.00
551.5570, 11493.00
552.7310, 11403.00
553.9060, 11580.00
555.0800, 11822.00
556.2540, 11828.00
557.4270, 11855.00
558.6010, 12021.00
559.7740, 11959.00
560.9470, 11892.00
562.1210, 11874.00
563.2930, 11744.00
564.4660, 11708.00
565.6390, 11712.00
566.8110, 11636.15
567.9830, 11668.30
569.1550, 11635.00
570.3270, 11733.00
571.4990, 11890.00
572.6710, 11989.00
573.8420, 11959.00
575.0130, 11953.00
576.1840, 11877.00
577.3550, 11812.00
578.5260, 11785.00
579.6970, 11659.00
580.8670, 11547.00
582.0370, 11665.00
583.2070, 11442.00
584.3770, 11503.00
585.5470, 11503.00
586.7170, 11396.00
587.8860, 11412.00
589.0550, 11401.21
590.2240, 11511.00
591.3930, 11415.00
592.5620, 11506.00
593.7310, 11501.00
594.8990, 11566.00
596.0670, 11568.21
597.2350, 11513.00
598.4030, 11552.00
599.5710, 11527.00
600.7390, 11495.00
601.9060, 11441.00
603.0740, 11576.00
604.2410, 11449.00
605.4080, 11494.00
606.5740, 11644.00
607.7410, 11690.00
608.9080, 11623.00
610.0740, 11624.00
611.2400, 11663.00
612.4060, 11678.00
613.5720, 11706.83
614.7370, 11727.75
615.9030, 11763.00
617.0680, 11780.00
618.2330, 11793.00
619.3980, 11850.00
620.5630, 11942.00
621.7280, 11814.00
622.8920, 11969.00
624.0570, 11970.00
625.2210, 12081.00
626.3850, 12092.00
627.5490, 12110.00
628.7120, 12173.00
629.8760, 12334.00
631.0390, 12351.00
632.2020, 12134.00
633.3650, 12313.00
634.5280, 12371.00
635.6910, 12340.00
636.8530, 12549.00
638.0160, 12665.00
639.1780, 12778.00
640.3400, 12929.00
641.5020, 12904.00
642.6640, 12905.00
643.8250, 13029.00
644.9870, 13219.00
646.1480, 13503.00
647.3090, 13570.00
648.4700, 13907.00
649.6300, 14182.00
650.7910, 14537.00
651.9510, 14728.00
653.1120, 15332.00
654.2720, 15880.00
655.4320, 16587.00
656.5910, 17812.00
657.7510, 18719.00
658.9100, 20000.00
660.0690, 21495.00
661.2290, 23010.00
662.3880, 24624.00
663.5460, 26081.00
664.7050, 27863.00
665.8630, 30002.00
667.0220, 32203.00
668.1800, 34326.00
669.3380, 35464.00
670.4950, 36356.00
671.6530, 35814.00
672.8100, 34466.00
673.9680, 32035.00
675.1250, 29612.00
676.2820, 27114.00
677.4390, 25453.00
678.5950, 23913.00
679.7520, 22459.00
680.9080, 21414.00
682.0640, 20197.00
683.2200, 19303.00
684.3760, 18179.00
685.5320, 17245.00
686.6870, 16459.00
687.8420, 15928.00
688.9980, 15435.00
690.1530, 14965.00
691.3070, 14594.00
692.4620, 14275.89
693.6170, 14169.00
694.7710, 13850.00
695.9250, 13769.00
697.0790, 13749.00
698.2330, 13561.22
699.3870, 13434.00
700.5400, 13368.00
701.6940, 13313.00
702.8470, 13232.00
704.0000, 13209.54
705.1530, 13200.54
706.3050, 13196.00
707.4580, 13252.00
708.6100, 13327.00
709.7630, 13412.00
710.9150, 13376.00
712.0660, 13345.00
713.2180, 13451.00
714.3700, 13412.00
715.5210, 13440.00
716.6720, 13475.00
717.8240, 13455.00
718.9740, 13515.00
720.1250, 13407.00
721.2760, 13352.00
722.4260, 13204.00
723.5770, 13259.00
724.7270, 13158.00
725.8770, 13130.00
727.0260, 13045.00
728.1760, 13158.00
729.3250, 13108.00
730.4750, 13093.00
731.6240, 13124.00
732.7730, 13072.00
733.9220, 13004.00
735.0700, 13248.00
736.2190, 13052.00
737.3670, 13305.00
738.5150, 13370.00
739.6630, 13373.00
740.8110, 13323.00
741.9590, 13432.00
743.1060, 13336.00
744.2540, 13395.00
745.4010, 13181.00
746.5480, 13042.00
747.6950, 13012.00
748.8410, 13011.00
749.9880, 13080.00
751.1340, 12851.00
752.2800, 12863.00
753.4260, 13026.00
754.5720, 12875.00
755.7180, 12777.00
756.8640, 12749.00
758.0090, 12868.00
759.1540, 12829.00
760.2990, 12856.00
761.4440, 12896.22
762.5890, 12712.00
763.7340, 12902.00
764.8780, 12912.00
766.0220, 12832.00
767.1660, 12922.00
768.3100, 12929.00
769.4540, 12908.00
770.5980, 12875.00
771.7410, 12797.00
772.8840, 12997.00
774.0280, 12924.00
775.1700, 12862.00
776.3130, 12988.00
777.4560, 12924.00
778.5980, 12797.00
779.7410, 12937.00
780.8830, 12736.00
782.0250, 12783.00
783.1670, 12848.00
784.3080, 12997.00
785.4500, 12981.00
786.5910, 12947.00
787.7320, 12867.00
788.8730, 12868.00
790.0140, 13094.00
791.1550, 12988.00
792.2950, 12929.00
793.4360, 13090.00
794.5760, 13026.00
795.7160, 12850.00
796.8560, 12901.00
797.9960, 13156.00
799.1350, 12899.00
800.2750, 13067.00
801.4140, 12908.00
802.5530, 13028.00
803.6920, 13089.00
804.8310, 12990.00
805.9690, 13056.00
807.1080, 13047.00
808.2460, 13021.00
809.3840, 13190.00
810.5220, 13104.00
811.6600, 13090.00
812.7970, 13197.00
813.9350, 13113.00
815.0720, 13025.00
816.2090, 13213.00
817.3460, 13094.00
818.4830, 13415.00
819.6200, 13168.00
820.7560, 13270.00
821.8930, 13258.00
823.0290, 13358.00
824.1650, 13284.00
825.3010, 13111.00
826.4360, 13195.00
827.5720, 13267.00
828.7070, 13261.00
829.8420, 13417.00
830.9770, 13273.00
832.1120, 13236.00
833.2470, 13340.00
834.3820, 13398.00
835.5160, 13315.00
836.6500, 13560.00
837.7840, 13393.00
838.9180, 13375.00
840.0520, 13561.00
841.1860, 13476.00
842.3190, 13493.00
843.4520, 13431.00
844.5850, 13456.00
845.7180, 13383.00
846.8510, 13464.00
847.9840, 13520.00
849.1160, 13454.00
850.2490, 13511.00
851.3810, 13507.09
852.5130, 13560.00
853.6450, 13555.00
854.7760, 13578.00
855.9080, 13668.00
857.0390, 13642.00
858.1700, 13644.00
859.3010, 13737.00
860.4320, 13727.00
861.5630, 13722.00
862.6930, 13717.00
863.8240, 13765.00
864.9540, 13736.00
866.0840, 13638.00
867.2140, 13863.00
868.3440, 13789.00
869.4730, 13812.00
870.6030, 13700.00
871.7320, 13957.00
872.8610, 13948.00
873.9900, 13980.00
875.1190, 14030.00
876.2470, 13981.00
877.3760, 13939.00
878.5040, 13950.00
879.6320, 14130.00
880.7600, 14072.00
881.8880, 14131.00
883.0150, 14029.00
884.1430, 14076.00
885.2700, 14189.00
886.3970, 14221.00
887.5240, 14177.00
888.6510, 13959.00
889.7780, 13977.00
890.9040, 14060.00
892.0310, 14215.00
893.1570, 14045.00
894.2830, 14266.00
895.4090, 14221.00
896.5350, 14195.00
897.6600, 14300.00
898.7860, 14342.00
899.9110, 14410.00
901.0360, 14339.00
902.1610, 14420.00
903.2860, 14484.00
904.4100, 14588.00
905.5350, 14644.57
906.6590, 14555.00
907.7830, 14743.00
908.9070, 14813.00
910.0310, 14796.00
911.1540, 14958.00
912.2780, 14839.00
913.4010, 15062.00
914.5240, 14947.00
915.6470, 15024.00
916.7700, 14818.00
917.8930, 14985.00
919.0150, 15048.00
920.1380, 15033.00
921.2600, 14967.00
922.3820, 15003.41
923.5040, 14997.68
924.6260, 14955.00
925.7470, 15042.00
926.8690, 14930.00
927.9900, 14938.00
929.1110, 14914.00
930.2320, 14953.00
931.3530, 15053.00
932.4730, 15167.48
933.5940, 15323.01
934.7140, 15514.00
935.8340, 15724.00
936.9540, 15925.00
938.0740, 16179.00
939.1930, 16400.00
940.3130, 16358.00
941.4320, 16173.00
942.5510, 16187.00
943.6700, 15902.00
944.7890, 15954.00
945.9080, 15617.00
947.0260, 15501.00
948.1450, 15626.00
949.2630, 15435.00
950.3810, 15426.00
951.4990, 15547.00
952.6170, 15469.00
953.7340, 15362.00
954.8520, 15502.00
955.9690, 15583.00
957.0860, 15639.00
958.2030, 15905.00
959.3200, 16109.00
960.4360, 16169.00
961.5530, 16605.00
962.6690, 16761.00
963.7850, 17100.00
964.9010, 17672.00
966.0170, 18248.00
967.1330, 18942.00
968.2480, 19625.00
969.3630, 20783.00
970.4790, 21858.00
971.5940, 22890.00
972.7080, 23841.00
973.8230, 25077.00
974.9380, 25695.00
976.0520, 26303.00
977.1660, 26299.00
978.2800, 25837.00
979.3940, 25221.00
980.5080, 24816.00
981.6220, 24676.00
982.7350, 24145.00
983.8480, 24227.00
984.9610, 24112.00
986.0740, 24618.00
987.1870, 24744.00
988.3000, 25093.00
989.4120, 25279.00
990.5250, 25739.00
991.6370, 26243.00
992.7490, 26589.00
993.8610, 27142.00
994.9720, 27603.00
996.0840, 29067.00
997.1950, 29777.00
998.3060, 30652.00
999.4170, 31673.00
1000.528, 31976.00
1001.639, 31928.00
1002.750, 31277.00
1003.860, 30498.00
1004.970, 29396.00
1006.080, 27845.00
1007.190, 26614.00
1008.300, 25093.00
1009.410, 23946.00
1010.519, 22918.00
1011.628, 22049.00
1012.738, 20907.00
1013.846, 20378.00
1014.955, 19480.00
1016.064, 18878.00
1017.172, 18718.00
1018.281, 18520.00
1019.389, 18239.00
1020.497, 18001.00
1021.605, 17741.00
1022.713, 17832.00
1023.820, 17685.00
1024.928, 17681.00
1026.035, 17383.00
1027.142, 17213.00
1028.249, 17370.00
1029.356, 17080.00
1030.462, 16962.00
1031.569, 16975.00
1032.675, 16706.00
1033.781, 16545.00
1034.887, 16819.00
1035.993, 16466.00
1037.098, 16442.00
1038.204, 16588.00
1039.309, 16455.00
1040.415, 16250.00
1041.520, 16409.00
1042.624, 16307.00
1043.729, 16266.00
1044.834, 16490.00
1045.938, 16318.00
1047.042, 16397.00
1048.146, 16337.00
1049.250, 16462.00
1050.354, 16276.00
1051.458, 16436.00
1052.561, 16482.00
1053.664, 16242.00
1054.767, 16306.00
1055.870, 16330.00
1056.973, 16116.00
1058.076, 16172.00
1059.178, 16272.00
1060.281, 16023.00
1061.383, 16030.00
1062.485, 16113.00
1063.587, 16110.00
1064.688, 16013.00
1065.790, 15837.00
1066.891, 16064.00
1067.993, 16047.00
1069.094, 15765.00
1070.195, 15979.00
1071.295, 15851.00
1072.396, 16081.00
1073.496, 15697.00
1074.597, 15844.00
1075.697, 16144.00
1076.797, 15673.00
1077.897, 15945.00
1078.996, 15916.00
1080.096, 15743.00
1081.195, 16060.00
1082.294, 15965.00
1083.393, 15954.00
1084.492, 16120.00
1085.591, 16013.00
1086.689, 15864.00
1087.788, 15945.93
1088.886, 15945.00
1089.984, 15859.00
1091.082, 16091.00
1092.180, 15884.00
1093.277, 15880.00
1094.375, 15996.00
1095.472, 15944.00
1096.569, 15963.00
1097.666, 15869.00
1098.763, 15879.00
1099.860, 16067.00
1100.956, 16061.00
1102.053, 16041.00
1103.149, 16001.00
1104.245, 16023.00
1105.341, 16051.00
1106.436, 15982.00
1107.532, 16136.00
1108.627, 16094.00
1109.723, 16143.00
1110.818, 16251.00
1111.913, 16080.00
1113.007, 16067.00
1114.102, 16162.00
1115.197, 16098.00
1116.291, 16095.00
1117.385, 16145.00
1118.479, 16156.00
1119.573, 16178.00
1120.666, 16167.00
1121.760, 16065.00
1122.853, 15934.00
1123.947, 16136.00
1125.040, 16306.00
1126.132, 16330.00
1127.225, 16243.00
1128.318, 16078.00
1129.410, 16273.00
1130.502, 16243.00
1131.595, 16279.00
1132.687, 16305.00
1133.778, 16251.88
1134.870, 16295.68
1135.961, 16173.00
1137.053, 16280.00
1138.144, 16282.00
1139.235, 16182.00
1140.326, 16360.00
1141.416, 16458.00
1142.507, 16262.00
1143.597, 16188.00
1144.688, 16334.00
1145.778, 16274.00
1146.868, 16214.00
1147.957, 16238.00
1149.047, 16155.00
1150.136, 16314.00
1151.226, 16298.00
1152.315, 16225.00
1153.404, 16534.00
1154.493, 16414.00
1155.581, 16466.00
1156.670, 16434.00
1157.758, 16411.00
1158.846, 16554.00
1159.934, 16456.00
1161.022, 16523.00
1162.110, 16455.00
1163.198, 16485.00
1164.285, 16434.00
1165.372, 16536.00
1166.459, 16547.00
1167.546, 16577.00
1168.633, 16666.00
1169.720, 16307.00
1170.806, 16499.00
1171.892, 16853.00
1172.979, 16533.00
1174.065, 16549.00
1175.150, 16502.00
1176.236, 16629.00
1177.322, 16580.00
1178.407, 16506.00
1179.492, 16657.00
1180.577, 16565.00
1181.662, 16647.00
1182.747, 16553.00
1183.832, 16566.00
1184.916, 16669.00
1186.000, 16598.00
1187.084, 16812.00
1188.168, 16584.00
1189.252, 16695.00
1190.336, 16455.00
1191.419, 16618.00
1192.503, 16899.00
1193.586, 16684.00
1194.669, 16759.00
1195.752, 16671.00
1196.835, 16647.00
1197.917, 16775.00
1199.000, 16787.00
1200.082, 16762.00
1201.164, 16665.00
1202.246, 16663.00
1203.328, 16851.00
1204.409, 16792.00
1205.491, 16853.00
1206.572, 16927.00
1207.653, 16908.00
1208.734, 16922.02
1209.815, 16993.00
1210.896, 16914.00
1211.976, 16830.00
1213.057, 16905.00
1214.137, 17026.00
1215.217, 16856.00
1216.297, 16872.00
1217.377, 17035.00
1218.456, 16911.00
1219.536, 17021.00
1220.615, 17092.00
1221.694, 16957.00
1222.773, 16959.00
1223.852, 17097.00
1224.931, 17234.00
1226.009, 17106.00
1227.088, 16971.00
1228.166, 17153.00
1229.244, 17060.00
1230.322, 17088.00
1231.400, 17186.00
1232.477, 17175.00
1233.555, 17180.00
1234.632, 17197.00
1235.709, 17291.00
1236.786, 17314.00
1237.863, 17121.00
1238.939, 17227.00
1240.016, 17310.00
1241.092, 17220.00
1242.168, 17390.00
1243.245, 17291.00
1244.320, 17167.00
1245.396, 17216.00
1246.472, 17414.00
1247.547, 17378.00
1248.622, 17311.00
1249.697, 17481.00
1250.772, 17395.00
1251.847, 17357.00
1252.922, 17459.00
1253.996, 17439.00
1255.071, 17442.00
1256.145, 17503.64
1257.219, 17507.00
1258.293, 17595.00
1259.366, 17555.00
1260.440, 17619.00
1261.513, 17590.14
1262.587, 17431.00
1263.660, 17496.00
1264.733, 17562.00
1265.805, 17457.00
1266.878, 17529.00
1267.951, 17584.00
1269.023, 17703.00
1270.095, 17614.00
1271.167, 17538.00
1272.239, 17726.00
1273.311, 17535.00
1274.382, 17781.00
1275.454, 17638.00
1276.525, 17565.00
1277.596, 17782.00
1278.667, 17775.00
1279.738, 17601.00
1280.808, 17714.00
1281.879, 17740.00
1282.949, 17800.00
1284.019, 17780.87
1285.089, 17923.00
1286.159, 17758.00
1287.229, 17737.00
1288.298, 17855.00
1289.368, 17776.00
1290.437, 17817.00
1291.506, 17747.00
1292.575, 17818.00
1293.644, 17898.00
1294.712, 18095.00
1295.781, 17901.00
1296.849, 17777.00
1297.917, 17844.00
1298.985, 18043.00
1300.053, 17919.00
1301.121, 17957.00
1302.188, 17836.00
1303.255, 17821.38
1304.323, 17917.00
1305.390, 17791.00
1306.457, 17983.00
1307.523, 18033.00
1308.590, 18124.00
1309.656, 17968.00
1310.723, 18159.00
1311.789, 17925.00
1312.855, 18082.00
1313.921, 18141.00
1314.986, 18212.00
1316.052, 18209.00
1317.117, 18118.00
1318.182, 18297.00
1319.248, 18154.00
1320.312, 18247.00
1321.377, 18281.00
1322.442, 18274.00
1323.506, 18211.00
1324.571, 18255.00
1325.635, 18213.00
1326.699, 18179.00
1327.762, 18261.00
1328.826, 18264.00
1329.890, 18370.00
1330.953, 18344.00
1332.016, 18464.00
1333.079, 18576.00
1334.142, 18539.00
1335.205, 18376.00
1336.268, 18414.00
1337.330, 18433.00
1338.392, 18240.00
1339.454, 18341.74
1340.516, 18499.00
1341.578, 18389.00
1342.640, 18389.00
1343.701, 18394.00
1344.763, 18541.00
1345.824, 18558.00
1346.885, 18465.00
1347.946, 18430.00
1349.007, 18687.00
1350.067, 18400.00
1351.128, 18571.00
1352.188, 18572.00
1353.248, 18465.00
1354.308, 18555.00
1355.368, 18585.00
1356.428, 18708.00
1357.487, 18597.00
1358.547, 18670.00
1359.606, 18861.00
1360.665, 18648.00
1361.724, 18797.00
1362.783, 18915.00
1363.841, 18668.00
1364.900, 18690.00
1365.958, 18692.00
1367.016, 18814.00
1368.074, 18865.00
1369.132, 18904.00
1370.190, 19077.00
1371.247, 19010.00
1372.304, 19065.13
1373.362, 18945.00
1374.419, 19066.00
1375.476, 18919.00
1376.532, 18926.00
1377.589, 19051.00
1378.645, 18864.00
1379.702, 18958.00
1380.758, 18868.00
1381.814, 18978.00
1382.870, 19015.00
1383.925, 18916.00
1384.981, 19007.00
1386.036, 18926.00
1387.092, 18897.00
1388.147, 19009.00
1389.202, 19017.00
1390.256, 19139.00
1391.311, 19220.00
1392.365, 19122.00
1393.420, 18995.00
1394.474, 19057.00
1395.528, 19143.00
1396.582, 19224.00
1397.636, 19220.00
1398.689, 19175.00
1399.742, 19225.00
1400.796, 19307.00
1401.849, 19253.00
1402.902, 19085.00
1403.955, 19149.00
1405.007, 19123.00
1406.060, 19349.00
1407.112, 19299.00
1408.164, 19225.00
1409.216, 19150.00
1410.268, 19168.00
1411.320, 19146.00
1412.371, 19185.18
1413.423, 19316.00
1414.474, 19342.00
1415.525, 19323.00
1416.576, 19482.00
1417.627, 19278.00
1418.678, 19606.00
1419.728, 19624.00
1420.778, 19338.00
1421.829, 19190.00
1422.879, 19400.00
1423.928, 19290.00
1424.978, 19526.00
1426.028, 19361.00
1427.077, 19399.00
1428.126, 19526.00
1429.176, 19452.00
1430.225, 19591.00
1431.273, 19590.00
1432.322, 19512.00
1433.371, 19475.00
1434.419, 19574.00
1435.467, 19604.00
1436.515, 19587.00
1437.563, 19527.00
1438.611, 19556.37
1439.658, 19627.00
1440.706, 19618.00
1441.753, 19692.00
1442.800, 19845.00
1443.847, 19892.00
1444.894, 19819.00
1445.941, 19701.00
1446.987, 19927.00
1448.034, 19938.00
1449.080, 19706.00
1450.126, 20075.00
1451.172, 19935.00
1452.218, 20010.00
1453.263, 20024.00
1454.309, 19930.00
1455.354, 19990.00
1456.399, 19944.00
1457.444, 20050.00
1458.489, 19996.00
1459.534, 19969.00
1460.579, 20149.00
1461.623, 20111.00
1462.667, 19983.00
1463.711, 20024.00
1464.755, 20011.29
1465.799, 20092.00
1466.843, 20050.00
1467.886, 20087.00
1468.930, 20042.00
1469.973, 20133.00
1471.016, 19926.00
1472.059, 20149.00
1473.101, 20021.00
1474.144, 20151.00
1475.186, 20114.00
1476.229, 20010.00
1477.271, 19928.00
1478.313, 20246.00
1479.355, 20073.00
1480.396, 20113.00
1481.438, 20347.00
1482.479, 20340.00
1483.520, 20324.00
1484.561, 20299.00
1485.602, 20312.00
1486.643, 20280.35
1487.684, 20318.00
1488.724, 20244.00
1489.765, 20238.00
1490.805, 20235.00
1491.845, 20293.00
1492.885, 20236.41
1493.924, 20381.00
1494.964, 20214.00
1496.003, 20219.00
1497.042, 20334.00
1498.082, 20176.00
1499.120, 20245.00
1500.159, 20316.00
1501.198, 20342.00
1502.236, 20308.00
1503.275, 20463.00
1504.313, 20351.00
1505.351, 20383.00
1506.389, 20585.00
1507.427, 20325.00
1508.464, 20476.00
1509.502, 20449.00
1510.539, 20543.00
1511.576, 20545.00
1512.613, 20522.00
1513.650, 20541.00
1514.687, 20435.00
1515.723, 20577.00
1516.759, 20523.00
1517.796, 20462.00
1518.832, 20576.00
1519.868, 20525.61
1520.903, 20662.00
1521.939, 20599.00
1522.975, 20500.00
1524.010, 20627.00
1525.045, 20675.00
1526.080, 20660.00
1527.115, 20584.00
1528.150, 20527.00
1529.184, 20608.00
1530.219, 20696.00
1531.253, 20818.00
1532.287, 20683.00
1533.321, 20839.00
1534.355, 20824.80
1535.388, 20875.00
1536.422, 20867.00
1537.455, 20837.00
1538.488, 20845.00
1539.522, 20829.21
1540.554, 20993.00
1541.587, 20797.00
1542.620, 20825.00
1543.652, 20774.00
1544.685, 21134.00
1545.717, 20952.00
1546.749, 20993.00
1547.781, 21107.00
1548.812, 21008.00
1549.844, 20977.00
1550.875, 21091.00
1551.906, 20903.00
1552.938, 21037.00
1553.968, 21087.00
1554.999, 21194.00
1556.030, 21034.00
1557.060, 21196.00
1558.091, 21114.00
1559.121, 21006.00
1560.151, 20997.00
1561.181, 21150.00
1562.211, 21167.00
1563.240, 21324.00
1564.270, 21190.00
1565.299, 21052.00
1566.328, 21210.00
1567.357, 21214.00
1568.386, 21107.00
1569.415, 21050.00
1570.443, 21189.00
1571.472, 21086.00
1572.500, 21323.00
1573.528, 21232.00
1574.556, 21109.00
1575.584, 21408.00
1576.611, 21504.00
1577.639, 21475.00
##END=



