##NAMES=Rhodonite
##RRUFFID=R060549
##IDEAL CHEMISTRY=CaMn^2+^_3_Mn^2+^Si_5_O_15_
##LOCALITY=unknown
##OWNER=RRUFF
##SOURCE=Gemological Institute of America
##DESCRIPTION=Pink cleavage fragment
##STATUS=The identification of this mineral has been confirmed by X-ray diffraction and chemical analysis
##URL=rruff.info/R060549
##MEASURED CHEMISTRY=(Mn_0.76_Ca_0.12_Fe_0.07_Mg_0.06_)Si_0.99_O_3_
##PIN_ID=L01642
##ORIENTATION=Laser parallel to (1 1 0). Fiducial mark perpendicular to laser is parallel to c [0 0 1]
153.3770, 4261.000
154.6030, 4383.000
155.8300, 4459.000
157.0570, 4515.000
158.2830, 4665.000
159.5090, 4786.770
160.7350, 4898.000
161.9610, 5098.000
163.1870, 5286.000
164.4130, 5433.000
165.6380, 5487.000
166.8630, 5460.000
168.0880, 5482.000
169.3130, 5445.000
170.5380, 5458.000
171.7630, 5415.000
172.9870, 5438.000
174.2120, 5377.000
175.4360, 5377.000
176.6600, 5505.000
177.8840, 5456.000
179.1080, 5474.000
180.3310, 5447.000
181.5550, 5324.048
182.7780, 5255.268
184.0010, 5070.000
185.2240, 4987.000
186.4470, 4899.000
187.6700, 4727.000
188.8920, 4656.000
190.1150, 4557.000
191.3370, 4521.000
192.5590, 4495.000
193.7810, 4480.000
195.0020, 4468.962
196.2240, 4471.000
197.4450, 4488.000
198.6670, 4525.000
199.8880, 4586.000
201.1090, 4579.000
202.3300, 4661.000
203.5500, 4613.000
204.7710, 4738.000
205.9910, 4723.000
207.2110, 4840.000
208.4310, 4886.000
209.6510, 5003.000
210.8710, 5096.000
212.0910, 5242.000
213.3100, 5327.000
214.5290, 5363.000
215.7480, 5327.000
216.9670, 5358.000
218.1860, 5372.000
219.4050, 5316.000
220.6230, 5338.000
221.8420, 5290.000
223.0600, 5313.000
224.2780, 5282.000
225.4960, 5323.000
226.7130, 5271.000
227.9310, 5329.000
229.1480, 5486.000
230.3660, 5462.000
231.5830, 5702.000
232.8000, 5801.000
234.0160, 5939.000
235.2330, 6003.000
236.4490, 6220.000
237.6660, 6375.000
238.8820, 6611.000
240.0980, 6772.000
241.3140, 6877.000
242.5300, 7125.000
243.7450, 7190.000
244.9600, 7449.000
246.1760, 7601.000
247.3910, 7674.000
248.6060, 7946.000
249.8200, 8169.000
251.0350, 8409.000
252.2500, 8532.000
253.4640, 8777.000
254.6780, 8978.000
255.8920, 9343.000
257.1060, 9768.000
258.3190, 10184.00
259.5330, 10615.00
260.7460, 11279.00
261.9600, 11813.00
263.1730, 12128.00
264.3850, 12323.00
265.5980, 12341.00
266.8110, 12084.00
268.0230, 11616.00
269.2360, 10959.00
270.4480, 10381.00
271.6600, 9790.000
272.8710, 9421.000
274.0830, 9083.000
275.2950, 8648.000
276.5060, 8354.000
277.7170, 8099.000
278.9280, 7802.000
280.1390, 7545.855
281.3500, 7288.638
282.5600, 7044.000
283.7710, 6810.000
284.9810, 6595.000
286.1910, 6409.000
287.4010, 6289.000
288.6110, 6228.000
289.8200, 6061.000
291.0300, 6020.000
292.2390, 5941.000
293.4480, 5881.000
294.6570, 5836.000
295.8660, 5922.000
297.0750, 5807.000
298.2830, 5889.000
299.4920, 5840.000
300.7000, 5818.584
301.9080, 5897.000
303.1160, 5817.000
304.3240, 5812.000
305.5310, 5883.000
306.7390, 5897.000
307.9460, 5928.728
309.1530, 5973.000
310.3600, 6010.000
311.5670, 6054.000
312.7740, 6137.000
313.9800, 6237.000
315.1870, 6413.000
316.3930, 6725.000
317.5990, 6872.000
318.8050, 7250.000
320.0110, 7564.000
321.2160, 7938.000
322.4220, 8451.000
323.6270, 8930.000
324.8320, 9129.000
326.0370, 9412.000
327.2420, 9488.000
328.4460, 9626.000
329.6510, 9667.000
330.8550, 9682.000
332.0590, 9738.562
333.2630, 9785.000
334.4670, 9798.000
335.6710, 9720.000
336.8740, 9798.000
338.0780, 9609.000
339.2810, 9466.000
340.4840, 9251.000
341.6870, 8823.000
342.8900, 8412.000
344.0920, 8200.000
345.2950, 7972.000
346.4970, 7722.000
347.6990, 7524.000
348.9010, 7324.000
350.1030, 7133.000
351.3050, 7064.000
352.5060, 6960.000
353.7080, 6749.000
354.9090, 6598.000
356.1100, 6564.000
357.3110, 6519.000
358.5110, 6580.000
359.7120, 6427.000
360.9120, 6526.000
362.1130, 6545.000
363.3130, 6444.000
364.5130, 6628.000
365.7120, 6723.000
366.9120, 6710.000
368.1120, 6815.000
369.3110, 6798.000
370.5100, 6869.000
371.7090, 6863.000
372.9080, 6701.000
374.1070, 6634.000
375.3050, 6493.000
376.5040, 6260.000
377.7020, 6111.000
378.9000, 5990.000
380.0980, 5922.000
381.2950, 5778.000
382.4930, 5680.000
383.6910, 5670.000
384.8880, 5564.000
386.0850, 5493.000
387.2820, 5497.000
388.4790, 5421.877
389.6750, 5454.000
390.8720, 5379.000
392.0680, 5368.000
393.2640, 5412.000
394.4600, 5301.000
395.6560, 5226.000
396.8520, 5208.000
398.0480, 5159.114
399.2430, 5176.000
400.4380, 5155.000
401.6330, 5159.000
402.8280, 5203.000
404.0230, 5207.000
405.2180, 5190.000
406.4120, 5290.000
407.6060, 5348.000
408.8000, 5450.000
409.9940, 5421.000
411.1880, 5448.000
412.3820, 5469.000
413.5750, 5419.000
414.7690, 5417.000
415.9620, 5453.000
417.1550, 5447.000
418.3480, 5480.000
419.5410, 5491.005
420.7330, 5370.000
421.9260, 5478.000
423.1180, 5439.000
424.3100, 5342.000
425.5020, 5450.000
426.6940, 5376.000
427.8850, 5321.000
429.0770, 5276.000
430.2680, 5242.000
431.4590, 5195.000
432.6500, 5167.842
433.8410, 5133.000
435.0320, 5104.000
436.2220, 5173.000
437.4130, 5130.000
438.6030, 5153.000
439.7930, 5107.000
440.9830, 5123.000
442.1730, 5135.000
443.3620, 5145.000
444.5520, 5138.000
445.7410, 5148.104
446.9300, 5126.000
448.1190, 5151.000
449.3080, 5141.000
450.4960, 5134.000
451.6850, 5170.000
452.8730, 5134.000
454.0610, 5138.000
455.2490, 5235.000
456.4370, 5260.000
457.6250, 5264.000
458.8130, 5311.000
460.0000, 5291.000
461.1870, 5397.000
462.3740, 5500.000
463.5610, 5661.000
464.7480, 5631.000
465.9340, 5813.000
467.1210, 5915.000
468.3070, 5896.000
469.4930, 6108.000
470.6790, 6200.000
471.8650, 6100.000
473.0510, 6195.000
474.2360, 6050.000
475.4210, 5969.000
476.6070, 5870.000
477.7920, 5758.000
478.9770, 5526.000
480.1610, 5531.000
481.3460, 5403.000
482.5300, 5359.000
483.7140, 5435.000
484.8980, 5353.000
486.0820, 5287.000
487.2660, 5320.000
488.4500, 5307.000
489.6330, 5296.000
490.8160, 5246.000
492.0000, 5309.000
493.1830, 5354.000
494.3650, 5480.000
495.5480, 5440.000
496.7300, 5343.000
497.9130, 5527.000
499.0950, 5578.000
500.2770, 5578.000
501.4590, 5700.000
502.6410, 5712.000
503.8220, 5939.000
505.0030, 6084.000
506.1850, 6236.000
507.3660, 6434.000
508.5470, 6748.000
509.7270, 6784.000
510.9080, 6910.000
512.0880, 6801.000
513.2690, 6758.000
514.4490, 6517.000
515.6290, 6467.000
516.8090, 6269.000
517.9880, 6037.000
519.1680, 5935.000
520.3470, 5761.000
521.5260, 5712.000
522.7050, 5556.000
523.8840, 5534.000
525.0630, 5541.000
526.2410, 5529.000
527.4200, 5518.174
528.5980, 5381.000
529.7760, 5456.000
530.9540, 5404.000
532.1320, 5281.000
533.3090, 5363.000
534.4870, 5388.000
535.6640, 5303.000
536.8410, 5350.000
538.0180, 5405.000
539.1950, 5342.000
540.3710, 5426.000
541.5480, 5406.000
542.7240, 5535.000
543.9000, 5388.000
545.0760, 5556.000
546.2520, 5469.000
547.4280, 5486.000
548.6040, 5402.000
549.7790, 5612.000
550.9540, 5565.000
552.1290, 5640.000
553.3040, 5512.000
554.4790, 5677.000
555.6530, 5774.000
556.8280, 5763.000
558.0020, 5858.000
559.1760, 5897.000
560.3500, 5890.000
561.5240, 5932.000
562.6980, 5839.000
563.8710, 5938.000
565.0440, 6026.000
566.2170, 5902.000
567.3900, 5980.000
568.5630, 6191.000
569.7360, 6223.000
570.9090, 6301.000
572.0810, 6378.000
573.2530, 6410.000
574.4250, 6446.000
575.5970, 6403.000
576.7690, 6308.000
577.9400, 6152.000
579.1120, 6081.000
580.2830, 5977.000
581.4540, 5942.000
582.6250, 5765.000
583.7960, 5845.000
584.9660, 5828.000
586.1370, 5696.000
587.3070, 5732.000
588.4770, 5736.000
589.6470, 5665.000
590.8170, 5626.000
591.9870, 5697.000
593.1560, 5670.000
594.3260, 5708.000
595.4950, 5728.000
596.6640, 5665.000
597.8330, 5691.000
599.0010, 5723.000
600.1700, 5728.000
601.3380, 5759.000
602.5070, 5777.000
603.6750, 5749.000
604.8430, 5712.000
606.0100, 5844.000
607.1780, 5825.000
608.3450, 5902.000
609.5130, 5903.000
610.6800, 5973.000
611.8470, 5807.000
613.0140, 5981.000
614.1800, 5938.000
615.3470, 6086.000
616.5130, 6092.000
617.6790, 6097.000
618.8450, 6165.983
620.0110, 6189.000
621.1770, 6239.000
622.3420, 6297.000
623.5080, 6367.000
624.6730, 6365.000
625.8380, 6461.000
627.0030, 6543.000
628.1680, 6472.000
629.3320, 6715.000
630.4970, 6721.000
631.6610, 6822.000
632.8250, 6806.000
633.9890, 7000.000
635.1530, 7174.000
636.3160, 7236.000
637.4800, 7483.000
638.6430, 7515.000
639.8060, 7840.000
640.9690, 7859.000
642.1320, 8301.000
643.2950, 8518.000
644.4570, 8722.000
645.6200, 9102.000
646.7820, 9590.000
647.9440, 10050.00
649.1060, 10803.00
650.2670, 11424.00
651.4290, 12455.00
652.5900, 13713.00
653.7520, 15210.00
654.9130, 17076.00
656.0740, 19308.00
657.2340, 22092.00
658.3950, 25364.00
659.5550, 28296.00
660.7160, 31719.00
661.8760, 34912.00
663.0360, 38283.00
664.1960, 42114.00
665.3550, 45959.00
666.5150, 49942.00
667.6740, 54053.00
668.8330, 56959.00
669.9920, 58010.00
671.1510, 56612.00
672.3100, 52901.00
673.4680, 48342.00
674.6270, 42992.00
675.7850, 37616.00
676.9430, 33559.00
678.1010, 29779.00
679.2590, 26968.00
680.4160, 24229.00
681.5740, 22090.00
682.7310, 20103.00
683.8880, 17929.00
685.0450, 16175.00
686.2020, 14715.00
687.3580, 13482.00
688.5150, 12486.00
689.6710, 11704.00
690.8270, 10802.00
691.9830, 10332.00
693.1390, 9845.000
694.2950, 9601.000
695.4500, 9293.000
696.6050, 9017.000
697.7610, 8799.000
698.9160, 8632.163
700.0710, 8514.000
701.2250, 8415.000
702.3800, 8269.000
703.5340, 8211.000
704.6880, 8102.000
705.8420, 8232.000
706.9960, 8127.000
708.1500, 8285.000
709.3040, 8378.000
710.4570, 8461.000
711.6100, 8484.000
712.7640, 8530.000
713.9160, 8498.000
715.0690, 8476.000
716.2220, 8526.000
717.3740, 8432.000
718.5270, 8315.000
719.6790, 8382.000
720.8310, 8295.000
721.9830, 8106.000
723.1340, 7922.000
724.2860, 7808.000
725.4370, 7629.766
726.5880, 7477.259
727.7390, 7343.000
728.8900, 7209.000
730.0410, 7095.000
731.1910, 7066.000
732.3420, 7019.000
733.4920, 7087.000
734.6420, 6908.000
735.7920, 7070.000
736.9420, 7031.000
738.0910, 6903.000
739.2410, 6951.000
740.3900, 7013.000
741.5390, 6890.000
742.6880, 6725.000
743.8370, 6750.000
744.9860, 6688.000
746.1340, 6665.000
747.2820, 6558.000
748.4310, 6449.000
749.5790, 6417.000
750.7260, 6407.000
751.8740, 6387.000
753.0220, 6374.000
754.1690, 6371.000
755.3160, 6309.000
756.4630, 6357.000
757.6100, 6401.000
758.7570, 6363.000
759.9030, 6257.000
761.0500, 6240.000
762.1960, 6222.000
763.3420, 6261.000
764.4880, 6275.000
765.6340, 6268.000
766.7790, 6275.364
767.9250, 6329.000
769.0700, 6246.000
770.2150, 6276.000
771.3600, 6242.807
772.5050, 6306.000
773.6490, 6256.000
774.7940, 6254.000
775.9380, 6305.000
777.0820, 6259.000
778.2260, 6343.000
779.3700, 6317.000
780.5140, 6231.000
781.6570, 6359.000
782.8010, 6291.000
783.9440, 6271.000
785.0870, 6422.000
786.2300, 6415.000
787.3720, 6310.000
788.5150, 6210.000
789.6570, 6257.000
790.8000, 6339.000
791.9420, 6357.000
793.0840, 6290.000
794.2250, 6384.000
795.3670, 6252.000
796.5080, 6235.000
797.6500, 6469.000
798.7910, 6394.000
799.9320, 6405.000
801.0720, 6273.000
802.2130, 6371.000
803.3530, 6370.000
804.4940, 6353.000
805.6340, 6444.000
806.7740, 6423.000
807.9140, 6400.000
809.0530, 6426.000
810.1930, 6387.000
811.3320, 6409.000
812.4710, 6375.000
813.6100, 6443.000
814.7490, 6412.000
815.8880, 6455.000
817.0270, 6531.000
818.1650, 6478.000
819.3030, 6455.000
820.4410, 6424.000
821.5790, 6428.000
822.7170, 6424.000
823.8540, 6424.766
824.9920, 6415.018
826.1290, 6447.000
827.2660, 6398.000
828.4030, 6413.000
829.5400, 6419.000
830.6760, 6451.000
831.8130, 6385.000
832.9490, 6570.000
834.0850, 6382.000
835.2210, 6532.000
836.3570, 6580.000
837.4930, 6480.000
838.6280, 6508.000
839.7640, 6430.000
840.8990, 6534.000
842.0340, 6561.000
843.1690, 6486.000
844.3030, 6516.000
845.4380, 6556.000
846.5720, 6533.000
847.7060, 6443.000
848.8400, 6541.000
849.9740, 6551.000
851.1080, 6549.000
852.2420, 6736.000
853.3750, 6592.000
854.5080, 6681.000
855.6410, 6597.000
856.7740, 6659.000
857.9070, 6634.000
859.0400, 6664.000
860.1720, 6551.000
861.3040, 6702.000
862.4360, 6808.000
863.5680, 6757.000
864.7000, 6694.000
865.8320, 6782.000
866.9630, 6761.000
868.0950, 6908.000
869.2260, 6902.000
870.3570, 6876.000
871.4880, 7032.000
872.6180, 7082.000
873.7490, 7147.000
874.8790, 7212.000
876.0090, 7362.000
877.1390, 7542.000
878.2690, 7579.000
879.3990, 7606.000
880.5280, 7622.000
881.6580, 7603.000
882.7870, 7539.000
883.9160, 7580.000
885.0450, 7433.000
886.1740, 7453.000
887.3020, 7343.000
888.4310, 7340.000
889.5590, 7214.000
890.6870, 7297.000
891.8150, 7200.000
892.9430, 7215.000
894.0700, 7309.000
895.1980, 7293.000
896.3250, 7173.000
897.4520, 7151.000
898.5790, 7231.000
899.7060, 7274.000
900.8330, 7155.000
901.9590, 7315.000
903.0850, 7244.000
904.2120, 7305.000
905.3380, 7179.000
906.4630, 7355.000
907.5890, 7380.000
908.7150, 7361.000
909.8400, 7463.000
910.9650, 7542.000
912.0900, 7586.000
913.2150, 7674.000
914.3400, 7624.000
915.4640, 7733.000
916.5890, 7598.000
917.7130, 7686.000
918.8370, 7616.000
919.9610, 7752.000
921.0850, 7708.000
922.2080, 7726.000
923.3320, 7739.000
924.4550, 7740.812
925.5780, 7682.000
926.7010, 7809.000
927.8240, 7774.000
928.9460, 7870.000
930.0690, 7949.000
931.1910, 7988.000
932.3130, 7941.000
933.4350, 8168.000
934.5570, 8232.000
935.6790, 8209.000
936.8000, 8460.000
937.9220, 8680.000
939.0430, 8816.000
940.1640, 8725.000
941.2850, 8780.000
942.4050, 8787.000
943.5260, 8659.000
944.6460, 8679.000
945.7660, 8684.000
946.8860, 8758.000
948.0060, 8582.000
949.1260, 8771.000
950.2460, 8765.000
951.3650, 8930.000
952.4840, 8940.000
953.6030, 9176.000
954.7220, 9368.000
955.8410, 9538.000
956.9590, 9949.000
958.0780, 10369.00
959.1960, 10670.00
960.3140, 11164.00
961.4320, 11888.00
962.5500, 12828.00
963.6680, 13637.00
964.7850, 14926.00
965.9020, 16425.00
967.0190, 18166.52
968.1360, 20246.00
969.2530, 22566.00
970.3700, 25221.00
971.4860, 28172.00
972.6030, 31023.00
973.7190, 33714.00
974.8350, 35044.00
975.9510, 35616.00
977.0660, 34798.00
978.1820, 33295.00
979.2970, 31163.00
980.4130, 29004.00
981.5280, 27300.00
982.6420, 26196.00
983.7570, 25615.00
984.8720, 25166.00
985.9860, 25259.00
987.1000, 25465.00
988.2140, 25884.00
989.3280, 26269.00
990.4420, 26942.00
991.5560, 27771.00
992.6690, 28702.00
993.7820, 29898.00
994.8950, 31046.00
996.0080, 32842.00
997.1210, 34403.00
998.2340, 35619.00
999.3460, 36778.00
1000.458, 36819.00
1001.571, 36314.00
1002.683, 34829.00
1003.794, 32974.00
1004.906, 30315.00
1006.017, 28028.00
1007.129, 25533.00
1008.240, 23237.00
1009.351, 21321.00
1010.462, 19521.00
1011.572, 17583.00
1012.683, 16346.00
1013.793, 15047.00
1014.904, 13871.00
1016.014, 13319.00
1017.123, 12637.00
1018.233, 12277.00
1019.343, 11894.00
1020.452, 11646.00
1021.561, 11434.00
1022.670, 11268.00
1023.779, 11065.21
1024.888, 10946.00
1025.997, 10752.00
1027.105, 10711.00
1028.213, 10634.00
1029.321, 10499.00
1030.429, 10419.00
1031.537, 10377.00
1032.645, 10193.00
1033.752, 10239.00
1034.859, 10207.00
1035.966, 10276.00
1037.073, 10297.93
1038.180, 10261.00
1039.287, 10339.00
1040.393, 10467.00
1041.500, 10411.00
1042.606, 10556.00
1043.712, 10566.00
1044.818, 10589.00
1045.923, 10614.00
1047.029, 10796.00
1048.134, 10849.00
1049.239, 10708.00
1050.344, 10649.00
1051.449, 10581.00
1052.554, 10474.00
1053.658, 10109.00
1054.763, 9863.000
1055.867, 9635.000
1056.971, 9353.000
1058.075, 9307.000
1059.179, 9205.000
1060.282, 8890.000
1061.385, 8867.000
1062.489, 8727.000
1063.592, 8634.000
1064.695, 8626.000
1065.797, 8453.000
1066.900, 8478.000
1068.002, 8464.000
1069.105, 8351.000
1070.207, 8308.000
1071.309, 8197.000
1072.411, 8257.000
1073.512, 8329.000
1074.614, 8175.000
1075.715, 8316.000
1076.816, 8242.000
1077.917, 8120.000
1079.018, 8256.000
1080.118, 8126.000
1081.219, 8136.000
1082.319, 8120.000
1083.419, 8058.000
1084.519, 7981.000
1085.619, 7968.000
1086.719, 7963.000
1087.818, 7916.000
1088.918, 7986.000
1090.017, 8031.000
1091.116, 7977.000
1092.215, 8081.000
1093.314, 8043.000
1094.412, 8048.000
1095.510, 8028.000
1096.609, 8057.000
1097.707, 8055.000
1098.805, 7980.000
1099.902, 7944.000
1101.000, 8061.000
1102.097, 7976.000
1103.195, 8096.000
1104.292, 8023.000
1105.389, 7910.000
1106.485, 7937.000
1107.582, 8011.000
1108.678, 8099.000
1109.775, 8043.000
1110.871, 8032.000
1111.967, 8093.000
1113.062, 8050.000
1114.158, 8007.000
1115.254, 8126.000
1116.349, 8028.000
1117.444, 7990.000
1118.539, 7969.000
1119.634, 7951.252
1120.728, 8004.000
1121.823, 7986.000
1122.917, 7971.000
1124.011, 8013.000
1125.105, 8006.000
1126.199, 8010.000
1127.293, 7952.000
1128.386, 8073.000
1129.480, 7920.000
1130.573, 8214.000
1131.666, 7996.000
1132.759, 8035.000
1133.851, 8037.000
1134.944, 7918.000
1136.036, 8037.000
1137.129, 7968.000
1138.221, 7931.000
1139.313, 8056.000
1140.404, 8028.000
1141.496, 8065.000
1142.587, 7994.000
1143.678, 8062.000
1144.770, 8053.000
1145.860, 8044.000
1146.951, 8108.000
1148.042, 8033.000
1149.132, 8204.000
1150.223, 8032.000
1151.313, 8014.000
1152.403, 8101.000
1153.492, 8170.000
1154.582, 8154.000
1155.671, 8040.000
1156.761, 8166.000
1157.850, 8013.000
1158.939, 8145.000
1160.028, 8124.000
1161.116, 8168.000
1162.205, 8074.000
1163.293, 8030.000
1164.381, 7969.000
1165.469, 8132.000
1166.557, 8096.000
1167.645, 8098.000
1168.732, 8000.000
1169.820, 8030.000
1170.907, 8030.000
1171.994, 7999.000
1173.081, 8163.000
1174.167, 7908.000
1175.254, 8086.000
1176.340, 8007.000
1177.426, 8017.000
1178.512, 7907.000
1179.598, 8062.000
1180.684, 8148.000
1181.770, 8062.000
1182.855, 8123.000
1183.940, 8222.000
1185.025, 7937.000
1186.110, 8089.000
1187.195, 7950.000
1188.280, 8113.000
1189.364, 8146.000
1190.448, 8049.000
1191.532, 7992.000
1192.616, 7949.000
1193.700, 8199.000
1194.784, 8013.000
1195.867, 8119.000
1196.950, 8147.000
1198.034, 8150.000
1199.117, 8036.000
1200.199, 8244.000
1201.282, 8077.000
1202.364, 8091.000
1203.447, 8128.000
1204.529, 8113.000
1205.611, 8093.000
1206.693, 8172.000
1207.774, 8193.000
1208.856, 8166.000
1209.937, 8301.000
1211.018, 8168.000
1212.099, 8254.000
1213.180, 8177.000
1214.261, 8203.000
1215.341, 8200.000
1216.422, 8206.000
1217.502, 8338.000
1218.582, 8196.000
1219.662, 8257.000
1220.742, 8133.000
1221.821, 8163.000
1222.900, 8313.000
1223.980, 8315.000
1225.059, 8242.000
1226.138, 8346.000
1227.216, 8148.000
1228.295, 8186.000
1229.373, 8249.000
1230.452, 8329.000
1231.530, 8270.000
1232.608, 8312.000
1233.685, 8384.000
1234.763, 8333.835
1235.840, 8316.000
1236.918, 8289.000
1237.995, 8383.000
1239.072, 8347.000
1240.149, 8320.000
1241.225, 8481.000
1242.302, 8428.000
1243.378, 8217.000
1244.454, 8366.000
1245.530, 8330.000
1246.606, 8368.000
1247.681, 8346.000
1248.757, 8317.794
1249.832, 8338.000
1250.907, 8265.000
1251.982, 8294.000
1253.057, 8306.000
1254.132, 8450.000
1255.206, 8368.000
1256.281, 8381.000
1257.355, 8379.000
1258.429, 8320.000
1259.503, 8546.000
1260.576, 8333.000
1261.650, 8522.000
1262.723, 8568.000
1263.797, 8426.000
1264.870, 8441.000
1265.942, 8406.000
1267.015, 8392.716
1268.088, 8495.000
1269.160, 8438.000
1270.232, 8515.000
1271.304, 8567.000
1272.376, 8642.000
1273.448, 8514.000
1274.520, 8602.000
1275.591, 8554.000
1276.662, 8554.000
1277.733, 8653.000
1278.804, 8611.000
1279.875, 8554.000
1280.946, 8640.000
1282.016, 8577.000
1283.086, 8539.000
1284.156, 8687.000
1285.226, 8699.000
1286.296, 8690.000
1287.366, 8587.000
1288.435, 8747.000
1289.505, 8622.000
1290.574, 8621.000
1291.643, 8555.000
1292.711, 8576.264
1293.780, 8717.000
1294.849, 8646.000
1295.917, 8758.000
1296.985, 8771.000
1298.053, 8618.000
1299.121, 8654.000
1300.189, 8677.000
1301.256, 8765.000
1302.323, 8768.000
1303.391, 8835.000
1304.458, 8813.000
1305.524, 8847.176
1306.591, 8849.000
1307.658, 8878.000
1308.724, 8843.000
1309.790, 8841.000
1310.856, 8734.000
1311.922, 8800.000
1312.988, 8754.000
1314.053, 8866.000
1315.119, 8932.000
1316.184, 8756.000
1317.249, 8856.000
1318.314, 8906.000
1319.379, 8794.000
1320.443, 8945.000
1321.508, 8904.000
1322.572, 8883.000
1323.636, 8812.000
1324.700, 9038.000
1325.764, 9041.000
1326.827, 9084.000
1327.891, 8833.000
1328.954, 8937.000
1330.017, 9015.000
1331.080, 8891.000
1332.143, 9010.000
1333.205, 8941.000
1334.268, 9052.000
1335.330, 8999.000
1336.392, 9024.000
1337.454, 9110.000
1338.516, 9039.000
1339.578, 9144.000
1340.639, 9101.000
1341.701, 9059.000
1342.762, 9030.000
1343.823, 9166.000
1344.883, 9111.000
1345.944, 9138.733
1347.005, 9137.000
1348.065, 9132.000
1349.125, 9141.031
1350.185, 9052.000
1351.245, 9111.000
1352.305, 9094.000
1353.364, 9016.000
1354.424, 9131.000
1355.483, 9171.000
1356.542, 9084.000
1357.601, 9220.000
1358.659, 9191.000
1359.718, 9223.000
1360.776, 9157.000
1361.834, 9238.000
1362.893, 9247.000
1363.950, 9218.000
1365.008, 9284.000
1366.066, 9238.000
1367.123, 9352.000
1368.180, 9292.000
1369.237, 9325.000
1370.294, 9283.000
1371.351, 9323.000
1372.408, 9319.226
1373.464, 9299.000
1374.520, 9287.000
1375.576, 9276.658
1376.632, 9273.336
1377.688, 9261.000
1378.744, 9273.000
1379.799, 9283.000
1380.854, 9278.000
1381.910, 9317.000
1382.965, 9362.000
1384.019, 9322.000
1385.074, 9344.887
1386.128, 9255.000
1387.183, 9344.000
1388.237, 9385.000
1389.291, 9427.000
1390.345, 9323.000
1391.398, 9332.000
1392.452, 9331.000
1393.505, 9292.000
1394.558, 9417.000
1395.611, 9506.000
1396.664, 9305.000
1397.717, 9401.000
1398.769, 9340.000
1399.822, 9384.000
1400.874, 9471.000
1401.926, 9547.000
1402.978, 9461.000
1404.029, 9626.000
1405.081, 9512.000
1406.132, 9473.000
1407.183, 9505.000
1408.234, 9445.000
1409.285, 9450.000
1410.336, 9485.000
1411.387, 9539.000
1412.437, 9567.000
1413.487, 9601.000
1414.537, 9596.000
1415.587, 9597.000
1416.637, 9593.000
1417.686, 9608.325
1418.736, 9572.000
1419.785, 9642.000
1420.834, 9554.000
1421.883, 9560.000
1422.932, 9746.000
1423.980, 9581.000
1425.029, 9615.000
1426.077, 9531.000
1427.125, 9676.000
1428.173, 9642.000
1429.221, 9713.000
1430.269, 9691.000
1431.316, 9713.000
1432.363, 9697.000
1433.410, 9631.000
1434.457, 9619.000
1435.504, 9661.000
1436.551, 9701.000
1437.597, 9773.000
1438.644, 9715.000
1439.690, 9681.000
1440.736, 9747.000
1441.781, 9786.000
1442.827, 9686.000
1443.873, 9802.000
1444.918, 9668.000
1445.963, 9713.000
1447.008, 9792.000
1448.053, 9920.000
1449.098, 9725.000
1450.142, 9796.000
1451.186, 9729.000
1452.231, 9776.000
1453.275, 9903.000
1454.319, 9855.000
1455.362, 9857.000
1456.406, 9838.000
1457.449, 9838.095
1458.492, 10001.00
1459.535, 9881.000
1460.578, 9868.000
1461.621, 9942.000
1462.663, 9861.000
1463.706, 9982.000
1464.748, 9943.000
1465.790, 9997.000
1466.832, 9931.000
1467.874, 10015.00
1468.915, 9944.000
1469.957, 9937.000
1470.998, 10018.00
1472.039, 10003.00
1473.080, 10037.00
1474.121, 9990.000
1475.161, 10026.00
1476.202, 10046.00
1477.242, 10126.00
1478.282, 9954.000
1479.322, 10085.00
1480.362, 9998.000
1481.401, 10178.00
1482.441, 10067.00
1483.480, 10113.00
1484.519, 10180.00
1485.558, 10127.00
1486.597, 10105.00
1487.636, 10176.00
1488.674, 10204.00
1489.712, 10141.00
1490.751, 10217.00
1491.788, 10148.00
1492.826, 10126.00
1493.864, 10090.00
1494.901, 10059.00
1495.939, 10078.00
1496.976, 10201.00
1498.013, 10104.00
1499.050, 10225.00
1500.086, 10093.00
1501.123, 10167.00
1502.159, 10237.00
1503.195, 10162.00
1504.231, 10236.00
1505.267, 10179.00
1506.303, 10233.00
1507.338, 10206.00
1508.374, 10263.00
1509.409, 10209.00
1510.444, 10239.69
1511.479, 10271.00
1512.514, 10295.00
1513.548, 10334.00
1514.583, 10323.74
1515.617, 10326.00
1516.651, 10303.00
1517.685, 10323.00
1518.718, 10320.00
1519.752, 10330.42
1520.785, 10402.00
1521.819, 10403.00
1522.852, 10367.00
1523.885, 10490.00
1524.917, 10384.00
1525.950, 10365.00
1526.982, 10441.00
1528.015, 10561.00
1529.047, 10370.00
1530.079, 10640.00
1531.110, 10476.00
1532.142, 10471.00
1533.173, 10481.00
1534.205, 10543.00
1535.236, 10419.00
1536.267, 10504.00
1537.298, 10469.00
1538.328, 10504.00
1539.359, 10538.00
1540.389, 10560.00
1541.419, 10609.00
1542.449, 10555.00
1543.479, 10548.00
1544.508, 10574.00
1545.538, 10556.00
1546.567, 10686.00
1547.596, 10564.00
1548.625, 10674.00
1549.654, 10584.00
1550.683, 10545.00
1551.711, 10534.00
1552.740, 10513.00
1553.768, 10569.00
1554.796, 10643.00
1555.824, 10590.00
1556.851, 10648.00
1557.879, 10672.00
1558.906, 10640.00
1559.933, 10659.00
1560.960, 10629.00
1561.987, 10643.00
1563.014, 10628.00
1564.041, 10653.00
1565.067, 10720.00
1566.093, 10769.00
1567.119, 10684.00
1568.145, 10768.00
1569.171, 10733.00
1570.196, 10743.00
1571.222, 10667.00
1572.247, 10739.00
1573.272, 10960.00
1574.297, 10783.00
1575.322, 10873.00
1576.346, 10877.00
1577.371, 10939.00
##END=



