##NAMES=Riebeckite
##RRUFFID=R050082
##IDEAL CHEMISTRY=[box]Na_2_(Fe^2+^_3_Fe^3+^_2_)Si_8_O_22_(OH)_2_
##LOCALITY=Mt. Malosa, Zomba, Chilwa, Alkaline Area, Malawi
##OWNER=RRUFF
##SOURCE=Rock Currier
##DESCRIPTION=Black elongated prisms
##STATUS=The identification of this mineral has been confirmed by X-ray diffraction and chemical analysis
##URL=rruff.info/R050082
##MEASURED CHEMISTRY=([box]_0.63_Na_0.19_K_0.18_)(Na_1.58_Ca_0.42_)_Σ=2_Fe^2+^_3.00_(Fe^3+^_1.30_Fe^2+^_0.45_Mn_0.15_Mg_0.05_Ti_0.05_)_Σ=2_(Si_0.98_Al_0.02_)_8_O_22_(OH)_2_
##PIN_ID=L00462
##ORIENTATION=Laser parallel to c* (0 0 1). Fiducial mark perpendicular to laser is parallel to a [1 0 0]
147.3620, 43732.00
148.5960, 43617.00
149.8300, 44159.00
151.0630, 44314.00
152.2960, 43998.00
153.5300, 44187.00
154.7620, 44402.00
155.9950, 44092.00
157.2280, 44193.00
158.4600, 44203.00
159.6920, 44590.00
160.9250, 44991.00
162.1560, 45663.00
163.3880, 46448.00
164.6200, 46789.00
165.8510, 46930.99
167.0820, 46671.00
168.3130, 46623.00
169.5440, 46911.00
170.7750, 46410.11
172.0050, 46705.00
173.2350, 46438.00
174.4650, 46466.00
175.6950, 46767.00
176.9250, 47027.00
178.1550, 47977.00
179.3840, 48768.00
180.6130, 48480.00
181.8420, 49683.00
183.0710, 51322.00
184.3000, 51472.00
185.5280, 52530.81
186.7570, 52733.00
187.9850, 53727.00
189.2130, 53954.00
190.4400, 54601.00
191.6680, 54616.00
192.8960, 54959.00
194.1230, 54920.00
195.3500, 54689.00
196.5770, 54175.00
197.8030, 53710.00
199.0300, 53238.00
200.2560, 53174.00
201.4830, 52710.00
202.7090, 51120.00
203.9340, 48235.00
205.1600, 45791.00
206.3860, 44176.00
207.6110, 43610.00
208.8360, 43596.00
210.0610, 43155.00
211.2860, 42979.00
212.5100, 43119.00
213.7350, 42818.00
214.9590, 42741.00
216.1830, 42644.00
217.4070, 42722.00
218.6310, 42744.00
219.8540, 42846.00
221.0780, 42853.00
222.3010, 42816.88
223.5240, 42913.14
224.7470, 42695.00
225.9690, 42930.00
227.1920, 42899.00
228.4140, 42679.00
229.6360, 42713.00
230.8580, 42739.00
232.0800, 42220.00
233.3020, 42520.00
234.5230, 42213.00
235.7440, 42178.00
236.9650, 42015.00
238.1860, 41836.00
239.4070, 41590.00
240.6280, 41068.00
241.8480, 40966.00
243.0680, 40887.00
244.2880, 40629.00
245.5080, 40667.00
246.7280, 40254.00
247.9470, 40499.00
249.1660, 40244.00
250.3860, 40255.00
251.6040, 40055.00
252.8230, 40446.00
254.0420, 40262.00
255.2600, 39892.38
256.4790, 40146.96
257.6970, 40300.39
258.9150, 40358.14
260.1320, 40033.58
261.3500, 40202.68
262.5670, 40173.94
263.7840, 40137.08
265.0010, 40375.65
266.2180, 40106.69
267.4350, 40340.89
268.6510, 40374.21
269.8680, 40499.49
271.0840, 40405.00
272.3000, 40377.00
273.5160, 40556.00
274.7310, 40627.00
275.9470, 40440.00
277.1620, 40633.00
278.3770, 40340.00
279.5920, 40367.00
280.8070, 40177.00
282.0210, 40115.00
283.2360, 40206.00
284.4500, 40153.00
285.6640, 40163.00
286.8780, 40114.00
288.0920, 40203.00
289.3050, 40252.00
290.5180, 40211.00
291.7320, 40069.00
292.9450, 40367.00
294.1570, 40312.00
295.3700, 40417.00
296.5830, 40689.00
297.7950, 40837.00
299.0070, 40588.00
300.2190, 40736.00
301.4310, 40963.00
302.6420, 41236.00
303.8540, 40945.00
305.0650, 41216.00
306.2760, 41355.00
307.4870, 41562.00
308.6980, 41991.00
309.9080, 42545.00
311.1190, 42245.00
312.3290, 42248.00
313.5390, 43128.00
314.7490, 42450.00
315.9580, 42470.00
317.1680, 43042.00
318.3770, 42755.00
319.5860, 42831.00
320.7950, 42805.00
322.0040, 42705.00
323.2130, 42880.00
324.4210, 42757.95
325.6290, 42895.00
326.8380, 42651.00
328.0460, 42593.00
329.2530, 42514.00
330.4610, 42474.00
331.6680, 42346.00
332.8760, 42308.18
334.0830, 42216.18
335.2890, 42150.00
336.4960, 42108.00
337.7030, 41936.00
338.9090, 42000.00
340.1150, 42231.00
341.3210, 42105.00
342.5270, 41885.00
343.7330, 41693.00
344.9380, 42112.00
346.1440, 42256.00
347.3490, 42211.00
348.5540, 42251.00
349.7590, 42465.00
350.9630, 42294.00
352.1680, 42526.00
353.3720, 42735.00
354.5760, 42404.00
355.7800, 42546.00
356.9840, 42650.00
358.1870, 42715.00
359.3910, 42711.00
360.5940, 42728.00
361.7970, 42607.00
363.0000, 43029.00
364.2030, 43129.00
365.4050, 43297.00
366.6080, 43250.00
367.8100, 43388.00
369.0120, 43262.00
370.2140, 43349.00
371.4150, 43585.00
372.6170, 43333.00
373.8180, 43701.00
375.0190, 43704.00
376.2200, 43358.00
377.4210, 43374.00
378.6220, 43620.00
379.8220, 43458.00
381.0230, 43177.00
382.2230, 43359.00
383.4230, 42686.00
384.6220, 42841.00
385.8220, 42726.00
387.0220, 42253.00
388.2210, 42832.00
389.4200, 42333.00
390.6190, 42071.00
391.8180, 41710.00
393.0160, 41493.00
394.2150, 41239.00
395.4130, 40993.40
396.6110, 40814.88
397.8090, 40687.00
399.0060, 40460.00
400.2040, 40570.00
401.4010, 40420.00
402.5980, 40241.00
403.7950, 40335.00
404.9920, 40190.95
406.1890, 40416.00
407.3860, 40214.00
408.5820, 40053.00
409.7780, 40311.00
410.9740, 40398.00
412.1700, 40448.00
413.3650, 40651.00
414.5610, 40624.00
415.7560, 41744.00
416.9510, 41203.00
418.1460, 41519.00
419.3410, 42813.00
420.5360, 42231.00
421.7300, 42529.00
422.9240, 43746.00
424.1180, 43317.00
425.3120, 42976.00
426.5060, 43430.00
427.7000, 42661.00
428.8930, 42857.00
430.0860, 42682.00
431.2790, 42510.00
432.4720, 42399.00
433.6650, 42187.47
434.8580, 42039.59
436.0500, 41874.00
437.2420, 41725.00
438.4340, 41559.83
439.6260, 41370.19
440.8180, 41251.00
442.0090, 41071.00
443.2010, 40960.00
444.3920, 41013.00
445.5830, 41174.00
446.7740, 41451.00
447.9640, 41248.26
449.1550, 41002.00
450.3450, 41030.00
451.5350, 40803.00
452.7250, 40949.00
453.9150, 40707.00
455.1050, 40946.00
456.2940, 40994.00
457.4830, 41003.00
458.6720, 41012.95
459.8610, 40687.00
461.0500, 40899.00
462.2390, 40817.00
463.4270, 40827.64
464.6150, 40930.00
465.8040, 40540.00
466.9910, 40857.00
468.1790, 40447.00
469.3670, 40495.00
470.5540, 40746.00
471.7410, 40818.00
472.9280, 40851.00
474.1150, 40943.00
475.3020, 40783.00
476.4890, 41015.00
477.6750, 40878.00
478.8610, 41072.32
480.0470, 41245.28
481.2330, 41470.00
482.4190, 41693.00
483.6040, 41960.00
484.7900, 42240.00
485.9750, 42344.00
487.1600, 42580.00
488.3450, 42622.00
489.5290, 42827.09
490.7140, 42974.41
491.8980, 43131.00
493.0820, 43315.00
494.2660, 43376.00
495.4500, 43598.00
496.6340, 44167.00
497.8170, 43858.00
499.0010, 44782.00
500.1840, 44495.00
501.3670, 44725.00
502.5500, 44793.00
503.7320, 44634.00
504.9150, 44862.00
506.0970, 45135.00
507.2790, 45126.00
508.4610, 45202.00
509.6430, 45485.00
510.8250, 45405.00
512.0060, 45901.00
513.1870, 45743.00
514.3680, 45743.00
515.5490, 46159.00
516.7300, 45978.00
517.9110, 46267.00
519.0910, 46493.00
520.2710, 46768.00
521.4510, 47090.00
522.6310, 47484.00
523.8110, 47688.00
524.9910, 47916.00
526.1700, 48384.00
527.3490, 48619.00
528.5280, 49065.00
529.7070, 49528.00
530.8860, 51241.00
532.0650, 50432.00
533.2430, 50915.00
534.4210, 50161.00
535.5990, 50004.00
536.7770, 49951.00
537.9550, 49674.00
539.1320, 50050.00
540.3100, 49589.00
541.4870, 49682.00
542.6640, 49471.00
543.8410, 49257.00
545.0170, 49230.00
546.1940, 48720.00
547.3700, 48896.00
548.5470, 49128.00
549.7230, 49008.00
550.8980, 48674.00
552.0740, 48418.00
553.2500, 48614.00
554.4250, 48821.00
555.6000, 48771.00
556.7750, 49002.00
557.9500, 49351.00
559.1250, 49526.00
560.2990, 49613.00
561.4730, 49455.00
562.6480, 49703.00
563.8220, 49295.00
564.9950, 49178.00
566.1690, 49099.00
567.3430, 48818.00
568.5160, 48744.00
569.6890, 48190.00
570.8620, 47633.00
572.0350, 46722.00
573.2070, 45860.00
574.3800, 44927.00
575.5520, 44326.00
576.7240, 43679.00
577.8960, 42973.00
579.0680, 42343.00
580.2400, 41704.05
581.4110, 41126.00
582.5830, 40533.00
583.7540, 40011.00
584.9250, 39590.07
586.0950, 39243.74
587.2660, 39038.00
588.4370, 38833.00
589.6070, 38683.00
590.7770, 38734.00
591.9470, 38535.00
593.1170, 38366.00
594.2860, 38450.00
595.4560, 38352.00
596.6250, 38625.00
597.7940, 38249.00
598.9630, 38487.00
600.1320, 38208.00
601.3000, 38558.00
602.4690, 38668.00
603.6370, 38362.00
604.8050, 38336.00
605.9730, 38099.00
607.1410, 38197.00
608.3090, 38237.00
609.4760, 38344.00
610.6430, 38424.00
611.8100, 38386.00
612.9770, 38588.00
614.1440, 38497.00
615.3110, 38407.00
616.4770, 38776.00
617.6430, 38748.00
618.8090, 38876.00
619.9750, 38946.00
621.1410, 39043.00
622.3070, 38989.00
623.4720, 39086.00
624.6370, 39012.00
625.8020, 39373.00
626.9670, 39791.00
628.1320, 39692.00
629.2970, 39824.00
630.4610, 39878.00
631.6250, 40146.00
632.7890, 40282.14
633.9530, 40457.00
635.1170, 40740.00
636.2810, 40988.00
637.4440, 41346.00
638.6070, 41506.00
639.7700, 41992.00
640.9330, 42341.18
642.0960, 42840.00
643.2590, 43282.00
644.4210, 43817.00
645.5830, 44479.00
646.7450, 45257.37
647.9070, 46286.00
649.0690, 47164.00
650.2310, 48519.00
651.3920, 49795.00
652.5530, 51039.00
653.7140, 52514.00
654.8750, 54170.00
656.0360, 55996.00
657.1970, 57596.00
658.3570, 59023.00
659.5170, 60476.00
660.6770, 62101.00
661.8370, 62705.00
662.9970, 62827.00
664.1570, 62913.00
665.3160, 62645.00
666.4750, 61636.00
667.6340, 60717.00
668.7930, 58871.00
669.9520, 57568.00
671.1110, 55793.00
672.2690, 54244.00
673.4270, 52064.00
674.5850, 50707.00
675.7430, 49005.00
676.9010, 47979.00
678.0590, 46922.00
679.2160, 46064.00
680.3730, 45207.00
681.5300, 44624.00
682.6870, 44107.00
683.8440, 43606.00
685.0010, 43247.00
686.1570, 43076.00
687.3130, 42543.00
688.4690, 42613.00
689.6250, 42217.00
690.7810, 42468.00
691.9370, 42552.00
693.0920, 41959.00
694.2470, 41972.00
695.4020, 41700.00
696.5570, 41818.00
697.7120, 41545.00
698.8670, 41784.00
700.0210, 41684.00
701.1750, 41602.00
702.3290, 41845.00
703.4830, 41638.00
704.6370, 41849.00
705.7910, 41953.00
706.9440, 42061.00
708.0970, 41978.00
709.2510, 41914.00
710.4030, 41834.00
711.5560, 42106.00
712.7090, 42265.00
713.8610, 42157.00
715.0140, 41997.00
716.1660, 42316.00
717.3180, 41866.00
718.4690, 42349.00
719.6210, 41909.00
720.7730, 41921.00
721.9240, 41851.00
723.0750, 41612.00
724.2260, 41713.00
725.3770, 41546.00
726.5270, 41393.00
727.6780, 41560.00
728.8280, 41849.00
729.9780, 41525.00
731.1280, 41380.00
732.2780, 41119.00
733.4280, 40846.00
734.5770, 40882.00
735.7260, 40907.00
736.8760, 40631.00
738.0250, 40829.00
739.1730, 40960.00
740.3220, 40296.00
741.4700, 40289.00
742.6190, 40422.00
743.7670, 40343.00
744.9150, 40294.00
746.0630, 40308.00
747.2100, 40396.00
748.3580, 40388.58
749.5050, 40518.18
750.6520, 40425.00
751.7990, 40531.00
752.9460, 40469.00
754.0930, 39955.00
755.2390, 40039.00
756.3860, 40172.00
757.5320, 39944.00
758.6780, 40218.00
759.8240, 40118.00
760.9690, 40034.00
762.1150, 40061.41
763.2600, 39984.57
764.4060, 40035.00
765.5510, 39862.00
766.6950, 40106.00
767.8400, 39931.00
768.9850, 39773.00
770.1290, 39884.00
771.2730, 39902.00
772.4170, 39689.00
773.5610, 40261.00
774.7050, 39929.85
775.8480, 39949.00
776.9920, 39737.00
778.1350, 39539.00
779.2780, 39592.00
780.4210, 39885.00
781.5640, 39604.00
782.7060, 39775.00
783.8490, 39562.00
784.9910, 39562.00
786.1330, 39636.00
787.2750, 39501.00
788.4170, 39644.00
789.5580, 39356.00
790.7000, 39475.00
791.8410, 39500.00
792.9820, 39447.00
794.1230, 39555.00
795.2640, 39513.00
796.4040, 39563.00
797.5450, 39503.00
798.6850, 39269.00
799.8250, 39534.00
800.9650, 39059.00
802.1050, 39248.00
803.2450, 39051.00
804.3840, 39530.00
805.5230, 39327.00
806.6630, 39236.00
807.8020, 39388.00
808.9400, 39137.00
810.0790, 39244.00
811.2170, 39331.00
812.3560, 39086.00
813.4940, 38910.00
814.6320, 39128.00
815.7700, 39123.00
816.9070, 39459.00
818.0450, 39217.00
819.1820, 39139.00
820.3190, 39484.00
821.4560, 39232.00
822.5930, 39238.00
823.7300, 39015.00
824.8670, 39031.00
826.0030, 39122.00
827.1390, 39333.00
828.2750, 39182.00
829.4110, 39190.00
830.5470, 39165.00
831.6820, 39415.00
832.8180, 39204.00
833.9530, 39448.00
835.0880, 39379.00
836.2230, 39444.00
837.3580, 39226.00
838.4920, 39661.00
839.6270, 39632.00
840.7610, 39474.00
841.8950, 39249.00
843.0290, 39404.00
844.1630, 39778.00
845.2960, 39535.00
846.4300, 39731.00
847.5630, 39929.00
848.6960, 39657.00
849.8290, 39835.00
850.9620, 40047.00
852.0940, 39890.00
853.2270, 40142.00
854.3590, 40212.00
855.4910, 40306.00
856.6230, 40325.72
857.7550, 40389.02
858.8870, 40324.00
860.0180, 40305.59
861.1500, 40641.46
862.2810, 40876.11
863.4120, 41015.07
864.5430, 40771.76
865.6730, 41021.98
866.8040, 41074.48
867.9340, 41118.77
869.0640, 41438.48
870.1940, 41250.67
871.3240, 41566.02
872.4540, 41680.52
873.5830, 41886.85
874.7130, 41716.00
875.8420, 41745.00
876.9710, 41847.00
878.1000, 41904.00
879.2290, 41896.00
880.3570, 41995.00
881.4860, 42058.91
882.6140, 42068.00
883.7420, 42204.00
884.8700, 42125.67
885.9980, 42390.98
887.1250, 42555.14
888.2530, 42623.64
889.3800, 42309.82
890.5070, 42489.65
891.6340, 42471.64
892.7610, 42445.53
893.8880, 42694.84
895.0140, 42436.59
896.1400, 42681.50
897.2670, 42725.59
898.3930, 42861.57
899.5180, 42798.48
900.6440, 42796.89
901.7700, 42994.41
902.8950, 43081.66
904.0200, 42955.00
905.1450, 42929.00
906.2700, 42685.87
907.3950, 42967.90
908.5190, 43148.75
909.6440, 43233.96
910.7680, 42936.84
911.8920, 43133.37
913.0160, 43132.07
914.1400, 43122.65
915.2630, 43388.61
916.3870, 43147.09
917.5100, 43408.68
918.6330, 43469.43
919.7560, 43622.09
920.8790, 43575.71
922.0010, 43590.76
923.1240, 43685.00
924.2460, 43729.00
925.3680, 44079.00
926.4900, 43866.00
927.6120, 43841.00
928.7340, 44255.00
929.8550, 43931.00
930.9760, 44094.00
932.0980, 43984.00
933.2190, 44055.00
934.3390, 44408.00
935.4600, 44307.00
936.5810, 44428.00
937.7010, 44467.00
938.8210, 45034.00
939.9410, 45123.00
941.0610, 45255.68
942.1810, 45553.98
943.3010, 45615.00
944.4200, 45822.00
945.5390, 46453.00
946.6580, 46421.00
947.7770, 46852.00
948.8960, 47142.00
950.0150, 47405.00
951.1330, 47637.00
952.2510, 48065.00
953.3690, 48570.00
954.4870, 48715.00
955.6050, 48980.00
956.7230, 49523.00
957.8400, 49683.00
958.9580, 50100.00
960.0750, 50571.00
961.1920, 50766.00
962.3090, 50792.00
963.4250, 50891.00
964.5420, 50927.00
965.6580, 50936.00
966.7740, 51019.00
967.8900, 50966.00
969.0060, 50943.88
970.1220, 50824.00
971.2380, 50721.00
972.3530, 50733.00
973.4680, 50412.00
974.5830, 50176.00
975.6980, 50154.00
976.8130, 50140.00
977.9280, 49654.00
979.0420, 49639.00
980.1560, 49430.72
981.2710, 49207.41
982.3850, 49209.00
983.4980, 48874.00
984.6120, 48942.00
985.7260, 48784.00
986.8390, 48425.00
987.9520, 48530.00
989.0650, 48364.00
990.1780, 48060.00
991.2910, 48122.82
992.4030, 47985.81
993.5160, 48060.00
994.6280, 48052.00
995.7400, 48102.00
996.8520, 48395.00
997.9640, 47940.00
999.0750, 48212.00
1000.187, 48582.00
1001.298, 48262.00
1002.409, 48379.00
1003.520, 48675.00
1004.631, 48467.00
1005.741, 48395.00
1006.852, 48484.00
1007.962, 48421.00
1009.072, 48654.00
1010.182, 48463.00
1011.292, 48898.00
1012.402, 48644.00
1013.511, 49005.00
1014.621, 48813.00
1015.730, 49173.00
1016.839, 49041.00
1017.948, 49136.00
1019.056, 49407.00
1020.165, 49715.00
1021.273, 49878.00
1022.382, 50338.00
1023.490, 50463.00
1024.598, 50328.00
1025.706, 50870.00
1026.813, 51160.00
1027.921, 50945.00
1029.028, 52026.00
1030.135, 51883.00
1031.242, 52099.00
1032.349, 52484.00
1033.456, 52751.00
1034.562, 52844.00
1035.668, 53056.15
1036.775, 53065.00
1037.881, 53209.00
1038.987, 53360.00
1040.092, 53333.16
1041.198, 53089.00
1042.303, 52963.00
1043.408, 53129.00
1044.514, 52712.00
1045.618, 53003.00
1046.723, 52681.00
1047.828, 52782.00
1048.932, 52353.00
1050.037, 52223.00
1051.141, 52266.00
1052.245, 52298.00
1053.349, 52444.00
1054.452, 52238.00
1055.556, 51713.00
1056.659, 51889.00
1057.762, 51884.00
1058.865, 51872.00
1059.968, 51898.00
1061.071, 51391.00
1062.174, 51760.00
1063.276, 52093.00
1064.378, 52249.00
1065.480, 51539.00
1066.582, 51328.00
1067.684, 50797.00
1068.786, 50521.00
1069.887, 50691.00
1070.988, 50675.00
1072.090, 50447.00
1073.191, 50090.00
1074.291, 50141.00
1075.392, 49816.00
1076.493, 49557.00
1077.593, 49388.71
1078.693, 49324.00
1079.793, 48992.00
1080.893, 48695.00
1081.993, 48711.00
1083.092, 48211.00
1084.192, 47933.00
1085.291, 48077.00
1086.390, 47658.00
1087.489, 47567.00
1088.588, 47545.00
1089.686, 47259.00
1090.785, 46734.00
1091.883, 46852.00
1092.981, 47015.00
1094.079, 46240.00
1095.177, 46526.00
1096.275, 46354.00
1097.373, 46305.00
1098.470, 46166.00
1099.567, 46099.00
1100.664, 45904.00
1101.761, 45752.00
1102.858, 45550.00
1103.954, 45798.00
1105.051, 45794.00
1106.147, 45528.00
1107.243, 45391.00
1108.339, 45365.00
1109.435, 45166.48
1110.531, 45206.00
1111.626, 44945.00
1112.722, 44854.00
1113.817, 44795.00
1114.912, 44798.00
1116.007, 44762.00
1117.101, 44747.16
1118.196, 44662.22
1119.290, 44677.00
1120.385, 44487.00
1121.479, 44333.00
1122.573, 44277.72
1123.666, 44175.22
1124.760, 43837.00
1125.853, 43951.00
1126.947, 43668.00
1128.040, 43259.00
1129.133, 43121.00
1130.226, 42707.00
1131.318, 43050.00
1132.411, 42628.00
1133.503, 42596.00
1134.596, 41943.00
1135.688, 42220.00
1136.780, 41746.00
1137.871, 42244.00
1138.963, 42089.00
1140.054, 42015.00
1141.146, 41854.00
1142.237, 41384.00
1143.328, 41393.00
1144.419, 41402.00
1145.509, 41104.00
1146.600, 41285.00
1147.690, 41001.00
1148.780, 40881.00
1149.870, 41058.00
1150.960, 40842.00
1152.050, 40726.00
1153.139, 40638.00
1154.229, 40669.00
1155.318, 40788.00
1156.407, 40645.00
1157.496, 40577.00
1158.585, 40640.00
1159.674, 40435.00
1160.762, 40245.00
1161.850, 40295.00
1162.939, 40476.00
1164.027, 40388.00
1165.114, 40612.00
1166.202, 40430.00
1167.290, 40453.00
1168.377, 40206.00
1169.464, 40297.00
1170.551, 40384.00
1171.638, 40142.00
1172.725, 40300.00
1173.812, 40113.00
1174.898, 40061.00
1175.984, 40277.00
1177.071, 40237.00
1178.157, 40372.00
1179.242, 40257.00
1180.328, 40136.00
1181.414, 40160.00
1182.499, 40416.00
1183.584, 40153.00
1184.669, 40179.00
1185.754, 40229.00
1186.839, 39977.00
1187.924, 39978.00
1189.008, 40130.00
1190.092, 40147.00
1191.177, 40167.26
1192.260, 40289.00
1193.344, 40165.00
1194.428, 40110.00
1195.512, 40082.00
1196.595, 40041.52
1197.678, 40058.85
1198.761, 39972.00
1199.844, 40126.00
1200.927, 39766.84
1202.009, 40004.03
1203.092, 40140.10
1204.174, 40180.48
1205.256, 39838.57
1206.338, 39990.30
1207.420, 39944.21
1208.502, 39890.00
1209.583, 40111.20
1210.665, 39824.89
1211.746, 40041.73
1212.827, 40057.72
1213.908, 40165.64
1214.988, 40074.49
1216.069, 40044.83
1217.149, 40214.29
1218.230, 40273.49
1219.310, 40159.43
1220.390, 40273.18
1221.470, 40085.00
1222.549, 39855.00
1223.629, 39797.00
1224.708, 39895.00
1225.787, 39820.07
1226.866, 39918.69
1227.945, 39989.00
1229.024, 40022.00
1230.103, 40305.00
1231.181, 40223.00
1232.259, 39933.00
1233.337, 40269.00
1234.415, 40003.00
1235.493, 40187.00
1236.571, 39998.00
1237.648, 40320.00
1238.726, 40120.00
1239.803, 39923.00
1240.880, 39880.00
1241.957, 40113.00
1243.034, 39926.00
1244.110, 40006.00
1245.187, 39865.00
1246.263, 40179.00
1247.339, 40294.00
1248.415, 40088.00
1249.491, 40209.26
1250.566, 40128.00
1251.642, 40161.00
1252.717, 40032.00
1253.793, 40169.00
1254.868, 40176.00
1255.943, 40146.00
1257.017, 39923.00
1258.092, 39957.00
1259.166, 39834.00
1260.241, 40081.00
1261.315, 40020.00
1262.389, 40201.00
1263.462, 40105.93
1264.536, 40396.00
1265.610, 39924.00
1266.683, 40058.00
1267.756, 40080.00
1268.829, 39902.00
1269.902, 39799.00
1270.975, 40173.00
1272.048, 40013.00
1273.120, 40021.00
1274.192, 40160.00
1275.264, 40151.00
1276.336, 39930.00
1277.408, 40041.00
1278.480, 40132.00
1279.551, 40268.00
1280.623, 39825.00
1281.694, 40000.00
1282.765, 39890.00
1283.836, 39977.00
1284.907, 39835.00
1285.977, 40130.00
1287.048, 39810.00
1288.118, 40184.00
1289.188, 39926.00
1290.258, 40014.00
1291.328, 39982.00
1292.398, 39775.00
1293.467, 40225.00
1294.537, 39983.00
1295.606, 39880.00
1296.675, 40015.00
1297.744, 40232.00
1298.813, 40337.00
1299.882, 40352.42
1300.950, 40394.00
1302.018, 40268.00
1303.086, 40130.00
1304.155, 40001.00
1305.222, 40050.00
1306.290, 40355.00
1307.358, 40243.00
1308.425, 40011.00
1309.492, 40673.86
1310.559, 40222.00
1311.626, 40384.31
1312.693, 40349.00
1313.760, 40436.00
1314.826, 39878.00
1315.893, 40034.00
1316.959, 40285.00
1318.025, 39862.00
1319.091, 40167.00
1320.157, 40306.00
1321.222, 39969.00
1322.288, 40317.00
1323.353, 39951.00
1324.418, 40111.00
1325.483, 40064.00
1326.548, 39955.00
1327.612, 40076.00
1328.677, 40209.00
1329.741, 40164.00
1330.806, 40183.00
1331.870, 40011.00
1332.934, 40181.00
1333.997, 39938.00
1335.061, 39964.54
1336.124, 40235.00
1337.188, 39960.00
1338.251, 39902.00
1339.314, 40018.00
1340.377, 40013.00
1341.439, 40210.00
1342.502, 40003.00
1343.564, 39955.00
1344.627, 40077.00
1345.689, 40038.00
1346.751, 40037.00
1347.813, 40277.00
1348.874, 40106.00
1349.936, 40130.00
1350.997, 39965.00
1352.058, 39959.00
1353.119, 40019.00
1354.180, 39950.00
1355.241, 40119.00
1356.301, 40077.00
1357.362, 40060.00
1358.422, 40266.00
1359.482, 40168.00
1360.542, 40004.00
1361.602, 40010.00
1362.662, 40002.00
1363.721, 40039.00
1364.781, 40055.10
1365.840, 40099.08
1366.899, 40110.00
1367.958, 40158.00
1369.017, 40171.00
1370.075, 40100.00
1371.134, 40122.00
1372.192, 40117.00
1373.250, 40083.00
1374.308, 40254.00
1375.366, 40133.00
1376.424, 40046.00
1377.481, 40411.00
1378.539, 40266.00
1379.596, 40277.00
1380.653, 40302.00
1381.710, 40137.00
1382.767, 40385.00
1383.824, 40136.00
1384.880, 40466.00
1385.937, 40258.00
1386.993, 40196.00
1388.049, 40389.00
1389.105, 40242.00
1390.161, 40253.00
1391.216, 40489.00
1392.272, 40177.00
1393.327, 40179.00
1394.382, 40182.00
1395.437, 40205.00
1396.492, 40223.00
1397.547, 40421.00
1398.601, 40281.00
1399.656, 40091.00
1400.710, 40242.00
1401.764, 40234.00
1402.818, 40339.00
1403.872, 40187.00
1404.925, 40358.00
1405.979, 40354.60
1407.032, 40212.00
1408.085, 40403.00
1409.139, 40467.00
1410.191, 40385.00
1411.244, 40474.00
1412.297, 40407.79
1413.349, 40371.22
1414.402, 40313.00
1415.454, 40311.00
1416.506, 40277.00
1417.558, 40346.00
1418.609, 40165.00
1419.661, 40313.00
1420.712, 40405.00
1421.764, 40257.00
1422.815, 40089.00
1423.866, 40133.00
1424.916, 40528.00
1425.967, 40264.00
1427.018, 40484.00
1428.068, 40331.00
1429.118, 40417.00
1430.168, 40438.00
1431.218, 40237.00
1432.268, 40167.00
1433.318, 40286.14
1434.367, 40275.56
1435.416, 40652.00
1436.465, 40303.00
1437.514, 40654.00
1438.563, 40273.00
1439.612, 40366.00
1440.661, 40628.00
1441.709, 40251.00
1442.757, 40967.00
1443.805, 40652.00
1444.853, 40241.00
1445.901, 40333.00
1446.949, 40624.00
1447.996, 40691.00
1449.044, 40292.00
1450.091, 40397.70
1451.138, 40628.71
1452.185, 40758.60
1453.232, 40792.80
1454.278, 40444.71
1455.325, 40590.27
1456.371, 40537.99
1457.417, 40477.60
1458.463, 40692.64
1459.509, 40400.15
1460.555, 40610.82
1461.601, 40620.64
1462.646, 40179.00
1463.691, 40217.61
1464.737, 40378.00
1465.782, 40131.00
1466.826, 40140.00
1467.871, 40289.00
1468.916, 40549.00
1469.960, 40481.00
1471.004, 40392.00
1472.048, 40402.00
1473.092, 40451.00
1474.136, 40442.00
1475.180, 40510.00
1476.223, 40415.00
1477.267, 40393.00
1478.310, 40280.00
1479.353, 40286.00
1480.396, 40418.00
1481.439, 40458.00
1482.481, 40542.00
1483.524, 40584.36
1484.566, 40969.00
1485.608, 40609.00
1486.650, 40283.00
1487.692, 40197.00
1488.734, 40427.00
1489.775, 40554.00
1490.817, 40440.00
1491.858, 40512.00
1492.899, 40506.00
1493.940, 40517.00
1494.981, 40382.00
1496.022, 40492.81
1497.062, 40495.00
1498.103, 40529.00
1499.143, 40620.00
1500.183, 40395.27
1501.223, 40370.00
1502.263, 40268.00
1503.302, 40691.00
1504.342, 40510.00
1505.381, 40515.00
1506.420, 40714.00
1507.459, 40609.00
1508.498, 40645.00
1509.537, 40620.00
1510.576, 40187.00
1511.614, 40619.00
1512.652, 40316.00
1513.691, 40614.00
1514.729, 40402.00
1515.767, 40545.00
1516.804, 40481.00
1517.842, 40589.00
1518.879, 40512.00
1519.917, 40669.00
1520.954, 40595.00
1521.991, 40525.00
1523.028, 40588.00
1524.064, 40452.00
1525.101, 40570.00
1526.137, 40545.00
1527.173, 40594.00
1528.210, 40584.71
1529.245, 40616.00
1530.281, 40576.00
1531.317, 40536.00
1532.352, 40630.00
1533.388, 40437.00
1534.423, 40565.00
1535.458, 40427.16
1536.493, 40669.22
1537.528, 40810.16
1538.562, 40855.40
1539.597, 40518.36
1540.631, 40674.96
1541.665, 40633.73
1542.700, 40584.39
1543.733, 40810.46
1544.767, 40529.02
1545.801, 40750.73
1546.834, 40771.57
1547.868, 40884.36
1548.901, 40798.08
1549.934, 40773.28
1550.967, 40947.59
1551.999, 41011.65
1553.032, 40902.45
1554.064, 41021.06
1555.097, 40732.65
1556.129, 40801.40
1557.161, 41024.25
1558.193, 40925.05
1559.224, 41047.29
1560.256, 41085.20
1561.287, 40488.00
1562.318, 40665.00
##END=



