##NAMES=Riebeckite
##RRUFFID=R050082
##IDEAL CHEMISTRY=[box]Na_2_(Fe^2+^_3_Fe^3+^_2_)Si_8_O_22_(OH)_2_
##LOCALITY=Mt. Malosa, Zomba, Chilwa, Alkaline Area, Malawi
##OWNER=RRUFF
##SOURCE=Rock Currier
##DESCRIPTION=Black elongated prisms
##STATUS=The identification of this mineral has been confirmed by X-ray diffraction and chemical analysis
##URL=rruff.info/R050082
##MEASURED CHEMISTRY=([box]_0.63_Na_0.19_K_0.18_)(Na_1.58_Ca_0.42_)_Σ=2_Fe^2+^_3.00_(Fe^3+^_1.30_Fe^2+^_0.45_Mn_0.15_Mg_0.05_Ti_0.05_)_Σ=2_(Si_0.98_Al_0.02_)_8_O_22_(OH)_2_
##PIN_ID=L00416
##ORIENTATION=Laser parallel to (-1 0 -1). Fiducial mark perpendicular to laser is parallel to b [0 1 0]
127.5960, 40289.00
128.8330, 41871.00
130.0700, 42941.00
131.3060, 43647.00
132.5420, 43699.00
133.7780, 44417.00
135.0140, 45611.00
136.2500, 46938.00
137.4850, 48886.00
138.7200, 49962.00
139.9550, 50130.00
141.1900, 47876.00
142.4250, 45953.00
143.6600, 45024.00
144.8940, 44087.00
146.1280, 43688.00
147.3620, 43309.00
148.5960, 42672.00
149.8300, 42367.00
151.0630, 43088.00
152.2960, 43104.00
153.5300, 42945.00
154.7620, 43339.00
155.9950, 42957.00
157.2280, 42650.00
158.4600, 43744.00
159.6920, 43891.00
160.9250, 44449.00
162.1560, 44954.00
163.3880, 45285.00
164.6200, 45714.00
165.8510, 46170.00
167.0820, 46229.00
168.3130, 46039.00
169.5440, 46296.00
170.7750, 46268.00
172.0050, 46413.00
173.2350, 45431.00
174.4650, 45340.00
175.6950, 45551.00
176.9250, 45660.00
178.1550, 45831.89
179.3840, 46176.00
180.6130, 46403.00
181.8420, 46835.00
183.0710, 47376.00
184.3000, 48278.00
185.5280, 49517.00
186.7570, 50456.00
187.9850, 51752.00
189.2130, 52459.00
190.4400, 53987.00
191.6680, 54976.00
192.8960, 55153.00
194.1230, 55576.00
195.3500, 55410.00
196.5770, 54887.00
197.8030, 54471.00
199.0300, 53631.00
200.2560, 53432.00
201.4830, 53444.00
202.7090, 52695.00
203.9340, 50514.00
205.1600, 47185.00
206.3860, 45010.00
207.6110, 43745.00
208.8360, 43194.00
210.0610, 42773.00
211.2860, 43731.00
212.5100, 43048.00
213.7350, 42792.00
214.9590, 42898.00
216.1830, 42465.00
217.4070, 42015.00
218.6310, 42232.00
219.8540, 42279.00
221.0780, 42390.00
222.3010, 42285.00
223.5240, 42459.00
224.7470, 42374.00
225.9690, 42501.00
227.1920, 42550.00
228.4140, 42405.00
229.6360, 42249.00
230.8580, 42386.00
232.0800, 42296.00
233.3020, 42306.00
234.5230, 42066.00
235.7440, 41953.00
236.9650, 42035.00
238.1860, 41536.00
239.4070, 41307.00
240.6280, 41248.00
241.8480, 41034.00
243.0680, 40873.00
244.2880, 40585.00
245.5080, 40363.00
246.7280, 40287.00
247.9470, 40069.00
249.1660, 40254.00
250.3860, 40084.00
251.6040, 40248.00
252.8230, 40215.00
254.0420, 39936.00
255.2600, 40216.00
256.4790, 40078.97
257.6970, 40305.57
258.9150, 40451.06
260.1320, 40519.77
261.3500, 40281.89
262.5670, 40439.92
263.7840, 40439.27
265.0010, 40432.11
266.2180, 40566.00
267.4350, 40607.00
268.6510, 40560.00
269.8680, 40630.00
271.0840, 40361.00
272.3000, 40499.00
273.5160, 40505.00
274.7310, 40559.00
275.9470, 40596.09
277.1620, 40812.00
278.3770, 40568.00
279.5920, 40624.00
280.8070, 40489.89
282.0210, 40741.00
283.2360, 40465.00
284.4500, 40321.00
285.6640, 40500.00
286.8780, 40226.00
288.0920, 40570.00
289.3050, 40563.00
290.5180, 40572.00
291.7320, 40811.00
292.9450, 40566.00
294.1570, 40539.00
295.3700, 41120.00
296.5830, 40871.00
297.7950, 40985.00
299.0070, 41850.00
300.2190, 42521.00
301.4310, 41240.00
302.6420, 41437.00
303.8540, 41275.00
305.0650, 41423.00
306.2760, 42161.00
307.4870, 42498.00
308.6980, 42309.00
309.9080, 42058.00
311.1190, 42371.00
312.3290, 42489.00
313.5390, 42769.00
314.7490, 42815.00
315.9580, 42989.00
317.1680, 43099.00
318.3770, 43118.00
319.5860, 43272.00
320.7950, 43303.00
322.0040, 43398.00
323.2130, 43142.00
324.4210, 42944.00
325.6290, 43029.00
326.8380, 42976.00
328.0460, 42816.00
329.2530, 42794.00
330.4610, 42820.00
331.6680, 42751.00
332.8760, 42396.00
334.0830, 42753.00
335.2890, 42163.00
336.4960, 42093.00
337.7030, 42317.00
338.9090, 42220.00
340.1150, 42112.00
341.3210, 42079.38
342.5270, 42354.00
343.7330, 42084.00
344.9380, 42214.00
346.1440, 42250.70
347.3490, 41988.00
348.5540, 42372.00
349.7590, 42302.00
350.9630, 42433.00
352.1680, 42765.00
353.3720, 42434.00
354.5760, 42591.00
355.7800, 42650.00
356.9840, 43250.00
358.1870, 43990.00
359.3910, 43215.00
360.5940, 43657.00
361.7970, 43574.00
363.0000, 43011.00
364.2030, 43198.00
365.4050, 43483.00
366.6080, 43895.00
367.8100, 43875.20
369.0120, 44014.00
370.2140, 44046.00
371.4150, 43903.00
372.6170, 44249.00
373.8180, 43970.00
375.0190, 44021.00
376.2200, 44114.00
377.4210, 44258.00
378.6220, 44283.00
379.8220, 44299.00
381.0230, 44360.00
382.2230, 44316.24
383.4230, 44344.00
384.6220, 44101.00
385.8220, 44102.00
387.0220, 43698.00
388.2210, 43672.00
389.4200, 43645.00
390.6190, 43699.00
391.8180, 43280.00
393.0160, 43327.00
394.2150, 43318.00
395.4130, 42639.00
396.6110, 42399.00
397.8090, 42420.00
399.0060, 42091.14
400.2040, 42049.39
401.4010, 41927.00
402.5980, 41763.00
403.7950, 41740.00
404.9920, 41384.00
406.1890, 41297.00
407.3860, 41548.00
408.5820, 41832.00
409.7780, 41528.00
410.9740, 41458.00
412.1700, 41572.00
413.3650, 41918.00
414.5610, 41795.00
415.7560, 42213.00
416.9510, 42211.00
418.1460, 42449.00
419.3410, 42889.00
420.5360, 42878.00
421.7300, 43228.00
422.9240, 43628.00
424.1180, 43777.00
425.3120, 44035.00
426.5060, 44358.00
427.7000, 44248.00
428.8930, 44296.00
430.0860, 44231.00
431.2790, 43919.00
432.4720, 44033.00
433.6650, 43748.00
434.8580, 43442.00
436.0500, 43301.00
437.2420, 43131.00
438.4340, 42929.00
439.6260, 42752.00
440.8180, 42822.00
442.0090, 42843.00
443.2010, 42726.00
444.3920, 42259.00
445.5830, 42425.00
446.7740, 41976.00
447.9640, 41873.00
449.1550, 42269.00
450.3450, 42275.00
451.5350, 42278.00
452.7250, 42330.00
453.9150, 42294.66
455.1050, 42333.00
456.2940, 42252.00
457.4830, 42229.00
458.6720, 42215.00
459.8610, 42328.00
461.0500, 42407.00
462.2390, 42305.00
463.4270, 42249.00
464.6150, 42091.00
465.8040, 42114.00
466.9910, 42061.00
468.1790, 42077.00
469.3670, 41998.00
470.5540, 41859.00
471.7410, 42218.00
472.9280, 42129.00
474.1150, 42086.00
475.3020, 42253.00
476.4890, 42073.00
477.6750, 42157.00
478.8610, 42134.00
480.0470, 42379.00
481.2330, 42440.00
482.4190, 42663.00
483.6040, 42875.00
484.7900, 43157.00
485.9750, 43469.00
487.1600, 43500.00
488.3450, 43737.10
489.5290, 43660.00
490.7140, 44021.00
491.8980, 44046.66
493.0820, 44215.00
494.2660, 44350.00
495.4500, 44905.00
496.6340, 45072.00
497.8170, 45076.00
499.0010, 45400.00
500.1840, 45387.00
501.3670, 45615.00
502.5500, 45430.00
503.7320, 45708.00
504.9150, 45727.00
506.0970, 45649.00
507.2790, 45751.00
508.4610, 46079.00
509.6430, 46206.00
510.8250, 46309.97
512.0060, 46470.00
513.1870, 46531.00
514.3680, 46349.00
515.5490, 46583.00
516.7300, 46447.00
517.9110, 46839.00
519.0910, 46991.00
520.2710, 47039.00
521.4510, 47258.07
522.6310, 47460.26
523.8110, 47581.00
524.9910, 47966.00
526.1700, 48375.00
527.3490, 48652.00
528.5280, 48834.00
529.7070, 48888.00
530.8860, 49458.00
532.0650, 49468.00
533.2430, 49676.00
534.4210, 50016.00
535.5990, 50259.00
536.7770, 51944.00
537.9550, 50451.00
539.1320, 50001.00
540.3100, 51139.00
541.4870, 50195.00
542.6640, 49977.00
543.8410, 49828.00
545.0170, 49262.00
546.1940, 49414.00
547.3700, 49348.00
548.5470, 49188.00
549.7230, 49293.00
550.8980, 48947.00
552.0740, 49042.00
553.2500, 49115.00
554.4250, 48972.00
555.6000, 48822.00
556.7750, 49027.18
557.9500, 49024.00
559.1250, 49383.00
560.2990, 49359.00
561.4730, 49534.00
562.6480, 49810.00
563.8220, 49871.00
564.9950, 49960.00
566.1690, 49950.00
567.3430, 49735.00
568.5160, 49764.00
569.6890, 49359.00
570.8620, 48692.00
572.0350, 49610.00
573.2070, 47304.00
574.3800, 46899.00
575.5520, 45441.00
576.7240, 46576.00
577.8960, 45036.00
579.0680, 43977.00
580.2400, 43721.00
581.4110, 43021.00
582.5830, 42559.00
583.7540, 42176.00
584.9250, 41882.00
586.0950, 41382.00
587.2660, 41397.00
588.4370, 41057.00
589.6070, 40831.00
590.7770, 40930.00
591.9470, 40828.00
593.1170, 40766.00
594.2860, 40532.00
595.4560, 40642.00
596.6250, 40352.00
597.7940, 40583.00
598.9630, 40605.00
600.1320, 40647.00
601.3000, 40647.00
602.4690, 40326.00
603.6370, 40541.00
604.8050, 40390.00
605.9730, 40330.00
607.1410, 40546.00
608.3090, 40353.00
609.4760, 40575.00
610.6430, 40606.00
611.8100, 40494.00
612.9770, 40685.00
614.1440, 40729.00
615.3110, 40905.00
616.4770, 40781.00
617.6430, 40607.00
618.8090, 40737.00
619.9750, 40878.00
621.1410, 41032.00
622.3070, 40983.00
623.4720, 41021.00
624.6370, 41369.00
625.8020, 41120.00
626.9670, 41341.00
628.1320, 41681.00
629.2970, 41772.00
630.4610, 41966.48
631.6250, 42088.00
632.7890, 42122.00
633.9530, 42241.00
635.1170, 42122.00
636.2810, 42900.00
637.4440, 42607.00
638.6070, 43007.25
639.7700, 43408.00
640.9330, 43592.00
642.0960, 43837.00
643.2590, 44288.00
644.4210, 44233.00
645.5830, 45219.00
646.7450, 45393.00
647.9070, 45987.00
649.0690, 47097.00
650.2310, 47784.00
651.3920, 48547.00
652.5530, 49490.00
653.7140, 50692.00
654.8750, 52327.00
656.0360, 53417.00
657.1970, 55432.00
658.3570, 57038.93
659.5170, 58627.00
660.6770, 60423.00
661.8370, 61980.00
662.9970, 63045.00
664.1570, 63770.00
665.3160, 64216.00
666.4750, 64140.00
667.6340, 63321.00
668.7930, 61853.00
669.9520, 60406.76
671.1110, 58726.99
672.2690, 56432.00
673.4270, 54914.00
674.5850, 53080.00
675.7430, 51216.00
676.9010, 50188.00
678.0590, 49339.00
679.2160, 47936.00
680.3730, 47338.00
681.5300, 46829.00
682.6870, 46234.00
683.8440, 45703.00
685.0010, 45498.00
686.1570, 45221.00
687.3130, 44760.00
688.4690, 44703.00
689.6250, 44594.00
690.7810, 44554.00
691.9370, 44242.00
693.0920, 44186.00
694.2470, 44207.00
695.4020, 44199.00
696.5570, 44244.00
697.7120, 43948.00
698.8670, 44304.00
700.0210, 43878.00
701.1750, 44251.00
702.3290, 44020.00
703.4830, 43769.00
704.6370, 44056.00
705.7910, 44316.00
706.9440, 44051.00
708.0970, 44175.00
709.2510, 44380.00
710.4030, 44109.00
711.5560, 44460.00
712.7090, 44146.00
713.8610, 44436.00
715.0140, 44411.00
716.1660, 44389.00
717.3180, 44636.00
718.4690, 44417.00
719.6210, 44449.60
720.7730, 44255.00
721.9240, 44322.00
723.0750, 44340.00
724.2260, 44342.00
725.3770, 44409.00
726.5270, 44021.00
727.6780, 43768.00
728.8280, 43930.00
729.9780, 43676.00
731.1280, 43777.00
732.2780, 43709.35
733.4280, 43523.00
734.5770, 43571.00
735.7260, 43396.00
736.8760, 43240.00
738.0250, 43233.00
739.1730, 43161.00
740.3220, 43261.00
741.4700, 42897.00
742.6190, 43095.00
743.7670, 43074.51
744.9150, 43025.81
746.0630, 43278.00
747.2100, 42943.00
748.3580, 43119.00
749.5050, 42799.00
750.6520, 42851.00
751.7990, 42662.00
752.9460, 42588.00
754.0930, 42583.00
755.2390, 42595.00
756.3860, 42558.00
757.5320, 42622.94
758.6780, 42661.98
759.8240, 42645.00
760.9690, 43098.00
762.1150, 42936.00
763.2600, 42899.00
764.4060, 42770.00
765.5510, 42560.00
766.6950, 42706.00
767.8400, 42565.00
768.9850, 42511.00
770.1290, 42599.00
771.2730, 42517.00
772.4170, 42483.00
773.5610, 42573.00
774.7050, 42733.00
775.8480, 42491.00
776.9920, 42315.00
778.1350, 42558.00
779.2780, 42229.00
780.4210, 42414.00
781.5640, 42316.00
782.7060, 42246.00
783.8490, 42464.00
784.9910, 42263.00
786.1330, 42030.00
787.2750, 42382.00
788.4170, 42284.00
789.5580, 42330.00
790.7000, 42345.00
791.8410, 42080.00
792.9820, 42338.00
794.1230, 41924.00
795.2640, 42005.00
796.4040, 42270.00
797.5450, 42062.00
798.6850, 42056.00
799.8250, 41887.00
800.9650, 42091.00
802.1050, 42055.00
803.2450, 42069.00
804.3840, 41930.00
805.5230, 41967.62
806.6630, 42042.00
807.8020, 41992.00
808.9400, 42070.00
810.0790, 42138.00
811.2170, 41672.00
812.3560, 41942.00
813.4940, 41928.00
814.6320, 41644.00
815.7700, 41749.00
816.9070, 42033.00
818.0450, 41947.00
819.1820, 41897.00
820.3190, 41931.00
821.4560, 41880.00
822.5930, 41792.00
823.7300, 41975.00
824.8670, 41949.00
826.0030, 41809.00
827.1390, 41908.00
828.2750, 42004.00
829.4110, 41917.00
830.5470, 42075.00
831.6820, 42199.00
832.8180, 41883.00
833.9530, 42047.00
835.0880, 41857.00
836.2230, 41986.00
837.3580, 42342.00
838.4920, 42050.00
839.6270, 42145.00
840.7610, 42250.00
841.8950, 42256.00
843.0290, 42318.00
844.1630, 42395.00
845.2960, 42367.00
846.4300, 42372.00
847.5630, 42089.00
848.6960, 42664.00
849.8290, 42822.00
850.9620, 42754.00
852.0940, 43246.00
853.2270, 42939.00
854.3590, 42661.00
855.4910, 42760.00
856.6230, 42891.00
857.7550, 42802.00
858.8870, 43186.00
860.0180, 42950.00
861.1500, 42998.00
862.2810, 43326.00
863.4120, 43894.00
864.5430, 43529.00
865.6730, 43468.00
866.8040, 43851.00
867.9340, 43796.00
869.0640, 43963.00
870.1940, 43642.00
871.3240, 43838.00
872.4540, 43952.00
873.5830, 44138.00
874.7130, 44184.00
875.8420, 44092.00
876.9710, 44187.00
878.1000, 44290.00
879.2290, 44117.00
880.3570, 44399.00
881.4860, 44225.00
882.6140, 44329.00
883.7420, 44673.00
884.8700, 44592.00
885.9980, 44468.00
887.1250, 45081.00
888.2530, 44464.00
889.3800, 44349.00
890.5070, 44515.00
891.6340, 44405.50
892.7610, 44784.00
893.8880, 44677.00
895.0140, 44638.00
896.1400, 44642.00
897.2670, 44594.00
898.3930, 44591.47
899.5180, 44715.00
900.6440, 44550.00
901.7700, 44521.00
902.8950, 44445.00
904.0200, 44621.00
905.1450, 44827.00
906.2700, 44698.00
907.3950, 44593.00
908.5190, 44841.00
909.6440, 44598.00
910.7680, 44827.00
911.8920, 45177.00
913.0160, 44963.00
914.1400, 44959.00
915.2630, 45144.38
916.3870, 45158.76
917.5100, 45241.00
918.6330, 45496.00
919.7560, 45224.00
920.8790, 45407.00
922.0010, 45120.00
923.1240, 45347.00
924.2460, 45602.00
925.3680, 45393.74
926.4900, 45446.00
927.6120, 45418.00
928.7340, 45395.02
929.8550, 45484.00
930.9760, 45502.00
932.0980, 45479.00
933.2190, 45652.06
934.3390, 45290.00
935.4600, 45648.00
936.5810, 45721.00
937.7010, 45487.00
938.8210, 45601.00
939.9410, 45552.00
941.0610, 45794.00
942.1810, 45844.75
943.3010, 46112.00
944.4200, 45990.00
945.5390, 46182.00
946.6580, 46072.00
947.7770, 46045.00
948.8960, 46426.00
950.0150, 46462.00
951.1330, 46705.00
952.2510, 46579.00
953.3690, 46968.00
954.4870, 47157.00
955.6050, 47022.00
956.7230, 47012.00
957.8400, 47288.00
958.9580, 47291.00
960.0750, 47463.00
961.1920, 47741.00
962.3090, 47791.00
963.4250, 47866.02
964.5420, 47872.00
965.6580, 47878.00
966.7740, 48076.00
967.8900, 48123.00
969.0060, 48201.00
970.1220, 48157.00
971.2380, 47963.00
972.3530, 48314.00
973.4680, 47970.00
974.5830, 48208.00
975.6980, 47920.00
976.8130, 47933.00
977.9280, 48012.00
979.0420, 48061.00
980.1560, 48252.00
981.2710, 48479.00
982.3850, 48538.00
983.4980, 48409.00
984.6120, 48235.00
985.7260, 48524.00
986.8390, 48212.00
987.9520, 48469.00
989.0650, 48433.00
990.1780, 48515.00
991.2910, 48490.00
992.4030, 48585.00
993.5160, 48703.00
994.6280, 48680.00
995.7400, 48811.00
996.8520, 48477.26
997.9640, 48805.09
999.0750, 49051.69
1000.187, 49221.66
1001.298, 49084.87
1002.409, 49344.04
1003.520, 49444.52
1004.631, 49538.49
1005.741, 49853.25
1006.852, 49761.06
1007.962, 49707.00
1009.072, 49803.00
1010.182, 49815.00
1011.292, 49819.00
1012.402, 49695.00
1013.511, 50112.00
1014.621, 49907.00
1015.730, 50555.00
1016.839, 50560.00
1017.948, 50855.00
1019.056, 50681.00
1020.165, 50842.00
1021.273, 50673.00
1022.382, 51088.00
1023.490, 51215.00
1024.598, 51409.00
1025.706, 51776.00
1026.813, 51864.00
1027.921, 52334.00
1029.028, 52297.00
1030.135, 53038.00
1031.242, 53035.00
1032.349, 53431.00
1033.456, 53595.00
1034.562, 53844.00
1035.668, 53986.08
1036.775, 54504.00
1037.881, 54325.00
1038.987, 54063.00
1040.092, 54528.00
1041.198, 54053.00
1042.303, 54190.00
1043.408, 54624.00
1044.514, 54174.00
1045.618, 54615.00
1046.723, 54451.00
1047.828, 53941.00
1048.932, 53852.00
1050.037, 53739.00
1051.141, 53871.00
1052.245, 53555.00
1053.349, 53466.00
1054.452, 53296.00
1055.556, 53411.00
1056.659, 53445.00
1057.762, 53313.00
1058.865, 53558.00
1059.968, 53282.00
1061.071, 53281.00
1062.174, 52766.00
1063.276, 52946.00
1064.378, 52886.41
1065.480, 52769.23
1066.582, 52989.00
1067.684, 52664.00
1068.786, 52541.00
1069.887, 52304.00
1070.988, 52353.00
1072.090, 52088.00
1073.191, 52366.00
1074.291, 51915.00
1075.392, 52131.00
1076.493, 51866.00
1077.593, 51887.00
1078.693, 51709.12
1079.793, 51592.00
1080.893, 51161.00
1081.993, 51258.00
1083.092, 50785.00
1084.192, 50408.00
1085.291, 50650.00
1086.390, 50209.00
1087.489, 49997.00
1088.588, 49918.00
1089.686, 49500.00
1090.785, 49323.00
1091.883, 49426.00
1092.981, 49271.00
1094.079, 49225.60
1095.177, 49071.00
1096.275, 49079.00
1097.373, 48940.82
1098.470, 48831.45
1099.567, 48767.00
1100.664, 48535.00
1101.761, 48351.00
1102.858, 48478.00
1103.954, 48255.00
1105.051, 48244.77
1106.147, 48398.00
1107.243, 48089.00
1108.339, 48173.00
1109.435, 48002.00
1110.531, 47840.00
1111.626, 47869.00
1112.722, 47941.00
1113.817, 47801.00
1114.912, 47694.00
1116.007, 47487.00
1117.101, 47310.00
1118.196, 47151.00
1119.290, 46957.00
1120.385, 47112.00
1121.479, 47064.00
1122.573, 46911.00
1123.666, 46518.00
1124.760, 46543.00
1125.853, 46524.00
1126.947, 46357.00
1128.040, 46461.00
1129.133, 46178.97
1130.226, 46074.00
1131.318, 45700.00
1132.411, 45457.00
1133.503, 45244.00
1134.596, 45521.00
1135.688, 45291.00
1136.780, 45263.00
1137.871, 44969.00
1138.963, 45028.00
1140.054, 44767.00
1141.146, 44465.00
1142.237, 44624.00
1143.328, 44833.00
1144.419, 44268.00
1145.509, 44432.00
1146.600, 44418.00
1147.690, 43945.00
1148.780, 44278.00
1149.870, 43932.00
1150.960, 44224.00
1152.050, 43932.00
1153.139, 43925.00
1154.229, 43803.00
1155.318, 44017.00
1156.407, 44097.00
1157.496, 44029.00
1158.585, 43768.00
1159.674, 43614.00
1160.762, 43648.00
1161.850, 43540.00
1162.939, 43547.00
1164.027, 43756.00
1165.114, 43687.00
1166.202, 43723.00
1167.290, 43835.00
1168.377, 43655.00
1169.464, 43729.00
1170.551, 43606.06
1171.638, 43599.00
1172.725, 43606.00
1173.812, 43373.00
1174.898, 43873.00
1175.984, 43884.00
1177.071, 43516.00
1178.157, 43237.00
1179.242, 43552.00
1180.328, 43645.00
1181.414, 43424.00
1182.499, 43421.00
1183.584, 43651.00
1184.669, 43503.00
1185.754, 43524.00
1186.839, 43628.00
1187.924, 43143.00
1189.008, 43339.00
1190.092, 43372.00
1191.177, 43341.00
1192.260, 43449.00
1193.344, 43258.00
1194.428, 43488.00
1195.512, 43526.00
1196.595, 43271.00
1197.678, 43449.00
1198.761, 43436.00
1199.844, 43281.00
1200.927, 43136.00
1202.009, 43090.00
1203.092, 43232.00
1204.174, 43348.00
1205.256, 43463.00
1206.338, 43322.00
1207.420, 43327.00
1208.502, 43293.00
1209.583, 43431.00
1210.665, 43378.00
1211.746, 43577.00
1212.827, 43343.00
1213.908, 43662.00
1214.988, 43339.00
1216.069, 43452.00
1217.149, 43479.00
1218.230, 43199.00
1219.310, 43621.00
1220.390, 43412.00
1221.470, 43479.00
1222.549, 43503.00
1223.629, 43269.00
1224.708, 43323.00
1225.787, 43273.00
1226.866, 43193.04
1227.945, 43078.00
1229.024, 43167.00
1230.103, 43093.00
1231.181, 43190.00
1232.259, 43451.00
1233.337, 43462.00
1234.415, 43273.00
1235.493, 43637.00
1236.571, 43391.00
1237.648, 43365.00
1238.726, 43529.00
1239.803, 43455.00
1240.880, 43530.00
1241.957, 43509.00
1243.034, 43424.00
1244.110, 43524.00
1245.187, 43493.00
1246.263, 43487.98
1247.339, 43515.00
1248.415, 43545.00
1249.491, 43357.00
1250.566, 43514.00
1251.642, 43402.00
1252.717, 43223.00
1253.793, 43210.00
1254.868, 43138.00
1255.943, 43322.00
1257.017, 43213.00
1258.092, 43574.00
1259.166, 43408.00
1260.241, 43750.00
1261.315, 43671.14
1262.389, 43469.00
1263.462, 43599.00
1264.536, 43483.00
1265.610, 43525.00
1266.683, 43284.00
1267.756, 43290.00
1268.829, 43390.00
1269.902, 43504.00
1270.975, 43293.00
1272.048, 43151.00
1273.120, 43176.00
1274.192, 43457.00
1275.264, 43297.00
1276.336, 43448.00
1277.408, 43185.00
1278.480, 43235.00
1279.551, 43327.00
1280.623, 43193.00
1281.694, 43538.00
1282.765, 43471.00
1283.836, 43377.00
1284.907, 43329.00
1285.977, 43261.00
1287.048, 43254.00
1288.118, 43141.00
1289.188, 43615.00
1290.258, 43276.00
1291.328, 43649.00
1292.398, 43707.00
1293.467, 43321.00
1294.537, 43339.00
1295.606, 43495.00
1296.675, 43396.00
1297.744, 43463.00
1298.813, 43425.00
1299.882, 43383.00
1300.950, 43597.00
1302.018, 43376.00
1303.086, 43383.00
1304.155, 43503.02
1305.222, 43307.38
1306.290, 43653.00
1307.358, 43520.00
1308.425, 43457.00
1309.492, 43471.38
1310.559, 43487.00
1311.626, 43396.00
1312.693, 43311.00
1313.760, 43544.00
1314.826, 43429.00
1315.893, 43381.00
1316.959, 43271.00
1318.025, 43329.00
1319.091, 43107.00
1320.157, 43489.00
1321.222, 43486.00
1322.288, 43739.00
1323.353, 43411.00
1324.418, 43729.00
1325.483, 43436.00
1326.548, 43314.00
1327.612, 43463.00
1328.677, 43447.00
1329.741, 43321.00
1330.806, 43574.00
1331.870, 43586.00
1332.934, 43261.00
1333.997, 43557.00
1335.061, 43557.00
1336.124, 43655.00
1337.188, 43535.00
1338.251, 43695.00
1339.314, 43452.00
1340.377, 43329.00
1341.439, 43440.00
1342.502, 43246.64
1343.564, 43477.00
1344.627, 43266.00
1345.689, 43390.00
1346.751, 43782.00
1347.813, 43636.00
1348.874, 43238.58
1349.936, 43436.91
1350.997, 43554.12
1352.058, 43594.59
1353.119, 43328.43
1354.180, 43458.21
1355.241, 43429.31
1356.301, 43393.90
1357.362, 43579.41
1358.422, 43357.83
1359.482, 43539.83
1360.542, 43560.72
1361.602, 43655.35
1362.662, 43590.32
1363.721, 43574.59
1364.781, 43718.59
1365.840, 43774.13
1366.899, 43690.71
1367.958, 43790.02
1369.017, 43562.86
1370.075, 43622.16
1371.134, 43805.07
1372.192, 43729.67
1373.250, 43831.88
1374.308, 43609.00
1375.366, 43604.00
1376.424, 43837.00
1377.481, 43504.00
1378.539, 43556.00
1379.596, 43983.00
1380.653, 43499.00
1381.710, 43831.00
1382.767, 43671.00
1383.824, 43697.00
1384.880, 43870.00
1385.937, 43820.00
1386.993, 43919.00
1388.049, 43729.00
1389.105, 43646.00
1390.161, 43610.00
1391.216, 43637.00
1392.272, 43889.00
1393.327, 43716.12
1394.382, 43897.54
1395.437, 43997.85
1396.492, 44021.41
1397.547, 43738.34
1398.601, 43851.23
1399.656, 43805.43
1400.710, 43753.12
1401.764, 43921.73
1402.818, 43683.27
1403.872, 43848.38
1404.925, 43852.38
1405.979, 43930.12
1407.032, 43848.21
1408.085, 43815.61
1409.139, 43942.71
1410.191, 43981.38
1411.244, 43881.09
1412.297, 43963.52
1413.349, 43719.48
1414.402, 43761.93
1415.454, 43927.97
1416.506, 43835.71
1417.558, 43921.06
1418.609, 43938.77
1419.661, 43649.05
1420.712, 43816.00
1421.764, 43828.00
1422.815, 43645.00
1423.866, 43997.00
1424.916, 44229.00
1425.967, 43832.00
1427.018, 43941.00
1428.068, 43718.00
1429.118, 43851.00
1430.168, 43928.00
1431.218, 44061.00
1432.268, 43886.00
1433.318, 44083.00
1434.367, 43866.00
1435.416, 43899.00
1436.465, 43820.00
1437.514, 44206.00
1438.563, 43921.00
1439.612, 44090.00
1440.661, 43948.00
1441.709, 44057.00
1442.757, 44149.00
1443.805, 43937.00
1444.853, 44367.00
1445.901, 43936.00
1446.949, 43878.00
1447.996, 44052.00
1449.044, 44218.00
1450.091, 43967.00
1451.138, 43962.00
1452.185, 44134.00
1453.232, 44211.00
1454.278, 43615.00
1455.325, 44437.00
1456.371, 43960.00
1457.417, 43988.00
1458.463, 44209.00
1459.509, 44419.00
1460.555, 44107.00
1461.601, 43993.00
1462.646, 44229.00
1463.691, 44155.00
1464.737, 43872.00
1465.782, 44032.00
1466.826, 43727.00
1467.871, 44219.00
1468.916, 44006.00
1469.960, 43760.00
1471.004, 43954.00
1472.048, 43840.36
1473.092, 44082.00
1474.136, 43976.00
1475.180, 44020.00
1476.223, 44142.00
1477.267, 44082.59
1478.310, 44022.00
1479.353, 44114.00
1480.396, 44160.00
1481.439, 44219.00
1482.481, 43991.00
1483.524, 44016.00
1484.566, 44039.93
1485.608, 43980.16
1486.650, 44092.00
1487.692, 44025.00
1488.734, 43922.00
1489.775, 43973.00
1490.817, 43864.00
1491.858, 44031.00
1492.899, 44071.00
1493.940, 44177.00
1494.981, 44057.00
1496.022, 44096.00
1497.062, 44075.00
1498.103, 44023.00
1499.143, 44059.00
1500.183, 44074.00
1501.223, 43958.00
1502.263, 44089.00
1503.302, 43982.00
1504.342, 44051.00
1505.381, 44275.00
1506.420, 43954.00
1507.459, 44191.00
1508.498, 43940.00
1509.537, 43934.00
1510.576, 43929.00
1511.614, 44180.00
1512.652, 44070.00
1513.691, 43902.00
1514.729, 44436.00
1515.767, 44109.00
1516.804, 44144.00
1517.842, 44256.00
1518.879, 44323.00
1519.917, 44177.00
1520.954, 44269.00
1521.991, 44166.00
1523.028, 43991.00
1524.064, 44221.00
1525.101, 44461.00
1526.137, 44167.00
1527.173, 43870.00
1528.210, 44184.00
1529.245, 44396.00
1530.281, 44424.00
1531.317, 44291.00
1532.352, 44079.00
1533.388, 44072.00
1534.423, 44214.00
1535.458, 44043.44
1536.493, 44229.58
1537.528, 44334.61
1538.562, 44362.89
1539.597, 44084.54
1540.631, 44202.14
1541.665, 44161.06
1542.700, 44113.48
1543.733, 44286.80
1544.767, 44053.05
1545.801, 44222.88
1546.834, 44231.60
1547.868, 44314.05
1548.901, 44236.85
1549.934, 44208.96
1550.967, 44340.77
1551.999, 44384.16
1553.032, 44288.58
1554.064, 44375.71
1555.097, 44136.39
1556.129, 44183.54
1557.161, 44354.30
1558.193, 44266.74
1559.224, 44356.80
1560.256, 44379.21
1561.287, 44094.20
1562.318, 44366.00
1563.350, 44266.00
##END=



