##NAMES=Riebeckite
##RRUFFID=R050082
##IDEAL CHEMISTRY=[box]Na_2_(Fe^2+^_3_Fe^3+^_2_)Si_8_O_22_(OH)_2_
##LOCALITY=Mt. Malosa, Zomba, Chilwa, Alkaline Area, Malawi
##OWNER=RRUFF
##SOURCE=Rock Currier
##DESCRIPTION=Black elongated prisms
##STATUS=The identification of this mineral has been confirmed by X-ray diffraction and chemical analysis
##URL=rruff.info/R050082
##MEASURED CHEMISTRY=([box]_0.63_Na_0.19_K_0.18_)(Na_1.58_Ca_0.42_)_Σ=2_Fe^2+^_3.00_(Fe^3+^_1.30_Fe^2+^_0.45_Mn_0.15_Mg_0.05_Ti_0.05_)_Σ=2_(Si_0.98_Al_0.02_)_8_O_22_(OH)_2_
##PIN_ID=L00547
##ORIENTATION=Laser parallel to -a* (-1 0 0). Fiducial mark perpendicular to laser is parallel to -b [0 -1 0]
137.4850, 39441.77
138.7200, 39389.53
139.9550, 39742.00
141.1900, 39410.00
142.4250, 39325.00
143.6600, 39798.00
144.8940, 40096.00
146.1280, 39728.00
147.3620, 39016.00
148.5960, 39291.00
149.8300, 39808.00
151.0630, 40409.00
152.2960, 40263.00
153.5300, 40715.00
154.7620, 40757.00
155.9950, 40663.00
157.2280, 40924.00
158.4600, 41514.00
159.6920, 42438.00
160.9250, 43767.00
162.1560, 45514.00
163.3880, 46225.00
164.6200, 46621.00
165.8510, 46280.00
167.0820, 46005.00
168.3130, 46144.00
169.5440, 46288.00
170.7750, 46233.00
172.0050, 45914.00
173.2350, 45779.00
174.4650, 45804.00
175.6950, 44937.00
176.9250, 44946.00
178.1550, 45647.00
179.3840, 46319.00
180.6130, 47787.00
181.8420, 48658.00
183.0710, 49980.00
184.3000, 50917.00
185.5280, 52005.00
186.7570, 53034.00
187.9850, 54206.00
189.2130, 55605.00
190.4400, 56981.00
191.6680, 57533.00
192.8960, 57531.00
194.1230, 56407.00
195.3500, 54810.00
196.5770, 52888.00
197.8030, 50862.00
199.0300, 49882.00
200.2560, 49818.00
201.4830, 48995.00
202.7090, 47072.00
203.9340, 44466.00
205.1600, 42161.00
206.3860, 41038.00
207.6110, 40843.00
208.8360, 40832.00
210.0610, 41203.00
211.2860, 41765.00
212.5100, 42565.00
213.7350, 42722.00
214.9590, 42444.00
216.1830, 42601.00
217.4070, 42099.00
218.6310, 42365.00
219.8540, 42346.00
221.0780, 42910.00
222.3010, 43335.00
223.5240, 43642.00
224.7470, 43704.00
225.9690, 43417.00
227.1920, 42897.00
228.4140, 42152.00
229.6360, 41719.00
230.8580, 41697.00
232.0800, 42107.00
233.3020, 42386.00
234.5230, 43183.00
235.7440, 43709.00
236.9650, 44939.00
238.1860, 45749.00
239.4070, 46303.00
240.6280, 46822.00
241.8480, 47174.00
243.0680, 47858.00
244.2880, 48460.00
245.5080, 48294.00
246.7280, 48399.00
247.9470, 48367.00
249.1660, 47141.00
250.3860, 45529.00
251.6040, 44173.00
252.8230, 42781.00
254.0420, 41151.00
255.2600, 40538.00
256.4790, 39866.07
257.6970, 40024.12
258.9150, 40069.54
260.1320, 40008.48
261.3500, 39521.59
262.5670, 39584.55
263.7840, 39427.18
265.0010, 39260.78
266.2180, 39401.11
267.4350, 39207.00
268.6510, 39475.00
269.8680, 39443.60
271.0840, 39345.00
272.3000, 39336.00
273.5160, 39361.00
274.7310, 39235.00
275.9470, 38968.00
277.1620, 38561.00
278.3770, 38333.00
279.5920, 37935.00
280.8070, 37645.00
282.0210, 37610.00
283.2360, 37263.00
284.4500, 36949.00
285.6640, 36818.00
286.8780, 36985.00
288.0920, 36794.19
289.3050, 37160.00
290.5180, 36843.00
291.7320, 36781.00
292.9450, 37023.00
294.1570, 37003.00
295.3700, 37244.00
296.5830, 37111.00
297.7950, 37331.00
299.0070, 37327.00
300.2190, 37185.00
301.4310, 37893.00
302.6420, 38076.00
303.8540, 37749.00
305.0650, 37363.00
306.2760, 37190.00
307.4870, 37570.00
308.6980, 37954.00
309.9080, 37799.00
311.1190, 37739.00
312.3290, 37917.00
313.5390, 37833.00
314.7490, 38334.00
315.9580, 38587.00
317.1680, 38645.00
318.3770, 39022.00
319.5860, 39518.00
320.7950, 39711.00
322.0040, 39827.00
323.2130, 40493.00
324.4210, 40608.00
325.6290, 40953.00
326.8380, 41200.00
328.0460, 41857.00
329.2530, 41106.00
330.4610, 41158.00
331.6680, 41131.00
332.8760, 41514.00
334.0830, 41060.00
335.2890, 40284.00
336.4960, 40303.00
337.7030, 40050.00
338.9090, 40066.00
340.1150, 39707.00
341.3210, 39976.00
342.5270, 40135.00
343.7330, 40304.00
344.9380, 40647.62
346.1440, 41071.00
347.3490, 41447.00
348.5540, 41961.00
349.7590, 42657.00
350.9630, 43209.00
352.1680, 43582.00
353.3720, 43898.00
354.5760, 44371.00
355.7800, 44587.00
356.9840, 44897.00
358.1870, 45667.00
359.3910, 45818.00
360.5940, 45557.00
361.7970, 45566.00
363.0000, 44942.00
364.2030, 43876.00
365.4050, 43064.00
366.6080, 42284.00
367.8100, 41667.00
369.0120, 41235.00
370.2140, 40517.00
371.4150, 40173.00
372.6170, 40295.00
373.8180, 39914.00
375.0190, 40229.00
376.2200, 40519.00
377.4210, 40184.00
378.6220, 39850.00
379.8220, 39455.00
381.0230, 39565.00
382.2230, 39511.00
383.4230, 39489.00
384.6220, 39581.00
385.8220, 39342.00
387.0220, 39120.00
388.2210, 39143.00
389.4200, 38744.00
390.6190, 39007.00
391.8180, 38516.00
393.0160, 38572.00
394.2150, 38304.00
395.4130, 38517.00
396.6110, 38113.00
397.8090, 38173.00
399.0060, 38115.00
400.2040, 38021.00
401.4010, 37878.00
402.5980, 37770.00
403.7950, 37763.30
404.9920, 37678.31
406.1890, 37816.00
407.3860, 37664.00
408.5820, 37759.00
409.7780, 37873.00
410.9740, 37640.00
412.1700, 38206.00
413.3650, 37839.00
414.5610, 38016.00
415.7560, 37826.00
416.9510, 38044.00
418.1460, 37902.00
419.3410, 38121.00
420.5360, 38105.00
421.7300, 38568.00
422.9240, 38327.00
424.1180, 38590.00
425.3120, 38431.00
426.5060, 38578.00
427.7000, 38827.00
428.8930, 38532.00
430.0860, 38780.27
431.2790, 38852.96
432.4720, 38849.00
433.6650, 39083.00
434.8580, 38931.00
436.0500, 38919.00
437.2420, 38696.83
438.4340, 38941.67
439.6260, 39073.89
440.8180, 39099.55
442.0090, 38699.46
443.2010, 38849.14
444.3920, 38778.50
445.5830, 38698.82
446.7740, 38925.88
447.9640, 38587.73
449.1550, 38809.93
450.3450, 38808.45
451.5350, 38909.35
452.7250, 38788.56
453.9150, 38702.00
455.1050, 38820.00
456.2940, 38900.00
457.4830, 38899.00
458.6720, 39018.00
459.8610, 39429.00
461.0500, 39221.00
462.2390, 39658.00
463.4270, 39767.00
464.6150, 39705.00
465.8040, 39772.00
466.9910, 39903.00
468.1790, 40196.00
469.3670, 39979.00
470.5540, 40097.00
471.7410, 39980.00
472.9280, 39658.00
474.1150, 39669.00
475.3020, 39892.00
476.4890, 39681.00
477.6750, 39500.00
478.8610, 39662.00
480.0470, 39343.00
481.2330, 39592.00
482.4190, 39555.00
483.6040, 39458.00
484.7900, 39718.00
485.9750, 39616.00
487.1600, 39824.00
488.3450, 40357.00
489.5290, 40144.00
490.7140, 40361.00
491.8980, 39883.00
493.0820, 40304.00
494.2660, 40308.00
495.4500, 40511.00
496.6340, 40545.00
497.8170, 40833.00
499.0010, 40917.00
500.1840, 40900.00
501.3670, 41155.00
502.5500, 41266.00
503.7320, 41506.00
504.9150, 41471.00
506.0970, 41386.00
507.2790, 41555.00
508.4610, 41515.00
509.6430, 41667.00
510.8250, 41598.00
512.0060, 41463.00
513.1870, 42055.00
514.3680, 42075.00
515.5490, 42068.00
516.7300, 42289.00
517.9110, 42284.00
519.0910, 42564.00
520.2710, 42941.00
521.4510, 43406.00
522.6310, 43711.00
523.8110, 43881.00
524.9910, 44812.00
526.1700, 45358.00
527.3490, 45521.00
528.5280, 46308.00
529.7070, 46924.00
530.8860, 47764.00
532.0650, 48532.00
533.2430, 49131.00
534.4210, 49542.00
535.5990, 50223.00
536.7770, 50711.00
537.9550, 51203.00
539.1320, 51350.00
540.3100, 51069.00
541.4870, 50972.00
542.6640, 50522.00
543.8410, 49379.00
545.0170, 49171.00
546.1940, 48373.00
547.3700, 47843.00
548.5470, 47468.00
549.7230, 47025.00
550.8980, 46558.00
552.0740, 46364.00
553.2500, 46095.00
554.4250, 45934.34
555.6000, 45957.00
556.7750, 45685.00
557.9500, 45776.00
559.1250, 45532.00
560.2990, 45764.00
561.4730, 45554.00
562.6480, 45666.00
563.8220, 45675.00
564.9950, 45933.00
566.1690, 46191.00
567.3430, 46087.00
568.5160, 46292.00
569.6890, 46436.26
570.8620, 46939.00
572.0350, 46743.00
573.2070, 46879.00
574.3800, 46961.00
575.5520, 46906.00
576.7240, 46897.00
577.8960, 46491.17
579.0680, 45797.00
580.2400, 45459.00
581.4110, 44666.00
582.5830, 43964.00
583.7540, 43253.00
584.9250, 42864.00
586.0950, 42287.00
587.2660, 41887.00
588.4370, 41816.00
589.6070, 41518.00
590.7770, 41159.00
591.9470, 41062.00
593.1170, 40854.00
594.2860, 40779.00
595.4560, 40913.00
596.6250, 40765.00
597.7940, 40621.00
598.9630, 40302.00
600.1320, 40742.00
601.3000, 40373.00
602.4690, 40387.00
603.6370, 40633.00
604.8050, 40441.00
605.9730, 40330.00
607.1410, 40325.00
608.3090, 40233.00
609.4760, 40386.00
610.6430, 40272.00
611.8100, 40440.00
612.9770, 40384.00
614.1440, 40256.00
615.3110, 40607.00
616.4770, 40630.00
617.6430, 40580.00
618.8090, 40434.00
619.9750, 40439.00
621.1410, 40779.00
622.3070, 40418.00
623.4720, 40762.00
624.6370, 40633.09
625.8020, 40738.00
626.9670, 40668.00
628.1320, 40719.30
629.2970, 40794.00
630.4610, 40837.00
631.6250, 40947.00
632.7890, 41015.00
633.9530, 41227.00
635.1170, 41247.00
636.2810, 41196.00
637.4440, 41127.00
638.6070, 41539.00
639.7700, 41555.00
640.9330, 42934.00
642.0960, 42166.00
643.2590, 43194.00
644.4210, 42410.00
645.5830, 42467.00
646.7450, 42861.00
647.9070, 43298.00
649.0690, 43487.00
650.2310, 43715.00
651.3920, 43942.00
652.5530, 44432.00
653.7140, 44793.00
654.8750, 45109.82
656.0360, 45457.00
657.1970, 45530.00
658.3570, 45749.47
659.5170, 45929.00
660.6770, 45829.00
661.8370, 46019.00
662.9970, 45756.00
664.1570, 45738.00
665.3160, 45353.00
666.4750, 44976.00
667.6340, 44571.00
668.7930, 44182.00
669.9520, 44053.00
671.1110, 43490.00
672.2690, 42901.00
673.4270, 42871.00
674.5850, 42199.00
675.7430, 42110.00
676.9010, 41916.00
678.0590, 42092.00
679.2160, 41856.00
680.3730, 41615.00
681.5300, 41689.71
682.6870, 41142.00
683.8440, 41525.00
685.0010, 41718.00
686.1570, 41409.00
687.3130, 41462.00
688.4690, 41756.00
689.6250, 41137.00
690.7810, 41077.00
691.9370, 41176.00
693.0920, 40914.00
694.2470, 41224.00
695.4020, 41015.00
696.5570, 41078.00
697.7120, 40788.00
698.8670, 41023.00
700.0210, 40963.00
701.1750, 40992.00
702.3290, 40853.00
703.4830, 41001.00
704.6370, 40928.00
705.7910, 41037.00
706.9440, 41156.00
708.0970, 41186.00
709.2510, 41189.00
710.4030, 41183.00
711.5560, 41158.00
712.7090, 41119.00
713.8610, 41270.00
715.0140, 41183.00
716.1660, 41015.00
717.3180, 41282.00
718.4690, 41269.00
719.6210, 41413.00
720.7730, 41355.00
721.9240, 41291.00
723.0750, 41244.00
724.2260, 41416.00
725.3770, 41458.00
726.5270, 41720.00
727.6780, 41421.00
728.8280, 41714.00
729.9780, 42119.00
731.1280, 41667.00
732.2780, 41537.00
733.4280, 41839.00
734.5770, 41883.00
735.7260, 41747.00
736.8760, 41501.00
738.0250, 41759.00
739.1730, 41674.00
740.3220, 41732.00
741.4700, 41932.00
742.6190, 42172.00
743.7670, 41926.00
744.9150, 42003.00
746.0630, 42245.00
747.2100, 42389.00
748.3580, 42494.00
749.5050, 42300.00
750.6520, 42303.00
751.7990, 42634.00
752.9460, 42824.00
754.0930, 43030.00
755.2390, 42939.00
756.3860, 43232.00
757.5320, 43283.00
758.6780, 43151.00
759.8240, 43436.00
760.9690, 43339.00
762.1150, 43306.00
763.2600, 42973.00
764.4060, 42882.00
765.5510, 42839.00
766.6950, 42780.00
767.8400, 42462.00
768.9850, 42654.00
770.1290, 42400.00
771.2730, 42607.00
772.4170, 42587.00
773.5610, 42261.00
774.7050, 42044.00
775.8480, 42382.00
776.9920, 42449.00
778.1350, 42380.00
779.2780, 42172.00
780.4210, 42476.00
781.5640, 42260.00
782.7060, 42025.00
783.8490, 42205.00
784.9910, 42233.00
786.1330, 42166.00
787.2750, 42317.00
788.4170, 42347.00
789.5580, 42617.00
790.7000, 42336.00
791.8410, 42256.00
792.9820, 42198.00
794.1230, 42235.99
795.2640, 42509.03
796.4040, 42669.44
797.5450, 42723.30
798.6850, 42351.39
799.8250, 42529.26
800.9650, 42486.80
802.1050, 42435.30
803.2450, 42690.54
804.3840, 42380.54
805.5230, 42630.90
806.6630, 42657.59
807.8020, 42786.64
808.9400, 42693.99
810.0790, 42669.83
811.2170, 42867.41
812.3560, 42578.43
813.4940, 42910.00
814.6320, 42755.00
815.7700, 42580.00
816.9070, 42640.00
818.0450, 42574.16
819.1820, 42620.00
820.3190, 42703.00
821.4560, 42765.00
822.5930, 42799.94
823.7300, 43043.00
824.8670, 42922.00
826.0030, 43027.00
827.1390, 43212.00
828.2750, 42951.00
829.4110, 43198.00
830.5470, 43040.00
831.6820, 43103.00
832.8180, 43144.00
833.9530, 43239.00
835.0880, 43286.00
836.2230, 43433.00
837.3580, 43335.00
838.4920, 43469.00
839.6270, 43760.00
840.7610, 43520.00
841.8950, 43468.00
843.0290, 43467.00
844.1630, 43894.00
845.2960, 43592.00
846.4300, 43741.00
847.5630, 43927.00
848.6960, 43879.00
849.8290, 44151.00
850.9620, 44047.00
852.0940, 44111.00
853.2270, 44252.00
854.3590, 44429.00
855.4910, 44409.00
856.6230, 44615.00
857.7550, 44718.00
858.8870, 44856.94
860.0180, 45018.00
861.1500, 44892.13
862.2810, 45342.81
863.4120, 45680.88
864.5430, 45912.38
865.6730, 45717.96
866.8040, 46073.48
867.9340, 46208.51
869.0640, 46334.50
870.1940, 46767.22
871.3240, 46960.00
872.4540, 47037.00
873.5830, 47221.00
874.7130, 46928.00
875.8420, 47465.00
876.9710, 47129.00
878.1000, 47293.00
879.2290, 47411.00
880.3570, 47280.00
881.4860, 47171.02
882.6140, 47031.96
883.7420, 46682.00
884.8700, 46635.00
885.9980, 46410.00
887.1250, 46281.00
888.2530, 46174.00
889.3800, 45951.00
890.5070, 45844.00
891.6340, 45600.00
892.7610, 45439.00
893.8880, 45265.00
895.0140, 45135.00
896.1400, 44966.00
897.2670, 44953.00
898.3930, 44693.00
899.5180, 44602.00
900.6440, 44559.00
901.7700, 44615.00
902.8950, 44849.00
904.0200, 45328.00
905.1450, 44511.00
906.2700, 44200.00
907.3950, 44519.00
908.5190, 44321.00
909.6440, 44235.00
910.7680, 44190.00
911.8920, 44177.00
913.0160, 44249.55
914.1400, 44176.00
915.2630, 44449.00
916.3870, 44348.00
917.5100, 44373.00
918.6330, 44602.00
919.7560, 44576.00
920.8790, 44695.00
922.0010, 44557.00
923.1240, 44715.00
924.2460, 44559.00
925.3680, 44770.00
926.4900, 44587.00
927.6120, 44675.00
928.7340, 44449.00
929.8550, 44784.00
930.9760, 44854.00
932.0980, 44662.00
933.2190, 44526.00
934.3390, 44676.00
935.4600, 44674.00
936.5810, 44806.00
937.7010, 44851.50
938.8210, 44958.00
939.9410, 44997.00
941.0610, 45040.00
942.1810, 45207.52
943.3010, 44926.00
944.4200, 45276.00
945.5390, 45242.00
946.6580, 45116.00
947.7770, 45267.00
948.8960, 45163.00
950.0150, 45595.00
951.1330, 45633.00
952.2510, 45822.00
953.3690, 45692.00
954.4870, 45889.00
955.6050, 46255.00
956.7230, 46667.00
957.8400, 47123.00
958.9580, 47390.00
960.0750, 47763.00
961.1920, 48393.00
962.3090, 48795.00
963.4250, 49086.00
964.5420, 49413.00
965.6580, 49927.00
966.7740, 50120.00
967.8900, 50245.00
969.0060, 50131.00
970.1220, 50094.00
971.2380, 49666.00
972.3530, 49154.00
973.4680, 48837.00
974.5830, 48261.00
975.6980, 47954.00
976.8130, 47737.00
977.9280, 47291.00
979.0420, 46911.00
980.1560, 46934.00
981.2710, 46837.00
982.3850, 46623.00
983.4980, 46942.00
984.6120, 46611.00
985.7260, 46110.00
986.8390, 46352.00
987.9520, 46423.00
989.0650, 46444.00
990.1780, 46052.00
991.2910, 46191.00
992.4030, 46076.00
993.5160, 46026.00
994.6280, 46055.59
995.7400, 46064.96
996.8520, 46071.00
997.9640, 46057.00
999.0750, 46152.00
1000.187, 46126.04
1001.298, 46083.43
1002.409, 46142.00
1003.520, 45917.00
1004.631, 45913.00
1005.741, 45772.00
1006.852, 45950.00
1007.962, 45909.00
1009.072, 45921.73
1010.182, 46062.00
1011.292, 45862.00
1012.402, 46165.00
1013.511, 45958.00
1014.621, 46097.00
1015.730, 46383.00
1016.839, 46069.00
1017.948, 46215.00
1019.056, 46279.00
1020.165, 46058.00
1021.273, 46128.00
1022.382, 45961.00
1023.490, 46151.00
1024.598, 46434.00
1025.706, 46633.00
1026.813, 46620.00
1027.921, 46774.77
1029.028, 46958.00
1030.135, 46866.00
1031.242, 46957.00
1032.349, 47019.00
1033.456, 47245.00
1034.562, 47111.00
1035.668, 47591.00
1036.775, 47387.00
1037.881, 47103.00
1038.987, 47511.00
1040.092, 47531.00
1041.198, 47431.00
1042.303, 47253.00
1043.408, 47272.37
1044.514, 47232.00
1045.618, 47105.00
1046.723, 47105.00
1047.828, 46813.00
1048.932, 46665.00
1050.037, 46651.00
1051.141, 46818.00
1052.245, 46772.00
1053.349, 46805.87
1054.452, 46864.00
1055.556, 46775.00
1056.659, 46671.00
1057.762, 46587.00
1058.865, 46704.00
1059.968, 46811.00
1061.071, 46896.00
1062.174, 46921.27
1063.276, 46963.98
1064.378, 46960.00
1065.480, 47006.00
1066.582, 47097.00
1067.684, 47181.00
1068.786, 47201.40
1069.887, 47325.00
1070.988, 47284.00
1072.090, 47369.00
1073.191, 47490.00
1074.291, 47566.00
1075.392, 47731.00
1076.493, 47939.00
1077.593, 48052.00
1078.693, 48289.00
1079.793, 48489.00
1080.893, 48506.00
1081.993, 49134.00
1083.092, 48952.00
1084.192, 48644.00
1085.291, 49039.00
1086.390, 48387.00
1087.489, 48065.00
1088.588, 48099.00
1089.686, 47626.00
1090.785, 47734.00
1091.883, 47561.61
1092.981, 47451.00
1094.079, 47399.00
1095.177, 47456.00
1096.275, 47417.00
1097.373, 47147.00
1098.470, 47220.00
1099.567, 47081.00
1100.664, 46804.00
1101.761, 46787.00
1102.858, 46935.00
1103.954, 47146.00
1105.051, 47014.00
1106.147, 46978.00
1107.243, 46606.00
1108.339, 47049.00
1109.435, 47045.00
1110.531, 46666.00
1111.626, 46803.00
1112.722, 46731.00
1113.817, 46843.00
1114.912, 46770.00
1116.007, 46618.00
1117.101, 46741.00
1118.196, 46559.00
1119.290, 46757.00
1120.385, 46555.00
1121.479, 46823.00
1122.573, 46493.00
1123.666, 46465.00
1124.760, 46310.00
1125.853, 46335.00
1126.947, 45944.00
1128.040, 46307.00
1129.133, 46224.00
1130.226, 45736.00
1131.318, 45819.00
1132.411, 45876.00
1133.503, 45765.00
1134.596, 46082.00
1135.688, 45948.00
1136.780, 45373.00
1137.871, 45611.00
1138.963, 45512.00
1140.054, 45390.00
1141.146, 45462.00
1142.237, 45239.00
1143.328, 44894.00
1144.419, 45051.00
1145.509, 44906.00
1146.600, 45189.00
1147.690, 44899.00
1148.780, 44792.00
1149.870, 44678.00
1150.960, 44717.00
1152.050, 44870.00
1153.139, 44829.00
1154.229, 44806.00
1155.318, 44768.00
1156.407, 44616.00
1157.496, 44532.00
1158.585, 44610.00
1159.674, 44472.00
1160.762, 44727.00
1161.850, 44789.00
1162.939, 44492.00
1164.027, 44364.00
1165.114, 44511.00
1166.202, 44177.00
1167.290, 44890.00
1168.377, 44383.00
1169.464, 44597.00
1170.551, 44439.00
1171.638, 44515.00
1172.725, 44553.00
1173.812, 44546.00
1174.898, 44491.00
1175.984, 44545.00
1177.071, 44304.00
1178.157, 44502.00
1179.242, 44542.00
1180.328, 44178.00
1181.414, 44155.00
1182.499, 44073.00
1183.584, 44368.00
1184.669, 44053.00
1185.754, 44194.00
1186.839, 44133.00
1187.924, 44557.00
1189.008, 44381.00
1190.092, 44516.00
1191.177, 44199.00
1192.260, 44301.00
1193.344, 44500.00
1194.428, 44071.00
1195.512, 44285.00
1196.595, 44217.00
1197.678, 44278.00
1198.761, 44208.00
1199.844, 43959.00
1200.927, 44323.00
1202.009, 44052.00
1203.092, 44137.00
1204.174, 44483.00
1205.256, 44276.00
1206.338, 43971.00
1207.420, 44114.00
1208.502, 44202.00
1209.583, 44136.27
1210.665, 44307.45
1211.746, 44173.00
1212.827, 44373.00
1213.908, 44326.00
1214.988, 44030.00
1216.069, 44047.00
1217.149, 44153.00
1218.230, 44101.00
1219.310, 43916.00
1220.390, 44162.00
1221.470, 44071.00
1222.549, 43980.00
1223.629, 44180.00
1224.708, 44103.00
1225.787, 44202.00
1226.866, 44035.00
1227.945, 44033.27
1229.024, 44027.23
1230.103, 44284.71
1231.181, 44429.58
1232.259, 44467.88
1233.337, 44080.43
1234.415, 44242.75
1235.493, 44184.74
1236.571, 44117.70
1237.648, 44357.39
1238.726, 44031.87
1239.803, 44266.70
1240.880, 44277.84
1241.957, 44391.36
1243.034, 44283.20
1244.110, 44243.51
1245.187, 44425.57
1246.263, 44484.85
1247.339, 44351.17
1248.415, 44471.20
1249.491, 44137.93
1250.566, 44202.43
1251.642, 44438.55
1252.717, 44064.00
1253.793, 44420.00
1254.868, 44169.00
1255.943, 44480.00
1257.017, 44430.27
1258.092, 44448.00
1259.166, 44385.00
1260.241, 44140.00
1261.315, 44081.00
1262.389, 44365.00
1263.462, 43959.00
1264.536, 43991.00
1265.610, 44346.00
1266.683, 43985.00
1267.756, 44149.00
1268.829, 44181.00
1269.902, 44267.00
1270.975, 44124.00
1272.048, 43944.00
1273.120, 44027.00
1274.192, 44186.00
1275.264, 44382.00
1276.336, 44335.00
1277.408, 44389.00
1278.480, 44366.00
1279.551, 44232.00
1280.623, 44310.00
1281.694, 44089.00
1282.765, 44240.00
1283.836, 44296.00
1284.907, 44066.00
1285.977, 44162.00
1287.048, 44217.00
1288.118, 44309.72
1289.188, 44257.00
1290.258, 44495.00
1291.328, 44544.00
1292.398, 44226.00
1293.467, 44393.00
1294.537, 44305.00
1295.606, 44363.00
1296.675, 44571.00
1297.744, 44316.00
1298.813, 44348.00
1299.882, 44301.00
1300.950, 44127.00
1302.018, 44366.00
1303.086, 44296.00
1304.155, 44567.00
1305.222, 44429.00
1306.290, 44420.00
1307.358, 44225.00
1308.425, 44410.00
1309.492, 44276.00
1310.559, 44590.00
1311.626, 44456.00
1312.693, 44353.00
1313.760, 44481.00
1314.826, 44710.00
1315.893, 44186.00
1316.959, 44576.00
1318.025, 44413.00
1319.091, 44678.00
1320.157, 44392.00
1321.222, 44325.00
1322.288, 44426.00
1323.353, 44732.00
1324.418, 44664.00
1325.483, 44390.00
1326.548, 44407.00
1327.612, 44235.00
1328.677, 44793.00
1329.741, 44593.00
1330.806, 44474.00
1331.870, 44614.00
1332.934, 44338.00
1333.997, 44286.00
1335.061, 44391.00
1336.124, 44393.00
1337.188, 44549.00
1338.251, 44557.00
1339.314, 44523.00
1340.377, 44463.00
1341.439, 44653.00
1342.502, 44373.00
1343.564, 44486.00
1344.627, 44423.00
1345.689, 44589.00
1346.751, 44335.00
1347.813, 44317.00
1348.874, 44589.00
1349.936, 44409.00
1350.997, 44539.00
1352.058, 44388.00
1353.119, 44094.18
1354.180, 44482.08
1355.241, 44701.04
1356.301, 44760.15
1357.362, 44180.64
1358.422, 44425.78
1359.482, 44340.44
1360.542, 44241.54
1361.602, 44602.74
1362.662, 44116.12
1363.721, 44470.02
1364.781, 44488.41
1365.840, 44660.34
1366.899, 44499.77
1367.958, 44441.89
1369.017, 44716.64
1370.075, 44807.21
1371.134, 44608.35
1372.192, 44790.05
1373.250, 44291.81
1374.308, 44390.23
1375.366, 44746.07
1376.424, 44563.93
1377.481, 44751.71
1378.539, 44798.60
1379.596, 44205.22
1380.653, 44725.34
1381.710, 44763.90
1382.767, 44308.02
1383.824, 44789.98
1384.880, 44402.26
1385.937, 44324.96
1386.993, 44481.28
1388.049, 44394.06
1389.105, 44690.80
1390.161, 44617.65
1391.216, 44511.45
1392.272, 44549.47
1393.327, 44178.80
1394.382, 44566.33
1395.437, 44435.95
1396.492, 44563.01
1397.547, 44748.43
1398.601, 44487.03
1399.656, 44698.66
1400.710, 44636.00
1401.764, 44646.00
1402.818, 44670.00
1403.872, 44521.00
1404.925, 44566.59
1405.979, 44521.00
1407.032, 44470.00
1408.085, 44589.00
1409.139, 44392.00
1410.191, 44238.00
1411.244, 44663.00
1412.297, 44733.00
1413.349, 44578.00
1414.402, 44755.18
1415.454, 44554.00
1416.506, 44613.00
1417.558, 44462.00
1418.609, 44121.00
1419.661, 44722.00
1420.712, 45197.00
1421.764, 44359.00
1422.815, 44475.00
1423.866, 44857.00
1424.916, 44523.00
1425.967, 44424.00
1427.018, 44575.00
1428.068, 44408.00
1429.118, 44634.00
1430.168, 44455.00
1431.218, 44341.00
1432.268, 44668.00
1433.318, 44872.00
1434.367, 44594.00
1435.416, 45210.00
1436.465, 44611.00
1437.514, 44807.00
1438.563, 44807.00
1439.612, 44674.00
1440.661, 44655.00
1441.709, 44691.00
1442.757, 44699.00
1443.805, 44771.00
1444.853, 44840.00
1445.901, 44867.00
1446.949, 44740.00
1447.996, 44542.00
1449.044, 44592.00
1450.091, 44622.00
1451.138, 44735.00
1452.185, 44904.00
1453.232, 44936.00
1454.278, 44805.00
1455.325, 44870.93
1456.371, 45259.00
1457.417, 44732.00
1458.463, 44716.15
1459.509, 45100.36
1460.555, 45315.64
1461.601, 45371.07
1462.646, 44787.89
1463.691, 45029.35
1464.737, 44940.32
1465.782, 44837.75
1466.826, 45195.28
1467.871, 44704.98
1468.916, 45055.21
1469.960, 45069.91
1471.004, 45238.18
1472.048, 45073.93
1473.092, 45012.38
1474.136, 45283.46
1475.180, 45370.36
1476.223, 45167.82
1477.267, 45345.86
1478.310, 44843.94
1479.353, 44938.69
1480.396, 45290.87
1481.439, 45105.05
1482.481, 45289.16
1483.524, 45332.39
1484.566, 44735.34
1485.608, 45251.79
1486.650, 45286.69
1487.692, 44827.14
1488.734, 45305.44
1489.775, 44673.00
1490.817, 44927.00
1491.858, 44665.00
1492.899, 44986.00
1493.940, 44810.00
1494.981, 45115.00
1496.022, 44861.00
1497.062, 44801.00
1498.103, 44985.00
1499.143, 44596.00
1500.183, 44990.00
1501.223, 44757.00
1502.263, 45143.00
1503.302, 44895.00
1504.342, 45073.00
1505.381, 44938.00
1506.420, 45043.00
1507.459, 45051.00
1508.498, 45135.00
1509.537, 44807.00
1510.576, 44945.00
1511.614, 44904.00
1512.652, 44831.00
1513.691, 44941.00
1514.729, 45077.00
1515.767, 44984.00
1516.804, 44921.00
1517.842, 44878.00
1518.879, 44894.00
1519.917, 45009.00
1520.954, 44941.00
1521.991, 45090.86
1523.028, 45121.00
1524.064, 45215.00
1525.101, 45100.00
1526.137, 44896.00
1527.173, 44840.00
1528.210, 44900.00
1529.245, 44849.56
1530.281, 44774.00
1531.317, 44881.00
1532.352, 45103.00
1533.388, 44678.72
1534.423, 45072.76
1535.458, 45297.87
1536.493, 45363.12
1537.528, 44789.77
1538.562, 45041.04
1539.597, 44961.84
1540.631, 44869.09
1541.665, 45236.43
1542.700, 44755.95
1543.733, 45115.98
1544.767, 45140.50
1545.801, 45318.59
1546.834, 45164.14
1547.868, 45112.40
1548.901, 45393.29
1549.934, 45489.99
1550.967, 45297.27
1551.999, 45485.09
1553.032, 44992.98
1554.064, 45097.52
1555.097, 45459.50
1556.129, 45283.49
1557.161, 45477.39
1558.193, 45530.41
1559.224, 44943.15
1560.256, 45469.39
1561.287, 45514.08
1562.318, 45064.32
##END=



