##NAMES=Riebeckite
##RRUFFID=R050082
##IDEAL CHEMISTRY=[box]Na_2_(Fe^2+^_3_Fe^3+^_2_)Si_8_O_22_(OH)_2_
##LOCALITY=Mt. Malosa, Zomba, Chilwa, Alkaline Area, Malawi
##OWNER=RRUFF
##SOURCE=Rock Currier
##DESCRIPTION=Black elongated prisms
##STATUS=The identification of this mineral has been confirmed by X-ray diffraction and chemical analysis
##URL=rruff.info/R050082
##MEASURED CHEMISTRY=([box]_0.63_Na_0.19_K_0.18_)(Na_1.58_Ca_0.42_)_Σ=2_Fe^2+^_3.00_(Fe^3+^_1.30_Fe^2+^_0.45_Mn_0.15_Mg_0.05_Ti_0.05_)_Σ=2_(Si_0.98_Al_0.02_)_8_O_22_(OH)_2_
##PIN_ID=L00434
##ORIENTATION=Laser parallel to b* (0 1 0). Fiducial mark perpendicular to laser is parallel to c [0 0 1]
123.8850, 18023.00
125.1230, 17870.00
126.3600, 18777.00
127.5960, 19706.00
128.8330, 20972.00
130.0700, 22271.00
131.3060, 24039.00
132.5420, 26188.00
133.7780, 29760.00
135.0140, 33851.00
136.2500, 38188.00
137.4850, 42192.00
138.7200, 44764.00
139.9550, 44427.00
141.1900, 42027.00
142.4250, 39187.00
143.6600, 36196.00
144.8940, 32710.00
146.1280, 30666.00
147.3620, 28671.00
148.5960, 26972.00
149.8300, 25986.00
151.0630, 25335.00
152.2960, 24743.00
153.5300, 24089.00
154.7620, 24116.00
155.9950, 23808.00
157.2280, 23954.00
158.4600, 24213.00
159.6920, 24827.79
160.9250, 25491.00
162.1560, 26350.00
163.3880, 27000.00
164.6200, 27288.00
165.8510, 27488.00
167.0820, 27290.00
168.3130, 27539.00
169.5440, 26916.00
170.7750, 26657.00
172.0050, 26053.00
173.2350, 25426.00
174.4650, 25178.00
175.6950, 24866.00
176.9250, 25022.00
178.1550, 24663.00
179.3840, 24721.00
180.6130, 24621.00
181.8420, 24702.00
183.0710, 25046.00
184.3000, 25601.00
185.5280, 26058.00
186.7570, 26524.00
187.9850, 27516.00
189.2130, 27907.00
190.4400, 28729.00
191.6680, 29200.00
192.8960, 29795.00
194.1230, 29892.00
195.3500, 30058.00
196.5770, 30228.00
197.8030, 30589.00
199.0300, 30751.00
200.2560, 31490.00
201.4830, 32111.00
202.7090, 32390.00
203.9340, 32339.00
205.1600, 32466.00
206.3860, 33484.00
207.6110, 34762.00
208.8360, 36131.00
210.0610, 37164.00
211.2860, 38150.00
212.5100, 38832.00
213.7350, 39161.00
214.9590, 38670.00
216.1830, 38659.00
217.4070, 37709.00
218.6310, 37173.00
219.8540, 36441.00
221.0780, 36048.00
222.3010, 35803.00
223.5240, 35568.00
224.7470, 35877.00
225.9690, 35966.00
227.1920, 35917.00
228.4140, 36490.00
229.6360, 36531.00
230.8580, 36536.00
232.0800, 36548.00
233.3020, 36083.00
234.5230, 35409.00
235.7440, 34320.00
236.9650, 33515.00
238.1860, 32416.00
239.4070, 31188.00
240.6280, 30067.00
241.8480, 28982.00
243.0680, 27761.00
244.2880, 26872.00
245.5080, 25924.00
246.7280, 25485.00
247.9470, 24854.00
249.1660, 24309.00
250.3860, 23809.00
251.6040, 23678.00
252.8230, 23442.00
254.0420, 23446.00
255.2600, 23369.00
256.4790, 23241.00
257.6970, 24223.00
258.9150, 23847.59
260.1320, 23885.50
261.3500, 23791.00
262.5670, 23588.00
263.7840, 23478.00
265.0010, 23617.00
266.2180, 23551.00
267.4350, 23918.00
268.6510, 23841.00
269.8680, 23477.00
271.0840, 23426.00
272.3000, 24245.00
273.5160, 23041.00
274.7310, 22749.00
275.9470, 22782.00
277.1620, 23817.00
278.3770, 22916.46
279.5920, 22422.00
280.8070, 21981.00
282.0210, 21715.00
283.2360, 21578.00
284.4500, 21416.00
285.6640, 21448.00
286.8780, 21371.29
288.0920, 21240.00
289.3050, 21399.00
290.5180, 21507.00
291.7320, 21600.00
292.9450, 21894.00
294.1570, 21940.00
295.3700, 22167.00
296.5830, 22607.00
297.7950, 23612.00
299.0070, 24587.00
300.2190, 23615.00
301.4310, 23369.00
302.6420, 23633.00
303.8540, 24163.00
305.0650, 24518.00
306.2760, 24593.00
307.4870, 25257.00
308.6980, 25162.00
309.9080, 25403.00
311.1190, 25532.00
312.3290, 25800.00
313.5390, 25783.00
314.7490, 25762.00
315.9580, 25616.00
317.1680, 25549.00
318.3770, 25112.00
319.5860, 25005.00
320.7950, 24730.00
322.0040, 24622.00
323.2130, 23927.00
324.4210, 23663.00
325.6290, 23153.00
326.8380, 22753.00
328.0460, 22293.00
329.2530, 22045.00
330.4610, 21631.00
331.6680, 21384.00
332.8760, 21156.00
334.0830, 20733.00
335.2890, 20631.00
336.4960, 20324.00
337.7030, 20282.00
338.9090, 20246.00
340.1150, 19817.00
341.3210, 19817.00
342.5270, 19848.00
343.7330, 19822.00
344.9380, 19818.00
346.1440, 19991.00
347.3490, 19638.00
348.5540, 19833.00
349.7590, 19834.80
350.9630, 20263.00
352.1680, 19901.00
353.3720, 20056.00
354.5760, 19920.00
355.7800, 20112.00
356.9840, 19973.00
358.1870, 20159.00
359.3910, 20227.00
360.5940, 20185.00
361.7970, 20155.00
363.0000, 20146.00
364.2030, 20408.00
365.4050, 20276.00
366.6080, 20179.00
367.8100, 20332.00
369.0120, 20111.00
370.2140, 20107.00
371.4150, 20065.00
372.6170, 19922.00
373.8180, 19901.00
375.0190, 19692.00
376.2200, 19648.00
377.4210, 19459.00
378.6220, 19326.00
379.8220, 19263.14
381.0230, 19186.44
382.2230, 19154.00
383.4230, 19118.00
384.6220, 19152.00
385.8220, 19083.00
387.0220, 19031.00
388.2210, 19151.00
389.4200, 19029.00
390.6190, 18703.00
391.8180, 18611.00
393.0160, 18711.00
394.2150, 18444.00
395.4130, 18505.00
396.6110, 18277.00
397.8090, 18066.00
399.0060, 18296.00
400.2040, 18565.00
401.4010, 18308.00
402.5980, 18249.00
403.7950, 17491.00
404.9920, 17360.00
406.1890, 17659.00
407.3860, 17598.00
408.5820, 17591.00
409.7780, 17719.93
410.9740, 17833.00
412.1700, 17843.00
413.3650, 17940.00
414.5610, 18042.00
415.7560, 18343.00
416.9510, 18451.00
418.1460, 18663.00
419.3410, 19069.00
420.5360, 19243.00
421.7300, 19597.00
422.9240, 20114.00
424.1180, 20343.00
425.3120, 20888.00
426.5060, 21041.00
427.7000, 21102.00
428.8930, 21033.00
430.0860, 21146.00
431.2790, 20688.00
432.4720, 20271.00
433.6650, 20204.00
434.8580, 19842.00
436.0500, 19540.00
437.2420, 19387.00
438.4340, 19171.00
439.6260, 19090.00
440.8180, 19101.00
442.0090, 18831.00
443.2010, 18632.00
444.3920, 18646.41
445.5830, 18639.00
446.7740, 18571.00
447.9640, 18549.58
449.1550, 18344.00
450.3450, 18433.00
451.5350, 18338.00
452.7250, 18253.00
453.9150, 18434.00
455.1050, 18311.00
456.2940, 18219.00
457.4830, 18474.00
458.6720, 18271.00
459.8610, 18242.00
461.0500, 18239.00
462.2390, 18313.00
463.4270, 18195.00
464.6150, 18197.00
465.8040, 18228.00
466.9910, 18117.00
468.1790, 18252.00
469.3670, 18180.00
470.5540, 18329.00
471.7410, 18124.00
472.9280, 18522.00
474.1150, 18446.00
475.3020, 18143.00
476.4890, 18585.00
477.6750, 18526.00
478.8610, 18785.00
480.0470, 18598.00
481.2330, 18882.00
482.4190, 18785.00
483.6040, 18869.00
484.7900, 19112.00
485.9750, 19233.00
487.1600, 19172.00
488.3450, 19664.00
489.5290, 19551.00
490.7140, 19424.00
491.8980, 19741.00
493.0820, 19888.00
494.2660, 20045.00
495.4500, 20207.00
496.6340, 20383.00
497.8170, 20422.00
499.0010, 20569.00
500.1840, 20796.00
501.3670, 20805.00
502.5500, 21014.00
503.7320, 21056.00
504.9150, 21192.00
506.0970, 21262.88
507.2790, 21192.00
508.4610, 21341.00
509.6430, 21400.00
510.8250, 21376.96
512.0060, 21566.00
513.1870, 21586.49
514.3680, 21577.00
515.5490, 21777.00
516.7300, 21856.00
517.9110, 22029.00
519.0910, 22405.00
520.2710, 22592.00
521.4510, 22852.00
522.6310, 23080.00
523.8110, 23717.00
524.9910, 24092.00
526.1700, 24645.00
527.3490, 25363.00
528.5280, 26033.00
529.7070, 26486.54
530.8860, 27029.00
532.0650, 27397.00
533.2430, 27780.00
534.4210, 28220.00
535.5990, 28222.05
536.7770, 28374.00
537.9550, 28105.00
539.1320, 27661.00
540.3100, 27402.00
541.4870, 26734.00
542.6640, 26105.00
543.8410, 25746.00
545.0170, 25266.00
546.1940, 24674.00
547.3700, 24320.00
548.5470, 23810.00
549.7230, 23570.00
550.8980, 23408.00
552.0740, 23107.00
553.2500, 22994.00
554.4250, 22912.00
555.6000, 22855.00
556.7750, 22874.24
557.9500, 22931.00
559.1250, 23085.64
560.2990, 23361.90
561.4730, 23718.00
562.6480, 24215.00
563.8220, 24553.00
564.9950, 25150.00
566.1690, 25442.00
567.3430, 25609.00
568.5160, 25353.84
569.6890, 24756.00
570.8620, 24189.00
572.0350, 23218.00
573.2070, 22122.00
574.3800, 21482.00
575.5520, 20825.00
576.7240, 20071.00
577.8960, 19524.00
579.0680, 19215.00
580.2400, 18816.00
581.4110, 18366.00
582.5830, 18292.00
583.7540, 17984.00
584.9250, 17839.00
586.0950, 17741.00
587.2660, 17527.00
588.4370, 17558.00
589.6070, 17539.00
590.7770, 17302.00
591.9470, 17283.00
593.1170, 17228.00
594.2860, 17437.00
595.4560, 17510.00
596.6250, 17375.00
597.7940, 17369.00
598.9630, 17385.00
600.1320, 17518.00
601.3000, 17509.00
602.4690, 17525.07
603.6370, 17296.00
604.8050, 17502.00
605.9730, 17423.00
607.1410, 17409.00
608.3090, 17677.00
609.4760, 17938.00
610.6430, 17574.00
611.8100, 17798.00
612.9770, 17801.00
614.1440, 17774.00
615.3110, 17911.00
616.4770, 18094.00
617.6430, 18099.00
618.8090, 18388.00
619.9750, 18182.00
621.1410, 18421.00
622.3070, 18491.00
623.4720, 18631.00
624.6370, 19075.00
625.8020, 19084.00
626.9670, 19223.00
628.1320, 19649.00
629.2970, 19747.00
630.4610, 19943.00
631.6250, 20350.00
632.7890, 20515.00
633.9530, 20759.00
635.1170, 21233.00
636.2810, 21644.00
637.4440, 22304.00
638.6070, 22693.04
639.7700, 23690.00
640.9330, 23735.00
642.0960, 24379.00
643.2590, 25188.00
644.4210, 26337.00
645.5830, 27316.00
646.7450, 28617.00
647.9070, 30130.00
649.0690, 32026.00
650.2310, 34025.01
651.3920, 36199.00
652.5530, 38787.00
653.7140, 41323.00
654.8750, 44189.00
656.0360, 47594.00
657.1970, 51178.00
658.3570, 54727.00
659.5170, 58194.00
660.6770, 61185.00
661.8370, 63680.00
662.9970, 64848.00
664.1570, 65535.00
665.3160, 65077.00
666.4750, 63458.00
667.6340, 60379.00
668.7930, 56556.00
669.9520, 51655.00
671.1110, 47455.00
672.2690, 42812.00
673.4270, 38875.00
674.5850, 35349.00
675.7430, 32217.00
676.9010, 30126.00
678.0590, 28107.00
679.2160, 26635.00
680.3730, 25246.00
681.5300, 24284.00
682.6870, 23415.00
683.8440, 22856.00
685.0010, 22120.00
686.1570, 21639.00
687.3130, 21448.00
688.4690, 21166.00
689.6250, 20703.00
690.7810, 20330.00
691.9370, 20254.00
693.0920, 20182.00
694.2470, 19796.00
695.4020, 19898.00
696.5570, 19809.00
697.7120, 19651.00
698.8670, 19590.00
700.0210, 19285.00
701.1750, 19342.00
702.3290, 19207.00
703.4830, 19257.00
704.6370, 19220.00
705.7910, 19157.00
706.9440, 19049.00
708.0970, 18970.00
709.2510, 18873.00
710.4030, 18947.00
711.5560, 18843.00
712.7090, 18894.00
713.8610, 18730.00
715.0140, 18825.00
716.1660, 18799.00
717.3180, 18784.00
718.4690, 18549.00
719.6210, 18681.00
720.7730, 18485.00
721.9240, 18410.00
723.0750, 18350.00
724.2260, 18327.00
725.3770, 18267.00
726.5270, 18182.00
727.6780, 18238.00
728.8280, 18166.00
729.9780, 18208.04
731.1280, 18096.00
732.2780, 18279.00
733.4280, 18183.00
734.5770, 18187.98
735.7260, 18108.12
736.8760, 17981.00
738.0250, 17824.00
739.1730, 17726.00
740.3220, 17550.00
741.4700, 17504.00
742.6190, 17455.00
743.7670, 17645.00
744.9150, 17501.00
746.0630, 17672.00
747.2100, 17382.00
748.3580, 17437.00
749.5050, 17283.00
750.6520, 17366.41
751.7990, 17395.60
752.9460, 17525.00
754.0930, 17508.00
755.2390, 17381.00
756.3860, 17359.00
757.5320, 17358.00
758.6780, 17494.00
759.8240, 17415.00
760.9690, 17310.00
762.1150, 17493.00
763.2600, 17458.75
764.4060, 17514.45
765.5510, 17596.00
766.6950, 17568.00
767.8400, 17611.00
768.9850, 17515.00
770.1290, 17409.00
771.2730, 17405.00
772.4170, 17323.48
773.5610, 17350.00
774.7050, 17251.00
775.8480, 17266.00
776.9920, 17268.00
778.1350, 17265.00
779.2780, 17235.29
780.4210, 17193.00
781.5640, 17147.00
782.7060, 17147.00
783.8490, 17088.00
784.9910, 17202.00
786.1330, 17168.00
787.2750, 17113.00
788.4170, 17101.00
789.5580, 16904.00
790.7000, 17171.00
791.8410, 16958.00
792.9820, 17277.00
794.1230, 17033.00
795.2640, 17345.00
796.4040, 17353.00
797.5450, 17391.00
798.6850, 17399.00
799.8250, 17371.00
800.9650, 17301.00
802.1050, 17306.00
803.2450, 17260.00
804.3840, 17189.00
805.5230, 17250.00
806.6630, 16958.00
807.8020, 17091.00
808.9400, 16830.00
810.0790, 16907.00
811.2170, 16926.00
812.3560, 16822.00
813.4940, 16778.00
814.6320, 16712.00
815.7700, 16757.00
816.9070, 16698.87
818.0450, 16720.00
819.1820, 16660.00
820.3190, 16726.00
821.4560, 16731.00
822.5930, 16769.00
823.7300, 16649.00
824.8670, 16680.93
826.0030, 16714.35
827.1390, 16642.00
828.2750, 16804.00
829.4110, 16786.00
830.5470, 16775.00
831.6820, 16719.00
832.8180, 16794.00
833.9530, 16826.00
835.0880, 16717.00
836.2230, 16826.00
837.3580, 16791.00
838.4920, 16848.00
839.6270, 16794.00
840.7610, 16811.00
841.8950, 16920.00
843.0290, 16854.00
844.1630, 16881.00
845.2960, 16947.00
846.4300, 16916.00
847.5630, 16967.00
848.6960, 16849.00
849.8290, 17033.00
850.9620, 17126.00
852.0940, 16904.00
853.2270, 17057.00
854.3590, 17123.00
855.4910, 17320.00
856.6230, 17280.00
857.7550, 17417.00
858.8870, 17362.00
860.0180, 17517.00
861.1500, 17497.00
862.2810, 17432.00
863.4120, 17678.00
864.5430, 17791.00
865.6730, 17706.00
866.8040, 17953.00
867.9340, 17864.00
869.0640, 17856.00
870.1940, 17717.00
871.3240, 17830.00
872.4540, 18028.00
873.5830, 18102.00
874.7130, 18073.00
875.8420, 18076.00
876.9710, 18042.00
878.1000, 18228.00
879.2290, 18274.00
880.3570, 18335.00
881.4860, 18236.00
882.6140, 18215.00
883.7420, 18282.71
884.8700, 18258.00
885.9980, 18429.00
887.1250, 18401.00
888.2530, 18504.00
889.3800, 18674.00
890.5070, 18570.00
891.6340, 18842.00
892.7610, 18729.00
893.8880, 18847.00
895.0140, 18817.00
896.1400, 18881.00
897.2670, 18799.00
898.3930, 19058.00
899.5180, 19076.00
900.6440, 19259.00
901.7700, 19288.00
902.8950, 19408.00
904.0200, 19407.00
905.1450, 19570.00
906.2700, 19735.00
907.3950, 19969.00
908.5190, 20034.00
909.6440, 20203.43
910.7680, 20292.36
911.8920, 20387.00
913.0160, 20443.00
914.1400, 20593.13
915.2630, 20706.21
916.3870, 20850.00
917.5100, 20965.00
918.6330, 21021.00
919.7560, 21088.00
920.8790, 21172.00
922.0010, 21195.00
923.1240, 21223.00
924.2460, 21268.00
925.3680, 21307.00
926.4900, 21338.00
927.6120, 21389.00
928.7340, 21400.55
929.8550, 21449.96
930.9760, 21433.00
932.0980, 21369.00
933.2190, 21388.89
934.3390, 21311.00
935.4600, 21475.00
936.5810, 21642.00
937.7010, 21743.00
938.8210, 21698.00
939.9410, 21754.00
941.0610, 21978.00
942.1810, 21997.00
943.3010, 22182.00
944.4200, 22372.00
945.5390, 22325.00
946.6580, 22469.00
947.7770, 22569.36
948.8960, 22746.00
950.0150, 22891.00
951.1330, 23055.00
952.2510, 23435.00
953.3690, 23481.00
954.4870, 23602.00
955.6050, 23876.00
956.7230, 23895.00
957.8400, 24000.53
958.9580, 23945.00
960.0750, 24182.00
961.1920, 24171.00
962.3090, 24471.00
963.4250, 24473.00
964.5420, 24244.00
965.6580, 24391.00
966.7740, 24292.00
967.8900, 24388.00
969.0060, 24006.00
970.1220, 24005.00
971.2380, 23901.00
972.3530, 23925.00
973.4680, 23758.00
974.5830, 23814.00
975.6980, 23482.00
976.8130, 23343.00
977.9280, 23123.00
979.0420, 22975.00
980.1560, 22945.00
981.2710, 22884.00
982.3850, 22759.54
983.4980, 22570.00
984.6120, 22573.00
985.7260, 22487.00
986.8390, 22461.00
987.9520, 22386.00
989.0650, 22532.00
990.1780, 22297.00
991.2910, 22198.00
992.4030, 22242.00
993.5160, 22422.00
994.6280, 22367.00
995.7400, 22090.00
996.8520, 22484.00
997.9640, 22222.00
999.0750, 22234.00
1000.187, 22316.00
1001.298, 22478.00
1002.409, 22547.00
1003.520, 22561.00
1004.631, 22556.00
1005.741, 22672.00
1006.852, 22692.00
1007.962, 22773.00
1009.072, 23030.00
1010.182, 23039.00
1011.292, 23036.00
1012.402, 23109.00
1013.511, 23406.00
1014.621, 23344.00
1015.730, 23700.00
1016.839, 23872.00
1017.948, 24098.00
1019.056, 24113.00
1020.165, 24662.00
1021.273, 25094.00
1022.382, 25159.00
1023.490, 25520.00
1024.598, 25895.00
1025.706, 26105.00
1026.813, 26407.00
1027.921, 26926.00
1029.028, 27444.00
1030.135, 27768.65
1031.242, 28120.00
1032.349, 28485.00
1033.456, 28669.00
1034.562, 28952.00
1035.668, 29177.25
1036.775, 29374.00
1037.881, 29517.00
1038.987, 29501.00
1040.092, 29494.00
1041.198, 29571.00
1042.303, 29425.00
1043.408, 29381.00
1044.514, 29276.09
1045.618, 28957.00
1046.723, 28898.00
1047.828, 28691.00
1048.932, 28270.00
1050.037, 28267.00
1051.141, 27982.00
1052.245, 27990.00
1053.349, 27935.00
1054.452, 27808.00
1055.556, 27696.00
1056.659, 27608.00
1057.762, 27553.36
1058.865, 27693.00
1059.968, 27475.00
1061.071, 27507.00
1062.174, 27449.00
1063.276, 27287.00
1064.378, 27158.00
1065.480, 27099.00
1066.582, 26986.00
1067.684, 26974.00
1068.786, 26803.00
1069.887, 26782.00
1070.988, 26713.00
1072.090, 26444.00
1073.191, 26358.00
1074.291, 26117.00
1075.392, 25959.00
1076.493, 25921.00
1077.593, 25531.00
1078.693, 25504.00
1079.793, 25128.00
1080.893, 24927.00
1081.993, 24538.00
1083.092, 24235.00
1084.192, 23885.00
1085.291, 23672.00
1086.390, 23144.00
1087.489, 22935.00
1088.588, 22667.00
1089.686, 22496.00
1090.785, 22285.00
1091.883, 22111.00
1092.981, 21866.00
1094.079, 21723.00
1095.177, 21522.00
1096.275, 21387.00
1097.373, 21205.00
1098.470, 21277.00
1099.567, 21045.00
1100.664, 21189.00
1101.761, 20918.00
1102.858, 20933.00
1103.954, 20921.00
1105.051, 20894.39
1106.147, 20915.00
1107.243, 20830.00
1108.339, 20908.00
1109.435, 20511.00
1110.531, 20798.00
1111.626, 20590.00
1112.722, 20611.00
1113.817, 20651.00
1114.912, 20691.00
1116.007, 20484.00
1117.101, 20526.00
1118.196, 20457.00
1119.290, 20423.00
1120.385, 20483.00
1121.479, 20284.00
1122.573, 20316.00
1123.666, 20243.00
1124.760, 20081.00
1125.853, 19983.00
1126.947, 19789.00
1128.040, 19673.00
1129.133, 19574.00
1130.226, 19576.00
1131.318, 19278.00
1132.411, 18987.00
1133.503, 19196.00
1134.596, 18903.00
1135.688, 18901.00
1136.780, 18710.00
1137.871, 18769.00
1138.963, 18665.00
1140.054, 18405.00
1141.146, 18351.00
1142.237, 18155.00
1143.328, 18149.00
1144.419, 17963.03
1145.509, 17766.00
1146.600, 17665.00
1147.690, 17534.00
1148.780, 17442.00
1149.870, 17454.00
1150.960, 17324.00
1152.050, 17477.00
1153.139, 17045.00
1154.229, 17029.00
1155.318, 17118.00
1156.407, 17095.00
1157.496, 17193.00
1158.585, 17057.00
1159.674, 17085.00
1160.762, 17112.00
1161.850, 16874.00
1162.939, 16879.00
1164.027, 16838.00
1165.114, 17016.00
1166.202, 16672.00
1167.290, 16968.00
1168.377, 16879.00
1169.464, 16909.00
1170.551, 16924.00
1171.638, 16976.00
1172.725, 16898.00
1173.812, 16894.00
1174.898, 16897.70
1175.984, 16856.00
1177.071, 16893.00
1178.157, 16930.00
1179.242, 16929.00
1180.328, 16839.00
1181.414, 16932.00
1182.499, 16845.00
1183.584, 16889.00
1184.669, 16856.00
1185.754, 16756.00
1186.839, 16851.00
1187.924, 16798.00
1189.008, 16764.00
1190.092, 16710.00
1191.177, 16750.00
1192.260, 16840.00
1193.344, 16938.00
1194.428, 16789.00
1195.512, 16591.00
1196.595, 16685.00
1197.678, 16578.00
1198.761, 16739.00
1199.844, 17042.00
1200.927, 16849.42
1202.009, 16912.52
1203.092, 16726.00
1204.174, 16681.00
1205.256, 16768.00
1206.338, 16615.00
1207.420, 16580.00
1208.502, 16774.00
1209.583, 16716.00
1210.665, 16644.00
1211.746, 16851.00
1212.827, 16759.00
1213.908, 16698.00
1214.988, 16850.00
1216.069, 16728.00
1217.149, 16728.00
1218.230, 16649.00
1219.310, 16678.00
1220.390, 16703.00
1221.470, 16787.00
1222.549, 16730.00
1223.629, 16718.00
1224.708, 16731.00
1225.787, 16790.00
1226.866, 16767.00
1227.945, 16756.00
1229.024, 16823.00
1230.103, 16773.00
1231.181, 16622.00
1232.259, 16912.00
1233.337, 16641.00
1234.415, 16521.00
1235.493, 16929.00
1236.571, 16728.00
1237.648, 16855.00
1238.726, 16859.00
1239.803, 16707.00
1240.880, 16689.00
1241.957, 16626.00
1243.034, 16618.15
1244.110, 16730.00
1245.187, 16657.00
1246.263, 16824.00
1247.339, 16847.00
1248.415, 16860.00
1249.491, 16690.00
1250.566, 16681.00
1251.642, 16775.00
1252.717, 16800.00
1253.793, 16751.00
1254.868, 16788.00
1255.943, 16623.00
1257.017, 16783.00
1258.092, 16627.00
1259.166, 16794.00
1260.241, 16682.00
1261.315, 16857.00
1262.389, 16787.00
1263.462, 16770.00
1264.536, 16800.00
1265.610, 16713.00
1266.683, 16824.00
1267.756, 16786.00
1268.829, 16606.00
1269.902, 16863.00
1270.975, 16758.00
1272.048, 16826.00
1273.120, 16860.00
1274.192, 16807.00
1275.264, 16782.00
1276.336, 16767.00
1277.408, 16714.00
1278.480, 16695.00
1279.551, 16681.00
1280.623, 16676.00
1281.694, 16761.00
1282.765, 16687.00
1283.836, 16779.00
1284.907, 16735.00
1285.977, 16757.00
1287.048, 16810.00
1288.118, 16835.00
1289.188, 16899.00
1290.258, 16731.00
1291.328, 16622.00
1292.398, 16802.00
1293.467, 16732.00
1294.537, 16827.00
1295.606, 16736.00
1296.675, 16717.00
1297.744, 16671.00
1298.813, 16674.61
1299.882, 16844.00
1300.950, 16661.00
1302.018, 16713.00
1303.086, 16592.00
1304.155, 16735.00
1305.222, 16794.00
1306.290, 16860.00
1307.358, 17036.00
1308.425, 16936.00
1309.492, 16796.00
1310.559, 16863.00
1311.626, 16837.00
1312.693, 16824.46
1313.760, 16889.00
1314.826, 16828.00
1315.893, 16792.00
1316.959, 16746.00
1318.025, 16891.00
1319.091, 16749.00
1320.157, 16772.00
1321.222, 16754.00
1322.288, 16659.00
1323.353, 16684.00
1324.418, 16662.31
1325.483, 16705.00
1326.548, 16647.00
1327.612, 16743.00
1328.677, 16683.00
1329.741, 16656.00
1330.806, 16727.00
1331.870, 16887.00
1332.934, 16787.00
1333.997, 16854.00
1335.061, 16674.00
1336.124, 16868.00
1337.188, 16775.00
1338.251, 16538.00
1339.314, 16610.00
1340.377, 16775.00
1341.439, 16751.00
1342.502, 16600.00
1343.564, 16648.00
1344.627, 16569.00
1345.689, 16789.00
1346.751, 16675.00
1347.813, 16822.00
1348.874, 16646.00
1349.936, 16750.00
1350.997, 16781.00
1352.058, 16873.00
1353.119, 16665.00
1354.180, 16602.00
1355.241, 16755.00
1356.301, 16729.00
1357.362, 16822.00
1358.422, 16704.00
1359.482, 16645.00
1360.542, 16694.00
1361.602, 16636.31
1362.662, 16693.63
1363.721, 16673.00
1364.781, 16736.00
1365.840, 16829.00
1366.899, 16709.00
1367.958, 16599.00
1369.017, 16618.00
1370.075, 16755.00
1371.134, 16802.00
1372.192, 16647.00
1373.250, 16697.00
1374.308, 16626.00
1375.366, 16741.00
1376.424, 16720.00
1377.481, 16690.00
1378.539, 16788.00
1379.596, 16871.00
1380.653, 16793.00
1381.710, 16779.00
1382.767, 16689.00
1383.824, 16731.53
1384.880, 16701.00
1385.937, 16770.00
1386.993, 16897.00
1388.049, 16822.00
1389.105, 16653.00
1390.161, 16732.00
1391.216, 16919.00
1392.272, 16698.00
1393.327, 16850.00
1394.382, 16663.00
1395.437, 16807.00
1396.492, 16871.00
1397.547, 16760.00
1398.601, 16638.00
1399.656, 16641.00
1400.710, 16636.00
1401.764, 16625.00
1402.818, 16773.00
1403.872, 16706.00
1404.925, 16654.00
1405.979, 16800.00
1407.032, 16651.00
1408.085, 16750.00
1409.139, 16653.00
1410.191, 16685.00
1411.244, 16709.00
1412.297, 16623.00
1413.349, 16769.00
1414.402, 16571.00
1415.454, 16735.00
1416.506, 16690.00
1417.558, 16715.00
1418.609, 16576.00
1419.661, 16692.00
1420.712, 16640.82
1421.764, 16601.00
1422.815, 16650.00
1423.866, 16688.00
1424.916, 16717.00
1425.967, 16753.73
1427.018, 16809.00
1428.068, 16771.00
1429.118, 16778.00
1430.168, 16695.00
1431.218, 16648.00
1432.268, 16681.86
1433.318, 16635.10
1434.367, 16782.00
1435.416, 16701.00
1436.465, 16819.00
1437.514, 17024.00
1438.563, 16930.07
1439.612, 16805.00
1440.661, 16864.00
1441.709, 16870.00
1442.757, 16793.00
1443.805, 16834.00
1444.853, 16673.00
1445.901, 16783.00
1446.949, 16842.00
1447.996, 16723.00
1449.044, 16852.00
1450.091, 16658.00
1451.138, 16878.00
1452.185, 16684.00
1453.232, 16731.00
1454.278, 16619.00
1455.325, 16659.00
1456.371, 16784.00
1457.417, 16633.00
1458.463, 16631.00
1459.509, 16803.00
1460.555, 16579.00
1461.601, 16728.00
1462.646, 16934.00
1463.691, 16808.00
1464.737, 16752.00
1465.782, 17162.00
1466.826, 17262.00
1467.871, 16600.00
1468.916, 17210.00
1469.960, 17004.00
1471.004, 16717.00
1472.048, 16789.00
1473.092, 16647.00
1474.136, 16697.00
1475.180, 16683.00
1476.223, 16816.00
1477.267, 16977.00
1478.310, 16870.41
1479.353, 17083.00
1480.396, 16844.00
1481.439, 16632.00
1482.481, 16883.00
1483.524, 16735.00
1484.566, 16894.00
1485.608, 16681.00
1486.650, 16889.00
1487.692, 16727.00
1488.734, 16781.00
1489.775, 16856.00
1490.817, 16899.00
1491.858, 16912.59
1492.899, 16657.00
1493.940, 16882.00
1494.981, 16824.00
1496.022, 16734.00
1497.062, 16856.00
1498.103, 16853.00
1499.143, 16863.00
1500.183, 16713.00
1501.223, 16717.00
1502.263, 16717.43
1503.302, 16738.00
1504.342, 16778.00
1505.381, 16802.00
1506.420, 16863.00
1507.459, 16798.00
1508.498, 16783.00
1509.537, 16741.00
1510.576, 16865.00
1511.614, 16835.00
1512.652, 16921.00
1513.691, 16910.00
1514.729, 16801.00
1515.767, 16741.00
1516.804, 16780.00
1517.842, 16714.64
1518.879, 16862.00
1519.917, 16720.00
1520.954, 16836.00
1521.991, 16917.00
1523.028, 16850.00
1524.064, 16842.00
1525.101, 16778.00
1526.137, 16855.00
1527.173, 16732.00
1528.210, 16628.00
1529.245, 16673.00
1530.281, 16751.00
1531.317, 16714.00
1532.352, 16678.00
1533.388, 16749.00
1534.423, 16713.00
1535.458, 16826.00
1536.493, 16804.00
1537.528, 16734.00
1538.562, 16745.00
1539.597, 16837.00
1540.631, 16748.00
1541.665, 16701.00
1542.700, 16814.00
1543.733, 16839.00
1544.767, 16718.00
1545.801, 16936.00
1546.834, 16939.00
1547.868, 16927.65
1548.901, 16908.00
1549.934, 16953.00
1550.967, 17187.00
1551.999, 17304.00
1553.032, 17720.00
1554.064, 17836.00
1555.097, 17423.00
1556.129, 16995.00
1557.161, 16801.00
1558.193, 16768.00
1559.224, 16867.00
1560.256, 16621.00
1561.287, 16900.00
1562.318, 16807.00
##END=



