##NAMES=Riebeckite
##RRUFFID=R050082
##IDEAL CHEMISTRY=[box]Na_2_(Fe^2+^_3_Fe^3+^_2_)Si_8_O_22_(OH)_2_
##LOCALITY=Mt. Malosa, Zomba, Chilwa, Alkaline Area, Malawi
##OWNER=RRUFF
##SOURCE=Rock Currier
##DESCRIPTION=Black elongated prisms
##STATUS=The identification of this mineral has been confirmed by X-ray diffraction and chemical analysis
##URL=rruff.info/R050082
##MEASURED CHEMISTRY=([box]_0.63_Na_0.19_K_0.18_)(Na_1.58_Ca_0.42_)_Σ=2_Fe^2+^_3.00_(Fe^3+^_1.30_Fe^2+^_0.45_Mn_0.15_Mg_0.05_Ti_0.05_)_Σ=2_(Si_0.98_Al_0.02_)_8_O_22_(OH)_2_
##PIN_ID=L00434
##ORIENTATION=Laser parallel to b* (0 1 0). Fiducial mark perpendicular to laser is parallel to c [0 0 1]
146.1280, 44736.00
147.3620, 45036.00
148.5960, 44849.00
149.8300, 44889.00
151.0630, 45435.00
152.2960, 45966.00
153.5300, 45768.00
154.7620, 45943.00
155.9950, 45973.73
157.2280, 46084.00
158.4600, 45888.00
159.6920, 46466.00
160.9250, 46486.00
162.1560, 47263.90
163.3880, 48735.00
164.6200, 48742.00
165.8510, 49116.00
167.0820, 49319.00
168.3130, 49383.00
169.5440, 49620.00
170.7750, 49950.00
172.0050, 49518.00
173.2350, 49623.00
174.4650, 49938.00
175.6950, 50478.00
176.9250, 50979.00
178.1550, 52022.00
179.3840, 52204.00
180.6130, 53010.00
181.8420, 53271.00
183.0710, 54033.00
184.3000, 55222.00
185.5280, 55825.00
186.7570, 56523.80
187.9850, 57362.00
189.2130, 57440.00
190.4400, 57671.00
191.6680, 57655.00
192.8960, 57449.21
194.1230, 57573.00
195.3500, 56620.00
196.5770, 55847.00
197.8030, 54908.00
199.0300, 54694.00
200.2560, 54609.00
201.4830, 54156.00
202.7090, 52783.00
203.9340, 49965.00
205.1600, 47255.00
206.3860, 45591.00
207.6110, 44826.00
208.8360, 44402.00
210.0610, 44157.00
211.2860, 44074.00
212.5100, 43954.00
213.7350, 43847.00
214.9590, 43289.00
216.1830, 42836.00
217.4070, 42734.00
218.6310, 42609.00
219.8540, 42272.00
221.0780, 42473.00
222.3010, 42237.00
223.5240, 41964.00
224.7470, 42237.00
225.9690, 42070.67
227.1920, 42185.23
228.4140, 42251.10
229.6360, 42270.91
230.8580, 42106.66
232.0800, 42180.08
233.3020, 42158.25
234.5230, 42132.52
235.7440, 42239.38
236.9650, 42046.00
238.1860, 41868.00
239.4070, 41830.73
240.6280, 41642.23
241.8480, 41609.00
243.0680, 41333.00
244.2880, 41171.00
245.5080, 40977.00
246.7280, 40937.34
247.9470, 40707.00
249.1660, 41039.00
250.3860, 40840.00
251.6040, 41083.00
252.8230, 40936.00
254.0420, 41050.00
255.2600, 41077.70
256.4790, 41241.95
257.6970, 41357.47
258.9150, 41426.93
260.1320, 41312.30
261.3500, 41435.37
262.5670, 41463.15
263.7840, 41487.03
265.0010, 41188.00
266.2180, 41490.00
267.4350, 41138.00
268.6510, 41358.00
269.8680, 41093.00
271.0840, 40966.91
272.3000, 40945.31
273.5160, 40706.00
274.7310, 40767.00
275.9470, 40776.00
277.1620, 40747.00
278.3770, 40684.00
279.5920, 40232.00
280.8070, 39918.00
282.0210, 40065.00
283.2360, 39619.00
284.4500, 39678.00
285.6640, 39506.00
286.8780, 39472.00
288.0920, 39591.00
289.3050, 39577.00
290.5180, 39535.00
291.7320, 39763.00
292.9450, 39487.00
294.1570, 39625.00
295.3700, 39696.00
296.5830, 39339.00
297.7950, 39536.00
299.0070, 39324.00
300.2190, 39640.00
301.4310, 39383.47
302.6420, 39573.29
303.8540, 39714.48
305.0650, 39809.55
306.2760, 39720.57
307.4870, 39869.25
308.6980, 39922.69
309.9080, 39972.16
311.1190, 40154.29
312.3290, 40092.02
313.5390, 40271.98
314.7490, 40355.25
315.9580, 40243.00
317.1680, 40269.00
318.3770, 40417.00
319.5860, 40578.00
320.7950, 40422.00
322.0040, 40766.00
323.2130, 40667.00
324.4210, 40887.00
325.6290, 40811.00
326.8380, 41208.00
328.0460, 41156.00
329.2530, 41207.00
330.4610, 41024.00
331.6680, 41258.00
332.8760, 41743.00
334.0830, 41699.00
335.2890, 42012.48
336.4960, 41988.00
337.7030, 42425.00
338.9090, 42617.00
340.1150, 42938.00
341.3210, 43448.00
342.5270, 43537.00
343.7330, 44292.00
344.9380, 44417.00
346.1440, 44971.00
347.3490, 44974.00
348.5540, 45349.00
349.7590, 45841.00
350.9630, 46450.00
352.1680, 46260.00
353.3720, 46998.00
354.5760, 46170.00
355.7800, 45990.00
356.9840, 45835.00
358.1870, 45603.00
359.3910, 45649.00
360.5940, 45561.81
361.7970, 45580.00
363.0000, 45558.00
364.2030, 45435.00
365.4050, 45378.00
366.6080, 45321.00
367.8100, 45339.00
369.0120, 45230.00
370.2140, 45207.00
371.4150, 45129.00
372.6170, 44824.00
373.8180, 44671.00
375.0190, 44274.00
376.2200, 44369.00
377.4210, 44474.00
378.6220, 43938.00
379.8220, 43818.00
381.0230, 43765.00
382.2230, 43348.00
383.4230, 43421.00
384.6220, 43110.00
385.8220, 42914.00
387.0220, 42831.00
388.2210, 42591.00
389.4200, 42511.00
390.6190, 42259.00
391.8180, 42100.57
393.0160, 41924.00
394.2150, 41630.00
395.4130, 41592.00
396.6110, 41126.00
397.8090, 41252.00
399.0060, 40704.00
400.2040, 40548.00
401.4010, 40262.00
402.5980, 40158.00
403.7950, 40022.00
404.9920, 40006.00
406.1890, 39868.00
407.3860, 39513.00
408.5820, 39711.00
409.7780, 39472.00
410.9740, 39556.00
412.1700, 39467.00
413.3650, 39554.00
414.5610, 39677.96
415.7560, 39791.09
416.9510, 40045.00
418.1460, 39953.00
419.3410, 40223.00
420.5360, 39849.00
421.7300, 40035.00
422.9240, 39901.00
424.1180, 40050.00
425.3120, 39939.00
426.5060, 40046.00
427.7000, 40052.00
428.8930, 39970.00
430.0860, 40150.00
431.2790, 40002.00
432.4720, 39846.00
433.6650, 40054.00
434.8580, 39945.00
436.0500, 39723.00
437.2420, 39829.00
438.4340, 39586.00
439.6260, 39715.00
440.8180, 39435.00
442.0090, 39570.00
443.2010, 39481.70
444.3920, 39055.00
445.5830, 39336.00
446.7740, 39402.00
447.9640, 39227.00
449.1550, 39355.18
450.3450, 39104.00
451.5350, 39205.00
452.7250, 39270.00
453.9150, 38987.00
455.1050, 39094.00
456.2940, 39037.00
457.4830, 39252.00
458.6720, 38861.00
459.8610, 39087.00
461.0500, 39083.00
462.2390, 39125.00
463.4270, 39126.00
464.6150, 39068.00
465.8040, 39214.00
466.9910, 39073.00
468.1790, 39153.00
469.3670, 39008.00
470.5540, 38929.00
471.7410, 39137.00
472.9280, 39150.00
474.1150, 38987.00
475.3020, 38966.00
476.4890, 39270.00
477.6750, 39054.00
478.8610, 39218.00
480.0470, 39182.00
481.2330, 39388.00
482.4190, 39534.00
483.6040, 39749.00
484.7900, 39958.00
485.9750, 39690.00
487.1600, 39697.00
488.3450, 39808.00
489.5290, 40077.00
490.7140, 40214.00
491.8980, 40358.00
493.0820, 40127.00
494.2660, 40458.00
495.4500, 40701.00
496.6340, 40534.00
497.8170, 40902.00
499.0010, 40869.00
500.1840, 40973.00
501.3670, 41150.00
502.5500, 41408.00
503.7320, 41324.00
504.9150, 41568.00
506.0970, 41659.00
507.2790, 41959.00
508.4610, 42783.00
509.6430, 42545.48
510.8250, 42990.00
512.0060, 42526.00
513.1870, 42730.00
514.3680, 42879.00
515.5490, 42878.00
516.7300, 43184.15
517.9110, 43469.00
519.0910, 43685.00
520.2710, 43881.00
521.4510, 44119.00
522.6310, 44330.00
523.8110, 44580.00
524.9910, 44930.00
526.1700, 45149.00
527.3490, 45911.00
528.5280, 46139.00
529.7070, 46460.00
530.8860, 46796.00
532.0650, 46963.00
533.2430, 47152.00
534.4210, 47490.00
535.5990, 47764.00
536.7770, 47934.00
537.9550, 48107.00
539.1320, 47965.00
540.3100, 47599.00
541.4870, 47521.00
542.6640, 47661.00
543.8410, 47334.00
545.0170, 47587.00
546.1940, 47336.00
547.3700, 47061.00
548.5470, 46839.00
549.7230, 46732.00
550.8980, 46804.00
552.0740, 46840.00
553.2500, 46721.00
554.4250, 46623.00
555.6000, 46503.57
556.7750, 46426.00
557.9500, 46122.00
559.1250, 45985.00
560.2990, 45679.00
561.4730, 45437.00
562.6480, 45180.60
563.8220, 44824.00
564.9950, 44602.00
566.1690, 44406.00
567.3430, 44096.00
568.5160, 43860.00
569.6890, 43372.00
570.8620, 43081.00
572.0350, 42665.00
573.2070, 42319.00
574.3800, 42018.00
575.5520, 41557.00
576.7240, 40991.00
577.8960, 40872.00
579.0680, 40893.00
580.2400, 40194.00
581.4110, 40060.00
582.5830, 40406.00
583.7540, 40285.00
584.9250, 40167.21
586.0950, 39422.00
587.2660, 39743.00
588.4370, 39374.00
589.6070, 39049.00
590.7770, 39222.00
591.9470, 39206.00
593.1170, 39188.00
594.2860, 39119.00
595.4560, 39359.00
596.6250, 39201.00
597.7940, 39138.00
598.9630, 39218.00
600.1320, 38972.00
601.3000, 39361.00
602.4690, 39644.00
603.6370, 39480.00
604.8050, 39431.00
605.9730, 39297.00
607.1410, 39553.00
608.3090, 39292.00
609.4760, 39324.00
610.6430, 39819.00
611.8100, 39603.91
612.9770, 39379.00
614.1440, 39607.00
615.3110, 39545.00
616.4770, 39449.00
617.6430, 39586.00
618.8090, 39704.00
619.9750, 39795.00
621.1410, 40021.00
622.3070, 39950.00
623.4720, 40149.00
624.6370, 40138.00
625.8020, 40070.00
626.9670, 40238.00
628.1320, 40323.46
629.2970, 40531.00
630.4610, 40647.00
631.6250, 40741.00
632.7890, 40847.00
633.9530, 41056.16
635.1170, 41279.00
636.2810, 41481.00
637.4440, 41533.00
638.6070, 41695.00
639.7700, 42053.00
640.9330, 42364.00
642.0960, 42460.00
643.2590, 42714.00
644.4210, 43286.00
645.5830, 43495.00
646.7450, 44061.00
647.9070, 44368.00
649.0690, 45216.00
650.2310, 45745.00
651.3920, 46468.00
652.5530, 47303.00
653.7140, 48203.00
654.8750, 49242.36
656.0360, 50692.00
657.1970, 51920.00
658.3570, 52886.00
659.5170, 55120.00
660.6770, 56115.00
661.8370, 56790.00
662.9970, 57502.00
664.1570, 58319.00
665.3160, 58292.00
666.4750, 57962.00
667.6340, 57444.00
668.7930, 55903.00
669.9520, 55067.00
671.1110, 53538.00
672.2690, 52333.00
673.4270, 50866.00
674.5850, 49920.00
675.7430, 48905.00
676.9010, 47866.00
678.0590, 47127.00
679.2160, 46828.00
680.3730, 46762.00
681.5300, 46101.00
682.6870, 45996.00
683.8440, 45807.00
685.0010, 47004.00
686.1570, 46253.78
687.3130, 46245.60
688.4690, 45782.00
689.6250, 45501.00
690.7810, 45700.00
691.9370, 45581.00
693.0920, 45431.00
694.2470, 45985.00
695.4020, 45908.35
696.5570, 45727.00
697.7120, 46147.00
698.8670, 46302.00
700.0210, 46147.00
701.1750, 46734.00
702.3290, 46333.00
703.4830, 46562.00
704.6370, 46441.00
705.7910, 46937.00
706.9440, 46825.00
708.0970, 46809.00
709.2510, 47041.00
710.4030, 47199.00
711.5560, 47080.00
712.7090, 47010.00
713.8610, 47301.00
715.0140, 47081.00
716.1660, 47278.00
717.3180, 47185.00
718.4690, 47182.00
719.6210, 46973.00
720.7730, 46888.00
721.9240, 46849.00
723.0750, 46795.00
724.2260, 46640.00
725.3770, 46594.00
726.5270, 46449.09
727.6780, 46309.36
728.8280, 46165.00
729.9780, 45977.85
731.1280, 45809.75
732.2780, 45583.00
733.4280, 45246.00
734.5770, 45129.00
735.7260, 44844.00
736.8760, 45107.00
738.0250, 44685.00
739.1730, 44539.00
740.3220, 44276.00
741.4700, 43976.00
742.6190, 43960.00
743.7670, 43683.00
744.9150, 43690.00
746.0630, 43642.00
747.2100, 43492.00
748.3580, 43487.00
749.5050, 43411.00
750.6520, 43142.00
751.7990, 42671.00
752.9460, 42852.00
754.0930, 42646.00
755.2390, 42709.00
756.3860, 42527.00
757.5320, 42535.00
758.6780, 42446.00
759.8240, 42324.00
760.9690, 42040.00
762.1150, 42582.00
763.2600, 42224.98
764.4060, 42403.00
765.5510, 42155.00
766.6950, 41757.00
767.8400, 42039.00
768.9850, 42152.00
770.1290, 41949.00
771.2730, 42036.00
772.4170, 41987.00
773.5610, 41623.00
774.7050, 41846.00
775.8480, 41662.00
776.9920, 41647.42
778.1350, 41620.00
779.2780, 41581.00
780.4210, 41478.00
781.5640, 41292.00
782.7060, 41468.00
783.8490, 41573.00
784.9910, 41109.00
786.1330, 41557.00
787.2750, 41283.00
788.4170, 41303.00
789.5580, 41145.00
790.7000, 41100.04
791.8410, 41144.00
792.9820, 41069.00
794.1230, 41023.00
795.2640, 41029.00
796.4040, 40937.00
797.5450, 40717.00
798.6850, 41015.00
799.8250, 41045.00
800.9650, 41264.00
802.1050, 40798.00
803.2450, 40802.00
804.3840, 40615.00
805.5230, 40706.00
806.6630, 40768.00
807.8020, 40702.00
808.9400, 40692.00
810.0790, 40704.48
811.2170, 40696.46
812.3560, 40754.00
813.4940, 40711.00
814.6320, 40836.00
815.7700, 40801.00
816.9070, 40864.00
818.0450, 40800.00
819.1820, 40888.04
820.3190, 40909.00
821.4560, 40996.00
822.5930, 40862.00
823.7300, 40800.00
824.8670, 40817.00
826.0030, 40968.00
827.1390, 40882.00
828.2750, 41038.00
829.4110, 40878.00
830.5470, 40897.00
831.6820, 41104.00
832.8180, 40958.00
833.9530, 40906.00
835.0880, 41188.00
836.2230, 41295.00
837.3580, 41201.00
838.4920, 41365.00
839.6270, 41410.39
840.7610, 41309.00
841.8950, 41612.00
843.0290, 41472.00
844.1630, 41593.00
845.2960, 41737.00
846.4300, 41937.00
847.5630, 42028.09
848.6960, 42178.26
849.8290, 42254.00
850.9620, 42348.00
852.0940, 42460.00
853.2270, 42384.00
854.3590, 42671.00
855.4910, 43054.00
856.6230, 43032.00
857.7550, 43336.00
858.8870, 43337.00
860.0180, 43534.79
861.1500, 43835.70
862.2810, 44008.00
863.4120, 44472.00
864.5430, 44971.00
865.6730, 45337.00
866.8040, 45466.00
867.9340, 45770.40
869.0640, 45813.00
870.1940, 46169.00
871.3240, 46405.00
872.4540, 46759.00
873.5830, 46890.00
874.7130, 46991.00
875.8420, 47133.58
876.9710, 47184.00
878.1000, 47179.00
879.2290, 47275.00
880.3570, 47147.00
881.4860, 47184.00
882.6140, 47211.00
883.7420, 47461.00
884.8700, 46875.00
885.9980, 47021.00
887.1250, 46592.00
888.2530, 46592.00
889.3800, 46902.00
890.5070, 46199.00
891.6340, 46091.00
892.7610, 46091.00
893.8880, 45834.00
895.0140, 45666.00
896.1400, 45546.00
897.2670, 45391.00
898.3930, 45099.00
899.5180, 45170.64
900.6440, 45257.00
901.7700, 45187.00
902.8950, 44851.00
904.0200, 44700.00
905.1450, 44661.00
906.2700, 44785.00
907.3950, 44355.00
908.5190, 44615.00
909.6440, 44553.00
910.7680, 44311.00
911.8920, 44246.00
913.0160, 44347.00
914.1400, 44312.86
915.2630, 44441.09
916.3870, 44410.00
917.5100, 44663.00
918.6330, 44547.00
919.7560, 44525.00
920.8790, 44464.00
922.0010, 43950.00
923.1240, 44441.00
924.2460, 44188.00
925.3680, 44210.00
926.4900, 44479.00
927.6120, 44076.00
928.7340, 44300.00
929.8550, 44211.00
930.9760, 44286.00
932.0980, 44010.00
933.2190, 44245.00
934.3390, 44182.59
935.4600, 44351.28
936.5810, 44471.29
937.7010, 44545.18
938.8210, 44435.03
939.9410, 44562.53
941.0610, 44594.79
942.1810, 44623.15
943.3010, 44784.09
944.4200, 44700.66
945.5390, 44859.45
946.6580, 45271.00
947.7770, 45451.00
948.8960, 45541.00
950.0150, 45267.00
951.1330, 45358.00
952.2510, 45734.00
953.3690, 46124.00
954.4870, 45891.00
955.6050, 46220.00
956.7230, 46222.00
957.8400, 46346.00
958.9580, 46309.00
960.0750, 46587.00
961.1920, 46628.00
962.3090, 46561.00
963.4250, 46860.00
964.5420, 46758.50
965.6580, 46861.00
966.7740, 46712.00
967.8900, 46734.00
969.0060, 46641.00
970.1220, 46797.00
971.2380, 46546.00
972.3530, 46528.00
973.4680, 46484.00
974.5830, 46309.00
975.6980, 46244.00
976.8130, 46438.00
977.9280, 46244.00
979.0420, 46207.69
980.1560, 46319.60
981.2710, 46382.82
982.3850, 46399.98
983.4980, 46233.09
984.6120, 46303.86
985.7260, 46279.38
986.8390, 46251.00
987.9520, 46355.21
989.0650, 46215.09
990.1780, 46317.21
991.2910, 46322.62
992.4030, 46372.29
993.5160, 46326.14
994.6280, 46309.58
995.7400, 46388.88
996.8520, 46415.10
997.9640, 46357.91
999.0750, 46410.40
1000.187, 46298.00
1001.298, 46589.00
1002.409, 46495.00
1003.520, 46522.00
1004.631, 46467.00
1005.741, 46550.00
1006.852, 46536.60
1007.962, 46641.26
1009.072, 46697.25
1010.182, 46707.16
1011.292, 46533.04
1012.402, 46596.57
1013.511, 46564.86
1014.621, 46529.24
1015.730, 46626.23
1016.839, 46478.88
1017.948, 46573.76
1019.056, 46571.95
1020.165, 46614.39
1021.273, 46561.01
1022.382, 46383.00
1023.490, 46419.00
1024.598, 46733.00
1025.706, 46451.00
1026.813, 46549.00
1027.921, 46843.00
1029.028, 46807.00
1030.135, 46958.68
1031.242, 46785.00
1032.349, 47098.00
1033.456, 47104.38
1034.562, 47137.00
1035.668, 47400.00
1036.775, 47308.00
1037.881, 47439.00
1038.987, 47392.00
1040.092, 47251.00
1041.198, 47165.00
1042.303, 47444.00
1043.408, 47600.00
1044.514, 47431.00
1045.618, 47607.00
1046.723, 47083.00
1047.828, 47616.00
1048.932, 47493.00
1050.037, 47407.00
1051.141, 47645.00
1052.245, 47421.00
1053.349, 47021.00
1054.452, 47308.00
1055.556, 47358.00
1056.659, 47242.00
1057.762, 47384.00
1058.865, 47284.00
1059.968, 47173.00
1061.071, 47280.00
1062.174, 47485.00
1063.276, 47375.00
1064.378, 47434.98
1065.480, 47340.00
1066.582, 47388.00
1067.684, 47122.00
1068.786, 47160.00
1069.887, 46948.00
1070.988, 46973.46
1072.090, 47025.00
1073.191, 47128.00
1074.291, 47089.00
1075.392, 47351.00
1076.493, 47041.00
1077.593, 47146.00
1078.693, 47169.00
1079.793, 46841.00
1080.893, 46824.00
1081.993, 46863.00
1083.092, 46942.00
1084.192, 46718.00
1085.291, 46548.00
1086.390, 46418.00
1087.489, 46256.29
1088.588, 46217.79
1089.686, 46105.00
1090.785, 46085.00
1091.883, 46242.00
1092.981, 46015.00
1094.079, 45900.00
1095.177, 45508.00
1096.275, 45411.00
1097.373, 45724.00
1098.470, 45780.00
1099.567, 45484.00
1100.664, 45393.00
1101.761, 45275.00
1102.858, 45143.00
1103.954, 45167.00
1105.051, 45190.00
1106.147, 45150.00
1107.243, 45077.00
1108.339, 45149.00
1109.435, 44882.00
1110.531, 44914.00
1111.626, 44754.00
1112.722, 44666.00
1113.817, 44824.00
1114.912, 44660.00
1116.007, 44584.00
1117.101, 44452.00
1118.196, 44334.57
1119.290, 44049.00
1120.385, 44219.00
1121.479, 44091.00
1122.573, 44273.00
1123.666, 44240.00
1124.760, 43903.00
1125.853, 43845.00
1126.947, 43549.00
1128.040, 43438.00
1129.133, 43319.00
1130.226, 43332.00
1131.318, 43120.00
1132.411, 43059.02
1133.503, 43119.00
1134.596, 42912.00
1135.688, 42874.00
1136.780, 42961.00
1137.871, 42781.00
1138.963, 42610.00
1140.054, 42737.00
1141.146, 42507.00
1142.237, 42746.00
1143.328, 42524.00
1144.419, 42426.00
1145.509, 42580.00
1146.600, 42399.00
1147.690, 42377.00
1148.780, 42092.20
1149.870, 42304.41
1150.960, 42419.25
1152.050, 42441.96
1153.139, 42096.59
1154.229, 42226.52
1155.318, 42165.98
1156.407, 42097.62
1157.496, 42294.46
1158.585, 42002.63
1159.674, 42195.26
1160.762, 42194.52
1161.850, 42282.28
1162.939, 42178.37
1164.027, 42133.67
1165.114, 42280.70
1166.202, 42321.56
1167.290, 42195.61
1168.377, 42289.00
1169.464, 41934.00
1170.551, 42035.00
1171.638, 42301.00
1172.725, 42034.25
1173.812, 42114.15
1174.898, 41898.00
1175.984, 41832.00
1177.071, 42207.00
1178.157, 41868.00
1179.242, 41978.00
1180.328, 41788.00
1181.414, 42050.00
1182.499, 41631.00
1183.584, 42075.00
1184.669, 41907.00
1185.754, 41981.00
1186.839, 41964.00
1187.924, 41762.00
1189.008, 41803.31
1190.092, 41778.00
1191.177, 41818.00
1192.260, 41729.00
1193.344, 41979.00
1194.428, 41817.00
1195.512, 41689.00
1196.595, 42038.00
1197.678, 41752.00
1198.761, 41617.00
1199.844, 41774.00
1200.927, 42045.00
1202.009, 41884.50
1203.092, 41904.76
1204.174, 41838.00
1205.256, 41705.00
1206.338, 41838.00
1207.420, 41903.00
1208.502, 41772.00
1209.583, 41826.39
1210.665, 42051.00
1211.746, 41779.00
1212.827, 41698.00
1213.908, 41750.00
1214.988, 42031.00
1216.069, 41549.00
1217.149, 41617.00
1218.230, 41742.61
1219.310, 41568.29
1220.390, 41915.00
1221.470, 41977.00
1222.549, 41775.00
1223.629, 41854.12
1224.708, 42057.00
1225.787, 41806.00
1226.866, 41831.00
1227.945, 42192.00
1229.024, 41683.00
1230.103, 41525.00
1231.181, 41825.00
1232.259, 41640.00
1233.337, 41767.00
1234.415, 41757.00
1235.493, 41815.00
1236.571, 41837.05
1237.648, 41827.00
1238.726, 41848.00
1239.803, 41915.00
1240.880, 41925.00
1241.957, 41955.43
1243.034, 41902.00
1244.110, 42007.00
1245.187, 41932.40
1246.263, 41974.73
1247.339, 41943.00
1248.415, 41823.00
1249.491, 41917.00
1250.566, 41683.00
1251.642, 41906.00
1252.717, 41698.00
1253.793, 41793.00
1254.868, 41655.00
1255.943, 41722.00
1257.017, 42045.00
1258.092, 41937.00
1259.166, 41993.00
1260.241, 41996.20
1261.315, 41835.00
1262.389, 41909.00
1263.462, 41749.00
1264.536, 41792.00
1265.610, 41452.00
1266.683, 41517.00
1267.756, 41921.00
1268.829, 41493.00
1269.902, 41751.00
1270.975, 41848.00
1272.048, 41770.00
1273.120, 42000.00
1274.192, 41978.54
1275.264, 42032.00
1276.336, 42016.00
1277.408, 41799.00
1278.480, 41699.00
1279.551, 41849.00
1280.623, 41861.00
1281.694, 41460.00
1282.765, 41923.00
1283.836, 41835.00
1284.907, 41592.00
1285.977, 41689.00
1287.048, 41863.00
1288.118, 41752.00
1289.188, 41894.00
1290.258, 41588.00
1291.328, 41830.00
1292.398, 41772.00
1293.467, 42023.00
1294.537, 41935.12
1295.606, 41812.00
1296.675, 41918.00
1297.744, 41831.00
1298.813, 42116.00
1299.882, 42001.86
1300.950, 42057.00
1302.018, 41974.00
1303.086, 41849.00
1304.155, 41958.00
1305.222, 41807.00
1306.290, 42096.00
1307.358, 42160.00
1308.425, 41749.00
1309.492, 41977.00
1310.559, 41741.00
1311.626, 41881.00
1312.693, 41803.00
1313.760, 41773.70
1314.826, 41688.00
1315.893, 41855.00
1316.959, 41758.00
1318.025, 41991.00
1319.091, 41931.00
1320.157, 42005.00
1321.222, 42055.44
1322.288, 41838.00
1323.353, 42088.00
1324.418, 41927.00
1325.483, 41928.00
1326.548, 42354.00
1327.612, 41872.00
1328.677, 42064.36
1329.741, 42089.00
1330.806, 42070.00
1331.870, 41850.00
1332.934, 41984.00
1333.997, 41977.00
1335.061, 41645.00
1336.124, 41857.19
1337.188, 41905.00
1338.251, 41884.00
1339.314, 41927.00
1340.377, 41684.00
1341.439, 42071.00
1342.502, 41979.00
1343.564, 41842.00
1344.627, 42041.00
1345.689, 41883.00
1346.751, 42002.02
1347.813, 41696.00
1348.874, 42066.00
1349.936, 41946.00
1350.997, 41717.00
1352.058, 41960.00
1353.119, 41822.00
1354.180, 41849.25
1355.241, 42101.00
1356.301, 41987.00
1357.362, 41861.00
1358.422, 42143.00
1359.482, 42241.00
1360.542, 41778.00
1361.602, 41822.00
1362.662, 42051.00
1363.721, 41610.00
1364.781, 42020.00
1365.840, 41810.00
1366.899, 42023.00
1367.958, 42102.00
1369.017, 41707.00
1370.075, 42133.00
1371.134, 42103.00
1372.192, 41943.00
1373.250, 41930.00
1374.308, 41947.00
1375.366, 41851.33
1376.424, 41714.00
1377.481, 41872.00
1378.539, 41747.00
1379.596, 41992.00
1380.653, 42210.00
1381.710, 41667.00
1382.767, 41919.00
1383.824, 41801.00
1384.880, 41975.00
1385.937, 41957.00
1386.993, 41697.00
1388.049, 42063.00
1389.105, 41911.00
1390.161, 41974.00
1391.216, 42079.00
1392.272, 41701.00
1393.327, 42157.00
1394.382, 41881.00
1395.437, 42561.00
1396.492, 42029.00
1397.547, 42064.00
1398.601, 42139.00
1399.656, 42007.00
1400.710, 42097.00
1401.764, 41961.00
1402.818, 41880.00
1403.872, 41994.00
1404.925, 42147.00
1405.979, 42038.00
1407.032, 42145.00
1408.085, 42238.00
1409.139, 42224.00
1410.191, 42023.00
1411.244, 42089.00
1412.297, 42197.00
1413.349, 41830.00
1414.402, 42005.00
1415.454, 42334.00
1416.506, 42211.00
1417.558, 42129.00
1418.609, 42036.00
1419.661, 42064.00
1420.712, 42174.00
1421.764, 42140.00
1422.815, 42135.00
1423.866, 42090.00
1424.916, 42119.67
1425.967, 42070.80
1427.018, 42158.00
1428.068, 42065.00
1429.118, 42032.00
1430.168, 42167.00
1431.218, 42228.00
1432.268, 42208.00
1433.318, 42226.00
1434.367, 42141.00
1435.416, 42187.00
1436.465, 42151.00
1437.514, 42228.00
1438.563, 42199.13
1439.612, 41948.00
1440.661, 42212.00
1441.709, 42037.00
1442.757, 42115.00
1443.805, 42459.00
1444.853, 42301.00
1445.901, 42374.00
1446.949, 42031.00
1447.996, 42268.00
1449.044, 42285.00
1450.091, 42077.00
1451.138, 42180.00
1452.185, 42043.00
1453.232, 42285.00
1454.278, 42194.00
1455.325, 42161.00
1456.371, 42139.00
1457.417, 42145.00
1458.463, 42000.00
1459.509, 42091.00
1460.555, 41962.00
1461.601, 42130.00
1462.646, 42201.00
1463.691, 42265.00
1464.737, 42274.00
1465.782, 42011.00
1466.826, 41801.00
1467.871, 42006.00
1468.916, 42401.00
1469.960, 42142.00
1471.004, 42144.00
1472.048, 42186.00
1473.092, 41987.00
1474.136, 42027.00
1475.180, 42015.00
1476.223, 41944.00
1477.267, 42190.00
1478.310, 42049.00
1479.353, 42096.00
1480.396, 42253.00
1481.439, 41953.00
1482.481, 41968.00
1483.524, 41946.00
1484.566, 42112.00
1485.608, 42045.00
1486.650, 42048.00
1487.692, 41887.00
1488.734, 41995.00
1489.775, 42016.64
1490.817, 41822.00
1491.858, 42170.00
1492.899, 42175.00
1493.940, 42189.00
1494.981, 41982.00
1496.022, 41927.00
1497.062, 41972.00
1498.103, 42010.00
1499.143, 42195.00
1500.183, 41981.00
1501.223, 42136.00
1502.263, 42178.00
1503.302, 42123.00
1504.342, 42100.00
1505.381, 42179.00
1506.420, 42006.00
1507.459, 42067.00
1508.498, 41966.00
1509.537, 41936.00
1510.576, 41918.00
1511.614, 41980.00
1512.652, 41890.70
1513.691, 42015.41
1514.729, 41812.00
1515.767, 42124.00
1516.804, 42225.00
1517.842, 42069.00
1518.879, 41931.00
1519.917, 42313.00
1520.954, 42161.00
1521.991, 42185.00
1523.028, 41985.00
1524.064, 42109.00
1525.101, 42091.00
1526.137, 42000.00
1527.173, 42144.00
1528.210, 41949.00
1529.245, 42191.00
1530.281, 42001.00
1531.317, 41959.00
1532.352, 42055.81
1533.388, 42050.00
1534.423, 42029.00
1535.458, 42142.00
1536.493, 41889.00
1537.528, 42167.00
1538.562, 41855.32
1539.597, 42070.20
1540.631, 42187.73
1541.665, 42213.12
1542.700, 41870.42
1543.733, 42003.04
1544.767, 41945.17
1545.801, 41879.49
1546.834, 42079.00
1547.868, 41789.85
1548.901, 41985.16
1549.934, 41987.09
1550.967, 42077.52
1551.999, 41976.30
1553.032, 41934.27
1554.064, 42083.97
1555.097, 42127.51
1556.129, 42004.23
1557.161, 42100.30
1558.193, 41804.46
1559.224, 41852.54
1560.256, 42048.98
1561.287, 41935.34
1562.318, 42034.92
##END=



