##NAMES=Riebeckite
##RRUFFID=R050082
##IDEAL CHEMISTRY=[box]Na_2_(Fe^2+^_3_Fe^3+^_2_)Si_8_O_22_(OH)_2_
##LOCALITY=Mt. Malosa, Zomba, Chilwa, Alkaline Area, Malawi
##OWNER=RRUFF
##SOURCE=Rock Currier
##DESCRIPTION=Black elongated prisms
##STATUS=The identification of this mineral has been confirmed by X-ray diffraction and chemical analysis
##URL=rruff.info/R050082
##MEASURED CHEMISTRY=([box]_0.63_Na_0.19_K_0.18_)(Na_1.58_Ca_0.42_)_Σ=2_Fe^2+^_3.00_(Fe^3+^_1.30_Fe^2+^_0.45_Mn_0.15_Mg_0.05_Ti_0.05_)_Σ=2_(Si_0.98_Al_0.02_)_8_O_22_(OH)_2_
##PIN_ID=L00462
##ORIENTATION=Laser parallel to c* (0 0 1). Fiducial mark perpendicular to laser is parallel to a [1 0 0]
105.3050, 22005.00
106.5450, 20606.00
107.7850, 21495.00
109.0250, 21276.00
110.2640, 22146.00
111.5030, 22418.00
112.7420, 22843.00
113.9810, 23128.00
115.2200, 22491.00
116.4580, 21878.00
117.6970, 23953.00
118.9350, 26370.00
120.1730, 25302.00
121.4100, 24809.00
122.6480, 25112.00
123.8850, 24930.00
125.1230, 25168.00
126.3600, 26101.00
127.5960, 28435.00
128.8330, 30282.00
130.0700, 32135.00
131.3060, 34275.00
132.5420, 36097.00
133.7780, 37282.00
135.0140, 39059.00
136.2500, 41419.00
137.4850, 42446.00
138.7200, 44163.00
139.9550, 45198.00
141.1900, 45330.00
142.4250, 43190.00
143.6600, 41430.00
144.8940, 40552.00
146.1280, 39529.00
147.3620, 37302.00
148.5960, 36016.00
149.8300, 35752.00
151.0630, 36137.00
152.2960, 35244.00
153.5300, 34175.00
154.7620, 34369.00
155.9950, 33872.00
157.2280, 34524.00
158.4600, 33716.00
159.6920, 34391.00
160.9250, 35012.00
162.1560, 34520.00
163.3880, 35762.00
164.6200, 36060.00
165.8510, 35870.00
167.0820, 36584.00
168.3130, 36349.00
169.5440, 35171.00
170.7750, 34688.00
172.0050, 34330.00
173.2350, 35018.00
174.4650, 35362.00
175.6950, 35138.00
176.9250, 34907.00
178.1550, 34450.00
179.3840, 34137.00
180.6130, 34719.00
181.8420, 34659.00
183.0710, 34711.00
184.3000, 35403.00
185.5280, 36329.00
186.7570, 37935.00
187.9850, 38018.00
189.2130, 38278.00
190.4400, 38065.00
191.6680, 38055.00
192.8960, 39337.00
194.1230, 39999.00
195.3500, 40977.00
196.5770, 41124.00
197.8030, 41814.00
199.0300, 41946.00
200.2560, 42250.00
201.4830, 43310.00
202.7090, 43031.65
203.9340, 43714.00
205.1600, 43240.00
206.3860, 43754.00
207.6110, 44413.00
208.8360, 45410.00
210.0610, 46181.00
211.2860, 46031.00
212.5100, 46759.00
213.7350, 46691.00
214.9590, 46003.00
216.1830, 46388.00
217.4070, 45874.00
218.6310, 45271.00
219.8540, 45155.00
221.0780, 45249.00
222.3010, 44553.00
223.5240, 44380.47
224.7470, 43917.00
225.9690, 43483.00
227.1920, 42605.00
228.4140, 42032.00
229.6360, 41160.00
230.8580, 40747.00
232.0800, 40538.00
233.3020, 40300.00
234.5230, 39263.00
235.7440, 37913.00
236.9650, 36594.00
238.1860, 36625.00
239.4070, 35931.00
240.6280, 35638.00
241.8480, 34438.00
243.0680, 32851.00
244.2880, 31867.00
245.5080, 31220.00
246.7280, 30483.00
247.9470, 29667.00
249.1660, 29232.00
250.3860, 28657.29
251.6040, 28091.02
252.8230, 27930.00
254.0420, 27354.00
255.2600, 27260.00
256.4790, 27522.00
257.6970, 28397.00
258.9150, 29265.00
260.1320, 28418.00
261.3500, 27342.00
262.5670, 26869.00
263.7840, 27191.00
265.0010, 27152.00
266.2180, 27275.00
267.4350, 26860.00
268.6510, 26988.00
269.8680, 26677.00
271.0840, 26568.00
272.3000, 26003.00
273.5160, 26220.00
274.7310, 26262.00
275.9470, 25960.00
277.1620, 25070.00
278.3770, 25124.00
279.5920, 24968.00
280.8070, 24814.00
282.0210, 24833.00
283.2360, 24553.00
284.4500, 24115.00
285.6640, 24123.00
286.8780, 23958.00
288.0920, 24122.00
289.3050, 23946.00
290.5180, 24128.00
291.7320, 24091.00
292.9450, 23671.00
294.1570, 23589.00
295.3700, 23588.00
296.5830, 24071.00
297.7950, 23971.00
299.0070, 24021.00
300.2190, 24206.00
301.4310, 24109.00
302.6420, 24120.00
303.8540, 24099.00
305.0650, 24019.00
306.2760, 24104.00
307.4870, 24106.00
308.6980, 24561.00
309.9080, 24663.00
311.1190, 24392.00
312.3290, 24186.00
313.5390, 24169.26
314.7490, 24666.00
315.9580, 23914.00
317.1680, 24279.00
318.3770, 24006.00
319.5860, 23997.00
320.7950, 23853.00
322.0040, 23672.80
323.2130, 22763.00
324.4210, 23155.00
325.6290, 23182.00
326.8380, 22532.00
328.0460, 23025.00
329.2530, 22571.00
330.4610, 21800.00
331.6680, 22203.00
332.8760, 21888.00
334.0830, 22078.00
335.2890, 21978.00
336.4960, 21819.00
337.7030, 21808.00
338.9090, 21729.00
340.1150, 21597.00
341.3210, 21722.00
342.5270, 21582.00
343.7330, 21708.00
344.9380, 22032.00
346.1440, 22151.00
347.3490, 21950.00
348.5540, 21967.00
349.7590, 22662.00
350.9630, 23328.00
352.1680, 23182.00
353.3720, 23332.79
354.5760, 22509.00
355.7800, 22795.00
356.9840, 22757.00
358.1870, 22314.00
359.3910, 22463.00
360.5940, 22529.00
361.7970, 22408.00
363.0000, 21985.00
364.2030, 21952.00
365.4050, 22055.00
366.6080, 21756.00
367.8100, 21746.00
369.0120, 21953.00
370.2140, 21479.00
371.4150, 21148.00
372.6170, 21078.00
373.8180, 21305.00
375.0190, 20926.00
376.2200, 20916.00
377.4210, 20571.00
378.6220, 20158.00
379.8220, 20328.00
381.0230, 20442.00
382.2230, 19774.00
383.4230, 19535.00
384.6220, 19521.36
385.8220, 19736.00
387.0220, 19498.00
388.2210, 19661.00
389.4200, 19756.00
390.6190, 19234.00
391.8180, 19135.00
393.0160, 19132.00
394.2150, 19037.00
395.4130, 18686.00
396.6110, 18635.00
397.8090, 18442.00
399.0060, 18489.00
400.2040, 18419.00
401.4010, 18420.00
402.5980, 18423.00
403.7950, 18322.00
404.9920, 18346.00
406.1890, 18369.00
407.3860, 18527.00
408.5820, 18367.00
409.7780, 18558.00
410.9740, 18461.00
412.1700, 18881.00
413.3650, 19280.00
414.5610, 18995.00
415.7560, 19368.00
416.9510, 19342.00
418.1460, 19628.00
419.3410, 19886.00
420.5360, 20489.00
421.7300, 20447.00
422.9240, 20768.00
424.1180, 20717.00
425.3120, 20744.97
426.5060, 20732.10
427.7000, 20754.00
428.8930, 20607.00
430.0860, 20731.00
431.2790, 20860.00
432.4720, 20307.00
433.6650, 20326.00
434.8580, 20098.00
436.0500, 19831.00
437.2420, 19428.00
438.4340, 19283.00
439.6260, 19231.00
440.8180, 19162.00
442.0090, 19045.26
443.2010, 18956.00
444.3920, 18842.00
445.5830, 18667.00
446.7740, 18553.00
447.9640, 19030.00
449.1550, 19076.00
450.3450, 18689.00
451.5350, 18361.00
452.7250, 18507.00
453.9150, 18631.00
455.1050, 18779.00
456.2940, 18422.00
457.4830, 18298.00
458.6720, 18476.00
459.8610, 18718.00
461.0500, 18874.00
462.2390, 18995.00
463.4270, 18626.00
464.6150, 18722.00
465.8040, 18729.00
466.9910, 18686.00
468.1790, 18669.00
469.3670, 18714.00
470.5540, 18707.89
471.7410, 18759.00
472.9280, 18768.38
474.1150, 18741.00
475.3020, 18781.00
476.4890, 18748.00
477.6750, 18441.00
478.8610, 18704.00
480.0470, 18698.00
481.2330, 18901.00
482.4190, 19060.00
483.6040, 19372.00
484.7900, 19726.00
485.9750, 19606.00
487.1600, 19587.00
488.3450, 19838.00
489.5290, 19931.00
490.7140, 20103.00
491.8980, 20041.00
493.0820, 20177.00
494.2660, 20378.00
495.4500, 20424.00
496.6340, 20575.00
497.8170, 20851.00
499.0010, 21126.00
500.1840, 21166.00
501.3670, 21428.00
502.5500, 21598.00
503.7320, 21244.00
504.9150, 21436.00
506.0970, 21446.00
507.2790, 21309.00
508.4610, 21358.00
509.6430, 21322.00
510.8250, 21669.00
512.0060, 22102.00
513.1870, 22052.00
514.3680, 22393.21
515.5490, 22581.28
516.7300, 22723.00
517.9110, 22924.00
519.0910, 23028.00
520.2710, 23060.00
521.4510, 23376.00
522.6310, 23603.00
523.8110, 24351.00
524.9910, 24547.00
526.1700, 24908.00
527.3490, 25681.00
528.5280, 25800.00
529.7070, 26058.00
530.8860, 25899.00
532.0650, 26026.00
533.2430, 26196.00
534.4210, 26134.00
535.5990, 26482.00
536.7770, 26765.00
537.9550, 26761.00
539.1320, 26669.00
540.3100, 26580.00
541.4870, 25882.00
542.6640, 25741.00
543.8410, 25679.00
545.0170, 25672.00
546.1940, 25754.00
547.3700, 25301.00
548.5470, 25265.00
549.7230, 24711.00
550.8980, 24147.00
552.0740, 24160.00
553.2500, 24197.00
554.4250, 24432.00
555.6000, 24463.00
556.7750, 24719.00
557.9500, 24579.00
559.1250, 24609.00
560.2990, 25167.00
561.4730, 25483.00
562.6480, 25140.00
563.8220, 25053.00
564.9950, 24830.00
566.1690, 24942.00
567.3430, 24931.00
568.5160, 24511.00
569.6890, 24683.00
570.8620, 24339.00
572.0350, 23463.00
573.2070, 22349.00
574.3800, 21700.00
575.5520, 21042.00
576.7240, 20397.00
577.8960, 20067.00
579.0680, 19255.00
580.2400, 18765.00
581.4110, 18528.00
582.5830, 17948.00
583.7540, 17425.00
584.9250, 16971.00
586.0950, 16905.00
587.2660, 16921.00
588.4370, 16609.00
589.6070, 16517.00
590.7770, 16526.00
591.9470, 16446.00
593.1170, 16433.99
594.2860, 16261.00
595.4560, 16359.00
596.6250, 16362.00
597.7940, 16225.00
598.9630, 16312.00
600.1320, 16106.00
601.3000, 16171.16
602.4690, 16417.00
603.6370, 16267.00
604.8050, 16266.00
605.9730, 16394.00
607.1410, 16377.32
608.3090, 16311.00
609.4760, 16561.00
610.6430, 16724.00
611.8100, 16879.00
612.9770, 16677.00
614.1440, 16857.00
615.3110, 16904.00
616.4770, 17258.00
617.6430, 17519.00
618.8090, 17469.00
619.9750, 17732.00
621.1410, 17944.00
622.3070, 17673.00
623.4720, 17981.00
624.6370, 18218.00
625.8020, 18379.00
626.9670, 18587.00
628.1320, 18941.00
629.2970, 19169.00
630.4610, 19486.00
631.6250, 19905.00
632.7890, 20287.00
633.9530, 20643.00
635.1170, 20969.00
636.2810, 21510.00
637.4440, 22048.17
638.6070, 22644.00
639.7700, 23456.00
640.9330, 24176.00
642.0960, 25184.00
643.2590, 25948.00
644.4210, 27289.00
645.5830, 28619.00
646.7450, 29855.00
647.9070, 31765.00
649.0690, 33659.00
650.2310, 36102.00
651.3920, 38017.00
652.5530, 40882.00
653.7140, 43483.00
654.8750, 46209.00
656.0360, 49310.00
657.1970, 51848.00
658.3570, 54813.00
659.5170, 56976.00
660.6770, 58612.00
661.8370, 59596.00
662.9970, 59879.00
664.1570, 59534.41
665.3160, 58563.00
666.4750, 56783.00
667.6340, 54334.00
668.7930, 51181.00
669.9520, 47611.00
671.1110, 44191.00
672.2690, 40273.00
673.4270, 37008.00
674.5850, 33870.00
675.7430, 30928.00
676.9010, 28774.00
678.0590, 26973.00
679.2160, 25330.00
680.3730, 23793.00
681.5300, 22962.00
682.6870, 22079.00
683.8440, 21139.00
685.0010, 20658.00
686.1570, 20140.00
687.3130, 19580.00
688.4690, 19306.00
689.6250, 19259.00
690.7810, 19040.00
691.9370, 18790.20
693.0920, 18453.00
694.2470, 18353.00
695.4020, 18013.00
696.5570, 17980.00
697.7120, 17855.00
698.8670, 17746.00
700.0210, 17575.00
701.1750, 17512.00
702.3290, 17404.00
703.4830, 17637.00
704.6370, 17632.00
705.7910, 17436.00
706.9440, 17296.00
708.0970, 17301.00
709.2510, 17065.00
710.4030, 17080.00
711.5560, 17110.00
712.7090, 17070.00
713.8610, 17012.49
715.0140, 17031.00
716.1660, 16811.00
717.3180, 16781.00
718.4690, 16637.00
719.6210, 16727.00
720.7730, 16455.00
721.9240, 16510.00
723.0750, 16424.00
724.2260, 16449.00
725.3770, 16364.00
726.5270, 16375.00
727.6780, 16341.00
728.8280, 16339.00
729.9780, 16294.71
731.1280, 16203.00
732.2780, 16189.00
733.4280, 16063.00
734.5770, 15986.00
735.7260, 15955.00
736.8760, 15921.00
738.0250, 16032.00
739.1730, 15773.00
740.3220, 15925.00
741.4700, 15803.00
742.6190, 15783.00
743.7670, 15850.00
744.9150, 15685.00
746.0630, 15841.00
747.2100, 15754.00
748.3580, 15738.00
749.5050, 15625.00
750.6520, 15559.00
751.7990, 15545.00
752.9460, 15577.00
754.0930, 15573.00
755.2390, 15708.00
756.3860, 15672.00
757.5320, 15721.00
758.6780, 15670.00
759.8240, 15740.00
760.9690, 15711.54
762.1150, 15693.87
763.2600, 15653.00
764.4060, 15698.00
765.5510, 15609.00
766.6950, 15721.00
767.8400, 15627.00
768.9850, 15688.00
770.1290, 15767.00
771.2730, 15604.00
772.4170, 15507.00
773.5610, 15434.00
774.7050, 15414.00
775.8480, 15458.00
776.9920, 15534.00
778.1350, 15284.00
779.2780, 15482.00
780.4210, 15370.00
781.5640, 15347.00
782.7060, 15397.00
783.8490, 15343.00
784.9910, 15324.00
786.1330, 15278.00
787.2750, 15576.00
788.4170, 15502.00
789.5580, 15556.00
790.7000, 15468.00
791.8410, 15579.00
792.9820, 15316.00
794.1230, 15311.00
795.2640, 15413.00
796.4040, 15370.00
797.5450, 15459.00
798.6850, 15565.00
799.8250, 15415.00
800.9650, 15437.00
802.1050, 15512.00
803.2450, 15351.00
804.3840, 15289.00
805.5230, 15213.00
806.6630, 15225.00
807.8020, 15145.69
808.9400, 15047.00
810.0790, 15064.00
811.2170, 15031.24
812.3560, 15039.00
813.4940, 14992.00
814.6320, 15062.00
815.7700, 14994.00
816.9070, 14960.00
818.0450, 14988.00
819.1820, 15088.00
820.3190, 14878.00
821.4560, 14871.00
822.5930, 14973.00
823.7300, 14887.00
824.8670, 14862.00
826.0030, 14871.00
827.1390, 14887.00
828.2750, 14806.00
829.4110, 14917.00
830.5470, 14892.00
831.6820, 14945.00
832.8180, 14870.00
833.9530, 14965.00
835.0880, 14957.00
836.2230, 14935.00
837.3580, 14944.00
838.4920, 14976.00
839.6270, 14974.21
840.7610, 14897.00
841.8950, 15023.00
843.0290, 14995.00
844.1630, 15053.00
845.2960, 15150.00
846.4300, 15216.00
847.5630, 14987.00
848.6960, 15008.00
849.8290, 15119.00
850.9620, 15226.00
852.0940, 15288.00
853.2270, 15300.00
854.3590, 15372.27
855.4910, 15503.00
856.6230, 15424.00
857.7550, 15452.00
858.8870, 15416.00
860.0180, 15678.00
861.1500, 15638.00
862.2810, 15853.00
863.4120, 15721.00
864.5430, 15857.00
865.6730, 15799.00
866.8040, 15897.00
867.9340, 15980.00
869.0640, 15878.00
870.1940, 15975.00
871.3240, 15857.00
872.4540, 16061.00
873.5830, 16191.00
874.7130, 16316.00
875.8420, 16349.21
876.9710, 16154.00
878.1000, 16288.00
879.2290, 16364.00
880.3570, 16233.00
881.4860, 16404.00
882.6140, 16628.00
883.7420, 16687.00
884.8700, 16475.00
885.9980, 16867.00
887.1250, 16855.00
888.2530, 16917.00
889.3800, 17254.00
890.5070, 16938.00
891.6340, 17245.00
892.7610, 17277.00
893.8880, 17488.00
895.0140, 17279.00
896.1400, 17579.00
897.2670, 17527.00
898.3930, 17800.00
899.5180, 17869.00
900.6440, 17804.00
901.7700, 18005.00
902.8950, 18033.00
904.0200, 18120.00
905.1450, 18354.00
906.2700, 18377.00
907.3950, 18524.00
908.5190, 18673.00
909.6440, 18790.00
910.7680, 18877.49
911.8920, 18926.00
913.0160, 18973.00
914.1400, 19056.00
915.2630, 19016.00
916.3870, 19088.00
917.5100, 19222.00
918.6330, 19085.00
919.7560, 19270.00
920.8790, 19208.00
922.0010, 19202.00
923.1240, 19164.00
924.2460, 19166.00
925.3680, 19163.00
926.4900, 19216.00
927.6120, 18930.00
928.7340, 19336.00
929.8550, 18913.00
930.9760, 18894.00
932.0980, 18969.00
933.2190, 18843.00
934.3390, 18914.00
935.4600, 18854.00
936.5810, 18806.00
937.7010, 18873.00
938.8210, 19149.00
939.9410, 19064.00
941.0610, 19142.00
942.1810, 19331.00
943.3010, 19301.00
944.4200, 19387.00
945.5390, 19392.00
946.6580, 19455.00
947.7770, 19478.30
948.8960, 19573.00
950.0150, 19569.00
951.1330, 19772.00
952.2510, 19941.00
953.3690, 19909.00
954.4870, 20060.00
955.6050, 20354.00
956.7230, 20320.23
957.8400, 20551.00
958.9580, 20458.00
960.0750, 20719.00
961.1920, 20857.00
962.3090, 20776.00
963.4250, 20927.00
964.5420, 21019.00
965.6580, 20963.00
966.7740, 21019.00
967.8900, 21001.37
969.0060, 20935.00
970.1220, 20988.00
971.2380, 20989.00
972.3530, 21044.00
973.4680, 20953.00
974.5830, 20913.00
975.6980, 20863.00
976.8130, 20861.00
977.9280, 20947.00
979.0420, 20845.00
980.1560, 20590.00
981.2710, 20661.00
982.3850, 20763.00
983.4980, 20559.00
984.6120, 20781.00
985.7260, 20623.00
986.8390, 20519.00
987.9520, 20346.00
989.0650, 20548.00
990.1780, 20321.00
991.2910, 20526.00
992.4030, 20325.00
993.5160, 20366.00
994.6280, 20599.00
995.7400, 20566.00
996.8520, 20656.00
997.9640, 20821.00
999.0750, 20836.00
1000.187, 20922.00
1001.298, 20759.00
1002.409, 21013.00
1003.520, 20892.00
1004.631, 21314.00
1005.741, 21254.00
1006.852, 21396.00
1007.962, 21781.00
1009.072, 21720.00
1010.182, 22169.00
1011.292, 22098.00
1012.402, 22166.00
1013.511, 22506.00
1014.621, 22655.00
1015.730, 22954.00
1016.839, 23198.00
1017.948, 23358.00
1019.056, 23666.00
1020.165, 23870.00
1021.273, 24188.00
1022.382, 24736.00
1023.490, 24827.00
1024.598, 25165.00
1025.706, 25653.00
1026.813, 25855.00
1027.921, 26620.00
1029.028, 26902.00
1030.135, 27403.00
1031.242, 27418.00
1032.349, 27879.00
1033.456, 28345.00
1034.562, 28257.00
1035.668, 28652.00
1036.775, 28786.00
1037.881, 28690.00
1038.987, 28842.00
1040.092, 28878.00
1041.198, 28929.00
1042.303, 28725.00
1043.408, 28425.00
1044.514, 28436.00
1045.618, 28343.00
1046.723, 27727.00
1047.828, 27886.00
1048.932, 27461.00
1050.037, 27386.00
1051.141, 26957.00
1052.245, 26817.00
1053.349, 26734.00
1054.452, 26357.00
1055.556, 26253.00
1056.659, 25941.00
1057.762, 25857.00
1058.865, 25865.00
1059.968, 25687.00
1061.071, 25560.32
1062.174, 25294.00
1063.276, 25180.00
1064.378, 24946.00
1065.480, 24716.00
1066.582, 24588.23
1067.684, 24291.00
1068.786, 24304.00
1069.887, 24059.00
1070.988, 23955.00
1072.090, 23654.00
1073.191, 23252.00
1074.291, 23164.00
1075.392, 22877.00
1076.493, 22757.00
1077.593, 22565.00
1078.693, 22211.00
1079.793, 22091.00
1080.893, 21804.00
1081.993, 21708.00
1083.092, 21183.00
1084.192, 20987.00
1085.291, 20562.00
1086.390, 20218.00
1087.489, 20285.00
1088.588, 20123.00
1089.686, 19868.00
1090.785, 19819.00
1091.883, 19439.00
1092.981, 19214.00
1094.079, 19074.00
1095.177, 19016.00
1096.275, 18871.77
1097.373, 18914.00
1098.470, 18701.00
1099.567, 18726.00
1100.664, 18653.00
1101.761, 18707.00
1102.858, 18395.00
1103.954, 18290.00
1105.051, 18358.00
1106.147, 18304.00
1107.243, 18319.00
1108.339, 18330.00
1109.435, 18360.00
1110.531, 18281.30
1111.626, 18116.00
1112.722, 18104.00
1113.817, 17985.00
1114.912, 17875.00
1116.007, 17963.00
1117.101, 17969.00
1118.196, 17896.00
1119.290, 17945.00
1120.385, 17920.00
1121.479, 17665.00
1122.573, 17573.00
1123.666, 17456.83
1124.760, 17412.00
1125.853, 17241.00
1126.947, 17053.00
1128.040, 16969.00
1129.133, 16803.82
1130.226, 16707.77
1131.318, 16576.00
1132.411, 16533.00
1133.503, 16493.00
1134.596, 16433.89
1135.688, 16038.00
1136.780, 16167.00
1137.871, 16096.00
1138.963, 15704.00
1140.054, 15733.00
1141.146, 15594.00
1142.237, 15513.00
1143.328, 15396.00
1144.419, 15285.14
1145.509, 15180.38
1146.600, 15055.00
1147.690, 14966.00
1148.780, 14825.00
1149.870, 14740.00
1150.960, 14669.00
1152.050, 14582.00
1153.139, 14564.50
1154.229, 14782.00
1155.318, 14545.00
1156.407, 14566.26
1157.496, 14568.86
1158.585, 14439.00
1159.674, 14478.00
1160.762, 14633.00
1161.850, 14350.00
1162.939, 14426.00
1164.027, 14425.00
1165.114, 14315.00
1166.202, 14414.00
1167.290, 14379.00
1168.377, 14303.00
1169.464, 14361.00
1170.551, 14399.00
1171.638, 14510.00
1172.725, 14336.00
1173.812, 14422.00
1174.898, 14217.00
1175.984, 14276.00
1177.071, 14311.00
1178.157, 14353.00
1179.242, 14367.23
1180.328, 14347.62
1181.414, 14381.00
1182.499, 14271.00
1183.584, 14271.00
1184.669, 14223.00
1185.754, 14328.00
1186.839, 14210.00
1187.924, 14241.87
1189.008, 14213.20
1190.092, 14208.00
1191.177, 14203.00
1192.260, 14152.00
1193.344, 14279.00
1194.428, 14162.00
1195.512, 14154.00
1196.595, 14091.00
1197.678, 13999.00
1198.761, 14042.41
1199.844, 14217.00
1200.927, 14147.00
1202.009, 14280.00
1203.092, 14446.00
1204.174, 14338.46
1205.256, 14368.89
1206.338, 14226.00
1207.420, 14206.00
1208.502, 14161.00
1209.583, 14063.00
1210.665, 14075.00
1211.746, 14153.00
1212.827, 14119.00
1213.908, 14247.00
1214.988, 14137.00
1216.069, 14291.00
1217.149, 14178.00
1218.230, 13969.00
1219.310, 14199.00
1220.390, 14070.00
1221.470, 14105.00
1222.549, 14287.00
1223.629, 14133.00
1224.708, 14057.00
1225.787, 14125.00
1226.866, 14137.00
1227.945, 14270.00
1229.024, 14003.00
1230.103, 14258.00
1231.181, 14099.00
1232.259, 14065.00
1233.337, 14259.00
1234.415, 14115.00
1235.493, 14287.00
1236.571, 14202.00
1237.648, 14159.00
1238.726, 14162.00
1239.803, 14119.00
1240.880, 14125.00
1241.957, 14212.00
1243.034, 14194.96
1244.110, 14218.00
1245.187, 14267.00
1246.263, 14182.00
1247.339, 14250.00
1248.415, 14121.00
1249.491, 14340.00
1250.566, 14174.00
1251.642, 14331.00
1252.717, 14090.00
1253.793, 14100.00
1254.868, 14191.00
1255.943, 14289.00
1257.017, 14124.00
1258.092, 14240.00
1259.166, 14136.00
1260.241, 14162.00
1261.315, 14151.00
1262.389, 14018.00
1263.462, 14056.00
1264.536, 14052.00
1265.610, 14024.00
1266.683, 14044.00
1267.756, 14169.00
1268.829, 13997.00
1269.902, 14182.00
1270.975, 14108.00
1272.048, 14097.00
1273.120, 14205.00
1274.192, 14065.00
1275.264, 14209.00
1276.336, 14288.00
1277.408, 14217.00
1278.480, 14068.00
1279.551, 14123.00
1280.623, 14130.00
1281.694, 14132.00
1282.765, 14047.00
1283.836, 14125.00
1284.907, 14216.00
1285.977, 14112.00
1287.048, 14122.00
1288.118, 14233.00
1289.188, 14271.00
1290.258, 14042.00
1291.328, 14159.00
1292.398, 14169.00
1293.467, 14251.00
1294.537, 14216.81
1295.606, 14140.00
1296.675, 14154.00
1297.744, 14163.00
1298.813, 14211.00
1299.882, 14152.00
1300.950, 14074.00
1302.018, 13940.00
1303.086, 14148.00
1304.155, 14226.00
1305.222, 14158.00
1306.290, 14323.00
1307.358, 14373.00
1308.425, 14128.00
1309.492, 14213.00
1310.559, 14016.00
1311.626, 14264.00
1312.693, 14200.00
1313.760, 14062.00
1314.826, 14255.00
1315.893, 14042.00
1316.959, 14180.00
1318.025, 14208.00
1319.091, 14042.00
1320.157, 14147.00
1321.222, 14136.00
1322.288, 14139.00
1323.353, 14131.00
1324.418, 14112.00
1325.483, 14074.00
1326.548, 14019.00
1327.612, 14040.29
1328.677, 14093.00
1329.741, 14085.00
1330.806, 14032.00
1331.870, 14075.00
1332.934, 14038.00
1333.997, 14209.00
1335.061, 14168.00
1336.124, 14175.00
1337.188, 14069.00
1338.251, 14096.00
1339.314, 14139.00
1340.377, 14107.53
1341.439, 14154.23
1342.502, 14088.00
1343.564, 14175.00
1344.627, 14081.00
1345.689, 14019.00
1346.751, 14186.00
1347.813, 14024.00
1348.874, 14213.00
1349.936, 14086.00
1350.997, 14179.00
1352.058, 14043.00
1353.119, 14181.00
1354.180, 14106.00
1355.241, 14019.00
1356.301, 14021.00
1357.362, 13974.00
1358.422, 14123.00
1359.482, 13998.00
1360.542, 14008.00
1361.602, 14129.00
1362.662, 13957.00
1363.721, 14141.00
1364.781, 14137.00
1365.840, 13947.00
1366.899, 14059.00
1367.958, 14065.00
1369.017, 14024.00
1370.075, 14103.00
1371.134, 13947.00
1372.192, 14048.00
1373.250, 14141.00
1374.308, 14047.00
1375.366, 14047.00
1376.424, 13898.00
1377.481, 14119.00
1378.539, 14056.00
1379.596, 13980.00
1380.653, 14001.00
1381.710, 13913.00
1382.767, 14097.00
1383.824, 13972.00
1384.880, 14045.00
1385.937, 14037.00
1386.993, 14058.00
1388.049, 14110.79
1389.105, 14104.88
1390.161, 14142.00
1391.216, 14150.00
1392.272, 14040.00
1393.327, 14097.00
1394.382, 14090.00
1395.437, 14129.00
1396.492, 14163.00
1397.547, 13931.00
1398.601, 14057.00
1399.656, 14184.00
1400.710, 13934.00
1401.764, 14184.00
1402.818, 14136.00
1403.872, 14200.00
1404.925, 14016.00
1405.979, 14182.00
1407.032, 14047.00
1408.085, 14092.00
1409.139, 14074.00
1410.191, 14118.00
1411.244, 14278.00
1412.297, 14190.00
1413.349, 13948.00
1414.402, 14159.00
1415.454, 14055.00
1416.506, 13997.00
1417.558, 14011.00
1418.609, 13958.00
1419.661, 14033.00
1420.712, 13956.00
1421.764, 14004.00
1422.815, 14063.00
1423.866, 14023.00
1424.916, 14194.00
1425.967, 13998.00
1427.018, 14178.00
1428.068, 14124.00
1429.118, 14079.00
1430.168, 14114.00
1431.218, 14079.73
1432.268, 14079.12
1433.318, 14101.00
1434.367, 14071.00
1435.416, 14126.00
1436.465, 14127.00
1437.514, 14091.00
1438.563, 14080.00
1439.612, 13976.00
1440.661, 14015.00
1441.709, 14077.00
1442.757, 14121.00
1443.805, 14024.00
1444.853, 13967.00
1445.901, 14022.00
1446.949, 14008.00
1447.996, 14038.00
1449.044, 14063.00
1450.091, 13976.00
1451.138, 14018.00
1452.185, 14105.00
1453.232, 14000.00
1454.278, 13968.00
1455.325, 13974.00
1456.371, 14143.00
1457.417, 14043.00
1458.463, 13914.00
1459.509, 14112.00
1460.555, 14042.00
1461.601, 14020.00
1462.646, 14157.00
1463.691, 14097.00
1464.737, 14080.00
1465.782, 14011.00
1466.826, 14145.00
1467.871, 14054.00
1468.916, 14139.00
1469.960, 14050.00
1471.004, 13955.00
1472.048, 14117.00
1473.092, 13995.00
1474.136, 14166.00
1475.180, 14102.00
1476.223, 14134.00
1477.267, 14179.00
1478.310, 14056.00
1479.353, 14153.00
1480.396, 13979.00
1481.439, 14024.00
1482.481, 14096.00
1483.524, 13888.00
1484.566, 14203.00
1485.608, 14042.00
1486.650, 14035.00
1487.692, 14075.00
1488.734, 14125.00
1489.775, 14146.00
1490.817, 14095.00
1491.858, 14138.00
1492.899, 14085.50
1493.940, 13966.00
1494.981, 14041.00
1496.022, 14048.00
1497.062, 14114.00
1498.103, 13997.00
1499.143, 14106.00
1500.183, 13982.00
1501.223, 14025.00
1502.263, 13866.00
1503.302, 14045.00
1504.342, 14181.00
1505.381, 14063.00
1506.420, 14092.00
1507.459, 14003.00
1508.498, 13975.00
1509.537, 14049.00
1510.576, 13953.00
1511.614, 14003.00
1512.652, 14091.00
1513.691, 14057.00
1514.729, 14095.00
1515.767, 14069.00
1516.804, 14071.77
1517.842, 14095.50
1518.879, 14059.00
1519.917, 14104.00
1520.954, 14080.00
1521.991, 14016.00
1523.028, 14102.00
1524.064, 13908.00
1525.101, 14015.00
1526.137, 13944.00
1527.173, 14016.00
1528.210, 14198.00
1529.245, 14018.00
1530.281, 14083.00
1531.317, 14033.00
1532.352, 14211.00
1533.388, 14121.00
1534.423, 14080.00
1535.458, 13908.00
1536.493, 14159.00
1537.528, 14106.00
1538.562, 14180.00
1539.597, 13997.00
1540.631, 14092.00
1541.665, 14133.00
1542.700, 13890.46
1543.733, 14121.03
1544.767, 14250.61
1545.801, 14284.63
1546.834, 13936.88
1547.868, 14082.11
1548.901, 14029.78
1549.934, 13969.34
1550.967, 14183.96
1551.999, 13891.74
1553.032, 14101.99
1554.064, 14111.66
1555.097, 14213.14
1556.129, 14115.83
1557.161, 14079.92
1558.193, 14242.85
1559.224, 14295.68
1560.256, 13999.00
1561.287, 14000.00
1562.318, 14007.00
##END=



