##NAMES=Riebeckite
##RRUFFID=R050082
##IDEAL CHEMISTRY=[box]Na_2_(Fe^2+^_3_Fe^3+^_2_)Si_8_O_22_(OH)_2_
##LOCALITY=Mt. Malosa, Zomba, Chilwa, Alkaline Area, Malawi
##OWNER=RRUFF
##SOURCE=Rock Currier
##DESCRIPTION=Black elongated prisms
##STATUS=The identification of this mineral has been confirmed by X-ray diffraction and chemical analysis
##URL=rruff.info/R050082
##MEASURED CHEMISTRY=([box]_0.63_Na_0.19_K_0.18_)(Na_1.58_Ca_0.42_)_Σ=2_Fe^2+^_3.00_(Fe^3+^_1.30_Fe^2+^_0.45_Mn_0.15_Mg_0.05_Ti_0.05_)_Σ=2_(Si_0.98_Al_0.02_)_8_O_22_(OH)_2_
##PIN_ID=L00416
##ORIENTATION=Laser parallel to (-1 0 -1). Fiducial mark perpendicular to laser is parallel to b [0 1 0]
154.7620, 42048.00
155.9950, 42101.00
157.2280, 41521.00
158.4600, 41750.00
159.6920, 42227.00
160.9250, 42556.00
162.1560, 43506.00
163.3880, 44481.00
164.6200, 45437.00
165.8510, 45682.00
167.0820, 45588.00
168.3130, 45521.00
169.5440, 45242.00
170.7750, 45136.57
172.0050, 45015.00
173.2350, 44778.00
174.4650, 44544.00
175.6950, 44362.00
176.9250, 44552.00
178.1550, 44889.00
179.3840, 45201.00
180.6130, 45116.00
181.8420, 45865.00
183.0710, 46330.00
184.3000, 46994.00
185.5280, 48133.00
186.7570, 49690.00
187.9850, 50681.00
189.2130, 51545.00
190.4400, 52618.00
191.6680, 53535.00
192.8960, 53998.00
194.1230, 54718.00
195.3500, 54990.00
196.5770, 54754.00
197.8030, 54492.66
199.0300, 54191.37
200.2560, 52999.00
201.4830, 52741.00
202.7090, 51683.00
203.9340, 49895.00
205.1600, 47018.00
206.3860, 46244.00
207.6110, 44621.00
208.8360, 44196.00
210.0610, 44334.00
211.2860, 44294.00
212.5100, 45309.00
213.7350, 44928.89
214.9590, 45495.00
216.1830, 44535.00
217.4070, 43923.00
218.6310, 43233.00
219.8540, 43230.00
221.0780, 43364.00
222.3010, 42759.00
223.5240, 42610.00
224.7470, 42768.00
225.9690, 42347.00
227.1920, 42657.00
228.4140, 42390.00
229.6360, 42604.00
230.8580, 42454.00
232.0800, 42167.00
233.3020, 42154.00
234.5230, 42166.00
235.7440, 42000.00
236.9650, 41260.00
238.1860, 41324.00
239.4070, 40806.00
240.6280, 40837.00
241.8480, 40216.00
243.0680, 39834.00
244.2880, 39575.00
245.5080, 39168.00
246.7280, 39068.00
247.9470, 39004.00
249.1660, 39024.00
250.3860, 38896.00
251.6040, 38871.89
252.8230, 39051.44
254.0420, 39151.99
255.2600, 39177.77
256.4790, 38904.86
257.6970, 39017.65
258.9150, 38975.87
260.1320, 38927.75
261.3500, 39094.82
262.5670, 38865.36
263.7840, 39029.03
265.0010, 39035.76
266.2180, 39114.32
267.4350, 39037.36
268.6510, 39064.00
269.8680, 39230.00
271.0840, 38838.00
272.3000, 38865.00
273.5160, 38575.00
274.7310, 38994.00
275.9470, 38814.00
277.1620, 38720.00
278.3770, 38642.00
279.5920, 39283.00
280.8070, 38332.00
282.0210, 39083.00
283.2360, 38379.00
284.4500, 38537.00
285.6640, 38162.00
286.8780, 38130.00
288.0920, 38161.69
289.3050, 38290.00
290.5180, 38109.00
291.7320, 38178.00
292.9450, 38191.25
294.1570, 38031.00
295.3700, 38214.00
296.5830, 38178.00
297.7950, 38116.00
299.0070, 38258.00
300.2190, 38117.00
301.4310, 38511.00
302.6420, 38221.00
303.8540, 38514.00
305.0650, 38574.34
306.2760, 38808.53
307.4870, 38963.72
308.6980, 39044.14
309.9080, 38825.82
311.1190, 38993.25
312.3290, 39006.06
313.5390, 39012.54
314.7490, 39234.20
315.9580, 39059.29
317.1680, 39376.00
318.3770, 39584.00
319.5860, 39627.00
320.7950, 39590.00
322.0040, 39584.00
323.2130, 39606.00
324.4210, 39907.00
325.6290, 39835.00
326.8380, 39838.83
328.0460, 39863.29
329.2530, 39729.00
330.4610, 39729.00
331.6680, 39783.00
332.8760, 39693.00
334.0830, 39871.00
335.2890, 40030.00
336.4960, 40291.00
337.7030, 40409.35
338.9090, 40615.00
340.1150, 40769.00
341.3210, 40936.60
342.5270, 41269.00
343.7330, 41403.00
344.9380, 41768.00
346.1440, 42062.00
347.3490, 42157.00
348.5540, 42611.00
349.7590, 42636.00
350.9630, 42971.00
352.1680, 42735.00
353.3720, 43420.00
354.5760, 43378.00
355.7800, 43860.00
356.9840, 42977.00
358.1870, 43110.00
359.3910, 42918.00
360.5940, 42855.00
361.7970, 43164.00
363.0000, 42746.00
364.2030, 42841.00
365.4050, 42870.00
366.6080, 43005.00
367.8100, 42811.00
369.0120, 42688.00
370.2140, 42721.00
371.4150, 42527.00
372.6170, 42609.00
373.8180, 42473.02
375.0190, 42230.00
376.2200, 42236.00
377.4210, 42058.00
378.6220, 41863.00
379.8220, 41855.00
381.0230, 41590.00
382.2230, 41265.00
383.4230, 41269.00
384.6220, 40859.00
385.8220, 40895.00
387.0220, 40567.00
388.2210, 40208.00
389.4200, 39872.00
390.6190, 39823.62
391.8180, 39522.23
393.0160, 39395.80
394.2150, 39170.00
395.4130, 39130.00
396.6110, 38995.00
397.8090, 38867.00
399.0060, 38710.00
400.2040, 38663.00
401.4010, 38407.00
402.5980, 38349.00
403.7950, 38247.00
404.9920, 38276.00
406.1890, 38202.00
407.3860, 38004.00
408.5820, 38265.00
409.7780, 38141.00
410.9740, 38270.00
412.1700, 38290.00
413.3650, 38158.00
414.5610, 38566.00
415.7560, 38456.00
416.9510, 38895.00
418.1460, 38766.00
419.3410, 38999.00
420.5360, 39269.00
421.7300, 39648.00
422.9240, 39896.00
424.1180, 40073.00
425.3120, 40236.61
426.5060, 40350.46
427.7000, 40352.00
428.8930, 40420.00
430.0860, 40368.00
431.2790, 40210.00
432.4720, 40123.00
433.6650, 39797.00
434.8580, 39725.00
436.0500, 39546.76
437.2420, 39139.00
438.4340, 39249.00
439.6260, 39076.00
440.8180, 38909.00
442.0090, 39174.00
443.2010, 38872.00
444.3920, 38774.00
445.5830, 38705.00
446.7740, 38522.00
447.9640, 38741.00
449.1550, 38392.00
450.3450, 38565.00
451.5350, 38679.00
452.7250, 38514.00
453.9150, 38339.00
455.1050, 38311.00
456.2940, 38604.00
457.4830, 38524.00
458.6720, 38765.00
459.8610, 38463.00
461.0500, 38496.00
462.2390, 38427.00
463.4270, 38305.00
464.6150, 38421.00
465.8040, 38350.00
466.9910, 38431.00
468.1790, 38500.84
469.3670, 38364.00
470.5540, 38631.00
471.7410, 38637.00
472.9280, 38625.00
474.1150, 38434.00
475.3020, 38846.00
476.4890, 38746.00
477.6750, 38932.00
478.8610, 38608.00
480.0470, 38778.00
481.2330, 39099.00
482.4190, 39341.00
483.6040, 39497.00
484.7900, 39676.41
485.9750, 39688.00
487.1600, 39855.00
488.3450, 39977.00
489.5290, 39964.00
490.7140, 40205.00
491.8980, 40217.00
493.0820, 40550.00
494.2660, 40669.50
495.4500, 40843.00
496.6340, 40993.00
497.8170, 41139.00
499.0010, 41239.00
500.1840, 41444.00
501.3670, 41512.61
502.5500, 41708.00
503.7320, 41690.00
504.9150, 41838.00
506.0970, 41934.00
507.2790, 42135.00
508.4610, 42000.00
509.6430, 41965.00
510.8250, 42265.00
512.0060, 42449.00
513.1870, 42624.00
514.3680, 42804.00
515.5490, 42937.00
516.7300, 43010.34
517.9110, 43046.00
519.0910, 43036.00
520.2710, 43356.00
521.4510, 43258.00
522.6310, 43714.00
523.8110, 43913.00
524.9910, 44034.00
526.1700, 44715.00
527.3490, 44496.00
528.5280, 44894.00
529.7070, 45371.00
530.8860, 45629.00
532.0650, 46000.00
533.2430, 46066.00
534.4210, 46235.00
535.5990, 46222.00
536.7770, 46489.00
537.9550, 46517.00
539.1320, 46425.00
540.3100, 46403.00
541.4870, 46297.41
542.6640, 46200.00
543.8410, 46089.00
545.0170, 45809.00
546.1940, 45765.00
547.3700, 45540.00
548.5470, 45540.59
549.7230, 45458.75
550.8980, 45465.00
552.0740, 45477.00
553.2500, 45200.00
554.4250, 45402.00
555.6000, 45022.00
556.7750, 45257.00
557.9500, 44975.00
559.1250, 45151.00
560.2990, 45101.99
561.4730, 45035.00
562.6480, 45221.00
563.8220, 44819.00
564.9950, 45197.00
566.1690, 45009.00
567.3430, 44803.00
568.5160, 44620.00
569.6890, 44181.03
570.8620, 43839.86
572.0350, 43255.00
573.2070, 42902.00
574.3800, 42461.00
575.5520, 41904.00
576.7240, 41560.50
577.8960, 41106.00
579.0680, 40768.00
580.2400, 40337.00
581.4110, 39969.00
582.5830, 39642.00
583.7540, 39206.00
584.9250, 38964.00
586.0950, 38925.00
587.2660, 38621.05
588.4370, 38531.00
589.6070, 38380.00
590.7770, 38221.00
591.9470, 38322.00
593.1170, 37808.00
594.2860, 38113.00
595.4560, 38144.00
596.6250, 38044.00
597.7940, 38320.00
598.9630, 38183.00
600.1320, 38038.00
601.3000, 37852.00
602.4690, 38271.00
603.6370, 38134.00
604.8050, 38276.00
605.9730, 38009.20
607.1410, 38265.06
608.3090, 38441.92
609.4760, 38543.95
610.6430, 38347.28
611.8100, 38536.32
612.9770, 38570.78
614.1440, 38598.90
615.3110, 38842.21
616.4770, 38688.93
617.6430, 38889.00
618.8090, 38970.00
619.9750, 38902.00
621.1410, 39033.00
622.3070, 39105.39
623.4720, 39288.00
624.6370, 39354.00
625.8020, 39423.00
626.9670, 39587.00
628.1320, 39843.00
629.2970, 40214.00
630.4610, 40170.00
631.6250, 40549.07
632.7890, 40914.00
633.9530, 41054.00
635.1170, 41137.00
636.2810, 41321.00
637.4440, 41596.12
638.6070, 41862.23
639.7700, 42221.00
640.9330, 42511.00
642.0960, 42798.00
643.2590, 43034.00
644.4210, 43981.00
645.5830, 44385.00
646.7450, 45068.00
647.9070, 45447.00
649.0690, 46396.00
650.2310, 47195.00
651.3920, 48211.36
652.5530, 49609.00
653.7140, 50746.00
654.8750, 52385.00
656.0360, 54155.00
657.1970, 55476.00
658.3570, 57661.00
659.5170, 59471.00
660.6770, 61132.00
661.8370, 62862.00
662.9970, 63813.00
664.1570, 64533.00
665.3160, 65015.00
666.4750, 64522.00
667.6340, 63905.00
668.7930, 62233.00
669.9520, 60535.00
671.1110, 58191.00
672.2690, 56098.00
673.4270, 53706.00
674.5850, 51902.00
675.7430, 50157.00
676.9010, 48803.00
678.0590, 47431.00
679.2160, 46332.00
680.3730, 45996.00
681.5300, 44814.00
682.6870, 45052.00
683.8440, 43976.00
685.0010, 43245.00
686.1570, 43427.00
687.3130, 42766.00
688.4690, 42663.00
689.6250, 42775.00
690.7810, 42343.00
691.9370, 42651.00
693.0920, 42774.00
694.2470, 42523.54
695.4020, 42428.00
696.5570, 42289.00
697.7120, 42246.00
698.8670, 42247.00
700.0210, 42047.00
701.1750, 42162.00
702.3290, 42028.00
703.4830, 42284.00
704.6370, 42080.28
705.7910, 42138.00
706.9440, 41851.00
708.0970, 42269.00
709.2510, 42359.00
710.4030, 42327.00
711.5560, 42436.39
712.7090, 42521.00
713.8610, 42303.00
715.0140, 42401.00
716.1660, 42243.00
717.3180, 42444.00
718.4690, 42613.00
719.6210, 42276.00
720.7730, 42393.00
721.9240, 42097.00
723.0750, 42221.00
724.2260, 42275.00
725.3770, 41857.00
726.5270, 41769.31
727.6780, 41910.94
728.8280, 41973.59
729.9780, 41961.48
731.1280, 41650.69
732.2780, 41725.59
733.4280, 41645.91
734.5770, 41559.94
735.7260, 41689.16
736.8760, 41421.80
738.0250, 41547.61
739.1730, 41516.52
740.3220, 41540.00
741.4700, 41188.00
742.6190, 41038.00
743.7670, 40999.00
744.9150, 40851.82
746.0630, 40891.00
747.2100, 40775.00
748.3580, 40790.00
749.5050, 40756.00
750.6520, 40506.00
751.7990, 40556.94
752.9460, 40443.57
754.0930, 40481.00
755.2390, 40311.00
756.3860, 40247.00
757.5320, 40139.00
758.6780, 40229.00
759.8240, 40056.00
760.9690, 40186.00
762.1150, 40136.23
763.2600, 39966.00
764.4060, 40105.00
765.5510, 39965.00
766.6950, 39913.00
767.8400, 39880.00
768.9850, 39813.80
770.1290, 39794.71
771.2730, 39767.97
772.4170, 39752.35
773.5610, 39620.52
774.7050, 39779.39
775.8480, 39859.27
776.9920, 39864.38
778.1350, 39570.80
779.2780, 39662.93
780.4210, 39600.49
781.5640, 39531.70
782.7060, 39678.14
783.8490, 39428.01
784.9910, 39571.02
786.1330, 39557.11
787.2750, 39615.02
788.4170, 39517.41
789.5580, 39467.85
790.7000, 39573.85
791.8410, 39593.72
792.9820, 39478.22
794.1230, 39636.00
795.2640, 39289.00
796.4040, 39557.00
797.5450, 39650.00
798.6850, 39456.00
799.8250, 39386.00
800.9650, 39301.00
802.1050, 39297.00
803.2450, 39355.00
804.3840, 39253.00
805.5230, 39406.00
806.6630, 39277.50
807.8020, 39207.71
808.9400, 39221.00
810.0790, 38992.00
811.2170, 39220.00
812.3560, 39181.00
813.4940, 39215.00
814.6320, 39392.00
815.7700, 39184.00
816.9070, 39154.00
818.0450, 39312.00
819.1820, 39401.00
820.3190, 39365.00
821.4560, 39397.00
822.5930, 39367.00
823.7300, 39162.00
824.8670, 39254.00
826.0030, 39553.00
827.1390, 39306.00
828.2750, 39437.00
829.4110, 39391.00
830.5470, 39728.00
831.6820, 39544.00
832.8180, 39582.00
833.9530, 40032.00
835.0880, 39435.00
836.2230, 39452.00
837.3580, 39596.00
838.4920, 39652.00
839.6270, 39764.00
840.7610, 40226.00
841.8950, 39964.00
843.0290, 39596.00
844.1630, 40013.00
845.2960, 39987.00
846.4300, 40338.00
847.5630, 40034.00
848.6960, 40340.00
849.8290, 40373.00
850.9620, 40708.00
852.0940, 40700.00
853.2270, 40664.00
854.3590, 40771.00
855.4910, 40877.00
856.6230, 40993.57
857.7550, 41229.00
858.8870, 41333.00
860.0180, 41635.00
861.1500, 41836.00
862.2810, 41957.00
863.4120, 42239.00
864.5430, 42300.00
865.6730, 42587.34
866.8040, 43213.00
867.9340, 43157.00
869.0640, 43292.00
870.1940, 43673.00
871.3240, 43678.00
872.4540, 43925.00
873.5830, 43812.00
874.7130, 43851.00
875.8420, 44169.00
876.9710, 44231.00
878.1000, 44285.00
879.2290, 44366.00
880.3570, 44178.04
881.4860, 44362.91
882.6140, 44468.78
883.7420, 44499.88
884.8700, 44232.29
885.9980, 44350.40
887.1250, 44313.94
888.2530, 44271.14
889.3800, 44236.00
890.5070, 44273.00
891.6340, 44409.00
892.7610, 44240.89
893.8880, 44204.00
895.0140, 44012.00
896.1400, 43974.00
897.2670, 43828.00
898.3930, 43852.26
899.5180, 43944.00
900.6440, 43803.00
901.7700, 43758.00
902.8950, 43434.00
904.0200, 43634.00
905.1450, 43631.00
906.2700, 43793.00
907.3950, 43459.00
908.5190, 43673.00
909.6440, 43646.00
910.7680, 43406.00
911.8920, 44089.84
913.0160, 43986.00
914.1400, 43893.86
915.2630, 44078.00
916.3870, 43633.00
917.5100, 43547.00
918.6330, 43610.00
919.7560, 43642.00
920.8790, 43672.56
922.0010, 43774.88
923.1240, 43649.00
924.2460, 43708.33
925.3680, 43647.00
926.4900, 43684.00
927.6120, 43653.00
928.7340, 43614.98
929.8550, 43982.00
930.9760, 43578.00
932.0980, 43876.00
933.2190, 43604.00
934.3390, 43863.00
935.4600, 44106.00
936.5810, 43840.00
937.7010, 43867.00
938.8210, 44274.00
939.9410, 44338.00
941.0610, 44421.00
942.1810, 44613.00
943.3010, 44748.91
944.4200, 44674.00
945.5390, 45047.00
946.6580, 45074.00
947.7770, 45037.00
948.8960, 45536.00
950.0150, 45616.00
951.1330, 45626.00
952.2510, 45667.00
953.3690, 45878.33
954.4870, 46084.30
955.6050, 46417.00
956.7230, 46638.00
957.8400, 47097.00
958.9580, 47287.00
960.0750, 47260.00
961.1920, 47472.00
962.3090, 47477.38
963.4250, 47599.00
964.5420, 47567.00
965.6580, 47711.00
966.7740, 47848.00
967.8900, 47624.00
969.0060, 47600.00
970.1220, 47833.00
971.2380, 47455.00
972.3530, 47722.00
973.4680, 47435.00
974.5830, 47618.00
975.6980, 47608.00
976.8130, 47465.69
977.9280, 47176.00
979.0420, 47351.00
980.1560, 47114.00
981.2710, 47220.00
982.3850, 47068.00
983.4980, 46743.00
984.6120, 47189.00
985.7260, 46351.00
986.8390, 46703.00
987.9520, 46418.00
989.0650, 46748.00
990.1780, 46546.00
991.2910, 46786.00
992.4030, 46616.00
993.5160, 46608.00
994.6280, 46966.00
995.7400, 47182.00
996.8520, 46997.00
997.9640, 47144.00
999.0750, 47076.00
1000.187, 47070.00
1001.298, 47193.00
1002.409, 47430.00
1003.520, 47486.00
1004.631, 47548.00
1005.741, 47779.00
1006.852, 47730.00
1007.962, 48040.00
1009.072, 47768.00
1010.182, 47785.00
1011.292, 47956.00
1012.402, 47865.00
1013.511, 48008.00
1014.621, 47960.00
1015.730, 48099.00
1016.839, 48154.14
1017.948, 48324.00
1019.056, 48324.00
1020.165, 48495.00
1021.273, 48636.00
1022.382, 48780.54
1023.490, 48919.41
1024.598, 49172.00
1025.706, 49209.00
1026.813, 49429.00
1027.921, 49645.00
1029.028, 49481.00
1030.135, 50049.00
1031.242, 50272.00
1032.349, 50230.00
1033.456, 50528.00
1034.562, 50661.00
1035.668, 51133.00
1036.775, 50900.00
1037.881, 51085.00
1038.987, 50994.00
1040.092, 51014.00
1041.198, 51127.00
1042.303, 51376.00
1043.408, 51020.00
1044.514, 51245.00
1045.618, 51075.00
1046.723, 50885.00
1047.828, 50478.00
1048.932, 50450.27
1050.037, 50370.21
1051.141, 50281.00
1052.245, 50281.00
1053.349, 50245.00
1054.452, 49878.00
1055.556, 50102.00
1056.659, 49867.00
1057.762, 49641.00
1058.865, 49845.00
1059.968, 49404.00
1061.071, 49459.00
1062.174, 49306.00
1063.276, 49285.00
1064.378, 49096.00
1065.480, 48926.00
1066.582, 49141.00
1067.684, 48962.55
1068.786, 48694.00
1069.887, 48803.00
1070.988, 48796.00
1072.090, 48508.00
1073.191, 48593.00
1074.291, 48117.00
1075.392, 48186.00
1076.493, 47806.00
1077.593, 47841.00
1078.693, 47620.00
1079.793, 47633.00
1080.893, 47450.00
1081.993, 47198.00
1083.092, 47090.00
1084.192, 46807.57
1085.291, 46856.00
1086.390, 46825.43
1087.489, 46720.10
1088.588, 46316.07
1089.686, 46297.86
1090.785, 46124.95
1091.883, 45945.83
1092.981, 45981.92
1094.079, 45621.45
1095.177, 45654.11
1096.275, 45529.84
1097.373, 45477.39
1098.470, 45269.55
1099.567, 45109.73
1100.664, 45105.50
1101.761, 45015.11
1102.858, 44718.28
1103.954, 44935.00
1105.051, 44645.00
1106.147, 44762.00
1107.243, 44840.00
1108.339, 44712.00
1109.435, 44791.51
1110.531, 44720.06
1111.626, 44638.00
1112.722, 44566.00
1113.817, 44196.00
1114.912, 44003.00
1116.007, 44130.00
1117.101, 44113.00
1118.196, 44056.00
1119.290, 44179.00
1120.385, 44082.35
1121.479, 44328.00
1122.573, 44001.00
1123.666, 43961.00
1124.760, 43954.00
1125.853, 43731.00
1126.947, 43549.41
1128.040, 43181.00
1129.133, 43018.00
1130.226, 42688.00
1131.318, 42447.00
1132.411, 42169.00
1133.503, 42162.00
1134.596, 42027.00
1135.688, 42130.00
1136.780, 41906.00
1137.871, 41942.00
1138.963, 41831.00
1140.054, 41613.00
1141.146, 41604.00
1142.237, 41462.00
1143.328, 41356.00
1144.419, 41398.00
1145.509, 41321.00
1146.600, 41281.00
1147.690, 41225.45
1148.780, 40966.00
1149.870, 41071.00
1150.960, 40951.00
1152.050, 40877.00
1153.139, 40972.00
1154.229, 40947.00
1155.318, 40747.00
1156.407, 40770.00
1157.496, 40714.00
1158.585, 41138.00
1159.674, 40646.00
1160.762, 40811.00
1161.850, 40861.00
1162.939, 40569.00
1164.027, 40673.00
1165.114, 40345.00
1166.202, 40571.00
1167.290, 40575.00
1168.377, 40840.00
1169.464, 40613.00
1170.551, 40520.00
1171.638, 40677.00
1172.725, 40589.00
1173.812, 40490.00
1174.898, 40431.00
1175.984, 40410.00
1177.071, 40390.00
1178.157, 40397.00
1179.242, 40462.89
1180.328, 40216.00
1181.414, 40625.00
1182.499, 40616.00
1183.584, 40663.00
1184.669, 40474.00
1185.754, 40558.00
1186.839, 40590.00
1187.924, 40319.00
1189.008, 40364.00
1190.092, 40402.50
1191.177, 40278.00
1192.260, 40516.00
1193.344, 40398.00
1194.428, 40279.00
1195.512, 40238.00
1196.595, 40376.00
1197.678, 40349.00
1198.761, 40456.00
1199.844, 40371.00
1200.927, 40302.00
1202.009, 40507.00
1203.092, 40296.00
1204.174, 40498.00
1205.256, 40284.00
1206.338, 40414.00
1207.420, 40137.00
1208.502, 39997.00
1209.583, 40419.00
1210.665, 40357.00
1211.746, 40435.00
1212.827, 40574.00
1213.908, 40541.00
1214.988, 40373.00
1216.069, 40482.00
1217.149, 40486.00
1218.230, 40366.00
1219.310, 40366.00
1220.390, 40550.00
1221.470, 40452.00
1222.549, 40216.00
1223.629, 40388.00
1224.708, 40323.00
1225.787, 40472.00
1226.866, 40477.62
1227.945, 40565.00
1229.024, 40515.00
1230.103, 40334.00
1231.181, 40353.00
1232.259, 40348.00
1233.337, 40571.00
1234.415, 40504.00
1235.493, 40502.00
1236.571, 40410.00
1237.648, 40330.00
1238.726, 40295.00
1239.803, 40375.00
1240.880, 40583.00
1241.957, 40557.00
1243.034, 40514.00
1244.110, 40604.00
1245.187, 40489.00
1246.263, 40359.00
1247.339, 40612.00
1248.415, 40339.00
1249.491, 40684.00
1250.566, 40539.00
1251.642, 40169.00
1252.717, 40257.00
1253.793, 40363.00
1254.868, 40431.00
1255.943, 40539.00
1257.017, 40614.00
1258.092, 40165.00
1259.166, 40469.00
1260.241, 40142.00
1261.315, 40512.00
1262.389, 40453.00
1263.462, 40496.00
1264.536, 40531.00
1265.610, 40280.00
1266.683, 40266.00
1267.756, 40301.64
1268.829, 40381.00
1269.902, 40395.00
1270.975, 40410.00
1272.048, 40377.00
1273.120, 40428.00
1274.192, 40383.00
1275.264, 40598.07
1276.336, 40998.00
1277.408, 40963.00
1278.480, 40670.00
1279.551, 40612.00
1280.623, 40337.00
1281.694, 40312.42
1282.765, 40269.78
1283.836, 40295.00
1284.907, 40326.00
1285.977, 40380.00
1287.048, 40343.20
1288.118, 40388.00
1289.188, 40290.00
1290.258, 40325.00
1291.328, 40340.00
1292.398, 40430.00
1293.467, 40677.00
1294.537, 40556.00
1295.606, 40532.00
1296.675, 40508.00
1297.744, 40361.00
1298.813, 40345.00
1299.882, 40671.00
1300.950, 40554.00
1302.018, 40594.00
1303.086, 40615.00
1304.155, 40586.00
1305.222, 40453.00
1306.290, 40825.00
1307.358, 40618.00
1308.425, 40534.00
1309.492, 40640.00
1310.559, 40400.00
1311.626, 40589.00
1312.693, 40503.00
1313.760, 40601.00
1314.826, 40612.00
1315.893, 40415.00
1316.959, 40628.00
1318.025, 40394.00
1319.091, 40602.00
1320.157, 40628.00
1321.222, 40695.00
1322.288, 40789.00
1323.353, 40505.00
1324.418, 40768.00
1325.483, 40306.00
1326.548, 40541.00
1327.612, 40298.00
1328.677, 40354.43
1329.741, 40490.11
1330.806, 40444.00
1331.870, 40792.00
1332.934, 40668.00
1333.997, 40865.00
1335.061, 40749.00
1336.124, 40671.00
1337.188, 40549.00
1338.251, 40425.00
1339.314, 40612.00
1340.377, 40755.00
1341.439, 40483.00
1342.502, 40393.00
1343.564, 40880.00
1344.627, 40507.00
1345.689, 40800.00
1346.751, 40686.00
1347.813, 40456.00
1348.874, 40938.00
1349.936, 40663.00
1350.997, 40574.00
1352.058, 40706.00
1353.119, 40530.00
1354.180, 40709.00
1355.241, 40553.00
1356.301, 40545.00
1357.362, 40482.00
1358.422, 40469.00
1359.482, 40600.00
1360.542, 40733.00
1361.602, 40520.00
1362.662, 40705.00
1363.721, 40776.00
1364.781, 40659.00
1365.840, 40818.28
1366.899, 40740.00
1367.958, 40949.00
1369.017, 40622.00
1370.075, 40665.00
1371.134, 40754.00
1372.192, 40522.00
1373.250, 40827.00
1374.308, 40566.00
1375.366, 40676.39
1376.424, 40761.00
1377.481, 40755.00
1378.539, 40804.39
1379.596, 40777.44
1380.653, 40810.00
1381.710, 40687.00
1382.767, 40679.00
1383.824, 40611.00
1384.880, 40621.90
1385.937, 40833.00
1386.993, 40615.00
1388.049, 40838.00
1389.105, 40710.00
1390.161, 40726.00
1391.216, 40569.00
1392.272, 40562.00
1393.327, 40492.00
1394.382, 40654.00
1395.437, 40637.00
1396.492, 40495.00
1397.547, 40807.00
1398.601, 40855.00
1399.656, 40827.96
1400.710, 40855.52
1401.764, 40851.00
1402.818, 40827.00
1403.872, 40957.00
1404.925, 40929.49
1405.979, 40972.00
1407.032, 40951.00
1408.085, 40698.68
1409.139, 40885.02
1410.191, 40992.34
1411.244, 41024.89
1412.297, 40758.76
1413.349, 40878.32
1414.402, 40843.31
1415.454, 40801.96
1416.506, 40975.81
1417.558, 40753.11
1418.609, 40923.54
1419.661, 40937.04
1420.712, 41022.36
1421.764, 40952.16
1422.815, 40929.99
1423.866, 41063.40
1424.916, 41110.66
1425.967, 40989.00
1427.018, 40848.00
1428.068, 40755.00
1429.118, 40754.00
1430.168, 40878.00
1431.218, 40929.00
1432.268, 40920.63
1433.318, 40885.00
1434.367, 40896.00
1435.416, 40794.00
1436.465, 40766.00
1437.514, 40815.00
1438.563, 40835.00
1439.612, 40890.00
1440.661, 40952.00
1441.709, 41004.96
1442.757, 40767.00
1443.805, 41015.00
1444.853, 40979.00
1445.901, 40710.00
1446.949, 40824.00
1447.996, 41088.00
1449.044, 40898.00
1450.091, 40985.00
1451.138, 40720.29
1452.185, 40903.30
1453.232, 41007.29
1454.278, 41036.52
1455.325, 40767.06
1456.371, 40883.29
1457.417, 40844.95
1458.463, 40800.28
1459.509, 40970.80
1460.555, 40744.78
1461.601, 40911.89
1462.646, 40922.06
1463.691, 41004.06
1464.737, 40930.54
1465.782, 40905.04
1466.826, 41035.12
1467.871, 41079.07
1468.916, 40987.64
1469.960, 41074.20
1471.004, 40842.74
1472.048, 40890.35
1473.092, 41058.36
1474.136, 40974.75
1475.180, 41064.15
1476.223, 41087.66
1477.267, 40837.00
1478.310, 40773.00
1479.353, 40979.00
1480.396, 41041.00
1481.439, 41025.00
1482.481, 41087.00
1483.524, 40958.00
1484.566, 41129.00
1485.608, 40872.00
1486.650, 40889.00
1487.692, 40780.00
1488.734, 40723.00
1489.775, 40956.00
1490.817, 40708.00
1491.858, 40913.00
1492.899, 41129.00
1493.940, 40886.00
1494.981, 40902.00
1496.022, 40854.00
1497.062, 41106.00
1498.103, 41024.00
1499.143, 40896.00
1500.183, 40784.00
1501.223, 40725.00
1502.263, 40901.00
1503.302, 40717.00
1504.342, 40855.00
1505.381, 41194.00
1506.420, 41073.00
1507.459, 40997.00
1508.498, 41193.00
1509.537, 40916.00
1510.576, 41093.00
1511.614, 40973.00
1512.652, 40874.00
1513.691, 41189.00
1514.729, 40961.00
1515.767, 40977.00
1516.804, 41205.00
1517.842, 40878.00
1518.879, 41071.00
1519.917, 41038.10
1520.954, 41062.96
1521.991, 41040.00
1523.028, 40996.40
1524.064, 41101.00
1525.101, 40891.00
1526.137, 40939.00
1527.173, 40886.00
1528.210, 41217.00
1529.245, 41061.00
1530.281, 41130.00
1531.317, 41316.00
1532.352, 40966.00
1533.388, 40860.00
1534.423, 41010.00
1535.458, 40989.00
1536.493, 41059.00
1537.528, 41044.00
1538.562, 40929.00
1539.597, 41139.00
1540.631, 40910.00
1541.665, 41031.00
1542.700, 41315.02
1543.733, 41477.53
1544.767, 41561.02
1545.801, 41569.74
1546.834, 41279.79
1547.868, 41375.52
1548.901, 41316.70
1549.934, 41251.54
1550.967, 41401.57
1551.999, 41155.07
1553.032, 41301.70
1554.064, 41291.40
1555.097, 41352.91
1556.129, 41258.92
1557.161, 41212.96
1558.193, 41322.57
1559.224, 41346.06
1560.256, 41234.16
1561.287, 41300.27
1562.318, 41048.37
1563.350, 41071.00
##END=



