##NAMES=Riebeckite
##RRUFFID=R050082
##IDEAL CHEMISTRY=[box]Na_2_(Fe^2+^_3_Fe^3+^_2_)Si_8_O_22_(OH)_2_
##LOCALITY=Mt. Malosa, Zomba, Chilwa, Alkaline Area, Malawi
##OWNER=RRUFF
##SOURCE=Rock Currier
##DESCRIPTION=Black elongated prisms
##STATUS=The identification of this mineral has been confirmed by X-ray diffraction and chemical analysis
##URL=rruff.info/R050082
##MEASURED CHEMISTRY=([box]_0.63_Na_0.19_K_0.18_)(Na_1.58_Ca_0.42_)_Σ=2_Fe^2+^_3.00_(Fe^3+^_1.30_Fe^2+^_0.45_Mn_0.15_Mg_0.05_Ti_0.05_)_Σ=2_(Si_0.98_Al_0.02_)_8_O_22_(OH)_2_
##PIN_ID=L00547
##ORIENTATION=Laser parallel to -a* (-1 0 0). Fiducial mark perpendicular to laser is parallel to -b [0 -1 0]
173.2350, 43944.00
174.4650, 44459.00
175.6950, 44625.00
176.9250, 44872.00
178.1550, 45360.00
179.3840, 45798.18
180.6130, 46425.00
181.8420, 47053.00
183.0710, 47789.15
184.3000, 48639.00
185.5280, 49581.00
186.7570, 50293.00
187.9850, 51306.00
189.2130, 52120.00
190.4400, 53287.00
191.6680, 53724.00
192.8960, 53865.00
194.1230, 54068.00
195.3500, 53566.00
196.5770, 52866.00
197.8030, 52143.00
199.0300, 52017.00
200.2560, 52593.00
201.4830, 52243.00
202.7090, 50260.00
203.9340, 46950.00
205.1600, 44454.00
206.3860, 43056.00
207.6110, 42806.00
208.8360, 42849.00
210.0610, 42599.00
211.2860, 43107.00
212.5100, 43015.00
213.7350, 43138.00
214.9590, 42336.00
216.1830, 42031.00
217.4070, 41915.00
218.6310, 41483.00
219.8540, 41428.23
221.0780, 41632.00
222.3010, 41204.00
223.5240, 41139.00
224.7470, 40982.00
225.9690, 41221.00
227.1920, 41211.00
228.4140, 41031.00
229.6360, 41048.00
230.8580, 41181.00
232.0800, 41621.00
233.3020, 41776.00
234.5230, 42083.00
235.7440, 41947.00
236.9650, 42142.00
238.1860, 42404.00
239.4070, 42570.00
240.6280, 42822.00
241.8480, 42737.00
243.0680, 43001.00
244.2880, 43080.00
245.5080, 42533.00
246.7280, 42374.00
247.9470, 42130.00
249.1660, 42028.00
250.3860, 41969.00
251.6040, 41672.13
252.8230, 41296.00
254.0420, 41551.55
255.2600, 41705.90
256.4790, 41764.52
257.6970, 41440.61
258.9150, 41610.64
260.1320, 41582.70
261.3500, 41546.67
262.5670, 41786.20
263.7840, 41517.91
265.0010, 41818.00
266.2180, 41853.00
267.4350, 41773.00
268.6510, 41926.00
269.8680, 41676.00
271.0840, 41345.19
272.3000, 41582.67
273.5160, 41718.97
274.7310, 41759.52
275.9470, 41417.56
277.1620, 41569.53
278.3770, 41523.55
279.5920, 41469.46
280.8070, 41690.95
282.0210, 41404.62
283.2360, 41621.74
284.4500, 41637.89
285.6640, 41746.01
286.8780, 41654.97
288.0920, 41625.44
289.3050, 41795.14
290.5180, 41854.53
291.7320, 41740.55
292.9450, 41854.52
294.1570, 41561.22
295.3700, 41625.30
296.5830, 41843.58
297.7950, 41666.00
299.0070, 41861.00
300.2190, 41835.81
301.4310, 41612.00
302.6420, 41920.00
303.8540, 41801.00
305.0650, 41980.00
306.2760, 42180.00
307.4870, 42579.71
308.6980, 43835.00
309.9080, 43603.00
311.1190, 42969.00
312.3290, 43283.00
313.5390, 44658.00
314.7490, 44338.00
315.9580, 44852.00
317.1680, 45559.00
318.3770, 46125.00
319.5860, 46955.00
320.7950, 47635.00
322.0040, 47890.00
323.2130, 48931.00
324.4210, 49687.00
325.6290, 50031.00
326.8380, 50678.22
328.0460, 50869.00
329.2530, 51228.00
330.4610, 50797.00
331.6680, 50527.00
332.8760, 50094.00
334.0830, 49554.00
335.2890, 49135.00
336.4960, 48386.14
337.7030, 47592.00
338.9090, 46814.00
340.1150, 46218.00
341.3210, 45361.00
342.5270, 44892.00
343.7330, 44699.00
344.9380, 44811.00
346.1440, 44618.00
347.3490, 44801.00
348.5540, 44836.00
349.7590, 45325.00
350.9630, 45779.00
352.1680, 45685.46
353.3720, 45551.00
354.5760, 45901.00
355.7800, 45908.00
356.9840, 46604.00
358.1870, 46424.00
359.3910, 46497.00
360.5940, 46314.00
361.7970, 46785.00
363.0000, 46426.00
364.2030, 45878.00
365.4050, 46134.00
366.6080, 45575.00
367.8100, 45187.00
369.0120, 44708.00
370.2140, 44524.00
371.4150, 45039.00
372.6170, 44868.00
373.8180, 45091.00
375.0190, 45277.00
376.2200, 45146.63
377.4210, 45115.00
378.6220, 45270.00
379.8220, 45440.00
381.0230, 45351.14
382.2230, 45957.00
383.4230, 45308.00
384.6220, 45451.00
385.8220, 45576.00
387.0220, 45154.00
388.2210, 44922.00
389.4200, 44919.00
390.6190, 44763.00
391.8180, 44295.00
393.0160, 44149.00
394.2150, 44017.00
395.4130, 43897.00
396.6110, 43649.00
397.8090, 43305.00
399.0060, 43408.00
400.2040, 43441.00
401.4010, 43282.00
402.5980, 43475.00
403.7950, 43368.00
404.9920, 43054.00
406.1890, 43081.00
407.3860, 43044.00
408.5820, 43016.00
409.7780, 43270.00
410.9740, 43222.00
412.1700, 43292.00
413.3650, 43075.00
414.5610, 43169.00
415.7560, 43479.00
416.9510, 43340.00
418.1460, 43714.00
419.3410, 43443.00
420.5360, 43804.00
421.7300, 43759.00
422.9240, 43839.00
424.1180, 43983.91
425.3120, 44000.84
426.5060, 44127.00
427.7000, 44126.00
428.8930, 44155.00
430.0860, 44162.00
431.2790, 44283.56
432.4720, 44272.34
433.6650, 44469.00
434.8580, 44366.00
436.0500, 44256.90
437.2420, 44401.00
438.4340, 44139.00
439.6260, 44181.00
440.8180, 44307.00
442.0090, 44284.00
443.2010, 44380.00
444.3920, 44288.00
445.5830, 44317.00
446.7740, 44326.01
447.9640, 44211.00
449.1550, 44379.00
450.3450, 44336.89
451.5350, 44456.16
452.7250, 44427.00
453.9150, 44558.00
455.1050, 44419.00
456.2940, 44609.00
457.4830, 44703.82
458.6720, 44698.00
459.8610, 45063.00
461.0500, 45105.68
462.2390, 45376.00
463.4270, 45155.00
464.6150, 45549.00
465.8040, 45409.00
466.9910, 45690.00
468.1790, 45670.00
469.3670, 45700.68
470.5540, 45500.00
471.7410, 45738.00
472.9280, 45472.00
474.1150, 45426.00
475.3020, 45059.00
476.4890, 45255.00
477.6750, 45481.00
478.8610, 45139.00
480.0470, 45091.00
481.2330, 45419.00
482.4190, 45287.00
483.6040, 45749.00
484.7900, 45678.00
485.9750, 45979.00
487.1600, 45663.00
488.3450, 45868.00
489.5290, 45834.00
490.7140, 45732.00
491.8980, 45740.00
493.0820, 45915.00
494.2660, 46007.00
495.4500, 46149.00
496.6340, 46313.00
497.8170, 46274.00
499.0010, 46455.00
500.1840, 46508.00
501.3670, 46489.00
502.5500, 46532.00
503.7320, 46691.00
504.9150, 46734.00
506.0970, 46510.00
507.2790, 47060.00
508.4610, 47031.00
509.6430, 47224.00
510.8250, 46950.00
512.0060, 47666.00
513.1870, 47678.00
514.3680, 47523.00
515.5490, 47784.00
516.7300, 47944.00
517.9110, 48276.00
519.0910, 48404.00
520.2710, 48494.00
521.4510, 49079.00
522.6310, 49314.00
523.8110, 49546.00
524.9910, 50010.00
526.1700, 50524.00
527.3490, 51184.10
528.5280, 52191.00
529.7070, 52782.00
530.8860, 53684.00
532.0650, 54571.00
533.2430, 55337.70
534.4210, 56001.00
535.5990, 56805.00
536.7770, 57450.00
537.9550, 57678.00
539.1320, 58134.00
540.3100, 58291.00
541.4870, 57591.00
542.6640, 57419.00
543.8410, 56679.00
545.0170, 55934.00
546.1940, 55283.00
547.3700, 54334.00
548.5470, 54009.00
549.7230, 53400.00
550.8980, 52959.00
552.0740, 52691.00
553.2500, 52419.00
554.4250, 51916.00
555.6000, 51897.00
556.7750, 51738.00
557.9500, 51778.00
559.1250, 51940.04
560.2990, 51869.00
561.4730, 52493.00
562.6480, 52297.00
563.8220, 52738.00
564.9950, 52922.00
566.1690, 53403.00
567.3430, 53951.00
568.5160, 54398.00
569.6890, 55346.00
570.8620, 55303.00
572.0350, 55828.00
573.2070, 56164.00
574.3800, 56070.00
575.5520, 56330.00
576.7240, 56402.00
577.8960, 55696.00
579.0680, 55261.00
580.2400, 54202.00
581.4110, 53460.00
582.5830, 52029.00
583.7540, 51008.00
584.9250, 50266.00
586.0950, 49697.00
587.2660, 48603.00
588.4370, 48179.00
589.6070, 47972.00
590.7770, 47960.00
591.9470, 47335.00
593.1170, 47093.00
594.2860, 46758.00
595.4560, 46672.00
596.6250, 46548.80
597.7940, 46426.41
598.9630, 46471.00
600.1320, 46362.00
601.3000, 46301.15
602.4690, 46378.00
603.6370, 46171.00
604.8050, 46306.00
605.9730, 46071.00
607.1410, 46315.00
608.3090, 45998.00
609.4760, 46169.00
610.6430, 46173.00
611.8100, 46450.00
612.9770, 45971.00
614.1440, 46113.00
615.3110, 46236.00
616.4770, 46015.00
617.6430, 46427.00
618.8090, 46339.00
619.9750, 46310.00
621.1410, 46395.00
622.3070, 46330.00
623.4720, 46549.00
624.6370, 46674.00
625.8020, 46800.00
626.9670, 46805.09
628.1320, 46552.12
629.2970, 46825.69
630.4610, 46998.04
631.6250, 47074.65
632.7890, 46768.75
633.9530, 46956.78
635.1170, 46946.86
636.2810, 46928.83
637.4440, 47186.34
638.6070, 46936.04
639.7700, 47189.18
640.9330, 47241.36
642.0960, 47385.51
643.2590, 47495.00
644.4210, 48066.00
645.5830, 47811.00
646.7450, 48357.00
647.9070, 48918.00
649.0690, 49223.00
650.2310, 49656.00
651.3920, 50289.00
652.5530, 51019.00
653.7140, 51279.00
654.8750, 52168.00
656.0360, 52390.00
657.1970, 53045.00
658.3570, 53408.00
659.5170, 53845.00
660.6770, 53959.00
661.8370, 54332.00
662.9970, 54091.00
664.1570, 54476.52
665.3160, 53791.00
666.4750, 54550.00
667.6340, 52776.00
668.7930, 51745.00
669.9520, 51472.00
671.1110, 50637.00
672.2690, 49989.00
673.4270, 49637.00
674.5850, 48837.00
675.7430, 48790.00
676.9010, 48404.00
678.0590, 48263.00
679.2160, 48029.00
680.3730, 47611.00
681.5300, 47116.00
682.6870, 47326.00
683.8440, 47095.00
685.0010, 47296.00
686.1570, 47085.00
687.3130, 46832.00
688.4690, 46922.00
689.6250, 46748.00
690.7810, 46838.00
691.9370, 46552.00
693.0920, 46585.00
694.2470, 46500.00
695.4020, 46738.00
696.5570, 46859.00
697.7120, 46892.00
698.8670, 46371.00
700.0210, 46320.00
701.1750, 46508.00
702.3290, 46544.00
703.4830, 46655.00
704.6370, 46466.00
705.7910, 46550.00
706.9440, 46498.00
708.0970, 46683.00
709.2510, 46851.00
710.4030, 47048.00
711.5560, 47000.39
712.7090, 46667.00
713.8610, 46905.00
715.0140, 46752.00
716.1660, 46792.00
717.3180, 47049.00
718.4690, 46915.00
719.6210, 46753.00
720.7730, 46912.00
721.9240, 46766.00
723.0750, 47195.00
724.2260, 47193.00
725.3770, 47159.00
726.5270, 47191.00
727.6780, 47369.00
728.8280, 47210.00
729.9780, 47201.00
731.1280, 47469.00
732.2780, 47191.00
733.4280, 47079.00
734.5770, 47522.00
735.7260, 47192.00
736.8760, 47337.00
738.0250, 47370.00
739.1730, 47113.00
740.3220, 47277.00
741.4700, 47323.00
742.6190, 47211.00
743.7670, 47288.10
744.9150, 47222.00
746.0630, 47213.00
747.2100, 47216.00
748.3580, 47091.00
749.5050, 47297.00
750.6520, 47426.00
751.7990, 47307.00
752.9460, 47177.00
754.0930, 47318.00
755.2390, 47380.00
756.3860, 47286.00
757.5320, 47374.00
758.6780, 47365.00
759.8240, 47509.00
760.9690, 47548.73
762.1150, 47427.00
763.2600, 47680.00
764.4060, 47548.00
765.5510, 47577.00
766.6950, 47513.00
767.8400, 47429.00
768.9850, 47260.00
770.1290, 47747.00
771.2730, 47554.00
772.4170, 48031.00
773.5610, 47575.00
774.7050, 47345.00
775.8480, 47545.00
776.9920, 47724.00
778.1350, 47555.00
779.2780, 47544.00
780.4210, 47727.00
781.5640, 47512.00
782.7060, 47798.00
783.8490, 47470.00
784.9910, 47609.00
786.1330, 47852.00
787.2750, 47401.00
788.4170, 47476.00
789.5580, 47235.00
790.7000, 47494.00
791.8410, 47275.00
792.9820, 47680.00
794.1230, 47871.00
795.2640, 47746.00
796.4040, 47581.00
797.5450, 47424.00
798.6850, 47306.00
799.8250, 47553.00
800.9650, 47531.00
802.1050, 47364.00
803.2450, 47614.00
804.3840, 47595.00
805.5230, 47630.00
806.6630, 47364.93
807.8020, 47613.87
808.9400, 47761.61
810.0790, 47813.62
811.2170, 47483.10
812.3560, 47646.54
813.4940, 47612.00
814.6320, 47569.36
815.7700, 47802.30
816.9070, 47527.39
818.0450, 47755.96
819.1820, 47783.55
820.3190, 47903.11
821.4560, 47823.50
822.5930, 47805.41
823.7300, 47986.55
824.8670, 48057.38
826.0030, 47954.82
827.1390, 48080.21
828.2750, 47798.34
829.4110, 47652.00
830.5470, 48092.00
831.6820, 48052.00
832.8180, 48162.00
833.9530, 47996.00
835.0880, 47854.00
836.2230, 48285.00
837.3580, 48089.00
838.4920, 48059.00
839.6270, 47999.00
840.7610, 47952.00
841.8950, 48009.91
843.0290, 47947.00
844.1630, 48100.19
845.2960, 48121.29
846.4300, 48066.00
847.5630, 48314.00
848.6960, 48281.00
849.8290, 48331.00
850.9620, 48301.00
852.0940, 48676.00
853.2270, 48443.00
854.3590, 48947.00
855.4910, 48591.00
856.6230, 48693.68
857.7550, 48739.28
858.8870, 48797.00
860.0180, 48852.80
861.1500, 49017.00
862.2810, 48940.00
863.4120, 49006.00
864.5430, 49056.00
865.6730, 49348.00
866.8040, 49450.00
867.9340, 49871.00
869.0640, 49831.00
870.1940, 50075.00
871.3240, 49935.00
872.4540, 49951.00
873.5830, 50222.00
874.7130, 50262.00
875.8420, 50449.16
876.9710, 50538.00
878.1000, 50828.00
879.2290, 50773.00
880.3570, 51000.00
881.4860, 50720.00
882.6140, 50919.00
883.7420, 51089.00
884.8700, 51238.00
885.9980, 51107.00
887.1250, 50957.00
888.2530, 50955.00
889.3800, 50902.00
890.5070, 50619.00
891.6340, 50714.00
892.7610, 50437.00
893.8880, 50584.00
895.0140, 50449.00
896.1400, 50276.00
897.2670, 50242.64
898.3930, 50066.87
899.5180, 49989.00
900.6440, 49819.00
901.7700, 49696.00
902.8950, 49629.56
904.0200, 49778.00
905.1450, 49562.00
906.2700, 49866.00
907.3950, 49774.00
908.5190, 49619.00
909.6440, 49576.00
910.7680, 49630.00
911.8920, 49561.61
913.0160, 49640.86
914.1400, 49604.00
915.2630, 49749.00
916.3870, 49866.00
917.5100, 49858.00
918.6330, 49808.00
919.7560, 49882.00
920.8790, 49889.68
922.0010, 49847.00
923.1240, 50004.00
924.2460, 49907.00
925.3680, 49996.00
926.4900, 49973.11
927.6120, 50042.00
928.7340, 49985.00
929.8550, 49991.00
930.9760, 50151.00
932.0980, 50126.00
933.2190, 49997.00
934.3390, 49830.00
935.4600, 50288.00
936.5810, 50185.00
937.7010, 50225.00
938.8210, 50463.00
939.9410, 50278.00
941.0610, 50454.82
942.1810, 50631.00
943.3010, 50499.00
944.4200, 50729.00
945.5390, 50522.00
946.6580, 50918.00
947.7770, 50667.00
948.8960, 50906.00
950.0150, 51077.00
951.1330, 51339.00
952.2510, 51342.00
953.3690, 52125.00
954.4870, 52622.00
955.6050, 51810.00
956.7230, 51794.00
957.8400, 52491.00
958.9580, 52254.00
960.0750, 52676.00
961.1920, 53414.00
962.3090, 53795.00
963.4250, 54183.00
964.5420, 54438.00
965.6580, 54782.00
966.7740, 54681.00
967.8900, 55129.00
969.0060, 54956.00
970.1220, 54625.00
971.2380, 54671.00
972.3530, 54162.00
973.4680, 54123.00
974.5830, 53506.00
975.6980, 53120.00
976.8130, 52492.00
977.9280, 52622.00
979.0420, 52240.00
980.1560, 52067.00
981.2710, 51693.00
982.3850, 51895.00
983.4980, 51702.00
984.6120, 51526.00
985.7260, 51871.00
986.8390, 51922.00
987.9520, 51493.00
989.0650, 51780.00
990.1780, 51396.00
991.2910, 51069.75
992.4030, 51314.27
993.5160, 51457.62
994.6280, 51505.22
995.7400, 51170.30
996.8520, 51329.32
997.9640, 51290.39
999.0750, 51243.32
1000.187, 51471.86
1001.298, 51192.56
1002.409, 51416.72
1003.520, 51439.90
1004.631, 51555.07
1005.741, 51471.05
1006.852, 51448.55
1007.962, 51625.29
1009.072, 51403.00
1010.182, 51366.00
1011.292, 51652.00
1012.402, 51522.00
1013.511, 51532.00
1014.621, 51791.00
1015.730, 51837.00
1016.839, 51481.00
1017.948, 51932.00
1019.056, 51922.00
1020.165, 52182.00
1021.273, 52340.00
1022.382, 52037.00
1023.490, 52722.00
1024.598, 52699.00
1025.706, 53175.00
1026.813, 53164.00
1027.921, 53420.00
1029.028, 53524.00
1030.135, 53733.00
1031.242, 53859.13
1032.349, 53930.00
1033.456, 54008.00
1034.562, 54095.00
1035.668, 53984.00
1036.775, 54128.00
1037.881, 53635.00
1038.987, 54217.00
1040.092, 54697.00
1041.198, 54129.00
1042.303, 53730.00
1043.408, 53572.00
1044.514, 53644.00
1045.618, 53337.00
1046.723, 53090.00
1047.828, 52755.00
1048.932, 53117.00
1050.037, 52892.00
1051.141, 53150.00
1052.245, 53019.00
1053.349, 52750.00
1054.452, 52938.00
1055.556, 52812.00
1056.659, 52979.00
1057.762, 53002.00
1058.865, 52721.00
1059.968, 52717.00
1061.071, 52613.00
1062.174, 52970.00
1063.276, 52978.00
1064.378, 53096.00
1065.480, 53064.00
1066.582, 53187.00
1067.684, 53344.00
1068.786, 53119.00
1069.887, 53168.00
1070.988, 53591.17
1072.090, 53928.51
1073.191, 54164.59
1074.291, 54304.81
1075.392, 54062.62
1076.493, 54314.38
1077.593, 54368.08
1078.693, 54413.66
1079.793, 54734.84
1080.893, 54647.00
1081.993, 54761.00
1083.092, 54813.00
1084.192, 54678.75
1085.291, 54663.00
1086.390, 54299.00
1087.489, 53951.00
1088.588, 53780.00
1089.686, 53529.01
1090.785, 53281.00
1091.883, 53204.00
1092.981, 53363.00
1094.079, 53251.00
1095.177, 53020.00
1096.275, 53200.00
1097.373, 53069.08
1098.470, 52566.00
1099.567, 52903.00
1100.664, 53049.00
1101.761, 52648.00
1102.858, 52731.00
1103.954, 52411.00
1105.051, 52634.00
1106.147, 52526.00
1107.243, 52714.00
1108.339, 52282.00
1109.435, 52913.00
1110.531, 52315.00
1111.626, 52500.00
1112.722, 52662.00
1113.817, 52572.00
1114.912, 52633.00
1116.007, 52651.36
1117.101, 52380.00
1118.196, 52694.00
1119.290, 52422.67
1120.385, 52495.00
1121.479, 52275.00
1122.573, 52306.00
1123.666, 52293.00
1124.760, 52248.00
1125.853, 52250.00
1126.947, 52115.00
1128.040, 51957.00
1129.133, 51911.00
1130.226, 51860.00
1131.318, 51977.00
1132.411, 51499.00
1133.503, 51886.00
1134.596, 51569.00
1135.688, 51836.00
1136.780, 51650.00
1137.871, 51516.00
1138.963, 51309.00
1140.054, 51368.00
1141.146, 51138.00
1142.237, 51421.00
1143.328, 50876.00
1144.419, 51238.00
1145.509, 51256.00
1146.600, 50661.00
1147.690, 51091.00
1148.780, 50931.00
1149.870, 50815.00
1150.960, 50907.00
1152.050, 51010.00
1153.139, 50736.00
1154.229, 50930.00
1155.318, 50947.00
1156.407, 50679.00
1157.496, 50751.00
1158.585, 50955.00
1159.674, 50766.00
1160.762, 50494.00
1161.850, 50552.00
1162.939, 50663.00
1164.027, 50351.00
1165.114, 50537.00
1166.202, 50759.00
1167.290, 50429.00
1168.377, 50357.00
1169.464, 50405.00
1170.551, 50514.00
1171.638, 50535.00
1172.725, 50404.00
1173.812, 50269.00
1174.898, 50311.00
1175.984, 50433.00
1177.071, 50343.00
1178.157, 50263.00
1179.242, 50594.00
1180.328, 50540.00
1181.414, 50318.00
1182.499, 50459.00
1183.584, 50580.00
1184.669, 50246.00
1185.754, 50287.68
1186.839, 50505.00
1187.924, 50140.00
1189.008, 50116.00
1190.092, 50350.00
1191.177, 50516.00
1192.260, 50200.00
1193.344, 50351.00
1194.428, 50290.00
1195.512, 50194.00
1196.595, 50463.00
1197.678, 50291.00
1198.761, 50383.00
1199.844, 50434.00
1200.927, 50185.00
1202.009, 50239.00
1203.092, 50257.00
1204.174, 50305.00
1205.256, 50300.99
1206.338, 50283.61
1207.420, 50264.00
1208.502, 50290.00
1209.583, 50228.00
1210.665, 50392.00
1211.746, 50170.00
1212.827, 50505.00
1213.908, 50116.00
1214.988, 50318.00
1216.069, 50297.00
1217.149, 50472.00
1218.230, 50151.00
1219.310, 50223.00
1220.390, 50238.00
1221.470, 50316.00
1222.549, 50230.00
1223.629, 50276.00
1224.708, 50082.73
1225.787, 50317.91
1226.866, 50451.90
1227.945, 50490.15
1229.024, 50145.88
1230.103, 50295.55
1231.181, 50247.27
1232.259, 50190.88
1233.337, 50410.06
1234.415, 50121.43
1235.493, 50336.24
1236.571, 50350.09
1237.648, 50455.91
1238.726, 50362.57
1239.803, 50330.74
1240.880, 50498.14
1241.957, 50555.23
1243.034, 50438.95
1244.110, 50550.62
1245.187, 50255.02
1246.263, 50316.80
1247.339, 50532.78
1248.415, 50426.51
1249.491, 50541.82
1250.566, 50572.73
1251.642, 50220.15
1252.717, 50534.51
1253.793, 50560.45
1254.868, 50290.22
1255.943, 50581.73
1257.017, 50352.32
1258.092, 50308.86
1259.166, 50405.31
1260.241, 50355.90
1261.315, 50536.47
1262.389, 50495.48
1263.462, 50434.69
1264.536, 50460.29
1265.610, 50241.10
1266.683, 50476.05
1267.756, 50400.78
1268.829, 50479.71
1269.902, 50593.59
1270.975, 50439.85
1272.048, 50569.43
1273.120, 50259.64
1274.192, 50317.49
1275.264, 50335.75
1276.336, 50589.00
1277.408, 50281.35
1278.480, 50328.98
1279.551, 50527.89
1280.623, 50515.13
1281.694, 50590.86
1282.765, 50404.61
1283.836, 50464.47
1284.907, 50456.50
1285.977, 50682.95
1287.048, 50385.00
1288.118, 50544.00
1289.188, 50547.00
1290.258, 50293.00
1291.328, 50500.00
1292.398, 50646.00
1293.467, 50472.00
1294.537, 50342.00
1295.606, 50374.00
1296.675, 50812.00
1297.744, 50461.00
1298.813, 50453.00
1299.882, 50733.00
1300.950, 50394.00
1302.018, 50488.00
1303.086, 50552.00
1304.155, 50635.00
1305.222, 50514.00
1306.290, 50498.00
1307.358, 50348.00
1308.425, 50406.52
1309.492, 50627.00
1310.559, 50523.00
1311.626, 50624.00
1312.693, 50707.00
1313.760, 50553.00
1314.826, 50471.00
1315.893, 50502.00
1316.959, 50522.63
1318.025, 50331.62
1319.091, 50384.61
1320.157, 50335.00
1321.222, 50323.00
1322.288, 50396.59
1323.353, 50347.87
1324.418, 50385.00
1325.483, 50644.00
1326.548, 50564.00
1327.612, 50929.00
1328.677, 50779.00
1329.741, 50390.00
1330.806, 50554.18
1331.870, 50485.23
1332.934, 50497.00
1333.997, 50614.00
1335.061, 50718.00
1336.124, 50645.00
1337.188, 50728.00
1338.251, 50700.00
1339.314, 50297.00
1340.377, 50842.00
1341.439, 50714.33
1342.502, 50573.00
1343.564, 51011.00
1344.627, 50386.00
1345.689, 50536.00
1346.751, 50731.00
1347.813, 50722.00
1348.874, 50806.97
1349.936, 50492.00
1350.997, 50741.00
1352.058, 50675.00
1353.119, 50449.00
1354.180, 50484.00
1355.241, 50621.00
1356.301, 50732.00
1357.362, 50476.00
1358.422, 50545.00
1359.482, 50832.00
1360.542, 50540.00
1361.602, 50626.00
1362.662, 50691.00
1363.721, 50497.00
1364.781, 50679.00
1365.840, 50601.00
1366.899, 50639.00
1367.958, 50919.00
1369.017, 50432.00
1370.075, 50632.00
1371.134, 50757.00
1372.192, 50874.00
1373.250, 50752.00
1374.308, 51305.00
1375.366, 50770.00
1376.424, 51080.00
1377.481, 50835.00
1378.539, 50588.00
1379.596, 50906.00
1380.653, 50639.00
1381.710, 50672.00
1382.767, 50631.00
1383.824, 50743.00
1384.880, 50603.00
1385.937, 50532.00
1386.993, 50597.20
1388.049, 50909.00
1389.105, 50679.00
1390.161, 50713.00
1391.216, 50789.00
1392.272, 50510.00
1393.327, 50839.00
1394.382, 50678.00
1395.437, 50600.00
1396.492, 50987.00
1397.547, 50847.00
1398.601, 51009.00
1399.656, 50949.55
1400.710, 50892.00
1401.764, 50760.00
1402.818, 50743.00
1403.872, 50735.00
1404.925, 50881.00
1405.979, 50802.00
1407.032, 50979.00
1408.085, 50947.00
1409.139, 50575.00
1410.191, 50879.00
1411.244, 50720.00
1412.297, 50833.00
1413.349, 50941.00
1414.402, 51089.00
1415.454, 50883.00
1416.506, 50695.00
1417.558, 50779.00
1418.609, 50800.00
1419.661, 50678.00
1420.712, 50819.24
1421.764, 50849.86
1422.815, 50738.00
1423.866, 51036.00
1424.916, 50486.00
1425.967, 50495.77
1427.018, 51004.00
1428.068, 50781.00
1429.118, 50915.00
1430.168, 51152.00
1431.218, 50861.00
1432.268, 50876.00
1433.318, 51192.00
1434.367, 50724.00
1435.416, 51037.00
1436.465, 50756.00
1437.514, 50842.00
1438.563, 50991.00
1439.612, 50818.00
1440.661, 51127.00
1441.709, 51113.00
1442.757, 51226.00
1443.805, 51413.00
1444.853, 51210.00
1445.901, 51186.00
1446.949, 50901.00
1447.996, 51156.00
1449.044, 51189.00
1450.091, 50946.00
1451.138, 51211.00
1452.185, 51044.00
1453.232, 51226.00
1454.278, 51265.00
1455.325, 51100.00
1456.371, 51458.00
1457.417, 51449.00
1458.463, 51760.00
1459.509, 51342.00
1460.555, 51428.73
1461.601, 51286.27
1462.646, 51324.00
1463.691, 51043.00
1464.737, 51200.00
1465.782, 51286.00
1466.826, 51025.00
1467.871, 51141.00
1468.916, 51196.00
1469.960, 51487.00
1471.004, 51403.00
1472.048, 51135.00
1473.092, 51282.81
1474.136, 51201.00
1475.180, 51237.00
1476.223, 51255.00
1477.267, 51205.00
1478.310, 51225.00
1479.353, 51298.00
1480.396, 51137.00
1481.439, 51302.00
1482.481, 51455.00
1483.524, 50727.87
1484.566, 51199.52
1485.608, 51468.80
1486.650, 51546.59
1487.692, 50859.36
1488.734, 51160.00
1489.775, 51064.73
1490.817, 50953.24
1491.858, 51392.91
1492.899, 50816.94
1493.940, 51247.87
1494.981, 51276.86
1496.022, 51489.81
1497.062, 51304.41
1498.103, 51242.05
1499.143, 51578.15
1500.183, 51693.62
1501.223, 51462.36
1502.263, 51686.99
1503.302, 51097.09
1504.342, 51221.95
1505.381, 51655.19
1506.420, 51443.96
1507.459, 51675.86
1508.498, 51738.99
1509.537, 51035.12
1510.576, 51665.15
1511.614, 51718.30
1512.652, 51179.13
1513.691, 51763.45
1514.729, 51305.94
1515.767, 51220.30
1516.804, 51414.50
1517.842, 51316.97
1518.879, 51679.39
1519.917, 51598.71
1520.954, 51478.43
1521.991, 51530.93
1523.028, 51262.00
1524.064, 51101.00
1525.101, 51406.00
1526.137, 51652.00
1527.173, 51722.00
1528.210, 51789.00
1529.245, 51505.00
1530.281, 51303.00
1531.317, 51422.00
1532.352, 51570.00
1533.388, 51530.00
1534.423, 51358.00
1535.458, 51721.00
1536.493, 51474.00
1537.528, 51246.94
1538.562, 51713.61
1539.597, 51977.92
1540.631, 52050.73
1541.665, 51358.52
1542.700, 51654.19
1543.733, 51553.95
1544.767, 51437.48
1545.801, 51872.18
1546.834, 51291.23
1547.868, 51717.19
1548.901, 51741.21
1549.934, 51949.19
1550.967, 51758.82
1551.999, 51691.49
1553.032, 52022.62
1554.064, 52133.12
1555.097, 51896.90
1556.129, 52116.57
1557.161, 51521.70
1558.193, 51641.60
1559.224, 52069.88
1560.256, 51853.68
1561.287, 52080.62
1562.318, 52065.00
##END=



