##NAMES=Riebeckite
##RRUFFID=R050082
##IDEAL CHEMISTRY=[box]Na_2_(Fe^2+^_3_Fe^3+^_2_)Si_8_O_22_(OH)_2_
##LOCALITY=Mt. Malosa, Zomba, Chilwa, Alkaline Area, Malawi
##OWNER=RRUFF
##SOURCE=Rock Currier
##DESCRIPTION=Black elongated prisms
##STATUS=The identification of this mineral has been confirmed by X-ray diffraction and chemical analysis
##URL=rruff.info/R050082
##MEASURED CHEMISTRY=([box]_0.63_Na_0.19_K_0.18_)(Na_1.58_Ca_0.42_)_Σ=2_Fe^2+^_3.00_(Fe^3+^_1.30_Fe^2+^_0.45_Mn_0.15_Mg_0.05_Ti_0.05_)_Σ=2_(Si_0.98_Al_0.02_)_8_O_22_(OH)_2_
##PIN_ID=L00547
##ORIENTATION=Laser parallel to -a* (-1 0 0). Fiducial mark perpendicular to laser is parallel to -b [0 -1 0]
133.7780, 37859.00
135.0140, 38711.00
136.2500, 38663.00
137.4850, 39302.00
138.7200, 39981.00
139.9550, 39390.00
141.1900, 38898.00
142.4250, 38878.00
143.6600, 38797.00
144.8940, 39250.00
146.1280, 39205.00
147.3620, 39109.00
148.5960, 39390.00
149.8300, 39055.00
151.0630, 39745.00
152.2960, 39548.00
153.5300, 39869.00
154.7620, 40383.00
155.9950, 39747.00
157.2280, 39672.00
158.4600, 40878.00
159.6920, 41727.00
160.9250, 42163.00
162.1560, 43107.00
163.3880, 44068.00
164.6200, 44439.00
165.8510, 44351.00
167.0820, 43625.00
168.3130, 43651.00
169.5440, 43842.00
170.7750, 43925.00
172.0050, 43411.00
173.2350, 43449.00
174.4650, 42921.00
175.6950, 43682.00
176.9250, 43792.00
178.1550, 44858.00
179.3840, 45886.00
180.6130, 47149.00
181.8420, 48184.61
183.0710, 49615.00
184.3000, 50476.00
185.5280, 51661.00
186.7570, 52962.00
187.9850, 53992.00
189.2130, 55748.00
190.4400, 57198.00
191.6680, 57939.00
192.8960, 57948.00
194.1230, 57246.00
195.3500, 55745.00
196.5770, 53756.00
197.8030, 51634.00
199.0300, 50554.00
200.2560, 50119.00
201.4830, 49419.00
202.7090, 47191.00
203.9340, 44524.00
205.1600, 41923.00
206.3860, 40231.00
207.6110, 40093.00
208.8360, 39896.00
210.0610, 40198.00
211.2860, 40296.00
212.5100, 40710.00
213.7350, 40742.00
214.9590, 40495.00
216.1830, 40161.00
217.4070, 39970.00
218.6310, 39845.00
219.8540, 39903.00
221.0780, 39901.00
222.3010, 39983.00
223.5240, 40016.86
224.7470, 39900.00
225.9690, 39987.00
227.1920, 39561.00
228.4140, 39230.00
229.6360, 39207.00
230.8580, 39558.00
232.0800, 39546.00
233.3020, 39847.00
234.5230, 39993.00
235.7440, 40821.00
236.9650, 41522.00
238.1860, 41934.00
239.4070, 41984.00
240.6280, 42598.00
241.8480, 42460.00
243.0680, 43090.00
244.2880, 43157.00
245.5080, 42877.00
246.7280, 43066.00
247.9470, 42608.01
249.1660, 42321.00
250.3860, 41691.00
251.6040, 40501.00
252.8230, 39824.00
254.0420, 39264.00
255.2600, 39766.00
256.4790, 39312.00
257.6970, 40190.00
258.9150, 39617.54
260.1320, 39260.35
261.3500, 38940.00
262.5670, 38661.46
263.7840, 38506.96
265.0010, 38376.00
266.2180, 38354.00
267.4350, 38398.00
268.6510, 38459.48
269.8680, 38675.00
271.0840, 38556.00
272.3000, 38567.00
273.5160, 38598.00
274.7310, 38506.00
275.9470, 38276.00
277.1620, 38167.00
278.3770, 38035.10
279.5920, 37267.00
280.8070, 37913.88
282.0210, 36991.00
283.2360, 37120.00
284.4500, 36965.00
285.6640, 36909.00
286.8780, 36710.00
288.0920, 36727.00
289.3050, 36630.00
290.5180, 36715.00
291.7320, 36807.00
292.9450, 36507.00
294.1570, 36659.00
295.3700, 36782.00
296.5830, 36685.00
297.7950, 36815.00
299.0070, 36728.00
300.2190, 36970.00
301.4310, 37061.00
302.6420, 36707.00
303.8540, 36919.00
305.0650, 36905.00
306.2760, 36930.00
307.4870, 37088.00
308.6980, 37099.00
309.9080, 37435.00
311.1190, 37695.00
312.3290, 37552.00
313.5390, 37823.00
314.7490, 38268.00
315.9580, 38644.00
317.1680, 38725.00
318.3770, 38935.00
319.5860, 39805.00
320.7950, 39817.00
322.0040, 40147.00
323.2130, 40633.00
324.4210, 40910.00
325.6290, 41030.00
326.8380, 41654.00
328.0460, 41583.00
329.2530, 41711.00
330.4610, 41552.00
331.6680, 41548.00
332.8760, 41401.00
334.0830, 41198.07
335.2890, 40970.00
336.4960, 40717.00
337.7030, 40493.00
338.9090, 40205.00
340.1150, 40043.00
341.3210, 39821.00
342.5270, 39907.00
343.7330, 40153.00
344.9380, 40334.00
346.1440, 40724.00
347.3490, 41302.00
348.5540, 41724.00
349.7590, 42171.00
350.9630, 42977.00
352.1680, 43652.00
353.3720, 44128.00
354.5760, 44405.00
355.7800, 45389.00
356.9840, 45876.00
358.1870, 45816.00
359.3910, 46260.00
360.5940, 46172.00
361.7970, 46286.00
363.0000, 45612.00
364.2030, 44592.00
365.4050, 44063.00
366.6080, 43491.00
367.8100, 42173.00
369.0120, 41565.00
370.2140, 41842.00
371.4150, 40952.00
372.6170, 40828.00
373.8180, 40526.00
375.0190, 40351.00
376.2200, 39955.00
377.4210, 39928.00
378.6220, 39565.00
379.8220, 39630.00
381.0230, 39898.00
382.2230, 39573.00
383.4230, 39501.00
384.6220, 39657.00
385.8220, 39362.00
387.0220, 39438.00
388.2210, 39199.00
389.4200, 39275.00
390.6190, 39290.00
391.8180, 38748.00
393.0160, 38466.00
394.2150, 38363.00
395.4130, 38440.00
396.6110, 38173.00
397.8090, 38070.00
399.0060, 38092.00
400.2040, 37772.00
401.4010, 37904.00
402.5980, 37927.00
403.7950, 37776.00
404.9920, 37762.00
406.1890, 37587.87
407.3860, 37557.00
408.5820, 37633.00
409.7780, 37654.00
410.9740, 37692.30
412.1700, 37843.00
413.3650, 37846.00
414.5610, 37706.00
415.7560, 37887.00
416.9510, 37840.00
418.1460, 37915.00
419.3410, 38204.00
420.5360, 38482.00
421.7300, 38231.00
422.9240, 37945.00
424.1180, 38386.00
425.3120, 38160.00
426.5060, 38210.00
427.7000, 38562.00
428.8930, 38760.00
430.0860, 38708.00
431.2790, 39100.00
432.4720, 39414.00
433.6650, 38936.00
434.8580, 38786.00
436.0500, 38705.00
437.2420, 38704.00
438.4340, 38561.00
439.6260, 38512.00
440.8180, 38599.00
442.0090, 38346.00
443.2010, 38434.07
444.3920, 38321.00
445.5830, 38346.00
446.7740, 38624.00
447.9640, 38381.00
449.1550, 38598.00
450.3450, 38387.00
451.5350, 38464.00
452.7250, 38514.00
453.9150, 38468.00
455.1050, 38770.00
456.2940, 38703.00
457.4830, 38784.00
458.6720, 38958.00
459.8610, 38969.00
461.0500, 39176.00
462.2390, 39319.00
463.4270, 39524.00
464.6150, 39538.00
465.8040, 39662.00
466.9910, 39864.00
468.1790, 39727.00
469.3670, 39956.00
470.5540, 39849.75
471.7410, 39811.00
472.9280, 39743.00
474.1150, 39506.00
475.3020, 39553.00
476.4890, 39617.00
477.6750, 39369.00
478.8610, 39436.00
480.0470, 39289.00
481.2330, 39283.00
482.4190, 39590.00
483.6040, 39598.00
484.7900, 39398.00
485.9750, 39805.00
487.1600, 39718.00
488.3450, 39629.00
489.5290, 39880.00
490.7140, 39177.43
491.8980, 39937.96
493.0820, 40418.34
494.2660, 40633.60
495.4500, 39789.72
496.6340, 40313.50
497.8170, 40289.09
499.0010, 40242.30
500.1840, 40958.47
501.3670, 40268.55
502.5500, 40972.62
503.7320, 41120.13
504.9150, 40964.00
506.0970, 41121.00
507.2790, 41283.00
508.4610, 40988.00
509.6430, 41231.00
510.8250, 41427.00
512.0060, 41715.00
513.1870, 41634.00
514.3680, 41756.00
515.5490, 41719.00
516.7300, 41941.00
517.9110, 42125.37
519.0910, 42523.00
520.2710, 42645.00
521.4510, 42979.00
522.6310, 43265.00
523.8110, 43648.00
524.9910, 44361.00
526.1700, 44981.00
527.3490, 45409.00
528.5280, 46194.00
529.7070, 46892.00
530.8860, 47755.00
532.0650, 48516.00
533.2430, 49239.00
534.4210, 49957.00
535.5990, 50717.00
536.7770, 51207.00
537.9550, 51396.00
539.1320, 51788.00
540.3100, 51904.00
541.4870, 51766.00
542.6640, 51108.00
543.8410, 50326.00
545.0170, 49778.00
546.1940, 48989.00
547.3700, 48290.00
548.5470, 47608.00
549.7230, 47029.00
550.8980, 46641.00
552.0740, 46305.00
553.2500, 46063.00
554.4250, 46080.00
555.6000, 45790.00
556.7750, 45338.00
557.9500, 45357.00
559.1250, 45603.00
560.2990, 45439.69
561.4730, 45637.00
562.6480, 45535.00
563.8220, 45616.00
564.9950, 45636.00
566.1690, 45922.00
567.3430, 46083.00
568.5160, 46528.00
569.6890, 46643.00
570.8620, 46908.00
572.0350, 46900.00
573.2070, 47154.00
574.3800, 47010.00
575.5520, 46599.00
576.7240, 46708.00
577.8960, 46419.00
579.0680, 45971.00
580.2400, 45100.00
581.4110, 44652.00
582.5830, 43873.00
583.7540, 43698.00
584.9250, 42844.00
586.0950, 42322.00
587.2660, 41592.54
588.4370, 41668.58
589.6070, 41624.74
590.7770, 41467.27
591.9470, 40855.88
593.1170, 40830.64
594.2860, 40570.66
595.4560, 40300.89
596.6250, 40737.00
597.7940, 40785.00
598.9630, 40234.00
600.1320, 40102.00
601.3000, 40361.00
602.4690, 40343.00
603.6370, 40172.00
604.8050, 40072.00
605.9730, 40307.00
607.1410, 40207.00
608.3090, 40279.00
609.4760, 40402.00
610.6430, 40302.07
611.8100, 40372.56
612.9770, 40153.00
614.1440, 40357.00
615.3110, 40179.00
616.4770, 40130.00
617.6430, 40357.00
618.8090, 40443.00
619.9750, 40204.00
621.1410, 40330.00
622.3070, 40272.00
623.4720, 40455.00
624.6370, 40443.00
625.8020, 40531.00
626.9670, 40657.00
628.1320, 40522.00
629.2970, 40658.00
630.4610, 40576.00
631.6250, 40742.00
632.7890, 40720.00
633.9530, 40788.73
635.1170, 40797.00
636.2810, 40973.00
637.4440, 41008.00
638.6070, 41194.00
639.7700, 41011.00
640.9330, 41575.00
642.0960, 41622.00
643.2590, 42082.00
644.4210, 41748.00
645.5830, 42377.00
646.7450, 42350.00
647.9070, 42893.00
649.0690, 43636.00
650.2310, 43544.00
651.3920, 44087.00
652.5530, 44285.00
653.7140, 44582.00
654.8750, 44955.00
656.0360, 45427.00
657.1970, 45639.00
658.3570, 46209.00
659.5170, 46421.00
660.6770, 46603.00
661.8370, 46715.00
662.9970, 46555.00
664.1570, 46514.79
665.3160, 46512.00
666.4750, 45921.00
667.6340, 45320.00
668.7930, 44502.00
669.9520, 44179.34
671.1110, 44118.00
672.2690, 43494.00
673.4270, 43018.00
674.5850, 42788.00
675.7430, 42279.00
676.9010, 41860.00
678.0590, 41734.00
679.2160, 41676.00
680.3730, 41434.96
681.5300, 41528.00
682.6870, 41108.00
683.8440, 41510.00
685.0010, 41260.00
686.1570, 41135.00
687.3130, 41119.00
688.4690, 40903.00
689.6250, 40912.91
690.7810, 40982.00
691.9370, 40671.77
693.0920, 40939.60
694.2470, 41087.36
695.4020, 41121.51
696.5570, 40701.74
697.7120, 40868.11
698.8670, 40799.58
700.0210, 40721.42
701.1750, 40970.29
702.3290, 40616.55
703.4830, 40860.24
704.6370, 40865.44
705.7910, 40979.79
706.9440, 40548.00
708.0970, 40804.00
709.2510, 41023.00
710.4030, 40950.00
711.5560, 40855.00
712.7090, 40874.00
713.8610, 40945.00
715.0140, 41219.00
716.1660, 41053.00
717.3180, 40799.00
718.4690, 41244.00
719.6210, 41145.00
720.7730, 41306.00
721.9240, 41167.00
723.0750, 41253.00
724.2260, 41446.00
725.3770, 41152.00
726.5270, 41479.00
727.6780, 41350.00
728.8280, 41367.68
729.9780, 41491.46
731.1280, 41369.00
732.2780, 41688.00
733.4280, 41645.00
734.5770, 41907.00
735.7260, 41650.00
736.8760, 41678.00
738.0250, 41653.83
739.1730, 41520.00
740.3220, 41533.00
741.4700, 41704.00
742.6190, 41671.00
743.7670, 41598.00
744.9150, 41875.00
746.0630, 41723.00
747.2100, 42070.00
748.3580, 41843.00
749.5050, 42099.00
750.6520, 42180.00
751.7990, 42194.19
752.9460, 42121.00
754.0930, 42289.00
755.2390, 42363.00
756.3860, 42271.00
757.5320, 42432.00
758.6780, 42520.00
759.8240, 42564.69
760.9690, 42553.00
762.1150, 42728.00
763.2600, 42822.00
764.4060, 42880.08
765.5510, 42625.00
766.6950, 42758.00
767.8400, 42345.00
768.9850, 42126.00
770.1290, 42203.00
771.2730, 42079.00
772.4170, 41959.00
773.5610, 42362.00
774.7050, 42275.65
775.8480, 42073.00
776.9920, 42443.00
778.1350, 42011.00
779.2780, 41924.00
780.4210, 41843.00
781.5640, 41924.00
782.7060, 41925.40
783.8490, 41860.81
784.9910, 42015.00
786.1330, 41868.00
787.2750, 41770.00
788.4170, 42036.00
789.5580, 41929.00
790.7000, 41877.00
791.8410, 41951.00
792.9820, 42126.00
794.1230, 41999.00
795.2640, 41881.00
796.4040, 42099.00
797.5450, 41959.00
798.6850, 42143.00
799.8250, 41972.00
800.9650, 42249.00
802.1050, 42180.00
803.2450, 42111.00
804.3840, 41751.00
805.5230, 42160.00
806.6630, 42151.00
807.8020, 42099.00
808.9400, 42330.00
810.0790, 42159.00
811.2170, 42335.00
812.3560, 42251.00
813.4940, 42042.00
814.6320, 42391.00
815.7700, 42186.00
816.9070, 42330.00
818.0450, 42236.00
819.1820, 42244.74
820.3190, 42551.00
821.4560, 42327.00
822.5930, 42228.00
823.7300, 42350.00
824.8670, 42511.00
826.0030, 42648.00
827.1390, 42742.58
828.2750, 42769.00
829.4110, 42814.00
830.5470, 42716.00
831.6820, 42502.00
832.8180, 42515.00
833.9530, 42726.00
835.0880, 42581.00
836.2230, 42705.00
837.3580, 42707.00
838.4920, 42662.00
839.6270, 42708.29
840.7610, 42816.36
841.8950, 42736.00
843.0290, 43056.00
844.1630, 43183.00
845.2960, 43191.00
846.4300, 43235.00
847.5630, 43347.98
848.6960, 43401.00
849.8290, 43543.00
850.9620, 43686.00
852.0940, 43776.69
853.2270, 43522.00
854.3590, 43772.00
855.4910, 43876.00
856.6230, 43586.00
857.7550, 43858.00
858.8870, 44064.00
860.0180, 44057.00
861.1500, 44317.00
862.2810, 44494.00
863.4120, 44499.00
864.5430, 44774.00
865.6730, 44991.00
866.8040, 45138.00
867.9340, 45354.14
869.0640, 45563.00
870.1940, 45663.00
871.3240, 45902.00
872.4540, 45992.00
873.5830, 46125.00
874.7130, 46111.00
875.8420, 46256.00
876.9710, 46720.00
878.1000, 46538.00
879.2290, 46940.00
880.3570, 46887.00
881.4860, 46747.00
882.6140, 46915.00
883.7420, 47208.00
884.8700, 46773.00
885.9980, 46943.00
887.1250, 46742.00
888.2530, 46486.00
889.3800, 46868.00
890.5070, 46252.00
891.6340, 46427.00
892.7610, 45941.00
893.8880, 45963.00
895.0140, 45364.00
896.1400, 45352.00
897.2670, 45314.00
898.3930, 45135.00
899.5180, 44910.00
900.6440, 44825.00
901.7700, 44596.00
902.8950, 44424.00
904.0200, 44699.00
905.1450, 44637.00
906.2700, 44529.00
907.3950, 44249.00
908.5190, 44347.00
909.6440, 44443.00
910.7680, 44059.00
911.8920, 44244.00
913.0160, 44412.00
914.1400, 44182.00
915.2630, 44442.00
916.3870, 44486.00
917.5100, 44570.00
918.6330, 44661.00
919.7560, 44229.00
920.8790, 44467.00
922.0010, 44555.00
923.1240, 44896.00
924.2460, 44297.00
925.3680, 44597.00
926.4900, 44536.09
927.6120, 44516.00
928.7340, 44513.00
929.8550, 44809.00
930.9760, 44657.00
932.0980, 44438.00
933.2190, 44745.00
934.3390, 44737.00
935.4600, 44780.00
936.5810, 44672.00
937.7010, 44644.00
938.8210, 45003.00
939.9410, 44828.00
941.0610, 44898.00
942.1810, 44861.00
943.3010, 44859.00
944.4200, 45017.00
945.5390, 45045.64
946.6580, 45264.00
947.7770, 45320.00
948.8960, 45509.00
950.0150, 45798.00
951.1330, 45505.00
952.2510, 45759.00
953.3690, 45954.00
954.4870, 46110.25
955.6050, 46334.00
956.7230, 46762.00
957.8400, 47317.00
958.9580, 47756.00
960.0750, 48274.00
961.1920, 49058.00
962.3090, 49571.00
963.4250, 49912.00
964.5420, 50105.00
965.6580, 50605.07
966.7740, 51040.00
967.8900, 51365.00
969.0060, 51309.46
970.1220, 51218.00
971.2380, 50710.00
972.3530, 50039.00
973.4680, 49185.00
974.5830, 48791.00
975.6980, 48516.00
976.8130, 47925.00
977.9280, 47591.00
979.0420, 47726.00
980.1560, 47218.00
981.2710, 47080.00
982.3850, 46820.00
983.4980, 46961.00
984.6120, 46783.00
985.7260, 46797.00
986.8390, 46678.00
987.9520, 46656.00
989.0650, 46566.61
990.1780, 46454.00
991.2910, 46372.00
992.4030, 46332.48
993.5160, 46226.00
994.6280, 46154.77
995.7400, 46165.00
996.8520, 46012.00
997.9640, 45943.00
999.0750, 45935.00
1000.187, 46096.00
1001.298, 45679.00
1002.409, 46014.00
1003.520, 45722.00
1004.631, 45976.00
1005.741, 45895.00
1006.852, 46315.00
1007.962, 45929.00
1009.072, 45801.00
1010.182, 45974.00
1011.292, 45886.00
1012.402, 46290.00
1013.511, 46096.00
1014.621, 45754.00
1015.730, 46058.00
1016.839, 46042.00
1017.948, 46089.00
1019.056, 45890.00
1020.165, 45864.00
1021.273, 46313.00
1022.382, 46100.00
1023.490, 46582.00
1024.598, 46206.00
1025.706, 46344.00
1026.813, 46848.00
1027.921, 46599.00
1029.028, 46884.00
1030.135, 47052.00
1031.242, 47066.00
1032.349, 47124.00
1033.456, 47010.00
1034.562, 47325.00
1035.668, 47328.00
1036.775, 47662.00
1037.881, 47192.00
1038.987, 47159.00
1040.092, 47338.00
1041.198, 47405.00
1042.303, 47264.00
1043.408, 47061.00
1044.514, 47152.00
1045.618, 46978.00
1046.723, 46640.00
1047.828, 46752.00
1048.932, 46876.00
1050.037, 46874.00
1051.141, 46928.57
1052.245, 46889.00
1053.349, 46917.64
1054.452, 46910.40
1055.556, 46867.00
1056.659, 46872.00
1057.762, 46940.00
1058.865, 46962.00
1059.968, 46953.00
1061.071, 46901.00
1062.174, 47062.00
1063.276, 46905.00
1064.378, 47200.00
1065.480, 46945.00
1066.582, 47118.00
1067.684, 47444.00
1068.786, 47205.00
1069.887, 47477.31
1070.988, 47637.80
1072.090, 47631.00
1073.191, 47967.00
1074.291, 47932.00
1075.392, 47873.00
1076.493, 47975.00
1077.593, 48174.00
1078.693, 48390.00
1079.793, 48490.00
1080.893, 48885.00
1081.993, 48887.00
1083.092, 49050.00
1084.192, 49210.00
1085.291, 48710.00
1086.390, 48657.00
1087.489, 48496.00
1088.588, 48270.00
1089.686, 48108.00
1090.785, 47826.00
1091.883, 47730.00
1092.981, 47721.00
1094.079, 47628.00
1095.177, 47256.00
1096.275, 47415.00
1097.373, 47177.00
1098.470, 47213.33
1099.567, 46866.61
1100.664, 47100.02
1101.761, 47213.34
1102.858, 47213.05
1103.954, 46758.89
1105.051, 46890.82
1106.147, 46787.90
1107.243, 46675.34
1108.339, 46889.81
1109.435, 46501.66
1110.531, 46710.95
1111.626, 46681.78
1112.722, 46761.73
1113.817, 46605.36
1114.912, 46522.00
1116.007, 46675.06
1117.101, 46697.25
1118.196, 46513.68
1119.290, 46600.64
1120.385, 46204.27
1121.479, 46232.04
1122.573, 46442.78
1123.666, 46271.16
1124.760, 46362.45
1125.853, 46353.62
1126.947, 45889.68
1128.040, 46217.21
1129.133, 46202.47
1130.226, 45836.30
1131.318, 46136.75
1132.411, 45819.02
1133.503, 45721.97
1134.596, 45790.93
1135.688, 45686.83
1136.780, 45855.63
1137.871, 45761.57
1138.963, 45643.97
1140.054, 45628.92
1141.146, 45323.35
1142.237, 45556.72
1143.328, 45381.00
1144.419, 45472.00
1145.509, 45198.00
1146.600, 44776.70
1147.690, 45032.77
1148.780, 45168.77
1149.870, 45191.15
1150.960, 44759.62
1152.050, 44914.22
1153.139, 44833.94
1154.229, 44744.02
1155.318, 44981.13
1156.407, 44615.64
1157.496, 44847.57
1158.585, 44841.02
1159.674, 44943.61
1160.762, 44809.87
1161.850, 44749.14
1162.939, 44924.81
1164.027, 44969.59
1165.114, 44808.66
1166.202, 44918.21
1167.290, 44544.47
1168.377, 44594.84
1169.464, 44828.18
1170.551, 44679.14
1171.638, 44793.03
1172.725, 44806.78
1173.812, 44365.43
1174.898, 44715.56
1175.984, 44723.40
1177.071, 44700.00
1178.157, 44468.00
1179.242, 44371.00
1180.328, 44468.00
1181.414, 44576.00
1182.499, 44669.00
1183.584, 44572.08
1184.669, 44399.00
1185.754, 44334.00
1186.839, 44514.00
1187.924, 44445.00
1189.008, 44671.00
1190.092, 44534.37
1191.177, 44301.00
1192.260, 44534.00
1193.344, 44300.00
1194.428, 44799.00
1195.512, 44363.00
1196.595, 44386.00
1197.678, 44298.00
1198.761, 44252.00
1199.844, 44414.00
1200.927, 44306.00
1202.009, 44568.00
1203.092, 44268.00
1204.174, 44370.00
1205.256, 44202.40
1206.338, 44481.00
1207.420, 44639.52
1208.502, 44684.43
1209.583, 44275.41
1210.665, 44452.54
1211.746, 44394.77
1212.827, 44327.36
1213.908, 44586.98
1214.988, 44243.99
1216.069, 44498.42
1217.149, 44514.37
1218.230, 44639.47
1219.310, 44528.22
1220.390, 44319.00
1221.470, 44707.00
1222.549, 44484.00
1223.629, 44324.00
1224.708, 44614.00
1225.787, 44478.00
1226.866, 44413.00
1227.945, 44459.22
1229.024, 44367.00
1230.103, 44290.00
1231.181, 44613.00
1232.259, 44396.00
1233.337, 44621.00
1234.415, 44539.00
1235.493, 44576.00
1236.571, 44566.00
1237.648, 44388.00
1238.726, 44521.00
1239.803, 44414.00
1240.880, 44485.00
1241.957, 44596.00
1243.034, 44543.00
1244.110, 44518.00
1245.187, 44406.00
1246.263, 44461.00
1247.339, 44325.00
1248.415, 44346.00
1249.491, 44536.00
1250.566, 44186.00
1251.642, 44388.00
1252.717, 44498.00
1253.793, 44444.00
1254.868, 44522.00
1255.943, 44518.61
1257.017, 44584.00
1258.092, 44488.00
1259.166, 44390.00
1260.241, 44313.00
1261.315, 44347.00
1262.389, 44628.00
1263.462, 44387.00
1264.536, 44460.00
1265.610, 44292.00
1266.683, 44505.00
1267.756, 44187.60
1268.829, 44465.56
1269.902, 44623.45
1270.975, 44667.72
1272.048, 44258.08
1273.120, 44434.57
1274.192, 44376.16
1275.264, 44308.12
1276.336, 44567.11
1277.408, 44223.48
1278.480, 44477.28
1279.551, 44492.60
1280.623, 44617.07
1281.694, 44505.18
1282.765, 44466.29
1283.836, 44663.83
1284.907, 44730.46
1285.977, 44591.36
1287.048, 44722.77
1288.118, 44370.88
1289.188, 44443.08
1290.258, 44698.25
1291.328, 44571.04
1292.398, 44706.76
1293.467, 44742.34
1294.537, 44322.82
1295.606, 44694.76
1296.675, 44724.42
1297.744, 44402.63
1298.813, 44747.45
1299.882, 44474.11
1300.950, 44421.42
1302.018, 44534.77
1303.086, 44475.02
1304.155, 44688.19
1305.222, 44638.44
1306.290, 44565.20
1307.358, 44594.46
1308.425, 44333.25
1309.492, 44610.94
1310.559, 44520.51
1311.626, 44613.07
1312.693, 44747.10
1313.760, 44563.55
1314.826, 44716.21
1315.893, 44347.48
1316.959, 44415.02
1318.025, 44435.59
1319.091, 44735.00
1320.157, 44368.81
1321.222, 44424.23
1322.288, 44659.16
1323.353, 44642.91
1324.418, 44731.67
1325.483, 44509.54
1326.548, 44579.47
1327.612, 44568.90
1328.677, 44836.52
1329.741, 44884.51
1330.806, 44667.65
1331.870, 44451.91
1332.934, 44739.55
1333.997, 44550.07
1335.061, 44618.00
1336.124, 44420.09
1337.188, 44451.70
1338.251, 44479.68
1339.314, 44625.32
1340.377, 44414.17
1341.439, 44665.82
1342.502, 44649.99
1343.564, 44712.95
1344.627, 44767.15
1345.689, 44462.40
1346.751, 44451.90
1347.813, 44862.43
1348.874, 44630.86
1349.936, 44528.89
1350.997, 44519.05
1352.058, 44944.00
1353.119, 44964.81
1354.180, 44502.56
1355.241, 44908.35
1356.301, 44780.10
1357.362, 44810.55
1358.422, 44783.10
1359.482, 44772.79
1360.542, 44544.46
1361.602, 44603.43
1362.662, 44896.01
1363.721, 44790.33
1364.781, 44955.26
1365.840, 44627.01
1366.899, 44591.50
1367.958, 44633.70
1369.017, 44704.23
1370.075, 44548.33
1371.134, 44845.27
1372.192, 44840.70
1373.250, 44574.83
1374.308, 44592.41
1375.366, 44562.93
1376.424, 45023.38
1377.481, 44810.22
1378.539, 44549.37
1379.596, 44822.52
1380.653, 44924.51
1381.710, 44795.10
1382.767, 44783.00
1383.824, 45076.00
1384.880, 44915.12
1385.937, 44982.89
1386.993, 44871.00
1388.049, 44940.00
1389.105, 44964.00
1390.161, 44962.00
1391.216, 44973.00
1392.272, 44846.00
1393.327, 44931.00
1394.382, 44992.00
1395.437, 44749.00
1396.492, 44810.00
1397.547, 44918.00
1398.601, 44831.00
1399.656, 44883.00
1400.710, 44963.00
1401.764, 44633.00
1402.818, 44781.00
1403.872, 45022.00
1404.925, 44824.00
1405.979, 45078.00
1407.032, 44989.00
1408.085, 44761.00
1409.139, 44909.00
1410.191, 44890.00
1411.244, 44928.00
1412.297, 44871.00
1413.349, 45084.00
1414.402, 44807.00
1415.454, 45025.00
1416.506, 44753.00
1417.558, 44903.00
1418.609, 44830.01
1419.661, 44753.39
1420.712, 44848.00
1421.764, 44700.00
1422.815, 44975.00
1423.866, 45063.00
1424.916, 44968.00
1425.967, 45183.00
1427.018, 45107.87
1428.068, 45126.16
1429.118, 44968.00
1430.168, 45134.00
1431.218, 44861.00
1432.268, 44905.00
1433.318, 44932.75
1434.367, 44915.12
1435.416, 45191.96
1436.465, 45348.73
1437.514, 45391.89
1438.563, 44981.13
1439.612, 45156.51
1440.661, 45096.99
1441.709, 45027.84
1442.757, 45285.71
1443.805, 44940.96
1444.853, 45193.65
1445.901, 45207.86
1446.949, 45331.21
1447.996, 45218.21
1449.044, 45178.21
1450.091, 45374.64
1451.138, 45440.15
1452.185, 45299.95
1453.232, 45430.23
1454.278, 45077.23
1455.325, 45148.32
1456.371, 45402.38
1457.417, 45274.06
1458.463, 45408.66
1459.509, 45443.13
1460.555, 45022.51
1461.601, 45393.33
1462.646, 45421.88
1463.691, 45098.98
1464.737, 45442.69
1465.782, 45168.24
1466.826, 45114.44
1467.871, 45226.68
1468.916, 45165.82
1469.960, 45377.88
1471.004, 45327.01
1472.048, 45252.66
1473.092, 45280.82
1474.136, 45018.50
1475.180, 45295.08
1476.223, 45203.54
1477.267, 45294.99
1478.310, 45427.91
1479.353, 45243.25
1480.396, 45394.81
1481.439, 45024.97
1482.481, 45091.40
1483.524, 45110.86
1484.566, 45409.16
1485.608, 45041.87
1486.650, 45096.18
1487.692, 45330.00
1488.734, 45312.64
1489.775, 45400.30
1490.817, 45177.06
1491.858, 45245.88
1492.899, 45234.20
1493.940, 45500.71
1494.981, 45547.61
1496.022, 45329.64
1497.062, 45548.00
1498.103, 45410.00
1499.143, 45414.00
1500.183, 45250.00
1501.223, 45277.00
1502.263, 45363.00
1503.302, 45398.00
1504.342, 45665.00
1505.381, 45728.00
1506.420, 45641.00
1507.459, 45480.00
1508.498, 45581.00
1509.537, 45306.00
1510.576, 45500.00
1511.614, 45532.00
1512.652, 45045.00
1513.691, 45614.00
1514.729, 45721.00
1515.767, 45299.00
1516.804, 45577.00
1517.842, 45285.00
1518.879, 45479.00
1519.917, 45642.00
1520.954, 45550.00
1521.991, 45526.00
1523.028, 45714.00
1524.064, 45534.00
1525.101, 45860.00
1526.137, 45468.00
1527.173, 45559.00
1528.210, 45492.00
1529.245, 45446.00
1530.281, 45690.00
1531.317, 45767.00
1532.352, 45623.00
1533.388, 45583.79
1534.423, 45861.70
1535.458, 46019.54
1536.493, 46063.75
1537.528, 45654.05
1538.562, 45830.49
1539.597, 45772.04
1540.631, 45703.95
1541.665, 45962.88
1542.700, 45619.21
1543.733, 45872.95
1544.767, 45888.22
1545.801, 46012.63
1546.834, 45900.70
1547.868, 45861.76
1548.901, 46059.25
1549.934, 46125.83
1550.967, 45986.68
1551.999, 46118.03
1553.032, 45766.09
1554.064, 45838.24
1555.097, 46093.37
1556.129, 45966.11
1557.161, 46101.77
1558.193, 46137.30
1559.224, 45717.74
1560.256, 46089.62
1561.287, 46119.23
1562.318, 46102.00
##END=



