##NAMES=Rutile
##RRUFFID=R040049
##IDEAL CHEMISTRY=Ti^4+^O_2_
##LOCALITY=Graves Mountain, Lincoln County, Georgia, USA
##OWNER=RRUFF
##SOURCE=University of Arizona Mineral Museum
##DESCRIPTION=Reddish-black fragments
##STATUS=The identification of this mineral has been confirmed by X-ray diffraction and chemical analysis
##URL=rruff.info/R040049
##MEASURED CHEMISTRY=(Ti_1.00_Fe_0.01_)O_2_
##PIN_ID=L00145
##ORIENTATION=Laser parallel to [1 -1 0]. Fiducial mark perpendicular to laser is parallel to c [0 0 1]
64.13000, 15157.00
65.37400, 16253.00
66.61700, 17996.00
67.86000, 19210.00
69.10300, 21226.00
70.34600, 22991.00
71.58900, 24932.00
72.83100, 27074.00
74.07400, 29552.00
75.31600, 32022.00
76.55800, 34046.00
77.80000, 36384.00
79.04100, 38817.00
80.28300, 39695.00
81.52400, 41195.00
82.76500, 43675.00
84.00600, 45123.00
85.24700, 44723.00
86.48700, 44865.00
87.72700, 44866.00
88.96800, 44862.00
90.20800, 45602.00
91.44800, 47154.00
92.68700, 47797.00
93.92700, 48201.00
95.16600, 49012.00
96.40500, 48954.00
97.64400, 50007.00
98.88300, 49935.00
100.1210, 50373.00
101.3600, 51059.00
102.5980, 51576.00
103.8360, 51780.00
105.0740, 52524.00
106.3120, 53924.00
107.5490, 55620.00
108.7870, 55542.00
110.0240, 55504.00
111.2610, 55393.00
112.4980, 56355.00
113.7340, 56657.00
114.9710, 57590.00
116.2070, 58779.00
117.4430, 59137.00
118.6790, 59786.00
119.9150, 60736.00
121.1510, 61476.00
122.3860, 62085.29
123.6210, 62429.18
124.8560, 62403.29
126.0910, 62010.20
127.3260, 61113.05
128.5600, 60683.00
129.7950, 60980.00
131.0290, 61801.00
132.2630, 61809.00
133.4970, 62202.00
134.7300, 62352.00
135.9640, 62677.00
137.1970, 62810.00
138.4300, 62919.00
139.6630, 63225.00
140.8960, 62991.00
142.1290, 63217.00
143.3610, 62682.00
144.5930, 62180.00
145.8250, 61760.00
147.0570, 61602.00
148.2890, 61284.00
149.5210, 61039.00
150.7520, 60652.00
151.9830, 59874.00
153.2140, 59424.00
154.4450, 59123.00
155.6760, 58219.00
156.9060, 57875.00
158.1370, 57340.00
159.3670, 56864.00
160.5970, 56713.00
161.8270, 56514.00
163.0560, 56036.00
164.2860, 55933.00
165.5150, 55633.00
166.7440, 55219.00
167.9730, 54908.00
169.2020, 54637.00
170.4300, 54516.42
171.6590, 54491.00
172.8870, 54458.00
174.1150, 54533.98
175.3430, 54609.66
176.5700, 54738.66
177.7980, 54926.00
179.0250, 55142.92
180.2520, 55441.00
181.4790, 55783.00
182.7060, 56140.00
183.9330, 56753.00
185.1590, 56986.00
186.3860, 57755.00
187.6120, 58175.00
188.8380, 58751.00
190.0630, 58951.00
191.2890, 59564.00
192.5150, 60447.00
193.7400, 60930.00
194.9650, 61896.00
196.1900, 62588.00
197.4140, 63175.00
198.6390, 64178.00
199.8630, 64641.00
201.0880, 65882.00
202.3120, 66454.00
203.5350, 67027.00
204.7590, 67727.00
205.9830, 68610.00
207.2060, 69488.00
208.4290, 70467.00
209.6520, 71054.00
210.8750, 72100.00
212.0970, 73054.00
213.3200, 74016.00
214.5420, 74606.34
215.7640, 75167.00
216.9860, 75643.00
218.2080, 76141.00
219.4300, 76665.00
220.6510, 77556.00
221.8720, 78170.00
223.0930, 78525.00
224.3140, 78765.00
225.5350, 79375.00
226.7550, 79748.00
227.9760, 80465.00
229.1960, 80615.00
230.4160, 80809.00
231.6360, 80986.00
232.8550, 80987.00
234.0750, 81560.00
235.2940, 81551.00
236.5130, 81603.00
237.7320, 81636.00
238.9510, 81631.00
240.1700, 81508.00
241.3880, 82047.00
242.6070, 81709.00
243.8250, 81872.00
245.0430, 81637.00
246.2600, 81586.00
247.4780, 81460.00
248.6950, 81718.00
249.9120, 81312.00
251.1300, 80929.00
252.3460, 81270.00
253.5630, 80388.00
254.7800, 80521.00
255.9960, 80181.00
257.2120, 79610.00
258.4280, 79176.00
259.6440, 79780.00
260.8600, 79222.00
262.0750, 78604.00
263.2910, 78784.00
264.5060, 78222.00
265.7210, 77686.00
266.9360, 77627.00
268.1500, 77004.00
269.3650, 76447.00
270.5790, 76612.00
271.7930, 75767.00
273.0070, 75308.00
274.2210, 75251.00
275.4340, 74245.00
276.6480, 73614.00
277.8610, 73331.00
279.0740, 72559.00
280.2870, 72119.00
281.5000, 71524.20
282.7120, 71384.00
283.9250, 70134.00
285.1370, 69722.00
286.3490, 68690.00
287.5610, 68232.00
288.7720, 67296.00
289.9840, 66596.00
291.1950, 65736.00
292.4060, 65131.00
293.6170, 64717.00
294.8280, 63998.00
296.0390, 63460.00
297.2490, 62742.00
298.4600, 62586.00
299.6700, 61891.00
300.8800, 61590.00
302.0890, 61407.00
303.2990, 61378.00
304.5080, 60919.00
305.7180, 60852.00
306.9270, 60545.00
308.1360, 60975.00
309.3450, 60509.00
310.5530, 60248.00
311.7620, 60836.00
312.9700, 60594.00
314.1780, 60873.00
315.3860, 60796.00
316.5930, 60936.00
317.8010, 60682.00
319.0080, 61158.00
320.2150, 61288.00
321.4230, 60937.00
322.6290, 61084.00
323.8360, 61178.00
325.0430, 60937.00
326.2490, 61102.00
327.4550, 61162.00
328.6610, 60891.00
329.8670, 60974.00
331.0730, 60919.00
332.2780, 60937.43
333.4830, 60777.00
334.6880, 61283.00
335.8930, 60720.00
337.0980, 61248.00
338.3030, 61058.00
339.5070, 60636.00
340.7110, 61033.00
341.9160, 60823.00
343.1200, 61067.00
344.3230, 61113.00
345.5270, 60664.00
346.7300, 60963.00
347.9340, 60680.00
349.1370, 60872.00
350.3390, 61030.00
351.5420, 60758.00
352.7450, 61011.00
353.9470, 60915.00
355.1490, 60767.00
356.3510, 61009.00
357.5530, 60682.00
358.7550, 60516.00
359.9560, 60627.00
361.1580, 60647.00
362.3590, 60388.00
363.5600, 60321.00
364.7610, 60261.43
365.9610, 60202.00
367.1620, 60156.00
368.3620, 60024.00
369.5620, 59980.00
370.7620, 59524.00
371.9620, 60007.00
373.1620, 59520.00
374.3610, 59621.00
375.5610, 59633.00
376.7600, 59606.00
377.9590, 59684.24
379.1570, 59536.00
380.3560, 59759.00
381.5550, 59562.00
382.7530, 59557.00
383.9510, 59581.00
385.1490, 59846.00
386.3470, 59391.00
387.5440, 60104.00
388.7420, 59779.00
389.9390, 59929.00
391.1360, 60229.00
392.3330, 60110.00
393.5290, 60576.00
394.7260, 60654.00
395.9220, 61099.00
397.1190, 61537.00
398.3150, 61780.00
399.5110, 61785.00
400.7060, 62265.00
401.9020, 62809.00
403.0970, 63520.00
404.2920, 63260.00
405.4870, 64002.00
406.6820, 64080.00
407.8770, 64600.00
409.0710, 64818.00
410.2660, 65762.00
411.4600, 66118.12
412.6540, 66627.00
413.8480, 67048.00
415.0410, 67488.00
416.2350, 67616.00
417.4280, 68138.00
418.6210, 68631.00
419.8140, 68907.98
421.0070, 69428.00
422.2000, 69652.00
423.3920, 70182.00
424.5840, 70591.00
425.7770, 71232.00
426.9690, 71275.00
428.1600, 71412.00
429.3520, 72389.00
430.5430, 72562.00
431.7350, 72950.00
432.9260, 72958.00
434.1170, 73166.00
435.3070, 73573.00
436.4980, 73797.00
437.6880, 74014.00
438.8790, 74222.40
440.0690, 74341.00
441.2590, 74452.00
442.4480, 74762.29
443.6380, 74827.73
444.8270, 74898.71
446.0170, 74921.34
447.2060, 74526.00
448.3950, 74393.00
449.5830, 73738.00
450.7720, 73417.00
451.9600, 73187.00
453.1480, 72702.00
454.3360, 72314.00
455.5240, 71779.83
456.7120, 71148.00
457.9000, 70605.00
459.0870, 69940.00
460.2740, 69355.00
461.4610, 68840.00
462.6480, 68115.21
463.8350, 67173.00
465.0210, 66790.00
466.2070, 66086.00
467.3940, 65539.00
468.5800, 65240.00
469.7660, 64637.00
470.9510, 64133.00
472.1370, 63660.00
473.3220, 63174.00
474.5070, 62515.00
475.6920, 62384.00
476.8770, 62194.00
478.0620, 61422.00
479.2460, 61244.00
480.4300, 60838.00
481.6150, 60736.00
482.7980, 60767.00
483.9820, 60200.00
485.1660, 59857.00
486.3490, 59707.00
487.5330, 59772.00
488.7160, 59436.00
489.8990, 59518.00
491.0820, 59321.00
492.2640, 59152.00
493.4470, 59551.00
494.6290, 59583.00
495.8110, 59410.00
496.9930, 59913.00
498.1750, 59765.00
499.3560, 59776.00
500.5380, 60018.00
501.7190, 60233.00
502.9000, 60480.00
504.0810, 60750.04
505.2620, 60640.00
506.4420, 61429.00
507.6230, 61605.00
508.8030, 62191.00
509.9830, 61973.00
511.1630, 62038.00
512.3430, 62303.00
513.5220, 62671.00
514.7020, 62558.00
515.8810, 63039.00
517.0600, 63079.00
518.2390, 63425.00
519.4180, 63356.01
520.5960, 63683.00
521.7750, 63742.79
522.9530, 63693.00
524.1310, 63770.00
525.3090, 63585.00
526.4870, 63273.00
527.6640, 63079.00
528.8420, 63263.00
530.0190, 63212.00
531.1960, 62736.00
532.3730, 63123.00
533.5490, 62662.00
534.7260, 62902.00
535.9020, 62234.00
537.0790, 62276.00
538.2550, 61866.00
539.4310, 61759.00
540.6060, 62084.00
541.7820, 61410.00
542.9570, 61747.00
544.1320, 61135.00
545.3070, 61206.00
546.4820, 60924.00
547.6570, 60991.00
548.8310, 60523.00
550.0060, 60705.00
551.1800, 60366.00
552.3540, 60180.00
553.5280, 60374.00
554.7020, 60355.00
555.8750, 60231.00
557.0480, 60219.00
558.2220, 60242.91
559.3950, 60211.49
560.5680, 60293.00
561.7400, 60188.00
562.9130, 60097.00
564.0850, 59954.00
565.2570, 59989.00
566.4290, 60137.00
567.6010, 60048.00
568.7730, 60151.00
569.9440, 59899.00
571.1160, 60287.00
572.2870, 60211.83
573.4580, 60465.93
574.6290, 60671.74
575.7990, 60831.71
576.9700, 60809.22
578.1400, 61022.39
579.3100, 61141.06
580.4800, 61255.86
581.6500, 61502.22
582.8200, 61506.16
583.9890, 61750.30
585.1590, 61898.63
586.3280, 62090.75
587.4970, 62318.00
588.6660, 62312.00
589.8340, 62749.00
591.0030, 62833.00
592.1710, 63257.00
593.3390, 63343.00
594.5070, 63563.37
595.6750, 63902.00
596.8430, 63959.00
598.0100, 64204.00
599.1780, 64471.00
600.3450, 64524.00
601.5120, 64557.00
602.6790, 64169.00
603.8450, 63713.00
605.0120, 63519.00
606.1780, 63233.00
607.3440, 62745.00
608.5100, 61789.00
609.6760, 60880.00
610.8420, 59706.00
612.0070, 58948.00
613.1730, 57427.00
614.3380, 56473.00
615.5030, 55055.00
616.6680, 53749.00
617.8320, 52334.00
618.9970, 50843.00
620.1610, 49577.00
621.3250, 48204.87
622.4890, 46573.00
623.6530, 45659.00
624.8170, 44416.00
625.9800, 43260.00
627.1440, 42375.00
628.3070, 41565.00
629.4700, 40993.00
630.6330, 40178.00
631.7950, 39733.00
632.9580, 38976.00
634.1200, 38725.00
635.2820, 38026.00
636.4440, 37820.00
637.6060, 37650.00
638.7680, 37364.00
639.9290, 37173.00
641.0900, 37035.00
642.2520, 37125.00
643.4130, 36900.00
644.5730, 37262.00
645.7340, 36896.00
646.8950, 36700.00
648.0550, 36667.00
649.2150, 36935.00
650.3750, 37172.00
651.5350, 37180.50
652.6950, 37462.00
653.8540, 37418.00
655.0140, 37697.00
656.1730, 38066.00
657.3320, 37951.00
658.4910, 38496.00
659.6490, 38661.00
660.8080, 38801.00
661.9660, 39123.00
663.1240, 39485.00
664.2820, 39856.00
665.4400, 40434.00
666.5980, 40567.00
667.7550, 40902.00
668.9130, 41156.00
670.0700, 42134.00
671.2270, 42285.78
672.3840, 42783.00
673.5400, 42967.00
674.6970, 43455.00
675.8530, 43637.00
677.0090, 43898.00
678.1650, 44330.00
679.3210, 44689.00
680.4770, 45180.00
681.6330, 45545.00
682.7880, 45850.00
683.9430, 46264.00
685.0980, 46431.00
686.2530, 46751.00
687.4080, 47097.00
688.5620, 47086.00
689.7170, 47406.00
690.8710, 48056.00
692.0250, 48120.00
693.1790, 48303.00
694.3320, 48191.00
695.4860, 48752.00
696.6390, 48643.00
697.7930, 49092.00
698.9460, 48895.00
700.0980, 49289.00
701.2510, 49423.00
702.4040, 49374.00
703.5560, 49580.00
704.7080, 49331.00
705.8600, 49659.00
707.0120, 49288.00
708.1640, 49422.00
709.3160, 49497.00
710.4670, 49634.00
711.6180, 49790.00
712.7690, 49640.00
713.9200, 49763.00
715.0710, 49418.00
716.2220, 49294.00
717.3720, 49551.00
718.5220, 49253.00
719.6720, 49315.00
720.8220, 49343.00
721.9720, 48902.00
723.1220, 48925.00
724.2710, 48666.00
725.4200, 48800.00
726.5690, 48455.00
727.7180, 48600.00
728.8670, 48463.62
730.0160, 47999.00
731.1640, 48223.00
732.3120, 48080.00
733.4600, 47818.00
734.6080, 47874.02
735.7560, 47825.00
736.9040, 47585.00
738.0510, 47568.00
739.1980, 47175.00
740.3460, 46846.00
741.4930, 46985.00
742.6390, 47004.00
743.7860, 46837.00
744.9320, 46627.00
746.0790, 46703.00
747.2250, 46580.00
748.3710, 46873.00
749.5170, 46575.00
750.6620, 46647.00
751.8080, 46497.00
752.9530, 46687.00
754.0980, 46338.00
755.2430, 46568.00
756.3880, 46598.00
757.5330, 46815.00
758.6770, 46714.00
759.8220, 46657.00
760.9660, 46946.00
762.1100, 46999.00
763.2540, 47185.18
764.3970, 47330.96
765.5410, 47543.00
766.6840, 47654.00
767.8270, 47729.93
768.9700, 48030.00
770.1130, 48319.00
771.2560, 48123.00
772.3980, 48692.00
773.5410, 48732.00
774.6830, 48991.00
775.8250, 49320.00
776.9670, 49498.00
778.1080, 50180.00
779.2500, 50353.00
780.3910, 50805.00
781.5330, 50973.00
782.6740, 51355.00
783.8150, 51772.00
784.9550, 52008.00
786.0960, 52311.00
787.2360, 52491.00
788.3770, 52878.00
789.5170, 53061.00
790.6570, 53321.00
791.7960, 53574.00
792.9360, 53776.00
794.0750, 54181.00
795.2150, 53964.00
796.3540, 53990.00
797.4930, 54096.00
798.6310, 54337.00
799.7700, 54376.00
800.9080, 53687.00
802.0470, 53939.00
803.1850, 53495.00
804.3230, 53087.00
805.4610, 52837.00
806.5980, 52695.00
807.7360, 52335.00
808.8730, 52321.00
810.0100, 51508.00
811.1470, 51000.00
812.2840, 49797.00
813.4200, 49334.00
814.5570, 48688.00
815.6930, 48033.00
816.8290, 47238.00
817.9650, 46637.00
819.1010, 45928.00
820.2370, 45108.00
821.3720, 44640.00
822.5080, 43703.00
823.6430, 43182.00
824.7780, 42263.00
825.9130, 41619.00
827.0480, 40795.00
828.1820, 39913.00
829.3160, 39340.00
830.4510, 38773.00
831.5850, 38191.00
832.7190, 37383.00
833.8520, 37093.00
834.9860, 36243.00
836.1190, 35524.00
837.2520, 35134.00
838.3860, 34669.00
839.5180, 34051.00
840.6510, 33592.20
841.7840, 33192.00
842.9160, 32541.00
844.0480, 32091.00
845.1810, 31633.00
846.3120, 31388.00
847.4440, 30732.00
848.5760, 30512.00
849.7070, 29997.00
850.8390, 29625.63
851.9700, 29515.00
853.1010, 28944.00
854.2310, 28600.00
855.3620, 28318.02
856.4930, 28202.00
857.6230, 27948.00
858.7530, 27912.00
859.8830, 27747.00
861.0130, 27312.00
862.1430, 26993.00
863.2720, 26758.00
864.4010, 26723.00
865.5310, 26629.00
866.6600, 26145.00
867.7880, 26314.00
868.9170, 25731.00
870.0460, 25739.00
871.1740, 25333.00
872.3020, 25350.00
873.4300, 25339.00
874.5580, 24741.00
875.6860, 24900.00
876.8130, 24857.00
877.9410, 24716.00
879.0680, 24487.00
880.1950, 24512.00
881.3220, 24320.00
882.4490, 24209.00
883.5750, 24204.00
884.7020, 23962.00
885.8280, 23883.00
886.9540, 23765.00
888.0800, 23904.00
889.2060, 23684.00
890.3320, 23620.00
891.4570, 23440.00
892.5820, 23378.00
893.7070, 23296.00
894.8320, 23108.00
895.9570, 23196.00
897.0820, 23087.00
898.2060, 22937.00
899.3310, 22936.52
900.4550, 22988.00
901.5790, 22848.00
902.7030, 22797.00
903.8260, 22854.00
904.9500, 22659.00
906.0730, 22545.00
907.1960, 22658.00
908.3200, 22487.00
909.4420, 22522.00
910.5650, 22448.00
911.6880, 22510.00
912.8100, 22502.00
913.9320, 22478.00
915.0540, 22527.00
916.1760, 22331.00
917.2980, 22435.00
918.4200, 22341.00
919.5410, 22218.00
920.6620, 21933.00
921.7830, 22124.00
922.9040, 22148.00
924.0250, 21799.00
925.1460, 21981.00
926.2660, 22147.00
927.3870, 21874.00
928.5070, 21770.00
929.6270, 22070.00
930.7470, 21885.00
931.8660, 21880.00
932.9860, 21745.00
934.1050, 21636.00
935.2240, 21733.00
936.3430, 21687.00
937.4620, 21740.00
938.5810, 21488.00
939.6990, 21692.00
940.8180, 21473.00
941.9360, 21720.00
943.0540, 21340.00
944.1720, 21171.00
945.2900, 21360.00
946.4070, 21234.00
947.5250, 21254.00
948.6420, 21149.00
949.7590, 21290.00
950.8760, 21137.00
951.9930, 21170.00
953.1090, 21302.00
954.2260, 21099.00
955.3420, 21126.00
956.4580, 21077.00
957.5740, 20946.00
958.6900, 20636.00
959.8060, 20836.00
960.9210, 20837.00
962.0360, 21051.00
963.1520, 20953.00
964.2670, 20664.00
965.3810, 20656.00
966.4960, 20610.00
967.6110, 20632.00
968.7250, 20747.00
969.8390, 20648.00
970.9530, 20405.00
972.0670, 20575.00
973.1810, 20665.00
974.2940, 20406.00
975.4080, 20554.00
976.5210, 20305.00
977.6340, 20335.00
978.7470, 20181.00
979.8600, 20214.00
980.9730, 20107.00
982.0850, 20156.00
983.1970, 20123.00
984.3090, 20118.00
985.4210, 20092.00
986.5330, 20086.00
987.6450, 19948.00
988.7560, 19969.00
989.8680, 19747.00
990.9790, 20056.00
992.0900, 19992.00
993.2010, 19823.00
994.3110, 19860.00
995.4220, 19748.00
996.5320, 19613.00
997.6430, 19699.00
998.7530, 19537.00
999.8630, 19811.00
1000.972, 19460.00
1002.082, 19534.00
1003.191, 19665.00
1004.301, 19561.00
1005.410, 19615.00
1006.519, 19577.00
1007.627, 19376.00
1008.736, 19317.00
1009.844, 19229.00
1010.953, 19357.00
1012.061, 19307.00
1013.169, 19178.00
1014.277, 19409.00
1015.384, 19278.00
1016.492, 19227.00
1017.599, 19267.00
1018.706, 19152.00
1019.813, 19062.00
1020.920, 19178.00
1022.027, 19018.00
1023.134, 19157.00
1024.240, 19114.00
1025.346, 19056.00
1026.452, 19079.00
1027.558, 19048.48
1028.664, 19076.00
1029.770, 19026.00
1030.875, 19054.00
1031.980, 19006.00
1033.086, 18974.00
1034.190, 18992.00
1035.295, 19105.00
1036.400, 19069.00
1037.504, 19034.00
1038.609, 18846.00
1039.713, 18907.00
1040.817, 18809.39
1041.921, 18927.00
1043.025, 18689.00
1044.128, 18777.00
1045.231, 18663.00
1046.335, 18512.00
1047.438, 18686.00
1048.541, 18630.00
1049.643, 18750.00
1050.746, 18616.00
1051.848, 18572.00
1052.951, 18787.00
1054.053, 18773.00
1055.155, 18587.00
1056.257, 18460.00
1057.358, 18608.00
1058.460, 18293.00
1059.561, 18572.00
1060.662, 18480.00
1061.763, 18349.00
1062.864, 18458.00
1063.965, 18234.00
1065.065, 18283.00
1066.166, 18250.00
1067.266, 18397.00
1068.366, 18411.00
1069.466, 18214.00
1070.566, 18235.00
1071.665, 18307.00
1072.765, 18075.00
1073.864, 18238.00
1074.963, 18180.00
1076.062, 18096.00
1077.161, 18094.00
1078.259, 18136.00
1079.358, 18176.00
1080.456, 18074.00
1081.554, 18068.45
1082.652, 18193.20
1083.750, 18257.57
1084.848, 18264.82
1085.945, 18043.85
1087.043, 18117.58
1088.140, 18073.21
1089.237, 18024.00
1090.334, 18139.23
1091.431, 17951.45
1092.527, 18064.08
1093.624, 18056.79
1094.720, 18104.38
1095.816, 18033.14
1096.912, 17998.61
1098.008, 18082.95
1099.104, 18101.46
1100.199, 18016.55
1101.294, 18067.65
1102.390, 17875.73
1103.485, 17897.07
1104.579, 18010.42
1105.674, 17931.48
1106.769, 17984.75
1107.863, 17987.68
1108.957, 17761.79
1110.051, 17933.85
1111.145, 17933.80
1112.239, 17757.05
1113.333, 17915.47
1114.426, 17763.09
1115.519, 17721.65
1116.612, 17763.70
1117.705, 17718.72
1118.798, 17810.96
1119.891, 17771.00
1120.983, 17719.24
1122.076, 17719.01
1123.168, 17572.74
1124.260, 17697.44
1125.352, 17637.04
1126.443, 17668.66
1127.535, 17721.12
1128.626, 17613.91
1129.718, 17675.75
1130.809, 17475.43
1131.900, 17494.47
1132.990, 17489.91
1134.081, 17625.54
1135.171, 17426.52
1136.262, 17439.46
1137.352, 17542.69
1138.442, 17519.61
1139.532, 17549.35
1140.621, 17422.76
1141.711, 17443.02
1142.800, 17422.82
1143.890, 17542.48
1144.979, 17551.73
1146.067, 17427.81
1147.156, 17304.44
1148.245, 17434.18
1149.333, 17324.04
1150.421, 17343.31
1151.510, 17228.91
1152.597, 17229.95
1153.685, 17229.14
1154.773, 17287.49
1155.860, 17166.46
1156.948, 17278.12
1158.035, 17255.30
1159.122, 17272.10
1160.209, 17284.48
1161.295, 17116.40
1162.382, 17096.26
1163.468, 17287.84
1164.555, 17156.54
1165.641, 17090.42
1166.727, 17070.62
1167.812, 17282.00
1168.898, 17169.00
1169.983, 17225.00
1171.069, 17356.00
1172.154, 17148.00
1173.239, 17170.00
1174.324, 17317.00
1175.408, 17243.00
1176.493, 17176.00
1177.577, 17174.00
1178.661, 17139.77
1179.745, 17110.32
1180.829, 17115.00
1181.913, 17119.00
1182.997, 17070.00
1184.080, 17190.00
1185.163, 17337.00
1186.246, 17255.00
1187.329, 17187.00
1188.412, 17181.00
1189.495, 17354.00
1190.577, 17203.00
1191.660, 17327.00
1192.742, 17149.00
1193.824, 17176.00
1194.906, 17076.00
1195.987, 17091.00
1197.069, 17194.00
1198.150, 17210.00
1199.232, 17167.69
1200.313, 17317.00
1201.394, 17051.00
1202.474, 17225.00
1203.555, 17209.00
1204.635, 17005.00
1205.716, 17033.00
1206.796, 17121.00
1207.876, 17239.00
1208.956, 16964.00
1210.035, 16935.00
1211.115, 17014.00
1212.194, 16938.00
1213.274, 16949.00
1214.353, 17035.00
1215.432, 16981.00
1216.510, 17049.00
1217.589, 17094.00
1218.667, 16933.00
1219.746, 17063.00
1220.824, 17076.00
1221.902, 16991.00
1222.980, 17150.00
1224.057, 17035.00
1225.135, 17149.00
1226.212, 17170.00
1227.289, 16992.00
1228.366, 17122.00
1229.443, 16998.00
1230.520, 16914.00
1231.597, 16928.00
1232.673, 17181.00
1233.749, 17192.00
1234.825, 17150.00
1235.901, 17149.00
1236.977, 17203.00
1238.053, 16905.00
1239.128, 17200.00
1240.204, 17005.00
1241.279, 17181.00
1242.354, 17050.00
1243.429, 17008.00
1244.503, 17069.00
1245.578, 17258.00
1246.652, 17174.68
1247.727, 17191.50
1248.801, 17099.00
1249.875, 17112.00
1250.949, 17000.00
1252.022, 17056.00
1253.096, 17140.00
1254.169, 17218.00
1255.242, 17155.00
1256.315, 17043.00
1257.388, 17167.00
1258.461, 17055.00
1259.533, 17040.75
1260.606, 17034.66
1261.678, 16948.00
1262.750, 17073.00
1263.822, 17015.00
1264.894, 17265.00
1265.965, 16877.00
1267.037, 17224.00
1268.108, 16968.00
1269.179, 17018.00
1270.250, 17183.00
1271.321, 17104.00
1272.392, 16971.00
1273.463, 17049.00
1274.533, 16891.00
1275.603, 17060.00
1276.673, 17121.00
1277.743, 17057.00
1278.813, 16953.00
1279.883, 17083.00
1280.952, 16930.00
1282.021, 17024.00
1283.091, 16998.00
1284.160, 17031.00
1285.229, 16994.00
1286.297, 16975.00
1287.366, 16849.00
1288.434, 16825.00
1289.502, 16781.91
1290.570, 17072.00
1291.638, 16739.00
1292.706, 16859.00
1293.774, 16889.00
1294.841, 16708.00
1295.909, 16851.00
1296.976, 16807.00
1298.043, 16906.00
1299.110, 17104.00
1300.176, 16872.00
1301.243, 16771.00
1302.309, 16798.00
1303.376, 16816.00
1304.442, 16841.14
1305.508, 16852.00
1306.573, 16862.51
1307.639, 16955.00
1308.704, 16878.00
1309.770, 16905.00
1310.835, 16923.00
1311.900, 16827.00
1312.965, 16936.00
1314.030, 17037.00
1315.094, 16950.00
1316.159, 16700.00
1317.223, 16840.00
1318.287, 16684.00
1319.351, 16666.00
1320.415, 16649.00
1321.478, 16617.00
1322.542, 16620.96
1323.605, 16720.00
1324.668, 16652.00
1325.731, 16665.00
1326.794, 16742.00
1327.857, 16656.00
1328.919, 16846.00
1329.982, 16635.00
1331.044, 16831.00
1332.106, 16796.00
1333.168, 16823.00
1334.230, 16784.00
1335.292, 16687.00
1336.353, 16745.00
1337.414, 16717.00
1338.476, 16734.00
1339.537, 16812.00
1340.597, 16873.00
1341.658, 16860.00
1342.719, 16804.00
1343.779, 16875.00
1344.839, 16769.00
1345.900, 16815.40
1346.960, 16686.00
1348.019, 16807.00
1349.079, 16879.00
1350.139, 16775.00
1351.198, 16846.00
1352.257, 16813.00
1353.316, 16843.00
1354.375, 16897.00
1355.434, 16859.00
1356.492, 16868.00
1357.551, 16882.00
1358.609, 16665.00
1359.667, 17003.00
1360.725, 16679.00
1361.783, 16841.00
1362.841, 16995.00
1363.898, 16847.00
1364.956, 17022.00
1366.013, 16917.00
1367.070, 16879.00
1368.127, 16881.00
1369.183, 16929.00
1370.240, 16805.00
1371.297, 17005.00
1372.353, 16990.00
1373.409, 16939.00
1374.465, 16826.00
1375.521, 16936.00
1376.577, 16814.00
1377.632, 16947.00
1378.687, 16901.00
1379.743, 16844.00
1380.798, 16852.00
1381.853, 16806.84
1382.907, 16827.20
1383.962, 16781.00
1385.017, 16907.00
1386.071, 16951.00
1387.125, 17061.00
1388.179, 17023.96
1389.233, 17080.00
1390.287, 16901.00
1391.340, 16979.00
1392.394, 16880.00
1393.447, 16926.00
1394.500, 16961.00
1395.553, 16945.14
1396.606, 17154.00
1397.658, 16928.00
1398.711, 16906.00
1399.763, 16769.00
1400.815, 17075.00
1401.868, 16869.00
1402.919, 16981.00
1403.971, 17064.00
1405.023, 17106.00
1406.074, 17055.00
1407.125, 17115.00
1408.177, 17067.00
1409.228, 17160.00
1410.278, 17052.00
1411.329, 17233.00
1412.380, 16999.00
1413.430, 16888.00
1414.480, 17257.00
1415.530, 17118.00
1416.580, 17144.00
1417.630, 17288.00
1418.680, 17255.00
1419.729, 17248.00
1420.778, 17120.00
1421.828, 17226.00
1422.877, 17205.00
1423.925, 17086.00
1424.974, 17173.24
1426.023, 17158.00
1427.071, 17233.00
1428.119, 17254.00
1429.167, 17316.00
1430.215, 17080.00
1431.263, 17169.00
1432.311, 17118.00
1433.358, 17112.00
1434.406, 17169.00
1435.453, 17196.00
1436.500, 17160.00
1437.547, 17218.00
1438.594, 17355.00
1439.640, 17035.00
1440.687, 17414.00
1441.733, 17181.00
1442.779, 17367.00
1443.825, 17163.00
1444.871, 17325.00
1445.917, 17254.00
1446.962, 17076.00
1448.007, 17347.00
1449.053, 17588.00
1450.098, 17344.00
1451.143, 17279.00
1452.187, 17339.00
1453.232, 17391.00
1454.277, 17232.00
1455.321, 17388.00
1456.365, 17286.00
1457.409, 17458.00
1458.453, 17208.00
1459.497, 17358.00
1460.540, 17429.00
1461.584, 17303.00
1462.627, 17299.00
1463.670, 17347.00
1464.713, 17355.00
1465.756, 17163.00
1466.799, 17419.00
1467.841, 17335.00
1468.884, 17605.00
1469.926, 17535.31
1470.968, 17722.00
1472.010, 17459.00
1473.051, 17368.00
1474.093, 17378.00
1475.135, 17538.00
1476.176, 17426.00
1477.217, 17555.00
1478.258, 17360.00
1479.299, 17593.00
1480.340, 17526.00
1481.380, 17390.00
1482.421, 17699.00
1483.461, 17543.00
1484.501, 17636.00
1485.541, 17339.00
1486.581, 17517.00
1487.620, 17484.00
1488.660, 17532.00
1489.699, 17721.00
1490.739, 17545.00
1491.778, 17501.00
1492.817, 17793.00
1493.855, 17706.00
1494.894, 17538.00
1495.932, 17758.00
1496.971, 17725.00
1498.009, 17653.00
1499.047, 17537.00
1500.085, 17711.00
1501.122, 17673.00
1502.160, 17692.00
1503.197, 17726.00
1504.235, 17778.00
1505.272, 17836.00
1506.309, 17808.00
1507.346, 17648.00
1508.382, 17826.00
1509.419, 17723.00
1510.455, 17737.00
1511.491, 17949.00
1512.527, 17733.00
1513.563, 17761.00
1514.599, 17800.00
1515.635, 17763.00
1516.670, 17785.30
1517.706, 17904.57
1518.741, 17975.53
1519.776, 18000.79
1520.811, 17843.46
1521.845, 17921.90
1522.880, 17905.86
1523.914, 17885.94
1524.949, 17997.57
1525.983, 17866.79
1527.017, 17976.33
1528.050, 17989.93
1529.084, 18047.44
1530.118, 18009.88
1531.151, 18001.68
1532.184, 18088.58
1533.217, 18122.82
1534.250, 18074.30
1535.283, 18134.60
1536.316, 18000.49
1537.348, 18036.96
1538.381, 18147.05
1539.413, 18103.31
1540.445, 18165.33
1541.477, 18187.07
1542.508, 18025.75
1543.540, 18182.79
1544.571, 18202.14
1545.603, 18080.14
1546.634, 18226.27
1547.665, 18123.74
1548.696, 18109.97
1549.726, 18162.98
1550.757, 18146.37
1551.787, 18239.53
1552.817, 18226.94
1553.848, 18204.90
1554.878, 18224.09
1555.907, 18126.43
1556.937, 18245.54
1557.966, 18216.58
1558.996, 18261.23
1560.025, 18322.55
1561.054, 18256.13
1562.083, 18324.95
1563.112, 18184.04
1564.140, 18218.61
1565.169, 18234.29
1566.197, 18362.13
1567.225, 18222.23
1568.253, 18251.93
1569.281, 18353.83
1570.309, 18354.70
1571.336, 18397.80
1572.364, 18315.85
1573.391, 18405.00
1574.418, 18200.00
1575.445, 18228.00
1576.472, 18293.00
1577.499, 18161.00
1578.525, 18377.00
1579.552, 18261.00
##END=



