##NAMES=Rutile
##RRUFFID=R040049
##IDEAL CHEMISTRY=Ti^4+^O_2_
##LOCALITY=Graves Mountain, Lincoln County, Georgia, USA
##OWNER=RRUFF
##SOURCE=University of Arizona Mineral Museum
##DESCRIPTION=Reddish-black fragments
##STATUS=The identification of this mineral has been confirmed by X-ray diffraction and chemical analysis
##URL=rruff.info/R040049
##MEASURED CHEMISTRY=(Ti_1.00_Fe_0.01_)O_2_
##PIN_ID=L00223
##ORIENTATION=Laser parallel to c* (0 0 1). Fiducial mark perpendicular to laser is parallel to -a [-1 0 0]
89.67000, 43476.00
90.91000, 44240.00
92.14900, 45065.00
93.38900, 46399.00
94.62900, 46533.16
95.86800, 47030.00
97.10700, 47134.00
98.34600, 47412.00
99.58500, 47907.00
100.8230, 48366.00
102.0620, 48821.00
103.3000, 49251.00
104.5380, 49793.00
105.7760, 50962.00
107.0140, 52959.00
108.2510, 53606.00
109.4890, 53258.00
110.7260, 53121.00
111.9630, 53429.00
113.2000, 53775.39
114.4360, 54328.00
115.6730, 55246.00
116.9090, 56122.00
118.1450, 57274.00
119.3810, 57883.00
120.6170, 58126.06
121.8530, 59092.54
123.0880, 59552.38
124.3230, 59511.22
125.5590, 58711.49
126.7930, 57940.38
128.0280, 56576.12
129.2630, 56654.00
130.4970, 57040.00
131.7310, 57381.00
132.9650, 58054.00
134.1990, 58482.00
135.4330, 58966.00
136.6670, 59500.00
137.9000, 60446.00
139.1330, 61367.00
140.3660, 62278.00
141.5990, 62384.00
142.8320, 62603.00
144.0640, 61952.00
145.2960, 60429.00
146.5290, 59348.00
147.7610, 57744.00
148.9920, 55490.00
150.2240, 53794.00
151.4550, 52569.00
152.6870, 51622.00
153.9180, 51043.00
155.1490, 50547.00
156.3800, 49881.00
157.6100, 49215.00
158.8400, 48986.00
160.0710, 48170.00
161.3010, 48272.00
162.5310, 47918.00
163.7600, 48053.00
164.9900, 47868.00
166.2190, 47475.00
167.4480, 47317.00
168.6770, 47248.00
169.9060, 47260.00
171.1350, 47227.00
172.3630, 47427.25
173.5920, 47635.00
174.8200, 47935.00
176.0480, 48323.00
177.2760, 48673.00
178.5030, 49557.00
179.7310, 49549.00
180.9580, 50036.00
182.1850, 50924.00
183.4120, 51117.00
184.6390, 51428.00
185.8650, 52199.00
187.0920, 52475.00
188.3180, 53182.00
189.5440, 53700.00
190.7700, 53987.00
191.9960, 54559.00
193.2210, 54864.52
194.4470, 55564.46
195.6720, 56173.30
196.8970, 56696.34
198.1220, 56876.54
199.3460, 57499.04
200.5710, 57944.52
201.7950, 58382.33
203.0190, 59067.13
204.2430, 59296.80
205.4670, 59977.68
206.6910, 60478.45
207.9140, 61061.25
209.1370, 61465.55
210.3610, 62132.00
211.5840, 62856.00
212.8060, 63568.00
214.0290, 63856.00
215.2510, 64470.00
216.4740, 65365.00
217.6960, 65598.00
218.9180, 66729.00
220.1390, 66977.00
221.3610, 67686.00
222.5820, 68423.00
223.8030, 68876.00
225.0240, 69489.00
226.2450, 70237.00
227.4660, 70743.00
228.6870, 71310.00
229.9070, 71674.00
231.1270, 72032.00
232.3470, 72683.00
233.5670, 73312.00
234.7870, 73740.00
236.0060, 73831.00
237.2250, 74245.00
238.4440, 74511.00
239.6630, 74211.00
240.8820, 74152.00
242.1010, 74217.00
243.3190, 73964.00
244.5380, 73254.00
245.7560, 72694.00
246.9740, 72377.00
248.1910, 71673.00
249.4090, 71162.00
250.6260, 70554.00
251.8440, 69101.00
253.0610, 68522.00
254.2780, 67544.00
255.4940, 67030.00
256.7110, 66328.00
257.9270, 65748.00
259.1430, 64588.00
260.3600, 64038.00
261.5750, 63473.00
262.7910, 63087.00
264.0070, 62105.00
265.2220, 61832.00
266.4370, 61222.00
267.6520, 60695.00
268.8670, 60290.00
270.0820, 59949.00
271.2960, 59554.00
272.5100, 59292.00
273.7250, 58763.00
274.9390, 58545.00
276.1520, 58384.00
277.3660, 58021.66
278.5790, 57614.04
279.7930, 57398.00
281.0060, 56759.00
282.2190, 56175.00
283.4320, 56026.00
284.6440, 55650.00
285.8570, 55318.00
287.0690, 54641.00
288.2810, 54142.00
289.4930, 53871.00
290.7050, 53862.00
291.9160, 53528.00
293.1270, 53228.00
294.3390, 52655.00
295.5500, 52316.00
296.7610, 51873.00
297.9710, 51809.52
299.1820, 52232.00
300.3920, 51886.00
301.6020, 51812.00
302.8120, 51960.00
304.0220, 51795.00
305.2320, 52045.00
306.4410, 52013.00
307.6510, 51939.00
308.8600, 51891.00
310.0690, 52414.00
311.2780, 52528.00
312.4860, 52818.00
313.6950, 52250.00
314.9030, 52673.00
316.1110, 52918.00
317.3190, 52647.00
318.5270, 52957.00
319.7350, 53083.00
320.9420, 53021.00
322.1490, 52735.00
323.3570, 52925.00
324.5630, 52955.00
325.7700, 52510.00
326.9770, 52560.16
328.1830, 52367.65
329.3900, 52238.00
330.5960, 52187.00
331.8020, 52102.00
333.0070, 52210.00
334.2130, 51861.00
335.4180, 52144.00
336.6230, 51855.00
337.8290, 51957.00
339.0330, 51533.00
340.2380, 51702.00
341.4430, 51730.00
342.6470, 51649.00
343.8510, 51644.00
345.0550, 51441.00
346.2590, 51624.00
347.4630, 51702.00
348.6660, 51609.00
349.8700, 51472.00
351.0730, 51879.00
352.2760, 51880.00
353.4790, 51966.00
354.6810, 52102.00
355.8840, 52121.00
357.0860, 52237.00
358.2880, 52097.00
359.4900, 52140.00
360.6920, 51891.00
361.8940, 52133.00
363.0950, 51893.00
364.2960, 51510.00
365.4980, 51794.00
366.6990, 51416.00
367.8990, 51353.00
369.1000, 51517.00
370.3000, 51212.00
371.5010, 51198.00
372.7010, 51135.00
373.9010, 50687.00
375.1010, 50560.00
376.3000, 50210.00
377.5000, 50403.00
378.6990, 50355.00
379.8980, 50085.00
381.0970, 49992.00
382.2960, 49789.00
383.4940, 49635.34
384.6920, 49291.00
385.8910, 49410.00
387.0890, 49465.00
388.2870, 49499.00
389.4840, 48941.00
390.6820, 49042.00
391.8790, 48856.00
393.0770, 48713.00
394.2740, 48669.00
395.4700, 48429.00
396.6670, 48507.00
397.8640, 48418.41
399.0600, 48195.00
400.2560, 48279.00
401.4520, 48181.00
402.6480, 47879.00
403.8440, 47939.00
405.0390, 47734.00
406.2350, 48180.00
407.4300, 48198.00
408.6250, 47793.00
409.8200, 48026.00
411.0140, 47851.00
412.2090, 47867.00
413.4030, 48012.00
414.5970, 47826.00
415.7910, 48159.00
416.9850, 48228.00
418.1790, 48238.00
419.3720, 48495.00
420.5660, 48269.00
421.7590, 48494.29
422.9520, 48585.10
424.1440, 48809.00
425.3370, 48728.00
426.5300, 49007.00
427.7220, 48810.00
428.9140, 49101.00
430.1060, 49273.00
431.2980, 49267.00
432.4890, 49612.00
433.6810, 49908.00
434.8720, 49564.00
436.0630, 49692.00
437.2540, 50223.00
438.4450, 49952.00
439.6350, 50421.00
440.8260, 49770.00
442.0160, 50147.00
443.2060, 49993.00
444.3960, 50155.00
445.5860, 50111.00
446.7750, 50201.00
447.9650, 50413.00
449.1540, 49914.00
450.3430, 50104.00
451.5320, 50141.00
452.7210, 49800.00
453.9090, 49951.00
455.0980, 49382.00
456.2860, 49734.00
457.4740, 49308.00
458.6620, 49267.00
459.8500, 49321.00
461.0370, 48957.00
462.2250, 48539.00
463.4120, 49089.00
464.5990, 48613.00
465.7860, 48669.00
466.9720, 48561.00
468.1590, 48387.00
469.3450, 48212.00
470.5320, 47823.00
471.7180, 47906.00
472.9030, 47817.00
474.0890, 47909.00
475.2750, 47538.00
476.4600, 47585.00
477.6450, 47324.00
478.8300, 47147.00
480.0150, 47111.00
481.2000, 47101.00
482.3840, 46991.00
483.5690, 46995.48
484.7530, 46987.04
485.9370, 46946.00
487.1210, 46906.00
488.3040, 46868.00
489.4880, 46592.00
490.6710, 46829.00
491.8540, 46519.00
493.0370, 46854.00
494.2200, 46700.00
495.4030, 46828.00
496.5850, 46785.00
497.7680, 47291.00
498.9500, 47198.00
500.1320, 47169.00
501.3140, 47468.00
502.4950, 47435.00
503.6770, 47686.00
504.8580, 47923.00
506.0390, 48062.00
507.2200, 48328.00
508.4010, 48595.00
509.5820, 48910.00
510.7620, 49074.00
511.9420, 49031.00
513.1230, 49622.00
514.3030, 49542.00
515.4820, 50062.00
516.6620, 50259.00
517.8420, 50666.00
519.0210, 51060.00
520.2000, 51742.00
521.3790, 51705.00
522.5580, 51767.00
523.7360, 52388.00
524.9150, 52972.00
526.0930, 53142.00
527.2710, 53400.00
528.4490, 54297.00
529.6270, 54140.00
530.8050, 54848.00
531.9820, 55623.00
533.1590, 56194.00
534.3360, 56242.00
535.5130, 56960.00
536.6900, 57363.00
537.8670, 57778.00
539.0430, 58597.00
540.2200, 59103.00
541.3960, 60155.00
542.5720, 61042.00
543.7470, 61320.00
544.9230, 63107.00
546.0980, 63612.00
547.2740, 64718.00
548.4490, 65849.00
549.6240, 67017.00
550.7990, 68085.00
551.9730, 69290.00
553.1480, 70629.00
554.3220, 72009.00
555.4960, 73536.38
556.6700, 75261.00
557.8440, 76855.00
559.0170, 78824.00
560.1910, 80720.00
561.3640, 82909.00
562.5370, 85037.91
563.7100, 87307.63
564.8830, 89692.00
566.0550, 92100.00
567.2280, 94803.00
568.4000, 97403.00
569.5720, 100659.0
570.7440, 103743.0
571.9160, 106676.0
573.0870, 110380.0
574.2590, 113743.0
575.4300, 117495.0
576.6010, 121039.0
577.7720, 125291.0
578.9430, 129603.0
580.1140, 133372.0
581.2840, 138483.0
582.4540, 142965.0
583.6240, 147556.0
584.7940, 152996.0
585.9640, 158581.0
587.1340, 163758.0
588.3030, 169320.0
589.4720, 175606.0
590.6410, 182708.0
591.8100, 189002.0
592.9790, 196052.0
594.1480, 204189.0
595.3160, 211090.0
596.4840, 218378.0
597.6520, 226277.0
598.8200, 234292.0
599.9880, 241784.0
601.1560, 249950.0
602.3230, 257380.0
603.4900, 263789.0
604.6570, 270734.0
605.8240, 276490.0
606.9910, 281586.0
608.1580, 286332.0
609.3240, 288869.0
610.4900, 290921.0
611.6570, 291931.0
612.8230, 291242.0
613.9880, 290191.0
615.1540, 286517.0
616.3190, 282648.0
617.4850, 277626.0
618.6500, 272248.0
619.8150, 264499.0
620.9790, 258099.0
622.1440, 249061.0
623.3080, 241260.0
624.4730, 232293.0
625.6370, 224451.0
626.8010, 215001.0
627.9640, 207741.0
629.1280, 199273.0
630.2910, 190854.0
631.4550, 183571.0
632.6180, 175832.0
633.7810, 168951.0
634.9440, 163134.0
636.1060, 156661.0
637.2690, 150832.0
638.4310, 145632.0
639.5930, 140139.0
640.7550, 135824.0
641.9170, 131377.8
643.0780, 127726.0
644.2400, 123697.0
645.4010, 119155.0
646.5620, 115845.0
647.7230, 112573.0
648.8840, 109467.0
650.0450, 106853.9
651.2050, 104063.0
652.3650, 102140.0
653.5250, 99826.00
654.6850, 97903.00
655.8450, 95510.00
657.0050, 93612.00
658.1640, 92357.00
659.3230, 90619.00
660.4830, 89201.00
661.6420, 87549.00
662.8000, 86489.00
663.9590, 85322.00
665.1170, 84169.00
666.2760, 82705.00
667.4340, 81704.00
668.5920, 80849.00
669.7500, 79512.00
670.9070, 78856.00
672.0650, 78038.00
673.2220, 77416.00
674.3790, 76445.00
675.5360, 75636.00
676.6930, 75145.00
677.8500, 73980.00
679.0060, 73703.00
680.1620, 73259.00
681.3190, 72270.00
682.4750, 71762.00
683.6300, 70787.00
684.7860, 70401.00
685.9420, 69906.00
687.0970, 69322.00
688.2520, 68248.00
689.4070, 68335.00
690.5620, 67799.00
691.7170, 66695.00
692.8710, 66672.00
694.0250, 66316.00
695.1800, 64957.00
696.3340, 64479.00
697.4870, 63801.00
698.6410, 63375.00
699.7950, 62777.00
700.9480, 62090.00
702.1010, 61756.00
703.2540, 60957.00
704.4070, 60286.00
705.5600, 59836.00
706.7120, 59229.00
707.8640, 58588.00
709.0170, 57951.00
710.1690, 57780.00
711.3210, 57007.00
712.4720, 56666.00
713.6240, 56043.00
714.7750, 55269.00
715.9260, 55061.00
717.0770, 54572.00
718.2280, 54049.00
719.3790, 53339.00
720.5290, 52991.00
721.6800, 52497.00
722.8300, 52110.00
723.9800, 51526.00
725.1300, 51311.00
726.2800, 50697.00
727.4290, 50404.00
728.5790, 49884.00
729.7280, 49538.20
730.8770, 49203.70
732.0260, 48881.00
733.1750, 48550.00
734.3230, 48225.00
735.4720, 47878.00
736.6200, 47470.00
737.7680, 47319.00
738.9160, 47255.00
740.0640, 47014.00
741.2110, 46395.00
742.3590, 46653.00
743.5060, 46426.00
744.6530, 45925.00
745.8000, 46069.00
746.9470, 45751.00
748.0930, 45521.00
749.2400, 45400.00
750.3860, 45235.00
751.5320, 45119.14
752.6780, 45075.65
753.8240, 44991.00
754.9690, 44991.00
756.1150, 45068.00
757.2600, 44958.26
758.4050, 45031.00
759.5500, 45030.00
760.6950, 44994.00
761.8400, 45098.00
762.9840, 45072.00
764.1280, 45058.00
765.2730, 45227.00
766.4170, 45298.00
767.5600, 45464.00
768.7040, 45516.00
769.8470, 45685.00
770.9910, 45943.00
772.1340, 46040.49
773.2770, 46396.00
774.4200, 46418.00
775.5620, 46730.00
776.7050, 47053.00
777.8470, 47341.00
778.9890, 47624.08
780.1310, 47893.14
781.2730, 48176.00
782.4150, 48305.00
783.5570, 48600.00
784.6980, 48837.28
785.8390, 48919.00
786.9800, 49351.00
788.1210, 49690.00
789.2620, 49935.00
790.4020, 50121.00
791.5430, 50308.00
792.6830, 50335.00
793.8230, 50327.00
794.9630, 50997.00
796.1020, 51059.00
797.2420, 50822.00
798.3810, 51157.00
799.5210, 50892.00
800.6600, 51055.00
801.7990, 50943.00
802.9370, 50974.00
804.0760, 50689.00
805.2140, 50500.00
806.3530, 50500.00
807.4910, 49655.00
808.6290, 49634.00
809.7660, 49174.00
810.9040, 48691.00
812.0420, 48492.00
813.1790, 48223.00
814.3160, 47441.00
815.4530, 47034.00
816.5900, 46438.00
817.7260, 45950.00
818.8630, 45444.08
819.9990, 44894.00
821.1350, 44421.00
822.2710, 43873.13
823.4070, 43387.12
824.5430, 42820.00
825.6780, 42343.00
826.8130, 41852.00
827.9490, 41191.00
829.0840, 40670.00
830.2180, 40029.00
831.3530, 39191.00
832.4880, 38749.00
833.6220, 38481.00
834.7560, 37410.00
835.8900, 37321.00
837.0240, 36618.00
838.1580, 36238.00
839.2910, 35513.00
840.4250, 35137.00
841.5580, 34567.00
842.6910, 34079.00
843.8240, 33365.00
844.9560, 32977.00
846.0890, 32618.00
847.2210, 32243.00
848.3540, 31624.00
849.4860, 31188.00
850.6180, 30914.00
851.7490, 30640.00
852.8810, 30510.00
854.0120, 30037.28
855.1440, 29459.00
856.2750, 29235.00
857.4060, 28685.00
858.5360, 28461.00
859.6670, 28223.00
860.7980, 27957.00
861.9280, 27579.00
863.0580, 27184.00
864.1880, 26880.00
865.3180, 26782.00
866.4470, 26593.00
867.5770, 26365.00
868.7060, 26088.00
869.8350, 26154.00
870.9640, 25878.00
872.0930, 25693.00
873.2220, 25193.00
874.3500, 25364.00
875.4790, 25033.00
876.6070, 24885.00
877.7350, 24680.00
878.8630, 24442.00
879.9900, 24438.00
881.1180, 24306.00
882.2450, 24228.00
883.3730, 24026.00
884.5000, 24023.00
885.6260, 23856.00
886.7530, 23598.00
887.8800, 23503.00
889.0060, 23487.00
890.1320, 23314.00
891.2580, 23157.00
892.3840, 23185.00
893.5100, 23026.00
894.6360, 23062.00
895.7610, 22853.00
896.8860, 22867.00
898.0120, 22642.00
899.1360, 22674.00
900.2610, 22589.00
901.3860, 22354.00
902.5100, 22244.00
903.6350, 22106.00
904.7590, 22353.00
905.8830, 22161.00
907.0070, 22036.00
908.1300, 22156.00
909.2540, 22034.00
910.3770, 21949.00
911.5000, 21991.00
912.6230, 22038.00
913.7460, 21936.00
914.8690, 21809.00
915.9910, 21950.00
917.1140, 21696.00
918.2360, 21688.00
919.3580, 21774.00
920.4800, 21623.00
921.6020, 21657.00
922.7230, 21625.00
923.8440, 21519.00
924.9660, 21463.00
926.0870, 21377.57
927.2080, 21333.00
928.3280, 21240.00
929.4490, 21273.00
930.5700, 21301.00
931.6900, 21206.00
932.8100, 21362.00
933.9300, 21066.00
935.0500, 20873.00
936.1690, 21044.00
937.2890, 20972.00
938.4080, 20916.00
939.5270, 20976.00
940.6460, 20913.00
941.7650, 20807.00
942.8840, 20896.00
944.0020, 20817.00
945.1200, 20820.00
946.2390, 20680.00
947.3570, 20558.00
948.4750, 20552.00
949.5920, 20500.00
950.7100, 20492.00
951.8270, 20506.00
952.9440, 20510.00
954.0610, 20562.00
955.1780, 20245.00
956.2950, 20374.00
957.4120, 20178.00
958.5280, 20273.00
959.6440, 20429.00
960.7600, 20299.00
961.8760, 20185.00
962.9920, 20223.00
964.1080, 20041.00
965.2230, 20088.00
966.3380, 20042.00
967.4540, 20088.00
968.5690, 20077.00
969.6830, 19948.00
970.7980, 19941.00
971.9120, 19831.00
973.0270, 19954.00
974.1410, 19939.00
975.2550, 19974.00
976.3690, 19692.00
977.4820, 19853.00
978.5960, 19703.00
979.7090, 19995.00
980.8230, 19712.00
981.9360, 19781.00
983.0490, 19727.00
984.1610, 19762.00
985.2740, 19650.00
986.3860, 19494.00
987.4980, 19530.85
988.6110, 19547.00
989.7220, 19489.00
990.8340, 19580.00
991.9460, 19519.00
993.0570, 19446.00
994.1690, 19400.00
995.2800, 19315.00
996.3910, 19262.00
997.5010, 19376.00
998.6120, 19326.00
999.7230, 19339.00
1000.833, 19338.00
1001.943, 19141.00
1003.053, 19159.00
1004.163, 19203.00
1005.273, 19035.00
1006.382, 19263.00
1007.492, 19069.00
1008.601, 19036.00
1009.710, 19058.00
1010.819, 18914.00
1011.927, 19061.00
1013.036, 18968.00
1014.144, 18896.00
1015.253, 18930.00
1016.361, 18945.00
1017.469, 19008.00
1018.576, 18991.93
1019.684, 18923.00
1020.791, 18930.00
1021.899, 18873.00
1023.006, 18742.00
1024.113, 18812.00
1025.220, 18897.00
1026.326, 18718.00
1027.433, 18645.00
1028.539, 18630.00
1029.645, 18747.00
1030.751, 18876.00
1031.857, 18725.00
1032.963, 18865.00
1034.068, 18498.00
1035.174, 18644.00
1036.279, 18610.00
1037.384, 18757.00
1038.489, 18509.00
1039.594, 18723.00
1040.698, 18639.00
1041.803, 18515.00
1042.907, 18772.00
1044.011, 18420.00
1045.115, 18519.00
1046.219, 18567.00
1047.323, 18431.00
1048.426, 18545.00
1049.529, 18525.00
1050.632, 18610.00
1051.735, 18429.00
1052.838, 18404.00
1053.941, 18338.00
1055.043, 18415.00
1056.146, 18342.00
1057.248, 18379.00
1058.350, 18320.00
1059.452, 18386.00
1060.554, 18398.00
1061.655, 18368.40
1062.757, 18339.00
1063.858, 18364.00
1064.959, 18201.00
1066.060, 18263.00
1067.161, 18113.00
1068.261, 18189.00
1069.362, 18276.00
1070.462, 18225.00
1071.562, 18153.00
1072.662, 18205.00
1073.762, 18213.00
1074.862, 18201.00
1075.961, 17959.00
1077.061, 17969.00
1078.160, 18009.00
1079.259, 17951.00
1080.358, 17967.00
1081.456, 18129.00
1082.555, 17980.00
1083.653, 17795.00
1084.751, 18048.00
1085.850, 17876.00
1086.947, 17979.00
1088.045, 17889.00
1089.143, 17915.00
1090.240, 17961.00
1091.338, 17909.00
1092.435, 17978.00
1093.532, 17930.00
1094.628, 17824.00
1095.725, 17958.00
1096.822, 17661.00
1097.918, 17822.00
1099.014, 17957.00
1100.110, 17927.00
1101.206, 17758.00
1102.302, 17775.00
1103.397, 17665.00
1104.493, 17602.00
1105.588, 17635.00
1106.683, 17728.00
1107.778, 17712.00
1108.873, 17828.00
1109.967, 17641.00
1111.062, 17677.00
1112.156, 17632.00
1113.250, 17764.00
1114.344, 17664.00
1115.438, 17686.00
1116.531, 17550.00
1117.625, 17418.00
1118.718, 17656.00
1119.811, 17721.00
1120.904, 17534.00
1121.997, 17717.00
1123.090, 17568.00
1124.183, 17589.00
1125.275, 17543.00
1126.367, 17576.00
1127.459, 17489.00
1128.551, 17529.00
1129.643, 17478.00
1130.735, 17533.00
1131.826, 17353.00
1132.917, 17454.00
1134.008, 17366.00
1135.099, 17384.00
1136.190, 17215.00
1137.281, 17342.00
1138.371, 17350.00
1139.462, 17510.00
1140.552, 17215.00
1141.642, 17208.00
1142.732, 17370.00
1143.821, 17287.00
1144.911, 17337.00
1146.000, 17305.00
1147.090, 17245.00
1148.179, 17165.00
1149.268, 17133.61
1150.356, 17103.41
1151.445, 17131.00
1152.533, 17090.00
1153.622, 17113.75
1154.710, 17309.00
1155.798, 17190.00
1156.886, 17294.63
1157.973, 17430.00
1159.061, 17357.00
1160.148, 17143.00
1161.235, 17260.00
1162.322, 17189.00
1163.409, 17266.00
1164.496, 17085.00
1165.583, 17106.00
1166.669, 17093.00
1167.755, 17093.00
1168.841, 17062.00
1169.927, 17063.00
1171.013, 17136.00
1172.099, 17087.00
1173.184, 17048.00
1174.269, 17256.00
1175.355, 17304.00
1176.440, 17248.00
1177.524, 17274.00
1178.609, 17300.00
1179.694, 17146.00
1180.778, 17191.00
1181.862, 17150.00
1182.946, 17149.00
1184.030, 17216.00
1185.114, 17104.00
1186.197, 17157.00
1187.281, 17169.00
1188.364, 17208.00
1189.447, 17220.00
1190.530, 17100.00
1191.613, 17238.00
1192.696, 17198.00
1193.778, 17178.00
1194.860, 17246.00
1195.943, 17043.00
1197.025, 17253.00
1198.107, 17096.00
1199.188, 17113.00
1200.270, 16986.00
1201.351, 17133.00
1202.432, 17073.00
1203.514, 17054.00
1204.594, 17256.00
1205.675, 16886.00
1206.756, 16958.00
1207.836, 17107.00
1208.917, 17310.00
1209.997, 17147.00
1211.077, 17070.00
1212.157, 17039.00
1213.236, 17046.00
1214.316, 17107.00
1215.395, 17186.00
1216.474, 17198.00
1217.553, 17273.00
1218.632, 17122.00
1219.711, 17215.00
1220.790, 16989.00
1221.868, 17103.00
1222.946, 17025.00
1224.024, 17162.00
1225.102, 17226.00
1226.180, 17107.00
1227.258, 17022.00
1228.335, 17300.00
1229.413, 17171.00
1230.490, 17240.00
1231.567, 17192.00
1232.644, 17100.00
1233.720, 17104.00
1234.797, 17023.00
1235.873, 17173.00
1236.950, 17132.00
1238.026, 17117.00
1239.102, 17127.00
1240.177, 17037.00
1241.253, 17092.00
1242.328, 17049.00
1243.404, 17015.00
1244.479, 17168.00
1245.554, 16981.00
1246.629, 16916.00
1247.703, 17024.00
1248.778, 17050.00
1249.852, 17071.00
1250.926, 17069.20
1252.001, 16906.00
1253.074, 17037.00
1254.148, 16947.00
1255.222, 17005.00
1256.295, 16896.00
1257.369, 16933.00
1258.442, 16991.00
1259.515, 17046.00
1260.587, 16959.00
1261.660, 16852.00
1262.733, 17036.00
1263.805, 16916.04
1264.877, 16922.70
1265.949, 16955.00
1267.021, 16816.00
1268.093, 16997.00
1269.164, 16867.00
1270.236, 16906.00
1271.307, 16904.00
1272.378, 16656.00
1273.449, 16833.00
1274.520, 16734.00
1275.591, 16837.00
1276.661, 16689.00
1277.731, 16674.00
1278.802, 16783.00
1279.872, 16729.00
1280.941, 16820.00
1282.011, 16717.00
1283.081, 16821.00
1284.150, 16697.00
1285.219, 16695.00
1286.288, 16742.00
1287.357, 16772.00
1288.426, 16543.00
1289.495, 16742.00
1290.563, 16696.00
1291.632, 16873.00
1292.700, 16862.61
1293.768, 16553.00
1294.836, 16799.00
1295.903, 16741.00
1296.971, 16590.00
1298.038, 16749.00
1299.106, 16744.00
1300.173, 16705.00
1301.240, 16421.00
1302.306, 16727.00
1303.373, 16348.00
1304.439, 16760.00
1305.506, 16644.00
1306.572, 16642.00
1307.638, 16631.00
1308.704, 16579.15
1309.769, 16632.00
1310.835, 16569.00
1311.900, 16489.00
1312.965, 16558.00
1314.031, 16739.00
1315.095, 16627.00
1316.160, 16627.00
1317.225, 16549.00
1318.289, 16553.00
1319.354, 16577.00
1320.418, 16558.00
1321.482, 16539.79
1322.546, 16500.00
1323.609, 16516.00
1324.673, 16488.00
1325.736, 16566.00
1326.799, 16593.00
1327.862, 16405.00
1328.925, 16629.00
1329.988, 16538.00
1331.051, 16441.00
1332.113, 16588.00
1333.175, 16452.00
1334.238, 16609.00
1335.300, 16497.00
1336.361, 16507.00
1337.423, 16484.00
1338.485, 16474.00
1339.546, 16621.00
1340.607, 16463.00
1341.668, 16548.00
1342.729, 16757.00
1343.790, 16584.49
1344.850, 16746.00
1345.911, 16401.00
1346.971, 16485.00
1348.031, 16349.00
1349.091, 16381.00
1350.151, 16412.00
1351.211, 16532.00
1352.270, 16772.00
1353.330, 16489.00
1354.389, 16556.00
1355.448, 16367.00
1356.507, 16616.00
1357.566, 16517.00
1358.624, 16432.00
1359.683, 16535.00
1360.741, 16495.00
1361.799, 16426.00
1362.857, 16588.00
1363.915, 16427.00
1364.973, 16611.00
1366.030, 16498.00
1367.087, 16452.00
1368.145, 16581.00
1369.202, 16507.00
1370.259, 16717.00
1371.315, 16456.00
1372.372, 16395.00
1373.428, 16491.00
1374.485, 16365.00
1375.541, 16572.00
1376.597, 16563.00
1377.653, 16434.00
1378.708, 16705.00
1379.764, 16580.00
1380.819, 16369.00
1381.874, 16201.00
1382.930, 16518.00
1383.984, 16347.00
1385.039, 16397.00
1386.094, 16500.00
1387.148, 16398.00
1388.203, 16394.00
1389.257, 16483.00
1390.311, 16463.00
1391.365, 16391.00
1392.418, 16376.00
1393.472, 16370.20
1394.525, 16376.74
1395.578, 16391.00
1396.631, 16424.00
1397.684, 16454.00
1398.737, 16443.00
1399.790, 16479.09
1400.842, 16433.00
1401.895, 16521.00
1402.947, 16470.00
1403.999, 16486.00
1405.051, 16450.00
1406.102, 16371.00
1407.154, 16523.00
1408.205, 16407.00
1409.256, 16639.00
1410.308, 16374.00
1411.358, 16555.00
1412.409, 16480.00
1413.460, 16493.00
1414.510, 16408.00
1415.561, 16422.00
1416.611, 16546.00
1417.661, 16402.00
1418.711, 16484.00
1419.760, 16617.00
1420.810, 16563.00
1421.859, 16521.00
1422.909, 16498.14
1423.958, 16408.51
1425.007, 16391.00
1426.055, 16327.00
1427.104, 16374.00
1428.153, 16532.00
1429.201, 16343.00
1430.249, 16375.00
1431.297, 16625.00
1432.345, 16371.00
1433.393, 16542.00
1434.440, 16312.00
1435.488, 16441.00
1436.535, 16370.00
1437.582, 16514.00
1438.629, 16597.00
1439.676, 16534.00
1440.723, 16555.00
1441.769, 16507.00
1442.815, 16629.00
1443.862, 16632.00
1444.908, 16505.00
1445.954, 16471.00
1446.999, 16402.00
1448.045, 16387.00
1449.090, 16401.00
1450.136, 16597.00
1451.181, 16500.00
1452.226, 16637.00
1453.271, 16617.00
1454.315, 16558.00
1455.360, 16656.00
1456.404, 16538.00
1457.448, 16564.00
1458.492, 16442.00
1459.536, 16477.00
1460.580, 16601.00
1461.624, 16664.00
1462.667, 16517.00
1463.711, 16612.00
1464.754, 16508.00
1465.797, 16485.00
1466.840, 16618.00
1467.882, 16722.00
1468.925, 16428.00
1469.967, 16564.00
1471.010, 16461.00
1472.052, 16702.00
1473.094, 16446.00
1474.135, 16629.00
1475.177, 16529.00
1476.218, 16745.00
1477.260, 16718.00
1478.301, 16575.00
1479.342, 16679.00
1480.383, 16764.00
1481.424, 16807.00
1482.464, 16602.00
1483.505, 16680.00
1484.545, 16558.00
1485.585, 16746.00
1486.625, 16596.00
1487.665, 16610.00
1488.705, 16720.00
1489.744, 16714.00
1490.783, 16687.00
1491.823, 16616.00
1492.862, 16660.00
1493.901, 16683.00
1494.939, 16537.00
1495.978, 16858.00
1497.016, 16721.00
1498.055, 16741.00
1499.093, 16654.00
1500.131, 16766.00
1501.169, 16762.00
1502.206, 16716.00
1503.244, 16811.00
1504.281, 17010.00
1505.319, 16754.00
1506.356, 17009.00
1507.393, 16683.00
1508.430, 16769.00
1509.466, 16907.00
1510.503, 16707.00
1511.539, 16932.00
1512.575, 16837.00
1513.611, 17100.00
1514.647, 16887.00
1515.683, 16821.00
1516.718, 16939.00
1517.754, 17054.00
1518.789, 16901.00
1519.824, 17008.00
1520.859, 16919.00
1521.894, 17082.00
1522.929, 16997.00
1523.963, 17020.00
1524.998, 16925.00
1526.032, 17123.00
1527.066, 17038.00
1528.100, 17023.00
1529.134, 17101.00
1530.167, 17008.00
1531.201, 16980.00
1532.234, 16986.00
1533.267, 17082.00
1534.300, 17016.00
1535.333, 17148.00
1536.366, 17031.00
1537.398, 17090.79
1538.431, 17240.87
1539.463, 17330.75
1540.495, 17363.67
1541.527, 17169.06
1542.559, 17268.27
1543.591, 17249.72
1544.622, 17226.34
1545.654, 17366.90
1546.685, 17205.37
1547.716, 17343.31
1548.747, 17361.72
1549.778, 17434.83
1550.808, 17389.46
1551.839, 17380.69
1552.869, 17490.42
1553.899, 17534.54
1554.929, 17475.52
1555.959, 17552.10
1556.989, 17386.42
1558.018, 17433.32
1559.048, 17571.95
1560.077, 17518.88
1561.106, 17597.61
1562.135, 17626.15
1563.164, 17426.56
1564.192, 17623.69
1565.221, 17649.26
1566.249, 17498.65
1567.277, 17682.19
1568.306, 17555.88
1569.333, 17540.15
1570.361, 17607.66
1571.389, 17588.40
1572.416, 17705.94
1573.444, 17691.69
1574.471, 17665.66
1575.498, 17691.01
1576.525, 17570.75
1577.551, 17720.62
1578.578, 17685.97
1579.604, 17608.00
1580.630, 17707.00
##END=



