##NAMES=Rutile
##RRUFFID=R050417
##IDEAL CHEMISTRY=Ti^4+^O_2_
##LOCALITY=Champion mine, Mono County, California, USA
##OWNER=RRUFF
##SOURCE=Marcus Origlieri
##DESCRIPTION=Reddish black equant crystals
##STATUS=The identification of this mineral has been confirmed by X-ray diffraction and chemical analysis
##URL=rruff.info/R050417
##MEASURED CHEMISTRY=TiO_2_
##PIN_ID=L01119
##ORIENTATION=Laser parallel to a* (1 0 0). Fiducial mark perpendicular to laser is parallel to c [0 0 1]
62.16800, 2526.000
63.41100, 2596.000
64.65300, 2692.000
65.89600, 2907.000
67.13800, 3190.000
68.38000, 3572.000
69.62200, 3984.000
70.86300, 4326.000
72.10500, 4560.000
73.34600, 4409.000
74.58700, 4387.000
75.82800, 4772.000
77.06900, 5176.000
78.30900, 5610.000
79.55000, 5863.000
80.79000, 6362.000
82.03000, 6814.000
83.27000, 7371.000
84.51000, 6779.000
85.74900, 6337.000
86.98900, 6188.000
88.22800, 6406.000
89.46700, 6436.000
90.70600, 6506.000
91.94400, 6791.000
93.18300, 6934.000
94.42100, 6803.000
95.65900, 6904.000
96.89700, 6980.000
98.13500, 7125.000
99.37300, 7201.000
100.6100, 7190.000
101.8480, 7284.000
103.0850, 7267.000
104.3220, 7393.000
105.5590, 7518.000
106.7950, 7635.000
108.0320, 7776.000
109.2680, 7796.000
110.5040, 7637.000
111.7400, 7902.000
112.9760, 7921.000
114.2120, 8032.000
115.4470, 8269.000
116.6820, 8533.000
117.9170, 8557.000
119.1520, 8635.000
120.3870, 8584.000
121.6220, 8725.000
122.8560, 8632.000
124.0900, 8313.000
125.3240, 8306.000
126.5580, 8324.000
127.7920, 8105.000
129.0260, 8269.000
130.2590, 8235.000
131.4920, 8207.000
132.7250, 8233.000
133.9580, 8181.000
135.1910, 8213.000
136.4230, 8159.000
137.6560, 8166.000
138.8880, 8164.000
140.1200, 8240.000
141.3520, 8255.000
142.5830, 8160.000
143.8150, 8102.000
145.0460, 8013.000
146.2770, 7990.000
147.5080, 7967.000
148.7390, 8004.000
149.9700, 7883.000
151.2000, 7841.000
152.4310, 7735.000
153.6610, 7651.000
154.8910, 7630.021
156.1210, 7698.000
157.3500, 7559.000
158.5800, 7599.000
159.8090, 7517.000
161.0380, 7478.000
162.2670, 7325.000
163.4960, 7501.000
164.7240, 7521.000
165.9530, 7361.000
167.1810, 7363.000
168.4090, 7381.000
169.6370, 7440.000
170.8650, 7543.000
172.0920, 7684.000
173.3200, 7482.000
174.5470, 7614.000
175.7740, 7711.000
177.0010, 7875.000
178.2280, 7811.000
179.4540, 7830.000
180.6810, 7853.000
181.9070, 7986.000
183.1330, 8210.000
184.3590, 8202.000
185.5850, 8341.000
186.8100, 8584.000
188.0350, 8619.319
189.2610, 8717.000
190.4860, 8878.000
191.7110, 9029.000
192.9350, 9246.000
194.1600, 9228.000
195.3840, 9361.000
196.6080, 9760.000
197.8320, 9706.000
199.0560, 9824.000
200.2800, 10101.00
201.5030, 10236.00
202.7270, 10301.00
203.9500, 10434.00
205.1730, 10602.78
206.3950, 10794.00
207.6180, 10968.00
208.8410, 11155.00
210.0630, 11333.00
211.2850, 11441.00
212.5070, 11603.00
213.7290, 11700.36
214.9500, 11764.00
216.1720, 11893.00
217.3930, 12057.00
218.6140, 12175.00
219.8350, 12317.00
221.0560, 12379.00
222.2770, 12456.00
223.4970, 12535.00
224.7170, 12574.00
225.9370, 12582.00
227.1570, 12706.00
228.3770, 12764.00
229.5970, 12843.52
230.8160, 12805.00
232.0350, 13005.00
233.2540, 12986.00
234.4730, 13026.00
235.6920, 12931.00
236.9110, 12860.00
238.1290, 12938.00
239.3470, 13124.00
240.5650, 12995.00
241.7830, 13067.00
243.0010, 12941.00
244.2180, 12985.00
245.4360, 12960.00
246.6530, 12876.00
247.8700, 12867.00
249.0870, 12967.00
250.3040, 12907.00
251.5200, 12770.00
252.7370, 12624.00
253.9530, 12566.00
255.1690, 12697.00
256.3850, 12400.00
257.6000, 12470.00
258.8160, 12483.00
260.0310, 12356.00
261.2460, 12286.00
262.4610, 12214.00
263.6760, 12035.00
264.8910, 12223.00
266.1050, 12052.00
267.3200, 11985.00
268.5340, 11814.00
269.7480, 11825.00
270.9620, 11856.00
272.1750, 11692.00
273.3890, 11536.00
274.6020, 11573.00
275.8150, 11395.00
277.0280, 11390.00
278.2410, 11138.00
279.4540, 11209.00
280.6660, 11161.00
281.8790, 10882.00
283.0910, 10806.00
284.3030, 10721.00
285.5140, 10539.00
286.7260, 10356.00
287.9380, 10221.00
289.1490, 10147.00
290.3600, 10018.00
291.5710, 9913.000
292.7820, 9686.000
293.9920, 9698.000
295.2030, 9479.000
296.4130, 9476.000
297.6230, 9369.000
298.8330, 9262.000
300.0430, 9145.000
301.2520, 9155.000
302.4620, 9047.000
303.6710, 9023.000
304.8800, 9000.000
306.0890, 9046.000
307.2980, 9077.000
308.5070, 8947.000
309.7150, 8868.000
310.9230, 8910.000
312.1310, 8869.763
313.3390, 9064.000
314.5470, 8954.000
315.7550, 9037.000
316.9620, 9151.000
318.1690, 9180.000
319.3760, 9151.000
320.5830, 9177.000
321.7900, 9191.000
322.9960, 9174.000
324.2030, 9181.000
325.4090, 9196.000
326.6150, 9193.000
327.8210, 9187.000
329.0270, 9180.000
330.2320, 9322.000
331.4380, 9293.000
332.6430, 9297.000
333.8480, 9263.000
335.0530, 9270.000
336.2580, 9332.000
337.4620, 9294.000
338.6670, 9241.000
339.8710, 9389.000
341.0750, 9292.000
342.2790, 9347.000
343.4820, 9320.000
344.6860, 9291.000
345.8890, 9363.000
347.0920, 9364.000
348.2960, 9355.000
349.4980, 9252.000
350.7010, 9359.000
351.9040, 9337.000
353.1060, 9361.000
354.3080, 9505.000
355.5100, 9445.000
356.7120, 9351.000
357.9140, 9343.000
359.1150, 9443.000
360.3170, 9352.000
361.5180, 9436.000
362.7190, 9302.000
363.9200, 9453.000
365.1200, 9196.000
366.3210, 9310.000
367.5210, 9314.000
368.7210, 9354.000
369.9210, 9293.000
371.1210, 9142.000
372.3210, 9359.000
373.5200, 9248.000
374.7200, 9126.000
375.9190, 9213.000
377.1180, 9214.000
378.3170, 9244.000
379.5150, 9155.000
380.7140, 9217.000
381.9120, 9140.000
383.1110, 9214.000
384.3090, 9182.000
385.5060, 9229.000
386.7040, 9202.000
387.9020, 9312.000
389.0990, 9309.036
390.2960, 9410.000
391.4930, 9348.000
392.6900, 9385.000
393.8860, 9377.000
395.0830, 9471.000
396.2790, 9404.000
397.4750, 9465.000
398.6710, 9723.000
399.8670, 9816.000
401.0630, 9841.000
402.2580, 9900.000
403.4540, 9938.000
404.6490, 9935.000
405.8440, 10011.00
407.0390, 10054.00
408.2330, 10208.00
409.4280, 10353.00
410.6220, 10433.00
411.8160, 10492.00
413.0100, 10591.00
414.2040, 10695.41
415.3980, 10785.16
416.5910, 10936.00
417.7850, 11015.00
418.9780, 11142.00
420.1710, 11306.00
421.3640, 11376.00
422.5560, 11528.00
423.7490, 11715.00
424.9410, 11577.00
426.1330, 11856.00
427.3250, 11833.00
428.5170, 11953.00
429.7090, 12109.00
430.9000, 12307.00
432.0910, 12364.00
433.2820, 12523.00
434.4730, 12575.00
435.6640, 12714.00
436.8550, 12779.00
438.0450, 12843.00
439.2360, 12907.00
440.4260, 13067.00
441.6160, 13009.00
442.8060, 13126.00
443.9950, 13219.00
445.1850, 13182.00
446.3740, 13235.00
447.5630, 13163.00
448.7520, 13088.00
449.9410, 13069.00
451.1300, 12955.00
452.3180, 12656.00
453.5060, 12721.00
454.6950, 12626.00
455.8830, 12212.00
457.0700, 12241.00
458.2580, 12006.00
459.4450, 11668.00
460.6330, 11688.00
461.8200, 11261.00
463.0070, 11200.00
464.1940, 10891.00
465.3800, 10862.00
466.5670, 10627.00
467.7530, 10565.00
468.9390, 10273.00
470.1250, 10132.00
471.3110, 9940.000
472.4970, 9865.000
473.6820, 9855.000
474.8680, 9693.000
476.0530, 9692.000
477.2380, 9520.000
478.4230, 9423.000
479.6070, 9445.000
480.7920, 9306.000
481.9760, 9212.000
483.1600, 9161.000
484.3440, 9096.000
485.5280, 9007.000
486.7120, 9074.000
487.8950, 8980.000
489.0780, 9038.000
490.2620, 9038.000
491.4450, 9037.000
492.6270, 9075.000
493.8100, 9063.000
494.9920, 9052.000
496.1750, 9114.000
497.3570, 9024.000
498.5390, 9088.000
499.7210, 9073.000
500.9020, 9152.000
502.0840, 9305.000
503.2650, 9270.000
504.4460, 9347.000
505.6270, 9289.000
506.8080, 9299.000
507.9890, 9509.000
509.1690, 9574.000
510.3500, 9552.000
511.5300, 9538.000
512.7100, 9559.000
513.8900, 9660.000
515.0690, 9606.000
516.2490, 9701.000
517.4280, 9757.000
518.6070, 9722.000
519.7860, 9687.000
520.9650, 9714.000
522.1440, 9737.000
523.3220, 9750.000
524.5010, 9748.775
525.6790, 9755.000
526.8570, 9740.000
528.0350, 9722.000
529.2130, 9738.000
530.3900, 9716.000
531.5670, 9713.570
532.7450, 9618.000
533.9220, 9681.000
535.0980, 9602.000
536.2750, 9542.000
537.4520, 9580.000
538.6280, 9436.000
539.8040, 9529.000
540.9800, 9450.000
542.1560, 9365.000
543.3320, 9355.000
544.5070, 9316.729
545.6830, 9329.000
546.8580, 9308.000
548.0330, 9299.000
549.2080, 9304.000
550.3830, 9266.000
551.5570, 9264.000
552.7310, 9275.000
553.9060, 9253.000
555.0800, 9123.000
556.2540, 9208.000
557.4270, 9108.000
558.6010, 9127.000
559.7740, 9020.000
560.9470, 9085.000
562.1210, 9159.000
563.2930, 9229.000
564.4660, 9267.273
565.6390, 9108.000
566.8110, 9305.000
567.9830, 9215.000
569.1550, 9153.000
570.3270, 9221.000
571.4990, 9256.000
572.6710, 9276.000
573.8420, 9358.000
575.0130, 9385.476
576.1840, 9350.000
577.3550, 9445.000
578.5260, 9389.000
579.6970, 9339.000
580.8670, 9331.000
582.0370, 9414.000
583.2070, 9340.000
584.3770, 9466.000
585.5470, 9448.000
586.7170, 9372.000
587.8860, 9551.000
589.0550, 9564.000
590.2240, 9712.000
591.3930, 9590.000
592.5620, 9821.000
593.7310, 9782.000
594.8990, 9895.000
596.0670, 9772.000
597.2350, 10011.00
598.4030, 9952.000
599.5710, 9909.000
600.7390, 10017.00
601.9060, 9927.000
603.0740, 10046.00
604.2410, 9972.000
605.4080, 10006.00
606.5740, 9930.000
607.7410, 9841.000
608.9080, 9722.000
610.0740, 9560.000
611.2400, 9399.000
612.4060, 9242.032
613.5720, 9089.000
614.7370, 8847.000
615.9030, 8607.000
617.0680, 8287.000
618.2330, 8179.000
619.3980, 7881.000
620.5630, 7641.000
621.7280, 7281.000
622.8920, 6999.000
624.0570, 6903.000
625.2210, 6553.000
626.3850, 6437.000
627.5490, 6298.000
628.7120, 6104.000
629.8760, 6042.000
631.0390, 5858.000
632.2020, 5684.000
633.3650, 5664.000
634.5280, 5624.000
635.6910, 5585.000
636.8530, 5492.000
638.0160, 5477.000
639.1780, 5423.874
640.3400, 5390.000
641.5020, 5346.000
642.6640, 5277.000
643.8250, 5228.000
644.9870, 5253.000
646.1480, 5261.000
647.3090, 5300.000
648.4700, 5351.000
649.6300, 5235.000
650.7910, 5250.000
651.9510, 5267.000
653.1120, 5214.000
654.2720, 5273.000
655.4320, 5307.000
656.5910, 5233.000
657.7510, 5339.000
658.9100, 5331.000
660.0690, 5356.000
661.2290, 5355.000
662.3880, 5430.000
663.5460, 5426.479
664.7050, 5459.150
665.8630, 5475.000
667.0220, 5523.000
668.1800, 5587.000
669.3380, 5658.000
670.4950, 5726.000
671.6530, 5853.000
672.8100, 5765.000
673.9680, 5787.000
675.1250, 5811.000
676.2820, 5956.000
677.4390, 6034.000
678.5950, 6038.000
679.7520, 6120.000
680.9080, 6196.000
682.0640, 6263.000
683.2200, 6316.000
684.3760, 6339.000
685.5320, 6390.000
686.6870, 6472.000
687.8420, 6503.000
688.9980, 6572.000
690.1530, 6608.000
691.3070, 6662.000
692.4620, 6644.000
693.6170, 6778.000
694.7710, 6670.000
695.9250, 6808.000
697.0790, 6688.000
698.2330, 6814.000
699.3870, 6909.000
700.5400, 6869.000
701.6940, 6814.000
702.8470, 6860.000
704.0000, 7014.000
705.1530, 6981.000
706.3050, 6991.000
707.4580, 6969.000
708.6100, 6966.328
709.7630, 6940.000
710.9150, 6972.000
712.0660, 6963.000
713.2180, 6985.000
714.3700, 6983.978
715.5210, 7072.000
716.6720, 6980.000
717.8240, 6943.000
718.9740, 6939.000
720.1250, 6759.000
721.2760, 6812.000
722.4260, 6772.000
723.5770, 6828.000
724.7270, 6817.000
725.8770, 6752.000
727.0260, 6720.000
728.1760, 6659.000
729.3250, 6674.000
730.4750, 6577.000
731.6240, 6642.000
732.7730, 6530.000
733.9220, 6431.000
735.0700, 6456.000
736.2190, 6467.000
737.3670, 6432.000
738.5150, 6408.000
739.6630, 6394.458
740.8110, 6398.000
741.9590, 6331.000
743.1060, 6285.000
744.2540, 6209.950
745.4010, 6206.010
746.5480, 6180.288
747.6950, 6198.000
748.8410, 6196.000
749.9880, 6185.000
751.1340, 6238.000
752.2800, 6189.760
753.4260, 6128.000
754.5720, 6123.000
755.7180, 6045.000
756.8640, 6003.000
758.0090, 6011.000
759.1540, 6104.000
760.2990, 5999.000
761.4440, 6046.000
762.5890, 5975.000
763.7340, 6015.000
764.8780, 5957.000
766.0220, 6011.000
767.1660, 5991.000
768.3100, 6005.000
769.4540, 5950.000
770.5980, 5938.000
771.7410, 5974.000
772.8840, 5891.000
774.0280, 5984.000
775.1700, 6004.000
776.3130, 6010.000
777.4560, 5906.000
778.5980, 6019.000
779.7410, 6021.000
780.8830, 6093.000
782.0250, 5991.000
783.1670, 6021.000
784.3080, 6034.000
785.4500, 6097.000
786.5910, 6080.000
787.7320, 6037.000
788.8730, 6125.000
790.0140, 6165.000
791.1550, 6203.000
792.2950, 6064.000
793.4360, 6062.000
794.5760, 6048.000
795.7160, 6058.000
796.8560, 6204.000
797.9960, 6188.000
799.1350, 6109.000
800.2750, 6065.000
801.4140, 6004.000
802.5530, 5939.000
803.6920, 5952.000
804.8310, 5908.553
805.9690, 5954.000
807.1080, 5876.000
808.2460, 5857.000
809.3840, 5827.000
810.5220, 5737.000
811.6600, 5712.000
812.7970, 5674.000
813.9350, 5610.000
815.0720, 5569.625
816.2090, 5571.000
817.3460, 5452.000
818.4830, 5389.000
819.6200, 5311.562
820.7560, 5298.000
821.8930, 5223.000
823.0290, 5181.000
824.1650, 5225.000
825.3010, 5061.000
826.4360, 5051.000
827.5720, 4936.000
828.7070, 4839.000
829.8420, 4872.000
830.9770, 4792.000
832.1120, 4735.000
833.2470, 4768.000
834.3820, 4600.000
835.5160, 4624.000
836.6500, 4539.000
837.7840, 4495.000
838.9180, 4458.000
840.0520, 4369.000
841.1860, 4314.000
842.3190, 4249.000
843.4520, 4265.000
844.5850, 4178.000
845.7180, 4194.000
846.8510, 4073.000
847.9840, 4110.000
849.1160, 4026.000
850.2490, 3947.000
851.3810, 4050.000
852.5130, 3961.000
853.6450, 3902.000
854.7760, 3896.000
855.9080, 3771.000
857.0390, 3775.000
858.1700, 3843.000
859.3010, 3775.000
860.4320, 3786.000
861.5630, 3746.000
862.6930, 3706.000
863.8240, 3652.000
864.9540, 3637.000
866.0840, 3609.329
867.2140, 3654.000
868.3440, 3572.000
869.4730, 3619.000
870.6030, 3588.000
871.7320, 3558.000
872.8610, 3478.000
873.9900, 3502.018
875.1190, 3514.000
876.2470, 3497.000
877.3760, 3493.000
878.5040, 3424.000
879.6320, 3424.000
880.7600, 3376.000
881.8880, 3404.000
883.0150, 3404.000
884.1430, 3443.000
885.2700, 3344.000
886.3970, 3369.000
887.5240, 3356.000
888.6510, 3255.000
889.7780, 3308.000
890.9040, 3329.000
892.0310, 3323.000
893.1570, 3288.000
894.2830, 3262.000
895.4090, 3251.000
896.5350, 3238.000
897.6600, 3238.000
898.7860, 3185.000
899.9110, 3191.000
901.0360, 3131.000
902.1610, 3230.000
903.2860, 3199.000
904.4100, 3263.000
905.5350, 3238.000
906.6590, 3138.000
907.7830, 3180.000
908.9070, 3181.000
910.0310, 3166.000
911.1540, 3184.000
912.2780, 3156.000
913.4010, 3093.000
914.5240, 3135.000
915.6470, 3125.000
916.7700, 3166.000
917.8930, 3111.000
919.0150, 3151.000
920.1380, 3115.000
921.2600, 3109.000
922.3820, 3093.000
923.5040, 3084.480
924.6260, 3105.000
925.7470, 3085.000
926.8690, 3127.000
927.9900, 3143.000
929.1110, 3089.000
930.2320, 3095.000
931.3530, 3069.000
932.4730, 3067.000
933.5940, 3079.000
934.7140, 3057.000
935.8340, 3054.000
936.9540, 3082.000
938.0740, 3036.000
939.1930, 3094.000
940.3130, 3076.000
941.4320, 3075.000
942.5510, 3089.000
943.6700, 3015.000
944.7890, 3041.000
945.9080, 3042.000
947.0260, 3055.000
948.1450, 3086.000
949.2630, 3065.000
950.3810, 2989.000
951.4990, 3071.000
952.6170, 2934.000
953.7340, 2986.000
954.8520, 3030.000
955.9690, 3063.000
957.0860, 3056.207
958.2030, 3011.000
959.3200, 3016.000
960.4360, 2981.000
961.5530, 2959.000
962.6690, 2997.000
963.7850, 2946.000
964.9010, 2989.000
966.0170, 2950.000
967.1330, 2948.000
968.2480, 2976.000
969.3630, 2955.000
970.4790, 3003.000
971.5940, 2921.000
972.7080, 2867.000
973.8230, 2961.000
974.9380, 2885.000
976.0520, 2937.000
977.1660, 2941.000
978.2800, 2866.000
979.3940, 2873.000
980.5080, 2862.586
981.6220, 2914.000
982.7350, 2878.000
983.8480, 2902.000
984.9610, 2937.000
986.0740, 2951.000
987.1870, 2876.000
988.3000, 2886.000
989.4120, 2837.000
990.5250, 2854.000
991.6370, 2876.000
992.7490, 2879.000
993.8610, 2902.000
994.9720, 2842.000
996.0840, 2837.000
997.1950, 2873.000
998.3060, 2832.000
999.4170, 2866.000
1000.528, 2850.000
1001.639, 2829.000
1002.750, 2760.000
1003.860, 2845.000
1004.970, 2873.000
1006.080, 2809.000
1007.190, 2872.000
1008.300, 2891.000
1009.410, 2796.000
1010.519, 2796.000
1011.628, 2840.000
1012.738, 2775.000
1013.846, 2836.000
1014.955, 2783.000
1016.064, 2788.000
1017.172, 2794.000
1018.281, 2797.000
1019.389, 2756.000
1020.497, 2809.000
1021.605, 2754.000
1022.713, 2771.000
1023.820, 2782.000
1024.928, 2788.000
1026.035, 2753.000
1027.142, 2787.000
1028.249, 2697.000
1029.356, 2810.000
1030.462, 2800.000
1031.569, 2727.000
1032.675, 2765.000
1033.781, 2751.000
1034.887, 2757.000
1035.993, 2772.000
1037.098, 2753.000
1038.204, 2703.000
1039.309, 2725.000
1040.415, 2674.000
1041.520, 2742.000
1042.624, 2707.000
1043.729, 2715.000
1044.834, 2789.000
1045.938, 2763.000
1047.042, 2681.000
1048.146, 2724.000
1049.250, 2679.000
1050.354, 2668.000
1051.458, 2692.000
1052.561, 2705.000
1053.664, 2676.000
1054.767, 2650.000
1055.870, 2657.000
1056.973, 2716.000
1058.076, 2609.000
1059.178, 2676.000
1060.281, 2630.000
1061.383, 2745.000
1062.485, 2661.000
1063.587, 2648.000
1064.688, 2656.000
1065.790, 2690.000
1066.891, 2668.000
1067.993, 2634.000
1069.094, 2674.000
1070.195, 2628.000
1071.295, 2586.000
1072.396, 2622.000
1073.496, 2609.000
1074.597, 2636.000
1075.697, 2637.000
1076.797, 2638.000
1077.897, 2607.000
1078.996, 2599.000
1080.096, 2646.000
1081.195, 2568.000
1082.294, 2635.000
1083.393, 2588.000
1084.492, 2583.000
1085.591, 2578.000
1086.689, 2621.000
1087.788, 2668.000
1088.886, 2658.000
1089.984, 2665.274
1091.082, 2650.040
1092.180, 2637.000
1093.277, 2592.000
1094.375, 2590.000
1095.472, 2561.000
1096.569, 2609.000
1097.666, 2544.000
1098.763, 2571.000
1099.860, 2531.000
1100.956, 2534.000
1102.053, 2606.000
1103.149, 2567.000
1104.245, 2600.000
1105.341, 2623.000
1106.436, 2570.000
1107.532, 2590.000
1108.627, 2534.000
1109.723, 2521.000
1110.818, 2587.000
1111.913, 2641.000
1113.007, 2582.000
1114.102, 2549.000
1115.197, 2519.000
1116.291, 2595.000
1117.385, 2573.000
1118.479, 2555.000
1119.573, 2613.000
1120.666, 2519.000
1121.760, 2542.000
1122.853, 2630.000
1123.947, 2578.000
1125.040, 2582.000
1126.132, 2573.000
1127.225, 2566.000
1128.318, 2581.000
1129.410, 2610.000
1130.502, 2569.000
1131.595, 2574.000
1132.687, 2609.000
1133.778, 2556.000
1134.870, 2552.000
1135.961, 2531.000
1137.053, 2581.000
1138.144, 2545.000
1139.235, 2588.000
1140.326, 2529.000
1141.416, 2552.000
1142.507, 2538.000
1143.597, 2596.000
1144.688, 2551.000
1145.778, 2572.000
1146.868, 2557.000
1147.957, 2570.000
1149.047, 2569.000
1150.136, 2554.000
1151.226, 2529.000
1152.315, 2527.000
1153.404, 2537.000
1154.493, 2521.000
1155.581, 2585.000
1156.670, 2575.000
1157.758, 2531.000
1158.846, 2503.000
1159.934, 2598.000
1161.022, 2606.000
1162.110, 2556.000
1163.198, 2536.000
1164.285, 2543.000
1165.372, 2576.000
1166.459, 2546.000
1167.546, 2537.000
1168.633, 2565.000
1169.720, 2516.000
1170.806, 2525.000
1171.892, 2533.000
1172.979, 2535.136
1174.065, 2562.000
1175.150, 2584.000
1176.236, 2540.000
1177.322, 2577.000
1178.407, 2570.000
1179.492, 2504.000
1180.577, 2526.000
1181.662, 2539.000
1182.747, 2564.000
1183.832, 2565.000
1184.916, 2592.000
1186.000, 2552.000
1187.084, 2576.000
1188.168, 2510.000
1189.252, 2566.000
1190.336, 2632.000
1191.419, 2554.000
1192.503, 2590.000
1193.586, 2632.000
1194.669, 2574.000
1195.752, 2621.000
1196.835, 2551.000
1197.917, 2562.000
1199.000, 2517.000
1200.082, 2563.000
1201.164, 2518.000
1202.246, 2567.000
1203.328, 2561.000
1204.409, 2568.000
1205.491, 2505.000
1206.572, 2552.000
1207.653, 2518.000
1208.734, 2543.000
1209.815, 2567.000
1210.896, 2572.000
1211.976, 2543.000
1213.057, 2565.000
1214.137, 2550.000
1215.217, 2555.000
1216.297, 2531.000
1217.377, 2537.772
1218.456, 2544.000
1219.536, 2538.000
1220.615, 2576.000
1221.694, 2567.000
1222.773, 2577.000
1223.852, 2603.000
1224.931, 2553.000
1226.009, 2559.000
1227.088, 2543.000
1228.166, 2574.000
1229.244, 2566.000
1230.322, 2610.000
1231.400, 2593.000
1232.477, 2563.000
1233.555, 2601.000
1234.632, 2541.000
1235.709, 2549.000
1236.786, 2582.000
1237.863, 2560.000
1238.939, 2546.000
1240.016, 2558.000
1241.092, 2524.000
1242.168, 2516.000
1243.245, 2562.000
1244.320, 2557.000
1245.396, 2515.000
1246.472, 2573.000
1247.547, 2611.000
1248.622, 2547.000
1249.697, 2616.000
1250.772, 2621.000
1251.847, 2610.000
1252.922, 2584.000
1253.996, 2587.000
1255.071, 2602.000
1256.145, 2529.000
1257.219, 2632.000
1258.293, 2635.000
1259.366, 2619.000
1260.440, 2566.000
1261.513, 2619.000
1262.587, 2550.000
1263.660, 2600.000
1264.733, 2574.000
1265.805, 2600.000
1266.878, 2631.000
1267.951, 2592.000
1269.023, 2613.000
1270.095, 2601.000
1271.167, 2582.000
1272.239, 2612.000
1273.311, 2647.000
1274.382, 2564.000
1275.454, 2610.000
1276.525, 2594.000
1277.596, 2590.000
1278.667, 2690.000
1279.738, 2563.000
1280.808, 2560.000
1281.879, 2627.000
1282.949, 2566.000
1284.019, 2600.000
1285.089, 2558.000
1286.159, 2571.000
1287.229, 2557.000
1288.298, 2570.000
1289.368, 2603.000
1290.437, 2580.000
1291.506, 2538.000
1292.575, 2498.000
1293.644, 2565.000
1294.712, 2595.000
1295.781, 2540.000
1296.849, 2529.000
1297.917, 2602.000
1298.985, 2535.000
1300.053, 2515.000
1301.121, 2608.000
1302.188, 2572.000
1303.255, 2553.000
1304.323, 2610.000
1305.390, 2546.000
1306.457, 2546.000
1307.523, 2592.000
1308.590, 2529.000
1309.656, 2559.000
1310.723, 2559.000
1311.789, 2567.000
1312.855, 2594.000
1313.921, 2573.000
1314.986, 2587.691
1316.052, 2596.584
1317.117, 2584.000
1318.182, 2610.000
1319.248, 2595.000
1320.312, 2586.000
1321.377, 2635.000
1322.442, 2593.000
1323.506, 2556.000
1324.571, 2604.000
1325.635, 2531.000
1326.699, 2622.000
1327.762, 2559.000
1328.826, 2606.000
1329.890, 2553.000
1330.953, 2562.000
1332.016, 2544.000
1333.079, 2588.000
1334.142, 2557.000
1335.205, 2539.000
1336.268, 2573.000
1337.330, 2561.000
1338.392, 2557.000
1339.454, 2580.000
1340.516, 2558.000
1341.578, 2586.008
1342.640, 2555.000
1343.701, 2626.000
1344.763, 2579.000
1345.824, 2589.000
1346.885, 2630.000
1347.946, 2595.000
1349.007, 2581.000
1350.067, 2602.000
1351.128, 2601.000
1352.188, 2570.000
1353.248, 2588.000
1354.308, 2646.000
1355.368, 2597.000
1356.428, 2654.000
1357.487, 2620.000
1358.547, 2584.000
1359.606, 2616.000
1360.665, 2612.000
1361.724, 2561.000
1362.783, 2611.000
1363.841, 2641.000
1364.900, 2635.000
1365.958, 2669.000
1367.016, 2624.000
1368.074, 2674.000
1369.132, 2625.000
1370.190, 2603.000
1371.247, 2631.000
1372.304, 2663.000
1373.362, 2635.000
1374.419, 2622.000
1375.476, 2632.000
1376.532, 2633.000
1377.589, 2633.000
1378.645, 2623.000
1379.702, 2621.000
1380.758, 2619.000
1381.814, 2607.000
1382.870, 2680.000
1383.925, 2650.000
1384.981, 2632.000
1386.036, 2691.000
1387.092, 2657.000
1388.147, 2681.000
1389.202, 2628.000
1390.256, 2692.000
1391.311, 2685.000
1392.365, 2588.000
1393.420, 2666.000
1394.474, 2671.000
1395.528, 2667.000
1396.582, 2646.000
1397.636, 2651.000
1398.689, 2623.000
1399.742, 2677.000
1400.796, 2662.000
1401.849, 2632.000
1402.902, 2634.000
1403.955, 2614.000
1405.007, 2620.194
1406.060, 2662.000
1407.112, 2624.000
1408.164, 2640.000
1409.216, 2611.000
1410.268, 2678.000
1411.320, 2661.000
1412.371, 2679.000
1413.423, 2653.000
1414.474, 2639.000
1415.525, 2639.000
1416.576, 2669.000
1417.627, 2637.000
1418.678, 2694.000
1419.728, 2719.000
1420.778, 2620.000
1421.829, 2685.000
1422.879, 2586.000
1423.928, 2678.000
1424.978, 2666.000
1426.028, 2674.000
1427.077, 2682.000
1428.126, 2705.000
1429.176, 2664.000
1430.225, 2698.000
1431.273, 2674.000
1432.322, 2708.000
1433.371, 2738.000
1434.419, 2689.000
1435.467, 2752.000
1436.515, 2712.000
1437.563, 2705.000
1438.611, 2748.000
1439.658, 2687.000
1440.706, 2722.000
1441.753, 2771.000
1442.800, 2690.000
1443.847, 2724.000
1444.894, 2722.000
1445.941, 2684.000
1446.987, 2719.000
1448.034, 2728.000
1449.080, 2712.000
1450.126, 2759.000
1451.172, 2750.000
1452.218, 2770.000
1453.263, 2755.000
1454.309, 2654.000
1455.354, 2753.000
1456.399, 2712.000
1457.444, 2791.000
1458.489, 2703.000
1459.534, 2742.000
1460.579, 2741.000
1461.623, 2778.000
1462.667, 2708.000
1463.711, 2722.000
1464.755, 2684.000
1465.799, 2706.000
1466.843, 2758.000
1467.886, 2713.000
1468.930, 2771.000
1469.973, 2764.000
1471.016, 2720.000
1472.059, 2767.000
1473.101, 2745.000
1474.144, 2746.000
1475.186, 2683.000
1476.229, 2706.000
1477.271, 2698.000
1478.313, 2700.000
1479.355, 2711.465
1480.396, 2734.000
1481.438, 2728.000
1482.479, 2754.000
1483.520, 2768.000
1484.561, 2786.000
1485.602, 2757.000
1486.643, 2802.000
1487.684, 2767.000
1488.724, 2788.000
1489.765, 2780.000
1490.805, 2807.000
1491.845, 2840.000
1492.885, 2734.000
1493.924, 2791.000
1494.964, 2762.000
1496.003, 2819.000
1497.042, 2826.000
1498.082, 2810.000
1499.120, 2776.000
1500.159, 2798.000
1501.198, 2825.000
1502.236, 2793.000
1503.275, 2818.028
1504.313, 2813.000
1505.351, 2839.000
1506.389, 2765.000
1507.427, 2794.000
1508.464, 2786.000
1509.502, 2844.000
1510.539, 2812.000
1511.576, 2792.000
1512.613, 2812.000
1513.650, 2829.000
1514.687, 2857.000
1515.723, 2880.000
1516.759, 2743.000
1517.796, 2782.000
1518.832, 2822.000
1519.868, 2870.000
1520.903, 2901.000
1521.939, 2934.000
1522.975, 2918.917
1524.010, 2916.989
1525.045, 2860.000
1526.080, 2881.000
1527.115, 2840.000
1528.150, 2844.000
1529.184, 2877.000
1530.219, 2872.000
1531.253, 2834.000
1532.287, 2839.000
1533.321, 2898.000
1534.355, 2882.000
1535.388, 2834.000
1536.422, 2892.000
1537.455, 2890.000
1538.488, 2846.000
1539.522, 2878.000
1540.554, 2887.000
1541.587, 2946.000
1542.620, 2887.000
1543.652, 2926.000
1544.685, 2900.000
1545.717, 2844.000
1546.749, 2908.000
1547.781, 2927.000
1548.812, 2949.000
1549.844, 2931.000
1550.875, 2922.000
1551.906, 2931.000
1552.938, 2913.000
1553.968, 2971.000
1554.999, 2930.000
1556.030, 2890.000
1557.060, 2962.000
1558.091, 2884.000
1559.121, 2893.000
1560.151, 2905.000
1561.181, 2914.000
1562.211, 2930.250
1563.240, 2949.000
1564.270, 2955.000
1565.299, 2925.000
1566.328, 2915.000
1567.357, 2871.000
1568.386, 2881.000
1569.415, 2923.000
1570.443, 2946.000
1571.472, 2981.000
1572.500, 3017.000
1573.528, 3002.000
1574.556, 3000.000
1575.584, 2959.000
1576.611, 2896.000
1577.639, 3004.000
1578.666, 3044.000
##END=



