##NAMES=Rutile
##RRUFFID=R040049
##IDEAL CHEMISTRY=Ti^4+^O_2_
##LOCALITY=Graves Mountain, Lincoln County, Georgia, USA
##OWNER=RRUFF
##SOURCE=University of Arizona Mineral Museum
##DESCRIPTION=Reddish-black fragments
##STATUS=The identification of this mineral has been confirmed by X-ray diffraction and chemical analysis
##URL=rruff.info/R040049
##MEASURED CHEMISTRY=(Ti_1.00_Fe_0.01_)O_2_
##PIN_ID=L00145
##ORIENTATION=Laser parallel to [1 -1 0]. Fiducial mark perpendicular to laser is parallel to c [0 0 1]
64.13000, 13674.00
65.37400, 14645.00
66.61700, 16118.00
67.86000, 17473.00
69.10300, 19091.00
70.34600, 20789.00
71.58900, 22805.00
72.83100, 24700.00
74.07400, 26978.00
75.31600, 29041.00
76.55800, 31025.00
77.80000, 33391.00
79.04100, 35389.00
80.28300, 36740.00
81.52400, 38129.00
82.76500, 40174.00
84.00600, 42174.00
85.24700, 42036.00
86.48700, 42232.00
87.72700, 42016.00
88.96800, 42331.00
90.20800, 43004.00
91.44800, 44026.00
92.68700, 44807.00
93.92700, 45281.00
95.16600, 45829.00
96.40500, 46164.00
97.64400, 46541.00
98.88300, 46576.00
100.1210, 46895.00
101.3600, 46989.00
102.5980, 47303.00
103.8360, 47654.00
105.0740, 48488.00
106.3120, 48924.00
107.5490, 49364.96
108.7870, 50181.00
110.0240, 50068.00
111.2610, 49801.00
112.4980, 49867.00
113.7340, 50311.00
114.9710, 50574.00
116.2070, 50794.63
117.4430, 51005.61
118.6790, 51157.55
119.9150, 51253.63
121.1510, 51126.50
122.3860, 51287.52
123.6210, 51333.05
124.8560, 51373.83
126.0910, 51575.43
127.3260, 51480.70
128.5600, 51679.68
129.7950, 51761.46
131.0290, 51896.85
132.2630, 51410.00
133.4970, 51885.00
134.7300, 51586.00
135.9640, 51491.00
137.1970, 51340.00
138.4300, 51442.00
139.6630, 51643.00
140.8960, 51709.00
142.1290, 51737.00
143.3610, 51156.00
144.5930, 50907.00
145.8250, 50552.00
147.0570, 50117.00
148.2890, 49616.00
149.5210, 49303.73
150.7520, 49182.00
151.9830, 48664.00
153.2140, 48260.00
154.4450, 48055.00
155.6760, 47424.00
156.9060, 47320.00
158.1370, 46839.00
159.3670, 46593.00
160.5970, 46445.00
161.8270, 46536.00
163.0560, 46100.00
164.2860, 46046.00
165.5150, 46095.00
166.7440, 45922.00
167.9730, 45844.00
169.2020, 45456.00
170.4300, 45397.00
171.6590, 45293.00
172.8870, 45676.00
174.1150, 45707.00
175.3430, 45820.00
176.5700, 45968.00
177.7980, 46371.00
179.0250, 46218.00
180.2520, 46691.00
181.4790, 47336.00
182.7060, 47393.00
183.9330, 47961.00
185.1590, 48526.00
186.3860, 48631.00
187.6120, 49195.00
188.8380, 49621.00
190.0630, 49526.00
191.2890, 50282.00
192.5150, 50836.00
193.7400, 51059.00
194.9650, 51610.00
196.1900, 52002.00
197.4140, 52672.00
198.6390, 53164.00
199.8630, 53728.00
201.0880, 53743.00
202.3120, 54313.00
203.5350, 55097.00
204.7590, 55233.00
205.9830, 55880.00
207.2060, 56481.00
208.4290, 56730.00
209.6520, 57336.00
210.8750, 57739.00
212.0970, 58068.00
213.3200, 58752.00
214.5420, 58986.00
215.7640, 59317.00
216.9860, 59859.00
218.2080, 60258.27
219.4300, 61153.00
220.6510, 61324.00
221.8720, 62020.00
223.0930, 62630.00
224.3140, 62647.00
225.5350, 63251.00
226.7550, 63594.00
227.9760, 64092.00
229.1960, 64494.82
230.4160, 64779.44
231.6360, 65232.00
232.8550, 65193.00
234.0750, 65474.00
235.2940, 65393.00
236.5130, 65799.00
237.7320, 66105.00
238.9510, 66178.00
240.1700, 66307.95
241.3880, 66360.41
242.6070, 66234.00
243.8250, 66229.00
245.0430, 66085.00
246.2600, 65755.00
247.4780, 65541.00
248.6950, 65048.00
249.9120, 64928.00
251.1300, 64741.00
252.3460, 64444.00
253.5630, 63624.00
254.7800, 63493.00
255.9960, 63036.00
257.2120, 62730.00
258.4280, 62447.00
259.6440, 62331.00
260.8600, 61440.00
262.0750, 61089.00
263.2910, 60641.00
264.5060, 60466.00
265.7210, 59895.00
266.9360, 60117.00
268.1500, 59633.00
269.3650, 59375.00
270.5790, 59068.00
271.7930, 58669.00
273.0070, 58308.00
274.2210, 57750.00
275.4340, 57528.00
276.6480, 57481.00
277.8610, 57424.00
279.0740, 56688.00
280.2870, 56694.00
281.5000, 56096.00
282.7120, 55884.00
283.9250, 55387.00
285.1370, 55250.00
286.3490, 54607.00
287.5610, 54457.00
288.7720, 53840.00
289.9840, 53590.00
291.1950, 53219.00
292.4060, 52942.00
293.6170, 52733.00
294.8280, 52499.00
296.0390, 52269.00
297.2490, 51683.00
298.4600, 51549.00
299.6700, 51497.00
300.8800, 50943.00
302.0890, 51109.00
303.2990, 50827.77
304.5080, 50894.00
305.7180, 50506.00
306.9270, 50783.00
308.1360, 50601.00
309.3450, 50423.00
310.5530, 50355.00
311.7620, 50621.00
312.9700, 50813.00
314.1780, 50546.00
315.3860, 50978.00
316.5930, 50910.00
317.8010, 50800.00
319.0080, 50877.00
320.2150, 51061.00
321.4230, 50978.00
322.6290, 51169.00
323.8360, 51176.32
325.0430, 51137.00
326.2490, 51256.00
327.4550, 50956.00
328.6610, 51005.00
329.8670, 50784.00
331.0730, 51160.00
332.2780, 51038.00
333.4830, 50793.00
334.6880, 50982.00
335.8930, 50895.00
337.0980, 50631.00
338.3030, 51042.00
339.5070, 50832.00
340.7110, 50924.00
341.9160, 50947.00
343.1200, 50959.00
344.3230, 50794.00
345.5270, 50673.00
346.7300, 50942.00
347.9340, 51129.00
349.1370, 51070.00
350.3390, 51059.00
351.5420, 51297.00
352.7450, 51412.00
353.9470, 51163.00
355.1490, 51291.00
356.3510, 51038.00
357.5530, 51300.00
358.7550, 51270.00
359.9560, 51738.00
361.1580, 51241.00
362.3590, 51287.00
363.5600, 51606.00
364.7610, 51142.00
365.9610, 51273.00
367.1620, 51681.00
368.3620, 51148.00
369.5620, 51379.00
370.7620, 51550.00
371.9620, 51496.00
373.1620, 51537.82
374.3610, 51213.00
375.5610, 51414.00
376.7600, 51407.00
377.9590, 51419.00
379.1570, 51690.00
380.3560, 51518.00
381.5550, 51612.00
382.7530, 51407.00
383.9510, 51784.00
385.1490, 51957.00
386.3470, 52137.00
387.5440, 52254.00
388.7420, 52509.00
389.9390, 52809.00
391.1360, 52861.40
392.3330, 53281.00
393.5290, 53137.00
394.7260, 53571.00
395.9220, 53945.00
397.1190, 53674.00
398.3150, 54444.00
399.5110, 54708.00
400.7060, 55105.00
401.9020, 55334.00
403.0970, 55912.00
404.2920, 55965.00
405.4870, 56616.00
406.6820, 57440.00
407.8770, 57798.00
409.0710, 58543.00
410.2660, 59273.00
411.4600, 59750.00
412.6540, 60227.00
413.8480, 61022.00
415.0410, 61431.00
416.2350, 62359.00
417.4280, 63046.00
418.6210, 63833.00
419.8140, 64687.88
421.0070, 65607.54
422.2000, 66437.00
423.3920, 67492.00
424.5840, 68564.00
425.7770, 69287.00
426.9690, 70076.00
428.1600, 70932.00
429.3520, 72354.00
430.5430, 73154.00
431.7350, 74187.00
432.9260, 75690.00
434.1170, 76573.00
435.3070, 77284.00
436.4980, 78329.00
437.6880, 79508.00
438.8790, 80325.00
440.0690, 80980.00
441.2590, 81362.00
442.4480, 82367.00
443.6380, 82508.00
444.8270, 83466.00
446.0170, 83492.00
447.2060, 83384.00
448.3950, 83323.00
449.5830, 82558.00
450.7720, 82233.00
451.9600, 81090.00
453.1480, 80156.00
454.3360, 78959.00
455.5240, 78004.00
456.7120, 76365.00
457.9000, 75235.00
459.0870, 73645.00
460.2740, 71964.00
461.4610, 70208.00
462.6480, 69036.00
463.8350, 67286.82
465.0210, 65846.00
466.2070, 64233.00
467.3940, 63355.00
468.5800, 62015.00
469.7660, 60939.00
470.9510, 59785.00
472.1370, 58845.00
473.3220, 57653.00
474.5070, 56811.64
475.6920, 55768.00
476.8770, 55212.00
478.0620, 54570.00
479.2460, 54006.00
480.4300, 53396.00
481.6150, 52775.00
482.7980, 52389.00
483.9820, 52028.00
485.1660, 51534.00
486.3490, 51054.00
487.5330, 51115.00
488.7160, 50872.00
489.8990, 50635.00
491.0820, 50373.00
492.2640, 49893.00
493.4470, 49717.00
494.6290, 49600.00
495.8110, 49445.00
496.9930, 49416.85
498.1750, 49433.44
499.3560, 49339.00
500.5380, 49533.00
501.7190, 49393.00
502.9000, 49327.00
504.0810, 49540.00
505.2620, 49683.00
506.4420, 49560.41
507.6230, 49803.02
508.8030, 49986.50
509.9830, 50114.11
511.1630, 50018.52
512.3430, 50211.14
513.5220, 50288.17
514.7020, 50360.55
515.8810, 50593.65
517.0600, 50530.43
518.2390, 50760.98
519.4180, 50874.27
520.5960, 51041.12
521.7750, 51091.86
522.9530, 51178.39
524.1310, 51381.19
525.3090, 51324.99
526.4870, 51301.00
527.6640, 51477.00
528.8420, 51637.00
530.0190, 51725.00
531.1960, 52026.00
532.3730, 52186.00
533.5490, 52017.00
534.7260, 52265.00
535.9020, 52607.00
537.0790, 52428.00
538.2550, 52995.00
539.4310, 53098.00
540.6060, 52956.00
541.7820, 53230.00
542.9570, 53299.11
544.1320, 53521.00
545.3070, 53843.00
546.4820, 53898.00
547.6570, 54605.00
548.8310, 54869.00
550.0060, 55071.00
551.1800, 55813.00
552.3540, 56327.00
553.5280, 56509.00
554.7020, 57191.00
555.8750, 57326.00
557.0480, 58135.00
558.2220, 58546.00
559.3950, 59105.00
560.5680, 59730.00
561.7400, 60866.00
562.9130, 61508.00
564.0850, 62475.00
565.2570, 63163.00
566.4290, 63905.00
567.6010, 65051.00
568.7730, 66051.00
569.9440, 67194.00
571.1160, 68126.00
572.2870, 69513.00
573.4580, 70409.00
574.6290, 71695.00
575.7990, 73423.00
576.9700, 74569.00
578.1400, 76153.00
579.3100, 77623.00
580.4800, 79225.00
581.6500, 80486.00
582.8200, 82636.00
583.9890, 84059.00
585.1590, 85932.00
586.3280, 88308.00
587.4970, 90309.00
588.6660, 92206.00
589.8340, 94422.00
591.0030, 97075.00
592.1710, 99210.00
593.3390, 101809.0
594.5070, 104737.0
595.6750, 107180.0
596.8430, 110007.0
598.0100, 113446.0
599.1780, 116027.0
600.3450, 118992.0
601.5120, 121492.0
602.6790, 124288.0
603.8450, 126741.0
605.0120, 128304.3
606.1780, 131162.5
607.3440, 133391.7
608.5100, 134995.2
609.6760, 135805.5
610.8420, 136334.0
612.0070, 137097.0
613.1730, 136316.0
614.3380, 135238.0
615.5030, 134260.0
616.6680, 132430.0
617.8320, 129723.0
618.9970, 127493.0
620.1610, 123995.0
621.3250, 121218.0
622.4890, 117666.0
623.6530, 114274.0
624.8170, 110888.0
625.9800, 107370.0
627.1440, 104154.0
628.3070, 100908.3
629.4700, 97794.00
630.6330, 94736.48
631.7950, 91836.00
632.9580, 89017.00
634.1200, 86106.00
635.2820, 83240.00
636.4440, 81345.00
637.6060, 79038.00
638.7680, 77236.00
639.9290, 74724.00
641.0900, 72860.00
642.2520, 71424.00
643.4130, 69716.00
644.5730, 68607.00
645.7340, 67092.00
646.8950, 65749.00
648.0550, 64475.00
649.2150, 63385.54
650.3750, 62436.00
651.5350, 61504.00
652.6950, 60724.00
653.8540, 59944.00
655.0140, 59413.00
656.1730, 58746.30
657.3320, 58184.00
658.4910, 57673.00
659.6490, 57182.00
660.8080, 56752.00
661.9660, 56292.17
663.1240, 55822.00
664.2820, 55493.00
665.4400, 55207.00
666.5980, 54935.05
667.7550, 54362.00
668.9130, 54397.00
670.0700, 54161.00
671.2270, 53901.00
672.3840, 54010.00
673.5400, 53495.00
674.6970, 53481.00
675.8530, 53319.00
677.0090, 53002.00
678.1650, 53202.00
679.3210, 52985.00
680.4770, 52905.00
681.6330, 52952.00
682.7880, 52665.00
683.9430, 52304.00
685.0980, 52041.00
686.2530, 52317.00
687.4080, 52316.00
688.5620, 51968.00
689.7170, 51759.00
690.8710, 51543.00
692.0250, 51574.00
693.1790, 51644.00
694.3320, 51206.00
695.4860, 51425.00
696.6390, 51142.00
697.7930, 51026.00
698.9460, 50965.00
700.0980, 50854.00
701.2510, 50330.00
702.4040, 50068.00
703.5560, 50056.00
704.7080, 49685.00
705.8600, 49693.00
707.0120, 49276.00
708.1640, 49127.00
709.3160, 49032.00
710.4670, 48602.00
711.6180, 48482.00
712.7690, 48371.00
713.9200, 48132.00
715.0710, 47976.00
716.2220, 47654.00
717.3720, 47383.00
718.5220, 47323.00
719.6720, 46974.00
720.8220, 46713.00
721.9720, 46788.00
723.1220, 46452.00
724.2710, 46058.00
725.4200, 46164.00
726.5690, 45919.00
727.7180, 45657.00
728.8670, 45673.00
730.0160, 45111.00
731.1640, 44868.00
732.3120, 44941.00
733.4600, 44697.00
734.6080, 44546.00
735.7560, 44184.00
736.9040, 44375.00
738.0510, 44178.00
739.1980, 44191.00
740.3460, 43791.00
741.4930, 43673.00
742.6390, 43621.00
743.7860, 43479.00
744.9320, 43632.00
746.0790, 43247.00
747.2250, 43019.00
748.3710, 43336.00
749.5170, 43129.00
750.6620, 43027.00
751.8080, 43312.00
752.9530, 43052.18
754.0980, 43000.39
755.2430, 43000.00
756.3880, 42719.00
757.5330, 43001.00
758.6770, 43011.00
759.8220, 42804.00
760.9660, 42682.00
762.1100, 43077.00
763.2540, 42941.00
764.3970, 43417.00
765.5410, 42992.00
766.6840, 43528.00
767.8270, 43416.00
768.9700, 43388.00
770.1130, 43569.00
771.2560, 43905.00
772.3980, 43941.00
773.5410, 44034.00
774.6830, 44461.00
775.8250, 44696.00
776.9670, 44820.57
778.1080, 44880.00
779.2500, 45087.00
780.3910, 45325.00
781.5330, 45496.00
782.6740, 45629.00
783.8150, 45881.00
784.9550, 46246.00
786.0960, 46346.00
787.2360, 46745.00
788.3770, 46543.00
789.5170, 47173.00
790.6570, 47026.00
791.7960, 47255.00
792.9360, 47689.00
794.0750, 47982.00
795.2150, 47826.00
796.3540, 47821.00
797.4930, 47974.00
798.6310, 47824.25
799.7700, 47758.42
800.9080, 47676.00
802.0470, 47567.00
803.1850, 47425.00
804.3230, 47311.11
805.4610, 47348.00
806.5980, 47002.00
807.7360, 46662.00
808.8730, 46408.82
810.0100, 46371.00
811.1470, 45844.00
812.2840, 45727.00
813.4200, 45443.00
814.5570, 44854.00
815.6930, 44588.00
816.8290, 44207.00
817.9650, 43918.00
819.1010, 43567.00
820.2370, 43356.00
821.3720, 42813.00
822.5080, 42203.00
823.6430, 42032.00
824.7780, 41330.00
825.9130, 41202.00
827.0480, 40806.00
828.1820, 40347.00
829.3160, 39878.00
830.4510, 39718.00
831.5850, 38931.00
832.7190, 38808.00
833.8520, 38439.00
834.9860, 37956.00
836.1190, 37640.00
837.2520, 37249.00
838.3860, 36837.00
839.5180, 36588.00
840.6510, 36048.00
841.7840, 35665.00
842.9160, 35401.00
844.0480, 35184.00
845.1810, 34629.00
846.3120, 34240.00
847.4440, 34151.00
848.5760, 33599.00
849.7070, 33249.00
850.8390, 33079.00
851.9700, 32793.00
853.1010, 32504.00
854.2310, 32328.00
855.3620, 32116.00
856.4930, 31872.15
857.6230, 31669.73
858.7530, 31443.00
859.8830, 31224.00
861.0130, 31068.00
862.1430, 30860.00
863.2720, 30604.00
864.4010, 30507.00
865.5310, 30237.00
866.6600, 30134.00
867.7880, 29896.00
868.9170, 29968.00
870.0460, 29848.00
871.1740, 29551.00
872.3020, 29313.00
873.4300, 29210.00
874.5580, 29225.00
875.6860, 28924.00
876.8130, 29050.00
877.9410, 28808.00
879.0680, 28945.00
880.1950, 28744.00
881.3220, 28599.00
882.4490, 28531.00
883.5750, 28405.00
884.7020, 28288.00
885.8280, 28105.00
886.9540, 28065.00
888.0800, 27966.60
889.2060, 28084.00
890.3320, 27872.00
891.4570, 27900.61
892.5820, 27901.00
893.7070, 27813.00
894.8320, 27617.00
895.9570, 27724.00
897.0820, 27607.00
898.2060, 27517.00
899.3310, 27630.00
900.4550, 27284.00
901.5790, 27497.00
902.7030, 27359.00
903.8260, 27370.00
904.9500, 27331.00
906.0730, 27209.00
907.1960, 27209.00
908.3200, 27278.00
909.4420, 27242.00
910.5650, 27135.00
911.6880, 27027.00
912.8100, 26994.00
913.9320, 27063.00
915.0540, 27028.00
916.1760, 27066.84
917.2980, 27098.00
918.4200, 27138.00
919.5410, 27108.00
920.6620, 27160.00
921.7830, 26841.00
922.9040, 26803.00
924.0250, 26849.00
925.1460, 26732.00
926.2660, 26724.00
927.3870, 26619.00
928.5070, 26720.00
929.6270, 26915.00
930.7470, 26767.00
931.8660, 26710.00
932.9860, 26817.00
934.1050, 26587.00
935.2240, 26777.00
936.3430, 26544.00
937.4620, 26534.00
938.5810, 26461.00
939.6990, 26458.00
940.8180, 26425.00
941.9360, 26509.00
943.0540, 26359.00
944.1720, 26160.00
945.2900, 26247.00
946.4070, 26199.00
947.5250, 26276.00
948.6420, 26411.00
949.7590, 26188.00
950.8760, 26416.00
951.9930, 26124.00
953.1090, 26046.00
954.2260, 26061.00
955.3420, 26231.00
956.4580, 26131.00
957.5740, 26295.00
958.6900, 26185.00
959.8060, 26145.00
960.9210, 26179.00
962.0360, 26109.66
963.1520, 25956.00
964.2670, 26071.00
965.3810, 26090.00
966.4960, 26087.00
967.6110, 25845.00
968.7250, 26038.00
969.8390, 25784.00
970.9530, 25916.00
972.0670, 25848.00
973.1810, 25867.00
974.2940, 25836.00
975.4080, 25837.00
976.5210, 25782.76
977.6340, 25682.00
978.7470, 25739.00
979.8600, 25761.00
980.9730, 25918.00
982.0850, 25497.00
983.1970, 25631.00
984.3090, 25664.00
985.4210, 25452.00
986.5330, 25548.00
987.6450, 25451.00
988.7560, 25514.00
989.8680, 25646.00
990.9790, 25601.00
992.0900, 25494.00
993.2010, 25399.00
994.3110, 25387.00
995.4220, 25351.41
996.5320, 25365.00
997.6430, 25361.00
998.7530, 25322.00
999.8630, 25315.00
1000.972, 25167.00
1002.082, 25207.00
1003.191, 25389.00
1004.301, 25336.00
1005.410, 25228.00
1006.519, 25421.00
1007.627, 25395.00
1008.736, 25142.00
1009.844, 25291.00
1010.953, 25203.00
1012.061, 25191.00
1013.169, 25244.00
1014.277, 25185.00
1015.384, 25277.00
1016.492, 25135.00
1017.599, 25167.00
1018.706, 25170.00
1019.813, 25237.00
1020.920, 25210.00
1022.027, 25303.00
1023.134, 25145.00
1024.240, 25084.00
1025.346, 25358.00
1026.452, 25071.70
1027.558, 25205.33
1028.664, 25279.92
1029.770, 25298.64
1030.875, 25094.16
1031.980, 25177.90
1033.086, 25146.12
1034.190, 25109.62
1035.295, 25233.93
1036.400, 25061.91
1037.504, 25183.66
1038.609, 25188.15
1039.713, 25246.30
1040.817, 25188.24
1041.921, 25166.07
1043.025, 25260.17
1044.128, 25289.89
1045.231, 25218.45
1046.335, 25280.02
1047.438, 25103.94
1048.541, 25136.40
1049.643, 25258.84
1050.746, 25193.24
1051.848, 25256.94
1052.951, 25271.39
1054.053, 25062.06
1055.155, 25241.91
1056.257, 25253.46
1057.358, 25092.19
1058.460, 25258.71
1059.561, 25121.26
1060.662, 25092.31
1061.763, 25145.02
1062.864, 25112.60
1063.965, 25214.38
1065.065, 25186.88
1066.166, 25147.83
1067.266, 25159.19
1068.366, 25027.71
1069.466, 25161.22
1070.566, 25113.72
1071.665, 25156.20
1072.765, 25219.08
1073.864, 25125.79
1074.963, 25197.83
1076.062, 25013.48
1077.161, 25043.66
1078.259, 25050.74
1079.358, 25194.94
1080.456, 25011.85
1081.554, 25036.07
1082.652, 25148.56
1083.750, 25137.54
1084.848, 25178.16
1085.945, 25065.91
1087.043, 25081.00
1088.140, 25095.10
1089.237, 24985.00
1090.334, 25034.00
1091.431, 25000.00
1092.527, 24954.00
1093.624, 25017.00
1094.720, 24923.00
1095.816, 25009.00
1096.912, 25155.00
1098.008, 25023.00
1099.104, 24895.00
1100.199, 25066.00
1101.294, 25028.00
1102.390, 24936.00
1103.485, 25039.00
1104.579, 24835.00
1105.674, 24987.00
1106.769, 25015.00
1107.863, 25085.00
1108.957, 25160.00
1110.051, 24953.00
1111.145, 24883.00
1112.239, 25125.00
1113.333, 24913.00
1114.426, 25005.00
1115.519, 24992.00
1116.612, 25111.00
1117.705, 24941.00
1118.798, 24944.00
1119.891, 24889.00
1120.983, 24990.00
1122.076, 24946.00
1123.168, 24703.00
1124.260, 24926.00
1125.352, 24936.00
1126.443, 24933.00
1127.535, 25077.00
1128.626, 24812.00
1129.718, 24880.00
1130.809, 24809.00
1131.900, 24957.00
1132.990, 24820.00
1134.081, 24975.00
1135.171, 25001.00
1136.262, 25049.00
1137.352, 24958.00
1138.442, 24895.00
1139.532, 25013.00
1140.621, 25049.00
1141.711, 24960.00
1142.800, 25169.00
1143.890, 25107.00
1144.979, 24963.00
1146.067, 25019.00
1147.156, 25115.00
1148.245, 24937.00
1149.333, 24773.00
1150.421, 24910.00
1151.510, 24937.00
1152.597, 25148.00
1153.685, 25300.00
1154.773, 25062.00
1155.860, 24872.00
1156.948, 25155.00
1158.035, 24831.00
1159.122, 24979.00
1160.209, 25036.00
1161.295, 24942.00
1162.382, 25066.00
1163.468, 25062.00
1164.555, 24884.00
1165.641, 25172.00
1166.727, 25249.00
1167.812, 24979.00
1168.898, 24966.00
1169.983, 24977.00
1171.069, 24924.00
1172.154, 24995.00
1173.239, 25159.00
1174.324, 25319.00
1175.408, 25101.00
1176.493, 25249.00
1177.577, 25235.00
1178.661, 25074.00
1179.745, 25196.00
1180.829, 25111.00
1181.913, 25251.00
1182.997, 25055.00
1184.080, 25142.00
1185.163, 25416.00
1186.246, 25142.00
1187.329, 25070.00
1188.412, 25183.00
1189.495, 25001.00
1190.577, 25238.00
1191.660, 25166.00
1192.742, 25104.00
1193.824, 25313.00
1194.906, 25198.00
1195.987, 25190.00
1197.069, 25229.00
1198.150, 25032.00
1199.232, 25314.00
1200.313, 25116.00
1201.394, 25137.87
1202.474, 25285.43
1203.555, 25373.96
1204.635, 25406.60
1205.716, 25216.05
1206.796, 25313.72
1207.876, 25295.87
1208.956, 25273.29
1210.035, 25411.51
1211.115, 25253.42
1212.194, 25389.09
1213.274, 25407.50
1214.353, 25479.57
1215.432, 25435.42
1216.510, 25427.15
1217.589, 25535.16
1218.667, 25578.78
1219.746, 25521.25
1220.824, 25596.72
1221.902, 25434.54
1222.980, 25480.90
1224.057, 25617.22
1225.135, 25565.53
1226.212, 25643.11
1227.289, 25671.45
1228.366, 25476.01
1229.443, 25669.75
1230.520, 25695.18
1231.597, 25547.80
1232.673, 25728.19
1233.749, 25604.62
1234.825, 25589.55
1235.901, 25656.12
1236.977, 25637.58
1238.053, 25753.24
1239.128, 25739.60
1240.204, 25714.42
1241.279, 25739.64
1242.354, 25622.02
1243.429, 25769.40
1244.503, 25735.75
1245.578, 25792.09
1246.652, 25868.81
1247.727, 25789.38
1248.801, 25875.27
1249.875, 25704.77
1250.949, 25748.80
1252.022, 25769.71
1253.096, 25927.76
1254.169, 25758.50
1255.242, 25796.56
1256.315, 25922.89
1257.388, 25925.71
1258.461, 25980.16
1259.533, 25881.73
1260.606, 25926.92
1261.678, 25932.52
1262.750, 26074.91
1263.822, 26109.31
1264.894, 26013.47
1265.965, 25918.17
1267.037, 26070.41
1268.108, 25988.03
1269.179, 26032.21
1270.250, 25945.68
1271.321, 25972.01
1272.392, 25996.56
1273.463, 26078.96
1274.533, 25985.91
1275.603, 26120.43
1276.673, 26123.42
1277.743, 26165.16
1278.813, 26202.58
1279.883, 26063.51
1280.952, 26069.11
1282.021, 26055.00
1283.091, 26186.00
1284.160, 26237.00
1285.229, 26115.00
1286.297, 26184.00
1287.366, 26171.00
1288.434, 26235.00
1289.502, 26208.00
1290.570, 26220.00
1291.638, 26151.00
1292.706, 26184.00
1293.774, 26187.00
1294.841, 26157.00
1295.909, 26293.00
1296.976, 26317.00
1298.043, 26428.00
1299.110, 26300.00
1300.176, 26337.00
1301.243, 26332.00
1302.309, 26472.00
1303.376, 26328.00
1304.442, 26456.00
1305.508, 26334.00
1306.573, 26383.00
1307.639, 26330.00
1308.704, 26531.00
1309.770, 26574.00
1310.835, 26598.54
1311.900, 26441.00
1312.965, 26655.00
1314.030, 26607.00
1315.094, 26628.00
1316.159, 26777.00
1317.223, 26544.00
1318.287, 26510.00
1319.351, 26512.00
1320.415, 26709.00
1321.478, 26546.00
1322.542, 26631.61
1323.605, 26815.00
1324.668, 26620.00
1325.731, 26704.00
1326.794, 26666.00
1327.857, 26641.00
1328.919, 26763.00
1329.982, 26536.00
1331.044, 26698.00
1332.106, 26576.00
1333.168, 26664.00
1334.230, 26753.00
1335.292, 26416.00
1336.353, 26552.00
1337.414, 26546.00
1338.476, 26535.00
1339.537, 26392.00
1340.597, 26319.00
1341.658, 26447.00
1342.719, 26409.00
1343.779, 26708.00
1344.839, 26543.00
1345.900, 26625.00
1346.960, 26559.00
1348.019, 26549.00
1349.079, 26517.00
1350.139, 26581.00
1351.198, 26554.00
1352.257, 26784.00
1353.316, 26444.00
1354.375, 26525.00
1355.434, 26593.00
1356.492, 26408.00
1357.551, 26599.00
1358.609, 26485.00
1359.667, 26475.00
1360.725, 26593.00
1361.783, 26458.00
1362.841, 26569.00
1363.898, 26446.00
1364.956, 26678.00
1366.013, 26450.00
1367.070, 26557.00
1368.127, 26723.00
1369.183, 26562.00
1370.240, 26383.00
1371.297, 26661.00
1372.353, 26497.00
1373.409, 26463.00
1374.465, 26733.00
1375.521, 26647.00
1376.577, 26527.00
1377.632, 26512.00
1378.687, 26490.00
1379.743, 26480.00
1380.798, 26632.00
1381.853, 26440.00
1382.907, 26643.00
1383.962, 26528.00
1385.017, 26436.00
1386.071, 26573.00
1387.125, 26450.00
1388.179, 26562.00
1389.233, 26524.00
1390.287, 26735.00
1391.340, 26669.00
1392.394, 26466.00
1393.447, 26654.00
1394.500, 26692.00
1395.553, 26560.00
1396.606, 26636.00
1397.658, 26543.00
1398.711, 26550.00
1399.763, 26734.00
1400.815, 26456.00
1401.868, 26541.00
1402.919, 26478.00
1403.971, 26846.00
1405.023, 26685.00
1406.074, 26526.00
1407.125, 26762.00
1408.177, 26474.00
1409.228, 26774.00
1410.278, 26520.00
1411.329, 26745.00
1412.380, 26854.00
1413.430, 26397.00
1414.480, 26632.00
1415.530, 26735.00
1416.580, 26754.00
1417.630, 26829.00
1418.680, 26811.00
1419.729, 26859.00
1420.778, 26809.00
1421.828, 26791.00
1422.877, 26841.00
1423.925, 26748.00
1424.974, 26860.00
1426.023, 26801.00
1427.071, 26768.00
1428.119, 26694.00
1429.167, 26875.00
1430.215, 26986.00
1431.263, 26737.00
1432.311, 26951.00
1433.358, 26981.00
1434.406, 26906.00
1435.453, 26912.00
1436.500, 26957.00
1437.547, 26885.00
1438.594, 26965.00
1439.640, 26973.00
1440.687, 27010.00
1441.733, 27104.00
1442.779, 27131.00
1443.825, 26965.00
1444.871, 27099.00
1445.917, 26979.00
1446.962, 26943.00
1448.007, 27036.00
1449.053, 27176.00
1450.098, 27042.00
1451.143, 27142.00
1452.187, 26988.00
1453.232, 27077.00
1454.277, 27200.00
1455.321, 27069.00
1456.365, 27120.00
1457.409, 27029.00
1458.453, 27361.00
1459.497, 27112.00
1460.540, 27155.00
1461.584, 27330.00
1462.627, 27167.00
1463.670, 27069.00
1464.713, 27450.00
1465.756, 27100.00
1466.799, 27333.00
1467.841, 27154.00
1468.884, 27173.00
1469.926, 27175.00
1470.968, 27151.00
1472.010, 27253.00
1473.051, 27312.00
1474.093, 27181.00
1475.135, 27432.00
1476.176, 27535.00
1477.217, 27381.00
1478.258, 27419.00
1479.299, 27359.00
1480.340, 27321.50
1481.380, 27330.00
1482.421, 27326.00
1483.461, 27478.00
1484.501, 27587.00
1485.541, 27550.00
1486.581, 27427.00
1487.620, 27543.00
1488.660, 27359.00
1489.699, 27542.00
1490.739, 27635.00
1491.778, 27520.00
1492.817, 27858.00
1493.855, 27757.00
1494.894, 27358.00
1495.932, 27829.00
1496.971, 27702.00
1498.009, 27783.00
1499.047, 27700.00
1500.085, 27572.00
1501.122, 27879.00
1502.160, 27467.00
1503.197, 27709.00
1504.235, 27713.00
1505.272, 28033.00
1506.309, 27745.00
1507.346, 27787.00
1508.382, 27861.00
1509.419, 27746.00
1510.455, 27871.00
1511.491, 27777.00
1512.527, 27839.00
1513.563, 27967.00
1514.599, 27882.00
1515.635, 27842.00
1516.670, 28089.00
1517.706, 27996.00
1518.741, 27950.00
1519.776, 27907.00
1520.811, 27887.98
1521.845, 27948.34
1522.880, 27936.00
1523.914, 28106.00
1524.949, 28242.00
1525.983, 28306.00
1527.017, 28307.03
1528.050, 28047.00
1529.084, 28206.00
1530.118, 28217.00
1531.151, 28187.00
1532.184, 28304.00
1533.217, 28151.00
1534.250, 28462.00
1535.283, 28419.00
1536.316, 28493.00
1537.348, 28425.00
1538.381, 28301.93
1539.413, 28452.55
1540.445, 28544.13
1541.477, 28579.85
1542.508, 28392.34
1543.540, 28493.07
1544.571, 28478.27
1545.603, 28458.76
1546.634, 28600.04
1547.665, 28444.99
1548.696, 28583.72
1549.726, 28605.17
1550.757, 28680.30
1551.787, 28639.19
1552.817, 28633.99
1553.848, 28745.05
1554.878, 28791.73
1555.907, 28737.23
1556.937, 28815.76
1557.966, 28656.62
1558.996, 28706.04
1560.025, 28845.42
1561.054, 28796.77
1562.083, 28877.40
1563.112, 28908.80
1564.140, 28716.40
1565.169, 28913.19
1566.197, 28941.66
1567.225, 28797.32
1568.253, 28980.76
1569.281, 28860.24
1570.309, 28848.22
1571.336, 28917.83
1572.364, 28902.34
1573.391, 28905.95
1574.418, 29114.00
1575.445, 28779.00
1576.472, 29019.00
1577.499, 28911.00
1578.525, 28933.00
1579.552, 28759.00
##END=



