##NAMES=Rutile
##RRUFFID=R040049
##IDEAL CHEMISTRY=Ti^4+^O_2_
##LOCALITY=Graves Mountain, Lincoln County, Georgia, USA
##OWNER=RRUFF
##SOURCE=University of Arizona Mineral Museum
##DESCRIPTION=Reddish-black fragments
##STATUS=The identification of this mineral has been confirmed by X-ray diffraction and chemical analysis
##URL=rruff.info/R040049
##MEASURED CHEMISTRY=(Ti_1.00_Fe_0.01_)O_2_
##PIN_ID=L00223
##ORIENTATION=Laser parallel to c* (0 0 1). Fiducial mark perpendicular to laser is parallel to -a [-1 0 0]
100.8230, 47506.00
102.0620, 47689.00
103.3000, 48120.00
104.5380, 48461.00
105.7760, 50359.00
107.0140, 52282.00
108.2510, 52306.00
109.4890, 52017.00
110.7260, 51921.00
111.9630, 52088.00
113.2000, 52698.00
114.4360, 52911.00
115.6730, 54529.00
116.9090, 54662.00
118.1450, 55970.00
119.3810, 56651.00
120.6170, 57741.00
121.8530, 58575.20
123.0880, 58567.21
124.3230, 58234.06
125.5590, 57579.39
126.7930, 56379.45
128.0280, 55322.11
129.2630, 55291.00
130.4970, 55139.00
131.7310, 55904.00
132.9650, 56715.00
134.1990, 56933.00
135.4330, 57069.00
136.6670, 58210.00
137.9000, 58687.00
139.1330, 59899.00
140.3660, 59980.00
141.5990, 60110.00
142.8320, 59723.90
144.0640, 59230.00
145.2960, 57737.00
146.5290, 56442.00
147.7610, 54596.00
148.9920, 53263.00
150.2240, 52066.00
151.4550, 50498.00
152.6870, 49986.00
153.9180, 49351.00
155.1490, 49079.00
156.3800, 48283.00
157.6100, 47942.00
158.8400, 47467.00
160.0710, 47073.00
161.3010, 46881.00
162.5310, 46333.00
163.7600, 46427.00
164.9900, 46364.00
166.2190, 46081.00
167.4480, 46157.00
168.6770, 46331.00
169.9060, 46172.00
171.1350, 46460.00
172.3630, 46511.00
173.5920, 46864.00
174.8200, 46678.00
176.0480, 47303.00
177.2760, 47371.00
178.5030, 47815.00
179.7310, 47702.00
180.9580, 48702.00
182.1850, 49106.00
183.4120, 49482.00
184.6390, 50161.00
185.8650, 50652.00
187.0920, 51050.00
188.3180, 51655.00
189.5440, 52100.00
190.7700, 52410.00
191.9960, 53121.00
193.2210, 53402.00
194.4470, 53829.00
195.6720, 54147.00
196.8970, 54657.00
198.1220, 55151.00
199.3460, 55367.00
200.5710, 56349.00
201.7950, 56671.00
203.0190, 57106.00
204.2430, 57915.00
205.4670, 57879.00
206.6910, 58714.00
207.9140, 59049.00
209.1370, 59512.00
210.3610, 60060.00
211.5840, 60830.00
212.8060, 61014.00
214.0290, 61617.00
215.2510, 62436.00
216.4740, 62848.00
217.6960, 63636.00
218.9180, 64204.00
220.1390, 64333.00
221.3610, 65170.00
222.5820, 65771.00
223.8030, 66829.00
225.0240, 66568.00
226.2450, 67077.00
227.4660, 68058.00
228.6870, 68473.00
229.9070, 69073.00
231.1270, 69663.00
232.3470, 69707.00
233.5670, 70390.00
234.7870, 70472.00
236.0060, 70478.00
237.2250, 70962.00
238.4440, 70657.00
239.6630, 70903.00
240.8820, 71079.00
242.1010, 70749.00
243.3190, 70609.00
244.5380, 70191.00
245.7560, 69580.00
246.9740, 68631.00
248.1910, 68611.00
249.4090, 67488.00
250.6260, 66909.00
251.8440, 66190.00
253.0610, 65186.00
254.2780, 64514.00
255.4940, 64076.00
256.7110, 62947.00
257.9270, 62654.00
259.1430, 62242.00
260.3600, 61184.00
261.5750, 60564.00
262.7910, 60253.00
264.0070, 59703.00
265.2220, 59118.00
266.4370, 58914.00
267.6520, 58267.00
268.8670, 57849.00
270.0820, 57774.00
271.2960, 57553.00
272.5100, 57103.00
273.7250, 56572.00
274.9390, 56167.00
276.1520, 55637.00
277.3660, 55502.00
278.5790, 54974.00
279.7930, 54505.00
281.0060, 54461.00
282.2190, 54154.00
283.4320, 53562.59
284.6440, 53387.50
285.8570, 53150.39
287.0690, 52856.09
288.2810, 52278.61
289.4930, 52107.78
290.7050, 51799.03
291.9160, 51501.98
293.1270, 51439.67
294.3390, 50995.38
295.5500, 50965.36
296.7610, 50795.02
297.9710, 50715.05
299.1820, 50496.05
300.3920, 50384.96
301.6020, 50004.00
302.8120, 50227.00
304.0220, 50071.00
305.2320, 50236.00
306.4410, 50369.21
307.6510, 50536.00
308.8600, 50678.00
310.0690, 50537.00
311.2780, 50632.00
312.4860, 50621.27
313.6950, 50839.60
314.9030, 50969.89
316.1110, 51016.48
317.3190, 50753.64
318.5270, 50871.21
319.7350, 50824.63
320.9420, 50763.32
322.1490, 50910.56
323.3570, 50649.75
324.5630, 50776.90
325.7700, 50737.50
326.9770, 50762.16
328.1830, 50621.77
329.3900, 50521.40
330.5960, 50569.57
331.8020, 50522.59
333.0070, 50330.92
334.2130, 50310.24
335.4180, 49885.00
336.6230, 50200.00
337.8290, 49881.00
339.0330, 49818.00
340.2380, 49954.00
341.4430, 49650.00
342.6470, 49989.00
343.8510, 49822.00
345.0550, 49650.00
346.2590, 49692.00
347.4630, 49991.00
348.6660, 50120.00
349.8700, 49976.00
351.0730, 50183.00
352.2760, 50211.00
353.4790, 50032.00
354.6810, 50148.00
355.8840, 50481.00
357.0860, 50377.00
358.2880, 50253.00
359.4900, 50396.00
360.6920, 50172.00
361.8940, 50212.00
363.0950, 50050.78
364.2960, 50109.72
365.4980, 50088.92
366.6990, 49992.86
367.8990, 49595.85
369.1000, 49587.49
370.3000, 49423.44
371.5010, 49252.90
372.7010, 49299.36
373.9010, 48946.14
375.1010, 48989.16
376.3000, 48874.11
377.5000, 48831.36
378.6990, 48405.00
379.8980, 48500.31
381.0970, 48197.00
382.2960, 48069.00
383.4940, 48171.00
384.6920, 47619.00
385.8910, 47887.00
387.0890, 47533.00
388.2870, 47696.00
389.4840, 47627.00
390.6820, 47311.00
391.8790, 47389.00
393.0770, 47411.00
394.2740, 47028.00
395.4700, 47146.00
396.6670, 46869.00
397.8640, 46675.00
399.0600, 46888.00
400.2560, 46592.00
401.4520, 46644.00
402.6480, 46504.00
403.8440, 46338.00
405.0390, 46549.00
406.2350, 46468.00
407.4300, 46624.00
408.6250, 46366.00
409.8200, 46302.00
411.0140, 46528.00
412.2090, 46415.00
413.4030, 46741.00
414.5970, 46701.00
415.7910, 46895.00
416.9850, 46896.00
418.1790, 46823.00
419.3720, 47069.00
420.5660, 46860.00
421.7590, 47363.00
422.9520, 47062.00
424.1440, 47386.00
425.3370, 47392.00
426.5300, 47308.00
427.7220, 47682.00
428.9140, 47562.90
430.1060, 48138.00
431.2980, 47700.00
432.4890, 47956.00
433.6810, 48270.00
434.8720, 48248.00
436.0630, 48497.00
437.2540, 48535.70
438.4450, 48376.00
439.6350, 48464.51
440.8260, 48669.10
442.0160, 48785.48
443.2060, 48817.97
444.3960, 48540.86
445.5860, 48643.96
446.7750, 48582.74
447.9650, 48506.58
449.1540, 48638.81
450.3430, 48362.83
451.5320, 48474.57
452.7210, 48419.61
453.9090, 48428.57
455.0980, 48272.19
456.2860, 48155.78
457.4740, 48187.67
458.6620, 48124.21
459.8500, 47915.80
461.0370, 47878.39
462.2250, 47511.81
463.4120, 47418.14
464.5990, 47437.32
465.7860, 47194.37
466.9720, 47188.00
468.1590, 47176.00
469.3450, 46876.00
470.5320, 46774.00
471.7180, 46521.00
472.9030, 46400.70
474.0890, 46385.00
475.2750, 46182.00
476.4600, 46152.00
477.6450, 46063.00
478.8300, 46087.00
480.0150, 45804.00
481.2000, 45694.00
482.3840, 45929.00
483.5690, 45469.00
484.7530, 45327.00
485.9370, 45628.00
487.1210, 45299.00
488.3040, 45478.00
489.4880, 45614.00
490.6710, 45512.00
491.8540, 45602.00
493.0370, 45422.00
494.2200, 45511.00
495.4030, 45794.00
496.5850, 45753.00
497.7680, 46010.00
498.9500, 46049.00
500.1320, 45875.00
501.3140, 46068.00
502.4950, 46456.00
503.6770, 46321.00
504.8580, 46646.00
506.0390, 46820.00
507.2200, 47037.00
508.4010, 47135.00
509.5820, 47809.00
510.7620, 47740.00
511.9420, 48162.00
513.1230, 48405.00
514.3030, 48342.00
515.4820, 48706.00
516.6620, 49018.00
517.8420, 49324.00
519.0210, 49776.63
520.2000, 49910.00
521.3790, 50622.00
522.5580, 50790.00
523.7360, 51068.00
524.9150, 51372.00
526.0930, 51841.00
527.2710, 52408.00
528.4490, 52869.00
529.6270, 53099.00
530.8050, 53548.00
531.9820, 53849.00
533.1590, 54458.00
534.3360, 54850.00
535.5130, 55425.00
536.6900, 56027.00
537.8670, 56209.00
539.0430, 57166.00
540.2200, 58256.00
541.3960, 58579.00
542.5720, 59405.00
543.7470, 60156.00
544.9230, 60858.00
546.0980, 61715.00
547.2740, 62828.00
548.4490, 63731.00
549.6240, 64822.00
550.7990, 65944.00
551.9730, 67157.00
553.1480, 68387.00
554.3220, 69677.00
555.4960, 71002.00
556.6700, 72575.99
557.8440, 74233.87
559.0170, 76084.00
560.1910, 77884.00
561.3640, 80127.00
562.5370, 82080.00
563.7100, 84414.00
564.8830, 86678.00
566.0550, 88844.00
567.2280, 91100.00
568.4000, 94102.00
569.5720, 96826.00
570.7440, 99744.00
571.9160, 102894.2
573.0870, 105630.0
574.2590, 109361.0
575.4300, 112603.0
576.6010, 116056.0
577.7720, 120031.0
578.9430, 123386.0
580.1140, 127851.0
581.2840, 131656.0
582.4540, 136653.0
583.6240, 140672.0
584.7940, 145817.0
585.9640, 150975.0
587.1340, 156020.0
588.3030, 161735.0
589.4720, 167621.0
590.6410, 173956.0
591.8100, 180215.5
592.9790, 186883.0
594.1480, 193563.0
595.3160, 200690.0
596.4840, 208030.0
597.6520, 215285.0
598.8200, 222635.0
599.9880, 230183.0
601.1560, 237377.0
602.3230, 244752.0
603.4900, 250744.0
604.6570, 257003.0
605.8240, 261452.0
606.9910, 266228.0
608.1580, 270099.0
609.3240, 272675.0
610.4900, 274799.0
611.6570, 274349.0
612.8230, 273893.0
613.9880, 271529.0
615.1540, 269138.0
616.3190, 264474.0
617.4850, 259277.0
618.6500, 253457.0
619.8150, 246500.0
620.9790, 240685.0
622.1440, 231663.0
623.3080, 223744.0
624.4730, 215351.0
625.6370, 208060.0
626.8010, 199936.0
627.9640, 192365.0
629.1280, 184822.0
630.2910, 177728.0
631.4550, 170962.0
632.6180, 164238.2
633.7810, 157882.2
634.9440, 151734.0
636.1060, 145843.0
637.2690, 140293.0
638.4310, 135009.0
639.5930, 131155.0
640.7550, 126760.0
641.9170, 122542.0
643.0780, 119105.0
644.2400, 115104.0
645.4010, 111198.0
646.5620, 108483.0
647.7230, 106081.0
648.8840, 103075.0
650.0450, 100979.0
651.2050, 98161.00
652.3650, 96069.00
653.5250, 93665.00
654.6850, 92111.00
655.8450, 90049.00
657.0050, 88626.00
658.1640, 87197.00
659.3230, 85655.00
660.4830, 84642.00
661.6420, 82879.00
662.8000, 82369.00
663.9590, 80857.00
665.1170, 79889.00
666.2760, 78963.00
667.4340, 77617.00
668.5920, 76792.00
669.7500, 76040.00
670.9070, 75436.00
672.0650, 74479.00
673.2220, 73577.00
674.3790, 72809.00
675.5360, 72153.00
676.6930, 71445.00
677.8500, 70714.00
679.0060, 69865.00
680.1620, 69787.00
681.3190, 68754.00
682.4750, 68378.00
683.6300, 67944.00
684.7860, 66983.00
685.9420, 66900.00
687.0970, 65977.00
688.2520, 65639.00
689.4070, 64672.00
690.5620, 64502.00
691.7170, 64668.00
692.8710, 63974.00
694.0250, 63280.00
695.1800, 62791.00
696.3340, 62084.00
697.4870, 61277.00
698.6410, 61202.00
699.7950, 60246.00
700.9480, 59694.00
702.1010, 58999.00
703.2540, 58663.00
704.4070, 57943.00
705.5600, 57482.00
706.7120, 57041.00
707.8640, 56734.00
709.0170, 55780.00
710.1690, 55445.00
711.3210, 54802.00
712.4720, 54672.00
713.6240, 54010.00
714.7750, 53239.00
715.9260, 53081.00
717.0770, 52451.71
718.2280, 52249.00
719.3790, 51525.00
720.5290, 51478.00
721.6800, 50864.00
722.8300, 50212.00
723.9800, 49898.00
725.1300, 49750.00
726.2800, 48968.00
727.4290, 48721.00
728.5790, 48668.00
729.7280, 47990.00
730.8770, 47692.00
732.0260, 47318.00
733.1750, 47314.00
734.3230, 47147.00
735.4720, 46769.00
736.6200, 46248.00
737.7680, 45861.00
738.9160, 45700.00
740.0640, 45422.00
741.2110, 45151.00
742.3590, 45031.00
743.5060, 44851.00
744.6530, 44662.00
745.8000, 44731.00
746.9470, 44679.00
748.0930, 44496.00
749.2400, 44388.00
750.3860, 44283.80
751.5320, 44142.47
752.6780, 44113.00
753.8240, 43891.00
754.9690, 43902.00
756.1150, 43759.00
757.2600, 43866.00
758.4050, 43828.00
759.5500, 43847.00
760.6950, 43792.00
761.8400, 43959.00
762.9840, 44059.00
764.1280, 44142.00
765.2730, 44411.00
766.4170, 44125.00
767.5600, 44100.00
768.7040, 44754.00
769.8470, 44526.00
770.9910, 45049.00
772.1340, 44973.00
773.2770, 44965.00
774.4200, 45402.00
775.5620, 45671.00
776.7050, 45941.00
777.8470, 46160.00
778.9890, 46420.70
780.1310, 46775.00
781.2730, 46914.00
782.4150, 47181.00
783.5570, 47454.00
784.6980, 47625.00
785.8390, 47683.00
786.9800, 48238.00
788.1210, 48393.00
789.2620, 48526.00
790.4020, 48894.00
791.5430, 49127.00
792.6830, 49056.00
793.8230, 49756.00
794.9630, 50220.00
796.1020, 49666.00
797.2420, 49779.00
798.3810, 49773.00
799.5210, 49660.00
800.6600, 49678.00
801.7990, 49633.00
802.9370, 49684.00
804.0760, 49364.00
805.2140, 49095.00
806.3530, 48963.00
807.4910, 48625.00
808.6290, 47999.00
809.7660, 47922.00
810.9040, 47372.00
812.0420, 47370.00
813.1790, 46588.00
814.3160, 46235.00
815.4530, 45732.00
816.5900, 45200.24
817.7260, 44866.00
818.8630, 44277.00
819.9990, 43681.00
821.1350, 43231.00
822.2710, 42849.00
823.4070, 42309.00
824.5430, 41594.00
825.6780, 41194.00
826.8130, 40444.00
827.9490, 39993.00
829.0840, 39319.00
830.2180, 38982.00
831.3530, 38678.00
832.4880, 37917.00
833.6220, 37456.00
834.7560, 36906.00
835.8900, 36420.00
837.0240, 35658.00
838.1580, 35402.00
839.2910, 34702.00
840.4250, 34589.00
841.5580, 33902.00
842.6910, 33430.00
843.8240, 32722.00
844.9560, 32627.00
846.0890, 32031.00
847.2210, 31864.00
848.3540, 31269.00
849.4860, 30953.00
850.6180, 30373.00
851.7490, 30220.00
852.8810, 29552.00
854.0120, 29349.00
855.1440, 29134.00
856.2750, 28705.00
857.4060, 28455.00
858.5360, 28263.17
859.6670, 28002.32
860.7980, 27784.00
861.9280, 27592.00
863.0580, 27039.00
864.1880, 26699.00
865.3180, 26859.00
866.4470, 26293.00
867.5770, 26353.00
868.7060, 25934.00
869.8350, 25758.00
870.9640, 25616.00
872.0930, 25415.00
873.2220, 25356.00
874.3500, 25156.00
875.4790, 25014.90
876.6070, 24893.00
877.7350, 24689.00
878.8630, 24525.00
879.9900, 24333.00
881.1180, 24179.00
882.2450, 24191.00
883.3730, 23990.00
884.5000, 23941.00
885.6260, 23736.00
886.7530, 23867.00
887.8800, 23560.00
889.0060, 23376.00
890.1320, 23363.00
891.2580, 23508.00
892.3840, 23218.00
893.5100, 23279.00
894.6360, 22956.00
895.7610, 22931.00
896.8860, 23003.00
898.0120, 22858.00
899.1360, 22755.00
900.2610, 22834.00
901.3860, 22588.00
902.5100, 22665.00
903.6350, 22494.00
904.7590, 22278.00
905.8830, 22324.00
907.0070, 22428.00
908.1300, 22203.00
909.2540, 22290.00
910.3770, 22233.00
911.5000, 22068.00
912.6230, 22369.00
913.7460, 22082.00
914.8690, 22235.00
915.9910, 22125.00
917.1140, 21978.00
918.2360, 21949.00
919.3580, 21964.00
920.4800, 21875.00
921.6020, 21766.00
922.7230, 21560.00
923.8440, 21689.00
924.9660, 21502.00
926.0870, 21515.00
927.2080, 21575.00
928.3280, 21498.00
929.4490, 21496.00
930.5700, 21444.20
931.6900, 21499.00
932.8100, 21326.00
933.9300, 21287.00
935.0500, 21262.00
936.1690, 21109.00
937.2890, 21137.00
938.4080, 21144.00
939.5270, 20915.00
940.6460, 21108.00
941.7650, 20942.00
942.8840, 20855.88
944.0020, 21003.00
945.1200, 20724.00
946.2390, 20809.00
947.3570, 20964.00
948.4750, 20867.00
949.5920, 20706.00
950.7100, 20810.00
951.8270, 20658.00
952.9440, 20761.00
954.0610, 20662.00
955.1780, 20744.00
956.2950, 20600.00
957.4120, 20451.00
958.5280, 20684.00
959.6440, 20363.00
960.7600, 20407.00
961.8760, 20551.00
962.9920, 20538.00
964.1080, 20603.00
965.2230, 20296.00
966.3380, 20466.00
967.4540, 20481.00
968.5690, 20310.00
969.6830, 20447.00
970.7980, 20145.00
971.9120, 20194.74
973.0270, 20159.88
974.1410, 20237.00
975.2550, 20075.00
976.3690, 20265.00
977.4820, 20132.00
978.5960, 20167.00
979.7090, 20106.00
980.8230, 20040.99
981.9360, 20028.75
983.0490, 19949.00
984.1610, 19928.00
985.2740, 19933.00
986.3860, 19840.00
987.4980, 19912.00
988.6110, 19814.00
989.7220, 19811.00
990.8340, 19810.00
991.9460, 19772.00
993.0570, 19805.00
994.1690, 19599.00
995.2800, 19811.00
996.3910, 19631.00
997.5010, 19868.00
998.6120, 19511.00
999.7230, 19567.00
1000.833, 19402.00
1001.943, 19262.00
1003.053, 19690.00
1004.163, 19589.00
1005.273, 19509.00
1006.382, 19454.00
1007.492, 19460.00
1008.601, 19328.00
1009.710, 19342.22
1010.819, 19437.00
1011.927, 19294.00
1013.036, 19292.00
1014.144, 19232.00
1015.253, 19253.00
1016.361, 19260.00
1017.469, 19302.00
1018.576, 19233.00
1019.684, 19051.00
1020.791, 19172.00
1021.899, 19073.19
1023.006, 19042.41
1024.113, 19049.00
1025.220, 19056.00
1026.326, 19053.00
1027.433, 19086.95
1028.539, 19162.00
1029.645, 19124.00
1030.751, 19110.00
1031.857, 19059.00
1032.963, 19182.00
1034.068, 18971.00
1035.174, 18911.00
1036.279, 18949.00
1037.384, 19072.00
1038.489, 18864.00
1039.594, 18947.00
1040.698, 18985.00
1041.803, 19074.00
1042.907, 19032.00
1044.011, 18861.00
1045.115, 18883.00
1046.219, 18903.00
1047.323, 19021.00
1048.426, 18804.00
1049.529, 18739.00
1050.632, 18795.00
1051.735, 18725.00
1052.838, 18712.00
1053.941, 18817.00
1055.043, 18784.00
1056.146, 18679.00
1057.248, 18772.00
1058.350, 18913.00
1059.452, 18682.00
1060.554, 18771.00
1061.655, 18879.00
1062.757, 18650.00
1063.858, 18737.00
1064.959, 18591.00
1066.060, 18655.00
1067.161, 18843.00
1068.261, 18654.00
1069.362, 18640.00
1070.462, 18403.00
1071.562, 18615.00
1072.662, 18457.00
1073.762, 18530.00
1074.862, 18470.00
1075.961, 18356.00
1077.061, 18538.00
1078.160, 18474.00
1079.259, 18440.00
1080.358, 18326.00
1081.456, 18448.00
1082.555, 18405.00
1083.653, 18393.00
1084.751, 18322.00
1085.850, 18367.00
1086.947, 18485.00
1088.045, 18278.00
1089.143, 18314.00
1090.240, 18217.00
1091.338, 18394.00
1092.435, 18427.00
1093.532, 18358.00
1094.628, 18289.00
1095.725, 18133.00
1096.822, 18167.00
1097.918, 18331.00
1099.014, 18210.00
1100.110, 18442.00
1101.206, 18216.00
1102.302, 18171.00
1103.397, 18114.00
1104.493, 18061.00
1105.588, 18226.00
1106.683, 18145.00
1107.778, 18187.00
1108.873, 18203.00
1109.967, 18085.00
1111.062, 18155.00
1112.156, 18078.00
1113.250, 18238.00
1114.344, 18052.00
1115.438, 18085.00
1116.531, 18090.00
1117.625, 18026.00
1118.718, 18165.00
1119.811, 18150.00
1120.904, 18146.00
1121.997, 17906.00
1123.090, 18147.00
1124.183, 17891.00
1125.275, 18048.00
1126.367, 18035.00
1127.459, 17912.00
1128.551, 17850.00
1129.643, 17844.11
1130.735, 18011.00
1131.826, 17804.00
1132.917, 17857.00
1134.008, 17778.00
1135.099, 17739.00
1136.190, 17814.00
1137.281, 17709.00
1138.371, 17800.00
1139.462, 17784.00
1140.552, 17858.00
1141.642, 17839.00
1142.732, 17789.00
1143.821, 17666.00
1144.911, 17561.00
1146.000, 17698.00
1147.090, 17956.00
1148.179, 17797.00
1149.268, 17833.00
1150.356, 17619.00
1151.445, 17522.00
1152.533, 17672.00
1153.622, 17651.00
1154.710, 17765.00
1155.798, 17623.00
1156.886, 17646.00
1157.973, 17596.00
1159.061, 17653.00
1160.148, 17597.90
1161.235, 17699.00
1162.322, 17583.00
1163.409, 17495.00
1164.496, 17625.00
1165.583, 17573.00
1166.669, 17582.00
1167.755, 17587.00
1168.841, 17639.00
1169.927, 17646.00
1171.013, 17426.00
1172.099, 17526.00
1173.184, 17363.35
1174.269, 17547.58
1175.355, 17652.18
1176.440, 17681.41
1177.524, 17409.58
1178.609, 17526.52
1179.694, 17487.65
1180.778, 17442.40
1181.862, 17614.04
1182.946, 17386.00
1184.030, 17554.21
1185.114, 17564.24
1186.197, 17646.67
1187.281, 17572.33
1188.364, 17546.41
1189.447, 17677.30
1190.530, 17721.37
1191.613, 17628.99
1192.696, 17716.01
1193.778, 17482.49
1194.860, 17530.25
1195.943, 17699.38
1197.025, 17614.87
1198.107, 17704.76
1199.188, 17728.23
1200.270, 17449.86
1201.351, 17696.42
1202.432, 17715.96
1203.514, 17502.42
1204.594, 17730.99
1205.675, 17549.57
1206.756, 17514.49
1207.836, 17589.55
1208.917, 17549.80
1209.997, 17691.05
1211.077, 17657.93
1212.157, 17609.22
1213.236, 17628.51
1214.316, 17584.00
1215.395, 17693.00
1216.474, 17509.00
1217.553, 17648.00
1218.632, 17686.00
1219.711, 17448.00
1220.790, 17609.00
1221.868, 17531.00
1222.946, 17655.00
1224.024, 17546.00
1225.102, 17505.00
1226.180, 17546.00
1227.258, 17608.00
1228.335, 17464.00
1229.413, 17611.00
1230.490, 17588.00
1231.567, 17631.00
1232.644, 17597.00
1233.720, 17582.67
1234.797, 17519.00
1235.873, 17513.00
1236.950, 17542.00
1238.026, 17483.00
1239.102, 17594.00
1240.177, 17428.00
1241.253, 17639.00
1242.328, 17438.00
1243.404, 17485.00
1244.479, 17655.00
1245.554, 17415.00
1246.629, 17544.00
1247.703, 17513.00
1248.778, 17523.00
1249.852, 17533.00
1250.926, 17368.00
1252.001, 17395.00
1253.074, 17298.00
1254.148, 17413.00
1255.222, 17552.00
1256.295, 17287.00
1257.369, 17389.00
1258.442, 17294.00
1259.515, 17493.00
1260.587, 17421.00
1261.660, 17435.00
1262.733, 17422.00
1263.805, 17359.00
1264.877, 17315.00
1265.949, 17428.00
1267.021, 17288.00
1268.093, 17477.00
1269.164, 17398.00
1270.236, 17398.00
1271.307, 17277.00
1272.378, 17274.00
1273.449, 17345.00
1274.520, 17310.00
1275.591, 17372.00
1276.661, 17256.00
1277.731, 17306.00
1278.802, 17256.00
1279.872, 17170.00
1280.941, 17174.00
1282.011, 17140.00
1283.081, 17212.00
1284.150, 17136.00
1285.219, 17223.00
1286.288, 17226.00
1287.357, 17174.00
1288.426, 17225.00
1289.495, 17250.00
1290.563, 17201.00
1291.632, 17239.62
1292.700, 17283.00
1293.768, 17163.00
1294.836, 17212.00
1295.903, 16995.00
1296.971, 17165.00
1298.038, 16992.00
1299.106, 17286.00
1300.173, 17141.00
1301.240, 17014.00
1302.306, 17134.00
1303.373, 17120.00
1304.439, 17123.00
1305.506, 17065.00
1306.572, 17105.00
1307.638, 17151.00
1308.704, 17098.00
1309.769, 17206.00
1310.835, 16944.00
1311.900, 17129.00
1312.965, 17020.00
1314.031, 16962.00
1315.095, 17153.00
1316.160, 17003.00
1317.225, 17174.00
1318.289, 17088.00
1319.354, 17125.00
1320.418, 17097.00
1321.482, 17068.00
1322.546, 17122.00
1323.609, 17039.00
1324.673, 17000.00
1325.736, 17068.00
1326.799, 16990.00
1327.862, 17162.00
1328.925, 16999.00
1329.988, 17109.00
1331.051, 16916.00
1332.113, 16855.00
1333.175, 17048.00
1334.238, 16882.00
1335.300, 17060.00
1336.361, 16866.00
1337.423, 16869.00
1338.485, 17184.00
1339.546, 17311.00
1340.607, 17019.00
1341.668, 17085.00
1342.729, 17077.00
1343.790, 17097.00
1344.850, 16984.00
1345.911, 17007.00
1346.971, 17078.00
1348.031, 16948.00
1349.091, 17051.00
1350.151, 16815.00
1351.211, 16750.00
1352.270, 16988.00
1353.330, 16910.00
1354.389, 16997.00
1355.448, 16856.00
1356.507, 17063.00
1357.566, 17000.00
1358.624, 16907.00
1359.683, 17041.00
1360.741, 16993.00
1361.799, 17127.00
1362.857, 16976.00
1363.915, 17028.00
1364.973, 16964.00
1366.030, 17099.00
1367.087, 17100.00
1368.145, 16998.00
1369.202, 16975.00
1370.259, 17001.61
1371.315, 16855.00
1372.372, 17069.00
1373.428, 17034.00
1374.485, 17044.00
1375.541, 17027.00
1376.597, 17002.71
1377.653, 17063.00
1378.708, 16999.00
1379.764, 16865.00
1380.819, 16947.00
1381.874, 16863.00
1382.930, 17002.00
1383.984, 17022.00
1385.039, 17023.00
1386.094, 16980.29
1387.148, 16982.07
1388.203, 17001.11
1389.257, 16955.00
1390.311, 17055.00
1391.365, 17082.00
1392.418, 17101.08
1393.472, 16978.00
1394.525, 17076.00
1395.578, 16963.00
1396.631, 16968.00
1397.684, 17029.00
1398.737, 17102.00
1399.790, 16970.00
1400.842, 16828.00
1401.895, 16968.00
1402.947, 17101.00
1403.999, 16908.00
1405.051, 16849.00
1406.102, 16904.00
1407.154, 17065.00
1408.205, 16897.00
1409.256, 17000.00
1410.308, 16965.00
1411.358, 16977.00
1412.409, 16994.00
1413.460, 17062.00
1414.510, 17002.00
1415.561, 17068.00
1416.611, 17014.00
1417.661, 16749.00
1418.711, 16985.00
1419.760, 16903.00
1420.810, 17038.00
1421.859, 17054.00
1422.909, 17064.00
1423.958, 17131.00
1425.007, 17012.00
1426.055, 17091.00
1427.104, 16899.00
1428.153, 17247.00
1429.201, 16991.23
1430.249, 17057.59
1431.297, 16764.00
1432.345, 17015.00
1433.393, 17110.00
1434.440, 17061.00
1435.488, 17029.00
1436.535, 16795.00
1437.582, 16916.00
1438.629, 16769.15
1439.676, 16956.35
1440.723, 17063.90
1441.769, 17096.09
1442.815, 16827.21
1443.862, 16947.11
1444.908, 16911.20
1445.954, 16868.90
1446.999, 17043.50
1448.045, 16818.41
1449.090, 16989.57
1450.136, 17002.56
1451.181, 17087.94
1452.226, 17016.56
1453.271, 16993.59
1454.315, 17127.43
1455.360, 17174.45
1456.404, 17085.02
1457.448, 17174.99
1458.492, 16944.42
1459.536, 16995.13
1460.580, 17167.20
1461.624, 17085.65
1462.667, 17178.48
1463.711, 17204.91
1464.754, 16929.48
1465.797, 17178.99
1466.840, 17201.48
1467.882, 16990.87
1468.925, 17222.39
1469.967, 17043.92
1471.010, 17011.79
1472.052, 17089.79
1473.094, 17052.98
1474.135, 17197.17
1475.177, 17166.99
1476.218, 17121.23
1477.260, 17143.46
1478.301, 17102.98
1479.342, 17160.01
1480.383, 17102.85
1481.424, 17167.05
1482.464, 17258.76
1483.505, 17139.83
1484.545, 17096.27
1485.585, 17286.99
1486.625, 17398.08
1487.665, 17433.80
1488.705, 17168.46
1489.744, 17291.88
1490.783, 17259.49
1491.823, 17220.73
1492.862, 17398.86
1493.901, 17177.30
1494.939, 17351.98
1495.978, 17368.50
1497.016, 17457.40
1498.055, 17389.55
1499.093, 17370.11
1500.131, 17507.47
1501.169, 17558.01
1502.206, 17472.10
1503.244, 17565.60
1504.281, 17338.55
1505.319, 17392.79
1506.356, 17568.38
1507.393, 17490.35
1508.430, 17586.71
1509.466, 17616.64
1510.503, 17344.74
1511.539, 17597.76
1512.575, 17623.77
1513.611, 17416.68
1514.647, 17651.72
1515.683, 17476.77
1516.718, 17448.14
1517.754, 17529.67
1518.789, 17496.37
1519.824, 17644.08
1520.859, 17617.41
1521.894, 17575.17
1522.929, 17600.91
1523.963, 17563.95
1524.998, 17624.49
1526.032, 17570.84
1527.066, 17638.55
1528.100, 17733.77
1529.134, 17618.36
1530.167, 17725.93
1531.201, 17487.69
1532.234, 17538.81
1533.267, 17558.76
1534.300, 17763.67
1535.333, 17527.11
1536.366, 17570.18
1537.398, 17732.31
1538.431, 17727.85
1539.463, 17793.04
1540.495, 17652.02
1541.527, 17704.71
1542.559, 17704.01
1543.591, 17887.83
1544.622, 17925.97
1545.654, 17788.45
1546.685, 17651.66
1547.716, 17848.74
1548.747, 17729.38
1549.778, 17780.73
1550.808, 17655.77
1551.839, 17683.04
1552.869, 17707.90
1553.899, 17810.79
1554.929, 17803.66
1555.959, 17850.26
1556.989, 17846.06
1558.018, 17894.11
1559.048, 17936.35
1560.077, 17966.18
1561.106, 17939.18
1562.135, 18018.43
1563.164, 17871.13
1564.192, 17809.79
1565.221, 17809.55
1566.249, 18097.69
1567.277, 18117.78
1568.306, 17817.48
1569.333, 18092.91
1570.361, 18014.13
1571.389, 18019.00
1572.416, 17955.00
1573.444, 18023.00
1574.471, 17869.00
1575.498, 17941.00
1576.525, 18017.00
1577.551, 18052.00
1578.578, 17923.00
1579.604, 17991.00
1580.630, 18050.00
##END=



