##NAMES=Rutile
##RRUFFID=R040049
##IDEAL CHEMISTRY=Ti^4+^O_2_
##LOCALITY=Graves Mountain, Lincoln County, Georgia, USA
##OWNER=RRUFF
##SOURCE=University of Arizona Mineral Museum
##DESCRIPTION=Reddish-black fragments
##STATUS=The identification of this mineral has been confirmed by X-ray diffraction and chemical analysis
##URL=rruff.info/R040049
##MEASURED CHEMISTRY=(Ti_1.00_Fe_0.01_)O_2_
##PIN_ID=L01614
##ORIENTATION=Laser parallel to -a* (-1 0 0). Fiducial mark perpendicular to laser is parallel to c [0 0 1]
64.13000, 7436.000
65.37400, 8075.000
66.61700, 9027.000
67.86000, 9764.000
69.10300, 11023.00
70.34600, 12156.00
71.58900, 13961.00
72.83100, 16124.00
74.07400, 17923.00
75.31600, 19919.00
76.55800, 22566.00
77.80000, 24582.00
79.04100, 26292.00
80.28300, 28178.00
81.52400, 29695.00
82.76500, 31936.00
84.00600, 34032.00
85.24700, 35677.00
86.48700, 37059.00
87.72700, 37942.00
88.96800, 39259.00
90.20800, 40975.00
91.44800, 42974.00
92.68700, 44490.00
93.92700, 45670.00
95.16600, 46864.00
96.40500, 47832.00
97.64400, 48660.00
98.88300, 49510.00
100.1210, 50601.00
101.3600, 51142.00
102.5980, 51465.00
103.8360, 51883.00
105.0740, 53180.00
106.3120, 54381.00
107.5490, 55243.00
108.7870, 55788.00
110.0240, 55668.00
111.2610, 55743.00
112.4980, 55480.74
113.7340, 56754.02
114.9710, 57640.79
116.2070, 58161.20
117.4430, 57219.25
118.6790, 58165.64
119.9150, 58355.27
121.1510, 58513.87
122.3860, 59725.71
123.6210, 58996.15
124.8560, 60191.30
126.0910, 59849.00
127.3260, 59760.00
128.5600, 59990.00
129.7950, 60454.00
131.0290, 60406.00
132.2630, 60595.00
133.4970, 60606.00
134.7300, 60961.00
135.9640, 61161.00
137.1970, 61671.00
138.4300, 61630.00
139.6630, 62527.00
140.8960, 63166.00
142.1290, 64023.00
143.3610, 65001.00
144.5930, 64695.00
145.8250, 64093.00
147.0570, 62412.00
148.2890, 61348.00
149.5210, 60399.00
150.7520, 59170.00
151.9830, 58427.00
153.2140, 57701.00
154.4450, 57184.00
155.6760, 56715.00
156.9060, 56385.00
158.1370, 55534.00
159.3670, 55063.00
160.5970, 54748.00
161.8270, 54219.00
163.0560, 54057.00
164.2860, 53763.00
165.5150, 53370.08
166.7440, 53168.46
167.9730, 52765.00
169.2020, 52797.00
170.4300, 52724.00
171.6590, 52918.00
172.8870, 52843.44
174.1150, 52786.00
175.3430, 52890.00
176.5700, 52917.00
177.7980, 53090.00
179.0250, 53615.00
180.2520, 53673.63
181.4790, 54403.00
182.7060, 54178.00
183.9330, 54487.00
185.1590, 54871.00
186.3860, 55009.00
187.6120, 55468.00
188.8380, 56017.00
190.0630, 56377.00
191.2890, 56710.00
192.5150, 57178.00
193.7400, 57996.00
194.9650, 58526.00
196.1900, 58899.00
197.4140, 59646.00
198.6390, 60076.00
199.8630, 60826.00
201.0880, 61278.00
202.3120, 61821.00
203.5350, 62409.11
204.7590, 62938.48
205.9830, 63485.00
207.2060, 64150.00
208.4290, 64691.00
209.6520, 65427.00
210.8750, 66029.00
212.0970, 66854.00
213.3200, 67413.48
214.5420, 67870.00
215.7640, 68573.00
216.9860, 69125.00
218.2080, 69649.00
219.4300, 70236.00
220.6510, 70935.00
221.8720, 71576.00
223.0930, 72200.00
224.3140, 72745.00
225.5350, 73362.00
226.7550, 73781.00
227.9760, 74168.00
229.1960, 74951.00
230.4160, 74734.00
231.6360, 75651.00
232.8550, 75534.00
234.0750, 76032.00
235.2940, 76157.00
236.5130, 76663.00
237.7320, 77104.00
238.9510, 77349.00
240.1700, 77690.00
241.3880, 77607.56
242.6070, 77274.00
243.8250, 77190.00
245.0430, 77035.00
246.2600, 76590.00
247.4780, 76644.00
248.6950, 76183.00
249.9120, 75761.00
251.1300, 75496.78
252.3460, 74982.00
253.5630, 74628.00
254.7800, 74298.00
255.9960, 73707.00
257.2120, 73302.00
258.4280, 72465.22
259.6440, 72329.21
260.8600, 72082.70
262.0750, 71731.91
263.2910, 70962.99
264.5060, 70733.91
265.7210, 70288.61
266.9360, 69834.45
268.1500, 69681.63
269.3650, 68973.80
270.5790, 68816.20
271.7930, 68439.09
273.0070, 68162.45
274.2210, 67668.24
275.4340, 67241.56
276.6480, 67032.18
277.8610, 66702.62
279.0740, 66183.70
280.2870, 65470.00
281.5000, 64890.00
282.7120, 64723.00
283.9250, 64388.00
285.1370, 63919.00
286.3490, 63207.00
287.5610, 62578.00
288.7720, 62232.00
289.9840, 61560.84
291.1950, 61111.00
292.4060, 60586.00
293.6170, 60217.00
294.8280, 59987.00
296.0390, 59479.00
297.2490, 59037.00
298.4600, 58987.00
299.6700, 58852.00
300.8800, 58431.00
302.0890, 58290.00
303.2990, 58053.00
304.5080, 58171.00
305.7180, 58260.00
306.9270, 57822.00
308.1360, 57951.00
309.3450, 57902.00
310.5530, 58238.00
311.7620, 58179.00
312.9700, 58170.00
314.1780, 58356.00
315.3860, 58463.00
316.5930, 58398.00
317.8010, 58578.20
319.0080, 58600.20
320.2150, 58745.00
321.4230, 58804.00
322.6290, 58815.00
323.8360, 59064.00
325.0430, 58592.00
326.2490, 58967.00
327.4550, 58840.00
328.6610, 58996.00
329.8670, 58810.00
331.0730, 59186.00
332.2780, 58725.00
333.4830, 58558.00
334.6880, 58777.00
335.8930, 58922.00
337.0980, 58995.00
338.3030, 58937.00
339.5070, 58752.00
340.7110, 58702.00
341.9160, 58738.00
343.1200, 58843.56
344.3230, 59015.00
345.5270, 59160.00
346.7300, 59335.00
347.9340, 59468.56
349.1370, 59532.00
350.3390, 59685.00
351.5420, 59796.00
352.7450, 59790.00
353.9470, 60044.00
355.1490, 60343.00
356.3510, 59950.00
357.5530, 60521.00
358.7550, 60085.00
359.9560, 60507.00
361.1580, 60247.00
362.3590, 60044.00
363.5600, 60473.00
364.7610, 60468.00
365.9610, 60599.00
367.1620, 60485.00
368.3620, 60362.00
369.5620, 60324.00
370.7620, 60586.00
371.9620, 60802.00
373.1620, 60736.00
374.3610, 60679.00
375.5610, 60699.00
376.7600, 60672.00
377.9590, 60667.36
379.1570, 60696.38
380.3560, 60781.00
381.5550, 60878.00
382.7530, 61184.00
383.9510, 61564.00
385.1490, 61151.00
386.3470, 61578.00
387.5440, 61905.00
388.7420, 61281.00
389.9390, 62169.00
391.1360, 62249.00
392.3330, 62778.00
393.5290, 62918.00
394.7260, 63562.00
395.9220, 63746.00
397.1190, 64051.00
398.3150, 64552.00
399.5110, 64907.00
400.7060, 65226.00
401.9020, 65684.00
403.0970, 66184.00
404.2920, 66771.00
405.4870, 67108.00
406.6820, 68313.00
407.8770, 68592.00
409.0710, 69619.00
410.2660, 70260.00
411.4600, 70829.00
412.6540, 72288.00
413.8480, 73309.00
415.0410, 74037.00
416.2350, 75008.00
417.4280, 76107.00
418.6210, 77340.00
419.8140, 78258.00
421.0070, 79607.00
422.2000, 80865.00
423.3920, 82709.00
424.5840, 83716.00
425.7770, 85486.00
426.9690, 86633.00
428.1600, 88217.00
429.3520, 90148.00
430.5430, 90869.00
431.7350, 93014.00
432.9260, 94726.00
434.1170, 96149.00
435.3070, 97185.00
436.4980, 98785.00
437.6880, 100210.0
438.8790, 101584.0
440.0690, 102881.6
441.2590, 103951.5
442.4480, 104910.2
443.6380, 105764.9
444.8270, 106201.2
446.0170, 107177.7
447.2060, 106951.2
448.3950, 107069.2
449.5830, 106765.2
450.7720, 106044.4
451.9600, 104594.8
453.1480, 103373.2
454.3360, 101623.9
455.5240, 99554.24
456.7120, 97675.00
457.9000, 95483.00
459.0870, 93403.00
460.2740, 91068.02
461.4610, 88820.00
462.6480, 86374.00
463.8350, 83963.00
465.0210, 81669.94
466.2070, 79521.74
467.3940, 77513.00
468.5800, 75546.00
469.7660, 73839.00
470.9510, 72188.00
472.1370, 70261.00
473.3220, 69462.00
474.5070, 67870.00
475.6920, 66596.00
476.8770, 65806.00
478.0620, 64341.00
479.2460, 63566.00
480.4300, 62331.00
481.6150, 61719.00
482.7980, 61146.00
483.9820, 60579.00
485.1660, 59596.00
486.3490, 59189.00
487.5330, 58468.00
488.7160, 58432.00
489.8990, 58006.00
491.0820, 57765.00
492.2640, 57185.00
493.4470, 56905.00
494.6290, 56760.00
495.8110, 56543.00
496.9930, 56315.00
498.1750, 56236.00
499.3560, 56214.00
500.5380, 55983.00
501.7190, 56142.27
502.9000, 56237.00
504.0810, 56457.55
505.2620, 56248.00
506.4420, 56522.00
507.6230, 56279.00
508.8030, 56502.00
509.9830, 56443.00
511.1630, 56399.00
512.3430, 56876.00
513.5220, 56892.00
514.7020, 57047.00
515.8810, 56818.00
517.0600, 57315.00
518.2390, 57584.00
519.4180, 57345.00
520.5960, 58118.00
521.7750, 57810.00
522.9530, 57872.00
524.1310, 58418.00
525.3090, 58282.00
526.4870, 58689.00
527.6640, 58554.00
528.8420, 58168.00
530.0190, 58979.00
531.1960, 59031.00
532.3730, 58888.00
533.5490, 58868.00
534.7260, 58973.75
535.9020, 59084.00
537.0790, 59256.00
538.2550, 59432.00
539.4310, 59678.00
540.6060, 59980.00
541.7820, 59872.00
542.9570, 60154.00
544.1320, 60740.00
545.3070, 60682.00
546.4820, 61044.00
547.6570, 61447.00
548.8310, 61774.00
550.0060, 61875.00
551.1800, 62397.00
552.3540, 63273.00
553.5280, 63737.00
554.7020, 63870.00
555.8750, 65008.00
557.0480, 65136.00
558.2220, 65788.00
559.3950, 66708.00
560.5680, 67566.00
561.7400, 68326.44
562.9130, 69207.00
564.0850, 69924.00
565.2570, 70991.00
566.4290, 71778.00
567.6010, 72790.00
568.7730, 73921.00
569.9440, 75173.00
571.1160, 76233.00
572.2870, 77863.00
573.4580, 79362.00
574.6290, 80282.00
575.7990, 82281.00
576.9700, 83189.00
578.1400, 85218.00
579.3100, 86964.00
580.4800, 88869.00
581.6500, 90897.00
582.8200, 92654.00
583.9890, 94688.00
585.1590, 96917.00
586.3280, 99134.00
587.4970, 101327.1
588.6660, 103968.0
589.8340, 106176.0
591.0030, 108827.0
592.1710, 112036.0
593.3390, 114819.0
594.5070, 117995.0
595.6750, 120797.0
596.8430, 124414.0
598.0100, 127732.0
599.1780, 131230.0
600.3450, 134399.0
601.5120, 138168.0
602.6790, 141295.0
603.8450, 144382.0
605.0120, 147573.0
606.1780, 149941.0
607.3440, 152088.0
608.5100, 154508.0
609.6760, 156003.0
610.8420, 156651.0
612.0070, 157059.0
613.1730, 156537.9
614.3380, 155751.8
615.5030, 153888.0
616.6680, 152463.0
617.8320, 149886.0
618.9970, 146925.0
620.1610, 143662.0
621.3250, 140578.0
622.4890, 136157.0
623.6530, 132371.0
624.8170, 127858.0
625.9800, 124324.0
627.1440, 120081.0
628.3070, 116190.0
629.4700, 112595.0
630.6330, 109013.0
631.7950, 105388.0
632.9580, 102819.0
634.1200, 98745.00
635.2820, 96120.00
636.4440, 92269.00
637.6060, 89717.00
638.7680, 87581.00
639.9290, 85200.00
641.0900, 82968.00
642.2520, 80952.00
643.4130, 78687.00
644.5730, 77065.00
645.7340, 75390.00
646.8950, 73960.00
648.0550, 72103.00
649.2150, 71604.00
650.3750, 70178.00
651.5350, 69544.00
652.6950, 67707.00
653.8540, 66968.00
655.0140, 66137.00
656.1730, 65353.00
657.3320, 64403.00
658.4910, 63585.00
659.6490, 63063.00
660.8080, 62642.00
661.9660, 62294.00
663.1240, 61632.00
664.2820, 61449.00
665.4400, 60820.00
666.5980, 60389.00
667.7550, 59936.00
668.9130, 59521.00
670.0700, 59772.00
671.2270, 59376.00
672.3840, 59174.00
673.5400, 58825.00
674.6970, 58747.00
675.8530, 58668.00
677.0090, 58470.00
678.1650, 58436.18
679.3210, 58241.00
680.4770, 58215.00
681.6330, 58107.00
682.7880, 57830.00
683.9430, 57832.00
685.0980, 57723.00
686.2530, 57868.00
687.4080, 57623.00
688.5620, 57460.00
689.7170, 57220.00
690.8710, 57278.00
692.0250, 57187.00
693.1790, 57166.00
694.3320, 56495.00
695.4860, 56595.00
696.6390, 56249.00
697.7930, 56124.00
698.9460, 56354.00
700.0980, 56019.00
701.2510, 55913.00
702.4040, 55263.00
703.5560, 55305.00
704.7080, 55176.00
705.8600, 54585.00
707.0120, 54620.00
708.1640, 54262.00
709.3160, 54261.00
710.4670, 53873.00
711.6180, 53754.00
712.7690, 53475.00
713.9200, 53053.00
715.0710, 53065.00
716.2220, 52794.00
717.3720, 52376.00
718.5220, 51850.00
719.6720, 51742.05
720.8220, 51577.00
721.9720, 51410.00
723.1220, 51228.00
724.2710, 51024.00
725.4200, 50885.00
726.5690, 50679.00
727.7180, 50377.00
728.8670, 50309.00
730.0160, 49969.00
731.1640, 49660.00
732.3120, 49596.00
733.4600, 49227.00
734.6080, 48850.00
735.7560, 49187.00
736.9040, 49071.00
738.0510, 48524.00
739.1980, 48644.00
740.3460, 48183.00
741.4930, 48241.00
742.6390, 48193.00
743.7860, 47872.00
744.9320, 47803.00
746.0790, 47722.00
747.2250, 47703.00
748.3710, 47532.00
749.5170, 47494.00
750.6620, 47513.00
751.8080, 47429.00
752.9530, 47739.00
754.0980, 47346.00
755.2430, 47770.00
756.3880, 47665.00
757.5330, 47329.00
758.6770, 47472.00
759.8220, 47879.00
760.9660, 47922.00
762.1100, 47894.00
763.2540, 47994.00
764.3970, 48146.00
765.5410, 48202.00
766.6840, 48178.00
767.8270, 48544.00
768.9700, 48541.00
770.1130, 48906.00
771.2560, 48944.00
772.3980, 49219.00
773.5410, 49487.00
774.6830, 49812.58
775.8250, 50117.32
776.9670, 50549.00
778.1080, 50625.00
779.2500, 50793.00
780.3910, 50714.00
781.5330, 51429.00
782.6740, 51775.00
783.8150, 51861.00
784.9550, 52306.47
786.0960, 52501.58
787.2360, 52958.00
788.3770, 53220.30
789.5170, 53626.00
790.6570, 53750.00
791.7960, 54027.00
792.9360, 54209.00
794.0750, 54501.00
795.2150, 54620.00
796.3540, 54610.00
797.4930, 54843.00
798.6310, 55122.00
799.7700, 55050.00
800.9080, 55001.00
802.0470, 54751.00
803.1850, 54498.00
804.3230, 54248.00
805.4610, 54109.00
806.5980, 53841.00
807.7360, 53369.00
808.8730, 52943.00
810.0100, 52517.36
811.1470, 52186.00
812.2840, 51631.00
813.4200, 51009.00
814.5570, 50671.00
815.6930, 49969.81
816.8290, 49683.00
817.9650, 48643.00
819.1010, 48159.00
820.2370, 47358.00
821.3720, 46945.00
822.5080, 46028.00
823.6430, 45425.00
824.7780, 44938.00
825.9130, 44077.00
827.0480, 43706.00
828.1820, 43033.87
829.3160, 42343.00
830.4510, 41794.00
831.5850, 41090.00
832.7190, 40339.00
833.8520, 39604.00
834.9860, 39088.06
836.1190, 38324.00
837.2520, 38155.00
838.3860, 37454.00
839.5180, 37096.00
840.6510, 36189.00
841.7840, 35859.00
842.9160, 35319.00
844.0480, 35163.00
845.1810, 34496.00
846.3120, 33918.00
847.4440, 33552.00
848.5760, 33162.00
849.7070, 32514.00
850.8390, 32350.00
851.9700, 31828.00
853.1010, 31535.00
854.2310, 31351.00
855.3620, 31044.00
856.4930, 30773.00
857.6230, 30437.00
858.7530, 30013.00
859.8830, 29813.04
861.0130, 29455.66
862.1430, 29396.00
863.2720, 28954.00
864.4010, 28850.00
865.5310, 28806.00
866.6600, 28281.00
867.7880, 28133.00
868.9170, 28052.00
870.0460, 27759.00
871.1740, 27668.06
872.3020, 27452.62
873.4300, 27388.00
874.5580, 27034.00
875.6860, 26912.00
876.8130, 26676.00
877.9410, 26498.50
879.0680, 26450.00
880.1950, 26211.00
881.3220, 26099.00
882.4490, 25982.49
883.5750, 25837.47
884.7020, 25922.00
885.8280, 25667.00
886.9540, 25624.00
888.0800, 25644.00
889.2060, 25386.00
890.3320, 25484.00
891.4570, 25012.37
892.5820, 25210.83
893.7070, 25298.76
894.8320, 25282.11
895.9570, 24847.64
897.0820, 24952.70
898.2060, 24841.59
899.3310, 24721.57
900.4550, 24902.61
901.5790, 24528.96
902.7030, 24705.23
903.8260, 24662.03
904.9500, 24719.25
906.0730, 24558.96
907.1960, 24465.87
908.3200, 24590.36
909.4420, 24594.44
910.5650, 24409.11
911.6880, 24472.76
912.8100, 24091.61
913.9320, 24100.82
915.0540, 24278.46
916.1760, 24104.12
917.2980, 24171.80
918.4200, 24147.30
919.5410, 23703.95
920.6620, 23989.11
921.7830, 23959.22
922.9040, 23605.83
924.0250, 23866.03
925.1460, 23423.00
926.2660, 23468.00
927.3870, 23395.00
928.5070, 23300.00
929.6270, 23437.00
930.7470, 23315.00
931.8660, 23233.00
932.9860, 23244.00
934.1050, 23311.00
935.2240, 23308.00
936.3430, 23240.00
937.4620, 23218.00
938.5810, 22957.00
939.6990, 23024.00
940.8180, 22988.04
941.9360, 23120.00
943.0540, 23063.00
944.1720, 22833.00
945.2900, 22862.00
946.4070, 22859.00
947.5250, 22621.00
948.6420, 22866.00
949.7590, 22734.00
950.8760, 22740.00
951.9930, 22649.00
953.1090, 22736.00
954.2260, 22526.00
955.3420, 22592.00
956.4580, 22526.00
957.5740, 22542.88
958.6900, 22479.13
959.8060, 22587.00
960.9210, 22380.00
962.0360, 22244.00
963.1520, 22306.00
964.2670, 22475.00
965.3810, 22326.02
966.4960, 22326.75
967.6110, 22171.00
968.7250, 22176.00
969.8390, 22073.00
970.9530, 22114.00
972.0670, 21941.00
973.1810, 21947.45
974.2940, 22033.00
975.4080, 21903.00
976.5210, 21942.00
977.6340, 21955.00
978.7470, 21865.57
979.8600, 21765.00
980.9730, 21801.00
982.0850, 21766.00
983.1970, 21850.00
984.3090, 21820.92
985.4210, 21828.00
986.5330, 21821.00
987.6450, 21668.00
988.7560, 21690.00
989.8680, 21693.00
990.9790, 21493.00
992.0900, 21527.00
993.2010, 21415.00
994.3110, 21432.00
995.4220, 21569.00
996.5320, 21377.00
997.6430, 21290.00
998.7530, 21343.00
999.8630, 21401.00
1000.972, 21427.00
1002.082, 21260.00
1003.191, 21349.00
1004.301, 21204.00
1005.410, 21165.00
1006.519, 21183.00
1007.627, 21115.00
1008.736, 21149.00
1009.844, 21278.00
1010.953, 21052.00
1012.061, 21001.00
1013.169, 21093.00
1014.277, 21016.00
1015.384, 21039.00
1016.492, 20939.00
1017.599, 21093.00
1018.706, 20989.00
1019.813, 20944.00
1020.920, 20806.00
1022.027, 20680.00
1023.134, 20696.00
1024.240, 20680.88
1025.346, 20792.00
1026.452, 20858.00
1027.558, 20768.00
1028.664, 20986.00
1029.770, 20867.00
1030.875, 20816.00
1031.980, 20803.00
1033.086, 20700.00
1034.190, 20694.76
1035.295, 20631.66
1036.400, 20644.00
1037.504, 20601.00
1038.609, 20572.00
1039.713, 20715.00
1040.817, 20623.00
1041.921, 20815.00
1043.025, 20398.00
1044.128, 20592.00
1045.231, 20673.00
1046.335, 20482.00
1047.438, 20520.00
1048.541, 20475.00
1049.643, 20569.00
1050.746, 20495.00
1051.848, 20707.00
1052.951, 20592.41
1054.053, 20475.00
1055.155, 20507.00
1056.257, 20370.00
1057.358, 20438.00
1058.460, 20321.00
1059.561, 20317.00
1060.662, 20437.00
1061.763, 20339.00
1062.864, 20349.00
1063.965, 20448.00
1065.065, 20357.46
1066.166, 20274.00
1067.266, 20239.00
1068.366, 20227.00
1069.466, 20063.00
1070.566, 20235.00
1071.665, 20283.00
1072.765, 20237.00
1073.864, 20188.00
1074.963, 20161.84
1076.062, 20076.14
1077.161, 20047.00
1078.259, 20016.00
1079.358, 19955.00
1080.456, 20153.00
1081.554, 19845.00
1082.652, 19971.00
1083.750, 20014.00
1084.848, 19890.00
1085.945, 19853.00
1087.043, 19990.00
1088.140, 19898.00
1089.237, 20080.00
1090.334, 20019.00
1091.431, 19823.00
1092.527, 19769.00
1093.624, 19726.83
1094.720, 19742.00
1095.816, 19690.00
1096.912, 19775.00
1098.008, 19751.00
1099.104, 19847.00
1100.199, 19830.00
1101.294, 19774.00
1102.390, 19673.00
1103.485, 19743.00
1104.579, 19763.00
1105.674, 19694.00
1106.769, 19535.00
1107.863, 19636.31
1108.957, 19611.50
1110.051, 19762.00
1111.145, 19651.00
1112.239, 19712.00
1113.333, 19566.00
1114.426, 19661.00
1115.519, 19575.00
1116.612, 19568.00
1117.705, 19498.00
1118.798, 19498.71
1119.891, 19609.00
1120.983, 19518.00
1122.076, 19526.00
1123.168, 19557.00
1124.260, 19445.00
1125.352, 19511.00
1126.443, 19621.00
1127.535, 19524.00
1128.626, 19333.00
1129.718, 19534.00
1130.809, 19507.00
1131.900, 19392.00
1132.990, 19558.00
1134.081, 19382.00
1135.171, 19435.00
1136.262, 19585.00
1137.352, 19417.00
1138.442, 19459.00
1139.532, 19436.00
1140.621, 19442.00
1141.711, 19405.00
1142.800, 19364.00
1143.890, 19391.87
1144.979, 19271.00
1146.067, 19395.00
1147.156, 19422.00
1148.245, 19344.00
1149.333, 19469.00
1150.421, 19266.00
1151.510, 19425.00
1152.597, 19433.00
1153.685, 19441.00
1154.773, 19586.00
1155.860, 19581.00
1156.948, 19587.85
1158.035, 19292.00
1159.122, 19490.00
1160.209, 19372.00
1161.295, 19193.00
1162.382, 19223.00
1163.468, 19239.00
1164.555, 19326.00
1165.641, 19298.00
1166.727, 19261.00
1167.812, 19419.00
1168.898, 19185.00
1169.983, 19077.00
1171.069, 19242.00
1172.154, 19195.00
1173.239, 19441.00
1174.324, 19336.67
1175.408, 19209.00
1176.493, 19331.00
1177.577, 19137.00
1178.661, 19428.00
1179.745, 19191.00
1180.829, 19387.00
1181.913, 19219.00
1182.997, 19235.00
1184.080, 19388.00
1185.163, 19288.00
1186.246, 19136.00
1187.329, 19429.00
1188.412, 19285.00
1189.495, 19238.00
1190.577, 19286.00
1191.660, 19417.00
1192.742, 19207.00
1193.824, 19232.00
1194.906, 19241.00
1195.987, 19182.00
1197.069, 19217.32
1198.150, 19309.00
1199.232, 19220.00
1200.313, 19212.00
1201.394, 19182.75
1202.474, 19088.00
1203.555, 19197.00
1204.635, 19134.00
1205.716, 19216.00
1206.796, 19276.00
1207.876, 19324.00
1208.956, 19228.00
1210.035, 19149.00
1211.115, 19195.00
1212.194, 19129.00
1213.274, 19214.00
1214.353, 19216.00
1215.432, 19268.00
1216.510, 19330.00
1217.589, 19204.00
1218.667, 19166.00
1219.746, 19317.00
1220.824, 19242.00
1221.902, 19295.23
1222.980, 19326.00
1224.057, 19313.00
1225.135, 19285.72
1226.212, 19242.00
1227.289, 19334.00
1228.366, 19239.00
1229.443, 19454.00
1230.520, 19306.00
1231.597, 19308.00
1232.673, 19231.00
1233.749, 19244.00
1234.825, 19330.00
1235.901, 19405.00
1236.977, 19186.00
1238.053, 19274.00
1239.128, 19309.00
1240.204, 19172.00
1241.279, 19281.00
1242.354, 19207.90
1243.429, 19204.60
1244.503, 19155.00
1245.578, 19250.00
1246.652, 19255.00
1247.727, 19388.00
1248.801, 19248.00
1249.875, 19450.00
1250.949, 19360.00
1252.022, 19336.00
1253.096, 19334.00
1254.169, 19526.00
1255.242, 19405.87
1256.315, 19612.00
1257.388, 19351.00
1258.461, 19228.00
1259.533, 19317.00
1260.606, 19231.00
1261.678, 19236.00
1262.750, 19236.07
1263.822, 19237.00
1264.894, 19240.00
1265.965, 19286.00
1267.037, 19360.00
1268.108, 19434.00
1269.179, 19417.00
1270.250, 19374.00
1271.321, 19506.00
1272.392, 19315.00
1273.463, 19188.00
1274.533, 19352.00
1275.603, 19245.54
1276.673, 19238.00
1277.743, 19334.00
1278.813, 19136.00
1279.883, 19243.00
1280.952, 19225.00
1282.021, 19243.00
1283.091, 19221.00
1284.160, 19245.06
1285.229, 19301.00
1286.297, 19272.00
1287.366, 19225.00
1288.434, 19196.00
1289.502, 19108.00
1290.570, 19406.00
1291.638, 19138.00
1292.706, 19208.00
1293.774, 19233.00
1294.841, 19077.00
1295.909, 19234.00
1296.976, 19151.00
1298.043, 19286.00
1299.110, 19058.00
1300.176, 18970.00
1301.243, 19153.00
1302.309, 19099.00
1303.376, 19079.00
1304.442, 19145.00
1305.508, 19226.00
1306.573, 19188.00
1307.639, 19293.00
1308.704, 19162.00
1309.770, 19364.00
1310.835, 19125.00
1311.900, 19309.00
1312.965, 19207.00
1314.030, 19101.00
1315.094, 19345.00
1316.159, 19100.00
1317.223, 19112.00
1318.287, 19162.00
1319.351, 19252.00
1320.415, 19037.00
1321.478, 19077.00
1322.542, 19148.00
1323.605, 19306.00
1324.668, 19215.00
1325.731, 19205.00
1326.794, 19037.00
1327.857, 19210.00
1328.919, 19126.00
1329.982, 19208.00
1331.044, 19243.00
1332.106, 19142.00
1333.168, 19196.00
1334.230, 19281.00
1335.292, 19159.00
1336.353, 19065.00
1337.414, 19281.00
1338.476, 19121.00
1339.537, 19239.00
1340.597, 19218.00
1341.658, 19338.00
1342.719, 19239.00
1343.779, 19267.00
1344.839, 19261.00
1345.900, 19122.00
1346.960, 19048.00
1348.019, 19281.00
1349.079, 19263.00
1350.139, 19162.00
1351.198, 19288.00
1352.257, 19243.00
1353.316, 19318.00
1354.375, 19266.00
1355.434, 19203.00
1356.492, 19267.00
1357.551, 19295.00
1358.609, 19354.00
1359.667, 19380.00
1360.725, 19255.00
1361.783, 19321.00
1362.841, 19247.00
1363.898, 19214.00
1364.956, 19263.00
1366.013, 19329.00
1367.070, 19271.70
1368.127, 19329.00
1369.183, 19273.00
1370.240, 19314.00
1371.297, 19483.00
1372.353, 19320.00
1373.409, 19417.00
1374.465, 19465.00
1375.521, 19298.00
1376.577, 19253.00
1377.632, 19197.00
1378.687, 19478.00
1379.743, 19610.00
1380.798, 19559.25
1381.853, 19359.00
1382.907, 19444.00
1383.962, 19364.00
1385.017, 19208.00
1386.071, 19251.00
1387.125, 19409.00
1388.179, 19404.00
1389.233, 19443.00
1390.287, 19344.00
1391.340, 19442.00
1392.394, 19368.82
1393.447, 19395.83
1394.500, 19256.00
1395.553, 19448.00
1396.606, 19354.00
1397.658, 19395.00
1398.711, 19414.84
1399.763, 19389.00
1400.815, 19444.00
1401.868, 19295.00
1402.919, 19408.00
1403.971, 19417.00
1405.023, 19523.00
1406.074, 19491.24
1407.125, 19527.00
1408.177, 19423.00
1409.228, 19452.00
1410.278, 19430.00
1411.329, 19329.43
1412.380, 19588.92
1413.430, 19737.89
1414.480, 19782.28
1415.530, 19408.85
1416.580, 19574.95
1417.630, 19524.82
1418.680, 19465.84
1419.729, 19707.86
1420.778, 19395.19
1421.828, 19632.45
1422.877, 19650.19
1423.925, 19768.38
1424.974, 19669.03
1426.023, 19636.87
1427.071, 19822.33
1428.119, 19887.29
1429.167, 19762.89
1430.215, 19887.47
1431.263, 19567.20
1432.311, 19637.29
1433.358, 19875.80
1434.406, 19762.34
1435.453, 19890.89
1436.500, 19927.26
1437.547, 19544.74
1438.594, 19890.73
1439.640, 19921.65
1440.687, 19629.09
1441.733, 19950.10
1442.779, 19702.13
1443.825, 19657.25
1444.871, 19765.21
1445.917, 19713.84
1446.962, 19913.67
1448.007, 19871.50
1449.053, 19807.71
1450.098, 19838.27
1451.143, 19601.45
1452.187, 19860.67
1453.232, 19781.06
1454.277, 19869.87
1455.321, 19996.86
1456.365, 19831.53
1457.409, 19975.67
1458.453, 19639.88
1459.497, 19705.67
1460.540, 19728.21
1461.584, 20007.43
1462.627, 19673.98
1463.670, 19728.60
1464.713, 19948.46
1465.756, 19937.11
1466.799, 20022.44
1467.841, 19821.58
1468.884, 19889.56
1469.926, 19883.44
1470.968, 20133.39
1472.010, 20181.18
1473.051, 19985.17
1474.093, 19790.20
1475.135, 20058.57
1476.176, 19894.00
1477.217, 20013.00
1478.258, 19960.00
1479.299, 20077.00
1480.340, 20126.00
1481.380, 20065.00
1482.421, 20059.00
1483.461, 19953.00
1484.501, 20183.00
1485.541, 19970.00
1486.581, 19944.00
1487.620, 20121.00
1488.660, 20033.00
1489.699, 20069.00
1490.739, 20216.00
1491.778, 19944.00
1492.817, 20132.00
1493.855, 20165.00
1494.894, 20226.00
1495.932, 20036.00
1496.971, 20071.00
1498.009, 20110.00
1499.047, 20038.00
1500.085, 20387.00
1501.122, 20325.00
1502.160, 20178.00
1503.197, 20303.00
1504.235, 20183.00
1505.272, 20361.00
1506.309, 20415.00
1507.346, 20330.00
1508.382, 20344.00
1509.419, 20394.00
1510.455, 20418.00
1511.491, 20324.00
1512.527, 20366.00
1513.563, 20382.00
1514.599, 20494.00
1515.635, 20430.00
1516.670, 20521.00
1517.706, 20525.00
1518.741, 20417.00
1519.776, 20478.00
1520.811, 20493.54
1521.845, 20488.00
1522.880, 20515.00
1523.914, 20569.00
1524.949, 20551.93
1525.983, 20586.58
1527.017, 20577.00
1528.050, 20382.31
1529.084, 20650.06
1530.118, 20807.29
1531.151, 20859.93
1532.184, 20494.74
1533.217, 20669.08
1534.250, 20627.21
1535.283, 20576.46
1536.316, 20826.74
1537.348, 20522.31
1538.381, 20767.81
1539.413, 20793.78
1540.445, 20920.22
1541.477, 20829.11
1542.508, 20805.17
1543.540, 20998.88
1544.571, 21072.07
1545.603, 20955.91
1546.634, 21088.72
1547.665, 20776.67
1548.696, 20855.00
1549.726, 21101.72
1550.757, 20996.49
1551.787, 21133.26
1552.817, 21177.86
1553.848, 20803.58
1554.878, 21157.78
1555.907, 21196.91
1556.937, 20912.57
1557.966, 21241.80
1558.996, 21002.05
1560.025, 20965.39
1561.054, 21081.56
1562.083, 21038.41
1563.112, 21246.46
1564.140, 21212.49
1565.169, 21156.91
1566.197, 21195.68
1567.225, 20967.06
1568.253, 21234.49
1569.281, 21163.08
1570.309, 21260.10
1571.336, 21395.29
1572.364, 21238.16
1573.391, 21390.50
1574.418, 21062.91
1575.445, 21136.89
1576.472, 21167.64
1577.499, 21188.00
1578.525, 21323.00
1579.552, 21336.00
##END=



