##NAMES=Rutile
##RRUFFID=R040049
##IDEAL CHEMISTRY=Ti^4+^O_2_
##LOCALITY=Graves Mountain, Lincoln County, Georgia, USA
##OWNER=RRUFF
##SOURCE=University of Arizona Mineral Museum
##DESCRIPTION=Reddish-black fragments
##STATUS=The identification of this mineral has been confirmed by X-ray diffraction and chemical analysis
##URL=rruff.info/R040049
##MEASURED CHEMISTRY=(Ti_1.00_Fe_0.01_)O_2_
##PIN_ID=L01614
##ORIENTATION=Laser parallel to -a* (-1 0 0). Fiducial mark perpendicular to laser is parallel to c [0 0 1]
64.13000, 21910.00
65.37400, 22531.00
66.61700, 22501.00
67.86000, 22846.00
69.10300, 24126.00
70.34600, 25900.00
71.58900, 28243.00
72.83100, 31144.00
74.07400, 33268.00
75.31600, 35730.00
76.55800, 40428.00
77.80000, 42469.00
79.04100, 44618.00
80.28300, 46715.00
81.52400, 48295.00
82.76500, 50152.00
84.00600, 52921.00
85.24700, 54162.12
86.48700, 57292.00
87.72700, 57179.00
88.96800, 58177.00
90.20800, 59273.00
91.44800, 60778.00
92.68700, 62869.00
93.92700, 64588.00
95.16600, 65389.00
96.40500, 65677.00
97.64400, 66815.12
98.88300, 67953.00
100.1210, 68238.00
101.3600, 68973.00
102.5980, 69802.00
103.8360, 70229.00
105.0740, 71104.00
106.3120, 73761.00
107.5490, 74799.00
108.7870, 74744.00
110.0240, 75188.00
111.2610, 75138.00
112.4980, 75895.35
113.7340, 76732.00
114.9710, 77586.00
116.2070, 78493.12
117.4430, 79626.33
118.6790, 80445.00
119.9150, 81163.00
121.1510, 81669.00
122.3860, 82067.88
123.6210, 82334.10
124.8560, 82507.00
126.0910, 82479.00
127.3260, 82560.00
128.5600, 82401.00
129.7950, 82978.00
131.0290, 83949.00
132.2630, 84311.00
133.4970, 84282.00
134.7300, 84481.00
135.9640, 85172.00
137.1970, 85444.00
138.4300, 85491.00
139.6630, 86162.00
140.8960, 86263.00
142.1290, 85787.00
143.3610, 85406.00
144.5930, 84893.00
145.8250, 84390.00
147.0570, 84197.00
148.2890, 83523.00
149.5210, 83196.00
150.7520, 82566.00
151.9830, 82057.00
153.2140, 81559.72
154.4450, 81005.11
155.6760, 80409.00
156.9060, 79956.00
158.1370, 79222.00
159.3670, 78641.00
160.5970, 78131.00
161.8270, 77026.00
163.0560, 76490.00
164.2860, 76235.00
165.5150, 76198.00
166.7440, 76023.00
167.9730, 74923.00
169.2020, 75130.00
170.4300, 74397.00
171.6590, 74516.00
172.8870, 74501.00
174.1150, 74802.00
175.3430, 74423.00
176.5700, 74394.00
177.7980, 74581.00
179.0250, 74997.16
180.2520, 75303.72
181.4790, 75508.91
182.7060, 75177.80
183.9330, 75639.68
185.1590, 75844.94
186.3860, 76081.95
187.6120, 76780.45
188.8380, 76752.54
190.0630, 77531.58
191.2890, 78049.95
192.5150, 78751.59
193.7400, 79194.45
194.9650, 80660.00
196.1900, 81493.00
197.4140, 81527.00
198.6390, 82675.00
199.8630, 83191.00
201.0880, 84206.00
202.3120, 85126.00
203.5350, 86076.00
204.7590, 86781.00
205.9830, 87858.00
207.2060, 88247.00
208.4290, 89274.00
209.6520, 90468.00
210.8750, 90587.00
212.0970, 91672.00
213.3200, 92547.00
214.5420, 93628.00
215.7640, 94514.00
216.9860, 95418.00
218.2080, 96177.66
219.4300, 96805.52
220.6510, 97526.00
221.8720, 98199.00
223.0930, 98629.00
224.3140, 99503.00
225.5350, 100103.0
226.7550, 100676.0
227.9760, 100930.0
229.1960, 101699.0
230.4160, 101779.0
231.6360, 102280.0
232.8550, 102374.0
234.0750, 102386.0
235.2940, 103105.0
236.5130, 103305.0
237.7320, 102981.0
238.9510, 103460.0
240.1700, 103342.0
241.3880, 103093.0
242.6070, 103056.0
243.8250, 102975.0
245.0430, 103230.0
246.2600, 103097.0
247.4780, 103506.0
248.6950, 103025.0
249.9120, 102934.0
251.1300, 103005.0
252.3460, 102348.0
253.5630, 102257.2
254.7800, 102468.0
255.9960, 101680.0
257.2120, 101171.0
258.4280, 101030.0
259.6440, 100790.0
260.8600, 100904.0
262.0750, 100192.0
263.2910, 100013.0
264.5060, 99336.00
265.7210, 99344.00
266.9360, 99088.00
268.1500, 98528.00
269.3650, 97826.00
270.5790, 97105.00
271.7930, 96799.00
273.0070, 96430.00
274.2210, 95755.00
275.4340, 95490.00
276.6480, 95297.00
277.8610, 94453.00
279.0740, 94126.89
280.2870, 92766.00
281.5000, 92800.00
282.7120, 91864.00
283.9250, 90725.00
285.1370, 90037.00
286.3490, 89074.00
287.5610, 88718.00
288.7720, 87857.00
289.9840, 87050.00
291.1950, 86315.84
292.4060, 85526.60
293.6170, 84457.00
294.8280, 84139.00
296.0390, 82986.00
297.2490, 82464.00
298.4600, 82200.00
299.6700, 81368.00
300.8800, 80983.00
302.0890, 80651.54
303.2990, 80255.00
304.5080, 80182.00
305.7180, 79661.00
306.9270, 79652.00
308.1360, 79554.00
309.3450, 79741.00
310.5530, 79754.00
311.7620, 79910.00
312.9700, 79673.00
314.1780, 79858.00
315.3860, 80016.00
316.5930, 79669.00
317.8010, 79799.00
319.0080, 79881.14
320.2150, 80254.00
321.4230, 80150.00
322.6290, 80205.00
323.8360, 80288.00
325.0430, 80301.00
326.2490, 80258.88
327.4550, 80126.00
328.6610, 80110.00
329.8670, 79967.00
331.0730, 79887.00
332.2780, 79796.00
333.4830, 79791.00
334.6880, 79716.00
335.8930, 79440.00
337.0980, 79491.00
338.3030, 79314.00
339.5070, 79766.00
340.7110, 79208.00
341.9160, 79473.00
343.1200, 79600.00
344.3230, 79099.00
345.5270, 79048.00
346.7300, 79383.00
347.9340, 79401.00
349.1370, 78899.00
350.3390, 79106.00
351.5420, 79063.00
352.7450, 79214.00
353.9470, 79172.00
355.1490, 79207.00
356.3510, 79057.00
357.5530, 79023.20
358.7550, 78988.00
359.9560, 78821.00
361.1580, 79079.00
362.3590, 78939.00
363.5600, 79041.00
364.7610, 78436.00
365.9610, 78791.00
367.1620, 78274.00
368.3620, 78183.00
369.5620, 78358.00
370.7620, 77979.00
371.9620, 77941.00
373.1620, 78402.00
374.3610, 77746.00
375.5610, 77894.00
376.7600, 78183.00
377.9590, 77724.00
379.1570, 77876.00
380.3560, 77553.00
381.5550, 77639.00
382.7530, 77555.00
383.9510, 77675.00
385.1490, 78257.00
386.3470, 77764.00
387.5440, 78280.00
388.7420, 78191.00
389.9390, 78384.00
391.1360, 79176.00
392.3330, 78998.00
393.5290, 78716.00
394.7260, 79732.00
395.9220, 79373.00
397.1190, 79909.00
398.3150, 80290.00
399.5110, 80540.00
400.7060, 81303.00
401.9020, 81564.00
403.0970, 81988.00
404.2920, 82166.00
405.4870, 83441.00
406.6820, 84023.00
407.8770, 84286.00
409.0710, 84734.00
410.2660, 85258.00
411.4600, 86100.00
412.6540, 86275.00
413.8480, 86962.00
415.0410, 87720.00
416.2350, 88019.00
417.4280, 88835.00
418.6210, 89456.00
419.8140, 90595.00
421.0070, 90638.00
422.2000, 90984.00
423.3920, 92190.00
424.5840, 92072.00
425.7770, 93205.00
426.9690, 93390.00
428.1600, 93775.00
429.3520, 94059.00
430.5430, 95014.00
431.7350, 95359.87
432.9260, 96183.25
434.1170, 96858.26
435.3070, 97389.20
436.4980, 97528.38
437.6880, 98034.66
438.8790, 98309.04
440.0690, 98515.50
441.2590, 98900.22
442.4480, 98784.14
443.6380, 99276.00
444.8270, 99798.00
446.0170, 100073.0
447.2060, 99784.00
448.3950, 99208.00
449.5830, 99069.00
450.7720, 98968.00
451.9600, 98312.00
453.1480, 97708.00
454.3360, 97047.00
455.5240, 96299.70
456.7120, 95267.00
457.9000, 94747.00
459.0870, 93530.00
460.2740, 92685.00
461.4610, 92218.00
462.6480, 91212.00
463.8350, 90043.00
465.0210, 88766.00
466.2070, 88352.00
467.3940, 87541.00
468.5800, 86690.00
469.7660, 85606.00
470.9510, 85169.00
472.1370, 83836.00
473.3220, 83412.00
474.5070, 82918.00
475.6920, 82064.00
476.8770, 81296.00
478.0620, 81045.00
479.2460, 80590.00
480.4300, 80260.00
481.6150, 79827.91
482.7980, 79419.00
483.9820, 78929.00
485.1660, 78588.00
486.3490, 78154.00
487.5330, 78392.00
488.7160, 78055.00
489.8990, 78271.00
491.0820, 77463.00
492.2640, 77405.00
493.4470, 77591.00
494.6290, 78072.00
495.8110, 77997.00
496.9930, 77839.00
498.1750, 77438.00
499.3560, 77546.00
500.5380, 77718.00
501.7190, 78272.00
502.9000, 78161.00
504.0810, 78457.00
505.2620, 78691.00
506.4420, 78849.00
507.6230, 79041.00
508.8030, 79386.00
509.9830, 79782.00
511.1630, 79830.00
512.3430, 80346.00
513.5220, 80520.00
514.7020, 80416.00
515.8810, 80966.00
517.0600, 81168.00
518.2390, 81296.00
519.4180, 81175.00
520.5960, 81538.00
521.7750, 81461.00
522.9530, 81421.00
524.1310, 81431.00
525.3090, 81430.00
526.4870, 81754.00
527.6640, 81766.00
528.8420, 81858.00
530.0190, 81624.00
531.1960, 81557.00
532.3730, 81431.50
533.5490, 81193.35
534.7260, 81181.00
535.9020, 80589.00
537.0790, 80570.00
538.2550, 79958.00
539.4310, 80040.00
540.6060, 79905.00
541.7820, 79461.00
542.9570, 79214.00
544.1320, 79216.00
545.3070, 78740.00
546.4820, 78668.00
547.6570, 78552.00
548.8310, 78589.00
550.0060, 78410.00
551.1800, 78298.00
552.3540, 77925.00
553.5280, 77841.00
554.7020, 77529.00
555.8750, 77487.92
557.0480, 77486.28
558.2220, 77430.00
559.3950, 77415.00
560.5680, 77364.00
561.7400, 77364.27
562.9130, 77347.00
564.0850, 77331.00
565.2570, 77149.00
566.4290, 77034.00
567.6010, 76861.00
568.7730, 77385.00
569.9440, 77464.00
571.1160, 77402.00
572.2870, 76965.00
573.4580, 77241.00
574.6290, 77358.00
575.7990, 77168.00
576.9700, 77439.00
578.1400, 77497.00
579.3100, 77629.00
580.4800, 77768.00
581.6500, 77713.96
582.8200, 77556.00
583.9890, 77751.00
585.1590, 77756.70
586.3280, 77613.00
587.4970, 78038.00
588.6660, 78033.00
589.8340, 78241.00
591.0030, 78529.00
592.1710, 78503.00
593.3390, 78686.00
594.5070, 78970.00
595.6750, 78918.00
596.8430, 79449.00
598.0100, 79493.00
599.1780, 79765.00
600.3450, 79545.00
601.5120, 79343.00
602.6790, 79518.00
603.8450, 78872.00
605.0120, 78746.00
606.1780, 78601.00
607.3440, 78006.00
608.5100, 77495.00
609.6760, 76621.00
610.8420, 75520.00
612.0070, 73992.00
613.1730, 73115.00
614.3380, 71461.00
615.5030, 70206.00
616.6680, 68755.00
617.8320, 67293.00
618.9970, 65630.00
620.1610, 64656.00
621.3250, 63007.00
622.4890, 61959.00
623.6530, 60424.00
624.8170, 59053.00
625.9800, 57946.00
627.1440, 56967.00
628.3070, 56108.00
629.4700, 55320.00
630.6330, 54908.00
631.7950, 53904.00
632.9580, 53189.00
634.1200, 53032.00
635.2820, 52609.00
636.4440, 52275.00
637.6060, 51788.00
638.7680, 51591.00
639.9290, 51303.01
641.0900, 51224.00
642.2520, 50941.00
643.4130, 51125.00
644.5730, 51086.00
645.7340, 50996.00
646.8950, 51022.00
648.0550, 51108.00
649.2150, 51247.00
650.3750, 51373.00
651.5350, 51477.00
652.6950, 51546.00
653.8540, 51590.00
655.0140, 51765.00
656.1730, 52293.00
657.3320, 52569.00
658.4910, 52592.00
659.6490, 53125.00
660.8080, 53365.00
661.9660, 53579.00
663.1240, 53999.00
664.2820, 54150.00
665.4400, 54880.00
666.5980, 55043.00
667.7550, 55745.00
668.9130, 55888.00
670.0700, 56515.00
671.2270, 56700.00
672.3840, 57002.00
673.5400, 57744.00
674.6970, 58112.00
675.8530, 58781.00
677.0090, 59185.00
678.1650, 59636.80
679.3210, 59808.00
680.4770, 60520.00
681.6330, 60913.00
682.7880, 61416.00
683.9430, 62189.00
685.0980, 62150.00
686.2530, 62374.00
687.4080, 63462.00
688.5620, 63378.00
689.7170, 63572.00
690.8710, 64259.00
692.0250, 64408.00
693.1790, 64491.00
694.3320, 64673.00
695.4860, 65112.00
696.6390, 65410.00
697.7930, 65457.00
698.9460, 65826.00
700.0980, 65841.00
701.2510, 66065.00
702.4040, 66094.00
703.5560, 66263.00
704.7080, 66427.00
705.8600, 66418.00
707.0120, 66748.00
708.1640, 66714.00
709.3160, 66512.70
710.4670, 66751.30
711.6180, 66892.23
712.7690, 66940.19
713.9200, 66646.65
715.0710, 66771.21
716.2220, 66714.23
717.3720, 66640.27
718.5220, 66795.17
719.6720, 66499.99
720.8220, 66631.17
721.9720, 66578.22
723.1220, 66595.02
724.2710, 66429.30
725.4200, 66306.95
726.5690, 66347.34
727.7180, 66282.15
728.8670, 66056.77
730.0160, 65469.00
731.1640, 65564.00
732.3120, 65449.00
733.4600, 65362.00
734.6080, 65294.00
735.7560, 65303.00
736.9040, 65010.00
738.0510, 65133.00
739.1980, 64996.00
740.3460, 64535.00
741.4930, 64804.00
742.6390, 64477.00
743.7860, 64652.00
744.9320, 64378.00
746.0790, 64678.00
747.2250, 64384.00
748.3710, 64428.00
749.5170, 64185.00
750.6620, 64563.00
751.8080, 64228.00
752.9530, 64778.00
754.0980, 64350.00
755.2430, 64471.00
756.3880, 64827.00
757.5330, 64412.00
758.6770, 64326.34
759.8220, 64793.91
760.9660, 65173.55
762.1100, 65470.21
763.2540, 65435.38
764.3970, 65828.36
765.5410, 66050.05
766.6840, 66264.46
767.8270, 66717.71
768.9700, 66730.84
770.1130, 67180.30
771.2560, 67455.59
772.3980, 67810.37
773.5410, 67992.76
774.6830, 68228.22
775.8250, 68636.37
776.9670, 68784.00
778.1080, 69172.00
779.2500, 69590.00
780.3910, 70330.00
781.5330, 70779.00
782.6740, 71058.00
783.8150, 71369.00
784.9550, 71814.67
786.0960, 72225.00
787.2360, 72634.00
788.3770, 72961.08
789.5170, 73310.00
790.6570, 73849.00
791.7960, 73852.00
792.9360, 74609.00
794.0750, 74844.00
795.2150, 74837.00
796.3540, 75064.00
797.4930, 74854.00
798.6310, 74900.59
799.7700, 74790.91
800.9080, 74657.00
802.0470, 74583.00
803.1850, 74195.00
804.3230, 73888.57
805.4610, 73709.00
806.5980, 72945.00
807.7360, 72513.00
808.8730, 71871.00
810.0100, 71246.00
811.1470, 70749.00
812.2840, 69722.00
813.4200, 68840.00
814.5570, 68083.00
815.6930, 67271.00
816.8290, 66606.00
817.9650, 65360.00
819.1010, 64450.00
820.2370, 63771.00
821.3720, 62969.00
822.5080, 62168.00
823.6430, 61279.46
824.7780, 60163.00
825.9130, 59353.00
827.0480, 58310.00
828.1820, 57239.00
829.3160, 56243.00
830.4510, 55601.00
831.5850, 54725.00
832.7190, 53771.00
833.8520, 53281.00
834.9860, 52143.00
836.1190, 51403.00
837.2520, 50641.00
838.3860, 49822.00
839.5180, 49176.83
840.6510, 48601.00
841.7840, 47941.00
842.9160, 47399.00
844.0480, 46762.68
845.1810, 45924.00
846.3120, 45506.00
847.4440, 44983.00
848.5760, 44317.00
849.7070, 44341.00
850.8390, 43384.00
851.9700, 43253.00
853.1010, 42583.00
854.2310, 42455.00
855.3620, 41830.00
856.4930, 41763.00
857.6230, 41096.00
858.7530, 40999.00
859.8830, 40460.00
861.0130, 40347.00
862.1430, 39982.00
863.2720, 39951.00
864.4010, 39434.00
865.5310, 39272.00
866.6600, 38903.00
867.7880, 39019.00
868.9170, 38780.00
870.0460, 38297.00
871.1740, 38203.00
872.3020, 37775.00
873.4300, 37583.00
874.5580, 37660.00
875.6860, 37295.00
876.8130, 37164.00
877.9410, 37142.00
879.0680, 36956.00
880.1950, 36646.00
881.3220, 36677.00
882.4490, 36357.00
883.5750, 36065.00
884.7020, 35984.00
885.8280, 36011.00
886.9540, 35799.00
888.0800, 35807.00
889.2060, 35673.00
890.3320, 35655.00
891.4570, 35398.82
892.5820, 35136.00
893.7070, 34994.00
894.8320, 34992.00
895.9570, 35009.64
897.0820, 35129.84
898.2060, 35162.42
899.3310, 35111.94
900.4550, 34730.03
901.5790, 34776.19
902.7030, 34650.80
903.8260, 34518.45
904.9500, 34624.86
906.0730, 34291.24
907.1960, 34393.94
908.3200, 34322.39
909.4420, 34330.71
910.5650, 34166.34
911.6880, 34055.28
912.8100, 34116.96
913.9320, 34083.04
915.0540, 34129.89
916.1760, 34071.12
917.2980, 33918.34
918.4200, 33889.54
919.5410, 34000.29
920.6620, 33808.95
921.7830, 33710.93
922.9040, 33915.07
924.0250, 33951.89
925.1460, 33725.79
926.2660, 33845.44
927.3870, 33347.37
928.5070, 33391.36
929.6270, 33669.21
930.7470, 33458.34
931.8660, 33583.55
932.9860, 33580.73
934.1050, 33079.00
935.2240, 33163.00
936.3430, 33013.00
937.4620, 33053.00
938.5810, 32916.00
939.6990, 32929.00
940.8180, 33017.00
941.9360, 32784.00
943.0540, 32791.00
944.1720, 32838.00
945.2900, 32618.00
946.4070, 32718.00
947.5250, 32543.00
948.6420, 32636.00
949.7590, 32689.00
950.8760, 32723.00
951.9930, 32664.56
953.1090, 32582.26
954.2260, 32505.00
955.3420, 32301.00
956.4580, 32268.00
957.5740, 32123.00
958.6900, 32149.00
959.8060, 32209.00
960.9210, 32180.00
962.0360, 31981.00
963.1520, 32092.00
964.2670, 32166.00
965.3810, 31947.00
966.4960, 32158.00
967.6110, 31739.00
968.7250, 31801.00
969.8390, 31957.00
970.9530, 31647.00
972.0670, 31839.00
973.1810, 31723.00
974.2940, 31585.00
975.4080, 31818.00
976.5210, 31490.00
977.6340, 31650.00
978.7470, 31818.00
979.8600, 31462.00
980.9730, 31409.00
982.0850, 31381.00
983.1970, 31279.00
984.3090, 31256.68
985.4210, 31270.00
986.5330, 31156.00
987.6450, 31042.61
988.7560, 31204.39
989.8680, 31278.45
990.9790, 31269.56
992.0900, 30929.16
993.2010, 31016.84
994.3110, 30933.00
995.4220, 30842.09
996.5320, 30990.05
997.6430, 30697.87
998.7530, 30842.04
999.8630, 30812.05
1000.972, 30861.80
1002.082, 30738.91
1003.191, 30669.36
1004.301, 30772.45
1005.410, 30779.96
1006.519, 30637.23
1007.627, 30692.09
1008.736, 30393.94
1009.844, 30405.57
1010.953, 30550.79
1012.061, 30416.77
1013.169, 30474.78
1014.277, 30459.66
1015.384, 30112.20
1016.492, 30342.73
1017.599, 30323.32
1018.706, 30047.24
1019.813, 30258.00
1020.920, 30017.30
1022.027, 29937.75
1023.134, 29979.46
1024.240, 29894.79
1025.346, 30167.00
1026.452, 29899.00
1027.558, 30034.00
1028.664, 29985.00
1029.770, 29949.00
1030.875, 30037.00
1031.980, 30026.00
1033.086, 30063.00
1034.190, 29753.00
1035.295, 29978.00
1036.400, 29800.00
1037.504, 30065.00
1038.609, 30073.00
1039.713, 29871.00
1040.817, 29484.00
1041.921, 29667.00
1043.025, 29521.00
1044.128, 29798.00
1045.231, 29816.00
1046.335, 29784.00
1047.438, 29855.00
1048.541, 29826.00
1049.643, 29809.46
1050.746, 29866.00
1051.848, 29729.00
1052.951, 29650.00
1054.053, 29563.00
1055.155, 29663.00
1056.257, 29532.00
1057.358, 29582.00
1058.460, 29671.00
1059.561, 29445.00
1060.662, 29381.00
1061.763, 29417.00
1062.864, 29485.00
1063.965, 29245.00
1065.065, 29311.00
1066.166, 29264.00
1067.266, 29416.00
1068.366, 29277.00
1069.466, 29150.00
1070.566, 29231.00
1071.665, 29373.00
1072.765, 29301.00
1073.864, 29458.00
1074.963, 29352.00
1076.062, 29280.00
1077.161, 29181.00
1078.259, 29156.00
1079.358, 29106.44
1080.456, 29164.00
1081.554, 29063.00
1082.652, 29018.00
1083.750, 29008.26
1084.848, 28902.00
1085.945, 29028.00
1087.043, 28967.00
1088.140, 28965.00
1089.237, 28846.00
1090.334, 28913.00
1091.431, 28756.00
1092.527, 28869.00
1093.624, 28855.00
1094.720, 28823.05
1095.816, 28725.00
1096.912, 28770.00
1098.008, 28723.13
1099.104, 28610.86
1100.199, 28641.00
1101.294, 28618.00
1102.390, 28664.00
1103.485, 28766.00
1104.579, 28866.00
1105.674, 28699.00
1106.769, 28539.00
1107.863, 28811.00
1108.957, 28686.00
1110.051, 28503.00
1111.145, 28621.00
1112.239, 28853.00
1113.333, 28853.00
1114.426, 28554.00
1115.519, 28292.00
1116.612, 28516.00
1117.705, 28408.00
1118.798, 28428.00
1119.891, 28641.00
1120.983, 28614.00
1122.076, 28653.98
1123.168, 28419.00
1124.260, 28606.00
1125.352, 28486.00
1126.443, 28377.00
1127.535, 28326.00
1128.626, 28284.05
1129.718, 28274.49
1130.809, 28302.00
1131.900, 28329.00
1132.990, 28415.00
1134.081, 28486.00
1135.171, 28351.00
1136.262, 28210.27
1137.352, 28398.91
1138.442, 28499.85
1139.532, 28517.82
1140.621, 28204.28
1141.711, 28318.81
1142.800, 28261.80
1143.890, 28197.74
1144.979, 28372.53
1146.067, 28107.22
1147.156, 28278.23
1148.245, 28275.06
1149.333, 28351.62
1150.421, 28255.56
1151.510, 28212.81
1152.597, 28342.75
1153.685, 28377.07
1154.773, 28261.14
1155.860, 28342.78
1156.948, 28309.62
1158.035, 28109.84
1159.122, 28281.88
1160.209, 28174.65
1161.295, 28090.71
1162.382, 28277.85
1163.468, 28377.31
1164.555, 28393.78
1165.641, 28078.74
1166.727, 28191.79
1167.812, 28133.29
1168.898, 28067.75
1169.983, 28241.06
1171.069, 27974.25
1172.154, 28143.77
1173.239, 28139.12
1174.324, 28214.18
1175.408, 28116.64
1176.493, 28072.40
1177.577, 28200.85
1178.661, 28233.69
1179.745, 28116.28
1180.829, 28196.42
1181.913, 27923.60
1182.997, 27960.51
1184.080, 28131.06
1185.163, 27869.42
1186.246, 28062.25
1187.329, 28167.39
1188.412, 28189.55
1189.495, 27880.20
1190.577, 27998.93
1191.660, 27946.10
1192.742, 27886.25
1193.824, 28065.23
1194.906, 27804.10
1195.987, 27979.31
1197.069, 27980.33
1198.150, 28061.08
1199.232, 27969.20
1200.313, 27930.65
1201.394, 28064.77
1202.474, 28103.28
1203.555, 27991.54
1204.635, 28077.36
1205.716, 27810.21
1206.796, 27852.80
1207.876, 28029.02
1208.956, 27925.96
1210.035, 28014.95
1211.115, 28030.79
1212.194, 27714.27
1213.274, 27975.76
1214.353, 27987.29
1215.432, 27742.14
1216.510, 27983.85
1217.589, 27774.09
1218.667, 27725.47
1219.746, 27798.13
1220.824, 27709.00
1221.902, 27813.00
1222.980, 27793.71
1224.057, 27801.00
1225.135, 27806.00
1226.212, 27879.00
1227.289, 27820.00
1228.366, 27818.00
1229.443, 27799.51
1230.520, 27742.00
1231.597, 27737.00
1232.673, 27734.00
1233.749, 27727.00
1234.825, 27809.00
1235.901, 27799.00
1236.977, 27871.10
1238.053, 27840.79
1239.128, 27928.00
1240.204, 27869.00
1241.279, 27724.00
1242.354, 27931.00
1243.429, 27924.00
1244.503, 28015.00
1245.578, 27787.00
1246.652, 27924.00
1247.727, 27889.00
1248.801, 27735.00
1249.875, 27890.41
1250.949, 27789.00
1252.022, 27907.00
1253.096, 28055.00
1254.169, 27770.00
1255.242, 27981.00
1256.315, 27713.00
1257.388, 27801.98
1258.461, 27832.26
1259.533, 27919.00
1260.606, 27813.00
1261.678, 27844.00
1262.750, 27870.15
1263.822, 27626.00
1264.894, 27918.00
1265.965, 27809.00
1267.037, 27798.00
1268.108, 27994.00
1269.179, 27984.00
1270.250, 27748.00
1271.321, 27998.00
1272.392, 27616.00
1273.463, 27981.00
1274.533, 27784.00
1275.603, 27855.00
1276.673, 27894.78
1277.743, 27763.29
1278.813, 27895.00
1279.883, 27884.00
1280.952, 27964.00
1282.021, 27895.39
1283.091, 27796.00
1284.160, 27753.00
1285.229, 27801.00
1286.297, 27821.00
1287.366, 27825.89
1288.434, 27823.93
1289.502, 27816.00
1290.570, 27863.00
1291.638, 27756.00
1292.706, 27936.00
1293.774, 27638.00
1294.841, 27598.00
1295.909, 27708.00
1296.976, 27760.00
1298.043, 27612.00
1299.110, 27758.00
1300.176, 27488.00
1301.243, 27630.00
1302.309, 27763.00
1303.376, 27579.00
1304.442, 27669.00
1305.508, 27782.00
1306.573, 27694.00
1307.639, 27751.00
1308.704, 27800.00
1309.770, 27775.00
1310.835, 27784.00
1311.900, 27500.00
1312.965, 27860.00
1314.030, 27824.00
1315.094, 27469.00
1316.159, 27850.00
1317.223, 27589.00
1318.287, 27602.00
1319.351, 27743.00
1320.415, 27538.00
1321.478, 27618.00
1322.542, 27593.00
1323.605, 27472.00
1324.668, 27358.00
1325.731, 27596.00
1326.794, 27498.00
1327.857, 27731.00
1328.919, 27866.00
1329.982, 27495.00
1331.044, 27625.00
1332.106, 27679.00
1333.168, 27710.00
1334.230, 27846.00
1335.292, 27859.44
1336.353, 27853.84
1337.414, 27881.00
1338.476, 27778.00
1339.537, 27641.00
1340.597, 27577.00
1341.658, 27528.32
1342.719, 27520.27
1343.779, 27548.00
1344.839, 27593.00
1345.900, 27744.00
1346.960, 27822.00
1348.019, 27749.00
1349.079, 27643.00
1350.139, 27789.00
1351.198, 27795.00
1352.257, 27730.00
1353.316, 27891.00
1354.375, 27703.00
1355.434, 27919.00
1356.492, 27904.00
1357.551, 27721.00
1358.609, 27799.00
1359.667, 28014.00
1360.725, 27831.00
1361.783, 27948.00
1362.841, 27870.00
1363.898, 27753.00
1364.956, 27831.00
1366.013, 27953.00
1367.070, 28102.00
1368.127, 27966.00
1369.183, 27704.00
1370.240, 27694.00
1371.297, 27829.00
1372.353, 27921.00
1373.409, 27970.00
1374.465, 27973.00
1375.521, 27984.94
1376.577, 27909.00
1377.632, 27953.00
1378.687, 27872.00
1379.743, 27886.00
1380.798, 27956.00
1381.853, 27946.45
1382.907, 28014.00
1383.962, 28053.00
1385.017, 27978.00
1386.071, 28079.00
1387.125, 28200.00
1388.179, 27975.00
1389.233, 27918.00
1390.287, 27910.00
1391.340, 27982.00
1392.394, 28036.00
1393.447, 27991.00
1394.500, 28038.00
1395.553, 27904.00
1396.606, 27963.00
1397.658, 28147.00
1398.711, 27886.00
1399.763, 27898.00
1400.815, 28155.00
1401.868, 28051.00
1402.919, 28072.00
1403.971, 28183.00
1405.023, 27940.00
1406.074, 28156.54
1407.125, 28285.38
1408.177, 28331.26
1409.228, 28045.61
1410.278, 28188.02
1411.329, 28158.90
1412.380, 28122.74
1413.430, 28325.40
1414.480, 28087.95
1415.530, 28286.83
1416.580, 28311.53
1417.630, 28415.95
1418.680, 28347.76
1419.729, 28332.86
1420.778, 28490.63
1421.828, 28552.82
1422.877, 28464.73
1423.925, 28574.19
1424.974, 28330.70
1426.023, 28396.93
1427.071, 28596.79
1428.119, 28517.37
1429.167, 28629.98
1430.215, 28669.46
1431.263, 28376.56
1432.311, 28661.70
1433.358, 28696.83
1434.406, 28475.32
1435.453, 28740.63
1436.500, 28554.48
1437.547, 28529.47
1438.594, 28625.74
1439.640, 28595.57
1440.687, 28764.73
1441.733, 28741.86
1442.779, 28382.00
1443.825, 28518.94
1444.871, 28484.34
1445.917, 28442.70
1446.962, 28639.88
1448.007, 28396.96
1449.053, 28590.37
1450.098, 28609.60
1451.143, 28708.54
1452.187, 28634.86
1453.232, 28614.50
1454.277, 28766.81
1455.321, 28823.50
1456.365, 28729.95
1457.409, 28833.95
1458.453, 28584.98
1459.497, 28645.75
1460.540, 28840.14
1461.584, 28755.26
1462.627, 28862.41
1463.670, 28896.42
1464.713, 28598.06
1465.756, 28877.72
1466.799, 28907.40
1467.841, 28680.41
1468.884, 28940.27
1469.926, 28748.66
1470.968, 28718.19
1472.010, 28808.99
1473.051, 28773.37
1474.093, 28937.07
1475.135, 28908.75
1476.176, 28863.27
1477.217, 28892.65
1478.258, 28830.00
1479.299, 28865.25
1480.340, 28705.00
1481.380, 28853.00
1482.421, 28862.00
1483.461, 28735.00
1484.501, 28818.00
1485.541, 28847.00
1486.581, 28756.00
1487.620, 28965.00
1488.660, 28965.06
1489.699, 28880.00
1490.739, 29058.00
1491.778, 29121.00
1492.817, 29011.00
1493.855, 28943.00
1494.894, 28867.00
1495.932, 28811.00
1496.971, 28907.00
1498.009, 28892.58
1499.047, 28968.00
1500.085, 28951.00
1501.122, 29123.00
1502.160, 29057.00
1503.197, 29162.00
1504.235, 29008.00
1505.272, 29207.00
1506.309, 29240.00
1507.346, 29147.00
1508.382, 29145.00
1509.419, 29159.00
1510.455, 29305.00
1511.491, 29132.00
1512.527, 29256.00
1513.563, 29414.00
1514.599, 29144.00
1515.635, 29292.84
1516.670, 29326.00
1517.706, 29292.00
1518.741, 29186.00
1519.776, 29172.00
1520.811, 29339.00
1521.845, 29422.00
1522.880, 29175.00
1523.914, 29419.00
1524.949, 29467.00
1525.983, 29347.00
1527.017, 29541.00
1528.050, 29274.30
1529.084, 29486.61
1530.118, 29611.23
1531.151, 29652.86
1532.184, 29362.97
1533.217, 29501.17
1534.250, 29467.80
1535.283, 29427.41
1536.316, 29625.86
1537.348, 29384.18
1538.381, 29578.83
1539.413, 29599.30
1540.445, 29699.49
1541.477, 29627.06
1542.508, 29607.94
1543.540, 29761.50
1544.571, 29819.43
1545.603, 29727.14
1546.634, 29832.38
1547.665, 29584.66
1548.696, 29646.67
1549.726, 29842.30
1550.757, 29758.66
1551.787, 29867.05
1552.817, 29902.30
1553.848, 29605.20
1554.878, 29886.10
1555.907, 29917.02
1556.937, 29691.27
1557.966, 29952.36
1558.996, 29762.00
1560.025, 29732.78
1561.054, 29824.82
1562.083, 29800.00
1563.112, 29687.00
1564.140, 29868.00
1565.169, 29645.00
1566.197, 29881.00
1567.225, 29750.00
1568.253, 30115.00
1569.281, 30029.62
1570.309, 30137.00
1571.336, 30023.00
1572.364, 29895.00
1573.391, 29947.00
1574.418, 29914.00
##END=



