##NAMES=Rutile
##RRUFFID=R040049
##IDEAL CHEMISTRY=Ti^4+^O_2_
##LOCALITY=Graves Mountain, Lincoln County, Georgia, USA
##OWNER=RRUFF
##SOURCE=University of Arizona Mineral Museum
##DESCRIPTION=Reddish-black fragments
##STATUS=The identification of this mineral has been confirmed by X-ray diffraction and chemical analysis
##URL=rruff.info/R040049
##MEASURED CHEMISTRY=(Ti_1.00_Fe_0.01_)O_2_
##PIN_ID=L00145
##ORIENTATION=Laser parallel to [1 -1 0]. Fiducial mark perpendicular to laser is parallel to c [0 0 1]
64.13000, 14217.00
65.37400, 15164.00
66.61700, 16588.00
67.86000, 17850.00
69.10300, 19633.00
70.34600, 21320.00
71.58900, 22977.00
72.83100, 25463.00
74.07400, 27710.00
75.31600, 29930.00
76.55800, 32350.00
77.80000, 34452.79
79.04100, 36399.71
80.28300, 38539.00
81.52400, 39903.00
82.76500, 41409.00
84.00600, 42770.00
85.24700, 42845.00
86.48700, 42723.00
87.72700, 42505.00
88.96800, 42799.00
90.20800, 43922.00
91.44800, 44838.00
92.68700, 45690.00
93.92700, 46080.00
95.16600, 46563.00
96.40500, 46866.00
97.64400, 47142.00
98.88300, 47401.11
100.1210, 47164.00
101.3600, 47712.00
102.5980, 47505.00
103.8360, 47507.00
105.0740, 48339.00
106.3120, 48797.00
107.5490, 48656.20
108.7870, 49017.37
110.0240, 49255.52
111.2610, 49377.32
112.4980, 49034.28
113.7340, 49291.41
114.9710, 49308.07
116.2070, 49314.79
117.4430, 49555.23
118.6790, 49542.48
119.9150, 49413.38
121.1510, 49243.19
122.3860, 48825.89
123.6210, 48591.79
124.8560, 48347.82
126.0910, 47993.35
127.3260, 47884.23
128.5600, 47702.80
129.7950, 47693.89
131.0290, 47468.04
132.2630, 47541.00
133.4970, 47388.00
134.7300, 47449.00
135.9640, 47248.00
137.1970, 47289.00
138.4300, 46985.00
139.6630, 47301.00
140.8960, 47103.00
142.1290, 46872.00
143.3610, 46409.00
144.5930, 46206.00
145.8250, 46421.00
147.0570, 45788.00
148.2890, 45191.00
149.5210, 45136.00
150.7520, 44325.00
151.9830, 44213.00
153.2140, 44152.00
154.4450, 43530.00
155.6760, 43066.00
156.9060, 43142.00
158.1370, 42304.00
159.3670, 42217.00
160.5970, 42186.00
161.8270, 42018.00
163.0560, 41921.91
164.2860, 41779.56
165.5150, 41675.00
166.7440, 41506.00
167.9730, 41435.00
169.2020, 41397.00
170.4300, 41105.00
171.6590, 41155.00
172.8870, 41146.00
174.1150, 41294.00
175.3430, 41215.00
176.5700, 41563.00
177.7980, 41658.00
179.0250, 42121.00
180.2520, 42327.00
181.4790, 42389.00
182.7060, 43085.00
183.9330, 43124.00
185.1590, 43614.00
186.3860, 44261.00
187.6120, 44105.00
188.8380, 44708.00
190.0630, 44878.00
191.2890, 45261.00
192.5150, 45775.00
193.7400, 46332.00
194.9650, 46556.00
196.1900, 47099.00
197.4140, 47507.00
198.6390, 48021.00
199.8630, 48067.00
201.0880, 48787.00
202.3120, 49065.00
203.5350, 49674.00
204.7590, 50106.00
205.9830, 50436.00
207.2060, 51033.00
208.4290, 51346.00
209.6520, 51488.00
210.8750, 51794.00
212.0970, 52228.30
213.3200, 52544.56
214.5420, 53154.00
215.7640, 53490.00
216.9860, 53889.00
218.2080, 54587.00
219.4300, 54792.00
220.6510, 55250.00
221.8720, 55466.00
223.0930, 56001.00
224.3140, 55905.93
225.5350, 56566.00
226.7550, 57072.70
227.9760, 57433.20
229.1960, 57298.52
230.4160, 57733.99
231.6360, 57898.82
232.8550, 58023.55
234.0750, 58453.27
235.2940, 58235.69
236.5130, 58599.88
237.7320, 58689.80
238.9510, 58861.46
240.1700, 58761.06
241.3880, 58705.39
242.6070, 58861.80
243.8250, 58854.20
245.0430, 58328.00
246.2600, 58395.00
247.4780, 58067.57
248.6950, 57900.32
249.9120, 57657.00
251.1300, 57330.00
252.3460, 57046.71
253.5630, 56706.00
254.7800, 56324.00
255.9960, 55849.00
257.2120, 55405.00
258.4280, 55102.00
259.6440, 54936.00
260.8600, 54400.00
262.0750, 54031.00
263.2910, 53388.00
264.5060, 53302.00
265.7210, 52955.00
266.9360, 52899.00
268.1500, 52224.00
269.3650, 51895.00
270.5790, 51766.00
271.7930, 51390.00
273.0070, 51058.00
274.2210, 50713.00
275.4340, 50512.00
276.6480, 50158.70
277.8610, 50016.00
279.0740, 49591.00
280.2870, 49294.00
281.5000, 49103.00
282.7120, 48803.00
283.9250, 48358.00
285.1370, 47751.00
286.3490, 47803.00
287.5610, 47372.00
288.7720, 47526.00
289.9840, 47075.85
291.1950, 46580.00
292.4060, 46218.00
293.6170, 46133.00
294.8280, 45594.00
296.0390, 45254.00
297.2490, 45269.00
298.4600, 45398.00
299.6700, 44984.00
300.8800, 45018.00
302.0890, 44898.00
303.2990, 44761.00
304.5080, 44720.00
305.7180, 44564.00
306.9270, 44847.00
308.1360, 44880.00
309.3450, 44903.00
310.5530, 44706.00
311.7620, 45074.00
312.9700, 45078.00
314.1780, 45151.00
315.3860, 45367.00
316.5930, 45159.00
317.8010, 45401.00
319.0080, 45283.00
320.2150, 45204.00
321.4230, 45046.00
322.6290, 45244.00
323.8360, 45215.58
325.0430, 45218.00
326.2490, 45421.00
327.4550, 45638.00
328.6610, 45791.00
329.8670, 45683.00
331.0730, 45799.00
332.2780, 45826.00
333.4830, 45719.00
334.6880, 45799.00
335.8930, 45848.00
337.0980, 45986.00
338.3030, 45934.00
339.5070, 45988.00
340.7110, 46074.00
341.9160, 46410.00
343.1200, 46167.00
344.3230, 46461.00
345.5270, 46112.00
346.7300, 46337.00
347.9340, 46781.00
349.1370, 46984.00
350.3390, 46729.00
351.5420, 47129.00
352.7450, 47122.00
353.9470, 46999.00
355.1490, 47243.00
356.3510, 47295.00
357.5530, 47422.00
358.7550, 47730.00
359.9560, 47570.00
361.1580, 47884.00
362.3590, 48014.00
363.5600, 48197.00
364.7610, 47950.00
365.9610, 48059.00
367.1620, 48586.00
368.3620, 48243.00
369.5620, 48495.00
370.7620, 48467.00
371.9620, 48671.00
373.1620, 48537.00
374.3610, 48997.00
375.5610, 49019.00
376.7600, 49331.00
377.9590, 49324.00
379.1570, 49379.00
380.3560, 49813.00
381.5550, 49835.00
382.7530, 49979.00
383.9510, 50153.00
385.1490, 50682.00
386.3470, 51060.00
387.5440, 51356.00
388.7420, 51410.00
389.9390, 51851.00
391.1360, 52165.00
392.3330, 52635.00
393.5290, 53010.00
394.7260, 53484.00
395.9220, 53955.00
397.1190, 54842.00
398.3150, 55426.00
399.5110, 55804.00
400.7060, 56683.00
401.9020, 56979.00
403.0970, 58061.00
404.2920, 58561.00
405.4870, 59493.00
406.6820, 60136.00
407.8770, 61443.00
409.0710, 62376.00
410.2660, 63446.00
411.4600, 64388.00
412.6540, 66245.00
413.8480, 67338.00
415.0410, 68080.00
416.2350, 70342.00
417.4280, 71887.00
418.6210, 73298.00
419.8140, 74909.00
421.0070, 76594.00
422.2000, 78441.00
423.3920, 80526.63
424.5840, 83063.00
425.7770, 84961.00
426.9690, 87160.00
428.1600, 89359.00
429.3520, 91476.00
430.5430, 93747.00
431.7350, 96132.00
432.9260, 98292.00
434.1170, 100538.8
435.3070, 102749.2
436.4980, 104782.0
437.6880, 107117.0
438.8790, 108984.0
440.0690, 111184.0
441.2590, 112835.0
442.4480, 114223.0
443.6380, 115288.8
444.8270, 116192.0
446.0170, 116282.6
447.2060, 116438.0
448.3950, 115969.0
449.5830, 115089.0
450.7720, 114356.0
451.9600, 112303.0
453.1480, 110663.0
454.3360, 108032.0
455.5240, 105374.0
456.7120, 101977.0
457.9000, 99230.00
459.0870, 95632.00
460.2740, 92449.00
461.4610, 88736.00
462.6480, 85258.00
463.8350, 82394.00
465.0210, 79137.00
466.2070, 76188.00
467.3940, 73262.00
468.5800, 70311.00
469.7660, 68119.00
470.9510, 65542.00
472.1370, 63457.00
473.3220, 61964.00
474.5070, 59722.00
475.6920, 58184.00
476.8770, 56415.00
478.0620, 55048.00
479.2460, 53784.00
480.4300, 52628.00
481.6150, 51823.00
482.7980, 50692.00
483.9820, 49726.00
485.1660, 48976.00
486.3490, 48087.00
487.5330, 47601.00
488.7160, 47003.00
489.8990, 46476.00
491.0820, 46031.00
492.2640, 45299.00
493.4470, 45342.00
494.6290, 44480.00
495.8110, 44546.00
496.9930, 44355.00
498.1750, 44125.00
499.3560, 43736.00
500.5380, 43541.00
501.7190, 43478.00
502.9000, 43309.00
504.0810, 43014.00
505.2620, 42818.00
506.4420, 43341.00
507.6230, 43165.00
508.8030, 43317.00
509.9830, 42925.00
511.1630, 42827.00
512.3430, 42814.00
513.5220, 43270.00
514.7020, 42959.00
515.8810, 43119.00
517.0600, 43085.00
518.2390, 42912.00
519.4180, 43233.00
520.5960, 43399.00
521.7750, 43253.00
522.9530, 43141.00
524.1310, 43247.00
525.3090, 42963.00
526.4870, 43248.00
527.6640, 43252.00
528.8420, 43324.00
530.0190, 43579.00
531.1960, 43313.00
532.3730, 43726.00
533.5490, 43730.00
534.7260, 43527.00
535.9020, 43718.00
537.0790, 43968.00
538.2550, 44033.00
539.4310, 43911.00
540.6060, 43937.00
541.7820, 44244.00
542.9570, 44557.00
544.1320, 44624.00
545.3070, 44924.00
546.4820, 45287.00
547.6570, 45427.00
548.8310, 45699.00
550.0060, 46025.00
551.1800, 46529.00
552.3540, 46683.00
553.5280, 47099.00
554.7020, 47510.00
555.8750, 47709.00
557.0480, 48232.00
558.2220, 48889.00
559.3950, 49268.00
560.5680, 49993.00
561.7400, 50601.00
562.9130, 51366.00
564.0850, 51706.00
565.2570, 53176.00
566.4290, 53503.00
567.6010, 54325.00
568.7730, 55456.00
569.9440, 56151.00
571.1160, 57187.00
572.2870, 58227.00
573.4580, 59457.00
574.6290, 60525.81
575.7990, 61636.00
576.9700, 62827.00
578.1400, 64074.00
579.3100, 65261.00
580.4800, 66508.00
581.6500, 67890.00
582.8200, 69234.00
583.9890, 70854.74
585.1590, 72574.00
586.3280, 74171.00
587.4970, 76372.00
588.6660, 77972.00
589.8340, 80466.00
591.0030, 82289.00
592.1710, 84711.00
593.3390, 86703.00
594.5070, 89086.00
595.6750, 91285.00
596.8430, 94042.00
598.0100, 96444.00
599.1780, 99105.00
600.3450, 101606.0
601.5120, 104079.0
602.6790, 106305.0
603.8450, 109238.0
605.0120, 111241.0
606.1780, 113231.0
607.3440, 114441.0
608.5100, 116005.0
609.6760, 116772.0
610.8420, 117630.0
612.0070, 117437.0
613.1730, 117291.0
614.3380, 116087.0
615.5030, 115322.0
616.6680, 113238.0
617.8320, 111545.0
618.9970, 109100.0
620.1610, 106539.0
621.3250, 104017.0
622.4890, 100379.0
623.6530, 98232.00
624.8170, 94872.00
625.9800, 91598.00
627.1440, 89146.00
628.3070, 85975.00
629.4700, 83409.00
630.6330, 80499.00
631.7950, 77976.00
632.9580, 75530.00
634.1200, 73285.00
635.2820, 71065.00
636.4440, 68959.00
637.6060, 67087.00
638.7680, 65202.00
639.9290, 63495.00
641.0900, 61894.00
642.2520, 60538.00
643.4130, 59491.00
644.5730, 57802.00
645.7340, 56233.00
646.8950, 55699.00
648.0550, 54804.00
649.2150, 53671.00
650.3750, 52616.00
651.5350, 51856.00
652.6950, 51160.00
653.8540, 50333.00
655.0140, 50219.00
656.1730, 49486.00
657.3320, 49523.00
658.4910, 48136.00
659.6490, 48026.00
660.8080, 47378.00
661.9660, 46967.00
663.1240, 46630.00
664.2820, 46393.00
665.4400, 46085.00
666.5980, 45923.00
667.7550, 45525.00
668.9130, 45263.00
670.0700, 45199.00
671.2270, 44915.00
672.3840, 44554.00
673.5400, 44638.00
674.6970, 44202.00
675.8530, 44020.00
677.0090, 44059.00
678.1650, 43905.00
679.3210, 44067.00
680.4770, 43706.00
681.6330, 43801.00
682.7880, 43470.00
683.9430, 43523.00
685.0980, 43388.00
686.2530, 43374.00
687.4080, 43260.00
688.5620, 42881.97
689.7170, 42906.20
690.8710, 42849.17
692.0250, 42715.11
693.1790, 42273.38
694.3320, 42229.11
695.4860, 42025.45
696.6390, 41815.42
697.7930, 41826.91
698.9460, 41430.08
700.0980, 41438.34
701.2510, 41284.81
702.4040, 41205.26
703.5560, 40965.64
704.7080, 40775.51
705.8600, 40745.64
707.0120, 40627.03
708.1640, 40368.97
709.3160, 40294.27
710.4670, 39892.11
711.6180, 39402.00
712.7690, 39212.00
713.9200, 39096.00
715.0710, 38629.00
716.2220, 38652.00
717.3720, 38659.00
718.5220, 38305.00
719.6720, 38094.00
720.8220, 38024.00
721.9720, 37574.00
723.1220, 37505.00
724.2710, 37406.00
725.4200, 37262.00
726.5690, 37086.88
727.7180, 36895.00
728.8670, 36663.00
730.0160, 36467.00
731.1640, 36254.00
732.3120, 36286.00
733.4600, 36051.00
734.6080, 36089.00
735.7560, 35900.00
736.9040, 35702.00
738.0510, 35656.00
739.1980, 35417.00
740.3460, 35285.00
741.4930, 35186.00
742.6390, 35209.00
743.7860, 34832.00
744.9320, 35068.00
746.0790, 34919.00
747.2250, 34639.00
748.3710, 34616.00
749.5170, 34645.00
750.6620, 34556.00
751.8080, 34528.00
752.9530, 34432.00
754.0980, 34398.00
755.2430, 34536.00
756.3880, 34320.00
757.5330, 34513.00
758.6770, 34335.00
759.8220, 34472.00
760.9660, 34322.00
762.1100, 34640.00
763.2540, 34296.00
764.3970, 34647.00
765.5410, 34674.00
766.6840, 35028.00
767.8270, 34897.00
768.9700, 35001.00
770.1130, 35300.00
771.2560, 35414.00
772.3980, 35544.98
773.5410, 35866.00
774.6830, 35772.08
775.8250, 35775.00
776.9670, 35911.00
778.1080, 36365.00
779.2500, 36330.00
780.3910, 36075.00
781.5330, 36824.00
782.6740, 36598.00
783.8150, 36999.00
784.9550, 37184.00
786.0960, 37362.28
787.2360, 37572.25
788.3770, 37862.00
789.5170, 37877.00
790.6570, 37979.00
791.7960, 38187.00
792.9360, 38067.00
794.0750, 38311.00
795.2150, 38387.69
796.3540, 38514.05
797.4930, 38591.00
798.6310, 38703.00
799.7700, 38695.00
800.9080, 38447.00
802.0470, 38362.00
803.1850, 38426.00
804.3230, 38113.00
805.4610, 38073.00
806.5980, 37658.00
807.7360, 37823.00
808.8730, 37158.00
810.0100, 37224.00
811.1470, 36948.00
812.2840, 36529.00
813.4200, 36274.00
814.5570, 35849.00
815.6930, 35526.62
816.8290, 35306.00
817.9650, 34905.00
819.1010, 34596.00
820.2370, 34409.00
821.3720, 33916.00
822.5080, 33459.00
823.6430, 33038.00
824.7780, 32912.00
825.9130, 32768.00
827.0480, 32293.00
828.1820, 31878.00
829.3160, 31485.00
830.4510, 31145.44
831.5850, 30848.00
832.7190, 30521.00
833.8520, 30155.00
834.9860, 29793.00
836.1190, 29397.00
837.2520, 29238.00
838.3860, 28831.00
839.5180, 28315.00
840.6510, 27985.00
841.7840, 27459.00
842.9160, 27390.00
844.0480, 26951.63
845.1810, 26789.00
846.3120, 26355.00
847.4440, 26121.00
848.5760, 25938.00
849.7070, 25542.00
850.8390, 25304.00
851.9700, 25223.00
853.1010, 24693.00
854.2310, 24645.00
855.3620, 24423.00
856.4930, 24340.00
857.6230, 24183.00
858.7530, 23902.00
859.8830, 23490.00
861.0130, 23306.00
862.1430, 23177.00
863.2720, 22990.00
864.4010, 22952.00
865.5310, 22772.99
866.6600, 22683.00
867.7880, 22448.00
868.9170, 22406.00
870.0460, 22165.00
871.1740, 22144.00
872.3020, 21828.00
873.4300, 21983.00
874.5580, 21550.00
875.6860, 21564.00
876.8130, 21511.00
877.9410, 21553.00
879.0680, 21372.00
880.1950, 21248.00
881.3220, 21180.00
882.4490, 21082.00
883.5750, 21016.00
884.7020, 20935.00
885.8280, 21019.00
886.9540, 20682.00
888.0800, 20820.00
889.2060, 20554.00
890.3320, 20452.00
891.4570, 20421.00
892.5820, 20381.00
893.7070, 20310.64
894.8320, 20348.00
895.9570, 20236.00
897.0820, 20082.00
898.2060, 20112.00
899.3310, 20269.00
900.4550, 20095.00
901.5790, 19977.00
902.7030, 19866.00
903.8260, 20061.00
904.9500, 19870.00
906.0730, 19813.00
907.1960, 19926.00
908.3200, 19802.00
909.4420, 19780.00
910.5650, 19943.00
911.6880, 19660.00
912.8100, 19728.00
913.9320, 19612.00
915.0540, 19656.00
916.1760, 19528.00
917.2980, 19633.00
918.4200, 19653.00
919.5410, 19519.00
920.6620, 19462.00
921.7830, 19326.00
922.9040, 19444.00
924.0250, 19313.00
925.1460, 19444.00
926.2660, 19342.00
927.3870, 19335.00
928.5070, 19275.00
929.6270, 19211.00
930.7470, 19335.00
931.8660, 19190.00
932.9860, 19231.00
934.1050, 19045.00
935.2240, 19113.00
936.3430, 19128.00
937.4620, 18813.00
938.5810, 19017.00
939.6990, 18723.00
940.8180, 18738.00
941.9360, 18785.00
943.0540, 18838.00
944.1720, 18769.00
945.2900, 18732.00
946.4070, 18667.00
947.5250, 18787.00
948.6420, 18670.00
949.7590, 18788.00
950.8760, 18725.00
951.9930, 18768.00
953.1090, 18577.00
954.2260, 18643.00
955.3420, 18547.00
956.4580, 18489.00
957.5740, 18441.00
958.6900, 18357.00
959.8060, 18428.00
960.9210, 18407.00
962.0360, 18293.00
963.1520, 18464.00
964.2670, 18360.00
965.3810, 18313.00
966.4960, 18347.00
967.6110, 18398.00
968.7250, 18296.00
969.8390, 18436.00
970.9530, 18357.71
972.0670, 18360.19
973.1810, 18267.00
974.2940, 18258.00
975.4080, 18178.00
976.5210, 17967.00
977.6340, 18000.00
978.7470, 18026.00
979.8600, 18096.00
980.9730, 17821.00
982.0850, 17969.00
983.1970, 17905.88
984.3090, 17891.95
985.4210, 17978.00
986.5330, 17876.00
987.6450, 18035.00
988.7560, 17882.00
989.8680, 17814.00
990.9790, 17786.00
992.0900, 17798.00
993.2010, 17551.00
994.3110, 17788.00
995.4220, 17607.00
996.5320, 17830.00
997.6430, 17676.00
998.7530, 17767.00
999.8630, 17404.00
1000.972, 17665.00
1002.082, 17440.00
1003.191, 17714.00
1004.301, 17564.00
1005.410, 17523.00
1006.519, 17461.00
1007.627, 17569.00
1008.736, 17334.00
1009.844, 17469.00
1010.953, 17400.00
1012.061, 17257.00
1013.169, 17425.00
1014.277, 17478.00
1015.384, 17436.00
1016.492, 17185.00
1017.599, 17260.00
1018.706, 17310.00
1019.813, 17226.00
1020.920, 17403.00
1022.027, 17325.00
1023.134, 17297.00
1024.240, 17313.00
1025.346, 17214.00
1026.452, 17291.00
1027.558, 17102.00
1028.664, 17227.00
1029.770, 17209.00
1030.875, 17274.00
1031.980, 17325.00
1033.086, 17216.00
1034.190, 17155.00
1035.295, 17209.00
1036.400, 17243.00
1037.504, 17192.00
1038.609, 17212.40
1039.713, 17087.00
1040.817, 17216.00
1041.921, 17117.00
1043.025, 17203.00
1044.128, 17013.00
1045.231, 17097.00
1046.335, 16997.00
1047.438, 17147.00
1048.541, 17096.00
1049.643, 17103.00
1050.746, 17122.00
1051.848, 17174.00
1052.951, 17009.00
1054.053, 17145.00
1055.155, 16998.00
1056.257, 16959.00
1057.358, 16897.00
1058.460, 17123.00
1059.561, 17034.00
1060.662, 17211.00
1061.763, 16853.00
1062.864, 16943.00
1063.965, 16810.00
1065.065, 16855.00
1066.166, 16854.00
1067.266, 16986.00
1068.366, 16886.00
1069.466, 16785.00
1070.566, 16860.00
1071.665, 16696.00
1072.765, 16819.00
1073.864, 16871.00
1074.963, 16651.00
1076.062, 16695.00
1077.161, 16601.00
1078.259, 16699.00
1079.358, 16732.00
1080.456, 16694.00
1081.554, 16656.00
1082.652, 16596.00
1083.750, 16810.00
1084.848, 16744.00
1085.945, 16724.00
1087.043, 16590.00
1088.140, 16579.00
1089.237, 16655.00
1090.334, 16705.00
1091.431, 16517.00
1092.527, 16706.00
1093.624, 16517.00
1094.720, 16664.00
1095.816, 16441.00
1096.912, 16563.00
1098.008, 16445.00
1099.104, 16385.00
1100.199, 16471.00
1101.294, 16494.00
1102.390, 16548.00
1103.485, 16497.00
1104.579, 16371.00
1105.674, 16535.00
1106.769, 16427.00
1107.863, 16505.00
1108.957, 16398.00
1110.051, 16417.00
1111.145, 16505.00
1112.239, 16405.00
1113.333, 16355.00
1114.426, 16322.00
1115.519, 16247.00
1116.612, 16259.00
1117.705, 16257.00
1118.798, 16404.00
1119.891, 16292.00
1120.983, 16359.00
1122.076, 16149.00
1123.168, 16455.00
1124.260, 16104.00
1125.352, 16341.00
1126.443, 16259.00
1127.535, 16140.00
1128.626, 16086.00
1129.718, 16102.00
1130.809, 16250.00
1131.900, 16106.00
1132.990, 16178.00
1134.081, 16117.00
1135.171, 16094.45
1136.262, 16121.00
1137.352, 16150.00
1138.442, 16020.00
1139.532, 16207.00
1140.621, 16162.00
1141.711, 16041.00
1142.800, 16170.00
1143.890, 16125.00
1144.979, 16097.00
1146.067, 16147.00
1147.156, 15995.00
1148.245, 16155.00
1149.333, 15963.00
1150.421, 16034.00
1151.510, 15924.00
1152.597, 15908.00
1153.685, 16040.00
1154.773, 16101.00
1155.860, 16022.00
1156.948, 15980.00
1158.035, 16003.00
1159.122, 15927.00
1160.209, 16103.00
1161.295, 15943.00
1162.382, 16030.00
1163.468, 15997.00
1164.555, 16003.00
1165.641, 16028.00
1166.727, 16023.00
1167.812, 16022.00
1168.898, 15950.00
1169.983, 15902.00
1171.069, 15994.00
1172.154, 15789.00
1173.239, 16042.00
1174.324, 16048.00
1175.408, 15963.00
1176.493, 15945.00
1177.577, 15979.00
1178.661, 15936.00
1179.745, 15890.00
1180.829, 16053.00
1181.913, 15929.00
1182.997, 16004.00
1184.080, 15839.00
1185.163, 16044.00
1186.246, 15859.00
1187.329, 15909.00
1188.412, 15828.00
1189.495, 15765.00
1190.577, 15862.00
1191.660, 15907.00
1192.742, 15908.00
1193.824, 15969.79
1194.906, 16026.00
1195.987, 15983.00
1197.069, 15941.00
1198.150, 15840.00
1199.232, 15855.00
1200.313, 15871.00
1201.394, 15983.00
1202.474, 15816.00
1203.555, 15912.00
1204.635, 15879.00
1205.716, 15873.00
1206.796, 15901.97
1207.876, 15857.00
1208.956, 15834.00
1210.035, 15895.00
1211.115, 15704.00
1212.194, 15718.00
1213.274, 15944.00
1214.353, 15809.00
1215.432, 15929.00
1216.510, 15709.00
1217.589, 15737.55
1218.667, 15777.20
1219.746, 15703.00
1220.824, 15847.00
1221.902, 15872.00
1222.980, 15835.00
1224.057, 15757.00
1225.135, 15804.00
1226.212, 15782.00
1227.289, 15832.00
1228.366, 15871.00
1229.443, 15829.00
1230.520, 15843.00
1231.597, 15806.00
1232.673, 15785.93
1233.749, 15801.00
1234.825, 15720.00
1235.901, 15824.00
1236.977, 15766.00
1238.053, 15883.00
1239.128, 15849.00
1240.204, 15801.00
1241.279, 15871.00
1242.354, 16028.00
1243.429, 15934.00
1244.503, 15924.00
1245.578, 15858.00
1246.652, 15775.00
1247.727, 15739.00
1248.801, 15753.00
1249.875, 15863.00
1250.949, 15882.00
1252.022, 15837.00
1253.096, 15810.00
1254.169, 15818.00
1255.242, 15898.00
1256.315, 15805.00
1257.388, 15676.00
1258.461, 15617.00
1259.533, 15712.00
1260.606, 15620.00
1261.678, 15700.00
1262.750, 15892.00
1263.822, 15787.00
1264.894, 15832.00
1265.965, 15715.00
1267.037, 15559.00
1268.108, 15828.00
1269.179, 15653.00
1270.250, 15773.00
1271.321, 15888.00
1272.392, 15744.00
1273.463, 15700.00
1274.533, 15576.00
1275.603, 15679.00
1276.673, 15649.00
1277.743, 15733.00
1278.813, 15597.00
1279.883, 15623.00
1280.952, 15697.00
1282.021, 15810.00
1283.091, 15673.00
1284.160, 15671.00
1285.229, 15680.00
1286.297, 15696.04
1287.366, 15618.63
1288.434, 15640.33
1289.502, 15513.00
1290.570, 15579.00
1291.638, 15664.00
1292.706, 15552.00
1293.774, 15621.00
1294.841, 15532.00
1295.909, 15490.00
1296.976, 15612.00
1298.043, 15549.00
1299.110, 15607.00
1300.176, 15529.00
1301.243, 15564.00
1302.309, 15564.00
1303.376, 15501.00
1304.442, 15564.00
1305.508, 15612.00
1306.573, 15499.00
1307.639, 15491.00
1308.704, 15481.00
1309.770, 15529.00
1310.835, 15644.00
1311.900, 15652.00
1312.965, 15650.00
1314.030, 15498.00
1315.094, 15492.00
1316.159, 15471.00
1317.223, 15636.00
1318.287, 15475.00
1319.351, 15507.00
1320.415, 15615.00
1321.478, 15421.00
1322.542, 15416.00
1323.605, 15437.00
1324.668, 15314.00
1325.731, 15479.00
1326.794, 15401.00
1327.857, 15583.00
1328.919, 15426.00
1329.982, 15546.00
1331.044, 15429.00
1332.106, 15527.00
1333.168, 15479.00
1334.230, 15516.00
1335.292, 15545.00
1336.353, 15447.00
1337.414, 15396.00
1338.476, 15624.00
1339.537, 15541.00
1340.597, 15507.00
1341.658, 15405.00
1342.719, 15385.00
1343.779, 15489.00
1344.839, 15467.00
1345.900, 15465.00
1346.960, 15469.00
1348.019, 15514.00
1349.079, 15420.00
1350.139, 15266.00
1351.198, 15492.00
1352.257, 15532.00
1353.316, 15401.00
1354.375, 15640.00
1355.434, 15583.00
1356.492, 15466.00
1357.551, 15366.00
1358.609, 15385.17
1359.667, 15341.41
1360.725, 15438.00
1361.783, 15433.00
1362.841, 15473.00
1363.898, 15535.50
1364.956, 15523.00
1366.013, 15624.00
1367.070, 15640.00
1368.127, 15640.00
1369.183, 15720.00
1370.240, 15674.09
1371.297, 15539.00
1372.353, 15618.00
1373.409, 15586.00
1374.465, 15555.00
1375.521, 15591.00
1376.577, 15561.00
1377.632, 15542.46
1378.687, 15665.00
1379.743, 15486.00
1380.798, 15509.00
1381.853, 15482.00
1382.907, 15684.00
1383.962, 15607.00
1385.017, 15640.00
1386.071, 15586.00
1387.125, 15469.00
1388.179, 15659.00
1389.233, 15451.00
1390.287, 15707.00
1391.340, 15704.00
1392.394, 15621.00
1393.447, 15452.00
1394.500, 15482.00
1395.553, 15494.00
1396.606, 15642.00
1397.658, 15488.00
1398.711, 15515.00
1399.763, 15645.00
1400.815, 15607.00
1401.868, 15542.00
1402.919, 15463.00
1403.971, 15717.00
1405.023, 15515.00
1406.074, 15717.00
1407.125, 15573.00
1408.177, 15618.00
1409.228, 15560.00
1410.278, 15415.00
1411.329, 15620.00
1412.380, 15654.00
1413.430, 15583.00
1414.480, 15727.00
1415.530, 15500.00
1416.580, 15562.00
1417.630, 15720.00
1418.680, 15625.00
1419.729, 15639.00
1420.778, 15571.00
1421.828, 15548.00
1422.877, 15531.00
1423.925, 15614.00
1424.974, 15604.00
1426.023, 15592.00
1427.071, 15695.00
1428.119, 15609.00
1429.167, 15533.00
1430.215, 15617.00
1431.263, 15582.00
1432.311, 15653.00
1433.358, 15751.00
1434.406, 15504.00
1435.453, 15590.00
1436.500, 15521.00
1437.547, 15633.00
1438.594, 15678.00
1439.640, 15556.00
1440.687, 15945.00
1441.733, 15658.00
1442.779, 15764.00
1443.825, 15542.00
1444.871, 15641.00
1445.917, 15667.00
1446.962, 15428.00
1448.007, 15717.00
1449.053, 15814.00
1450.098, 15721.00
1451.143, 15779.00
1452.187, 15772.00
1453.232, 15590.00
1454.277, 15754.00
1455.321, 15823.00
1456.365, 15587.00
1457.409, 15708.00
1458.453, 15619.00
1459.497, 15697.00
1460.540, 15665.58
1461.584, 15697.00
1462.627, 15633.00
1463.670, 15691.00
1464.713, 15751.00
1465.756, 15873.00
1466.799, 15756.00
1467.841, 15610.00
1468.884, 15832.00
1469.926, 15667.00
1470.968, 15698.00
1472.010, 15627.00
1473.051, 16093.00
1474.093, 15798.00
1475.135, 15991.00
1476.176, 15765.00
1477.217, 15912.00
1478.258, 15929.00
1479.299, 15786.00
1480.340, 15987.00
1481.380, 15855.00
1482.421, 15830.00
1483.461, 15820.00
1484.501, 15838.00
1485.541, 15814.00
1486.581, 15915.00
1487.620, 15977.00
1488.660, 15929.00
1489.699, 15749.00
1490.739, 15912.00
1491.778, 15897.00
1492.817, 15948.00
1493.855, 16045.00
1494.894, 16151.00
1495.932, 15892.00
1496.971, 15924.00
1498.009, 15769.00
1499.047, 15911.00
1500.085, 15743.00
1501.122, 15987.00
1502.160, 15939.00
1503.197, 15903.00
1504.235, 16106.00
1505.272, 16056.00
1506.309, 15974.00
1507.346, 16060.00
1508.382, 16018.19
1509.419, 16099.00
1510.455, 16090.00
1511.491, 16101.00
1512.527, 16227.00
1513.563, 15983.00
1514.599, 16080.00
1515.635, 15969.00
1516.670, 16089.00
1517.706, 15941.00
1518.741, 16160.00
1519.776, 16110.00
1520.811, 16178.00
1521.845, 16156.00
1522.880, 16094.00
1523.914, 16131.00
1524.949, 16154.00
1525.983, 16019.00
1527.017, 16186.00
1528.050, 15969.00
1529.084, 16181.00
1530.118, 16386.00
1531.151, 16276.00
1532.184, 16178.00
1533.217, 16293.00
1534.250, 16278.00
1535.283, 16256.00
1536.316, 16224.00
1537.348, 16221.00
1538.381, 16173.87
1539.413, 16459.19
1540.445, 16621.55
1541.477, 16667.57
1542.508, 16248.74
1543.540, 16430.15
1544.571, 16371.02
1545.603, 16302.02
1546.634, 16567.91
1547.665, 16216.69
1548.696, 16477.28
1549.726, 16493.63
1550.757, 16621.77
1551.787, 16507.87
1552.817, 16468.72
1553.848, 16671.69
1554.878, 16740.59
1555.907, 16598.82
1556.937, 16734.06
1557.966, 16374.38
1558.996, 16448.99
1560.025, 16710.98
1561.054, 16581.38
1562.083, 16721.04
1563.112, 16758.15
1564.140, 16329.22
1565.169, 16710.77
1566.197, 16741.82
1567.225, 16412.97
1568.253, 16766.75
1569.281, 16487.51
1570.309, 16434.23
1571.336, 16550.98
1572.364, 16490.47
1573.391, 16709.43
1574.418, 16659.15
1575.445, 16584.82
1576.472, 16615.47
1577.499, 16348.65
1578.525, 16633.69
1579.552, 16361.00
##END=



