##NAMES=Rutile
##RRUFFID=R050417
##IDEAL CHEMISTRY=Ti^4+^O_2_
##LOCALITY=Champion mine, Mono County, California, USA
##OWNER=RRUFF
##SOURCE=Marcus Origlieri
##DESCRIPTION=Reddish black equant crystals
##STATUS=The identification of this mineral has been confirmed by X-ray diffraction and chemical analysis
##URL=rruff.info/R050417
##MEASURED CHEMISTRY=TiO_2_
##PIN_ID=L01119
##ORIENTATION=Laser parallel to a* (1 0 0). Fiducial mark perpendicular to laser is parallel to c [0 0 1]
62.16800, 3442.000
63.41100, 3750.000
64.65300, 4226.000
65.89600, 4594.000
67.13800, 5135.000
68.38000, 5678.000
69.62200, 6311.000
70.86300, 6877.000
72.10500, 7461.000
73.34600, 7575.000
74.58700, 7842.000
75.82800, 8370.000
77.06900, 8876.000
78.30900, 9539.000
79.55000, 9998.000
80.79000, 10426.00
82.03000, 10962.00
83.27000, 11206.34
84.51000, 11745.00
85.74900, 11697.00
86.98900, 11673.00
88.22800, 11872.00
89.46700, 12088.00
90.70600, 12224.00
91.94400, 12567.00
93.18300, 12891.00
94.42100, 12983.00
95.65900, 13060.00
96.89700, 13157.00
98.13500, 13324.00
99.37300, 13463.00
100.6100, 13445.00
101.8480, 13495.00
103.0850, 13657.00
104.3220, 13838.00
105.5590, 13890.00
106.7950, 13974.00
108.0320, 14204.00
109.2680, 14239.00
110.5040, 14342.00
111.7400, 14402.00
112.9760, 14481.00
114.2120, 14564.00
115.4470, 14613.05
116.6820, 14823.00
117.9170, 14734.00
119.1520, 14868.00
120.3870, 14967.00
121.6220, 14960.00
122.8560, 14914.00
124.0900, 14925.00
125.3240, 14855.00
126.5580, 14666.00
127.7920, 14741.00
129.0260, 14695.00
130.2590, 14924.00
131.4920, 14734.00
132.7250, 14848.00
133.9580, 14735.00
135.1910, 14822.00
136.4230, 14902.00
137.6560, 14863.00
138.8880, 14957.00
140.1200, 15160.00
141.3520, 15177.00
142.5830, 15379.00
143.8150, 15606.00
145.0460, 15546.00
146.2770, 15492.00
147.5080, 15354.00
148.7390, 15008.00
149.9700, 14605.00
151.2000, 14700.00
152.4310, 14508.00
153.6610, 14494.00
154.8910, 14414.00
156.1210, 14239.00
157.3500, 14292.00
158.5800, 14332.00
159.8090, 14151.00
161.0380, 14105.00
162.2670, 14239.00
163.4960, 14252.00
164.7240, 14180.00
165.9530, 14218.00
167.1810, 14289.00
168.4090, 14151.00
169.6370, 14295.00
170.8650, 14279.00
172.0920, 14317.00
173.3200, 14398.00
174.5470, 14563.00
175.7740, 14432.00
177.0010, 14572.00
178.2280, 14837.00
179.4540, 14654.00
180.6810, 14892.00
181.9070, 15041.00
183.1330, 15223.00
184.3590, 15333.53
185.5850, 15293.00
186.8100, 15495.00
188.0350, 15480.00
189.2610, 15520.00
190.4860, 15850.00
191.7110, 15906.00
192.9350, 16138.00
194.1600, 16324.00
195.3840, 16458.00
196.6080, 16629.00
197.8320, 16635.00
199.0560, 16886.00
200.2800, 16872.00
201.5030, 17113.00
202.7270, 17209.00
203.9500, 17382.00
205.1730, 17343.00
206.3950, 17514.00
207.6180, 17551.00
208.8410, 17710.00
210.0630, 17743.00
211.2850, 18044.00
212.5070, 18188.00
213.7290, 18366.00
214.9500, 18281.00
216.1720, 18541.00
217.3930, 18724.00
218.6140, 18702.00
219.8350, 18954.00
221.0560, 18904.00
222.2770, 19142.00
223.4970, 19192.00
224.7170, 19262.00
225.9370, 19258.00
227.1570, 19433.00
228.3770, 19573.00
229.5970, 19666.00
230.8160, 19773.00
232.0350, 19793.00
233.2540, 19990.00
234.4730, 19937.00
235.6920, 19898.00
236.9110, 20125.00
238.1290, 19918.00
239.3470, 20106.00
240.5650, 20208.00
241.7830, 20105.00
243.0010, 20044.00
244.2180, 20010.00
245.4360, 20023.00
246.6530, 19981.00
247.8700, 19857.00
249.0870, 19961.00
250.3040, 19593.00
251.5200, 19670.00
252.7370, 19506.00
253.9530, 19342.00
255.1690, 19434.00
256.3850, 19270.00
257.6000, 19142.00
258.8160, 19205.00
260.0310, 19154.00
261.2460, 19135.00
262.4610, 19008.00
263.6760, 18936.00
264.8910, 18978.00
266.1050, 18820.00
267.3200, 18539.00
268.5340, 18575.00
269.7480, 18621.00
270.9620, 18427.00
272.1750, 18446.00
273.3890, 18472.00
274.6020, 18263.00
275.8150, 18209.00
277.0280, 18141.00
278.2410, 18248.00
279.4540, 18097.00
280.6660, 18101.00
281.8790, 17999.00
283.0910, 18021.00
284.3030, 17750.00
285.5140, 17606.00
286.7260, 17693.00
287.9380, 17408.00
289.1490, 17449.00
290.3600, 17338.00
291.5710, 17384.00
292.7820, 17204.00
293.9920, 17061.00
295.2030, 17312.00
296.4130, 16928.00
297.6230, 17053.00
298.8330, 17012.00
300.0430, 16991.00
301.2520, 17145.00
302.4620, 16957.00
303.6710, 16820.00
304.8800, 16724.00
306.0890, 16923.00
307.2980, 16916.00
308.5070, 16942.00
309.7150, 17069.00
310.9230, 17044.00
312.1310, 17101.00
313.3390, 17066.00
314.5470, 17013.00
315.7550, 17255.00
316.9620, 17358.00
318.1690, 17312.00
319.3760, 17198.00
320.5830, 17189.00
321.7900, 17282.00
322.9960, 17517.00
324.2030, 17276.00
325.4090, 17418.00
326.6150, 17361.00
327.8210, 17357.00
329.0270, 17490.00
330.2320, 17491.00
331.4380, 17353.00
332.6430, 17482.00
333.8480, 17472.00
335.0530, 17485.00
336.2580, 17529.00
337.4620, 17591.00
338.6670, 17696.00
339.8710, 17587.00
341.0750, 17556.00
342.2790, 17630.00
343.4820, 17742.00
344.6860, 17650.00
345.8890, 17867.00
347.0920, 17815.00
348.2960, 17836.00
349.4980, 17892.00
350.7010, 17798.00
351.9040, 17727.00
353.1060, 17880.00
354.3080, 18214.00
355.5100, 18067.00
356.7120, 18048.00
357.9140, 18197.00
359.1150, 18018.00
360.3170, 18219.00
361.5180, 18104.00
362.7190, 18304.00
363.9200, 18210.00
365.1200, 18227.00
366.3210, 18387.00
367.5210, 18156.00
368.7210, 18220.00
369.9210, 18264.00
371.1210, 18241.00
372.3210, 18467.00
373.5200, 18336.00
374.7200, 18404.00
375.9190, 18366.00
377.1180, 18285.00
378.3170, 18427.00
379.5150, 18437.00
380.7140, 18319.00
381.9120, 18245.00
383.1110, 18555.00
384.3090, 18444.00
385.5060, 18707.00
386.7040, 18414.00
387.9020, 18608.00
389.0990, 18582.00
390.2960, 18635.00
391.4930, 18813.00
392.6900, 18752.00
393.8860, 18757.00
395.0830, 18848.00
396.2790, 18943.00
397.4750, 18816.00
398.6710, 19207.00
399.8670, 19010.00
401.0630, 19353.00
402.2580, 19317.00
403.4540, 19539.00
404.6490, 19553.00
405.8440, 19685.00
407.0390, 19757.00
408.2330, 19871.00
409.4280, 19986.00
410.6220, 20137.21
411.8160, 20364.00
413.0100, 20498.00
414.2040, 20720.00
415.3980, 20948.00
416.5910, 21119.00
417.7850, 21527.00
418.9780, 21532.00
420.1710, 21636.00
421.3640, 21981.00
422.5560, 22221.00
423.7490, 22364.00
424.9410, 22637.00
426.1330, 23065.00
427.3250, 23197.00
428.5170, 23582.00
429.7090, 23857.00
430.9000, 24090.00
432.0910, 24363.00
433.2820, 24627.40
434.4730, 25025.00
435.6640, 25135.00
436.8550, 25394.00
438.0450, 25581.00
439.2360, 26061.00
440.4260, 26231.00
441.6160, 26474.00
442.8060, 26591.00
443.9950, 26704.76
445.1850, 26756.00
446.3740, 26814.00
447.5630, 26832.00
448.7520, 26794.00
449.9410, 26728.00
451.1300, 26580.00
452.3180, 26592.00
453.5060, 26263.00
454.6950, 25806.00
455.8830, 25780.00
457.0700, 25334.00
458.2580, 24843.00
459.4450, 24616.00
460.6330, 24163.00
461.8200, 23761.00
463.0070, 23362.00
464.1940, 22902.00
465.3800, 22500.00
466.5670, 22231.00
467.7530, 21921.00
468.9390, 21548.00
470.1250, 21359.00
471.3110, 20820.00
472.4970, 20827.00
473.6820, 20468.00
474.8680, 20458.00
476.0530, 20214.00
477.2380, 20015.00
478.4230, 19939.00
479.6070, 19677.00
480.7920, 19576.00
481.9760, 19619.00
483.1600, 19217.00
484.3440, 19454.00
485.5280, 19242.00
486.7120, 19350.00
487.8950, 19136.00
489.0780, 18981.00
490.2620, 19080.00
491.4450, 19022.00
492.6270, 19176.00
493.8100, 19025.00
494.9920, 19065.00
496.1750, 19067.00
497.3570, 19158.00
498.5390, 19185.00
499.7210, 19141.00
500.9020, 19148.00
502.0840, 19195.98
503.2650, 19216.00
504.4460, 19275.00
505.6270, 19177.00
506.8080, 19138.00
507.9890, 19303.00
509.1690, 19272.00
510.3500, 19349.00
511.5300, 19353.00
512.7100, 19363.00
513.8900, 19399.00
515.0690, 19416.00
516.2490, 19628.00
517.4280, 19451.00
518.6070, 19645.00
519.7860, 19573.00
520.9650, 19706.00
522.1440, 19737.00
523.3220, 19625.00
524.5010, 19767.00
525.6790, 19771.00
526.8570, 19843.00
528.0350, 19790.00
529.2130, 19927.00
530.3900, 19915.00
531.5670, 19959.80
532.7450, 19977.00
533.9220, 20050.00
535.0980, 20053.00
536.2750, 20111.00
537.4520, 20069.00
538.6280, 20120.00
539.8040, 20374.00
540.9800, 20274.00
542.1560, 20335.00
543.3320, 20620.00
544.5070, 20442.00
545.6830, 20600.00
546.8580, 20734.00
548.0330, 20690.00
549.2080, 20929.00
550.3830, 21034.00
551.5570, 20904.00
552.7310, 21117.00
553.9060, 21178.00
555.0800, 21460.00
556.2540, 21322.00
557.4270, 21576.00
558.6010, 21835.00
559.7740, 21801.00
560.9470, 22158.00
562.1210, 22275.00
563.2930, 22561.00
564.4660, 22718.00
565.6390, 23095.00
566.8110, 23254.00
567.9830, 23482.00
569.1550, 23520.00
570.3270, 23972.00
571.4990, 24123.00
572.6710, 24441.00
573.8420, 24737.00
575.0130, 25041.00
576.1840, 25399.00
577.3550, 25652.00
578.5260, 25997.00
579.6970, 26315.00
580.8670, 26688.00
582.0370, 27021.00
583.2070, 27442.00
584.3770, 27761.00
585.5470, 28244.00
586.7170, 28645.00
587.8860, 29220.00
589.0550, 29506.00
590.2240, 30301.00
591.3930, 30631.00
592.5620, 31435.00
593.7310, 31698.00
594.8990, 32415.00
596.0670, 33416.00
597.2350, 33841.00
598.4030, 34440.00
599.5710, 35329.00
600.7390, 35864.00
601.9060, 36730.00
603.0740, 37308.00
604.2410, 37987.00
605.4080, 38480.00
606.5740, 38900.00
607.7410, 39624.00
608.9080, 39872.00
610.0740, 40449.00
611.2400, 40495.00
612.4060, 40649.00
613.5720, 40625.00
614.7370, 40055.00
615.9030, 39890.00
617.0680, 39504.00
618.2330, 38972.00
619.3980, 38468.00
620.5630, 37821.00
621.7280, 36836.00
622.8920, 36032.00
624.0570, 35413.00
625.2210, 34275.00
626.3850, 33550.00
627.5490, 32940.00
628.7120, 32209.00
629.8760, 31421.00
631.0390, 30614.00
632.2020, 30006.00
633.3650, 29372.00
634.5280, 28602.00
635.6910, 28008.00
636.8530, 27607.00
638.0160, 27162.00
639.1780, 26689.00
640.3400, 26298.00
641.5020, 25818.00
642.6640, 25476.00
643.8250, 25030.00
644.9870, 24922.00
646.1480, 24445.00
647.3090, 24281.00
648.4700, 24115.00
649.6300, 23795.00
650.7910, 23576.00
651.9510, 23265.00
653.1120, 23212.00
654.2720, 23176.00
655.4320, 22896.00
656.5910, 22754.00
657.7510, 22480.00
658.9100, 22511.00
660.0690, 22333.00
661.2290, 22335.00
662.3880, 22207.00
663.5460, 22308.00
664.7050, 22084.00
665.8630, 22245.00
667.0220, 21999.00
668.1800, 22050.00
669.3380, 21832.00
670.4950, 22005.00
671.6530, 21751.00
672.8100, 21696.00
673.9680, 21745.00
675.1250, 21766.00
676.2820, 21740.80
677.4390, 21613.00
678.5950, 21721.00
679.7520, 21667.00
680.9080, 21655.00
682.0640, 21698.00
683.2200, 21560.00
684.3760, 21699.00
685.5320, 21605.00
686.6870, 21552.00
687.8420, 21710.00
688.9980, 21478.00
690.1530, 21606.00
691.3070, 21542.00
692.4620, 21580.00
693.6170, 21428.00
694.7710, 21600.00
695.9250, 21521.00
697.0790, 21638.00
698.2330, 21417.00
699.3870, 21534.00
700.5400, 21576.00
701.6940, 21510.00
702.8470, 21254.00
704.0000, 21325.00
705.1530, 21408.00
706.3050, 21218.00
707.4580, 21483.00
708.6100, 21312.00
709.7630, 21084.00
710.9150, 21318.00
712.0660, 21147.00
713.2180, 21019.00
714.3700, 21286.00
715.5210, 21000.00
716.6720, 20975.00
717.8240, 20942.00
718.9740, 20847.00
720.1250, 20901.00
721.2760, 20728.00
722.4260, 20725.00
723.5770, 20737.00
724.7270, 20724.00
725.8770, 20527.00
727.0260, 20582.00
728.1760, 20415.00
729.3250, 20533.00
730.4750, 20626.00
731.6240, 20430.00
732.7730, 20354.00
733.9220, 20395.00
735.0700, 20387.00
736.2190, 20239.00
737.3670, 20248.00
738.5150, 20203.00
739.6630, 20294.00
740.8110, 20292.00
741.9590, 20056.00
743.1060, 20293.00
744.2540, 20126.00
745.4010, 20410.00
746.5480, 20111.00
747.6950, 20096.00
748.8410, 20134.00
749.9880, 20189.00
751.1340, 20104.00
752.2800, 20005.00
753.4260, 20118.00
754.5720, 19985.00
755.7180, 20172.00
756.8640, 20014.00
758.0090, 20043.00
759.1540, 20009.00
760.2990, 20311.00
761.4440, 20136.00
762.5890, 20160.00
763.7340, 20094.00
764.8780, 19993.00
766.0220, 20137.00
767.1660, 20171.00
768.3100, 20250.00
769.4540, 20174.00
770.5980, 20145.00
771.7410, 20108.00
772.8840, 20184.00
774.0280, 20299.00
775.1700, 20098.00
776.3130, 20555.00
777.4560, 20402.00
778.5980, 20226.00
779.7410, 20370.00
780.8830, 20471.00
782.0250, 20352.00
783.1670, 20474.00
784.3080, 20445.00
785.4500, 20403.00
786.5910, 20598.00
787.7320, 20574.00
788.8730, 20443.00
790.0140, 20567.00
791.1550, 20716.00
792.2950, 20540.00
793.4360, 20702.00
794.5760, 20628.00
795.7160, 20871.00
796.8560, 20616.00
797.9960, 20821.00
799.1350, 20883.00
800.2750, 20859.00
801.4140, 20732.00
802.5530, 20836.00
803.6920, 20703.00
804.8310, 20883.00
805.9690, 20742.00
807.1080, 20786.00
808.2460, 20787.00
809.3840, 20707.00
810.5220, 20675.00
811.6600, 20841.00
812.7970, 20780.00
813.9350, 20540.00
815.0720, 20742.00
816.2090, 20477.00
817.3460, 20631.00
818.4830, 20627.00
819.6200, 20279.00
820.7560, 20639.00
821.8930, 20516.00
823.0290, 20518.00
824.1650, 20520.00
825.3010, 20361.00
826.4360, 20343.00
827.5720, 20092.00
828.7070, 20396.00
829.8420, 19881.00
830.9770, 20181.00
832.1120, 20118.00
833.2470, 20027.00
834.3820, 20024.00
835.5160, 19907.00
836.6500, 19929.00
837.7840, 19804.00
838.9180, 19803.00
840.0520, 19706.00
841.1860, 19809.00
842.3190, 19746.00
843.4520, 19649.00
844.5850, 19535.00
845.7180, 19682.00
846.8510, 19720.00
847.9840, 19610.00
849.1160, 19684.01
850.2490, 19503.00
851.3810, 19625.00
852.5130, 19532.00
853.6450, 19423.00
854.7760, 19521.00
855.9080, 19385.00
857.0390, 19473.00
858.1700, 19492.00
859.3010, 19426.00
860.4320, 19498.00
861.5630, 19352.00
862.6930, 19376.00
863.8240, 19229.00
864.9540, 19271.00
866.0840, 19479.00
867.2140, 19445.00
868.3440, 19364.00
869.4730, 19361.00
870.6030, 19327.00
871.7320, 19238.00
872.8610, 19396.00
873.9900, 19245.00
875.1190, 19260.00
876.2470, 19361.00
877.3760, 19384.00
878.5040, 19329.00
879.6320, 19218.00
880.7600, 19330.00
881.8880, 19275.00
883.0150, 19451.00
884.1430, 19399.00
885.2700, 19239.00
886.3970, 19055.00
887.5240, 19444.00
888.6510, 19283.00
889.7780, 19373.00
890.9040, 19413.00
892.0310, 19280.00
893.1570, 19342.00
894.2830, 19512.00
895.4090, 19368.00
896.5350, 19434.00
897.6600, 19383.00
898.7860, 19373.00
899.9110, 19376.00
901.0360, 19343.61
902.1610, 19468.00
903.2860, 19285.00
904.4100, 19329.00
905.5350, 19251.00
906.6590, 19464.00
907.7830, 19348.00
908.9070, 19366.00
910.0310, 19680.00
911.1540, 19317.00
912.2780, 19514.00
913.4010, 19589.00
914.5240, 19442.00
915.6470, 19531.00
916.7700, 19618.00
917.8930, 19544.00
919.0150, 19466.00
920.1380, 19656.00
921.2600, 19313.00
922.3820, 19706.00
923.5040, 19417.00
924.6260, 19474.00
925.7470, 19765.00
926.8690, 19502.00
927.9900, 19567.00
929.1110, 19608.00
930.2320, 19539.00
931.3530, 19537.00
932.4730, 19606.00
933.5940, 19459.00
934.7140, 19580.00
935.8340, 19613.00
936.9540, 19766.00
938.0740, 19718.00
939.1930, 19724.00
940.3130, 19811.00
941.4320, 19674.00
942.5510, 19681.00
943.6700, 19872.00
944.7890, 19711.00
945.9080, 19796.00
947.0260, 19753.00
948.1450, 19877.00
949.2630, 19725.00
950.3810, 19677.00
951.4990, 19982.00
952.6170, 19756.00
953.7340, 19857.00
954.8520, 19968.00
955.9690, 19797.00
957.0860, 19880.00
958.2030, 19996.00
959.3200, 19983.00
960.4360, 20057.00
961.5530, 19963.00
962.6690, 20127.00
963.7850, 19905.00
964.9010, 20007.00
966.0170, 20114.00
967.1330, 19873.00
968.2480, 20082.00
969.3630, 20129.00
970.4790, 19964.00
971.5940, 20128.00
972.7080, 19878.00
973.8230, 20008.00
974.9380, 20208.00
976.0520, 20093.00
977.1660, 20163.00
978.2800, 20112.00
979.3940, 20063.00
980.5080, 20194.00
981.6220, 20001.00
982.7350, 20149.00
983.8480, 20206.00
984.9610, 20269.00
986.0740, 20125.00
987.1870, 20241.00
988.3000, 20017.00
989.4120, 20299.00
990.5250, 20380.00
991.6370, 20231.00
992.7490, 20200.00
993.8610, 20325.00
994.9720, 20409.00
996.0840, 20300.00
997.1950, 20318.00
998.3060, 20188.00
999.4170, 20315.00
1000.528, 20320.00
1001.639, 20259.00
1002.750, 20351.00
1003.860, 20501.00
1004.970, 20421.00
1006.080, 20373.00
1007.190, 20502.00
1008.300, 20456.00
1009.410, 20444.00
1010.519, 20535.00
1011.628, 20447.00
1012.738, 20563.00
1013.846, 20582.00
1014.955, 20607.00
1016.064, 20448.00
1017.172, 20666.00
1018.281, 20718.00
1019.389, 20882.00
1020.497, 20538.00
1021.605, 20573.00
1022.713, 20496.00
1023.820, 20524.00
1024.928, 20444.00
1026.035, 20715.00
1027.142, 20624.00
1028.249, 20705.00
1029.356, 20771.00
1030.462, 20706.00
1031.569, 20691.00
1032.675, 20686.97
1033.781, 20615.00
1034.887, 20614.00
1035.993, 20815.00
1037.098, 20733.00
1038.204, 20824.00
1039.309, 20835.00
1040.415, 20835.00
1041.520, 20886.00
1042.624, 20766.00
1043.729, 20796.00
1044.834, 20934.00
1045.938, 20775.00
1047.042, 20759.00
1048.146, 20906.00
1049.250, 20840.00
1050.354, 20906.00
1051.458, 20850.00
1052.561, 21008.00
1053.664, 21046.00
1054.767, 21025.00
1055.870, 20839.00
1056.973, 20961.00
1058.076, 20959.00
1059.178, 21140.00
1060.281, 21049.00
1061.383, 20887.00
1062.485, 21085.00
1063.587, 21073.00
1064.688, 21167.00
1065.790, 21087.00
1066.891, 21079.00
1067.993, 20995.00
1069.094, 21163.00
1070.195, 21077.00
1071.295, 21212.00
1072.396, 21206.00
1073.496, 21010.00
1074.597, 21123.00
1075.697, 21333.00
1076.797, 21039.00
1077.897, 21209.00
1078.996, 21314.00
1080.096, 21113.00
1081.195, 21337.00
1082.294, 21207.00
1083.393, 21404.00
1084.492, 21280.00
1085.591, 21365.00
1086.689, 21450.00
1087.788, 21471.00
1088.886, 21476.00
1089.984, 21428.00
1091.082, 21346.00
1092.180, 21553.00
1093.277, 21476.00
1094.375, 21630.00
1095.472, 21579.00
1096.569, 21443.00
1097.666, 21604.00
1098.763, 21467.00
1099.860, 21427.00
1100.956, 21454.00
1102.053, 21611.00
1103.149, 21535.00
1104.245, 21586.73
1105.341, 21537.00
1106.436, 21567.00
1107.532, 21645.00
1108.627, 21619.00
1109.723, 21741.00
1110.818, 21584.00
1111.913, 21537.00
1113.007, 21617.00
1114.102, 21642.00
1115.197, 21673.00
1116.291, 21665.00
1117.385, 21727.00
1118.479, 21577.00
1119.573, 21788.00
1120.666, 21885.00
1121.760, 21853.00
1122.853, 21773.00
1123.947, 21905.00
1125.040, 21981.00
1126.132, 21910.00
1127.225, 21701.00
1128.318, 22048.00
1129.410, 21795.00
1130.502, 21783.00
1131.595, 22017.00
1132.687, 21899.00
1133.778, 21881.00
1134.870, 21965.00
1135.961, 22000.00
1137.053, 22017.62
1138.144, 21989.00
1139.235, 22091.00
1140.326, 22041.00
1141.416, 22121.00
1142.507, 21982.00
1143.597, 22127.00
1144.688, 22104.00
1145.778, 21877.00
1146.868, 22002.00
1147.957, 22049.00
1149.047, 21980.00
1150.136, 22160.00
1151.226, 22063.00
1152.315, 22234.00
1153.404, 22297.00
1154.493, 22067.00
1155.581, 21919.00
1156.670, 22340.00
1157.758, 22295.00
1158.846, 22163.00
1159.934, 22281.00
1161.022, 22193.00
1162.110, 22419.00
1163.198, 22182.00
1164.285, 22322.00
1165.372, 22378.00
1166.459, 22279.00
1167.546, 22238.00
1168.633, 22483.00
1169.720, 22634.00
1170.806, 22280.00
1171.892, 22625.00
1172.979, 22316.00
1174.065, 22664.00
1175.150, 22429.00
1176.236, 22520.00
1177.322, 22548.00
1178.407, 22785.00
1179.492, 22417.00
1180.577, 22590.00
1181.662, 22514.00
1182.747, 22636.00
1183.832, 22684.00
1184.916, 22728.00
1186.000, 22798.59
1187.084, 22820.29
1188.168, 22862.00
1189.252, 22769.00
1190.336, 22722.00
1191.419, 22706.79
1192.503, 22693.80
1193.586, 22655.00
1194.669, 22734.00
1195.752, 22749.00
1196.835, 22776.00
1197.917, 22741.00
1199.000, 22844.00
1200.082, 22799.00
1201.164, 22932.00
1202.246, 22968.00
1203.328, 23028.00
1204.409, 22864.00
1205.491, 22884.00
1206.572, 22830.00
1207.653, 23038.00
1208.734, 22749.00
1209.815, 23125.00
1210.896, 22927.00
1211.976, 23120.00
1213.057, 22862.00
1214.137, 23103.00
1215.217, 23001.00
1216.297, 22989.00
1217.377, 23188.00
1218.456, 22980.00
1219.536, 23357.00
1220.615, 23258.00
1221.694, 22993.00
1222.773, 23046.00
1223.852, 23140.00
1224.931, 23306.00
1226.009, 23060.00
1227.088, 23227.00
1228.166, 23100.00
1229.244, 23211.00
1230.322, 23285.00
1231.400, 23232.00
1232.477, 23282.92
1233.555, 23341.00
1234.632, 23282.00
1235.709, 23359.14
1236.786, 23188.00
1237.863, 23445.00
1238.939, 23337.00
1240.016, 23386.00
1241.092, 23260.00
1242.168, 23459.00
1243.245, 23554.00
1244.320, 23539.00
1245.396, 23442.00
1246.472, 23419.00
1247.547, 23633.00
1248.622, 23574.00
1249.697, 23705.00
1250.772, 23584.00
1251.847, 23427.00
1252.922, 23473.00
1253.996, 23453.58
1255.071, 23538.00
1256.145, 23598.00
1257.219, 23639.00
1258.293, 23757.00
1259.366, 23701.00
1260.440, 23642.00
1261.513, 23709.00
1262.587, 23643.00
1263.660, 23841.00
1264.733, 23682.00
1265.805, 23528.00
1266.878, 23956.00
1267.951, 23616.00
1269.023, 23776.00
1270.095, 23825.00
1271.167, 23809.00
1272.239, 23813.00
1273.311, 23888.00
1274.382, 23802.00
1275.454, 23751.00
1276.525, 23850.00
1277.596, 23712.00
1278.667, 23662.00
1279.738, 23917.00
1280.808, 23790.00
1281.879, 23966.00
1282.949, 23637.00
1284.019, 23930.00
1285.089, 23794.00
1286.159, 23721.00
1287.229, 23896.00
1288.298, 23906.00
1289.368, 23749.00
1290.437, 23925.00
1291.506, 23785.00
1292.575, 24057.00
1293.644, 24124.00
1294.712, 23821.00
1295.781, 24018.00
1296.849, 23908.00
1297.917, 23947.00
1298.985, 23936.00
1300.053, 23986.00
1301.121, 23940.00
1302.188, 24051.00
1303.255, 23974.00
1304.323, 23950.00
1305.390, 24191.00
1306.457, 24085.00
1307.523, 24171.00
1308.590, 24033.00
1309.656, 24183.00
1310.723, 24029.00
1311.789, 24087.00
1312.855, 23946.00
1313.921, 24261.00
1314.986, 24117.00
1316.052, 24215.00
1317.117, 24166.00
1318.182, 24257.00
1319.248, 24331.00
1320.312, 24215.00
1321.377, 24208.00
1322.442, 24261.00
1323.506, 24163.00
1324.571, 24435.00
1325.635, 24367.00
1326.699, 24380.00
1327.762, 24383.00
1328.826, 24318.00
1329.890, 24472.00
1330.953, 24307.00
1332.016, 24506.00
1333.079, 24363.00
1334.142, 24332.00
1335.205, 24572.00
1336.268, 24123.00
1337.330, 24370.00
1338.392, 24291.00
1339.454, 24420.00
1340.516, 24331.00
1341.578, 24491.00
1342.640, 24589.00
1343.701, 24447.00
1344.763, 24358.00
1345.824, 24555.00
1346.885, 24500.00
1347.946, 24652.00
1349.007, 24501.00
1350.067, 24712.00
1351.128, 24667.00
1352.188, 24655.00
1353.248, 24739.00
1354.308, 24706.00
1355.368, 24684.00
1356.428, 24830.00
1357.487, 24652.00
1358.547, 24862.00
1359.606, 24868.00
1360.665, 24942.00
1361.724, 24809.00
1362.783, 24899.00
1363.841, 24882.00
1364.900, 25077.00
1365.958, 25136.00
1367.016, 25159.38
1368.074, 25230.41
1369.132, 25187.00
1370.190, 25224.00
1371.247, 25204.00
1372.304, 25124.00
1373.362, 24883.00
1374.419, 25163.00
1375.476, 24849.00
1376.532, 25197.00
1377.589, 25062.00
1378.645, 25150.00
1379.702, 25036.00
1380.758, 25233.00
1381.814, 24879.00
1382.870, 24996.00
1383.925, 25163.00
1384.981, 25131.00
1386.036, 25549.00
1387.092, 25266.00
1388.147, 24925.00
1389.202, 25165.00
1390.256, 25225.00
1391.311, 25156.00
1392.365, 25332.00
1393.420, 25257.00
1394.474, 25314.00
1395.528, 25460.00
1396.582, 25264.00
1397.636, 25351.00
1398.689, 25321.00
1399.742, 25513.00
1400.796, 25440.00
1401.849, 25229.00
1402.902, 25557.00
1403.955, 25379.00
1405.007, 25319.00
1406.060, 25413.00
1407.112, 25266.00
1408.164, 25341.32
1409.216, 25468.00
1410.268, 25454.00
1411.320, 25463.00
1412.371, 25608.00
1413.423, 25431.00
1414.474, 25497.00
1415.525, 25453.00
1416.576, 25632.00
1417.627, 25558.00
1418.678, 25472.00
1419.728, 25580.00
1420.778, 25513.00
1421.829, 25593.00
1422.879, 25646.00
1423.928, 25695.00
1424.978, 25551.00
1426.028, 25680.00
1427.077, 25710.00
1428.126, 26010.00
1429.176, 25760.00
1430.225, 25764.00
1431.273, 25874.00
1432.322, 25785.00
1433.371, 25869.32
1434.419, 25817.73
1435.467, 25928.00
1436.515, 25748.00
1437.563, 25701.00
1438.611, 25727.00
1439.658, 25851.00
1440.706, 25638.00
1441.753, 25858.00
1442.800, 25779.00
1443.847, 25980.00
1444.894, 25941.00
1445.941, 26058.00
1446.987, 25938.00
1448.034, 25975.00
1449.080, 26048.00
1450.126, 25832.00
1451.172, 26231.00
1452.218, 26422.00
1453.263, 26161.00
1454.309, 25936.00
1455.354, 25829.00
1456.399, 26163.00
1457.444, 25893.00
1458.489, 26046.00
1459.534, 25957.00
1460.579, 26235.00
1461.623, 26166.00
1462.667, 26030.00
1463.711, 26187.00
1464.755, 26164.00
1465.799, 26228.00
1466.843, 26191.00
1467.886, 26113.00
1468.930, 26236.00
1469.973, 26031.00
1471.016, 26282.00
1472.059, 26249.00
1473.101, 26498.00
1474.144, 26349.00
1475.186, 26506.00
1476.229, 26221.00
1477.271, 26358.00
1478.313, 26309.00
1479.355, 26559.00
1480.396, 26280.00
1481.438, 26499.00
1482.479, 26347.00
1483.520, 26366.00
1484.561, 26448.00
1485.602, 26350.00
1486.643, 26635.00
1487.684, 26618.00
1488.724, 26564.00
1489.765, 26541.00
1490.805, 26624.00
1491.845, 26522.00
1492.885, 26599.00
1493.924, 26571.96
1494.964, 26791.00
1496.003, 26578.00
1497.042, 26713.00
1498.082, 26797.00
1499.120, 26705.00
1500.159, 26578.00
1501.198, 26700.00
1502.236, 26665.00
1503.275, 26724.00
1504.313, 26806.00
1505.351, 26749.00
1506.389, 26509.00
1507.427, 26664.00
1508.464, 26626.00
1509.502, 26884.00
1510.539, 26791.00
1511.576, 26679.00
1512.613, 27069.00
1513.650, 26845.00
1514.687, 26870.00
1515.723, 26747.00
1516.759, 26872.00
1517.796, 27088.00
1518.832, 26916.00
1519.868, 26961.00
1520.903, 27100.00
1521.939, 27043.35
1522.975, 27150.26
1524.010, 27131.00
1525.045, 27199.00
1526.080, 27272.00
1527.115, 27137.00
1528.150, 26974.00
1529.184, 26920.00
1530.219, 26858.00
1531.253, 26978.00
1532.287, 27100.00
1533.321, 27209.00
1534.355, 27216.00
1535.388, 27235.00
1536.422, 27304.00
1537.455, 27220.00
1538.488, 27240.00
1539.522, 27146.00
1540.554, 27186.00
1541.587, 27056.00
1542.620, 27224.00
1543.652, 27161.00
1544.685, 27366.00
1545.717, 27059.00
1546.749, 27344.00
1547.781, 27305.00
1548.812, 27303.00
1549.844, 27341.00
1550.875, 27226.00
1551.906, 27284.99
1552.938, 27408.00
1553.968, 27303.00
1554.999, 27536.00
1556.030, 27523.00
1557.060, 27445.00
1558.091, 27387.00
1559.121, 27308.00
1560.151, 27232.00
1561.181, 27247.00
1562.211, 27434.00
1563.240, 27453.00
1564.270, 27474.00
1565.299, 27500.00
1566.328, 27433.00
1567.357, 27462.17
1568.386, 27479.65
1569.415, 27492.00
1570.443, 27544.00
1571.472, 27641.00
1572.500, 27676.00
1573.528, 27448.00
1574.556, 27404.00
1575.584, 27501.00
1576.611, 27452.00
1577.639, 27477.00
1578.666, 27751.00
##END=



