##NAMES=Rutile
##RRUFFID=R040049
##IDEAL CHEMISTRY=Ti^4+^O_2_
##LOCALITY=Graves Mountain, Lincoln County, Georgia, USA
##OWNER=RRUFF
##SOURCE=University of Arizona Mineral Museum
##DESCRIPTION=Reddish-black fragments
##STATUS=The identification of this mineral has been confirmed by X-ray diffraction and chemical analysis
##URL=rruff.info/R040049
##MEASURED CHEMISTRY=(Ti_1.00_Fe_0.01_)O_2_
##PIN_ID=L00223
##ORIENTATION=Laser parallel to c* (0 0 1). Fiducial mark perpendicular to laser is parallel to -a [-1 0 0]
92.14900, 52440.12
93.38900, 53473.00
94.62900, 54243.00
95.86800, 54884.00
97.10700, 54936.00
98.34600, 55121.00
99.58500, 55448.00
100.8230, 56008.00
102.0620, 56211.00
103.3000, 57385.00
104.5380, 57431.00
105.7760, 58468.00
107.0140, 59196.96
108.2510, 59619.12
109.4890, 60657.00
110.7260, 60646.00
111.9630, 60981.00
113.2000, 61273.00
114.4360, 61404.77
115.6730, 62056.53
116.9090, 62467.33
118.1450, 62649.55
119.3810, 61956.74
120.6170, 62364.61
121.8530, 62313.51
123.0880, 62231.31
124.3230, 62757.60
125.5590, 62126.43
126.7930, 62617.37
128.0280, 62642.57
129.2630, 62862.36
130.4970, 62620.48
131.7310, 62504.54
132.9650, 62825.01
134.1990, 62195.00
135.4330, 62482.00
136.6670, 62373.00
137.9000, 62171.00
139.1330, 62575.00
140.3660, 62023.00
141.5990, 61992.00
142.8320, 61372.00
144.0640, 60671.00
145.2960, 59978.00
146.5290, 59439.00
147.7610, 58806.00
148.9920, 57936.00
150.2240, 57600.00
151.4550, 56392.00
152.6870, 56318.00
153.9180, 55473.00
155.1490, 55107.00
156.3800, 54917.00
157.6100, 54189.00
158.8400, 53864.00
160.0710, 53661.00
161.3010, 53481.00
162.5310, 53315.00
163.7600, 52760.00
164.9900, 53301.00
166.2190, 53103.00
167.4480, 52684.00
168.6770, 53075.00
169.9060, 52785.00
171.1350, 53368.00
172.3630, 53314.00
173.5920, 53487.00
174.8200, 53874.00
176.0480, 54409.00
177.2760, 54916.00
178.5030, 55389.00
179.7310, 55942.08
180.9580, 56506.48
182.1850, 56969.00
183.4120, 57701.00
184.6390, 58130.00
185.8650, 58726.00
187.0920, 59480.00
188.3180, 59798.00
189.5440, 60903.00
190.7700, 60923.00
191.9960, 61418.00
193.2210, 62164.00
194.4470, 62372.00
195.6720, 62880.00
196.8970, 63465.00
198.1220, 63992.00
199.3460, 64669.00
200.5710, 65077.00
201.7950, 65166.00
203.0190, 65869.00
204.2430, 67084.00
205.4670, 67023.00
206.6910, 67738.84
207.9140, 67994.00
209.1370, 68358.00
210.3610, 68822.00
211.5840, 68963.00
212.8060, 69630.00
214.0290, 70087.00
215.2510, 70832.00
216.4740, 71504.00
217.6960, 72049.00
218.9180, 72692.00
220.1390, 73295.00
221.3610, 73688.00
222.5820, 74418.00
223.8030, 75259.00
225.0240, 75998.00
226.2450, 76454.00
227.4660, 77089.00
228.6870, 77967.00
229.9070, 78493.00
231.1270, 79340.00
232.3470, 79876.00
233.5670, 80287.00
234.7870, 80763.00
236.0060, 81279.00
237.2250, 81990.00
238.4440, 82246.00
239.6630, 82086.00
240.8820, 82786.00
242.1010, 82082.00
243.3190, 81814.00
244.5380, 81620.00
245.7560, 81111.00
246.9740, 80660.00
248.1910, 80088.00
249.4090, 79377.00
250.6260, 78500.00
251.8440, 77683.00
253.0610, 77031.00
254.2780, 75874.00
255.4940, 74920.00
256.7110, 74134.00
257.9270, 73376.00
259.1430, 72836.00
260.3600, 71573.00
261.5750, 71580.00
262.7910, 70473.00
264.0070, 70139.00
265.2220, 69289.00
266.4370, 68965.00
267.6520, 68696.00
268.8670, 68049.00
270.0820, 67568.00
271.2960, 67096.00
272.5100, 66608.68
273.7250, 66291.00
274.9390, 65855.00
276.1520, 65421.00
277.3660, 65269.00
278.5790, 64901.00
279.7930, 63973.00
281.0060, 63734.00
282.2190, 63211.00
283.4320, 63174.00
284.6440, 62446.00
285.8570, 62049.00
287.0690, 61485.00
288.2810, 61199.00
289.4930, 60755.00
290.7050, 60551.00
291.9160, 60319.00
293.1270, 60009.00
294.3390, 59042.00
295.5500, 58953.00
296.7610, 58517.00
297.9710, 58487.00
299.1820, 58348.00
300.3920, 57959.00
301.6020, 57808.00
302.8120, 58139.00
304.0220, 57752.00
305.2320, 57851.00
306.4410, 58041.00
307.6510, 57927.00
308.8600, 58189.00
310.0690, 58197.00
311.2780, 58259.00
312.4860, 58409.37
313.6950, 58467.00
314.9030, 58610.00
316.1110, 58694.00
317.3190, 58778.00
318.5270, 58830.89
319.7350, 58809.66
320.9420, 58845.00
322.1490, 58605.00
323.3570, 58494.00
324.5630, 58415.41
325.7700, 58339.00
326.9770, 58179.00
328.1830, 58087.00
329.3900, 57901.00
330.5960, 57801.00
331.8020, 57592.19
333.0070, 57677.00
334.2130, 57238.00
335.4180, 57052.00
336.6230, 57023.00
337.8290, 57091.00
339.0330, 56626.00
340.2380, 56774.00
341.4430, 56462.00
342.6470, 56622.00
343.8510, 56513.00
345.0550, 56179.00
346.2590, 56148.00
347.4630, 56444.00
348.6660, 56580.00
349.8700, 55849.00
351.0730, 56326.00
352.2760, 56026.00
353.4790, 56002.00
354.6810, 56058.00
355.8840, 56254.00
357.0860, 55639.00
358.2880, 56184.00
359.4900, 55834.00
360.6920, 55655.00
361.8940, 55672.00
363.0950, 55913.00
364.2960, 55493.00
365.4980, 55362.00
366.6990, 55444.00
367.8990, 55042.00
369.1000, 54822.00
370.3000, 54870.00
371.5010, 54606.00
372.7010, 54419.00
373.9010, 54325.00
375.1010, 54216.00
376.3000, 54304.00
377.5000, 54025.00
378.6990, 54058.00
379.8980, 53794.00
381.0970, 53764.00
382.2960, 53760.00
383.4940, 53569.00
384.6920, 53626.00
385.8910, 53693.00
387.0890, 53265.00
388.2870, 53441.00
389.4840, 53269.00
390.6820, 53258.00
391.8790, 53152.00
393.0770, 52790.00
394.2740, 53213.00
395.4700, 52978.00
396.6670, 53180.00
397.8640, 52695.00
399.0600, 52830.00
400.2560, 52605.00
401.4520, 52697.00
402.6480, 52559.00
403.8440, 52670.00
405.0390, 52746.00
406.2350, 52793.00
407.4300, 52676.00
408.6250, 52570.00
409.8200, 52833.00
411.0140, 52613.00
412.2090, 52849.00
413.4030, 53066.00
414.5970, 53203.00
415.7910, 52876.00
416.9850, 53174.00
418.1790, 53118.00
419.3720, 53578.00
420.5660, 53724.00
421.7590, 53903.00
422.9520, 54132.52
424.1440, 54202.00
425.3370, 54340.00
426.5300, 54622.00
427.7220, 54549.00
428.9140, 54715.00
430.1060, 54926.00
431.2980, 55002.00
432.4890, 55191.60
433.6810, 55493.25
434.8720, 55707.06
436.0630, 55836.66
437.2540, 55697.35
438.4450, 55853.63
439.6350, 55859.86
440.8260, 55838.36
442.0160, 55971.82
443.2060, 55755.71
444.3960, 55841.36
445.5860, 55884.70
446.7750, 55898.92
447.9650, 55724.41
449.1540, 55851.18
450.3430, 55902.36
451.5320, 55881.43
452.7210, 55603.71
453.9090, 55633.74
455.0980, 55525.80
456.2860, 55402.27
457.4740, 55445.81
458.6620, 55151.88
459.8500, 55171.77
461.0370, 55051.93
462.2250, 54980.80
463.4120, 54512.00
464.5990, 54207.00
465.7860, 54216.05
466.9720, 54035.00
468.1590, 54160.00
469.3450, 53714.00
470.5320, 53579.00
471.7180, 53594.00
472.9030, 53352.00
474.0890, 53260.00
475.2750, 52855.00
476.4600, 52900.00
477.6450, 52522.00
478.8300, 52526.00
480.0150, 52558.00
481.2000, 52535.00
482.3840, 52403.00
483.5690, 52013.00
484.7530, 52127.00
485.9370, 51895.00
487.1210, 51925.00
488.3040, 51638.00
489.4880, 51829.00
490.6710, 51992.00
491.8540, 51657.00
493.0370, 51564.00
494.2200, 51546.00
495.4030, 51756.00
496.5850, 51733.00
497.7680, 51634.00
498.9500, 51593.00
500.1320, 51696.86
501.3140, 51763.28
502.4950, 52068.00
503.6770, 52134.00
504.8580, 52571.00
506.0390, 52919.00
507.2200, 52904.00
508.4010, 53324.00
509.5820, 53529.00
510.7620, 53632.00
511.9420, 54167.00
513.1230, 54369.00
514.3030, 54479.00
515.4820, 54510.00
516.6620, 54791.00
517.8420, 55738.00
519.0210, 55767.00
520.2000, 56236.00
521.3790, 56195.00
522.5580, 56607.00
523.7360, 57081.00
524.9150, 57634.00
526.0930, 57949.00
527.2710, 58253.00
528.4490, 58721.00
529.6270, 59261.00
530.8050, 59795.00
531.9820, 60171.00
533.1590, 60547.00
534.3360, 61303.00
535.5130, 61588.00
536.6900, 62004.00
537.8670, 62816.00
539.0430, 63334.00
540.2200, 63937.00
541.3960, 65196.00
542.5720, 65533.00
543.7470, 66395.00
544.9230, 67453.00
546.0980, 68257.00
547.2740, 69404.00
548.4490, 70461.05
549.6240, 71558.72
550.7990, 72834.00
551.9730, 73972.00
553.1480, 75395.00
554.3220, 76769.00
555.4960, 78647.00
556.6700, 80595.00
557.8440, 81702.00
559.0170, 83597.00
560.1910, 86046.00
561.3640, 87883.00
562.5370, 90368.00
563.7100, 92398.00
564.8830, 94998.00
566.0550, 97112.00
567.2280, 99853.00
568.4000, 103021.0
569.5720, 106065.0
570.7440, 109187.0
571.9160, 112444.0
573.0870, 116091.0
574.2590, 119540.0
575.4300, 123272.0
576.6010, 126769.0
577.7720, 130640.0
578.9430, 135496.0
580.1140, 139339.0
581.2840, 144244.0
582.4540, 148949.0
583.6240, 154189.0
584.7940, 159552.0
585.9640, 164473.0
587.1340, 170570.0
588.3030, 176381.0
589.4720, 182262.0
590.6410, 189290.0
591.8100, 195626.0
592.9790, 202677.0
594.1480, 209570.0
595.3160, 217408.0
596.4840, 225056.0
597.6520, 233432.0
598.8200, 240811.0
599.9880, 248970.0
601.1560, 256046.0
602.3230, 263467.9
603.4900, 270696.0
604.6570, 277495.0
605.8240, 283031.0
606.9910, 289158.0
608.1580, 292827.0
609.3240, 295950.0
610.4900, 298555.0
611.6570, 298507.0
612.8230, 298236.0
613.9880, 295925.0
615.1540, 293371.0
616.3190, 289821.0
617.4850, 284067.0
618.6500, 278554.0
619.8150, 271049.0
620.9790, 263719.0
622.1440, 255982.0
623.3080, 247408.0
624.4730, 238759.0
625.6370, 229843.0
626.8010, 221619.0
627.9640, 213087.0
629.1280, 205500.0
630.2910, 197452.0
631.4550, 188770.0
632.6180, 181983.0
633.7810, 174850.0
634.9440, 168107.0
636.1060, 162096.0
637.2690, 156092.0
638.4310, 150269.0
639.5930, 145922.0
640.7550, 140410.0
641.9170, 136148.0
643.0780, 131725.0
644.2400, 128132.0
645.4010, 123876.0
646.5620, 120681.0
647.7230, 117272.0
648.8840, 114422.0
650.0450, 111723.0
651.2050, 109353.0
652.3650, 106700.0
653.5250, 104518.5
654.6850, 102089.0
655.8450, 100386.0
657.0050, 98350.00
658.1640, 96663.95
659.3230, 95368.00
660.4830, 93591.00
661.6420, 91733.00
662.8000, 91095.00
663.9590, 89797.00
665.1170, 88293.00
666.2760, 87386.00
667.4340, 86122.11
668.5920, 85164.00
669.7500, 84050.00
670.9070, 82941.00
672.0650, 82096.00
673.2220, 81152.68
674.3790, 80520.00
675.5360, 79582.00
676.6930, 78928.00
677.8500, 78318.00
679.0060, 78038.00
680.1620, 77077.00
681.3190, 76193.00
682.4750, 76052.00
683.6300, 75210.00
684.7860, 74979.00
685.9420, 73885.00
687.0970, 73553.00
688.2520, 72770.00
689.4070, 72251.00
690.5620, 71840.00
691.7170, 71187.00
692.8710, 70845.00
694.0250, 70005.00
695.1800, 69333.00
696.3340, 68865.00
697.4870, 68273.00
698.6410, 67484.00
699.7950, 66924.00
700.9480, 66281.97
702.1010, 65644.30
703.2540, 65072.00
704.4070, 64489.00
705.5600, 63883.00
706.7120, 63407.00
707.8640, 62994.00
709.0170, 62297.00
710.1690, 61367.00
711.3210, 61090.00
712.4720, 60862.00
713.6240, 59851.00
714.7750, 59412.00
715.9260, 58914.00
717.0770, 58331.00
718.2280, 57811.85
719.3790, 57266.67
720.5290, 56734.00
721.6800, 56177.00
722.8300, 55785.00
723.9800, 55254.00
725.1300, 54928.00
726.2800, 54463.00
727.4290, 53984.00
728.5790, 53586.00
729.7280, 53122.00
730.8770, 52733.00
732.0260, 52371.00
733.1750, 52194.00
734.3230, 51803.95
735.4720, 51386.00
736.6200, 51276.00
737.7680, 50766.00
738.9160, 50709.00
740.0640, 50718.00
741.2110, 50165.00
742.3590, 49819.00
743.5060, 49631.00
744.6530, 49645.00
745.8000, 49318.00
746.9470, 49060.00
748.0930, 48878.00
749.2400, 48703.00
750.3860, 48529.00
751.5320, 48347.00
752.6780, 48483.00
753.8240, 48262.00
754.9690, 48534.00
756.1150, 48312.00
757.2600, 48360.00
758.4050, 48480.00
759.5500, 48359.00
760.6950, 48395.21
761.8400, 48155.00
762.9840, 48504.00
764.1280, 48207.00
765.2730, 48642.00
766.4170, 48509.00
767.5600, 48559.00
768.7040, 48854.00
769.8470, 48975.00
770.9910, 49214.00
772.1340, 49298.00
773.2770, 49938.00
774.4200, 49751.00
775.5620, 49839.00
776.7050, 50439.00
777.8470, 50450.00
778.9890, 50765.00
780.1310, 51095.00
781.2730, 51257.00
782.4150, 51350.00
783.5570, 51933.00
784.6980, 52153.00
785.8390, 52539.00
786.9800, 53080.00
788.1210, 53117.00
789.2620, 53943.00
790.4020, 53349.00
791.5430, 53666.00
792.6830, 53661.00
793.8230, 54207.00
794.9630, 54093.00
796.1020, 54430.00
797.2420, 54345.00
798.3810, 54835.00
799.5210, 54647.00
800.6600, 54712.00
801.7990, 54508.00
802.9370, 54353.00
804.0760, 54153.00
805.2140, 54003.00
806.3530, 53739.73
807.4910, 53437.11
808.6290, 53075.00
809.7660, 52868.00
810.9040, 52264.00
812.0420, 52226.00
813.1790, 51704.00
814.3160, 51322.00
815.4530, 50989.00
816.5900, 50747.00
817.7260, 50107.00
818.8630, 49946.00
819.9990, 49246.00
821.1350, 48923.00
822.2710, 48570.00
823.4070, 48161.00
824.5430, 47460.00
825.6780, 47277.00
826.8130, 46489.00
827.9490, 46187.00
829.0840, 45847.00
830.2180, 45399.00
831.3530, 44742.00
832.4880, 44180.00
833.6220, 43501.00
834.7560, 43037.00
835.8900, 42518.00
837.0240, 41993.00
838.1580, 41422.59
839.2910, 40500.00
840.4250, 40167.00
841.5580, 39401.00
842.6910, 38629.00
843.8240, 38320.00
844.9560, 37631.00
846.0890, 37069.00
847.2210, 36582.00
848.3540, 36029.27
849.4860, 35578.42
850.6180, 35108.00
851.7490, 34657.00
852.8810, 34288.09
854.0120, 33769.00
855.1440, 33553.00
856.2750, 32907.00
857.4060, 32642.22
858.5360, 32233.64
859.6670, 31917.00
860.7980, 31350.00
861.9280, 31387.00
863.0580, 30719.00
864.1880, 30563.00
865.3180, 30019.00
866.4470, 29913.00
867.5770, 29533.00
868.7060, 29545.00
869.8350, 29390.00
870.9640, 28992.00
872.0930, 28724.00
873.2220, 28601.00
874.3500, 28547.00
875.4790, 28283.30
876.6070, 27956.00
877.7350, 27811.00
878.8630, 27666.00
879.9900, 27313.00
881.1180, 27428.00
882.2450, 27198.00
883.3730, 26968.00
884.5000, 26728.00
885.6260, 26602.54
886.7530, 26578.00
887.8800, 26437.00
889.0060, 26326.99
890.1320, 26262.00
891.2580, 26075.00
892.3840, 25929.00
893.5100, 25820.00
894.6360, 25946.00
895.7610, 25679.00
896.8860, 25691.00
898.0120, 25505.00
899.1360, 25347.00
900.2610, 25332.00
901.3860, 25333.00
902.5100, 25184.00
903.6350, 24905.00
904.7590, 24939.00
905.8830, 24927.00
907.0070, 24984.00
908.1300, 24709.00
909.2540, 24592.00
910.3770, 24763.00
911.5000, 24481.00
912.6230, 24470.00
913.7460, 24449.00
914.8690, 24684.00
915.9910, 24307.00
917.1140, 24514.00
918.2360, 24187.00
919.3580, 24160.31
920.4800, 24090.83
921.6020, 23982.00
922.7230, 23964.00
923.8440, 23750.00
924.9660, 23850.00
926.0870, 23915.00
927.2080, 23637.00
928.3280, 23669.00
929.4490, 23494.00
930.5700, 23772.00
931.6900, 23740.00
932.8100, 23591.00
933.9300, 23523.00
935.0500, 23462.00
936.1690, 23420.00
937.2890, 23418.00
938.4080, 23354.00
939.5270, 23325.00
940.6460, 23019.00
941.7650, 22990.00
942.8840, 23045.00
944.0020, 22833.00
945.1200, 22849.00
946.2390, 22859.00
947.3570, 22748.00
948.4750, 22768.00
949.5920, 22716.00
950.7100, 22669.00
951.8270, 22663.00
952.9440, 22638.00
954.0610, 22615.66
955.1780, 22584.65
956.2950, 22575.15
957.4120, 22506.26
958.5280, 22471.00
959.6440, 22423.00
960.7600, 22274.00
961.8760, 22323.00
962.9920, 22329.00
964.1080, 22234.00
965.2230, 22043.00
966.3380, 22262.00
967.4540, 21994.00
968.5690, 22066.00
969.6830, 22090.00
970.7980, 22048.00
971.9120, 21931.00
973.0270, 21928.00
974.1410, 21889.00
975.2550, 21914.00
976.3690, 21679.00
977.4820, 21739.00
978.5960, 21426.00
979.7090, 21596.00
980.8230, 21705.00
981.9360, 21589.00
983.0490, 21620.00
984.1610, 21743.00
985.2740, 21467.00
986.3860, 21414.00
987.4980, 21577.00
988.6110, 21455.00
989.7220, 21285.00
990.8340, 21472.00
991.9460, 21299.00
993.0570, 21395.00
994.1690, 21335.00
995.2800, 21443.00
996.3910, 21423.00
997.5010, 21213.00
998.6120, 21332.00
999.7230, 21209.00
1000.833, 21075.00
1001.943, 20901.00
1003.053, 21164.00
1004.163, 20923.00
1005.273, 20730.00
1006.382, 21027.00
1007.492, 20896.00
1008.601, 20835.00
1009.710, 20843.00
1010.819, 20929.00
1011.927, 20760.00
1013.036, 20977.00
1014.144, 20824.00
1015.253, 20697.00
1016.361, 20771.00
1017.469, 20615.00
1018.576, 20687.00
1019.684, 20732.00
1020.791, 20606.00
1021.899, 20813.00
1023.006, 20455.00
1024.113, 20611.00
1025.220, 20522.00
1026.326, 20621.00
1027.433, 20609.00
1028.539, 20565.00
1029.645, 20537.00
1030.751, 20516.55
1031.857, 20468.58
1032.963, 20437.00
1034.068, 20403.00
1035.174, 20410.81
1036.279, 20400.29
1037.384, 20436.00
1038.489, 20410.00
1039.594, 20398.47
1040.698, 20392.00
1041.803, 20332.00
1042.907, 20227.00
1044.011, 20249.00
1045.115, 20381.00
1046.219, 20307.00
1047.323, 20204.00
1048.426, 20032.00
1049.529, 20212.00
1050.632, 20137.00
1051.735, 20193.00
1052.838, 20253.00
1053.941, 20143.00
1055.043, 20030.00
1056.146, 20056.00
1057.248, 20155.00
1058.350, 20188.00
1059.452, 20151.07
1060.554, 20073.00
1061.655, 20032.00
1062.757, 19970.00
1063.858, 19887.00
1064.959, 19774.00
1066.060, 19728.00
1067.161, 19884.00
1068.261, 19737.00
1069.362, 19982.00
1070.462, 19732.00
1071.562, 19986.00
1072.662, 19954.00
1073.762, 19592.00
1074.862, 19607.00
1075.961, 19646.00
1077.061, 19729.00
1078.160, 19620.00
1079.259, 19471.00
1080.358, 19567.00
1081.456, 19627.00
1082.555, 19511.00
1083.653, 19583.00
1084.751, 19598.00
1085.850, 19423.00
1086.947, 19492.00
1088.045, 19434.00
1089.143, 19659.00
1090.240, 19354.00
1091.338, 19362.00
1092.435, 19507.00
1093.532, 19376.00
1094.628, 19239.00
1095.725, 19388.00
1096.822, 19257.00
1097.918, 19196.00
1099.014, 19216.00
1100.110, 19146.00
1101.206, 19239.00
1102.302, 19116.00
1103.397, 19430.00
1104.493, 19054.00
1105.588, 19189.00
1106.683, 19000.00
1107.778, 19084.00
1108.873, 19163.00
1109.967, 19019.00
1111.062, 19129.00
1112.156, 19064.00
1113.250, 19017.00
1114.344, 19125.00
1115.438, 19054.00
1116.531, 19054.00
1117.625, 18933.00
1118.718, 19025.00
1119.811, 18955.00
1120.904, 19009.00
1121.997, 19051.00
1123.090, 19195.00
1124.183, 19170.00
1125.275, 19151.35
1126.367, 19089.00
1127.459, 18977.00
1128.551, 19019.00
1129.643, 18858.00
1130.735, 18876.00
1131.826, 18755.00
1132.917, 18830.00
1134.008, 18656.00
1135.099, 18747.00
1136.190, 18587.00
1137.281, 18726.00
1138.371, 18664.00
1139.462, 18596.21
1140.552, 18738.60
1141.642, 18815.83
1142.732, 18831.39
1143.821, 18600.60
1144.911, 18687.92
1146.000, 18647.76
1147.090, 18602.37
1148.179, 18734.47
1149.268, 18539.51
1150.356, 18668.80
1151.445, 18668.66
1152.533, 18727.76
1153.622, 18658.57
1154.710, 18629.02
1155.798, 18727.78
1156.886, 18755.49
1157.973, 18671.55
1159.061, 18734.42
1160.148, 18534.98
1161.235, 18565.73
1162.322, 18695.78
1163.409, 18618.29
1164.496, 18683.51
1165.583, 18694.37
1166.669, 18458.25
1167.755, 18651.68
1168.841, 18659.34
1169.927, 18476.25
1171.013, 18654.96
1172.099, 18498.18
1173.184, 18461.15
1174.269, 18514.24
1175.355, 18473.38
1176.440, 18580.64
1177.524, 18545.22
1178.609, 18497.04
1179.694, 18504.50
1180.778, 18460.64
1181.862, 18496.59
1182.946, 18439.09
1184.030, 18480.91
1185.114, 18545.23
1186.197, 18437.19
1187.281, 18511.63
1188.364, 18303.09
1189.447, 18331.34
1190.530, 18334.08
1191.613, 18488.18
1192.696, 18281.02
1193.778, 18302.69
1194.860, 18421.79
1195.943, 18404.56
1197.025, 18444.33
1198.107, 18315.36
1199.188, 18344.92
1200.270, 18330.77
1201.351, 18467.62
1202.432, 18485.28
1203.514, 18359.17
1204.594, 18233.69
1205.675, 18381.40
1206.756, 18270.17
1207.836, 18298.65
1208.917, 18182.83
1209.997, 18191.60
1211.077, 18198.40
1212.157, 18269.05
1213.236, 18249.67
1214.316, 18274.26
1215.395, 18257.29
1216.474, 18283.08
1217.553, 18304.11
1218.632, 18314.98
1219.711, 18279.36
1220.790, 18330.68
1221.868, 18196.62
1222.946, 18132.90
1224.024, 18119.18
1225.102, 18341.45
1226.180, 18344.37
1227.258, 18085.11
1228.335, 18296.98
1229.413, 18219.00
1230.490, 18227.16
1231.567, 18203.90
1232.644, 18189.93
1233.720, 18195.43
1234.797, 18081.29
1235.873, 18231.73
1236.950, 18166.00
1238.026, 18247.16
1239.102, 18060.64
1240.177, 18033.02
1241.253, 18047.56
1242.328, 18077.49
1243.404, 17984.52
1244.479, 18009.51
1245.554, 17994.15
1246.629, 17973.85
1247.703, 17975.04
1248.778, 17950.69
1249.852, 17910.64
1250.926, 18068.22
1252.001, 17918.30
1253.074, 18058.21
1254.148, 18105.22
1255.222, 18026.64
1256.295, 18014.80
1257.369, 17876.35
1258.442, 17932.07
1259.515, 17921.00
1260.587, 18019.97
1261.660, 17882.03
1262.733, 18016.81
1263.805, 17885.24
1264.877, 18031.07
1265.949, 17893.86
1267.021, 18008.78
1268.093, 17822.75
1269.164, 17854.55
1270.236, 17903.62
1271.307, 18008.45
1272.378, 17898.88
1273.449, 17975.00
1274.520, 17867.00
1275.591, 17877.00
1276.661, 17765.00
1277.731, 17772.00
1278.802, 17956.00
1279.872, 17646.00
1280.941, 17867.00
1282.011, 17714.00
1283.081, 18011.00
1284.150, 17876.00
1285.219, 17758.00
1286.288, 17711.00
1287.357, 17643.75
1288.426, 17935.00
1289.495, 17666.00
1290.563, 17715.00
1291.632, 17904.00
1292.700, 17793.28
1293.768, 17801.52
1294.836, 17856.00
1295.903, 17604.00
1296.971, 17631.00
1298.038, 17456.00
1299.106, 17527.00
1300.173, 17586.17
1301.240, 17612.00
1302.306, 17800.00
1303.373, 17688.00
1304.439, 17752.00
1305.506, 17656.00
1306.572, 17498.00
1307.638, 17512.00
1308.704, 17469.19
1309.769, 17621.00
1310.835, 17512.00
1311.900, 17623.00
1312.965, 17681.00
1314.031, 17684.00
1315.095, 17562.00
1316.160, 17508.00
1317.225, 17533.00
1318.289, 17536.43
1319.354, 17458.00
1320.418, 17577.00
1321.482, 17485.00
1322.546, 17518.73
1323.609, 17446.00
1324.673, 17522.00
1325.736, 17474.00
1326.799, 17432.00
1327.862, 17476.00
1328.925, 17421.86
1329.988, 17494.00
1331.051, 17394.00
1332.113, 17396.00
1333.175, 17418.00
1334.238, 17617.00
1335.300, 17408.00
1336.361, 17628.00
1337.423, 17365.00
1338.485, 17576.00
1339.546, 17437.00
1340.607, 17409.00
1341.668, 17324.00
1342.729, 17329.76
1343.790, 17407.00
1344.850, 17374.00
1345.911, 17427.00
1346.971, 17435.00
1348.031, 17320.00
1349.091, 17372.00
1350.151, 17577.00
1351.211, 17446.00
1352.270, 17512.00
1353.330, 17362.00
1354.389, 17630.00
1355.448, 17451.00
1356.507, 17471.00
1357.566, 17315.00
1358.624, 17399.00
1359.683, 17483.00
1360.741, 17627.00
1361.799, 17462.00
1362.857, 17255.00
1363.915, 17648.00
1364.973, 17461.00
1366.030, 17422.00
1367.087, 17401.00
1368.145, 17379.00
1369.202, 17191.00
1370.259, 17513.00
1371.315, 17343.00
1372.372, 17604.00
1373.428, 17415.00
1374.485, 17251.00
1375.541, 17361.00
1376.597, 17309.00
1377.653, 17327.00
1378.708, 17332.16
1379.764, 17284.00
1380.819, 17324.00
1381.874, 17360.00
1382.930, 17410.00
1383.984, 17400.64
1385.039, 17348.00
1386.094, 17360.00
1387.148, 17339.00
1388.203, 17279.00
1389.257, 17339.00
1390.311, 17365.00
1391.365, 17458.00
1392.418, 17463.00
1393.472, 17336.00
1394.525, 17316.00
1395.578, 17347.00
1396.631, 17365.00
1397.684, 17328.00
1398.737, 17281.00
1399.790, 17354.00
1400.842, 17472.00
1401.895, 17463.00
1402.947, 17489.32
1403.999, 17339.00
1405.051, 17443.00
1406.102, 17442.00
1407.154, 17395.00
1408.205, 17424.64
1409.256, 17358.00
1410.308, 17396.00
1411.358, 17288.00
1412.409, 17284.00
1413.460, 17277.62
1414.510, 17227.20
1415.561, 17274.00
1416.611, 17244.00
1417.661, 17248.00
1418.711, 17391.00
1419.760, 17440.00
1420.810, 17450.00
1421.859, 17484.29
1422.909, 17467.53
1423.958, 17404.00
1425.007, 17414.00
1426.055, 17368.73
1427.104, 17329.00
1428.153, 17336.00
1429.201, 17391.00
1430.249, 17407.00
1431.297, 17444.01
1432.345, 17438.71
1433.393, 17443.76
1434.440, 17412.00
1435.488, 17299.64
1436.535, 17447.98
1437.582, 17531.15
1438.629, 17552.66
1439.676, 17327.81
1440.723, 17421.08
1441.769, 17386.86
1442.815, 17347.41
1443.862, 17485.46
1444.908, 17296.44
1445.954, 17431.67
1446.999, 17437.46
1448.045, 17502.50
1449.090, 17439.26
1450.136, 17415.64
1451.181, 17520.33
1452.226, 17553.98
1453.271, 17475.97
1454.315, 17544.77
1455.360, 17351.27
1456.404, 17387.95
1457.448, 17523.93
1458.492, 17452.37
1459.536, 17523.52
1460.580, 17540.31
1461.624, 17310.11
1462.667, 17509.47
1463.711, 17523.05
1464.754, 17345.89
1465.797, 17530.53
1466.840, 17379.67
1467.882, 17348.56
1468.925, 17407.57
1469.967, 17372.63
1471.010, 17485.81
1472.052, 17456.30
1473.094, 17414.04
1474.135, 17427.42
1475.177, 17389.48
1476.218, 17431.35
1477.260, 17379.76
1478.301, 17427.49
1479.342, 17497.72
1480.383, 17395.60
1481.424, 17475.95
1482.464, 17273.32
1483.505, 17307.47
1484.545, 17316.12
1485.585, 17519.00
1486.625, 17625.00
1487.665, 17607.07
1488.705, 17459.00
1489.744, 17558.00
1490.783, 17567.00
1491.823, 17426.00
1492.862, 17451.00
1493.901, 17542.13
1494.939, 17499.00
1495.978, 17572.71
1497.016, 17563.00
1498.055, 17653.00
1499.093, 17600.00
1500.131, 17616.00
1501.169, 17667.00
1502.206, 17589.10
1503.244, 17791.00
1504.281, 17584.00
1505.319, 17589.00
1506.356, 17811.00
1507.393, 17710.00
1508.430, 17772.00
1509.466, 17602.00
1510.503, 17659.00
1511.539, 17723.00
1512.575, 17617.00
1513.611, 17619.00
1514.647, 17665.00
1515.683, 17671.00
1516.718, 17796.00
1517.754, 17645.00
1518.789, 17734.00
1519.824, 17853.00
1520.859, 17830.00
1521.894, 17910.00
1522.929, 17806.00
1523.963, 17735.00
1524.998, 17892.00
1526.032, 17957.00
1527.066, 17920.62
1528.100, 17963.33
1529.134, 17824.15
1530.167, 17986.64
1531.201, 18083.98
1532.234, 18119.64
1533.267, 17908.93
1534.300, 18016.35
1535.333, 17996.29
1536.366, 17970.99
1537.398, 18123.17
1538.431, 17948.30
1539.463, 18097.67
1540.495, 18117.60
1541.527, 18196.77
1542.559, 18147.66
1543.591, 18138.18
1544.622, 18257.00
1545.654, 18304.78
1546.685, 18240.90
1547.716, 18323.82
1548.747, 18144.44
1549.778, 18195.24
1550.808, 18345.33
1551.839, 18287.89
1552.869, 18373.15
1553.899, 18404.05
1554.929, 18187.96
1555.959, 18401.43
1556.989, 18429.12
1558.018, 18266.06
1559.048, 18464.80
1560.077, 18328.04
1561.106, 18311.02
1562.135, 18384.13
1563.164, 18363.29
1564.192, 18490.55
1565.221, 18475.13
1566.249, 18446.96
1567.277, 18474.42
1568.306, 18450.57
1569.333, 18506.51
1570.361, 18469.00
1571.389, 18530.81
1572.416, 18615.12
1573.444, 18527.07
1574.471, 18621.49
1575.498, 18432.93
1576.525, 18481.15
1577.551, 18503.86
1578.578, 18677.92
1579.604, 18491.00
1580.630, 18457.00
##END=



