##NAMES=Rutile
##RRUFFID=R040049
##IDEAL CHEMISTRY=Ti^4+^O_2_
##LOCALITY=Graves Mountain, Lincoln County, Georgia, USA
##OWNER=RRUFF
##SOURCE=University of Arizona Mineral Museum
##DESCRIPTION=Reddish-black fragments
##STATUS=The identification of this mineral has been confirmed by X-ray diffraction and chemical analysis
##URL=rruff.info/R040049
##MEASURED CHEMISTRY=(Ti_1.00_Fe_0.01_)O_2_
##PIN_ID=L00145
##ORIENTATION=Laser parallel to [1 -1 0]. Fiducial mark perpendicular to laser is parallel to c [0 0 1]
64.13000, 13838.00
65.37400, 15122.00
66.61700, 16466.00
67.86000, 17999.00
69.10300, 20143.00
70.34600, 21797.00
71.58900, 23936.00
72.83100, 26002.00
74.07400, 28714.00
75.31600, 30878.00
76.55800, 33158.00
77.80000, 35378.00
79.04100, 37617.00
80.28300, 39110.00
81.52400, 40968.00
82.76500, 42864.00
84.00600, 43643.61
85.24700, 45000.00
86.48700, 45081.00
87.72700, 45682.00
88.96800, 46128.00
90.20800, 46972.00
91.44800, 48163.00
92.68700, 48995.00
93.92700, 50153.00
95.16600, 50704.00
96.40500, 51585.00
97.64400, 52076.00
98.88300, 51978.00
100.1210, 52735.00
101.3600, 53117.00
102.5980, 53757.00
103.8360, 54183.00
105.0740, 54860.00
106.3120, 55778.00
107.5490, 56106.16
108.7870, 57484.00
110.0240, 57064.00
111.2610, 57162.00
112.4980, 57705.00
113.7340, 58296.43
114.9710, 58960.16
116.2070, 59445.45
117.4430, 59760.68
118.6790, 59478.30
119.9150, 59905.04
121.1510, 60009.34
122.3860, 60074.12
123.6210, 60522.51
124.8560, 60186.51
126.0910, 60573.86
127.3260, 60634.30
128.5600, 60804.62
129.7950, 60650.75
131.0290, 60561.37
132.2630, 60741.82
133.4970, 60656.00
134.7300, 60394.00
135.9640, 60280.00
137.1970, 60109.00
138.4300, 60114.00
139.6630, 59908.00
140.8960, 59709.26
142.1290, 59293.00
143.3610, 58988.00
144.5930, 58288.00
145.8250, 57389.00
147.0570, 57159.00
148.2890, 56563.00
149.5210, 56471.00
150.7520, 55527.00
151.9830, 55251.00
153.2140, 54455.00
154.4450, 54048.00
155.6760, 53627.00
156.9060, 53072.00
158.1370, 52548.00
159.3670, 52472.00
160.5970, 51752.00
161.8270, 51713.00
163.0560, 51616.00
164.2860, 51371.00
165.5150, 51758.00
166.7440, 51239.00
167.9730, 51230.00
169.2020, 50954.00
170.4300, 51381.00
171.6590, 51534.00
172.8870, 51880.00
174.1150, 52075.00
175.3430, 52547.00
176.5700, 52941.00
177.7980, 53365.00
179.0250, 53769.00
180.2520, 54459.00
181.4790, 55022.00
182.7060, 55894.00
183.9330, 56508.00
185.1590, 57010.00
186.3860, 57953.00
187.6120, 58080.00
188.8380, 58957.00
190.0630, 59544.00
191.2890, 59961.00
192.5150, 60641.00
193.7400, 61232.00
194.9650, 61719.88
196.1900, 61946.00
197.4140, 62729.00
198.6390, 63062.00
199.8630, 63492.00
201.0880, 64138.00
202.3120, 64307.00
203.5350, 64922.00
204.7590, 65562.00
205.9830, 65866.00
207.2060, 66695.00
208.4290, 66768.00
209.6520, 67452.00
210.8750, 67921.00
212.0970, 68766.00
213.3200, 69231.00
214.5420, 69844.00
215.7640, 70521.00
216.9860, 71050.00
218.2080, 71557.00
219.4300, 72100.00
220.6510, 73095.00
221.8720, 73301.00
223.0930, 74332.00
224.3140, 75052.00
225.5350, 75533.00
226.7550, 75914.00
227.9760, 76936.00
229.1960, 78181.00
230.4160, 77911.00
231.6360, 79147.00
232.8550, 79149.00
234.0750, 79928.00
235.2940, 80745.00
236.5130, 81149.00
237.7320, 81479.00
238.9510, 81996.00
240.1700, 82135.00
241.3880, 82051.00
242.6070, 82165.00
243.8250, 81908.62
245.0430, 81689.00
246.2600, 81266.00
247.4780, 80922.00
248.6950, 80415.00
249.9120, 79596.00
251.1300, 78885.00
252.3460, 77764.00
253.5630, 77583.00
254.7800, 76080.00
255.9960, 74987.00
257.2120, 74300.00
258.4280, 73913.00
259.6440, 73477.00
260.8600, 72050.00
262.0750, 71126.00
263.2910, 71329.00
264.5060, 69879.00
265.7210, 69297.00
266.9360, 68891.00
268.1500, 68430.00
269.3650, 67794.00
270.5790, 67164.00
271.7930, 66611.00
273.0070, 66007.00
274.2210, 65899.00
275.4340, 65445.00
276.6480, 64722.00
277.8610, 64591.00
279.0740, 63876.00
280.2870, 63510.00
281.5000, 63696.00
282.7120, 63095.00
283.9250, 62222.00
285.1370, 62041.00
286.3490, 61324.00
287.5610, 60803.00
288.7720, 60835.00
289.9840, 60036.00
291.1950, 59721.00
292.4060, 59405.00
293.6170, 59344.00
294.8280, 59056.00
296.0390, 58766.91
297.2490, 58059.00
298.4600, 58185.00
299.6700, 57746.00
300.8800, 57556.00
302.0890, 57726.00
303.2990, 57481.47
304.5080, 57437.19
305.7180, 57478.00
306.9270, 57306.00
308.1360, 57436.00
309.3450, 57558.00
310.5530, 57735.00
311.7620, 57807.30
312.9700, 57956.08
314.1780, 57969.00
315.3860, 58129.00
316.5930, 58204.00
317.8010, 58122.00
319.0080, 58067.00
320.2150, 58202.00
321.4230, 58179.00
322.6290, 57953.00
323.8360, 58076.00
325.0430, 57900.00
326.2490, 57891.00
327.4550, 57888.00
328.6610, 57468.00
329.8670, 57373.00
331.0730, 57482.00
332.2780, 57213.00
333.4830, 57243.00
334.6880, 57095.21
335.8930, 56662.00
337.0980, 56820.00
338.3030, 56495.00
339.5070, 56386.00
340.7110, 56288.00
341.9160, 56295.00
343.1200, 56567.00
344.3230, 55961.00
345.5270, 55656.00
346.7300, 55620.00
347.9340, 56014.00
349.1370, 55941.00
350.3390, 55947.00
351.5420, 55926.00
352.7450, 55883.00
353.9470, 55852.89
355.1490, 55870.00
356.3510, 55704.00
357.5530, 55799.00
358.7550, 55625.00
359.9560, 55777.00
361.1580, 55402.00
362.3590, 55698.00
363.5600, 55551.00
364.7610, 55504.00
365.9610, 54995.00
367.1620, 55254.00
368.3620, 54829.00
369.5620, 54685.50
370.7620, 54674.00
371.9620, 54314.00
373.1620, 54632.00
374.3610, 54514.00
375.5610, 54426.00
376.7600, 54371.00
377.9590, 54332.00
379.1570, 53707.00
380.3560, 53758.00
381.5550, 53753.00
382.7530, 53876.00
383.9510, 54152.00
385.1490, 54020.00
386.3470, 53316.00
387.5440, 53727.00
388.7420, 53483.00
389.9390, 53763.00
391.1360, 53568.00
392.3330, 53408.00
393.5290, 53558.00
394.7260, 53223.00
395.9220, 53432.00
397.1190, 53492.00
398.3150, 53852.00
399.5110, 53449.00
400.7060, 53436.00
401.9020, 53595.00
403.0970, 53628.00
404.2920, 53500.00
405.4870, 53838.00
406.6820, 53638.00
407.8770, 53730.00
409.0710, 53836.00
410.2660, 54205.00
411.4600, 54644.00
412.6540, 54562.00
413.8480, 54772.00
415.0410, 55217.00
416.2350, 55095.00
417.4280, 55471.00
418.6210, 55756.00
419.8140, 56394.00
421.0070, 56729.00
422.2000, 57124.89
423.3920, 57093.00
424.5840, 57736.00
425.7770, 58011.00
426.9690, 58029.00
428.1600, 59042.00
429.3520, 59220.00
430.5430, 59842.00
431.7350, 60288.00
432.9260, 60638.00
434.1170, 60906.00
435.3070, 61592.00
436.4980, 62048.00
437.6880, 62573.00
438.8790, 62776.00
440.0690, 62975.00
441.2590, 63185.00
442.4480, 63154.00
443.6380, 63206.00
444.8270, 63337.89
446.0170, 63469.25
447.2060, 63485.37
448.3950, 63389.99
449.5830, 62985.92
450.7720, 62876.02
451.9600, 62584.53
453.1480, 62241.91
454.3360, 62043.39
455.5240, 61449.88
456.7120, 61157.27
457.9000, 60680.84
459.0870, 60222.62
460.2740, 59581.89
461.4610, 59601.00
462.6480, 58712.00
463.8350, 58164.00
465.0210, 58144.00
466.2070, 57410.00
467.3940, 57136.00
468.5800, 56669.00
469.7660, 55998.00
470.9510, 56012.00
472.1370, 55575.00
473.3220, 54879.00
474.5070, 54673.00
475.6920, 54321.00
476.8770, 54330.00
478.0620, 53995.55
479.2460, 53756.00
480.4300, 53446.00
481.6150, 53146.00
482.7980, 52749.00
483.9820, 52437.00
485.1660, 52469.00
486.3490, 52614.00
487.5330, 52110.00
488.7160, 51976.00
489.8990, 52003.00
491.0820, 51794.00
492.2640, 51744.12
493.4470, 51710.00
494.6290, 51559.00
495.8110, 51473.00
496.9930, 51384.00
498.1750, 51296.00
499.3560, 51390.00
500.5380, 51579.00
501.7190, 51853.00
502.9000, 51419.00
504.0810, 51840.00
505.2620, 51828.00
506.4420, 52199.00
507.6230, 52151.00
508.8030, 52474.82
509.9830, 52895.00
511.1630, 52959.00
512.3430, 53335.00
513.5220, 53377.00
514.7020, 53889.00
515.8810, 54242.00
517.0600, 54340.00
518.2390, 54858.00
519.4180, 55118.54
520.5960, 55701.00
521.7750, 55833.00
522.9530, 56251.00
524.1310, 56638.09
525.3090, 56461.00
526.4870, 57174.00
527.6640, 57608.00
528.8420, 57912.00
530.0190, 58748.00
531.1960, 59020.00
532.3730, 59561.00
533.5490, 60214.00
534.7260, 60676.00
535.9020, 60951.00
537.0790, 61864.00
538.2550, 62532.00
539.4310, 62920.00
540.6060, 63707.00
541.7820, 64632.00
542.9570, 65601.00
544.1320, 66310.00
545.3070, 67714.00
546.4820, 68091.00
547.6570, 69250.00
548.8310, 70508.00
550.0060, 71776.00
551.1800, 72853.00
552.3540, 74354.00
553.5280, 75862.00
554.7020, 77673.00
555.8750, 79077.00
557.0480, 80846.00
558.2220, 82399.00
559.3950, 84106.00
560.5680, 86464.00
561.7400, 88799.00
562.9130, 91036.00
564.0850, 93124.00
565.2570, 96029.00
566.4290, 98523.00
567.6010, 101380.0
568.7730, 104172.0
569.9440, 107504.0
571.1160, 110603.0
572.2870, 114231.0
573.4580, 117598.0
574.6290, 121492.0
575.7990, 125234.0
576.9700, 129721.0
578.1400, 133537.0
579.3100, 138505.0
580.4800, 142815.0
581.6500, 147303.0
582.8200, 152227.0
583.9890, 157662.0
585.1590, 163734.0
586.3280, 169135.0
587.4970, 175353.0
588.6660, 181216.0
589.8340, 188103.0
591.0030, 193991.0
592.1710, 201999.0
593.3390, 208611.0
594.5070, 216375.0
595.6750, 223846.0
596.8430, 232303.0
598.0100, 240437.0
599.1780, 248655.0
600.3450, 257354.0
601.5120, 266297.0
602.6790, 273438.0
603.8450, 280580.0
605.0120, 288240.0
606.1780, 294503.0
607.3440, 300974.0
608.5100, 304825.0
609.6760, 308470.0
610.8420, 309958.0
612.0070, 311610.0
613.1730, 311287.0
614.3380, 310064.0
615.5030, 308191.0
616.6680, 304560.0
617.8320, 298456.0
618.9970, 293166.0
620.1610, 285520.0
621.3250, 278285.0
622.4890, 269552.0
623.6530, 261060.0
624.8170, 251934.0
625.9800, 243091.0
627.1440, 234059.0
628.3070, 224011.0
629.4700, 216668.0
630.6330, 207036.0
631.7950, 199668.0
632.9580, 191073.0
634.1200, 183910.0
635.2820, 176593.0
636.4440, 170021.0
637.6060, 163825.0
638.7680, 158140.0
639.9290, 152461.1
641.0900, 147258.8
642.2520, 142273.0
643.4130, 137619.0
644.5730, 133457.0
645.7340, 129342.0
646.8950, 125821.0
648.0550, 121879.0
649.2150, 118868.0
650.3750, 116086.0
651.5350, 112862.0
652.6950, 110595.0
653.8540, 107484.0
655.0140, 105579.0
656.1730, 103545.0
657.3320, 101471.0
658.4910, 99851.00
659.6490, 98712.00
660.8080, 96365.00
661.9660, 95182.00
663.1240, 93572.59
664.2820, 91751.00
665.4400, 90740.00
666.5980, 89412.00
667.7550, 88316.00
668.9130, 87261.00
670.0700, 86485.00
671.2270, 85475.00
672.3840, 84594.00
673.5400, 83695.00
674.6970, 82642.00
675.8530, 81808.00
677.0090, 80959.00
678.1650, 80339.00
679.3210, 79771.00
680.4770, 78973.00
681.6330, 78453.00
682.7880, 77513.00
683.9430, 77277.00
685.0980, 76075.00
686.2530, 75763.00
687.4080, 75058.00
688.5620, 74121.00
689.7170, 73876.00
690.8710, 72796.00
692.0250, 72561.00
693.1790, 72110.00
694.3320, 70952.00
695.4860, 70611.00
696.6390, 69663.00
697.7930, 69083.00
698.9460, 68554.00
700.0980, 67699.00
701.2510, 67188.00
702.4040, 66235.00
703.5560, 65776.00
704.7080, 65346.00
705.8600, 64718.00
707.0120, 64163.00
708.1640, 63447.00
709.3160, 62876.00
710.4670, 62226.83
711.6180, 61413.00
712.7690, 61024.00
713.9200, 60184.00
715.0710, 59734.00
716.2220, 59224.00
717.3720, 58545.00
718.5220, 57806.00
719.6720, 57644.00
720.8220, 56920.00
721.9720, 56152.00
723.1220, 55704.00
724.2710, 55597.00
725.4200, 54662.00
726.5690, 54326.00
727.7180, 53627.00
728.8670, 53723.00
730.0160, 53031.00
731.1640, 52294.00
732.3120, 52211.00
733.4600, 51739.00
734.6080, 51547.00
735.7560, 51118.00
736.9040, 50729.00
738.0510, 50592.00
739.1980, 50357.00
740.3460, 50093.41
741.4930, 49611.00
742.6390, 49621.00
743.7860, 49127.00
744.9320, 48850.00
746.0790, 48593.00
747.2250, 48558.00
748.3710, 48309.21
749.5170, 48339.00
750.6620, 47999.00
751.8080, 47933.00
752.9530, 47802.00
754.0980, 47659.15
755.2430, 47492.00
756.3880, 47532.00
757.5330, 47471.00
758.6770, 47502.36
759.8220, 47502.25
760.9660, 47448.00
762.1100, 47533.00
763.2540, 47512.00
764.3970, 47556.00
765.5410, 47410.00
766.6840, 47636.00
767.8270, 47871.00
768.9700, 47784.00
770.1130, 48147.00
771.2560, 48310.00
772.3980, 48226.00
773.5410, 48485.00
774.6830, 48743.00
775.8250, 49095.00
776.9670, 49297.00
778.1080, 49760.00
779.2500, 50052.00
780.3910, 49997.00
781.5330, 50316.00
782.6740, 50258.00
783.8150, 50965.00
784.9550, 51083.00
786.0960, 51355.00
787.2360, 51641.00
788.3770, 52010.00
789.5170, 52275.00
790.6570, 52643.00
791.7960, 53044.00
792.9360, 53200.57
794.0750, 53332.86
795.2150, 53490.00
796.3540, 53428.00
797.4930, 53417.00
798.6310, 53585.00
799.7700, 53735.00
800.9080, 53697.00
802.0470, 53676.42
803.1850, 53319.00
804.3230, 53403.00
805.4610, 52990.00
806.5980, 52747.00
807.7360, 52412.00
808.8730, 52314.00
810.0100, 52318.00
811.1470, 51879.00
812.2840, 51484.00
813.4200, 51218.00
814.5570, 50324.00
815.6930, 50271.00
816.8290, 49675.00
817.9650, 49536.00
819.1010, 49028.00
820.2370, 48525.00
821.3720, 47867.00
822.5080, 47667.00
823.6430, 46804.00
824.7780, 46706.00
825.9130, 46391.00
827.0480, 45959.00
828.1820, 45288.00
829.3160, 44957.00
830.4510, 44456.00
831.5850, 43932.00
832.7190, 43308.00
833.8520, 42823.00
834.9860, 42275.00
836.1190, 41813.00
837.2520, 41033.00
838.3860, 40434.00
839.5180, 39887.00
840.6510, 39247.00
841.7840, 38707.00
842.9160, 37785.00
844.0480, 37605.00
845.1810, 36742.00
846.3120, 35873.00
847.4440, 35715.00
848.5760, 35148.00
849.7070, 34597.00
850.8390, 34113.00
851.9700, 33504.00
853.1010, 32937.00
854.2310, 32639.00
855.3620, 32206.00
856.4930, 31612.00
857.6230, 31483.00
858.7530, 31062.00
859.8830, 30703.00
861.0130, 30052.00
862.1430, 30047.00
863.2720, 29348.00
864.4010, 29622.00
865.5310, 29277.00
866.6600, 28816.00
867.7880, 28674.00
868.9170, 28207.00
870.0460, 27769.00
871.1740, 27513.00
872.3020, 27282.00
873.4300, 27196.00
874.5580, 27078.00
875.6860, 26702.00
876.8130, 26595.00
877.9410, 26416.00
879.0680, 26125.00
880.1950, 26001.00
881.3220, 25989.00
882.4490, 25817.00
883.5750, 25812.00
884.7020, 25285.00
885.8280, 25233.00
886.9540, 24990.00
888.0800, 25123.00
889.2060, 25108.00
890.3320, 24837.00
891.4570, 24797.00
892.5820, 24362.00
893.7070, 24414.00
894.8320, 24324.00
895.9570, 24141.00
897.0820, 24346.00
898.2060, 23939.00
899.3310, 24204.00
900.4550, 23689.00
901.5790, 23651.00
902.7030, 23840.00
903.8260, 23647.00
904.9500, 23369.00
906.0730, 23414.00
907.1960, 23242.00
908.3200, 23231.00
909.4420, 23243.00
910.5650, 23235.00
911.6880, 23111.00
912.8100, 23201.00
913.9320, 22744.00
915.0540, 22999.00
916.1760, 22764.00
917.2980, 22774.00
918.4200, 22887.00
919.5410, 22816.00
920.6620, 22470.00
921.7830, 22578.00
922.9040, 22520.00
924.0250, 22283.00
925.1460, 22331.00
926.2660, 22106.00
927.3870, 22350.00
928.5070, 21920.00
929.6270, 22014.00
930.7470, 22111.00
931.8660, 21861.00
932.9860, 22019.00
934.1050, 21721.00
935.2240, 21577.00
936.3430, 21758.00
937.4620, 21403.00
938.5810, 21618.00
939.6990, 21552.00
940.8180, 21642.00
941.9360, 21524.00
943.0540, 21441.00
944.1720, 21273.00
945.2900, 21242.00
946.4070, 21406.00
947.5250, 21274.00
948.6420, 21192.00
949.7590, 21079.00
950.8760, 20997.00
951.9930, 20887.00
953.1090, 21016.00
954.2260, 21016.00
955.3420, 20964.00
956.4580, 20884.00
957.5740, 20843.37
958.6900, 20733.00
959.8060, 20692.00
960.9210, 20630.00
962.0360, 20517.00
963.1520, 20593.00
964.2670, 20480.00
965.3810, 20464.00
966.4960, 20510.00
967.6110, 20561.00
968.7250, 20282.00
969.8390, 20431.00
970.9530, 20321.00
972.0670, 20142.00
973.1810, 20344.00
974.2940, 20158.00
975.4080, 20225.00
976.5210, 19981.00
977.6340, 19959.00
978.7470, 19991.00
979.8600, 19941.00
980.9730, 19826.00
982.0850, 19939.00
983.1970, 19910.00
984.3090, 19833.00
985.4210, 19592.00
986.5330, 19885.00
987.6450, 19691.00
988.7560, 19802.00
989.8680, 19634.00
990.9790, 19734.00
992.0900, 19603.00
993.2010, 19572.00
994.3110, 19431.00
995.4220, 19352.00
996.5320, 19424.00
997.6430, 19519.00
998.7530, 19396.00
999.8630, 19265.00
1000.972, 19262.00
1002.082, 19112.00
1003.191, 19212.00
1004.301, 19183.00
1005.410, 19244.00
1006.519, 19145.00
1007.627, 19072.00
1008.736, 19014.00
1009.844, 19017.00
1010.953, 19014.00
1012.061, 19011.00
1013.169, 18874.00
1014.277, 18998.00
1015.384, 18797.00
1016.492, 18889.00
1017.599, 18814.00
1018.706, 18778.64
1019.813, 18647.00
1020.920, 18756.00
1022.027, 18776.00
1023.134, 18786.00
1024.240, 18609.00
1025.346, 18916.00
1026.452, 18510.00
1027.558, 18641.00
1028.664, 18813.00
1029.770, 18754.00
1030.875, 18773.00
1031.980, 18806.00
1033.086, 18770.70
1034.190, 18615.00
1035.295, 18734.00
1036.400, 18603.00
1037.504, 18543.00
1038.609, 18534.00
1039.713, 18626.00
1040.817, 18574.00
1041.921, 18459.00
1043.025, 18527.00
1044.128, 18283.00
1045.231, 18423.00
1046.335, 18256.00
1047.438, 18553.00
1048.541, 18389.59
1049.643, 18442.00
1050.746, 18299.00
1051.848, 18271.00
1052.951, 18438.00
1054.053, 18325.00
1055.155, 18171.00
1056.257, 18282.00
1057.358, 18089.00
1058.460, 18309.00
1059.561, 18114.00
1060.662, 18179.00
1061.763, 18160.00
1062.864, 18016.00
1063.965, 18074.00
1065.065, 17968.00
1066.166, 18111.00
1067.266, 17992.00
1068.366, 17975.00
1069.466, 17833.00
1070.566, 17831.00
1071.665, 18066.00
1072.765, 17913.00
1073.864, 18005.00
1074.963, 17753.00
1076.062, 17814.00
1077.161, 17535.00
1078.259, 17741.00
1079.358, 17833.00
1080.456, 17858.00
1081.554, 17719.00
1082.652, 17728.00
1083.750, 17665.00
1084.848, 17584.00
1085.945, 17637.00
1087.043, 17614.00
1088.140, 17534.00
1089.237, 17524.00
1090.334, 17530.00
1091.431, 17633.00
1092.527, 17418.00
1093.624, 17320.00
1094.720, 17462.00
1095.816, 17429.00
1096.912, 17291.00
1098.008, 17171.00
1099.104, 17196.36
1100.199, 17423.00
1101.294, 17192.00
1102.390, 17320.00
1103.485, 17242.00
1104.579, 17192.00
1105.674, 17277.00
1106.769, 17279.00
1107.863, 17155.00
1108.957, 17021.00
1110.051, 17266.00
1111.145, 17210.00
1112.239, 17229.00
1113.333, 17270.00
1114.426, 17231.00
1115.519, 17058.00
1116.612, 17029.00
1117.705, 17037.00
1118.798, 17086.00
1119.891, 16996.00
1120.983, 17088.00
1122.076, 17054.00
1123.168, 16975.73
1124.260, 17038.00
1125.352, 16857.00
1126.443, 16834.00
1127.535, 16893.00
1128.626, 16864.00
1129.718, 16989.00
1130.809, 16789.00
1131.900, 16811.57
1132.990, 16920.00
1134.081, 16706.00
1135.171, 16810.00
1136.262, 16799.00
1137.352, 16745.00
1138.442, 16826.00
1139.532, 16917.00
1140.621, 16842.00
1141.711, 16825.00
1142.800, 16643.00
1143.890, 16520.00
1144.979, 16816.00
1146.067, 16847.00
1147.156, 16628.00
1148.245, 16707.00
1149.333, 16678.00
1150.421, 16724.00
1151.510, 16670.00
1152.597, 16702.00
1153.685, 16577.00
1154.773, 16596.00
1155.860, 16571.00
1156.948, 16656.00
1158.035, 16601.00
1159.122, 16707.00
1160.209, 16681.00
1161.295, 16521.00
1162.382, 16533.00
1163.468, 16614.00
1164.555, 16421.00
1165.641, 16559.00
1166.727, 16604.00
1167.812, 16595.00
1168.898, 16498.00
1169.983, 16599.00
1171.069, 16508.00
1172.154, 16676.00
1173.239, 16635.00
1174.324, 16500.00
1175.408, 16606.00
1176.493, 16595.00
1177.577, 16659.00
1178.661, 16597.00
1179.745, 16516.00
1180.829, 16464.00
1181.913, 16462.00
1182.997, 16620.00
1184.080, 16540.00
1185.163, 16603.00
1186.246, 16597.00
1187.329, 16412.00
1188.412, 16687.00
1189.495, 16444.00
1190.577, 16552.00
1191.660, 16457.00
1192.742, 16464.00
1193.824, 16454.00
1194.906, 16489.00
1195.987, 16491.26
1197.069, 16456.00
1198.150, 16534.00
1199.232, 16511.00
1200.313, 16557.29
1201.394, 16528.00
1202.474, 16533.00
1203.555, 16494.00
1204.635, 16360.00
1205.716, 16513.00
1206.796, 16361.00
1207.876, 16608.00
1208.956, 16411.00
1210.035, 16338.00
1211.115, 16417.00
1212.194, 16275.00
1213.274, 16401.00
1214.353, 16404.00
1215.432, 16421.00
1216.510, 16366.00
1217.589, 16287.00
1218.667, 16169.00
1219.746, 16208.87
1220.824, 16429.00
1221.902, 16309.00
1222.980, 16444.00
1224.057, 16578.00
1225.135, 16427.00
1226.212, 16455.00
1227.289, 16440.00
1228.366, 16333.00
1229.443, 16514.00
1230.520, 16367.00
1231.597, 16338.00
1232.673, 16473.00
1233.749, 16408.00
1234.825, 16312.00
1235.901, 16311.00
1236.977, 16438.00
1238.053, 16607.00
1239.128, 16496.07
1240.204, 16501.83
1241.279, 16396.00
1242.354, 16285.00
1243.429, 16373.00
1244.503, 16264.00
1245.578, 16278.00
1246.652, 16244.38
1247.727, 16387.23
1248.801, 16460.48
1249.875, 16467.84
1250.949, 16211.98
1252.022, 16296.02
1253.096, 16243.84
1254.169, 16186.09
1255.242, 16317.98
1256.315, 16100.41
1257.388, 16229.29
1258.461, 16219.88
1259.533, 16273.77
1260.606, 16190.60
1261.678, 16149.77
1262.750, 16246.04
1263.822, 16266.39
1264.894, 16167.46
1265.965, 16225.39
1267.037, 16003.05
1268.108, 16026.66
1269.179, 16156.37
1270.250, 16064.34
1271.321, 16124.78
1272.392, 16127.15
1273.463, 15865.62
1274.533, 16063.05
1275.603, 16062.00
1276.673, 15857.16
1277.743, 16038.87
1278.813, 15862.12
1279.883, 15813.32
1280.952, 15860.82
1282.021, 15807.95
1283.091, 15913.31
1284.160, 15866.23
1285.229, 15787.75
1286.297, 15914.00
1287.366, 15881.00
1288.434, 15909.00
1289.502, 15995.00
1290.570, 15806.00
1291.638, 15729.00
1292.706, 15745.00
1293.774, 15827.00
1294.841, 15783.00
1295.909, 15890.00
1296.976, 15698.00
1298.043, 15733.00
1299.110, 15865.00
1300.176, 15666.00
1301.243, 15833.00
1302.309, 15768.00
1303.376, 15745.00
1304.442, 15793.00
1305.508, 15756.00
1306.573, 15758.00
1307.639, 15755.00
1308.704, 15729.68
1309.770, 15748.99
1310.835, 15648.00
1311.900, 15788.00
1312.965, 15661.00
1314.030, 15700.00
1315.094, 15536.00
1316.159, 15501.00
1317.223, 15651.00
1318.287, 15543.00
1319.351, 15697.00
1320.415, 15710.00
1321.478, 15649.00
1322.542, 15556.00
1323.605, 15577.00
1324.668, 15502.00
1325.731, 15554.00
1326.794, 15542.15
1327.857, 15536.00
1328.919, 15592.00
1329.982, 15450.00
1331.044, 15521.00
1332.106, 15486.00
1333.168, 15432.00
1334.230, 15546.00
1335.292, 15464.00
1336.353, 15546.00
1337.414, 15613.00
1338.476, 15666.00
1339.537, 15679.34
1340.597, 15699.46
1341.658, 15642.00
1342.719, 15723.00
1343.779, 15647.00
1344.839, 15717.55
1345.900, 15689.00
1346.960, 15625.00
1348.019, 15475.31
1349.079, 15633.83
1350.139, 15722.72
1351.198, 15745.73
1352.257, 15505.51
1353.316, 15605.19
1354.375, 15568.66
1355.434, 15526.54
1356.492, 15674.06
1357.551, 15472.13
1358.609, 15616.64
1359.667, 15622.86
1360.725, 15692.37
1361.783, 15624.82
1362.841, 15599.61
1363.898, 15711.50
1364.956, 15747.47
1366.013, 15664.15
1367.070, 15737.69
1368.127, 15530.97
1369.183, 15570.18
1370.240, 15715.49
1371.297, 15639.06
1372.353, 15715.11
1373.409, 15733.08
1374.465, 15487.15
1375.521, 15700.17
1376.577, 15714.71
1377.632, 15525.46
1378.687, 15722.75
1379.743, 15561.59
1380.798, 15528.38
1381.853, 15591.46
1382.907, 15554.15
1383.962, 15675.11
1385.017, 15643.60
1386.071, 15598.48
1387.125, 15488.00
1388.179, 15640.00
1389.233, 15526.00
1390.287, 15420.00
1391.340, 15450.00
1392.394, 15441.00
1393.447, 15426.00
1394.500, 15525.00
1395.553, 15337.00
1396.606, 15524.00
1397.658, 15345.00
1398.711, 15326.00
1399.763, 15426.00
1400.815, 15437.00
1401.868, 15360.00
1402.919, 15541.00
1403.971, 15594.00
1405.023, 15335.00
1406.074, 15603.00
1407.125, 15642.00
1408.177, 15418.00
1409.228, 15628.00
1410.278, 15497.00
1411.329, 15501.00
1412.380, 15439.00
1413.430, 15443.00
1414.480, 15567.00
1415.530, 15366.00
1416.580, 15497.00
1417.630, 15415.00
1418.680, 15453.00
1419.729, 15502.00
1420.778, 15319.00
1421.828, 15483.00
1422.877, 15507.00
1423.925, 15417.00
1424.974, 15472.00
1426.023, 15347.00
1427.071, 15629.00
1428.119, 15514.00
1429.167, 15485.00
1430.215, 15619.00
1431.263, 15557.00
1432.311, 15449.00
1433.358, 15516.00
1434.406, 15406.00
1435.453, 15613.00
1436.500, 15427.00
1437.547, 15452.00
1438.594, 15642.00
1439.640, 15485.00
1440.687, 15489.00
1441.733, 15383.00
1442.779, 15495.00
1443.825, 15427.00
1444.871, 15484.00
1445.917, 15576.00
1446.962, 15413.00
1448.007, 15453.00
1449.053, 15634.00
1450.098, 15578.00
1451.143, 15443.00
1452.187, 15473.00
1453.232, 15519.00
1454.277, 15798.00
1455.321, 15494.00
1456.365, 15652.00
1457.409, 15400.00
1458.453, 15575.00
1459.497, 15585.00
1460.540, 15477.00
1461.584, 15685.00
1462.627, 15634.00
1463.670, 15507.00
1464.713, 15514.00
1465.756, 15573.00
1466.799, 15629.00
1467.841, 15550.00
1468.884, 15412.00
1469.926, 15485.62
1470.968, 15459.00
1472.010, 15554.00
1473.051, 15559.00
1474.093, 15626.00
1475.135, 15672.00
1476.176, 15601.00
1477.217, 15654.00
1478.258, 15856.00
1479.299, 15639.00
1480.340, 15766.00
1481.380, 15553.00
1482.421, 15598.00
1483.461, 15695.00
1484.501, 15607.00
1485.541, 15647.00
1486.581, 15735.00
1487.620, 15584.00
1488.660, 15652.00
1489.699, 15609.00
1490.739, 15610.00
1491.778, 15638.00
1492.817, 15636.00
1493.855, 15737.00
1494.894, 15760.00
1495.932, 15904.00
1496.971, 15695.00
1498.009, 15827.00
1499.047, 15769.00
1500.085, 15849.00
1501.122, 15989.00
1502.160, 15682.00
1503.197, 15750.00
1504.235, 15836.00
1505.272, 16046.00
1506.309, 15939.00
1507.346, 15821.00
1508.382, 15818.00
1509.419, 15951.00
1510.455, 15930.00
1511.491, 15995.00
1512.527, 15957.76
1513.563, 15848.00
1514.599, 15869.00
1515.635, 15877.00
1516.670, 15900.00
1517.706, 16129.00
1518.741, 15997.00
1519.776, 16115.00
1520.811, 16028.00
1521.845, 16005.00
1522.880, 16054.00
1523.914, 16161.00
1524.949, 16065.00
1525.983, 16011.00
1527.017, 16209.00
1528.050, 16019.98
1529.084, 16194.65
1530.118, 16299.69
1531.151, 16338.83
1532.184, 16114.75
1533.217, 16230.57
1534.250, 16210.17
1535.283, 16184.18
1536.316, 16347.84
1537.348, 16162.03
1538.381, 16322.67
1539.413, 16345.01
1540.445, 16430.64
1541.477, 16379.22
1542.508, 16370.11
1543.540, 16498.12
1544.571, 16550.20
1545.603, 16482.99
1546.634, 16572.63
1547.665, 16382.02
1548.696, 16437.33
1549.726, 16598.73
1550.757, 16538.41
1551.787, 16630.54
1552.817, 16664.60
1553.848, 16434.78
1554.878, 16663.89
1555.907, 16694.50
1556.937, 16521.33
1557.966, 16734.70
1558.996, 16589.63
1560.025, 16572.49
1561.054, 16651.64
1562.083, 16630.41
1563.112, 16767.44
1564.140, 16751.99
1565.169, 16722.94
1566.197, 16753.31
1567.225, 16615.24
1568.253, 16667.00
1569.281, 16720.00
1570.309, 16881.00
1571.336, 16712.00
1572.364, 16778.00
1573.391, 16797.00
1574.418, 16824.00
1575.445, 16939.00
1576.472, 16729.00
1577.499, 16804.00
1578.525, 16833.00
1579.552, 16778.00
##END=



