##NAMES=Rutile
##RRUFFID=R050417
##IDEAL CHEMISTRY=Ti^4+^O_2_
##LOCALITY=Champion mine, Mono County, California, USA
##OWNER=RRUFF
##SOURCE=Marcus Origlieri
##DESCRIPTION=Reddish black equant crystals
##STATUS=The identification of this mineral has been confirmed by X-ray diffraction and chemical analysis
##URL=rruff.info/R050417
##MEASURED CHEMISTRY=TiO_2_
##PIN_ID=L01608
##ORIENTATION=Laser parallel to -c* (0 0 -1). Fiducial mark perpendicular to laser is parallel to a [1 0 0]
89.67000, 16785.00
90.91000, 17183.00
92.14900, 17414.00
93.38900, 17413.00
94.62900, 17604.00
95.86800, 17851.00
97.10700, 17964.00
98.34600, 18071.00
99.58500, 18271.00
100.8230, 18384.00
102.0620, 18542.00
103.3000, 18813.00
104.5380, 18905.00
105.7760, 19143.00
107.0140, 19540.00
108.2510, 19763.00
109.4890, 19838.00
110.7260, 19931.00
111.9630, 20331.00
113.2000, 20438.00
114.4360, 20850.00
115.6730, 21234.00
116.9090, 21586.00
118.1450, 21664.00
119.3810, 21942.70
120.6170, 22168.00
121.8530, 22157.00
123.0880, 21780.00
124.3230, 21627.00
125.5590, 21167.00
126.7930, 20728.00
128.0280, 20399.00
129.2630, 20613.00
130.4970, 20448.00
131.7310, 20499.00
132.9650, 20385.00
134.1990, 20429.00
135.4330, 20700.00
136.6670, 20720.00
137.9000, 20707.00
139.1330, 20762.00
140.3660, 20808.00
141.5990, 20815.00
142.8320, 20663.00
144.0640, 20445.00
145.2960, 20061.00
146.5290, 19774.00
147.7610, 19293.39
148.9920, 18795.00
150.2240, 18458.00
151.4550, 18072.00
152.6870, 18070.00
153.9180, 17792.00
155.1490, 17543.00
156.3800, 17551.00
157.6100, 17417.00
158.8400, 17422.00
160.0710, 17332.00
161.3010, 17198.00
162.5310, 17118.00
163.7600, 17233.00
164.9900, 17157.00
166.2190, 17204.00
167.4480, 17336.79
168.6770, 17445.11
169.9060, 17544.12
171.1350, 17634.32
172.3630, 17689.26
173.5920, 17789.71
174.8200, 17871.88
176.0480, 17953.31
177.2760, 18109.00
178.5030, 18513.00
179.7310, 18528.00
180.9580, 18764.00
182.1850, 18806.00
183.4120, 19098.00
184.6390, 19308.00
185.8650, 19426.00
187.0920, 19737.00
188.3180, 19979.00
189.5440, 20086.00
190.7700, 20275.00
191.9960, 20760.00
193.2210, 20739.00
194.4470, 21035.00
195.6720, 21285.00
196.8970, 21292.00
198.1220, 21619.00
199.3460, 21708.00
200.5710, 21812.00
201.7950, 22168.00
203.0190, 22280.00
204.2430, 22287.00
205.4670, 22577.00
206.6910, 22639.00
207.9140, 22928.00
209.1370, 22918.00
210.3610, 23325.00
211.5840, 23433.00
212.8060, 23809.00
214.0290, 23869.00
215.2510, 24319.00
216.4740, 24366.00
217.6960, 24672.00
218.9180, 24938.00
220.1390, 24868.00
221.3610, 25235.00
222.5820, 25379.00
223.8030, 25634.00
225.0240, 25974.00
226.2450, 26321.00
227.4660, 26173.00
228.6870, 26435.00
229.9070, 26656.00
231.1270, 26829.00
232.3470, 26909.00
233.5670, 26869.00
234.7870, 27045.00
236.0060, 26995.07
237.2250, 27018.00
238.4440, 27002.00
239.6630, 26914.00
240.8820, 26974.00
242.1010, 26914.89
243.3190, 26752.67
244.5380, 26786.00
245.7560, 26344.00
246.9740, 26074.00
248.1910, 25780.00
249.4090, 25581.00
250.6260, 25216.00
251.8440, 25073.00
253.0610, 24884.00
254.2780, 24286.00
255.4940, 24120.00
256.7110, 23800.00
257.9270, 23524.00
259.1430, 23269.00
260.3600, 23259.00
261.5750, 22925.00
262.7910, 22820.00
264.0070, 22616.00
265.2220, 22420.00
266.4370, 22144.00
267.6520, 21966.00
268.8670, 21807.00
270.0820, 21553.00
271.2960, 21504.00
272.5100, 21245.00
273.7250, 21222.00
274.9390, 20809.00
276.1520, 21038.00
277.3660, 20732.00
278.5790, 20724.00
279.7930, 20518.44
281.0060, 20311.75
282.2190, 20101.00
283.4320, 19914.00
284.6440, 19744.70
285.8570, 19784.00
287.0690, 19485.00
288.2810, 19379.00
289.4930, 19368.00
290.7050, 19182.00
291.9160, 19147.00
293.1270, 18987.00
294.3390, 18759.00
295.5500, 18841.00
296.7610, 18665.00
297.9710, 18678.00
299.1820, 18690.00
300.3920, 18692.00
301.6020, 18680.00
302.8120, 18620.00
304.0220, 18592.00
305.2320, 18493.00
306.4410, 18562.00
307.6510, 18546.00
308.8600, 18577.00
310.0690, 18668.00
311.2780, 18859.00
312.4860, 18750.00
313.6950, 18831.00
314.9030, 18820.00
316.1110, 18810.34
317.3190, 18853.00
318.5270, 18774.00
319.7350, 18924.00
320.9420, 18805.00
322.1490, 18875.00
323.3570, 18978.00
324.5630, 18709.00
325.7700, 18888.00
326.9770, 18677.00
328.1830, 18631.00
329.3900, 18515.00
330.5960, 18720.00
331.8020, 18642.00
333.0070, 18537.00
334.2130, 18596.00
335.4180, 18444.00
336.6230, 18346.00
337.8290, 18517.00
339.0330, 18276.00
340.2380, 18311.00
341.4430, 18329.00
342.6470, 18379.00
343.8510, 18383.03
345.0550, 18468.00
346.2590, 18428.00
347.4630, 18370.00
348.6660, 18447.00
349.8700, 18446.00
351.0730, 18134.00
352.2760, 18395.00
353.4790, 18560.00
354.6810, 18310.00
355.8840, 18523.00
357.0860, 18407.00
358.2880, 18417.00
359.4900, 18392.00
360.6920, 18536.00
361.8940, 18442.00
363.0950, 18267.00
364.2960, 18356.00
365.4980, 18185.00
366.6990, 18238.00
367.8990, 18062.00
369.1000, 17982.00
370.3000, 18134.00
371.5010, 18070.00
372.7010, 17930.00
373.9010, 17921.00
375.1010, 17701.00
376.3000, 17839.00
377.5000, 17725.00
378.6990, 17791.00
379.8980, 17573.00
381.0970, 17686.00
382.2960, 17504.00
383.4940, 17627.00
384.6920, 17551.00
385.8910, 17477.00
387.0890, 17460.00
388.2870, 17389.00
389.4840, 17405.00
390.6820, 17387.00
391.8790, 17285.00
393.0770, 17219.00
394.2740, 17211.00
395.4700, 17133.00
396.6670, 17188.00
397.8640, 17204.00
399.0600, 17329.00
400.2560, 17150.00
401.4520, 17042.00
402.6480, 17049.00
403.8440, 16905.00
405.0390, 16960.17
406.2350, 16966.00
407.4300, 17104.00
408.6250, 17069.00
409.8200, 17255.00
411.0140, 17049.00
412.2090, 17191.00
413.4030, 17067.00
414.5970, 17431.00
415.7910, 17253.00
416.9850, 17238.00
418.1790, 17390.00
419.3720, 17405.00
420.5660, 17446.00
421.7590, 17589.00
422.9520, 17719.00
424.1440, 17600.00
425.3370, 17717.07
426.5300, 17791.21
427.7220, 17855.99
428.9140, 17911.97
430.1060, 17932.76
431.2980, 17998.99
432.4890, 18046.97
433.6810, 18066.00
434.8720, 18210.00
436.0630, 18210.00
437.2540, 17913.00
438.4450, 18051.00
439.6350, 18013.00
440.8260, 18267.00
442.0160, 18233.00
443.2060, 18228.00
444.3960, 18167.00
445.5860, 18291.00
446.7750, 18179.00
447.9650, 18081.00
449.1540, 18299.00
450.3430, 18461.00
451.5320, 18038.00
452.7210, 18212.00
453.9090, 17915.00
455.0980, 18056.00
456.2860, 17800.00
457.4740, 17763.00
458.6620, 17802.00
459.8500, 17771.00
461.0370, 17593.00
462.2250, 17689.00
463.4120, 17550.00
464.5990, 17573.00
465.7860, 17489.00
466.9720, 17374.51
468.1590, 17397.00
469.3450, 17180.00
470.5320, 17129.00
471.7180, 17124.00
472.9030, 17158.00
474.0890, 16870.00
475.2750, 17107.00
476.4600, 16806.00
477.6450, 16756.00
478.8300, 16771.00
480.0150, 16786.00
481.2000, 16764.00
482.3840, 16723.16
483.5690, 16757.00
484.7530, 16596.00
485.9370, 16524.00
487.1210, 16451.00
488.3040, 16433.74
489.4880, 16593.00
490.6710, 16489.00
491.8540, 16571.00
493.0370, 16641.00
494.2200, 16588.00
495.4030, 16618.00
496.5850, 16599.00
497.7680, 16706.00
498.9500, 16767.00
500.1320, 16753.00
501.3140, 16697.00
502.4950, 16743.00
503.6770, 17003.00
504.8580, 16937.00
506.0390, 17163.00
507.2200, 17262.00
508.4010, 17246.00
509.5820, 17312.00
510.7620, 17241.00
511.9420, 17357.54
513.1230, 17746.00
514.3030, 17551.00
515.4820, 17799.82
516.6620, 17896.93
517.8420, 17957.00
519.0210, 18178.00
520.2000, 18348.00
521.3790, 18262.00
522.5580, 18588.00
523.7360, 18554.00
524.9150, 18704.00
526.0930, 18956.00
527.2710, 19053.00
528.4490, 19219.00
529.6270, 19564.00
530.8050, 19580.00
531.9820, 19825.00
533.1590, 19888.00
534.3360, 19995.00
535.5130, 20510.00
536.6900, 20538.00
537.8670, 20777.00
539.0430, 21035.00
540.2200, 21192.00
541.3960, 21530.00
542.5720, 21903.00
543.7470, 22246.00
544.9230, 22618.10
546.0980, 22947.00
547.2740, 23373.00
548.4490, 23871.00
549.6240, 24280.00
550.7990, 24892.00
551.9730, 25277.00
553.1480, 25916.00
554.3220, 26377.00
555.4960, 26902.00
556.6700, 27656.00
557.8440, 28214.00
559.0170, 29034.00
560.1910, 29698.00
561.3640, 30371.00
562.5370, 31496.00
563.7100, 32071.00
564.8830, 33348.00
566.0550, 34121.00
567.2280, 35361.00
568.4000, 36197.00
569.5720, 37424.00
570.7440, 38621.00
571.9160, 39824.00
573.0870, 41174.03
574.2590, 42592.00
575.4300, 43938.00
576.6010, 45452.00
577.7720, 46934.00
578.9430, 48317.00
580.1140, 50400.00
581.2840, 51877.00
582.4540, 53548.00
583.6240, 55606.00
584.7940, 57445.00
585.9640, 59542.00
587.1340, 61529.00
588.3030, 64107.00
589.4720, 66207.00
590.6410, 68814.00
591.8100, 70899.00
592.9790, 73973.00
594.1480, 76629.00
595.3160, 79424.00
596.4840, 82748.00
597.6520, 85396.00
598.8200, 87952.00
599.9880, 91276.00
601.1560, 93877.00
602.3230, 97242.00
603.4900, 99528.00
604.6570, 101609.0
605.8240, 103576.0
606.9910, 105271.0
608.1580, 106754.0
609.3240, 107434.0
610.4900, 107824.0
611.6570, 107414.0
612.8230, 106953.0
613.9880, 105655.0
615.1540, 104281.0
616.3190, 102015.0
617.4850, 100286.0
618.6500, 97569.00
619.8150, 94721.00
620.9790, 91494.00
622.1440, 88336.00
623.3080, 85005.00
624.4730, 82562.00
625.6370, 79187.00
626.8010, 75653.00
627.9640, 73191.00
629.1280, 69302.00
630.2910, 67021.00
631.4550, 63929.00
632.6180, 61586.00
633.7810, 58758.00
634.9440, 56638.00
636.1060, 54284.00
637.2690, 52829.00
638.4310, 50732.00
639.5930, 48758.00
640.7550, 47244.00
641.9170, 45623.00
643.0780, 44051.00
644.2400, 42732.62
645.4010, 41679.00
646.5620, 40189.00
647.7230, 39311.00
648.8840, 38185.00
650.0450, 37105.00
651.2050, 36521.00
652.3650, 35429.00
653.5250, 34740.00
654.6850, 34249.00
655.8450, 33420.00
657.0050, 33014.00
658.1640, 32148.00
659.3230, 31660.00
660.4830, 31103.00
661.6420, 31011.00
662.8000, 30243.00
663.9590, 29750.00
665.1170, 29478.00
666.2760, 28917.00
667.4340, 28621.00
668.5920, 28175.00
669.7500, 27933.00
670.9070, 27498.00
672.0650, 27349.00
673.2220, 27075.00
674.3790, 26713.00
675.5360, 26622.00
676.6930, 26260.00
677.8500, 25994.00
679.0060, 25828.00
680.1620, 25723.00
681.3190, 25307.00
682.4750, 25138.00
683.6300, 24902.00
684.7860, 24730.00
685.9420, 24520.24
687.0970, 24301.00
688.2520, 24093.00
689.4070, 23902.00
690.5620, 23653.00
691.7170, 23342.00
692.8710, 23264.00
694.0250, 23046.00
695.1800, 22878.00
696.3340, 22556.00
697.4870, 22423.00
698.6410, 21916.00
699.7950, 22056.00
700.9480, 21620.00
702.1010, 21574.00
703.2540, 21035.00
704.4070, 21052.00
705.5600, 20800.00
706.7120, 20660.00
707.8640, 20347.00
709.0170, 20097.00
710.1690, 19900.00
711.3210, 19790.00
712.4720, 19407.00
713.6240, 19606.00
714.7750, 19076.00
715.9260, 18914.00
717.0770, 18525.00
718.2280, 18520.00
719.3790, 18154.00
720.5290, 18153.00
721.6800, 17963.00
722.8300, 17737.00
723.9800, 17415.00
725.1300, 17270.00
726.2800, 17082.00
727.4290, 16895.00
728.5790, 16789.00
729.7280, 16604.00
730.8770, 16527.00
732.0260, 16424.00
733.1750, 16216.00
734.3230, 16188.00
735.4720, 15961.00
736.6200, 15856.00
737.7680, 15663.00
738.9160, 15710.00
740.0640, 15559.00
741.2110, 15499.00
742.3590, 15323.00
743.5060, 15319.00
744.6530, 15283.00
745.8000, 15046.00
746.9470, 15201.00
748.0930, 15032.00
749.2400, 14999.00
750.3860, 15123.00
751.5320, 14694.00
752.6780, 14861.00
753.8240, 14962.00
754.9690, 14637.00
756.1150, 14667.00
757.2600, 14642.00
758.4050, 14715.00
759.5500, 14657.00
760.6950, 14843.00
761.8400, 14673.00
762.9840, 14708.00
764.1280, 14745.00
765.2730, 14554.00
766.4170, 14811.00
767.5600, 14830.00
768.7040, 14701.00
769.8470, 14865.00
770.9910, 14769.00
772.1340, 14891.00
773.2770, 14871.00
774.4200, 15110.00
775.5620, 15107.00
776.7050, 15036.00
777.8470, 15285.00
778.9890, 15192.00
780.1310, 15394.00
781.2730, 15614.00
782.4150, 15507.00
783.5570, 15660.00
784.6980, 15686.00
785.8390, 15753.00
786.9800, 15885.00
788.1210, 16012.00
789.2620, 16200.00
790.4020, 16122.00
791.5430, 16143.00
792.6830, 16369.00
793.8230, 16219.00
794.9630, 16380.00
796.1020, 16412.00
797.2420, 16492.00
798.3810, 16535.00
799.5210, 16526.58
800.6600, 16339.00
801.7990, 16414.00
802.9370, 16424.00
804.0760, 16203.00
805.2140, 16279.00
806.3530, 16021.00
807.4910, 15896.00
808.6290, 16044.00
809.7660, 15918.00
810.9040, 15731.00
812.0420, 15692.36
813.1790, 15509.51
814.3160, 15417.00
815.4530, 15197.00
816.5900, 15069.00
817.7260, 14878.00
818.8630, 14761.00
819.9990, 14777.00
821.1350, 14640.00
822.2710, 14354.00
823.4070, 14363.00
824.5430, 14111.00
825.6780, 13916.00
826.8130, 13872.00
827.9490, 13689.00
829.0840, 13590.00
830.2180, 13296.00
831.3530, 13169.00
832.4880, 13124.00
833.6220, 13072.00
834.7560, 12677.00
835.8900, 12424.00
837.0240, 12345.00
838.1580, 12266.00
839.2910, 12003.00
840.4250, 11929.00
841.5580, 11634.00
842.6910, 11493.00
843.8240, 11436.00
844.9560, 11130.00
846.0890, 11046.00
847.2210, 10905.00
848.3540, 10666.00
849.4860, 10641.00
850.6180, 10370.00
851.7490, 10289.00
852.8810, 10215.00
854.0120, 9992.000
855.1440, 9861.000
856.2750, 9760.000
857.4060, 9814.000
858.5360, 9703.397
859.6670, 9589.566
860.7980, 9584.000
861.9280, 9326.000
863.0580, 9183.000
864.1880, 9105.000
865.3180, 9152.000
866.4470, 8942.000
867.5770, 8892.000
868.7060, 9001.000
869.8350, 8721.000
870.9640, 8646.000
872.0930, 8725.000
873.2220, 8645.000
874.3500, 8523.000
875.4790, 8384.000
876.6070, 8441.000
877.7350, 8451.000
878.8630, 8371.000
879.9900, 8268.000
881.1180, 8220.000
882.2450, 8165.000
883.3730, 8097.000
884.5000, 8134.000
885.6260, 8051.000
886.7530, 8118.000
887.8800, 8032.000
889.0060, 7917.000
890.1320, 7919.000
891.2580, 7913.000
892.3840, 7891.000
893.5100, 7816.000
894.6360, 7787.000
895.7610, 7771.000
896.8860, 7838.000
898.0120, 7904.000
899.1360, 7714.000
900.2610, 7753.000
901.3860, 7697.203
902.5100, 7639.438
903.6350, 7653.000
904.7590, 7602.000
905.8830, 7653.000
907.0070, 7684.000
908.1300, 7585.000
909.2540, 7556.000
910.3770, 7651.000
911.5000, 7614.000
912.6230, 7532.000
913.7460, 7450.000
914.8690, 7494.000
915.9910, 7381.000
917.1140, 7391.000
918.2360, 7351.000
919.3580, 7310.000
920.4800, 7439.000
921.6020, 7380.000
922.7230, 7297.000
923.8440, 7307.000
924.9660, 7197.000
926.0870, 7282.000
927.2080, 7183.000
928.3280, 7265.000
929.4490, 7141.000
930.5700, 7168.000
931.6900, 7182.000
932.8100, 7175.000
933.9300, 7128.000
935.0500, 7173.000
936.1690, 7101.000
937.2890, 7110.000
938.4080, 7017.000
939.5270, 7089.000
940.6460, 7049.000
941.7650, 6994.000
942.8840, 6996.000
944.0020, 7005.000
945.1200, 6971.791
946.2390, 7041.000
947.3570, 6949.000
948.4750, 6878.000
949.5920, 6882.000
950.7100, 6906.000
951.8270, 6977.000
952.9440, 6966.000
954.0610, 6967.000
955.1780, 6920.000
956.2950, 6876.000
957.4120, 6949.000
958.5280, 6805.000
959.6440, 6906.000
960.7600, 6846.000
961.8760, 6806.000
962.9920, 6801.743
964.1080, 6821.027
965.2230, 6796.790
966.3380, 6897.000
967.4540, 6781.000
968.5690, 6768.000
969.6830, 6752.000
970.7980, 6649.000
971.9120, 6681.000
973.0270, 6706.000
974.1410, 6751.000
975.2550, 6786.000
976.3690, 6729.000
977.4820, 6669.000
978.5960, 6662.000
979.7090, 6627.000
980.8230, 6555.000
981.9360, 6558.000
983.0490, 6533.000
984.1610, 6570.000
985.2740, 6552.172
986.3860, 6599.000
987.4980, 6544.000
988.6110, 6522.000
989.7220, 6513.000
990.8340, 6569.000
991.9460, 6532.024
993.0570, 6541.000
994.1690, 6488.000
995.2800, 6480.000
996.3910, 6416.000
997.5010, 6495.000
998.6120, 6348.000
999.7230, 6336.000
1000.833, 6471.000
1001.943, 6405.000
1003.053, 6409.000
1004.163, 6353.000
1005.273, 6388.000
1006.382, 6370.000
1007.492, 6349.000
1008.601, 6442.000
1009.710, 6410.000
1010.819, 6399.000
1011.927, 6345.000
1013.036, 6315.000
1014.144, 6236.000
1015.253, 6309.000
1016.361, 6209.000
1017.469, 6218.000
1018.576, 6146.000
1019.684, 6289.000
1020.791, 6191.000
1021.899, 6301.000
1023.006, 6214.000
1024.113, 6224.000
1025.220, 6216.000
1026.326, 6289.000
1027.433, 6179.000
1028.539, 6294.000
1029.645, 6255.000
1030.751, 6253.000
1031.857, 6290.000
1032.963, 6217.000
1034.068, 6125.000
1035.174, 6253.000
1036.279, 6209.000
1037.384, 6101.000
1038.489, 6196.000
1039.594, 6219.000
1040.698, 6147.000
1041.803, 6102.000
1042.907, 6120.000
1044.011, 6161.000
1045.115, 6163.000
1046.219, 6096.000
1047.323, 6264.000
1048.426, 6164.000
1049.529, 6204.000
1050.632, 6084.000
1051.735, 6183.000
1052.838, 6123.000
1053.941, 6183.000
1055.043, 6169.811
1056.146, 6159.275
1057.248, 6164.000
1058.350, 6106.000
1059.452, 6155.000
1060.554, 6047.000
1061.655, 6067.000
1062.757, 6025.000
1063.858, 5991.443
1064.959, 6176.000
1066.060, 5936.000
1067.161, 6119.000
1068.261, 6078.000
1069.362, 6000.000
1070.462, 5910.000
1071.562, 5949.000
1072.662, 6051.000
1073.762, 6057.000
1074.862, 6023.000
1075.961, 5955.000
1077.061, 5968.000
1078.160, 6076.000
1079.259, 5948.000
1080.358, 5976.000
1081.456, 5862.000
1082.555, 5995.000
1083.653, 5961.000
1084.751, 5909.000
1085.850, 5874.000
1086.947, 5913.000
1088.045, 5880.000
1089.143, 5910.133
1090.240, 5940.000
1091.338, 5905.000
1092.435, 5948.000
1093.532, 5820.000
1094.628, 5889.000
1095.725, 5842.000
1096.822, 5835.000
1097.918, 5813.000
1099.014, 5829.000
1100.110, 5824.883
1101.206, 5775.000
1102.302, 5831.000
1103.397, 5752.000
1104.493, 5730.000
1105.588, 5718.000
1106.683, 5829.000
1107.778, 5850.000
1108.873, 5835.000
1109.967, 5703.000
1111.062, 5779.000
1112.156, 5784.000
1113.250, 5746.000
1114.344, 5908.000
1115.438, 5831.000
1116.531, 5723.000
1117.625, 5811.000
1118.718, 5706.000
1119.811, 5688.000
1120.904, 5715.000
1121.997, 5718.000
1123.090, 5715.000
1124.183, 5722.000
1125.275, 5729.717
1126.367, 5749.000
1127.459, 5747.000
1128.551, 5740.000
1129.643, 5738.000
1130.735, 5711.000
1131.826, 5776.000
1132.917, 5688.000
1134.008, 5661.000
1135.099, 5695.000
1136.190, 5718.000
1137.281, 5662.000
1138.371, 5682.000
1139.462, 5651.000
1140.552, 5745.000
1141.642, 5829.000
1142.732, 5701.000
1143.821, 5680.000
1144.911, 5851.000
1146.000, 5906.000
1147.090, 5726.000
1148.179, 5717.000
1149.268, 5592.000
1150.356, 5682.000
1151.445, 5636.000
1152.533, 5706.000
1153.622, 5632.000
1154.710, 5598.000
1155.798, 5581.000
1156.886, 5584.082
1157.973, 5625.000
1159.061, 5629.000
1160.148, 5653.000
1161.235, 5654.000
1162.322, 5570.000
1163.409, 5624.000
1164.496, 5635.000
1165.583, 5563.000
1166.669, 5745.000
1167.755, 5596.000
1168.841, 5621.000
1169.927, 5675.000
1171.013, 5619.000
1172.099, 5580.000
1173.184, 5580.000
1174.269, 5551.000
1175.355, 5645.000
1176.440, 5577.000
1177.524, 5656.000
1178.609, 5570.000
1179.694, 5659.000
1180.778, 5565.000
1181.862, 5596.000
1182.946, 5538.000
1184.030, 5613.000
1185.114, 5621.000
1186.197, 5632.000
1187.281, 5574.000
1188.364, 5540.000
1189.447, 5596.000
1190.530, 5557.000
1191.613, 5561.000
1192.696, 5619.000
1193.778, 5565.000
1194.860, 5678.000
1195.943, 5573.000
1197.025, 5523.000
1198.107, 5602.000
1199.188, 5679.000
1200.270, 5562.000
1201.351, 5518.000
1202.432, 5622.000
1203.514, 5524.000
1204.594, 5629.000
1205.675, 5638.000
1206.756, 5566.000
1207.836, 5670.000
1208.917, 5616.000
1209.997, 5562.000
1211.077, 5694.000
1212.157, 5541.000
1213.236, 5570.000
1214.316, 5664.000
1215.395, 5585.000
1216.474, 5576.000
1217.553, 5684.000
1218.632, 5712.000
1219.711, 5694.881
1220.790, 5624.000
1221.868, 5615.000
1222.946, 5652.000
1224.024, 5547.000
1225.102, 5598.000
1226.180, 5532.000
1227.258, 5532.000
1228.335, 5555.000
1229.413, 5618.000
1230.490, 5613.000
1231.567, 5668.000
1232.644, 5550.000
1233.720, 5609.000
1234.797, 5523.000
1235.873, 5576.000
1236.950, 5523.000
1238.026, 5486.000
1239.102, 5527.000
1240.177, 5528.000
1241.253, 5553.000
1242.328, 5609.000
1243.404, 5578.000
1244.479, 5554.000
1245.554, 5603.000
1246.629, 5471.000
1247.703, 5482.000
1248.778, 5483.000
1249.852, 5563.000
1250.926, 5426.000
1252.001, 5515.000
1253.074, 5475.000
1254.148, 5570.000
1255.222, 5576.000
1256.295, 5562.000
1257.369, 5455.000
1258.442, 5535.000
1259.515, 5596.000
1260.587, 5480.000
1261.660, 5487.000
1262.733, 5517.000
1263.805, 5518.000
1264.877, 5526.062
1265.949, 5517.000
1267.021, 5538.000
1268.093, 5469.000
1269.164, 5485.000
1270.236, 5450.000
1271.307, 5468.000
1272.378, 5453.000
1273.449, 5450.000
1274.520, 5477.000
1275.591, 5437.000
1276.661, 5385.000
1277.731, 5401.000
1278.802, 5434.000
1279.872, 5452.000
1280.941, 5453.000
1282.011, 5462.000
1283.081, 5389.000
1284.150, 5452.000
1285.219, 5426.000
1286.288, 5477.000
1287.357, 5369.000
1288.426, 5391.000
1289.495, 5341.000
1290.563, 5400.000
1291.632, 5503.000
1292.700, 5471.000
1293.768, 5461.000
1294.836, 5486.729
1295.903, 5443.178
1296.971, 5473.000
1298.038, 5385.000
1299.106, 5358.000
1300.173, 5321.000
1301.240, 5389.000
1302.306, 5366.000
1303.373, 5380.000
1304.439, 5437.000
1305.506, 5249.000
1306.572, 5462.000
1307.638, 5335.000
1308.704, 5353.000
1309.769, 5380.000
1310.835, 5411.000
1311.900, 5418.548
1312.965, 5398.000
1314.031, 5422.000
1315.095, 5406.938
1316.160, 5373.000
1317.225, 5403.000
1318.289, 5353.000
1319.354, 5331.000
1320.418, 5448.000
1321.482, 5334.000
1322.546, 5365.166
1323.609, 5309.000
1324.673, 5344.000
1325.736, 5292.000
1326.799, 5314.000
1327.862, 5298.000
1328.925, 5285.000
1329.988, 5304.156
1331.051, 5352.000
1332.113, 5333.000
1333.175, 5362.000
1334.238, 5388.000
1335.300, 5278.000
1336.361, 5290.000
1337.423, 5269.000
1338.485, 5448.000
1339.546, 5305.000
1340.607, 5415.000
1341.668, 5364.000
1342.729, 5456.000
1343.790, 5332.000
1344.850, 5462.000
1345.911, 5411.000
1346.971, 5342.000
1348.031, 5303.000
1349.091, 5377.000
1350.151, 5320.000
1351.211, 5313.000
1352.270, 5339.000
1353.330, 5322.000
1354.389, 5322.274
1355.448, 5278.000
1356.507, 5338.000
1357.566, 5338.000
1358.624, 5414.000
1359.683, 5272.000
1360.741, 5300.000
1361.799, 5312.882
1362.857, 5323.396
1363.915, 5356.000
1364.973, 5396.000
1366.030, 5414.000
1367.087, 5348.000
1368.145, 5351.000
1369.202, 5308.000
1370.259, 5326.000
1371.315, 5407.000
1372.372, 5213.000
1373.428, 5297.000
1374.485, 5302.000
1375.541, 5411.000
1376.597, 5329.000
1377.653, 5368.000
1378.708, 5414.000
1379.764, 5330.000
1380.819, 5286.000
1381.874, 5362.000
1382.930, 5308.000
1383.984, 5351.247
1385.039, 5449.000
1386.094, 5384.000
1387.148, 5406.000
1388.203, 5359.000
1389.257, 5377.000
1390.311, 5364.000
1391.365, 5432.000
1392.418, 5285.000
1393.472, 5329.000
1394.525, 5365.000
1395.578, 5294.000
1396.631, 5398.000
1397.684, 5265.000
1398.737, 5330.000
1399.790, 5341.000
1400.842, 5348.000
1401.895, 5342.000
1402.947, 5257.000
1403.999, 5292.000
1405.051, 5291.000
1406.102, 5350.000
1407.154, 5349.000
1408.205, 5332.000
1409.256, 5413.000
1410.308, 5340.000
1411.358, 5306.000
1412.409, 5311.000
1413.460, 5436.000
1414.510, 5313.000
1415.561, 5349.000
1416.611, 5237.000
1417.661, 5312.000
1418.711, 5420.000
1419.760, 5290.000
1420.810, 5254.000
1421.859, 5251.000
1422.909, 5333.000
1423.958, 5372.000
1425.007, 5322.000
1426.055, 5362.000
1427.104, 5305.000
1428.153, 5372.000
1429.201, 5370.000
1430.249, 5380.000
1431.297, 5374.000
1432.345, 5349.000
1433.393, 5378.000
1434.440, 5306.000
1435.488, 5325.000
1436.535, 5271.000
1437.582, 5325.000
1438.629, 5352.000
1439.676, 5303.000
1440.723, 5376.000
1441.769, 5437.000
1442.815, 5367.000
1443.862, 5324.000
1444.908, 5398.000
1445.954, 5307.000
1446.999, 5363.000
1448.045, 5349.000
1449.090, 5323.000
1450.136, 5429.000
1451.181, 5375.000
1452.226, 5422.000
1453.271, 5337.000
1454.315, 5369.000
1455.360, 5285.000
1456.404, 5386.000
1457.448, 5432.000
1458.492, 5291.000
1459.536, 5378.000
1460.580, 5399.000
1461.624, 5381.000
1462.667, 5371.000
1463.711, 5425.000
1464.754, 5423.013
1465.797, 5448.726
1466.840, 5441.636
1467.882, 5461.000
1468.925, 5460.056
1469.967, 5439.209
1471.010, 5451.000
1472.052, 5406.000
1473.094, 5384.000
1474.135, 5402.000
1475.177, 5435.000
1476.218, 5358.000
1477.260, 5355.000
1478.301, 5374.000
1479.342, 5456.000
1480.383, 5360.000
1481.424, 5393.000
1482.464, 5465.000
1483.505, 5408.000
1484.545, 5319.000
1485.585, 5404.000
1486.625, 5487.000
1487.665, 5479.000
1488.705, 5380.000
1489.744, 5424.000
1490.783, 5424.000
1491.823, 5399.000
1492.862, 5390.000
1493.901, 5431.000
1494.939, 5462.000
1495.978, 5517.000
1497.016, 5543.000
1498.055, 5422.000
1499.093, 5487.000
1500.131, 5495.000
1501.169, 5481.000
1502.206, 5514.000
1503.244, 5500.000
1504.281, 5432.000
1505.319, 5485.000
1506.356, 5383.000
1507.393, 5454.000
1508.430, 5544.000
1509.466, 5525.000
1510.503, 5505.000
1511.539, 5467.000
1512.575, 5528.000
1513.611, 5514.000
1514.647, 5531.000
1515.683, 5439.000
1516.718, 5511.000
1517.754, 5552.000
1518.789, 5431.000
1519.824, 5494.000
1520.859, 5567.000
1521.894, 5636.000
1522.929, 5587.000
1523.963, 5609.138
1524.998, 5535.000
1526.032, 5539.000
1527.066, 5569.000
1528.100, 5512.000
1529.134, 5519.000
1530.167, 5534.000
1531.201, 5672.000
1532.234, 5659.000
1533.267, 5449.000
1534.300, 5631.000
1535.333, 5557.000
1536.366, 5637.000
1537.398, 5611.000
1538.431, 5653.000
1539.463, 5656.000
1540.495, 5632.000
1541.527, 5568.000
1542.559, 5676.000
1543.591, 5567.000
1544.622, 5624.000
1545.654, 5716.000
1546.685, 5697.000
1547.716, 5659.000
1548.747, 5680.000
1549.778, 5748.000
1550.808, 5770.814
1551.839, 5997.000
1552.869, 5818.000
1553.899, 5911.000
1554.929, 5781.000
1555.959, 5790.000
1556.989, 5759.000
1558.018, 5750.000
1559.048, 5743.000
1560.077, 5770.000
1561.106, 5823.000
1562.135, 5570.000
1563.164, 5757.000
1564.192, 5692.000
1565.221, 5682.000
1566.249, 5825.000
1567.277, 5797.000
1568.306, 5734.000
1569.333, 5681.000
1570.361, 5857.000
1571.389, 5798.000
1572.416, 5861.000
1573.444, 5855.000
1574.471, 5828.000
1575.498, 5742.000
1576.525, 5726.000
##END=



