##NAMES=Scholzite
##RRUFFID=R050238
##IDEAL CHEMISTRY=CaZn^2+^_2_(PO_4_)_2_&#183;2H_2_O
##LOCALITY=near Blinman, South Australia, Australia
##OWNER=RRUFF
##SOURCE=Marcus Origlieri
##DESCRIPTION=Colorless bladed crystals
##STATUS=The identification of this mineral has been confirmed by X-ray diffraction and chemical analysis
##URL=rruff.info/R050238
##MEASURED CHEMISTRY=Ca_1.00_Zn_2.00_(P_1.00_O_4_)_2_Â·2H_2_O
##PIN_ID=M00184
##ORIENTATION=Laser parallel to -a* (-1 0 0). Fiducial mark perpendicular to laser is parallel to -b [0 -1 0]
135.3560, 7686.000
136.5850, 7847.000
137.8140, 7941.000
139.0430, 8125.000
140.2710, 7957.000
141.5000, 7961.000
142.7280, 8020.000
143.9560, 7979.000
145.1840, 7912.000
146.4120, 7939.000
147.6390, 7822.000
148.8670, 7771.000
150.0940, 7861.000
151.3210, 7970.000
152.5490, 8055.000
153.7750, 8028.000
155.0020, 8133.000
156.2290, 8135.000
157.4550, 8150.000
158.6810, 8322.000
159.9080, 8775.000
161.1340, 9064.000
162.3590, 9664.000
163.5850, 10067.00
164.8110, 10580.00
166.0360, 10611.00
167.2610, 10477.00
168.4860, 10123.00
169.7110, 10061.00
170.9360, 9744.000
172.1610, 9385.000
173.3850, 9059.000
174.6100, 8826.000
175.8340, 8641.599
177.0580, 8612.000
178.2820, 8446.000
179.5050, 8493.000
180.7290, 8509.000
181.9520, 8504.000
183.1760, 8392.000
184.3990, 8398.000
185.6220, 8378.000
186.8450, 8416.000
188.0670, 8372.000
189.2900, 8290.000
190.5120, 8301.000
191.7340, 8280.000
192.9560, 8222.000
194.1780, 8188.000
195.4000, 8226.000
196.6220, 8288.000
197.8430, 8343.000
199.0640, 8268.000
200.2860, 8547.000
201.5070, 8759.000
202.7270, 8586.000
203.9480, 8203.000
205.1690, 7525.000
206.3890, 7333.000
207.6090, 7205.000
208.8290, 7079.000
210.0490, 7235.000
211.2690, 7268.000
212.4890, 7422.000
213.7080, 7456.000
214.9280, 7361.000
216.1470, 7642.000
217.3660, 7649.000
218.5850, 7885.000
219.8030, 8107.000
221.0220, 8316.000
222.2400, 8528.000
223.4590, 8754.000
224.6770, 8864.000
225.8950, 8851.000
227.1120, 8606.000
228.3300, 8404.000
229.5480, 8249.000
230.7650, 8115.000
231.9820, 7900.000
233.1990, 7806.000
234.4160, 7748.000
235.6330, 7719.000
236.8490, 7637.000
238.0660, 7699.000
239.2820, 7624.044
240.4980, 7675.000
241.7140, 7542.000
242.9300, 7623.000
244.1460, 7581.000
245.3610, 7586.000
246.5770, 7801.000
247.7920, 7618.000
249.0070, 7748.000
250.2220, 7919.000
251.4370, 8009.000
252.6510, 8040.000
253.8660, 8323.000
255.0800, 8131.000
256.2940, 8540.000
257.5080, 9074.000
258.7220, 9011.922
259.9360, 9795.000
261.1490, 9256.000
262.3630, 9300.000
263.5760, 9403.000
264.7890, 9836.000
266.0020, 10027.90
267.2150, 10514.00
268.4270, 10703.00
269.6400, 10966.00
270.8520, 11265.00
272.0640, 11302.00
273.2760, 11363.00
274.4880, 11483.00
275.7000, 11280.00
276.9120, 11237.00
278.1230, 11186.00
279.3340, 11037.57
280.5450, 10979.07
281.7560, 10838.00
282.9670, 10763.00
284.1780, 10716.00
285.3880, 10570.00
286.5980, 10637.00
287.8090, 10519.00
289.0190, 10345.00
290.2290, 10288.00
291.4380, 10148.00
292.6480, 10013.00
293.8570, 9806.000
295.0670, 9721.000
296.2760, 9556.000
297.4850, 9385.000
298.6930, 9238.000
299.9020, 9189.000
301.1110, 9081.000
302.3190, 8954.000
303.5270, 8732.000
304.7350, 8840.000
305.9430, 8899.000
307.1510, 8720.000
308.3580, 8741.000
309.5660, 8670.000
310.7730, 8751.000
311.9800, 8684.000
313.1870, 8685.000
314.3940, 8595.000
315.6010, 8623.000
316.8070, 8479.000
318.0130, 8547.000
319.2200, 8565.000
320.4260, 8604.000
321.6310, 8660.000
322.8370, 8568.000
324.0430, 8585.000
325.2480, 8570.000
326.4540, 8657.000
327.6590, 8600.000
328.8640, 8603.033
330.0680, 8561.000
331.2730, 8566.000
332.4780, 8429.000
333.6820, 8437.000
334.8860, 8434.000
336.0900, 8328.000
337.2940, 8333.000
338.4980, 8283.000
339.7010, 8182.000
340.9050, 8161.000
342.1080, 8145.000
343.3110, 8119.000
344.5140, 8067.000
345.7170, 8057.000
346.9200, 7946.000
348.1220, 7995.000
349.3240, 7984.000
350.5270, 8025.000
351.7290, 7894.000
352.9310, 7976.000
354.1320, 7947.883
355.3340, 7946.000
356.5350, 7963.000
357.7370, 8046.000
358.9380, 8065.000
360.1390, 8107.258
361.3400, 8114.000
362.5400, 8190.000
363.7410, 8168.000
364.9410, 8230.000
366.1410, 8216.000
367.3410, 8310.000
368.5410, 8282.000
369.7410, 8330.000
370.9400, 8338.000
372.1400, 8419.000
373.3390, 8441.000
374.5380, 8516.000
375.7370, 8597.000
376.9360, 8717.000
378.1350, 8742.524
379.3330, 8811.969
380.5310, 8836.000
381.7300, 8927.000
382.9280, 9029.000
384.1260, 9162.000
385.3230, 9316.000
386.5210, 9423.000
387.7180, 9692.000
388.9160, 9705.000
390.1130, 9940.000
391.3100, 10127.00
392.5060, 10409.00
393.7030, 10505.00
394.9000, 11001.00
396.0960, 11418.00
397.2920, 11762.00
398.4880, 12406.00
399.6840, 13015.00
400.8800, 13611.00
402.0750, 14544.00
403.2710, 15538.00
404.4660, 16441.00
405.6610, 17674.00
406.8560, 19094.00
408.0510, 20623.00
409.2450, 21498.00
410.4400, 21862.00
411.6340, 22262.00
412.8280, 21571.00
414.0220, 20456.00
415.2160, 18894.00
416.4100, 17384.00
417.6030, 15780.00
418.7970, 14308.00
419.9900, 13144.00
421.1830, 12285.00
422.3760, 11416.00
423.5690, 10928.00
424.7610, 10389.00
425.9540, 10020.00
427.1460, 9657.181
428.3380, 9462.000
429.5300, 9147.000
430.7220, 8981.000
431.9140, 8906.000
433.1050, 8667.000
434.2970, 8706.000
435.4880, 8615.000
436.6790, 8567.000
437.8700, 8546.000
439.0610, 8438.000
440.2510, 8392.987
441.4420, 8299.000
442.6320, 8287.000
443.8220, 8202.000
445.0120, 8226.000
446.2020, 8131.000
447.3910, 8220.000
448.5810, 8133.000
449.7700, 8103.000
450.9600, 8261.000
452.1490, 8150.000
453.3370, 8242.000
454.5260, 8253.000
455.7150, 8187.000
456.9030, 8302.000
458.0910, 8265.000
459.2800, 8193.000
460.4670, 8207.000
461.6550, 8199.000
462.8430, 8246.000
464.0300, 8275.000
465.2180, 8328.000
466.4050, 8255.000
467.5920, 8230.000
468.7790, 8312.000
469.9650, 8277.000
471.1520, 8325.000
472.3380, 8234.000
473.5250, 8261.000
474.7110, 8259.379
475.8970, 8275.000
477.0820, 8317.000
478.2680, 8311.000
479.4540, 8350.486
480.6390, 8408.000
481.8240, 8397.000
483.0090, 8433.000
484.1940, 8427.000
485.3780, 8483.000
486.5630, 8539.000
487.7470, 8423.000
488.9320, 8681.000
490.1160, 8767.000
491.3000, 9137.000
492.4830, 8703.000
493.6670, 8582.000
494.8500, 8787.000
496.0340, 8615.000
497.2170, 8705.000
498.4000, 8711.000
499.5820, 8793.000
500.7650, 8869.000
501.9480, 8797.000
503.1300, 8867.000
504.3120, 8951.000
505.4940, 8946.697
506.6760, 9040.000
507.8580, 9005.000
509.0390, 9153.000
510.2210, 9150.000
511.4020, 9201.000
512.5830, 9456.000
513.7640, 9399.000
514.9450, 9265.000
516.1250, 9483.000
517.3060, 9573.000
518.4860, 9591.000
519.6660, 9585.000
520.8460, 9548.000
522.0260, 9725.000
523.2060, 9750.000
524.3850, 9715.000
525.5650, 9862.000
526.7440, 10045.00
527.9230, 9945.000
529.1020, 10117.00
530.2810, 10083.00
531.4590, 10258.00
532.6380, 10442.00
533.8160, 10629.00
534.9940, 10735.00
536.1720, 11084.00
537.3500, 11596.00
538.5270, 11938.00
539.7050, 12719.00
540.8820, 13628.00
542.0590, 14623.00
543.2360, 15982.00
544.4130, 17654.00
545.5900, 19835.00
546.7660, 22256.88
547.9430, 24941.00
549.1190, 28201.00
550.2950, 31860.00
551.4710, 35600.00
552.6470, 37973.00
553.8220, 37924.00
554.9980, 34733.00
556.1730, 30323.00
557.3480, 25596.00
558.5230, 22079.00
559.6980, 19028.00
560.8730, 16962.00
562.0470, 15441.00
563.2220, 14238.00
564.3960, 13286.00
565.5700, 12567.00
566.7440, 12012.00
567.9170, 11594.00
569.0910, 11422.00
570.2640, 10871.00
571.4380, 10799.00
572.6110, 10606.00
573.7840, 10537.00
574.9570, 10298.00
576.1290, 10344.00
577.3020, 10260.00
578.4740, 10075.00
579.6460, 10159.00
580.8180, 10237.00
581.9900, 10252.00
583.1620, 10357.00
584.3330, 10438.00
585.5040, 10377.00
586.6760, 10552.00
587.8470, 10658.00
589.0180, 10633.00
590.1880, 10903.00
591.3590, 10879.00
592.5290, 11153.00
593.7000, 11153.00
594.8700, 11311.00
596.0400, 11492.00
597.2090, 11662.00
598.3790, 11814.00
599.5490, 11881.52
600.7180, 11931.06
601.8870, 11932.00
603.0560, 11882.00
604.2250, 11818.00
605.3940, 11686.00
606.5620, 11674.00
607.7300, 11503.00
608.8990, 11314.00
610.0670, 11177.00
611.2350, 11138.00
612.4020, 11085.00
613.5700, 10903.00
614.7370, 10725.00
615.9050, 10798.00
617.0720, 10731.00
618.2390, 10722.14
619.4060, 10674.03
620.5720, 10778.00
621.7390, 10644.00
622.9050, 10725.00
624.0710, 10962.00
625.2370, 10887.00
626.4030, 11114.00
627.5690, 10834.00
628.7340, 10808.00
629.9000, 10904.00
631.0650, 10854.00
632.2300, 10754.00
633.3950, 10814.00
634.5600, 10736.00
635.7240, 10620.00
636.8890, 10667.00
638.0530, 10490.00
639.2170, 10481.00
640.3810, 10445.00
641.5450, 10381.00
642.7080, 10328.00
643.8720, 10285.00
645.0350, 10326.00
646.1980, 10388.00
647.3610, 10297.00
648.5240, 10295.18
649.6870, 10154.00
650.8490, 10187.00
652.0120, 10126.00
653.1740, 10095.00
654.3360, 10084.00
655.4980, 10041.00
656.6600, 9943.000
657.8210, 9945.000
658.9830, 9998.000
660.1440, 9881.000
661.3050, 9856.000
662.4660, 9909.000
663.6270, 9848.000
664.7870, 9809.000
665.9480, 10029.00
667.1080, 9933.000
668.2680, 9906.000
669.4280, 9734.000
670.5880, 9831.000
671.7480, 9815.000
672.9070, 9803.000
674.0670, 9805.000
675.2260, 9780.000
676.3850, 9858.000
677.5440, 9733.000
678.7030, 9905.000
679.8610, 9820.000
681.0200, 9713.000
682.1780, 9851.000
683.3360, 9842.000
684.4940, 9870.000
685.6520, 9865.000
686.8090, 9923.000
687.9670, 9828.000
689.1240, 9917.000
690.2810, 9927.000
691.4380, 9830.000
692.5950, 9847.000
693.7520, 9784.000
694.9080, 9919.000
696.0650, 9962.000
697.2210, 9927.000
698.3770, 9911.000
699.5330, 9949.000
700.6880, 10063.00
701.8440, 10175.00
702.9990, 10117.00
704.1550, 10037.00
705.3100, 10218.00
706.4650, 10193.00
707.6190, 10214.00
708.7740, 10160.00
709.9290, 10210.00
711.0830, 10225.00
712.2370, 10258.00
713.3910, 10282.00
714.5450, 10357.00
715.6980, 10410.00
716.8520, 10397.00
718.0050, 10502.00
719.1580, 10423.00
720.3110, 10428.00
721.4640, 10426.00
722.6170, 10335.00
723.7700, 10490.00
724.9220, 10498.00
726.0740, 10395.00
727.2260, 10387.00
728.3780, 10453.00
729.5300, 10405.00
730.6810, 10616.00
731.8330, 10399.00
732.9840, 10321.00
734.1350, 10321.00
735.2860, 10476.00
736.4370, 10374.00
737.5880, 10434.00
738.7380, 10460.00
739.8880, 10397.00
741.0390, 10275.00
742.1890, 10321.00
743.3380, 10410.00
744.4880, 10481.00
745.6380, 10410.00
746.7870, 10382.00
747.9360, 10317.00
749.0850, 10207.00
750.2340, 10448.00
751.3830, 10222.00
752.5310, 10379.00
753.6800, 10277.00
754.8280, 10247.00
755.9760, 10275.00
757.1240, 10399.00
758.2720, 10419.00
759.4190, 10277.00
760.5670, 10323.00
761.7140, 10264.00
762.8610, 10327.00
764.0080, 10475.00
765.1550, 10374.00
766.3020, 10362.00
767.4480, 10471.00
768.5950, 10307.00
769.7410, 10494.00
770.8870, 10412.00
772.0330, 10332.00
773.1780, 10365.00
774.3240, 10401.00
775.4690, 10292.00
776.6140, 10475.00
777.7590, 10396.00
778.9040, 10375.00
780.0490, 10570.00
781.1940, 10514.00
782.3380, 10392.00
783.4820, 10456.00
784.6260, 10447.00
785.7700, 10441.47
786.9140, 10497.00
788.0580, 10467.00
789.2010, 10571.00
790.3450, 10557.00
791.4880, 10432.00
792.6310, 10529.00
793.7730, 10448.00
794.9160, 10497.00
796.0590, 10595.00
797.2010, 10538.00
798.3430, 10475.00
799.4850, 10473.00
800.6270, 10665.00
801.7690, 10640.00
802.9100, 10605.00
804.0520, 10531.00
805.1930, 10487.00
806.3340, 10650.00
807.4750, 10663.00
808.6160, 10665.00
809.7560, 10575.00
810.8970, 10614.00
812.0370, 10643.00
813.1770, 10629.00
814.3170, 10698.00
815.4570, 10702.00
816.5960, 10686.00
817.7360, 10704.00
818.8750, 10712.00
820.0140, 10690.00
821.1530, 10736.00
822.2920, 10711.00
823.4310, 10700.00
824.5690, 10820.00
825.7070, 10706.00
826.8460, 10702.00
827.9840, 10963.00
829.1220, 10929.00
830.2590, 10827.00
831.3970, 10801.00
832.5340, 10788.05
833.6710, 10723.00
834.8080, 10843.00
835.9450, 10895.00
837.0820, 11028.00
838.2190, 10897.00
839.3550, 10956.00
840.4910, 11036.00
841.6270, 10965.00
842.7630, 11083.00
843.8990, 10933.00
845.0350, 11149.00
846.1700, 11061.00
847.3060, 11036.00
848.4410, 11037.00
849.5760, 11069.00
850.7100, 11141.00
851.8450, 11158.61
852.9800, 11187.00
854.1140, 11218.00
855.2480, 11193.00
856.3820, 11169.00
857.5160, 11336.00
858.6500, 11257.00
859.7830, 11294.00
860.9170, 11547.00
862.0500, 11571.00
863.1830, 11447.00
864.3160, 11286.00
865.4480, 11188.00
866.5810, 11186.00
867.7130, 11219.00
868.8460, 11295.00
869.9780, 11248.00
871.1100, 11247.00
872.2410, 11324.00
873.3730, 11224.00
874.5050, 11298.00
875.6360, 11217.00
876.7670, 11260.00
877.8980, 11233.00
879.0290, 11339.00
880.1590, 11286.00
881.2900, 11161.00
882.4200, 11351.00
883.5500, 11312.00
884.6800, 11217.00
885.8100, 11262.00
886.9400, 11337.00
888.0690, 11429.00
889.1990, 11396.00
890.3280, 11560.00
891.4570, 11450.00
892.5860, 11445.00
893.7140, 11494.00
894.8430, 11585.00
895.9710, 11575.00
897.1000, 11609.54
898.2280, 11626.00
899.3560, 11647.00
900.4830, 11666.00
901.6110, 11749.00
902.7380, 11875.00
903.8660, 11893.00
904.9930, 11951.00
906.1200, 11969.00
907.2460, 12199.00
908.3730, 12420.00
909.5000, 12529.00
910.6260, 12666.00
911.7520, 12828.00
912.8780, 12947.00
914.0040, 13351.00
915.1290, 13570.00
916.2550, 14100.00
917.3800, 14778.00
918.5050, 15380.00
919.6300, 16039.00
920.7550, 16838.00
921.8800, 17472.00
923.0040, 18000.00
924.1290, 18271.00
925.2530, 18322.00
926.3770, 17992.00
927.5010, 17718.00
928.6250, 17239.00
929.7480, 16614.00
930.8720, 16159.00
931.9950, 15665.00
933.1180, 15228.39
934.2410, 14774.00
935.3640, 14541.00
936.4860, 14216.00
937.6090, 14085.00
938.7310, 13864.00
939.8530, 13781.00
940.9750, 13557.00
942.0970, 13513.00
943.2180, 13552.00
944.3400, 13271.00
945.4610, 13215.00
946.5820, 13153.00
947.7030, 13217.00
948.8240, 13205.00
949.9450, 13168.58
951.0650, 13206.00
952.1860, 13134.00
953.3060, 13103.00
954.4260, 13163.00
955.5460, 13106.00
956.6650, 13094.00
957.7850, 13107.00
958.9040, 13293.00
960.0230, 13160.00
961.1420, 13254.00
962.2610, 13465.00
963.3800, 13357.00
964.4990, 13539.00
965.6170, 13613.00
966.7350, 13704.00
967.8530, 13762.00
968.9710, 13988.00
970.0890, 14135.00
971.2070, 14348.00
972.3240, 14396.00
973.4410, 14713.00
974.5580, 14900.00
975.6750, 15185.00
976.7920, 15577.00
977.9090, 15973.00
979.0250, 16272.00
980.1410, 16888.00
981.2580, 17460.00
982.3740, 18476.00
983.4890, 19559.00
984.6050, 20658.00
985.7200, 22439.00
986.8360, 24155.00
987.9510, 26702.00
989.0660, 29358.00
990.1810, 32184.00
991.2950, 35230.00
992.4100, 38519.00
993.5240, 41949.00
994.6390, 45583.00
995.7530, 49509.00
996.8660, 53378.00
997.9800, 57249.00
999.0940, 60551.00
1000.207, 62962.00
1001.320, 63965.00
1002.433, 63551.00
1003.546, 60822.00
1004.659, 56107.00
1005.772, 50164.00
1006.884, 44264.00
1007.996, 38764.00
1009.108, 33547.00
1010.220, 29244.00
1011.332, 26090.00
1012.444, 23413.00
1013.555, 21328.00
1014.666, 19759.00
1015.777, 18610.00
1016.888, 17785.00
1017.999, 17460.00
1019.110, 16802.61
1020.220, 16879.00
1021.331, 16260.00
1022.441, 16043.00
1023.551, 16090.00
1024.661, 15995.00
1025.770, 15680.00
1026.880, 15419.00
1027.989, 15196.00
1029.098, 14748.00
1030.207, 14479.00
1031.316, 14373.00
1032.425, 14111.00
1033.533, 13973.00
1034.642, 13820.00
1035.750, 13763.00
1036.858, 13653.00
1037.966, 13612.00
1039.073, 13485.00
1040.181, 13680.00
1041.288, 13433.00
1042.396, 13572.00
1043.503, 13624.00
1044.610, 13540.00
1045.716, 13525.00
1046.823, 13633.00
1047.929, 13654.00
1049.036, 13596.00
1050.142, 13676.00
1051.248, 13897.00
1052.353, 13829.00
1053.459, 14025.00
1054.564, 14161.00
1055.670, 14003.00
1056.775, 14058.00
1057.880, 13879.00
1058.985, 13857.00
1060.089, 13796.00
1061.194, 13537.00
1062.298, 13885.00
1063.402, 13906.00
1064.506, 13729.00
1065.610, 13680.00
1066.713, 13758.00
1067.817, 13894.00
1068.920, 13758.00
1070.023, 13999.00
1071.126, 13992.00
1072.229, 13922.00
1073.332, 14356.00
1074.435, 14436.00
1075.537, 14146.00
1076.639, 14195.00
1077.741, 14214.00
1078.843, 14281.00
1079.945, 14335.00
1081.046, 14488.00
1082.148, 14584.42
1083.249, 14666.00
1084.350, 14824.00
1085.451, 14845.00
1086.551, 14894.00
1087.652, 14845.00
1088.752, 14898.00
1089.853, 14998.00
1090.953, 14979.00
1092.053, 14881.00
1093.152, 15060.00
1094.252, 14802.00
1095.351, 14734.35
1096.451, 14954.00
1097.550, 14349.00
1098.649, 14457.00
1099.748, 14183.00
1100.846, 14232.00
1101.945, 14278.00
1103.043, 14053.00
1104.141, 14001.00
1105.239, 13969.00
1106.337, 13984.00
1107.434, 13989.57
1108.532, 13920.00
1109.629, 14074.00
1110.726, 14088.00
1111.823, 14162.00
1112.920, 14067.00
1114.017, 14197.00
1115.113, 14274.00
1116.210, 14233.00
1117.306, 14001.00
1118.402, 13978.00
1119.498, 14058.00
1120.593, 13827.00
1121.689, 13848.00
1122.784, 13753.00
1123.879, 13515.00
1124.974, 13634.62
1126.069, 13495.52
1127.164, 13732.00
1128.259, 13624.00
1129.353, 13631.00
1130.447, 13733.74
1131.541, 13636.00
1132.635, 13819.00
1133.729, 13717.00
1134.822, 13684.00
1135.916, 13491.00
1137.009, 13351.00
1138.102, 13592.00
1139.195, 13501.00
1140.288, 13605.00
1141.380, 13488.00
1142.473, 13549.00
1143.565, 13526.00
1144.657, 13535.00
1145.749, 13558.00
1146.841, 13494.00
1147.932, 13486.00
1149.024, 13495.00
1150.115, 13541.00
1151.206, 13583.02
1152.297, 13567.82
1153.388, 13648.00
1154.479, 13656.00
1155.569, 13734.21
1156.659, 13818.00
1157.750, 13864.00
1158.839, 13851.00
1159.929, 13830.00
1161.019, 13891.00
1162.108, 13966.00
1163.198, 13982.00
1164.287, 13984.00
1165.376, 14125.00
1166.465, 14381.00
1167.553, 14422.00
1168.642, 14502.00
1169.730, 14534.00
1170.818, 14719.00
1171.906, 14698.00
1172.994, 14641.00
1174.082, 14660.00
1175.170, 14494.00
1176.257, 14241.00
1177.344, 14205.00
1178.431, 13919.00
1179.518, 14003.00
1180.605, 14001.00
1181.691, 14085.00
1182.778, 13865.00
1183.864, 13897.00
1184.950, 13948.00
1186.036, 13699.00
1187.122, 13890.00
1188.207, 13932.00
1189.292, 13748.00
1190.378, 13697.00
1191.463, 13898.00
1192.548, 13650.00
1193.632, 13899.00
1194.717, 13809.00
1195.801, 13755.00
1196.886, 13793.00
1197.970, 13896.00
1199.054, 13902.00
1200.137, 13664.00
1201.221, 13959.00
1202.305, 13859.00
1203.388, 13795.00
1204.471, 13908.00
1205.554, 13818.60
1206.637, 14031.00
1207.719, 13815.00
1208.802, 13750.00
1209.884, 13801.00
1210.966, 13925.00
1212.048, 13934.00
1213.130, 13980.00
1214.212, 14014.00
1215.293, 13973.00
1216.374, 13872.00
1217.456, 13953.04
1218.536, 13910.39
1219.617, 14015.00
1220.698, 13939.00
1221.778, 13881.00
1222.859, 13898.85
1223.939, 14038.00
1225.019, 13997.00
1226.099, 14105.00
1227.178, 14146.00
1228.258, 14099.00
1229.337, 14089.00
1230.417, 14102.98
1231.496, 14011.00
1232.574, 14114.00
1233.653, 14095.00
1234.732, 14096.00
1235.810, 14169.00
1236.888, 14086.00
1237.966, 14270.00
1239.044, 14140.00
1240.122, 14261.00
1241.199, 14177.00
1242.277, 14385.00
1243.354, 14250.00
1244.431, 14296.00
1245.508, 14184.00
1246.585, 14398.00
1247.661, 14451.00
1248.738, 14263.00
1249.814, 14364.00
1250.890, 14260.00
1251.966, 14434.00
1253.042, 14429.64
1254.117, 14429.00
1255.193, 14469.00
1256.268, 14445.00
1257.343, 14360.00
1258.418, 14369.76
1259.493, 14357.90
1260.567, 14358.00
1261.642, 14377.00
1262.716, 14478.00
1263.790, 14484.00
1264.864, 14563.00
1265.938, 14632.00
1267.011, 14678.00
1268.085, 14605.00
1269.158, 14642.00
1270.231, 14738.00
1271.304, 14591.00
1272.377, 14698.00
1273.450, 14674.00
1274.522, 14705.00
1275.594, 14683.74
1276.666, 14842.02
1277.738, 14933.81
1278.810, 14962.66
1279.882, 14740.09
1280.953, 14842.17
1282.025, 14814.16
1283.096, 14780.80
1284.167, 14928.57
1285.238, 14742.57
1286.308, 14887.46
1287.379, 14900.28
1288.449, 14973.53
1289.519, 14915.89
1290.589, 14898.67
1291.659, 15012.41
1292.729, 15053.63
1293.798, 14980.91
1294.868, 15058.01
1295.937, 14867.42
1297.006, 14911.73
1298.075, 15057.39
1299.143, 14991.24
1300.212, 15070.73
1301.280, 15094.75
1302.348, 14866.70
1303.416, 15098.00
1304.484, 15139.00
1305.552, 15071.00
1306.620, 15214.00
1307.687, 15140.00
1308.754, 15231.00
1309.821, 15163.00
1310.888, 15307.00
1311.955, 15417.00
1313.021, 15292.00
1314.088, 15225.00
1315.154, 15191.00
1316.220, 15217.92
1317.286, 15527.00
1318.352, 15359.00
1319.417, 15378.00
1320.483, 15445.00
1321.548, 15305.00
1322.613, 15203.00
1323.678, 15326.00
1324.743, 15323.00
1325.807, 15191.00
1326.872, 15352.00
1327.936, 15333.00
1329.000, 15305.00
1330.064, 15334.00
1331.128, 15300.00
1332.191, 15265.00
1333.255, 15206.00
1334.318, 15356.00
1335.381, 15428.00
1336.444, 15198.00
1337.507, 15364.00
1338.569, 15226.00
1339.632, 15194.00
1340.694, 15415.00
1341.756, 15295.00
1342.818, 15538.00
1343.880, 15500.00
1344.941, 15302.00
1346.003, 15447.00
1347.064, 15435.00
1348.125, 15418.00
1349.186, 15439.00
1350.247, 15402.00
1351.308, 15519.00
1352.368, 15501.12
1353.428, 15604.00
1354.489, 15552.00
1355.549, 15547.00
1356.608, 15584.00
1357.668, 15551.00
1358.727, 15543.34
1359.787, 15610.00
1360.846, 15504.00
1361.905, 15499.02
1362.964, 15504.81
1364.022, 15551.00
1365.081, 15354.00
1366.139, 15610.00
1367.197, 15424.00
1368.255, 15436.00
1369.313, 15607.00
1370.371, 15605.00
1371.428, 15544.00
1372.486, 15605.00
1373.543, 15721.00
1374.600, 15733.00
1375.657, 15762.00
1376.713, 15670.00
1377.770, 15657.00
1378.826, 15684.00
1379.882, 15771.00
1380.938, 15715.00
1381.994, 15607.00
1383.050, 15716.30
1384.106, 15629.52
1385.161, 15803.00
1386.216, 15655.00
1387.271, 15595.00
1388.326, 15749.00
1389.381, 15857.00
1390.435, 15776.00
1391.490, 15810.00
1392.544, 15781.00
1393.598, 15788.60
1394.652, 15777.00
1395.705, 15777.63
1396.759, 15731.00
1397.812, 15781.00
1398.866, 15784.00
1399.919, 15772.00
1400.972, 15910.00
1402.024, 15736.00
1403.077, 15809.00
1404.129, 15776.00
1405.181, 15949.00
1406.233, 15894.00
1407.285, 15888.00
1408.337, 15937.00
1409.389, 15835.00
1410.440, 15845.00
1411.491, 15940.00
1412.542, 15915.00
1413.593, 15839.00
1414.644, 16105.00
1415.695, 15887.00
1416.745, 15965.00
1417.795, 16045.00
1418.845, 16011.00
1419.895, 16065.00
1420.945, 16123.00
1421.995, 16091.00
1423.044, 15826.00
1424.093, 16263.00
1425.142, 16127.00
1426.191, 15951.00
1427.240, 16176.00
1428.289, 16250.00
1429.337, 16200.00
1430.385, 16164.00
1431.433, 16143.00
1432.481, 16287.00
1433.529, 16233.00
1434.577, 16546.00
1435.624, 16420.00
1436.672, 16445.00
1437.719, 16372.00
1438.766, 16650.00
1439.812, 16645.00
1440.859, 16616.00
1441.905, 16832.00
1442.952, 16495.00
1443.998, 16706.00
1445.044, 16760.00
1446.090, 16489.00
1447.135, 16849.00
1448.181, 16991.00
1449.226, 16670.00
1450.271, 16954.00
1451.316, 16959.00
1452.361, 16980.00
1453.405, 16847.00
1454.450, 17009.00
1455.494, 16925.00
1456.538, 16843.00
1457.582, 16959.00
1458.626, 17001.00
1459.670, 16867.00
1460.713, 16997.00
1461.757, 16927.00
1462.800, 16707.00
1463.843, 16898.00
1464.886, 16840.00
1465.928, 16793.00
1466.971, 16800.00
1468.013, 16813.00
1469.055, 16812.00
1470.097, 16850.00
1471.139, 16774.00
1472.181, 16697.00
1473.222, 16777.00
1474.263, 16762.00
1475.305, 16566.00
1476.346, 16797.00
1477.386, 16742.00
1478.427, 16704.00
1479.468, 16797.00
1480.508, 16878.00
1481.548, 16888.00
1482.588, 16815.00
1483.628, 16903.00
1484.668, 16861.00
1485.707, 16788.00
1486.747, 16887.00
1487.786, 16972.00
1488.825, 16689.00
1489.864, 16886.00
1490.902, 16737.00
1491.941, 16792.00
1492.979, 16898.00
1494.017, 17012.00
1495.055, 16861.00
1496.093, 16805.00
1497.131, 16941.00
1498.168, 16775.00
1499.206, 16969.00
1500.243, 16905.00
1501.280, 16805.00
1502.317, 16952.00
1503.354, 16867.00
1504.390, 16872.00
1505.426, 17006.00
1506.463, 16994.00
1507.499, 16933.00
1508.535, 16894.12
1509.570, 17179.00
1510.606, 16817.00
1511.641, 16798.00
1512.676, 17069.00
1513.711, 16881.00
1514.746, 17021.00
1515.781, 17212.00
1516.816, 16793.00
1517.850, 17126.00
1518.884, 17098.00
1519.918, 17090.00
1520.952, 17075.00
1521.986, 17005.00
1523.019, 17165.00
1524.053, 17195.62
1525.086, 17430.00
1526.119, 17431.00
1527.152, 17445.35
1528.185, 17228.00
1529.217, 17403.00
1530.250, 17266.00
1531.282, 17282.00
1532.314, 17388.00
1533.346, 17350.00
1534.377, 17366.00
1535.409, 17339.00
1536.440, 17316.00
1537.472, 17337.00
1538.503, 17452.00
1539.534, 17363.00
1540.564, 17418.00
1541.595, 17613.00
1542.625, 17451.00
1543.656, 17545.00
1544.686, 17392.00
1545.716, 17436.00
1546.745, 17414.00
1547.775, 17505.00
1548.804, 17491.00
1549.834, 17529.00
1550.863, 17785.00
1551.892, 17862.00
1552.920, 17758.00
1553.949, 18067.00
1554.977, 17845.00
1556.006, 17546.00
1557.034, 17587.00
1558.062, 17541.00
1559.089, 17605.00
1560.117, 17653.00
1561.144, 17614.00
1562.172, 17617.00
1563.199, 17506.00
1564.226, 17760.00
1565.252, 17728.00
1566.279, 17656.00
1567.305, 17606.00
1568.332, 17577.00
1569.358, 17756.00
1570.384, 17729.00
1571.409, 17822.00
1572.435, 17665.00
##END=



