##NAMES=Scholzite
##RRUFFID=R050238
##IDEAL CHEMISTRY=CaZn^2+^_2_(PO_4_)_2_&#183;2H_2_O
##LOCALITY=near Blinman, South Australia, Australia
##OWNER=RRUFF
##SOURCE=Marcus Origlieri
##DESCRIPTION=Colorless bladed crystals
##STATUS=The identification of this mineral has been confirmed by X-ray diffraction and chemical analysis
##URL=rruff.info/R050238
##MEASURED CHEMISTRY=Ca_1.00_Zn_2.00_(P_1.00_O_4_)_2_Â·2H_2_O
##PIN_ID=M00218
##ORIENTATION=Laser parallel to c* (0 0 1). Fiducial mark perpendicular to laser is parallel to a [1 0 0]
135.3560, 10829.00
136.5850, 11082.00
137.8140, 11308.00
139.0430, 11551.00
140.2710, 11632.00
141.5000, 11494.00
142.7280, 11518.00
143.9560, 11514.00
145.1840, 11681.00
146.4120, 11641.00
147.6390, 11834.00
148.8670, 11939.00
150.0940, 12146.00
151.3210, 12289.00
152.5490, 12446.00
153.7750, 12717.00
155.0020, 12816.00
156.2290, 13206.00
157.4550, 13512.00
158.6810, 14120.00
159.9080, 14368.00
161.1340, 14799.00
162.3590, 15132.00
163.5850, 15351.00
164.8110, 15313.00
166.0360, 14832.00
167.2610, 14316.00
168.4860, 13685.00
169.7110, 13031.00
170.9360, 12466.00
172.1610, 11879.00
173.3850, 11471.06
174.6100, 11008.00
175.8340, 10822.00
177.0580, 10649.00
178.2820, 10520.65
179.5050, 10352.00
180.7290, 10276.00
181.9520, 10124.00
183.1760, 10041.00
184.3990, 10022.53
185.6220, 10084.00
186.8450, 10053.00
188.0670, 10036.00
189.2900, 10121.00
190.5120, 10075.00
191.7340, 10010.00
192.9560, 10197.00
194.1780, 10060.00
195.4000, 10135.00
196.6220, 10201.00
197.8430, 10136.00
199.0640, 10307.00
200.2860, 10519.00
201.5070, 10798.00
202.7270, 10921.00
203.9480, 10411.00
205.1690, 10231.00
206.3890, 10224.00
207.6090, 10310.00
208.8290, 10775.00
210.0490, 11396.00
211.2690, 11801.00
212.4890, 12611.00
213.7080, 13401.00
214.9280, 14204.00
216.1470, 15148.00
217.3660, 16071.00
218.5850, 17258.00
219.8030, 17767.00
221.0220, 18601.00
222.2400, 18809.00
223.4590, 18624.00
224.6770, 18251.00
225.8950, 17679.00
227.1120, 16899.00
228.3300, 16333.00
229.5480, 15806.00
230.7650, 15544.00
231.9820, 15102.00
233.1990, 15148.00
234.4160, 15032.00
235.6330, 14877.00
236.8490, 15000.00
238.0660, 15076.00
239.2820, 14945.00
240.4980, 13994.00
241.7140, 13530.00
242.9300, 13194.00
244.1460, 12908.00
245.3610, 12626.00
246.5770, 12252.00
247.7920, 12079.00
249.0070, 11801.00
250.2220, 11623.00
251.4370, 11617.00
252.6510, 11481.00
253.8660, 11437.00
255.0800, 11353.00
256.2940, 11373.00
257.5080, 11925.00
258.7220, 11730.00
259.9360, 12441.00
261.1490, 11819.00
262.3630, 11827.00
263.5760, 12022.00
264.7890, 12375.00
266.0020, 12457.00
267.2150, 12835.00
268.4270, 12978.00
269.6400, 13084.00
270.8520, 13437.00
272.0640, 13517.00
273.2760, 13692.00
274.4880, 13803.00
275.7000, 13973.00
276.9120, 14093.00
278.1230, 14060.00
279.3340, 14268.00
280.5450, 14515.00
281.7560, 14498.00
282.9670, 14718.00
284.1780, 14709.00
285.3880, 14807.00
286.5980, 14654.00
287.8090, 14557.00
289.0190, 14553.00
290.2290, 14358.00
291.4380, 14262.00
292.6480, 13901.00
293.8570, 13968.00
295.0670, 13678.00
296.2760, 13647.00
297.4850, 13445.00
298.6930, 13372.00
299.9020, 13428.00
301.1110, 13503.00
302.3190, 13467.00
303.5270, 13549.00
304.7350, 13502.00
305.9430, 13631.00
307.1510, 13578.00
308.3580, 13493.00
309.5660, 13471.00
310.7730, 13320.00
311.9800, 13106.00
313.1870, 12905.00
314.3940, 12746.00
315.6010, 12597.00
316.8070, 12402.00
318.0130, 12206.00
319.2200, 12110.00
320.4260, 11809.00
321.6310, 11636.00
322.8370, 11652.00
324.0430, 11404.00
325.2480, 11477.00
326.4540, 11200.00
327.6590, 11183.00
328.8640, 11009.00
330.0680, 10885.00
331.2730, 10974.00
332.4780, 10804.00
333.6820, 10768.00
334.8860, 10746.00
336.0900, 10631.00
337.2940, 10544.00
338.4980, 10596.00
339.7010, 10439.00
340.9050, 10326.00
342.1080, 10397.00
343.3110, 10024.00
344.5140, 10063.00
345.7170, 9960.000
346.9200, 9717.000
348.1220, 9765.000
349.3240, 9607.000
350.5270, 9346.000
351.7290, 9471.000
352.9310, 9372.000
354.1320, 9169.000
355.3340, 9209.000
356.5350, 9013.000
357.7370, 8996.000
358.9380, 8953.664
360.1390, 8939.000
361.3400, 8934.000
362.5400, 8883.340
363.7410, 8853.000
364.9410, 8789.000
366.1410, 8753.000
367.3410, 8686.000
368.5410, 8661.000
369.7410, 8735.000
370.9400, 8587.000
372.1400, 8737.000
373.3390, 8627.000
374.5380, 8729.000
375.7370, 8738.000
376.9360, 8554.000
378.1350, 8754.000
379.3330, 8723.000
380.5310, 8731.000
381.7300, 8794.000
382.9280, 8784.000
384.1260, 8915.000
385.3230, 8924.000
386.5210, 8988.000
387.7180, 8975.000
388.9160, 9053.000
390.1130, 9116.000
391.3100, 9142.000
392.5060, 9321.000
393.7030, 9502.000
394.9000, 9753.000
396.0960, 9909.000
397.2920, 10141.00
398.4880, 10505.00
399.6840, 10719.00
400.8800, 11148.00
402.0750, 11697.00
403.2710, 12139.00
404.4660, 12483.00
405.6610, 13090.00
406.8560, 13429.00
408.0510, 13835.00
409.2450, 13971.00
410.4400, 14111.00
411.6340, 14140.00
412.8280, 13588.00
414.0220, 13274.00
415.2160, 12792.00
416.4100, 12809.00
417.6030, 12049.00
418.7970, 11709.00
419.9900, 10755.00
421.1830, 10413.00
422.3760, 10190.00
423.5690, 10023.00
424.7610, 9654.000
425.9540, 9556.000
427.1460, 9550.000
428.3380, 9372.000
429.5300, 9278.000
430.7220, 9294.000
431.9140, 9164.000
433.1050, 9123.000
434.2970, 9081.000
435.4880, 9066.000
436.6790, 9020.000
437.8700, 8976.000
439.0610, 9011.000
440.2510, 8951.000
441.4420, 8931.000
442.6320, 8947.000
443.8220, 9167.000
445.0120, 8951.541
446.2020, 8928.000
447.3910, 8758.000
448.5810, 8621.000
449.7700, 8785.000
450.9600, 8773.000
452.1490, 8683.000
453.3370, 8637.000
454.5260, 8738.000
455.7150, 8610.000
456.9030, 8665.000
458.0910, 8708.000
459.2800, 8661.000
460.4670, 8665.000
461.6550, 8689.000
462.8430, 8678.000
464.0300, 8676.000
465.2180, 8635.000
466.4050, 8672.000
467.5920, 8689.000
468.7790, 8625.000
469.9650, 8691.000
471.1520, 8654.012
472.3380, 8771.000
473.5250, 8656.000
474.7110, 8743.000
475.8970, 8810.000
477.0820, 8646.000
478.2680, 8787.000
479.4540, 8812.000
480.6390, 8729.000
481.8240, 8708.000
483.0090, 8712.000
484.1940, 8842.000
485.3780, 8826.000
486.5630, 8887.000
487.7470, 8791.000
488.9320, 8947.000
490.1160, 8855.000
491.3000, 8988.000
492.4830, 9054.000
493.6670, 9073.000
494.8500, 8951.000
496.0340, 9077.000
497.2170, 9029.000
498.4000, 9178.000
499.5820, 9164.000
500.7650, 9211.000
501.9480, 9134.000
503.1300, 9268.000
504.3120, 9325.000
505.4940, 9301.000
506.6760, 9347.000
507.8580, 9278.000
509.0390, 9346.000
510.2210, 9299.000
511.4020, 9337.000
512.5830, 9426.000
513.7640, 9367.000
514.9450, 9419.000
516.1250, 9515.000
517.3060, 9490.919
518.4860, 9343.000
519.6660, 9520.681
520.8460, 9235.000
522.0260, 9204.000
523.2060, 9264.000
524.3850, 9334.000
525.5650, 9290.000
526.7440, 9387.000
527.9230, 9261.000
529.1020, 9298.000
530.2810, 9236.000
531.4590, 9403.000
532.6380, 9343.000
533.8160, 9391.000
534.9940, 9461.000
536.1720, 9421.000
537.3500, 9582.000
538.5270, 9624.000
539.7050, 9747.000
540.8820, 9778.000
542.0590, 9920.000
543.2360, 10097.00
544.4130, 10204.00
545.5900, 10396.00
546.7660, 10611.00
547.9430, 10777.00
549.1190, 10922.00
550.2950, 10975.00
551.4710, 11059.00
552.6470, 11036.00
553.8220, 10995.00
554.9980, 10697.00
556.1730, 10532.00
557.3480, 10342.00
558.5230, 10315.00
559.6980, 10066.00
560.8730, 9959.000
562.0470, 9995.000
563.2220, 9894.000
564.3960, 9910.000
565.5700, 9994.000
566.7440, 9986.000
567.9170, 10022.00
569.0910, 9995.000
570.2640, 10024.00
571.4380, 10122.00
572.6110, 10169.00
573.7840, 10217.00
574.9570, 10269.14
576.1290, 10297.00
577.3020, 10366.00
578.4740, 10401.23
579.6460, 10388.00
580.8180, 10468.00
581.9900, 10512.00
583.1620, 10503.00
584.3330, 10484.00
585.5040, 10523.00
586.6760, 10527.95
587.8470, 10550.48
589.0180, 10583.00
590.1880, 10591.00
591.3590, 10623.00
592.5290, 10614.00
593.7000, 10705.00
594.8700, 10682.43
596.0400, 10578.00
597.2090, 10674.00
598.3790, 10557.00
599.5490, 10529.00
600.7180, 10466.00
601.8870, 10362.00
603.0560, 10392.00
604.2250, 10309.00
605.3940, 10201.00
606.5620, 10142.00
607.7300, 10120.00
608.8990, 10023.00
610.0670, 10115.00
611.2350, 9907.000
612.4020, 9903.000
613.5700, 9899.000
614.7370, 10020.00
615.9050, 9995.000
617.0720, 9962.000
618.2390, 9842.000
619.4060, 9861.000
620.5720, 9994.000
621.7390, 9873.000
622.9050, 9917.000
624.0710, 9997.216
625.2370, 9980.138
626.4030, 10104.00
627.5690, 10085.00
628.7340, 10007.00
629.9000, 10087.00
631.0650, 10106.00
632.2300, 10016.00
633.3950, 10038.00
634.5600, 10142.00
635.7240, 10108.00
636.8890, 10251.00
638.0530, 10184.00
639.2170, 10109.00
640.3810, 10105.00
641.5450, 10123.00
642.7080, 10054.00
643.8720, 10165.00
645.0350, 10217.00
646.1980, 10120.00
647.3610, 10075.00
648.5240, 10102.00
649.6870, 10038.00
650.8490, 9992.000
652.0120, 10061.00
653.1740, 10150.00
654.3360, 10112.00
655.4980, 10131.00
656.6600, 10048.00
657.8210, 10144.00
658.9830, 10133.00
660.1440, 10163.00
661.3050, 10153.00
662.4660, 10069.00
663.6270, 10083.00
664.7870, 10049.04
665.9480, 9997.938
667.1080, 10030.00
668.2680, 9974.000
669.4280, 9989.000
670.5880, 10121.00
671.7480, 9939.000
672.9070, 9883.000
674.0670, 10155.00
675.2260, 9980.000
676.3850, 9991.000
677.5440, 10001.00
678.7030, 9967.000
679.8610, 9929.000
681.0200, 10035.00
682.1780, 10072.00
683.3360, 10020.00
684.4940, 10050.00
685.6520, 10077.00
686.8090, 10006.00
687.9670, 10105.00
689.1240, 9947.000
690.2810, 10076.00
691.4380, 10093.00
692.5950, 10052.00
693.7520, 10106.00
694.9080, 10070.00
696.0650, 10202.00
697.2210, 10172.00
698.3770, 10177.00
699.5330, 10213.00
700.6880, 10140.00
701.8440, 10209.00
702.9990, 10184.00
704.1550, 10196.00
705.3100, 10187.00
706.4650, 10229.00
707.6190, 10132.00
708.7740, 10211.00
709.9290, 10284.00
711.0830, 10201.00
712.2370, 10303.00
713.3910, 10304.00
714.5450, 10290.00
715.6980, 10236.00
716.8520, 10314.00
718.0050, 10455.00
719.1580, 10318.00
720.3110, 10330.00
721.4640, 10296.00
722.6170, 10469.00
723.7700, 10428.00
724.9220, 10371.00
726.0740, 10541.00
727.2260, 10403.00
728.3780, 10349.00
729.5300, 10367.00
730.6810, 10441.00
731.8330, 10422.00
732.9840, 10528.00
734.1350, 10444.00
735.2860, 10536.00
736.4370, 10472.00
737.5880, 10504.00
738.7380, 10494.00
739.8880, 10513.00
741.0390, 10432.00
742.1890, 10558.00
743.3380, 10591.00
744.4880, 10521.00
745.6380, 10481.00
746.7870, 10548.00
747.9360, 10434.00
749.0850, 10576.00
750.2340, 10735.00
751.3830, 10535.00
752.5310, 10664.00
753.6800, 10613.00
754.8280, 10522.00
755.9760, 10626.00
757.1240, 10582.00
758.2720, 10666.00
759.4190, 10537.00
760.5670, 10611.00
761.7140, 10573.00
762.8610, 10598.69
764.0080, 10576.00
765.1550, 10685.00
766.3020, 10709.00
767.4480, 10739.00
768.5950, 10705.00
769.7410, 10637.00
770.8870, 10785.00
772.0330, 10692.00
773.1780, 10720.00
774.3240, 10890.00
775.4690, 10783.00
776.6140, 10791.00
777.7590, 10846.00
778.9040, 10742.00
780.0490, 10904.00
781.1940, 10831.00
782.3380, 10875.00
783.4820, 10895.00
784.6260, 10917.00
785.7700, 10796.00
786.9140, 11070.00
788.0580, 10854.00
789.2010, 10893.00
790.3450, 11027.00
791.4880, 11021.00
792.6310, 10847.00
793.7730, 11024.00
794.9160, 10909.00
796.0590, 11047.00
797.2010, 10986.00
798.3430, 11104.00
799.4850, 10967.00
800.6270, 10947.00
801.7690, 11073.00
802.9100, 11071.00
804.0520, 11183.00
805.1930, 11057.00
806.3340, 11177.00
807.4750, 11123.00
808.6160, 11107.00
809.7560, 11268.00
810.8970, 11313.00
812.0370, 11180.00
813.1770, 11365.00
814.3170, 11173.00
815.4570, 11322.00
816.5960, 11133.00
817.7360, 11224.00
818.8750, 11226.00
820.0140, 11270.00
821.1530, 11213.00
822.2920, 11400.00
823.4310, 11327.00
824.5690, 11321.00
825.7070, 11390.00
826.8460, 11349.00
827.9840, 11128.00
829.1220, 11286.00
830.2590, 11315.00
831.3970, 11515.00
832.5340, 11369.00
833.6710, 11411.00
834.8080, 11384.00
835.9450, 11420.00
837.0820, 11458.00
838.2190, 11448.00
839.3550, 11427.00
840.4910, 11520.00
841.6270, 11489.00
842.7630, 11456.00
843.8990, 11563.00
845.0350, 11454.00
846.1700, 11470.00
847.3060, 11508.00
848.4410, 11461.00
849.5760, 11475.00
850.7100, 11498.00
851.8450, 11454.00
852.9800, 11547.00
854.1140, 11660.00
855.2480, 11685.00
856.3820, 11809.00
857.5160, 11900.00
858.6500, 11863.00
859.7830, 11905.00
860.9170, 11775.00
862.0500, 11804.00
863.1830, 11760.00
864.3160, 11937.00
865.4480, 11881.05
866.5810, 11895.00
867.7130, 11906.00
868.8460, 11800.00
869.9780, 11857.00
871.1100, 11894.00
872.2410, 11952.00
873.3730, 11811.00
874.5050, 11987.00
875.6360, 11857.00
876.7670, 11956.00
877.8980, 11820.00
879.0290, 11970.00
880.1590, 12013.00
881.2900, 11943.00
882.4200, 12006.00
883.5500, 12035.00
884.6800, 12085.00
885.8100, 12124.00
886.9400, 12022.00
888.0690, 12200.00
889.1990, 12065.00
890.3280, 12099.00
891.4570, 12126.00
892.5860, 12231.00
893.7140, 12226.00
894.8430, 12324.00
895.9710, 12367.00
897.1000, 12297.00
898.2280, 12523.00
899.3560, 12555.00
900.4830, 12501.00
901.6110, 12608.00
902.7380, 12747.00
903.8660, 12799.00
904.9930, 13083.00
906.1200, 13071.00
907.2460, 13350.00
908.3730, 13526.00
909.5000, 13905.00
910.6260, 14173.00
911.7520, 14508.00
912.8780, 14922.00
914.0040, 15540.00
915.1290, 16012.00
916.2550, 16998.00
917.3800, 17612.00
918.5050, 18646.00
919.6300, 19340.00
920.7550, 20114.00
921.8800, 20660.00
923.0040, 20974.00
924.1290, 21065.00
925.2530, 21298.00
926.3770, 20822.00
927.5010, 20309.00
928.6250, 20078.00
929.7480, 19566.58
930.8720, 19149.64
931.9950, 18704.00
933.1180, 18227.00
934.2410, 17739.00
935.3640, 17227.00
936.4860, 17199.00
937.6090, 16540.00
938.7310, 16519.00
939.8530, 16176.00
940.9750, 15627.00
942.0970, 15625.00
943.2180, 15251.00
944.3400, 15285.00
945.4610, 14991.00
946.5820, 14769.00
947.7030, 14605.00
948.8240, 14489.00
949.9450, 14432.00
951.0650, 14317.00
952.1860, 14210.00
953.3060, 14252.00
954.4260, 14113.00
955.5460, 14245.00
956.6650, 13940.00
957.7850, 14010.00
958.9040, 13918.00
960.0230, 14039.00
961.1420, 13949.00
962.2610, 13986.00
963.3800, 14069.00
964.4990, 14201.00
965.6170, 14165.00
966.7350, 14368.00
967.8530, 14314.00
968.9710, 14435.00
970.0890, 14569.00
971.2070, 14729.00
972.3240, 14760.00
973.4410, 15227.00
974.5580, 15423.00
975.6750, 15502.00
976.7920, 15994.00
977.9090, 16227.00
979.0250, 16767.00
980.1410, 17508.00
981.2580, 18029.00
982.3740, 19472.00
983.4890, 20206.00
984.6050, 21441.00
985.7200, 23066.00
986.8360, 24732.00
987.9510, 26769.00
989.0660, 28587.00
990.1810, 30855.00
991.2950, 33039.00
992.4100, 35458.00
993.5240, 37879.00
994.6390, 40656.00
995.7530, 43339.00
996.8660, 45255.00
997.9800, 47499.00
999.0940, 48612.00
1000.207, 49117.00
1001.320, 48562.00
1002.433, 46837.00
1003.546, 44367.00
1004.659, 40948.00
1005.772, 37192.00
1006.884, 33592.00
1007.996, 30036.00
1009.108, 27049.00
1010.220, 24541.00
1011.332, 23133.00
1012.444, 21165.00
1013.555, 19945.00
1014.666, 18927.00
1015.777, 18562.00
1016.888, 18005.00
1017.999, 17653.00
1019.110, 17424.00
1020.220, 17333.00
1021.331, 17418.00
1022.441, 17340.00
1023.551, 17185.00
1024.661, 17048.79
1025.770, 17054.00
1026.880, 16498.00
1027.989, 16322.00
1029.098, 15841.00
1030.207, 15738.00
1031.316, 15442.00
1032.425, 15404.00
1033.533, 15213.00
1034.642, 15139.00
1035.750, 15069.00
1036.858, 14909.00
1037.966, 14919.00
1039.073, 15010.00
1040.181, 14883.00
1041.288, 14969.00
1042.396, 14735.00
1043.503, 15030.00
1044.610, 14874.00
1045.716, 15028.00
1046.823, 15020.00
1047.929, 14910.00
1049.036, 15138.00
1050.142, 15223.00
1051.248, 14956.00
1052.353, 15280.00
1053.459, 15430.00
1054.564, 15459.00
1055.670, 15274.00
1056.775, 15360.00
1057.880, 15364.00
1058.985, 15131.00
1060.089, 15271.00
1061.194, 15108.00
1062.298, 15107.00
1063.402, 15127.00
1064.506, 15173.00
1065.610, 15231.00
1066.713, 15165.00
1067.817, 15287.00
1068.920, 15265.00
1070.023, 15428.00
1071.126, 15364.00
1072.229, 15490.00
1073.332, 15531.00
1074.435, 15507.00
1075.537, 15643.00
1076.639, 15611.00
1077.741, 15801.00
1078.843, 15764.00
1079.945, 15793.00
1081.046, 15968.00
1082.148, 16077.00
1083.249, 16110.13
1084.350, 16395.00
1085.451, 16242.00
1086.551, 16205.00
1087.652, 16378.00
1088.752, 16405.00
1089.853, 16456.00
1090.953, 16419.00
1092.053, 16448.00
1093.152, 16422.00
1094.252, 16409.19
1095.351, 16201.00
1096.451, 16337.00
1097.550, 16264.00
1098.649, 16139.00
1099.748, 16454.00
1100.846, 16359.00
1101.945, 16485.00
1103.043, 16631.00
1104.141, 16851.00
1105.239, 17160.00
1106.337, 17498.00
1107.434, 17926.00
1108.532, 18622.00
1109.629, 19403.00
1110.726, 20364.00
1111.823, 21373.00
1112.920, 22257.00
1114.017, 22995.00
1115.113, 23200.00
1116.210, 23141.00
1117.306, 22376.00
1118.402, 21081.00
1119.498, 19987.00
1120.593, 19110.00
1121.689, 18252.37
1122.784, 17597.85
1123.879, 17027.00
1124.974, 16674.00
1126.069, 16379.00
1127.164, 16302.00
1128.259, 16041.00
1129.353, 15843.00
1130.447, 15970.00
1131.541, 15829.00
1132.635, 16101.00
1133.729, 16821.00
1134.822, 15766.00
1135.916, 15532.00
1137.009, 15469.00
1138.102, 16223.00
1139.195, 15771.54
1140.288, 15680.00
1141.380, 15553.00
1142.473, 15591.00
1143.565, 15634.00
1144.657, 15739.00
1145.749, 15490.00
1146.841, 15992.00
1147.932, 15768.00
1149.024, 16065.00
1150.115, 16037.00
1151.206, 16109.00
1152.297, 16210.00
1153.388, 16449.00
1154.479, 16566.00
1155.569, 16744.00
1156.659, 16937.00
1157.750, 17094.00
1158.839, 17597.00
1159.929, 17991.00
1161.019, 18344.00
1162.108, 19753.00
1163.198, 20396.00
1164.287, 21745.00
1165.376, 21975.00
1166.465, 22775.00
1167.553, 23926.00
1168.642, 24775.00
1169.730, 25999.00
1170.818, 26162.00
1171.906, 26074.00
1172.994, 25092.00
1174.082, 24059.00
1175.170, 22542.00
1176.257, 21819.00
1177.344, 20466.00
1178.431, 19166.00
1179.518, 18414.00
1180.605, 17883.00
1181.691, 17424.00
1182.778, 17084.00
1183.864, 16862.00
1184.950, 16678.00
1186.036, 16599.00
1187.122, 16432.00
1188.207, 16365.00
1189.292, 16234.00
1190.378, 16158.13
1191.463, 16151.00
1192.548, 16045.00
1193.632, 16066.00
1194.717, 16063.00
1195.801, 15933.00
1196.886, 15997.00
1197.970, 15860.00
1199.054, 16042.00
1200.137, 15711.00
1201.221, 15865.00
1202.305, 15948.00
1203.388, 15780.00
1204.471, 15842.00
1205.554, 15841.00
1206.637, 15830.00
1207.719, 15716.00
1208.802, 15938.00
1209.884, 15975.00
1210.966, 15953.00
1212.048, 16165.00
1213.130, 16060.14
1214.212, 15930.00
1215.293, 15992.00
1216.374, 15951.00
1217.456, 15979.00
1218.536, 15955.17
1219.617, 15951.00
1220.698, 15901.00
1221.778, 15938.00
1222.859, 15931.00
1223.939, 15919.00
1225.019, 16048.00
1226.099, 15998.00
1227.178, 16020.75
1228.258, 16027.00
1229.337, 16006.00
1230.417, 15989.00
1231.496, 15992.00
1232.574, 16020.00
1233.653, 16125.00
1234.732, 16209.00
1235.810, 16326.00
1236.888, 16091.00
1237.966, 16155.00
1239.044, 16051.00
1240.122, 16133.00
1241.199, 16268.00
1242.277, 16181.00
1243.354, 16201.00
1244.431, 16277.00
1245.508, 16224.00
1246.585, 16358.00
1247.661, 16323.00
1248.738, 16386.00
1249.814, 16283.00
1250.890, 16369.00
1251.966, 16372.00
1253.042, 16318.00
1254.117, 16332.00
1255.193, 16459.00
1256.268, 16509.00
1257.343, 16505.00
1258.418, 16473.00
1259.493, 16483.00
1260.567, 16475.73
1261.642, 16557.00
1262.716, 16498.00
1263.790, 16525.00
1264.864, 16577.00
1265.938, 16718.00
1267.011, 16546.00
1268.085, 16789.00
1269.158, 16579.00
1270.231, 16716.00
1271.304, 16708.00
1272.377, 16624.00
1273.450, 16658.00
1274.522, 16829.00
1275.594, 16705.00
1276.666, 16852.00
1277.738, 16681.00
1278.810, 16693.00
1279.882, 16707.00
1280.953, 16848.00
1282.025, 16664.00
1283.096, 16757.00
1284.167, 16791.00
1285.238, 16698.00
1286.308, 16746.00
1287.379, 17033.00
1288.449, 16750.00
1289.519, 16915.00
1290.589, 17029.00
1291.659, 16941.00
1292.729, 17034.00
1293.798, 16828.00
1294.868, 16945.00
1295.937, 17080.00
1297.006, 16894.00
1298.075, 16921.00
1299.143, 17018.00
1300.212, 16844.00
1301.280, 16959.00
1302.348, 16919.00
1303.416, 17114.00
1304.484, 17161.00
1305.552, 17300.00
1306.620, 17238.00
1307.687, 17253.00
1308.754, 17312.00
1309.821, 17295.00
1310.888, 17289.89
1311.955, 17326.00
1313.021, 17286.00
1314.088, 17355.00
1315.154, 17467.00
1316.220, 17321.00
1317.286, 17442.00
1318.352, 17363.00
1319.417, 17479.00
1320.483, 17608.00
1321.548, 17381.00
1322.613, 17371.00
1323.678, 17522.00
1324.743, 17396.00
1325.807, 17572.00
1326.872, 17534.00
1327.936, 17438.00
1329.000, 17630.00
1330.064, 17475.00
1331.128, 17541.00
1332.191, 17564.00
1333.255, 17549.00
1334.318, 17618.00
1335.381, 17361.00
1336.444, 17579.00
1337.507, 17433.00
1338.569, 17539.00
1339.632, 17708.00
1340.694, 17558.00
1341.756, 17622.00
1342.818, 17632.00
1343.880, 17722.00
1344.941, 17669.00
1346.003, 17758.00
1347.064, 17651.00
1348.125, 17512.00
1349.186, 17726.00
1350.247, 17595.00
1351.308, 17629.00
1352.368, 17642.00
1353.428, 17876.00
1354.489, 17759.00
1355.549, 17844.00
1356.608, 17923.00
1357.668, 17739.00
1358.727, 17792.00
1359.787, 17878.00
1360.846, 17899.00
1361.905, 17942.00
1362.964, 17949.00
1364.022, 17740.00
1365.081, 17881.00
1366.139, 18082.00
1367.197, 18107.00
1368.255, 17830.00
1369.313, 18015.00
1370.371, 17907.00
1371.428, 18006.00
1372.486, 18000.00
1373.543, 17982.00
1374.600, 18040.00
1375.657, 18012.47
1376.713, 18092.00
1377.770, 18029.00
1378.826, 18008.00
1379.882, 18070.00
1380.938, 18106.00
1381.994, 18212.00
1383.050, 18286.00
1384.106, 18172.00
1385.161, 18068.00
1386.216, 18263.00
1387.271, 18085.00
1388.326, 18262.00
1389.381, 18205.00
1390.435, 18272.00
1391.490, 18215.00
1392.544, 18207.00
1393.598, 18292.00
1394.652, 18302.00
1395.705, 18402.00
1396.759, 18316.00
1397.812, 18342.00
1398.866, 18367.00
1399.919, 18341.00
1400.972, 18283.00
1402.024, 18586.00
1403.077, 18513.00
1404.129, 18571.00
1405.181, 18537.00
1406.233, 18477.00
1407.285, 18574.00
1408.337, 18478.00
1409.389, 18515.00
1410.440, 18369.00
1411.491, 18538.00
1412.542, 18708.00
1413.593, 18617.00
1414.644, 18610.00
1415.695, 18781.00
1416.745, 18695.00
1417.795, 18712.00
1418.845, 18653.00
1419.895, 18774.00
1420.945, 18728.00
1421.995, 18726.29
1423.044, 18695.00
1424.093, 18695.00
1425.142, 18711.45
1426.191, 18780.00
1427.240, 18768.00
1428.289, 18855.00
1429.337, 18906.00
1430.385, 18962.00
1431.433, 19008.12
1432.481, 18995.00
1433.529, 19075.00
1434.577, 19143.00
1435.624, 19171.00
1436.672, 19293.00
1437.719, 19351.00
1438.766, 19349.00
1439.812, 19257.00
1440.859, 19375.00
1441.905, 19304.00
1442.952, 19466.00
1443.998, 19488.00
1445.044, 19522.00
1446.090, 19590.00
1447.135, 19527.00
1448.181, 19763.00
1449.226, 19677.00
1450.271, 19736.00
1451.316, 19707.00
1452.361, 19701.00
1453.405, 19739.00
1454.450, 19581.00
1455.494, 19516.00
1456.538, 19664.00
1457.582, 19704.00
1458.626, 19594.00
1459.670, 19572.00
1460.713, 19661.00
1461.757, 19613.00
1462.800, 19712.00
1463.843, 19746.00
1464.886, 19688.00
1465.928, 19676.00
1466.971, 19709.00
1468.013, 19508.00
1469.055, 19632.00
1470.097, 19723.00
1471.139, 19541.00
1472.181, 19588.00
1473.222, 19703.00
1474.263, 19602.00
1475.305, 19769.00
1476.346, 19696.00
1477.386, 19869.00
1478.427, 19563.00
1479.468, 19783.00
1480.508, 19727.00
1481.548, 19714.00
1482.588, 19831.00
1483.628, 19715.00
1484.668, 19722.00
1485.707, 19716.00
1486.747, 19765.00
1487.786, 19691.00
1488.825, 19717.00
1489.864, 19862.00
1490.902, 19714.00
1491.941, 19880.00
1492.979, 20100.00
1494.017, 20111.00
1495.055, 20313.00
1496.093, 20093.00
1497.131, 19964.00
1498.168, 19914.00
1499.206, 19878.00
1500.243, 20113.00
1501.280, 19975.00
1502.317, 20109.00
1503.354, 19975.00
1504.390, 20096.00
1505.426, 20322.00
1506.463, 20037.00
1507.499, 20226.00
1508.535, 20046.00
1509.570, 20124.00
1510.606, 20203.00
1511.641, 20233.00
1512.676, 20268.93
1513.711, 20158.00
1514.746, 20259.00
1515.781, 20267.00
1516.816, 20186.00
1517.850, 20333.00
1518.884, 20466.00
1519.918, 20336.00
1520.952, 20276.00
1521.986, 20545.00
1523.019, 20462.00
1524.053, 20410.00
1525.086, 20454.00
1526.119, 20348.00
1527.152, 20473.00
1528.185, 20420.00
1529.217, 20513.00
1530.250, 20400.00
1531.282, 20539.00
1532.314, 20503.00
1533.346, 20557.00
1534.377, 20580.00
1535.409, 20602.00
1536.440, 20481.00
1537.472, 20560.00
1538.503, 20708.00
1539.534, 20654.00
1540.564, 20537.00
1541.595, 20765.00
1542.625, 20727.72
1543.656, 20905.00
1544.686, 20843.00
1545.716, 20839.00
1546.745, 20796.00
1547.775, 21017.00
1548.804, 20880.00
1549.834, 20753.00
1550.863, 21096.00
1551.892, 21182.00
1552.920, 21393.00
1553.949, 21448.00
1554.977, 21267.00
1556.006, 21062.00
1557.034, 21105.00
1558.062, 20942.00
1559.089, 21075.00
1560.117, 21042.00
1561.144, 20829.00
1562.172, 20835.00
1563.199, 21045.00
1564.226, 21145.00
1565.252, 21022.00
1566.279, 21094.00
1567.305, 21199.00
1568.332, 21012.00
1569.358, 21149.00
1570.384, 21120.00
1571.409, 21162.00
1572.435, 21201.00
##END=



