##NAMES=Scholzite
##RRUFFID=R050238
##IDEAL CHEMISTRY=CaZn^2+^_2_(PO_4_)_2_&#183;2H_2_O
##LOCALITY=near Blinman, South Australia, Australia
##OWNER=RRUFF
##SOURCE=Marcus Origlieri
##DESCRIPTION=Colorless bladed crystals
##STATUS=The identification of this mineral has been confirmed by X-ray diffraction and chemical analysis
##URL=rruff.info/R050238
##MEASURED CHEMISTRY=Ca_1.00_Zn_2.00_(P_1.00_O_4_)_2_Â·2H_2_O
##PIN_ID=M00218
##ORIENTATION=Laser parallel to c* (0 0 1). Fiducial mark perpendicular to laser is parallel to a [1 0 0]
135.3560, 9455.000
136.5850, 9576.000
137.8140, 9831.000
139.0430, 10050.00
140.2710, 10051.00
141.5000, 9815.000
142.7280, 9900.000
143.9560, 9943.000
145.1840, 9842.000
146.4120, 9899.000
147.6390, 9911.000
148.8670, 9944.000
150.0940, 10096.00
151.3210, 10236.03
152.5490, 10506.00
153.7750, 10578.00
155.0020, 10835.00
156.2290, 10866.36
157.4550, 11140.00
158.6810, 11232.00
159.9080, 11519.00
161.1340, 11915.00
162.3590, 12254.00
163.5850, 12671.00
164.8110, 12696.00
166.0360, 12493.00
167.2610, 12090.00
168.4860, 11686.00
169.7110, 11152.34
170.9360, 11038.94
172.1610, 10859.04
173.3850, 10616.43
174.6100, 10122.18
175.8340, 9952.804
177.0580, 9653.320
178.2820, 9348.502
179.5050, 9225.031
180.7290, 8767.570
181.9520, 8946.000
183.1760, 8926.000
184.3990, 8947.000
185.6220, 8885.000
186.8450, 8902.000
188.0670, 9022.000
189.2900, 8906.000
190.5120, 8961.000
191.7340, 9011.000
192.9560, 8992.000
194.1780, 8953.000
195.4000, 8978.000
196.6220, 8954.000
197.8430, 8934.000
199.0640, 9190.000
200.2860, 9350.000
201.5070, 9582.000
202.7270, 9409.000
203.9480, 8994.000
205.1690, 8692.000
206.3890, 8468.000
207.6090, 8600.000
208.8290, 8830.000
210.0490, 9050.000
211.2690, 9444.000
212.4890, 9900.000
213.7080, 10430.00
214.9280, 10953.60
216.1470, 11493.90
217.3660, 12113.00
218.5850, 12640.00
219.8030, 13213.00
221.0220, 13826.00
222.2400, 14122.00
223.4590, 14184.00
224.6770, 14188.00
225.8950, 13927.00
227.1120, 13623.00
228.3300, 13325.00
229.5480, 13078.00
230.7650, 13075.00
231.9820, 13088.00
233.1990, 13186.00
234.4160, 13358.00
235.6330, 13467.00
236.8490, 13455.00
238.0660, 13543.00
239.2820, 13316.00
240.4980, 13181.00
241.7140, 12887.00
242.9300, 12428.00
244.1460, 12092.00
245.3610, 11621.00
246.5770, 11330.00
247.7920, 10962.00
249.0070, 10825.00
250.2220, 10599.00
251.4370, 10475.00
252.6510, 10143.00
253.8660, 10126.00
255.0800, 10031.00
256.2940, 10020.00
257.5080, 10563.00
258.7220, 10365.17
259.9360, 10992.00
261.1490, 10419.00
262.3630, 10279.00
263.5760, 10359.00
264.7890, 10528.00
266.0020, 10714.00
267.2150, 10740.00
268.4270, 10989.00
269.6400, 11161.00
270.8520, 11368.00
272.0640, 11592.00
273.2760, 11682.00
274.4880, 11840.32
275.7000, 11894.00
276.9120, 12061.00
278.1230, 12090.00
279.3340, 12212.00
280.5450, 12312.00
281.7560, 12465.00
282.9670, 12563.00
284.1780, 12647.00
285.3880, 12785.00
286.5980, 12820.00
287.8090, 12859.00
289.0190, 12733.00
290.2290, 12607.00
291.4380, 12452.00
292.6480, 12272.00
293.8570, 12197.00
295.0670, 12151.00
296.2760, 12025.00
297.4850, 11837.00
298.6930, 11891.00
299.9020, 11826.00
301.1110, 11665.00
302.3190, 11929.00
303.5270, 11861.00
304.7350, 11829.00
305.9430, 11877.00
307.1510, 11970.00
308.3580, 11954.00
309.5660, 11975.76
310.7730, 11942.00
311.9800, 11914.00
313.1870, 11821.00
314.3940, 11705.00
315.6010, 11579.00
316.8070, 11356.00
318.0130, 11123.00
319.2200, 10934.00
320.4260, 10986.00
321.6310, 10780.00
322.8370, 10621.00
324.0430, 10664.00
325.2480, 10414.00
326.4540, 10345.00
327.6590, 10363.00
328.8640, 10253.00
330.0680, 10100.00
331.2730, 10083.00
332.4780, 10071.00
333.6820, 9891.000
334.8860, 9887.000
336.0900, 9769.000
337.2940, 9710.000
338.4980, 9724.000
339.7010, 9688.000
340.9050, 9540.000
342.1080, 9551.000
343.3110, 9474.000
344.5140, 9332.000
345.7170, 9364.000
346.9200, 9207.000
348.1220, 9151.000
349.3240, 9039.000
350.5270, 8882.000
351.7290, 8919.000
352.9310, 8842.000
354.1320, 8797.000
355.3340, 8690.000
356.5350, 8644.000
357.7370, 8593.000
358.9380, 8631.000
360.1390, 8555.000
361.3400, 8501.000
362.5400, 8580.000
363.7410, 8541.000
364.9410, 8452.000
366.1410, 8435.000
367.3410, 8528.000
368.5410, 8557.000
369.7410, 8424.000
370.9400, 8520.000
372.1400, 8449.000
373.3390, 8445.000
374.5380, 8456.000
375.7370, 8441.000
376.9360, 8459.000
378.1350, 8556.000
379.3330, 8608.000
380.5310, 8568.698
381.7300, 8497.000
382.9280, 8459.000
384.1260, 8531.000
385.3230, 8452.000
386.5210, 8619.000
387.7180, 8647.000
388.9160, 8798.000
390.1130, 8794.000
391.3100, 8823.000
392.5060, 8908.000
393.7030, 8978.000
394.9000, 9084.000
396.0960, 9184.000
397.2920, 9328.000
398.4880, 9537.000
399.6840, 9765.000
400.8800, 9833.000
402.0750, 10272.00
403.2710, 10398.00
404.4660, 10778.00
405.6610, 11065.00
406.8560, 11400.00
408.0510, 11597.00
409.2450, 11716.00
410.4400, 11914.00
411.6340, 11900.00
412.8280, 11810.00
414.0220, 11701.00
415.2160, 11414.00
416.4100, 11031.00
417.6030, 10752.00
418.7970, 10314.00
419.9900, 10097.00
421.1830, 9844.000
422.3760, 9680.000
423.5690, 9547.000
424.7610, 9448.000
425.9540, 9435.000
427.1460, 9361.000
428.3380, 9123.000
429.5300, 9195.000
430.7220, 9046.000
431.9140, 9134.000
433.1050, 9139.000
434.2970, 9192.000
435.4880, 9128.000
436.6790, 9200.000
437.8700, 9018.000
439.0610, 8997.000
440.2510, 8982.000
441.4420, 8921.551
442.6320, 9022.000
443.8220, 8909.000
445.0120, 9009.000
446.2020, 9026.000
447.3910, 9042.000
448.5810, 9049.008
449.7700, 8938.000
450.9600, 8975.000
452.1490, 8953.000
453.3370, 8853.000
454.5260, 8935.000
455.7150, 8873.000
456.9030, 8925.000
458.0910, 8830.000
459.2800, 8786.000
460.4670, 8950.000
461.6550, 8984.000
462.8430, 8873.000
464.0300, 8859.000
465.2180, 8875.000
466.4050, 8920.000
467.5920, 8909.000
468.7790, 8875.000
469.9650, 8882.000
471.1520, 8933.000
472.3380, 8980.000
473.5250, 8958.000
474.7110, 8953.000
475.8970, 8948.000
477.0820, 8953.696
478.2680, 8964.006
479.4540, 8985.000
480.6390, 9019.000
481.8240, 9049.000
483.0090, 9126.000
484.1940, 9173.000
485.3780, 9127.000
486.5630, 9050.000
487.7470, 9120.396
488.9320, 9105.201
490.1160, 9186.000
491.3000, 9210.000
492.4830, 9199.000
493.6670, 9314.000
494.8500, 9265.000
496.0340, 9402.000
497.2170, 9438.000
498.4000, 9464.000
499.5820, 9534.000
500.7650, 9477.000
501.9480, 9586.000
503.1300, 9731.000
504.3120, 9609.000
505.4940, 9680.000
506.6760, 9634.000
507.8580, 9696.000
509.0390, 9695.000
510.2210, 9694.000
511.4020, 9776.000
512.5830, 9732.000
513.7640, 9763.000
514.9450, 9740.756
516.1250, 9704.386
517.3060, 9697.000
518.4860, 9629.000
519.6660, 9655.000
520.8460, 9631.000
522.0260, 9723.000
523.2060, 9673.000
524.3850, 9659.000
525.5650, 9721.000
526.7440, 9704.000
527.9230, 9762.000
529.1020, 9684.000
530.2810, 9690.000
531.4590, 9798.000
532.6380, 9931.000
533.8160, 9881.000
534.9940, 9763.000
536.1720, 9914.000
537.3500, 9958.000
538.5270, 10026.00
539.7050, 10066.00
540.8820, 10250.00
542.0590, 10439.00
543.2360, 10459.00
544.4130, 10752.00
545.5900, 10772.00
546.7660, 11077.00
547.9430, 11297.00
549.1190, 11330.00
550.2950, 11628.00
551.4710, 11678.00
552.6470, 11763.00
553.8220, 11772.00
554.9980, 11566.00
556.1730, 11398.00
557.3480, 10982.00
558.5230, 10868.00
559.6980, 10757.00
560.8730, 10603.00
562.0470, 10665.00
563.2220, 10582.00
564.3960, 10496.00
565.5700, 10564.00
566.7440, 10568.00
567.9170, 10493.00
569.0910, 10527.00
570.2640, 10595.00
571.4380, 10558.00
572.6110, 10740.00
573.7840, 10571.00
574.9570, 10702.00
576.1290, 10891.00
577.3020, 10899.00
578.4740, 10866.00
579.6460, 10986.00
580.8180, 10968.00
581.9900, 10986.00
583.1620, 10924.00
584.3330, 11028.00
585.5040, 10972.00
586.6760, 11095.00
587.8470, 11044.00
589.0180, 10969.00
590.1880, 11149.00
591.3590, 11105.00
592.5290, 11156.00
593.7000, 11143.00
594.8700, 11150.00
596.0400, 11135.00
597.2090, 11097.00
598.3790, 10985.00
599.5490, 11203.00
600.7180, 11197.00
601.8870, 11156.00
603.0560, 11106.00
604.2250, 11115.00
605.3940, 10930.00
606.5620, 11003.00
607.7300, 10865.00
608.8990, 10938.00
610.0670, 10886.00
611.2350, 10707.00
612.4020, 10763.00
613.5700, 10735.00
614.7370, 10754.00
615.9050, 10695.00
617.0720, 10675.00
618.2390, 10680.00
619.4060, 10618.00
620.5720, 10600.00
621.7390, 10708.00
622.9050, 10644.00
624.0710, 10835.00
625.2370, 10587.00
626.4030, 10740.00
627.5690, 10804.00
628.7340, 10837.00
629.9000, 10884.83
631.0650, 10901.95
632.2300, 10905.00
633.3950, 10905.00
634.5600, 10938.00
635.7240, 10904.00
636.8890, 10934.00
638.0530, 10881.00
639.2170, 10938.00
640.3810, 10847.00
641.5450, 10994.00
642.7080, 10890.00
643.8720, 10933.00
645.0350, 10787.00
646.1980, 11029.00
647.3610, 10959.00
648.5240, 11048.00
649.6870, 10870.00
650.8490, 10944.00
652.0120, 10862.00
653.1740, 11050.00
654.3360, 10998.00
655.4980, 10999.00
656.6600, 11028.00
657.8210, 11050.00
658.9830, 11058.00
660.1440, 11086.00
661.3050, 11146.00
662.4660, 11022.00
663.6270, 11115.00
664.7870, 11000.00
665.9480, 11045.00
667.1080, 11040.00
668.2680, 11194.00
669.4280, 11052.00
670.5880, 11055.00
671.7480, 11003.00
672.9070, 10977.00
674.0670, 10924.00
675.2260, 10930.00
676.3850, 10949.00
677.5440, 10961.47
678.7030, 11121.00
679.8610, 11068.00
681.0200, 10992.00
682.1780, 11102.00
683.3360, 11242.00
684.4940, 11045.00
685.6520, 11121.00
686.8090, 11281.00
687.9670, 11068.00
689.1240, 11000.00
690.2810, 11115.00
691.4380, 11130.00
692.5950, 11228.00
693.7520, 11277.36
694.9080, 11170.00
696.0650, 11360.00
697.2210, 11287.00
698.3770, 11276.00
699.5330, 11145.00
700.6880, 11196.00
701.8440, 11345.00
702.9990, 11381.00
704.1550, 11392.00
705.3100, 11414.00
706.4650, 11330.00
707.6190, 11321.00
708.7740, 11394.00
709.9290, 11339.00
711.0830, 11435.00
712.2370, 11335.00
713.3910, 11421.00
714.5450, 11421.00
715.6980, 11426.00
716.8520, 11524.00
718.0050, 11470.00
719.1580, 11450.00
720.3110, 11557.00
721.4640, 11446.00
722.6170, 11522.00
723.7700, 11577.00
724.9220, 11537.00
726.0740, 11609.00
727.2260, 11699.00
728.3780, 11464.00
729.5300, 11573.00
730.6810, 11491.00
731.8330, 11634.00
732.9840, 11783.00
734.1350, 11682.00
735.2860, 11717.00
736.4370, 11836.00
737.5880, 11842.00
738.7380, 11764.00
739.8880, 11737.00
741.0390, 11886.00
742.1890, 11616.00
743.3380, 11838.00
744.4880, 11860.00
745.6380, 11702.00
746.7870, 11988.00
747.9360, 11873.00
749.0850, 12005.00
750.2340, 11848.00
751.3830, 11935.00
752.5310, 11978.00
753.6800, 11916.00
754.8280, 11894.00
755.9760, 11991.00
757.1240, 11951.00
758.2720, 11890.00
759.4190, 12071.00
760.5670, 12095.00
761.7140, 11967.00
762.8610, 12181.00
764.0080, 12033.00
765.1550, 12182.00
766.3020, 12174.00
767.4480, 12185.00
768.5950, 12200.00
769.7410, 12273.00
770.8870, 12105.00
772.0330, 12276.00
773.1780, 12188.00
774.3240, 12187.00
775.4690, 12246.00
776.6140, 12444.00
777.7590, 12402.00
778.9040, 12388.00
780.0490, 12316.00
781.1940, 12335.00
782.3380, 12278.00
783.4820, 12329.00
784.6260, 12428.00
785.7700, 12417.00
786.9140, 12386.00
788.0580, 12371.00
789.2010, 12388.75
790.3450, 12427.00
791.4880, 12480.00
792.6310, 12435.00
793.7730, 12571.00
794.9160, 12552.00
796.0590, 12451.00
797.2010, 12521.00
798.3430, 12600.00
799.4850, 12599.00
800.6270, 12826.00
801.7690, 12788.00
802.9100, 12641.00
804.0520, 12733.00
805.1930, 12573.00
806.3340, 12697.00
807.4750, 12694.00
808.6160, 12683.00
809.7560, 12791.00
810.8970, 12905.00
812.0370, 12966.00
813.1770, 13012.00
814.3170, 12989.00
815.4570, 13044.82
816.5960, 12930.00
817.7360, 13103.00
818.8750, 12951.00
820.0140, 12976.00
821.1530, 12986.23
822.2920, 12940.91
823.4310, 13045.00
824.5690, 12904.00
825.7070, 13100.00
826.8460, 13022.00
827.9840, 13034.00
829.1220, 13060.00
830.2590, 13086.00
831.3970, 13084.68
832.5340, 13190.00
833.6710, 13099.00
834.8080, 13143.00
835.9450, 13185.00
837.0820, 13136.00
838.2190, 13216.00
839.3550, 13059.00
840.4910, 13321.00
841.6270, 13377.00
842.7630, 13274.00
843.8990, 13128.00
845.0350, 13336.00
846.1700, 13216.00
847.3060, 13416.00
848.4410, 13417.00
849.5760, 13340.00
850.7100, 13429.00
851.8450, 13422.00
852.9800, 13532.00
854.1140, 13519.00
855.2480, 13485.00
856.3820, 13621.00
857.5160, 13695.00
858.6500, 13626.00
859.7830, 13718.00
860.9170, 13838.00
862.0500, 13756.00
863.1830, 13624.00
864.3160, 13644.00
865.4480, 13713.00
866.5810, 13800.00
867.7130, 13608.00
868.8460, 13677.00
869.9780, 13678.00
871.1100, 13648.00
872.2410, 13912.00
873.3730, 13772.00
874.5050, 13608.00
875.6360, 13930.00
876.7670, 13789.00
877.8980, 13832.00
879.0290, 13892.00
880.1590, 13887.00
881.2900, 13847.00
882.4200, 13973.00
883.5500, 14073.00
884.6800, 13931.00
885.8100, 13833.00
886.9400, 13894.00
888.0690, 14017.00
889.1990, 14172.00
890.3280, 14204.38
891.4570, 14209.00
892.5860, 14262.00
893.7140, 14145.00
894.8430, 14054.00
895.9710, 14211.60
897.1000, 14309.00
898.2280, 14467.00
899.3560, 14396.00
900.4830, 14430.00
901.6110, 14457.00
902.7380, 14651.00
903.8660, 14850.00
904.9930, 14781.00
906.1200, 15037.00
907.2460, 15141.00
908.3730, 15129.00
909.5000, 15318.00
910.6260, 15621.00
911.7520, 15790.00
912.8780, 16325.00
914.0040, 16671.00
915.1290, 17132.00
916.2550, 17509.00
917.3800, 18264.00
918.5050, 18765.00
919.6300, 19404.00
920.7550, 20176.00
921.8800, 20687.00
923.0040, 21171.00
924.1290, 21507.00
925.2530, 21356.00
926.3770, 21413.00
927.5010, 20998.00
928.6250, 20919.00
929.7480, 20372.00
930.8720, 19990.00
931.9950, 19897.00
933.1180, 19578.00
934.2410, 19120.00
935.3640, 19061.00
936.4860, 18730.00
937.6090, 18473.00
938.7310, 18134.00
939.8530, 18033.00
940.9750, 17696.00
942.0970, 17524.48
943.2180, 17388.00
944.3400, 17144.00
945.4610, 16991.00
946.5820, 16796.00
947.7030, 16657.00
948.8240, 16490.00
949.9450, 16471.00
951.0650, 16585.00
952.1860, 16336.00
953.3060, 16494.00
954.4260, 16341.00
955.5460, 16151.00
956.6650, 16055.00
957.7850, 16101.00
958.9040, 16010.00
960.0230, 16229.00
961.1420, 16177.00
962.2610, 16221.00
963.3800, 16315.00
964.4990, 16283.00
965.6170, 16366.00
966.7350, 16360.00
967.8530, 16503.00
968.9710, 16550.00
970.0890, 16584.00
971.2070, 16779.00
972.3240, 17020.00
973.4410, 17140.70
974.5580, 17186.00
975.6750, 17554.00
976.7920, 17745.00
977.9090, 18058.00
979.0250, 18467.00
980.1410, 18741.00
981.2580, 19519.00
982.3740, 20336.00
983.4890, 21219.31
984.6050, 22695.00
985.7200, 23463.00
986.8360, 24933.00
987.9510, 26271.00
989.0660, 28306.00
990.1810, 29956.00
991.2950, 32120.00
992.4100, 34048.00
993.5240, 35909.00
994.6390, 38231.00
995.7530, 40399.00
996.8660, 42380.00
997.9800, 44538.00
999.0940, 46378.00
1000.207, 47262.00
1001.320, 47390.00
1002.433, 46566.00
1003.546, 44778.00
1004.659, 41698.00
1005.772, 38561.00
1006.884, 35235.00
1007.996, 31880.00
1009.108, 29134.00
1010.220, 26566.00
1011.332, 24583.00
1012.444, 23252.00
1013.555, 22041.00
1014.666, 21106.00
1015.777, 20427.00
1016.888, 20217.00
1017.999, 19937.00
1019.110, 19563.00
1020.220, 19511.00
1021.331, 19655.00
1022.441, 19669.00
1023.551, 19443.00
1024.661, 19456.00
1025.770, 19468.00
1026.880, 19076.00
1027.989, 19032.00
1029.098, 18470.00
1030.207, 18297.00
1031.316, 18250.00
1032.425, 17737.00
1033.533, 17791.00
1034.642, 17826.00
1035.750, 17735.00
1036.858, 17589.00
1037.966, 17473.00
1039.073, 17604.00
1040.181, 17686.00
1041.288, 17669.00
1042.396, 17524.00
1043.503, 17592.00
1044.610, 17642.00
1045.716, 17718.00
1046.823, 17773.00
1047.929, 17636.00
1049.036, 17824.00
1050.142, 17857.00
1051.248, 17858.00
1052.353, 18010.00
1053.459, 17898.00
1054.564, 17968.00
1055.670, 17975.00
1056.775, 18134.00
1057.880, 18139.00
1058.985, 17994.00
1060.089, 18129.00
1061.194, 18062.00
1062.298, 18207.00
1063.402, 18188.00
1064.506, 18023.00
1065.610, 18367.00
1066.713, 18090.00
1067.817, 18313.00
1068.920, 18619.00
1070.023, 18406.00
1071.126, 18347.00
1072.229, 18365.00
1073.332, 18395.00
1074.435, 18484.00
1075.537, 18554.28
1076.639, 18629.12
1077.741, 18760.00
1078.843, 18827.00
1079.945, 18934.00
1081.046, 19091.00
1082.148, 19180.00
1083.249, 19224.00
1084.350, 19383.00
1085.451, 19447.00
1086.551, 19554.00
1087.652, 19465.00
1088.752, 19537.00
1089.853, 19584.00
1090.953, 19434.00
1092.053, 19457.00
1093.152, 19403.65
1094.252, 19382.71
1095.351, 19349.00
1096.451, 19428.00
1097.550, 19477.00
1098.649, 19588.00
1099.748, 19734.00
1100.846, 19494.00
1101.945, 19871.00
1103.043, 19772.00
1104.141, 19945.00
1105.239, 20153.00
1106.337, 20470.00
1107.434, 20830.00
1108.532, 21353.00
1109.629, 22039.00
1110.726, 22888.00
1111.823, 23921.00
1112.920, 24889.00
1114.017, 25870.00
1115.113, 26772.00
1116.210, 26899.00
1117.306, 26534.00
1118.402, 25671.00
1119.498, 24249.00
1120.593, 23078.00
1121.689, 21950.00
1122.784, 21120.00
1123.879, 20584.00
1124.974, 20149.00
1126.069, 19994.00
1127.164, 19601.00
1128.259, 19581.00
1129.353, 19318.00
1130.447, 19236.70
1131.541, 19094.00
1132.635, 19204.00
1133.729, 18988.00
1134.822, 19122.00
1135.916, 19045.00
1137.009, 19077.00
1138.102, 18919.00
1139.195, 18890.00
1140.288, 19030.00
1141.380, 19006.00
1142.473, 19021.00
1143.565, 19170.00
1144.657, 19026.00
1145.749, 19019.00
1146.841, 19128.00
1147.932, 19309.00
1149.024, 19323.00
1150.115, 19323.00
1151.206, 19517.00
1152.297, 19486.00
1153.388, 19708.00
1154.479, 19672.00
1155.569, 19757.00
1156.659, 20102.00
1157.750, 20286.00
1158.839, 20365.00
1159.929, 20742.00
1161.019, 21022.00
1162.108, 21491.00
1163.198, 21809.00
1164.287, 22355.00
1165.376, 23189.00
1166.465, 23937.00
1167.553, 24529.00
1168.642, 25422.00
1169.730, 26287.00
1170.818, 26881.00
1171.906, 27184.00
1172.994, 26628.00
1174.082, 25609.00
1175.170, 24902.00
1176.257, 23844.00
1177.344, 22954.00
1178.431, 22060.00
1179.518, 21594.00
1180.605, 21160.00
1181.691, 20720.00
1182.778, 20454.00
1183.864, 20257.00
1184.950, 20147.00
1186.036, 20102.00
1187.122, 20033.00
1188.207, 20041.00
1189.292, 19854.00
1190.378, 19903.00
1191.463, 19836.00
1192.548, 19563.00
1193.632, 19751.00
1194.717, 19436.00
1195.801, 19695.00
1196.886, 19697.00
1197.970, 19964.00
1199.054, 19808.00
1200.137, 19884.00
1201.221, 19638.00
1202.305, 19766.00
1203.388, 19923.00
1204.471, 19899.00
1205.554, 19905.00
1206.637, 19792.00
1207.719, 19989.00
1208.802, 19938.00
1209.884, 19863.00
1210.966, 19633.00
1212.048, 19971.00
1213.130, 19977.00
1214.212, 19830.00
1215.293, 20044.00
1216.374, 19867.00
1217.456, 19917.00
1218.536, 19879.00
1219.617, 19925.00
1220.698, 20212.00
1221.778, 20049.00
1222.859, 20186.00
1223.939, 20115.00
1225.019, 20208.00
1226.099, 20232.00
1227.178, 20230.00
1228.258, 20191.00
1229.337, 20214.56
1230.417, 20204.00
1231.496, 20217.00
1232.574, 20217.00
1233.653, 20204.00
1234.732, 20260.42
1235.810, 20442.00
1236.888, 20349.00
1237.966, 20393.00
1239.044, 20393.00
1240.122, 20287.00
1241.199, 20330.00
1242.277, 20505.00
1243.354, 20512.00
1244.431, 20664.00
1245.508, 20725.00
1246.585, 20721.00
1247.661, 20631.00
1248.738, 20620.00
1249.814, 20613.27
1250.890, 20614.32
1251.966, 20634.00
1253.042, 20703.00
1254.117, 20744.42
1255.193, 20849.00
1256.268, 20873.00
1257.343, 20864.00
1258.418, 20880.00
1259.493, 20763.00
1260.567, 20918.00
1261.642, 21094.00
1262.716, 21003.00
1263.790, 21058.00
1264.864, 21218.00
1265.938, 21175.00
1267.011, 21056.00
1268.085, 21280.00
1269.158, 21142.00
1270.231, 21254.00
1271.304, 21208.00
1272.377, 21338.00
1273.450, 21425.00
1274.522, 21312.00
1275.594, 21345.00
1276.666, 21410.00
1277.738, 21420.00
1278.810, 21430.00
1279.882, 21315.00
1280.953, 21310.00
1282.025, 21350.32
1283.096, 21358.62
1284.167, 21407.00
1285.238, 21503.00
1286.308, 21526.29
1287.379, 21499.00
1288.449, 21627.00
1289.519, 21618.00
1290.589, 21660.00
1291.659, 21618.00
1292.729, 21623.92
1293.798, 21806.00
1294.868, 21663.00
1295.937, 21820.00
1297.006, 21992.00
1298.075, 21761.00
1299.143, 22016.00
1300.212, 21954.00
1301.280, 21920.00
1302.348, 22019.00
1303.416, 22071.00
1304.484, 22113.00
1305.552, 22078.00
1306.620, 22070.00
1307.687, 22002.00
1308.754, 22034.00
1309.821, 22070.08
1310.888, 22373.00
1311.955, 22268.00
1313.021, 22358.00
1314.088, 22599.00
1315.154, 22355.00
1316.220, 22307.00
1317.286, 22359.00
1318.352, 22465.00
1319.417, 22567.00
1320.483, 22556.00
1321.548, 22476.00
1322.613, 22466.00
1323.678, 22446.10
1324.743, 22393.00
1325.807, 22475.00
1326.872, 22649.00
1327.936, 22781.00
1329.000, 22746.00
1330.064, 22628.00
1331.128, 22573.00
1332.191, 22632.00
1333.255, 22669.00
1334.318, 22871.00
1335.381, 22886.00
1336.444, 22904.00
1337.507, 22763.00
1338.569, 22782.00
1339.632, 22659.00
1340.694, 22787.00
1341.756, 22969.00
1342.818, 22869.00
1343.880, 22965.00
1344.941, 22862.00
1346.003, 23127.00
1347.064, 22853.00
1348.125, 23208.00
1349.186, 22962.00
1350.247, 23103.00
1351.308, 23105.00
1352.368, 23130.00
1353.428, 23063.00
1354.489, 23034.00
1355.549, 23112.00
1356.608, 23229.00
1357.668, 23309.00
1358.727, 23123.00
1359.787, 23386.00
1360.846, 23134.00
1361.905, 23132.00
1362.964, 23498.00
1364.022, 23249.00
1365.081, 23489.00
1366.139, 23280.00
1367.197, 23414.00
1368.255, 23673.00
1369.313, 23446.00
1370.371, 23426.00
1371.428, 23562.00
1372.486, 23741.00
1373.543, 23522.00
1374.600, 23613.00
1375.657, 23597.00
1376.713, 23777.00
1377.770, 23835.00
1378.826, 23864.00
1379.882, 23930.50
1380.938, 23916.00
1381.994, 23956.00
1383.050, 23853.00
1384.106, 23841.00
1385.161, 23915.00
1386.216, 23792.00
1387.271, 24154.00
1388.326, 23997.00
1389.381, 23853.00
1390.435, 24191.00
1391.490, 23891.00
1392.544, 24004.00
1393.598, 24044.00
1394.652, 24254.00
1395.705, 24229.00
1396.759, 24275.00
1397.812, 24229.00
1398.866, 24258.00
1399.919, 24443.00
1400.972, 24384.00
1402.024, 24501.00
1403.077, 24416.00
1404.129, 24542.00
1405.181, 24391.00
1406.233, 24584.00
1407.285, 24604.00
1408.337, 24569.00
1409.389, 24693.00
1410.440, 24551.00
1411.491, 24454.00
1412.542, 24614.00
1413.593, 24852.00
1414.644, 24754.00
1415.695, 24805.00
1416.745, 24885.00
1417.795, 24782.00
1418.845, 24857.00
1419.895, 24960.00
1420.945, 25055.00
1421.995, 25107.78
1423.044, 24922.00
1424.093, 25155.00
1425.142, 25130.00
1426.191, 25022.00
1427.240, 25200.00
1428.289, 25367.00
1429.337, 25144.00
1430.385, 25314.00
1431.433, 25326.00
1432.481, 25389.00
1433.529, 25471.00
1434.577, 25489.00
1435.624, 25555.00
1436.672, 25591.00
1437.719, 25640.00
1438.766, 25661.20
1439.812, 25922.00
1440.859, 25727.00
1441.905, 25905.00
1442.952, 26032.00
1443.998, 25817.00
1445.044, 26128.00
1446.090, 26096.00
1447.135, 26236.00
1448.181, 26239.00
1449.226, 26355.00
1450.271, 26092.00
1451.316, 26229.00
1452.361, 26045.00
1453.405, 26231.00
1454.450, 26228.00
1455.494, 26228.00
1456.538, 26350.00
1457.582, 26540.00
1458.626, 26541.00
1459.670, 26131.00
1460.713, 26317.00
1461.757, 26215.00
1462.800, 26519.00
1463.843, 26305.00
1464.886, 26579.00
1465.928, 26356.00
1466.971, 26440.00
1468.013, 26392.00
1469.055, 26391.00
1470.097, 26448.68
1471.139, 26412.00
1472.181, 26549.00
1473.222, 26563.00
1474.263, 26635.00
1475.305, 26570.00
1476.346, 26614.00
1477.386, 26655.00
1478.427, 26735.00
1479.468, 26653.00
1480.508, 26692.00
1481.548, 26888.00
1482.588, 26784.00
1483.628, 26771.00
1484.668, 26699.00
1485.707, 26921.00
1486.747, 26934.00
1487.786, 26904.00
1488.825, 26987.00
1489.864, 27003.00
1490.902, 26990.84
1491.941, 27007.00
1492.979, 27011.00
1494.017, 27086.00
1495.055, 27195.00
1496.093, 26903.00
1497.131, 27169.00
1498.168, 27094.00
1499.206, 27241.00
1500.243, 27277.00
1501.280, 27151.00
1502.317, 27179.00
1503.354, 27440.00
1504.390, 27390.00
1505.426, 27526.00
1506.463, 27437.00
1507.499, 27488.00
1508.535, 27488.00
1509.570, 27738.00
1510.606, 27605.00
1511.641, 27662.00
1512.676, 27799.00
1513.711, 27666.00
1514.746, 27756.00
1515.781, 27724.00
1516.816, 27762.00
1517.850, 27699.00
1518.884, 27724.00
1519.918, 27789.00
1520.952, 27935.00
1521.986, 27902.00
1523.019, 28000.00
1524.053, 28080.00
1525.086, 28105.00
1526.119, 28114.00
1527.152, 28131.00
1528.185, 28129.00
1529.217, 28369.00
1530.250, 28258.00
1531.282, 28283.00
1532.314, 28225.00
1533.346, 28512.00
1534.377, 28379.00
1535.409, 28421.00
1536.440, 28305.00
1537.472, 28630.00
1538.503, 28557.00
1539.534, 28672.00
1540.564, 28551.00
1541.595, 28633.00
1542.625, 28652.00
1543.656, 28753.00
1544.686, 28617.00
1545.716, 28604.00
1546.745, 28680.00
1547.775, 28747.00
1548.804, 28666.00
1549.834, 28795.00
1550.863, 29352.00
1551.892, 29299.00
1552.920, 29262.00
1553.949, 29497.00
1554.977, 29301.00
1556.006, 29271.00
1557.034, 29073.00
1558.062, 29217.00
1559.089, 29281.00
1560.117, 29123.00
1561.144, 28992.00
1562.172, 29110.00
1563.199, 28963.00
1564.226, 29093.00
1565.252, 29329.00
1566.279, 29564.00
1567.305, 29364.00
1568.332, 29216.00
1569.358, 29591.00
1570.384, 29551.00
1571.409, 29513.00
1572.435, 29761.00
##END=



