##NAMES=Scholzite
##RRUFFID=R050238
##IDEAL CHEMISTRY=CaZn^2+^_2_(PO_4_)_2_&#183;2H_2_O
##LOCALITY=near Blinman, South Australia, Australia
##OWNER=RRUFF
##SOURCE=Marcus Origlieri
##DESCRIPTION=Colorless bladed crystals
##STATUS=The identification of this mineral has been confirmed by X-ray diffraction and chemical analysis
##URL=rruff.info/R050238
##MEASURED CHEMISTRY=Ca_1.00_Zn_2.00_(P_1.00_O_4_)_2_Â·2H_2_O
##PIN_ID=M00184
##ORIENTATION=Laser parallel to -a* (-1 0 0). Fiducial mark perpendicular to laser is parallel to -b [0 -1 0]
135.3560, 17109.00
136.5850, 17300.00
137.8140, 17464.00
139.0430, 17513.00
140.2710, 17370.00
141.5000, 17438.00
142.7280, 17357.00
143.9560, 17531.00
145.1840, 17613.00
146.4120, 17685.00
147.6390, 17892.90
148.8670, 17946.00
150.0940, 18315.00
151.3210, 18606.00
152.5490, 18918.00
153.7750, 18936.00
155.0020, 19125.00
156.2290, 19190.00
157.4550, 19107.00
158.6810, 19111.00
159.9080, 19097.00
161.1340, 19118.00
162.3590, 19290.00
163.5850, 19696.00
164.8110, 19467.00
166.0360, 19558.00
167.2610, 19065.00
168.4860, 18855.00
169.7110, 18564.00
170.9360, 18219.00
172.1610, 17826.00
173.3850, 17597.00
174.6100, 17482.00
175.8340, 17236.00
177.0580, 17109.00
178.2820, 17083.00
179.5050, 17012.00
180.7290, 16965.00
181.9520, 17003.00
183.1760, 17027.00
184.3990, 17054.00
185.6220, 17121.00
186.8450, 17192.00
188.0670, 17205.00
189.2900, 17262.00
190.5120, 17203.00
191.7340, 17277.00
192.9560, 17236.00
194.1780, 17413.00
195.4000, 17301.00
196.6220, 17343.00
197.8430, 17342.00
199.0640, 17533.00
200.2860, 18016.00
201.5070, 18130.00
202.7270, 17802.00
203.9480, 17296.00
205.1690, 16658.00
206.3890, 16368.00
207.6090, 16382.00
208.8290, 16424.00
210.0490, 16522.00
211.2690, 16603.00
212.4890, 16691.00
213.7080, 16733.00
214.9280, 16925.00
216.1470, 16803.00
217.3660, 17247.00
218.5850, 17196.00
219.8030, 17379.00
221.0220, 17812.00
222.2400, 17877.00
223.4590, 18267.00
224.6770, 18204.00
225.8950, 18322.00
227.1120, 18480.00
228.3300, 18581.00
229.5480, 18621.00
230.7650, 18936.00
231.9820, 19128.00
233.1990, 19321.00
234.4160, 19696.00
235.6330, 19908.00
236.8490, 20001.00
238.0660, 19967.00
239.2820, 20105.00
240.4980, 19962.00
241.7140, 19641.00
242.9300, 19375.00
244.1460, 19270.00
245.3610, 18825.00
246.5770, 18771.00
247.7920, 18525.00
249.0070, 18413.00
250.2220, 18344.00
251.4370, 18199.00
252.6510, 18212.00
253.8660, 18053.00
255.0800, 18209.00
256.2940, 18256.00
257.5080, 18897.00
258.7220, 18608.36
259.9360, 19131.00
261.1490, 18432.00
262.3630, 18445.00
263.5760, 18625.00
264.7890, 18544.00
266.0020, 18718.00
267.2150, 18874.00
268.4270, 19212.00
269.6400, 19377.00
270.8520, 19561.00
272.0640, 19640.00
273.2760, 19964.00
274.4880, 20154.00
275.7000, 19925.00
276.9120, 19894.00
278.1230, 20086.00
279.3340, 20175.00
280.5450, 20303.00
281.7560, 20352.93
282.9670, 20275.00
284.1780, 20364.00
285.3880, 20451.00
286.5980, 20378.00
287.8090, 20480.00
289.0190, 20383.38
290.2290, 20322.36
291.4380, 20270.00
292.6480, 20050.00
293.8570, 20117.00
295.0670, 19826.00
296.2760, 19691.00
297.4850, 19446.00
298.6930, 19395.24
299.9020, 19495.00
301.1110, 19329.00
302.3190, 19284.00
303.5270, 19231.00
304.7350, 19509.00
305.9430, 19374.00
307.1510, 19715.00
308.3580, 19542.00
309.5660, 19511.00
310.7730, 19413.00
311.9800, 19466.00
313.1870, 19316.00
314.3940, 19421.00
315.6010, 19190.00
316.8070, 18936.00
318.0130, 18913.00
319.2200, 18774.00
320.4260, 19050.00
321.6310, 18718.00
322.8370, 18839.00
324.0430, 18693.00
325.2480, 18702.00
326.4540, 18754.00
327.6590, 18474.00
328.8640, 18471.00
330.0680, 18342.00
331.2730, 18441.00
332.4780, 18212.00
333.6820, 18318.00
334.8860, 18245.67
336.0900, 18144.00
337.2940, 18155.00
338.4980, 18086.00
339.7010, 18006.00
340.9050, 18118.00
342.1080, 17970.00
343.3110, 17702.00
344.5140, 17852.00
345.7170, 17827.00
346.9200, 17906.00
348.1220, 17855.00
349.3240, 17746.00
350.5270, 17678.00
351.7290, 17671.00
352.9310, 17592.00
354.1320, 17614.00
355.3340, 17581.00
356.5350, 17689.00
357.7370, 17470.00
358.9380, 17505.00
360.1390, 17547.00
361.3400, 17258.00
362.5400, 17403.00
363.7410, 17380.00
364.9410, 17438.00
366.1410, 17472.53
367.3410, 17489.44
368.5410, 17482.00
369.7410, 17529.00
370.9400, 17489.00
372.1400, 17459.00
373.3390, 17462.33
374.5380, 17512.86
375.7370, 17458.00
376.9360, 17582.00
378.1350, 17653.00
379.3330, 17508.00
380.5310, 17481.00
381.7300, 17502.00
382.9280, 17591.00
384.1260, 17646.00
385.3230, 17766.00
386.5210, 17762.00
387.7180, 17788.00
388.9160, 17715.00
390.1130, 18019.00
391.3100, 18001.00
392.5060, 17985.00
393.7030, 18402.00
394.9000, 18083.00
396.0960, 18470.00
397.2920, 18536.00
398.4880, 18774.00
399.6840, 18803.00
400.8800, 19102.00
402.0750, 19277.00
403.2710, 19739.00
404.4660, 19985.00
405.6610, 20473.00
406.8560, 21100.00
408.0510, 21155.00
409.2450, 21579.00
410.4400, 21783.00
411.6340, 21776.00
412.8280, 21614.00
414.0220, 21113.00
415.2160, 20743.00
416.4100, 20568.00
417.6030, 19768.00
418.7970, 19501.00
419.9900, 19148.00
421.1830, 19034.00
422.3760, 18747.00
423.5690, 18477.00
424.7610, 18318.00
425.9540, 18082.00
427.1460, 18175.00
428.3380, 18052.00
429.5300, 18005.00
430.7220, 17998.00
431.9140, 17832.00
433.1050, 17830.00
434.2970, 17863.00
435.4880, 17646.00
436.6790, 17709.00
437.8700, 17674.00
439.0610, 17692.00
440.2510, 17800.00
441.4420, 17802.00
442.6320, 17744.00
443.8220, 17715.00
445.0120, 17491.00
446.2020, 17805.00
447.3910, 17698.00
448.5810, 17701.32
449.7700, 18048.00
450.9600, 17737.00
452.1490, 17611.00
453.3370, 17749.00
454.5260, 17711.00
455.7150, 17746.00
456.9030, 17687.00
458.0910, 17617.00
459.2800, 17671.00
460.4670, 17865.00
461.6550, 17690.00
462.8430, 17646.00
464.0300, 17865.00
465.2180, 17504.00
466.4050, 17807.00
467.5920, 17841.00
468.7790, 17730.00
469.9650, 17811.00
471.1520, 17874.00
472.3380, 17746.00
473.5250, 17654.00
474.7110, 17908.00
475.8970, 17846.00
477.0820, 17899.00
478.2680, 17701.00
479.4540, 17685.00
480.6390, 17928.00
481.8240, 17976.00
483.0090, 17809.00
484.1940, 17870.00
485.3780, 17910.00
486.5630, 18034.00
487.7470, 17917.00
488.9320, 17851.00
490.1160, 17809.00
491.3000, 18056.00
492.4830, 17924.00
493.6670, 18113.00
494.8500, 18003.00
496.0340, 18071.00
497.2170, 18056.00
498.4000, 18187.00
499.5820, 18212.00
500.7650, 18141.00
501.9480, 18087.00
503.1300, 18372.00
504.3120, 18263.00
505.4940, 18416.00
506.6760, 18292.00
507.8580, 18237.00
509.0390, 18430.00
510.2210, 18338.70
511.4020, 18439.67
512.5830, 18341.00
513.7640, 18535.00
514.9450, 18475.00
516.1250, 18430.00
517.3060, 18354.00
518.4860, 18430.00
519.6660, 18432.10
520.8460, 18629.00
522.0260, 18511.00
523.2060, 18564.00
524.3850, 18524.00
525.5650, 18573.00
526.7440, 18521.00
527.9230, 18669.00
529.1020, 18787.00
530.2810, 18652.00
531.4590, 18783.00
532.6380, 19043.00
533.8160, 18883.00
534.9940, 18972.00
536.1720, 19111.00
537.3500, 19175.55
538.5270, 19598.00
539.7050, 19556.00
540.8820, 19909.00
542.0590, 20232.00
543.2360, 20841.00
544.4130, 21220.00
545.5900, 22202.00
546.7660, 22676.00
547.9430, 24020.00
549.1190, 25109.00
550.2950, 26339.00
551.4710, 27669.00
552.6470, 28274.00
553.8220, 28116.00
554.9980, 26909.00
556.1730, 25391.00
557.3480, 23728.00
558.5230, 22803.00
559.6980, 21594.00
560.8730, 21177.00
562.0470, 20815.00
563.2220, 20409.00
564.3960, 19986.00
565.5700, 19623.00
566.7440, 19619.00
567.9170, 19528.00
569.0910, 19462.00
570.2640, 19523.00
571.4380, 19237.00
572.6110, 19353.00
573.7840, 19235.00
574.9570, 19143.00
576.1290, 19180.00
577.3020, 19156.00
578.4740, 19193.00
579.6460, 19344.00
580.8180, 19259.30
581.9900, 19256.00
583.1620, 19246.00
584.3330, 19175.00
585.5040, 19298.00
586.6760, 19259.00
587.8470, 19590.00
589.0180, 19398.00
590.1880, 19671.00
591.3590, 19485.00
592.5290, 19771.00
593.7000, 19564.00
594.8700, 19681.00
596.0400, 19865.00
597.2090, 19918.00
598.3790, 19915.00
599.5490, 19903.00
600.7180, 19979.00
601.8870, 19804.00
603.0560, 20081.00
604.2250, 19702.00
605.3940, 19893.00
606.5620, 19761.00
607.7300, 19728.00
608.8990, 19678.00
610.0670, 19532.00
611.2350, 19747.00
612.4020, 19481.00
613.5700, 19574.00
614.7370, 19470.00
615.9050, 19545.00
617.0720, 19527.00
618.2390, 19570.00
619.4060, 19601.00
620.5720, 19549.00
621.7390, 19621.96
622.9050, 19607.00
624.0710, 19697.00
625.2370, 19733.00
626.4030, 19744.00
627.5690, 19759.58
628.7340, 19668.00
629.9000, 19707.00
631.0650, 19644.00
632.2300, 19562.00
633.3950, 19699.00
634.5600, 19642.00
635.7240, 19565.00
636.8890, 19547.00
638.0530, 19590.00
639.2170, 19579.00
640.3810, 19626.00
641.5450, 19498.00
642.7080, 19509.00
643.8720, 19582.00
645.0350, 19720.00
646.1980, 19647.00
647.3610, 19933.00
648.5240, 19790.00
649.6870, 19849.00
650.8490, 19780.00
652.0120, 19767.00
653.1740, 20040.00
654.3360, 19904.00
655.4980, 20054.00
656.6600, 20078.00
657.8210, 20012.00
658.9830, 20129.00
660.1440, 20032.00
661.3050, 20447.00
662.4660, 20355.00
663.6270, 20425.00
664.7870, 20354.00
665.9480, 20372.00
667.1080, 20379.00
668.2680, 20185.00
669.4280, 20103.00
670.5880, 19901.00
671.7480, 19846.44
672.9070, 19837.00
674.0670, 19769.00
675.2260, 19681.00
676.3850, 19723.00
677.5440, 19644.00
678.7030, 19661.00
679.8610, 19632.00
681.0200, 19623.00
682.1780, 19717.00
683.3360, 19548.00
684.4940, 19551.00
685.6520, 19544.00
686.8090, 19625.00
687.9670, 19525.00
689.1240, 19750.00
690.2810, 19729.00
691.4380, 19486.00
692.5950, 19580.00
693.7520, 19585.00
694.9080, 19772.00
696.0650, 19589.00
697.2210, 19775.00
698.3770, 19686.00
699.5330, 19697.00
700.6880, 19777.00
701.8440, 19529.00
702.9990, 19858.00
704.1550, 19918.00
705.3100, 19716.00
706.4650, 19710.00
707.6190, 19757.00
708.7740, 19843.00
709.9290, 19783.00
711.0830, 19838.00
712.2370, 19764.00
713.3910, 19786.00
714.5450, 19778.00
715.6980, 19881.00
716.8520, 19935.00
718.0050, 20077.00
719.1580, 20001.00
720.3110, 19972.00
721.4640, 19989.04
722.6170, 19917.00
723.7700, 19951.00
724.9220, 20045.00
726.0740, 20068.00
727.2260, 20046.00
728.3780, 20158.00
729.5300, 20177.00
730.6810, 20027.00
731.8330, 20194.00
732.9840, 19987.00
734.1350, 20287.00
735.2860, 19990.00
736.4370, 20333.00
737.5880, 20335.93
738.7380, 20332.97
739.8880, 20343.00
741.0390, 20440.00
742.1890, 20123.00
743.3380, 20201.00
744.4880, 20048.00
745.6380, 20315.00
746.7870, 20178.00
747.9360, 20319.00
749.0850, 20324.93
750.2340, 20319.75
751.3830, 20257.00
752.5310, 20382.00
753.6800, 20247.00
754.8280, 20317.00
755.9760, 20288.00
757.1240, 20330.00
758.2720, 20366.00
759.4190, 20287.00
760.5670, 20368.00
761.7140, 20219.00
762.8610, 20456.00
764.0080, 20557.00
765.1550, 20428.00
766.3020, 20337.00
767.4480, 20101.00
768.5950, 20337.00
769.7410, 20410.00
770.8870, 20479.00
772.0330, 20360.00
773.1780, 20547.00
774.3240, 20533.00
775.4690, 20536.00
776.6140, 20713.00
777.7590, 20612.00
778.9040, 20633.00
780.0490, 20774.00
781.1940, 20658.00
782.3380, 20566.00
783.4820, 20814.00
784.6260, 20652.00
785.7700, 20868.00
786.9140, 21043.00
788.0580, 20739.00
789.2010, 20699.00
790.3450, 20890.00
791.4880, 20697.00
792.6310, 20842.00
793.7730, 20624.00
794.9160, 20956.00
796.0590, 20869.00
797.2010, 20789.00
798.3430, 20950.00
799.4850, 21013.00
800.6270, 20953.00
801.7690, 21093.00
802.9100, 21131.00
804.0520, 21078.00
805.1930, 21225.00
806.3340, 20996.00
807.4750, 21209.00
808.6160, 20998.00
809.7560, 20949.00
810.8970, 21214.00
812.0370, 21117.00
813.1770, 21141.00
814.3170, 21162.00
815.4570, 21237.00
816.5960, 21207.00
817.7360, 21197.00
818.8750, 21233.00
820.0140, 21086.00
821.1530, 21326.00
822.2920, 21155.00
823.4310, 21341.00
824.5690, 21277.00
825.7070, 21541.00
826.8460, 21517.00
827.9840, 21366.00
829.1220, 21467.00
830.2590, 21361.00
831.3970, 21355.03
832.5340, 21491.00
833.6710, 21353.00
834.8080, 21371.00
835.9450, 21420.00
837.0820, 21683.00
838.2190, 21609.00
839.3550, 21792.00
840.4910, 21585.00
841.6270, 21737.00
842.7630, 21763.83
843.8990, 21748.42
845.0350, 21917.00
846.1700, 21755.00
847.3060, 21887.00
848.4410, 21755.00
849.5760, 21845.24
850.7100, 21831.74
851.8450, 21946.00
852.9800, 21913.00
854.1140, 21804.00
855.2480, 22028.00
856.3820, 21926.00
857.5160, 22115.00
858.6500, 22210.00
859.7830, 22246.45
860.9170, 22181.00
862.0500, 22321.00
863.1830, 22317.00
864.3160, 22167.00
865.4480, 22135.00
866.5810, 22326.00
867.7130, 22409.00
868.8460, 22315.00
869.9780, 22211.00
871.1100, 22215.00
872.2410, 22139.00
873.3730, 22445.00
874.5050, 22431.00
875.6360, 22372.00
876.7670, 22450.00
877.8980, 22366.00
879.0290, 22517.00
880.1590, 22436.00
881.2900, 22579.00
882.4200, 22403.00
883.5500, 22523.00
884.6800, 22587.00
885.8100, 22707.00
886.9400, 22785.00
888.0690, 22663.00
889.1990, 22666.00
890.3280, 22576.00
891.4570, 22629.58
892.5860, 22728.00
893.7140, 22739.00
894.8430, 22770.00
895.9710, 22768.00
897.1000, 22964.00
898.2280, 22775.00
899.3560, 22784.00
900.4830, 23085.00
901.6110, 22989.00
902.7380, 23384.00
903.8660, 23117.00
904.9930, 23432.00
906.1200, 23569.00
907.2460, 23530.00
908.3730, 23625.00
909.5000, 23622.00
910.6260, 23807.00
911.7520, 23891.00
912.8780, 23839.00
914.0040, 24187.00
915.1290, 24462.00
916.2550, 24967.00
917.3800, 25157.00
918.5050, 25575.00
919.6300, 26191.00
920.7550, 26487.00
921.8800, 26888.00
923.0040, 26973.00
924.1290, 27341.00
925.2530, 27222.00
926.3770, 27403.00
927.5010, 27069.00
928.6250, 26883.00
929.7480, 26587.00
930.8720, 26310.00
931.9950, 25907.00
933.1180, 25583.00
934.2410, 25561.00
935.3640, 25376.00
936.4860, 25307.00
937.6090, 25288.00
938.7310, 25063.00
939.8530, 24915.00
940.9750, 24948.00
942.0970, 25072.00
943.2180, 24668.00
944.3400, 24866.00
945.4610, 24707.00
946.5820, 24742.00
947.7030, 24749.00
948.8240, 24749.00
949.9450, 24837.00
951.0650, 24701.00
952.1860, 24970.00
953.3060, 25026.00
954.4260, 24775.00
955.5460, 24851.00
956.6650, 25084.00
957.7850, 24987.00
958.9040, 24962.00
960.0230, 24926.00
961.1420, 24975.11
962.2610, 25106.00
963.3800, 25125.00
964.4990, 25357.00
965.6170, 25430.00
966.7350, 25300.00
967.8530, 25449.00
968.9710, 25637.00
970.0890, 25861.00
971.2070, 25984.00
972.3240, 26259.00
973.4410, 26252.00
974.5580, 26062.00
975.6750, 26568.00
976.7920, 26711.00
977.9090, 27092.00
979.0250, 27581.00
980.1410, 27544.00
981.2580, 28285.00
982.3740, 28828.00
983.4890, 29438.00
984.6050, 30175.00
985.7200, 31292.00
986.8360, 32732.00
987.9510, 34006.00
989.0660, 35779.00
990.1810, 37418.00
991.2950, 39582.00
992.4100, 41578.00
993.5240, 43357.00
994.6390, 45868.00
995.7530, 48323.00
996.8660, 50732.00
997.9800, 52835.00
999.0940, 55473.00
1000.207, 56696.00
1001.320, 57737.00
1002.433, 57626.00
1003.546, 55590.00
1004.659, 52627.00
1005.772, 49317.00
1006.884, 45357.00
1007.996, 41841.00
1009.108, 38772.00
1010.220, 36548.00
1011.332, 34454.00
1012.444, 32990.00
1013.555, 31761.00
1014.666, 30598.00
1015.777, 30109.00
1016.888, 29362.00
1017.999, 29263.00
1019.110, 29024.00
1020.220, 28805.00
1021.331, 29109.00
1022.441, 28930.00
1023.551, 29005.00
1024.661, 28716.00
1025.770, 28945.00
1026.880, 28582.00
1027.989, 28305.00
1029.098, 28042.00
1030.207, 28025.00
1031.316, 27756.00
1032.425, 27660.00
1033.533, 27480.00
1034.642, 27560.00
1035.750, 27370.00
1036.858, 27769.00
1037.966, 27389.00
1039.073, 27795.00
1040.181, 27591.00
1041.288, 27784.00
1042.396, 27606.00
1043.503, 27660.00
1044.610, 27553.00
1045.716, 27687.00
1046.823, 27858.00
1047.929, 27840.00
1049.036, 27753.00
1050.142, 27890.00
1051.248, 27980.00
1052.353, 28110.00
1053.459, 28211.00
1054.564, 28356.92
1055.670, 28424.87
1056.775, 28523.00
1057.880, 28639.00
1058.985, 28430.00
1060.089, 28669.00
1061.194, 28675.00
1062.298, 28752.00
1063.402, 28869.00
1064.506, 29125.00
1065.610, 29257.00
1066.713, 29301.00
1067.817, 29748.00
1068.920, 30026.00
1070.023, 30183.00
1071.126, 30046.00
1072.229, 30172.00
1073.332, 30431.00
1074.435, 30556.00
1075.537, 30610.00
1076.639, 30937.00
1077.741, 30842.00
1078.843, 30972.00
1079.945, 31237.55
1081.046, 31637.00
1082.148, 31834.00
1083.249, 31963.00
1084.350, 32441.00
1085.451, 32565.00
1086.551, 32829.00
1087.652, 32990.00
1088.752, 33296.00
1089.853, 33116.00
1090.953, 33146.00
1092.053, 33229.00
1093.152, 32747.00
1094.252, 32591.00
1095.351, 32436.00
1096.451, 32186.00
1097.550, 31750.00
1098.649, 31485.00
1099.748, 31480.00
1100.846, 31128.00
1101.945, 31244.00
1103.043, 30806.00
1104.141, 30815.00
1105.239, 30707.00
1106.337, 30785.00
1107.434, 30868.30
1108.532, 30942.29
1109.629, 31196.00
1110.726, 31282.00
1111.823, 31555.00
1112.920, 31875.00
1114.017, 32029.00
1115.113, 32213.00
1116.210, 32358.00
1117.306, 31900.00
1118.402, 31794.00
1119.498, 31325.00
1120.593, 31214.00
1121.689, 30771.00
1122.784, 30727.00
1123.879, 30433.00
1124.974, 30438.00
1126.069, 30573.00
1127.164, 30230.00
1128.259, 30309.00
1129.353, 30176.00
1130.447, 30310.00
1131.541, 30212.00
1132.635, 30140.00
1133.729, 30383.00
1134.822, 30337.00
1135.916, 30348.00
1137.009, 30176.00
1138.102, 30194.95
1139.195, 30379.00
1140.288, 30147.00
1141.380, 30207.00
1142.473, 30211.00
1143.565, 30454.00
1144.657, 30627.00
1145.749, 30441.00
1146.841, 30614.00
1147.932, 30433.00
1149.024, 30858.00
1150.115, 30510.00
1151.206, 30597.00
1152.297, 30919.00
1153.388, 30664.00
1154.479, 31022.00
1155.569, 30879.00
1156.659, 30892.00
1157.750, 31229.00
1158.839, 31017.00
1159.929, 31390.00
1161.019, 31320.00
1162.108, 31552.00
1163.198, 31526.00
1164.287, 31806.00
1165.376, 32009.00
1166.465, 32051.00
1167.553, 32177.00
1168.642, 32395.00
1169.730, 32602.00
1170.818, 32807.00
1171.906, 32730.00
1172.994, 32831.00
1174.082, 32613.00
1175.170, 32512.00
1176.257, 32159.00
1177.344, 32229.00
1178.431, 32508.00
1179.518, 32475.00
1180.605, 32656.00
1181.691, 32355.00
1182.778, 32395.56
1183.864, 32886.00
1184.950, 32220.00
1186.036, 31899.00
1187.122, 31776.00
1188.207, 32275.00
1189.292, 31968.00
1190.378, 31948.00
1191.463, 32141.00
1192.548, 31943.00
1193.632, 32140.00
1194.717, 32006.00
1195.801, 32342.00
1196.886, 32187.00
1197.970, 32230.00
1199.054, 32217.00
1200.137, 32036.00
1201.221, 32305.00
1202.305, 32311.00
1203.388, 32116.00
1204.471, 32532.00
1205.554, 32435.00
1206.637, 32557.00
1207.719, 32530.00
1208.802, 32451.00
1209.884, 32837.00
1210.966, 32712.00
1212.048, 32719.00
1213.130, 32566.00
1214.212, 32825.00
1215.293, 32761.00
1216.374, 32954.00
1217.456, 33001.00
1218.536, 33064.00
1219.617, 33175.00
1220.698, 33211.00
1221.778, 33064.00
1222.859, 33242.00
1223.939, 33059.00
1225.019, 33437.00
1226.099, 33049.00
1227.178, 33406.00
1228.258, 33489.00
1229.337, 33412.00
1230.417, 33656.00
1231.496, 33482.00
1232.574, 33591.00
1233.653, 33613.00
1234.732, 33815.00
1235.810, 34050.00
1236.888, 33705.00
1237.966, 34257.00
1239.044, 33799.00
1240.122, 33780.00
1241.199, 34142.00
1242.277, 33999.00
1243.354, 34161.00
1244.431, 34326.00
1245.508, 34103.00
1246.585, 34437.00
1247.661, 34342.00
1248.738, 34435.00
1249.814, 34297.00
1250.890, 34565.00
1251.966, 34625.00
1253.042, 34583.00
1254.117, 34646.00
1255.193, 34665.00
1256.268, 34770.00
1257.343, 34947.00
1258.418, 34949.00
1259.493, 35042.00
1260.567, 34991.00
1261.642, 35355.00
1262.716, 34926.00
1263.790, 35204.00
1264.864, 35522.00
1265.938, 35380.00
1267.011, 35614.00
1268.085, 35531.00
1269.158, 35419.00
1270.231, 35585.00
1271.304, 35487.00
1272.377, 35784.00
1273.450, 35681.00
1274.522, 35573.00
1275.594, 35890.00
1276.666, 35783.00
1277.738, 36018.58
1278.810, 36214.01
1279.882, 36342.93
1280.953, 36408.89
1282.025, 36223.46
1283.096, 36362.65
1284.167, 36371.73
1285.238, 36375.48
1286.308, 36560.32
1287.379, 36411.43
1288.449, 36593.39
1289.519, 36643.27
1290.589, 36753.61
1291.659, 36733.03
1292.729, 36752.88
1293.798, 36903.65
1294.868, 36981.95
1295.937, 36946.26
1297.006, 37060.39
1298.075, 36906.84
1299.143, 36988.15
1300.212, 37170.84
1301.280, 37141.70
1302.348, 37258.18
1303.416, 37319.20
1304.484, 37128.16
1305.552, 37375.48
1306.620, 37433.22
1307.687, 37283.00
1308.754, 37209.00
1309.821, 37431.00
1310.888, 37410.00
1311.955, 37836.00
1313.021, 37607.00
1314.088, 37945.00
1315.154, 37840.00
1316.220, 37698.00
1317.286, 37855.00
1318.352, 37771.00
1319.417, 37859.00
1320.483, 38281.00
1321.548, 37895.00
1322.613, 38194.00
1323.678, 38061.00
1324.743, 38308.00
1325.807, 38243.00
1326.872, 38224.00
1327.936, 38264.00
1329.000, 37986.00
1330.064, 38354.00
1331.128, 38930.00
1332.191, 38524.00
1333.255, 38676.00
1334.318, 38430.00
1335.381, 38530.00
1336.444, 38731.00
1337.507, 38630.00
1338.569, 38812.00
1339.632, 38793.00
1340.694, 38969.00
1341.756, 39021.34
1342.818, 39026.21
1343.880, 39165.00
1344.941, 39072.00
1346.003, 39153.00
1347.064, 39270.00
1348.125, 39283.00
1349.186, 39314.00
1350.247, 39351.00
1351.308, 39626.00
1352.368, 39335.00
1353.428, 39844.00
1354.489, 39509.00
1355.549, 39649.00
1356.608, 40106.00
1357.668, 39512.00
1358.727, 40026.00
1359.787, 39863.00
1360.846, 39807.00
1361.905, 39620.00
1362.964, 39868.00
1364.022, 39981.00
1365.081, 40036.00
1366.139, 40364.00
1367.197, 40270.00
1368.255, 40126.00
1369.313, 40026.00
1370.371, 40173.00
1371.428, 40545.00
1372.486, 40275.00
1373.543, 40347.00
1374.600, 40580.00
1375.657, 40518.00
1376.713, 40657.00
1377.770, 40687.00
1378.826, 40722.00
1379.882, 40960.00
1380.938, 40616.00
1381.994, 40942.00
1383.050, 40866.00
1384.106, 40988.00
1385.161, 41076.00
1386.216, 40770.00
1387.271, 41142.00
1388.326, 41111.00
1389.381, 41094.00
1390.435, 41418.00
1391.490, 41390.00
1392.544, 41418.00
1393.598, 41355.00
1394.652, 41260.00
1395.705, 41667.00
1396.759, 41232.00
1397.812, 41674.00
1398.866, 41930.00
1399.919, 41479.00
1400.972, 41715.00
1402.024, 41725.00
1403.077, 42198.00
1404.129, 41977.00
1405.181, 42016.00
1406.233, 42163.00
1407.285, 42133.00
1408.337, 42319.00
1409.389, 42156.00
1410.440, 42244.00
1411.491, 42298.00
1412.542, 42104.00
1413.593, 42484.00
1414.644, 42375.00
1415.695, 42282.00
1416.745, 42621.00
1417.795, 42431.00
1418.845, 42929.00
1419.895, 42597.00
1420.945, 42941.00
1421.995, 42734.00
1423.044, 42707.00
1424.093, 42928.00
1425.142, 42880.00
1426.191, 42998.00
1427.240, 43359.00
1428.289, 43275.00
1429.337, 43195.28
1430.385, 43419.67
1431.433, 43577.55
1432.481, 43672.50
1433.529, 43516.05
1434.577, 43684.23
1435.624, 43722.25
1436.672, 43755.00
1437.719, 43968.80
1438.766, 43848.84
1439.812, 44059.71
1440.859, 44138.56
1441.905, 44277.79
1442.952, 44286.18
1443.998, 44334.95
1445.044, 44514.64
1446.090, 44621.84
1447.135, 44615.03
1448.181, 44758.11
1449.226, 44633.42
1450.271, 44743.64
1451.316, 44886.00
1452.361, 44891.00
1453.405, 45077.00
1454.450, 45079.33
1455.494, 45325.00
1456.538, 45210.00
1457.582, 45323.00
1458.626, 45356.00
1459.670, 45211.00
1460.713, 45216.00
1461.757, 45095.00
1462.800, 45517.00
1463.843, 45753.00
1464.886, 45486.00
1465.928, 45623.00
1466.971, 45611.00
1468.013, 45477.00
1469.055, 45911.00
1470.097, 45526.00
1471.139, 45822.00
1472.181, 45784.00
1473.222, 45810.00
1474.263, 45830.00
1475.305, 45896.93
1476.346, 45948.00
1477.386, 46096.00
1478.427, 46104.87
1479.468, 46233.00
1480.508, 46068.00
1481.548, 46549.00
1482.588, 46188.00
1483.628, 46451.00
1484.668, 46483.00
1485.707, 46394.00
1486.747, 46505.00
1487.786, 46445.00
1488.825, 46777.00
1489.864, 46788.00
1490.902, 46687.00
1491.941, 46745.00
1492.979, 46624.00
1494.017, 46892.00
1495.055, 47114.00
1496.093, 46642.00
1497.131, 47269.00
1498.168, 46859.00
1499.206, 47428.00
1500.243, 47433.00
1501.280, 47248.00
1502.317, 47642.00
1503.354, 47503.00
1504.390, 47747.00
1505.426, 48057.00
1506.463, 47442.00
1507.499, 47977.00
1508.535, 47832.00
1509.570, 47997.00
1510.606, 48262.00
1511.641, 47991.00
1512.676, 48166.00
1513.711, 48301.00
1514.746, 48003.00
1515.781, 48223.00
1516.816, 48183.00
1517.850, 48730.00
1518.884, 48274.00
1519.918, 48666.00
1520.952, 48552.00
1521.986, 48544.00
1523.019, 48840.00
1524.053, 48858.00
1525.086, 48863.00
1526.119, 48999.00
1527.152, 49080.78
1528.185, 49130.00
1529.217, 49305.00
1530.250, 49272.00
1531.282, 49269.00
1532.314, 49223.00
1533.346, 49088.00
1534.377, 49137.00
1535.409, 49548.00
1536.440, 49823.00
1537.472, 49816.00
1538.503, 49707.00
1539.534, 49580.00
1540.564, 49499.00
1541.595, 49759.00
1542.625, 49715.00
1543.656, 50080.00
1544.686, 49824.00
1545.716, 49875.00
1546.745, 50117.00
1547.775, 49611.00
1548.804, 49925.00
1549.834, 50156.00
1550.863, 50542.00
1551.892, 50946.00
1552.920, 50667.00
1553.949, 50931.00
1554.977, 50670.00
1556.006, 50242.00
1557.034, 50778.00
1558.062, 50466.00
1559.089, 50353.00
1560.117, 50760.00
1561.144, 50100.00
1562.172, 50866.00
1563.199, 50597.00
1564.226, 50493.00
1565.252, 50959.00
1566.279, 50801.00
1567.305, 51001.00
1568.332, 50983.00
1569.358, 50890.00
1570.384, 51570.00
1571.409, 51251.00
1572.435, 51442.00
##END=



