##NAMES=Scholzite
##RRUFFID=R050238
##IDEAL CHEMISTRY=CaZn^2+^_2_(PO_4_)_2_&#183;2H_2_O
##LOCALITY=near Blinman, South Australia, Australia
##OWNER=RRUFF
##SOURCE=Marcus Origlieri
##DESCRIPTION=Colorless bladed crystals
##STATUS=The identification of this mineral has been confirmed by X-ray diffraction and chemical analysis
##URL=rruff.info/R050238
##MEASURED CHEMISTRY=Ca_1.00_Zn_2.00_(P_1.00_O_4_)_2_Â·2H_2_O
##PIN_ID=M00184
##ORIENTATION=Laser parallel to -a* (-1 0 0). Fiducial mark perpendicular to laser is parallel to -b [0 -1 0]
135.3560, 10174.00
136.5850, 10159.00
137.8140, 10327.00
139.0430, 10486.00
140.2710, 10295.00
141.5000, 10290.00
142.7280, 10364.00
143.9560, 10418.00
145.1840, 10420.00
146.4120, 10586.00
147.6390, 10710.00
148.8670, 10704.00
150.0940, 11196.00
151.3210, 11617.00
152.5490, 11554.00
153.7750, 11636.00
155.0020, 11756.00
156.2290, 11990.00
157.4550, 12246.42
158.6810, 12511.00
159.9080, 13037.00
161.1340, 13542.00
162.3590, 14238.00
163.5850, 14956.00
164.8110, 15297.00
166.0360, 15207.00
167.2610, 14834.00
168.4860, 14296.00
169.7110, 13720.00
170.9360, 13103.00
172.1610, 12428.00
173.3850, 11903.00
174.6100, 11414.00
175.8340, 11065.00
177.0580, 10847.00
178.2820, 10649.00
179.5050, 10464.49
180.7290, 10394.00
181.9520, 10268.00
183.1760, 10242.00
184.3990, 10285.00
185.6220, 10201.00
186.8450, 10304.00
188.0670, 10229.00
189.2900, 10262.00
190.5120, 10159.00
191.7340, 10363.00
192.9560, 10288.00
194.1780, 10375.00
195.4000, 10471.00
196.6220, 10808.00
197.8430, 10726.00
199.0640, 10632.00
200.2860, 10867.00
201.5070, 11247.00
202.7270, 11086.00
203.9480, 10606.00
205.1690, 10186.00
206.3890, 10084.00
207.6090, 10047.00
208.8290, 10180.00
210.0490, 10300.00
211.2690, 10435.00
212.4890, 10661.00
213.7080, 10826.00
214.9280, 11018.00
216.1470, 11341.00
217.3660, 11571.00
218.5850, 12117.00
219.8030, 12564.00
221.0220, 13230.00
222.2400, 13774.20
223.4590, 14417.00
224.6770, 14894.00
225.8950, 15265.00
227.1120, 15614.00
228.3300, 15987.00
229.5480, 16587.00
230.7650, 17360.00
231.9820, 18260.00
233.1990, 19355.00
234.4160, 20444.00
235.6330, 21535.00
236.8490, 22356.00
238.0660, 22631.00
239.2820, 22610.00
240.4980, 22081.00
241.7140, 21292.00
242.9300, 19991.00
244.1460, 19323.00
245.3610, 18106.00
246.5770, 17356.00
247.7920, 17058.00
249.0070, 15958.00
250.2220, 15236.00
251.4370, 14935.00
252.6510, 14502.00
253.8660, 14292.00
255.0800, 13829.00
256.2940, 13666.00
257.5080, 14143.00
258.7220, 14663.00
259.9360, 14233.00
261.1490, 13506.00
262.3630, 13281.00
263.5760, 13440.00
264.7890, 13711.00
266.0020, 13822.00
267.2150, 14203.00
268.4270, 14597.00
269.6400, 14912.00
270.8520, 15208.00
272.0640, 15485.70
273.2760, 15681.00
274.4880, 15933.00
275.7000, 16158.00
276.9120, 16312.00
278.1230, 16374.00
279.3340, 16665.00
280.5450, 16845.00
281.7560, 17263.00
282.9670, 17425.00
284.1780, 17949.00
285.3880, 17975.00
286.5980, 18236.00
287.8090, 18319.00
289.0190, 17999.00
290.2290, 17766.00
291.4380, 17116.00
292.6480, 16791.00
293.8570, 16273.00
295.0670, 15845.00
296.2760, 15375.00
297.4850, 15046.00
298.6930, 14835.00
299.9020, 14706.00
301.1110, 14633.00
302.3190, 14649.00
303.5270, 14699.25
304.7350, 14821.00
305.9430, 14978.00
307.1510, 15033.00
308.3580, 15261.00
309.5660, 15223.14
310.7730, 15284.00
311.9800, 15111.00
313.1870, 15036.00
314.3940, 14819.00
315.6010, 14550.00
316.8070, 14137.00
318.0130, 13715.00
319.2200, 13562.00
320.4260, 13311.00
321.6310, 13108.00
322.8370, 12944.29
324.0430, 12690.00
325.2480, 12617.00
326.4540, 12412.00
327.6590, 12262.00
328.8640, 12267.00
330.0680, 12024.00
331.2730, 11983.00
332.4780, 11853.00
333.6820, 11774.00
334.8860, 11620.00
336.0900, 11597.00
337.2940, 11423.00
338.4980, 11324.00
339.7010, 11339.00
340.9050, 11304.00
342.1080, 11021.00
343.3110, 11131.00
344.5140, 10907.00
345.7170, 10977.00
346.9200, 10671.00
348.1220, 10772.00
349.3240, 10467.00
350.5270, 10443.00
351.7290, 10284.00
352.9310, 10331.00
354.1320, 10310.00
355.3340, 10126.00
356.5350, 10092.00
357.7370, 9991.000
358.9380, 10072.00
360.1390, 10056.00
361.3400, 9988.000
362.5400, 9943.000
363.7410, 9980.000
364.9410, 9858.000
366.1410, 9901.000
367.3410, 9860.925
368.5410, 9907.000
369.7410, 9825.000
370.9400, 9782.000
372.1400, 9778.000
373.3390, 9729.000
374.5380, 9821.000
375.7370, 9690.000
376.9360, 9825.000
378.1350, 9778.000
379.3330, 9777.000
380.5310, 9828.000
381.7300, 9814.000
382.9280, 9773.000
384.1260, 9900.000
385.3230, 9878.000
386.5210, 9754.000
387.7180, 9870.000
388.9160, 9927.000
390.1130, 9803.000
391.3100, 9860.000
392.5060, 9928.000
393.7030, 9845.000
394.9000, 9843.000
396.0960, 9889.000
397.2920, 9893.000
398.4880, 9960.000
399.6840, 9903.000
400.8800, 9961.000
402.0750, 9886.000
403.2710, 9918.845
404.4660, 9994.000
405.6610, 9911.000
406.8560, 10145.00
408.0510, 10062.00
409.2450, 10272.00
410.4400, 10367.00
411.6340, 10365.00
412.8280, 10502.00
414.0220, 10553.00
415.2160, 10454.00
416.4100, 10537.00
417.6030, 10657.00
418.7970, 10566.00
419.9900, 10489.00
421.1830, 10352.00
422.3760, 10395.00
423.5690, 10300.00
424.7610, 10391.00
425.9540, 10351.00
427.1460, 10308.00
428.3380, 10343.00
429.5300, 10192.00
430.7220, 10310.00
431.9140, 10242.00
433.1050, 10305.00
434.2970, 10291.00
435.4880, 10192.00
436.6790, 10305.00
437.8700, 10177.00
439.0610, 10169.00
440.2510, 10194.00
441.4420, 10211.00
442.6320, 10242.00
443.8220, 10226.36
445.0120, 10283.00
446.2020, 10200.00
447.3910, 10168.00
448.5810, 10171.00
449.7700, 10185.00
450.9600, 10200.00
452.1490, 10288.00
453.3370, 10406.00
454.5260, 10162.00
455.7150, 10184.00
456.9030, 10288.00
458.0910, 10242.00
459.2800, 10286.00
460.4670, 10222.00
461.6550, 10346.00
462.8430, 10233.00
464.0300, 10255.00
465.2180, 10260.00
466.4050, 10354.00
467.5920, 10242.00
468.7790, 10319.00
469.9650, 10308.00
471.1520, 10291.00
472.3380, 10344.00
473.5250, 10311.58
474.7110, 10313.62
475.8970, 10297.00
477.0820, 10283.00
478.2680, 10289.00
479.4540, 10264.00
480.6390, 10403.00
481.8240, 10316.00
483.0090, 10517.00
484.1940, 10269.00
485.3780, 10261.00
486.5630, 10361.00
487.7470, 10416.00
488.9320, 10375.00
490.1160, 10529.00
491.3000, 10369.00
492.4830, 10469.00
493.6670, 10561.00
494.8500, 10570.00
496.0340, 10379.00
497.2170, 10427.00
498.4000, 10416.00
499.5820, 10420.00
500.7650, 10459.00
501.9480, 10498.00
503.1300, 10430.00
504.3120, 10321.00
505.4940, 10513.00
506.6760, 10550.00
507.8580, 10628.00
509.0390, 10560.00
510.2210, 10587.00
511.4020, 10601.00
512.5830, 10681.00
513.7640, 10724.00
514.9450, 10700.00
516.1250, 10728.00
517.3060, 10719.00
518.4860, 10674.00
519.6660, 10770.00
520.8460, 10789.00
522.0260, 10785.00
523.2060, 10859.00
524.3850, 10816.37
525.5650, 10757.00
526.7440, 10771.00
527.9230, 10853.00
529.1020, 10855.00
530.2810, 10859.00
531.4590, 10878.42
532.6380, 10902.00
533.8160, 10882.00
534.9940, 10891.00
536.1720, 10920.00
537.3500, 11083.00
538.5270, 11073.00
539.7050, 11185.00
540.8820, 11428.00
542.0590, 11526.00
543.2360, 11623.00
544.4130, 11985.00
545.5900, 12248.00
546.7660, 12272.00
547.9430, 12691.00
549.1190, 13060.00
550.2950, 13575.00
551.4710, 14296.00
552.6470, 14499.00
553.8220, 14701.00
554.9980, 14330.00
556.1730, 13816.00
557.3480, 13414.00
558.5230, 13053.15
559.6980, 12480.00
560.8730, 12404.00
562.0470, 12135.00
563.2220, 11916.00
564.3960, 12026.00
565.5700, 11836.00
566.7440, 11818.00
567.9170, 11686.00
569.0910, 11590.00
570.2640, 11652.00
571.4380, 11785.00
572.6110, 11686.00
573.7840, 11818.00
574.9570, 11831.00
576.1290, 11608.00
577.3020, 11890.00
578.4740, 11805.00
579.6460, 11811.00
580.8180, 11920.00
581.9900, 11998.00
583.1620, 12028.00
584.3330, 12166.00
585.5040, 12255.00
586.6760, 12258.00
587.8470, 12434.00
589.0180, 12432.00
590.1880, 12409.00
591.3590, 12458.00
592.5290, 12441.00
593.7000, 12493.00
594.8700, 12728.00
596.0400, 12797.00
597.2090, 12851.00
598.3790, 12820.00
599.5490, 12948.00
600.7180, 12872.03
601.8870, 12912.00
603.0560, 12781.00
604.2250, 12782.00
605.3940, 12765.00
606.5620, 12643.00
607.7300, 12535.00
608.8990, 12461.00
610.0670, 12397.00
611.2350, 12310.00
612.4020, 12224.00
613.5700, 12240.00
614.7370, 12118.00
615.9050, 12272.00
617.0720, 12305.83
618.2390, 12232.68
619.4060, 12433.00
620.5720, 12292.00
621.7390, 12137.00
622.9050, 12518.00
624.0710, 12356.00
625.2370, 12429.00
626.4030, 12302.00
627.5690, 12292.00
628.7340, 12300.00
629.9000, 12163.00
631.0650, 12185.00
632.2300, 12022.00
633.3950, 12191.00
634.5600, 12127.00
635.7240, 12098.00
636.8890, 12192.00
638.0530, 12103.00
639.2170, 12177.00
640.3810, 12044.00
641.5450, 12194.00
642.7080, 12289.00
643.8720, 12266.00
645.0350, 12443.00
646.1980, 12328.00
647.3610, 12440.00
648.5240, 12516.00
649.6870, 12535.00
650.8490, 12525.00
652.0120, 12514.74
653.1740, 12483.93
654.3360, 12426.00
655.4980, 12386.00
656.6600, 12339.00
657.8210, 12265.00
658.9830, 12394.00
660.1440, 12206.00
661.3050, 12327.00
662.4660, 12083.00
663.6270, 12193.00
664.7870, 12079.00
665.9480, 12140.00
667.1080, 12052.00
668.2680, 12015.00
669.4280, 12131.00
670.5880, 12029.00
671.7480, 11969.00
672.9070, 12064.00
674.0670, 12076.00
675.2260, 11967.00
676.3850, 12044.00
677.5440, 11930.00
678.7030, 11971.00
679.8610, 11995.00
681.0200, 12147.00
682.1780, 12125.00
683.3360, 12065.00
684.4940, 12132.00
685.6520, 11931.00
686.8090, 12139.00
687.9670, 12098.00
689.1240, 12176.00
690.2810, 12056.00
691.4380, 12102.00
692.5950, 12101.00
693.7520, 12120.00
694.9080, 12088.00
696.0650, 12103.46
697.2210, 12055.00
698.3770, 12101.00
699.5330, 12134.00
700.6880, 12118.00
701.8440, 12081.00
702.9990, 12207.00
704.1550, 12106.00
705.3100, 12214.00
706.4650, 12186.00
707.6190, 12193.00
708.7740, 12276.00
709.9290, 12186.00
711.0830, 12184.00
712.2370, 12212.00
713.3910, 12157.00
714.5450, 12228.01
715.6980, 12252.00
716.8520, 12260.00
718.0050, 12390.00
719.1580, 12242.00
720.3110, 12431.00
721.4640, 12329.00
722.6170, 12214.00
723.7700, 12285.00
724.9220, 12228.00
726.0740, 12347.00
727.2260, 12457.00
728.3780, 12417.00
729.5300, 12448.00
730.6810, 12277.00
731.8330, 12323.00
732.9840, 12342.00
734.1350, 12406.00
735.2860, 12385.00
736.4370, 12526.00
737.5880, 12521.00
738.7380, 12547.00
739.8880, 12620.23
741.0390, 12608.91
742.1890, 12659.00
743.3380, 12638.00
744.4880, 12538.00
745.6380, 12555.00
746.7870, 12385.00
747.9360, 12682.00
749.0850, 12497.00
750.2340, 12722.00
751.3830, 12613.00
752.5310, 12678.00
753.6800, 12547.00
754.8280, 12563.00
755.9760, 12541.00
757.1240, 12604.00
758.2720, 12628.00
759.4190, 12580.00
760.5670, 12658.00
761.7140, 12671.00
762.8610, 12786.00
764.0080, 12785.00
765.1550, 12730.00
766.3020, 12782.00
767.4480, 12886.00
768.5950, 12710.00
769.7410, 12763.00
770.8870, 12897.00
772.0330, 12969.00
773.1780, 12848.00
774.3240, 12928.00
775.4690, 12861.00
776.6140, 12875.00
777.7590, 12815.00
778.9040, 12905.00
780.0490, 12975.00
781.1940, 12799.00
782.3380, 12882.00
783.4820, 12947.00
784.6260, 13027.00
785.7700, 13010.00
786.9140, 13011.00
788.0580, 13027.00
789.2010, 13103.00
790.3450, 13145.00
791.4880, 13124.00
792.6310, 13141.00
793.7730, 12940.00
794.9160, 13121.00
796.0590, 13059.00
797.2010, 13213.00
798.3430, 13127.00
799.4850, 13032.00
800.6270, 13199.00
801.7690, 13229.00
802.9100, 13284.00
804.0520, 13363.00
805.1930, 13203.00
806.3340, 13225.00
807.4750, 13262.00
808.6160, 13412.00
809.7560, 13328.00
810.8970, 13258.00
812.0370, 13226.00
813.1770, 13356.00
814.3170, 13359.00
815.4570, 13386.99
816.5960, 13467.00
817.7360, 13417.00
818.8750, 13419.00
820.0140, 13402.00
821.1530, 13607.00
822.2920, 13391.00
823.4310, 13496.00
824.5690, 13377.00
825.7070, 13514.00
826.8460, 13422.00
827.9840, 13475.00
829.1220, 13482.00
830.2590, 13530.00
831.3970, 13435.00
832.5340, 13510.00
833.6710, 13510.00
834.8080, 13548.00
835.9450, 13447.00
837.0820, 13681.00
838.2190, 13692.00
839.3550, 13610.00
840.4910, 13679.00
841.6270, 13643.00
842.7630, 13729.00
843.8990, 13558.00
845.0350, 13765.00
846.1700, 13685.00
847.3060, 13720.00
848.4410, 13793.00
849.5760, 13818.00
850.7100, 13774.00
851.8450, 13649.00
852.9800, 13950.00
854.1140, 13861.00
855.2480, 14028.00
856.3820, 14071.00
857.5160, 13962.00
858.6500, 14096.00
859.7830, 14170.00
860.9170, 14084.00
862.0500, 14023.00
863.1830, 14180.00
864.3160, 14106.00
865.4480, 14172.00
866.5810, 14076.00
867.7130, 14014.00
868.8460, 14038.00
869.9780, 14037.00
871.1100, 14072.00
872.2410, 14119.00
873.3730, 13919.00
874.5050, 14031.00
875.6360, 13964.00
876.7670, 14107.00
877.8980, 14014.00
879.0290, 14010.00
880.1590, 14023.00
881.2900, 13921.00
882.4200, 14065.00
883.5500, 14064.00
884.6800, 13990.00
885.8100, 14033.00
886.9400, 13981.00
888.0690, 13999.13
889.1990, 14068.00
890.3280, 14059.00
891.4570, 14203.00
892.5860, 14291.00
893.7140, 14203.00
894.8430, 14221.00
895.9710, 14368.00
897.1000, 14475.00
898.2280, 14365.00
899.3560, 14330.00
900.4830, 14430.00
901.6110, 14423.00
902.7380, 14515.00
903.8660, 14581.00
904.9930, 14598.00
906.1200, 14740.00
907.2460, 14832.00
908.3730, 14948.90
909.5000, 15070.23
910.6260, 15193.00
911.7520, 15360.00
912.8780, 15421.00
914.0040, 15678.00
915.1290, 15942.00
916.2550, 16350.00
917.3800, 16755.00
918.5050, 17252.00
919.6300, 17857.00
920.7550, 18378.00
921.8800, 18980.00
923.0040, 19279.00
924.1290, 19468.00
925.2530, 19596.00
926.3770, 19476.00
927.5010, 19061.00
928.6250, 18831.00
929.7480, 18259.00
930.8720, 17798.00
931.9950, 17473.00
933.1180, 17111.00
934.2410, 16793.00
935.3640, 16590.00
936.4860, 16355.00
937.6090, 16165.00
938.7310, 16045.00
939.8530, 15926.00
940.9750, 15769.00
942.0970, 15810.00
943.2180, 15708.00
944.3400, 15639.00
945.4610, 15643.00
946.5820, 15585.00
947.7030, 15631.00
948.8240, 15579.53
949.9450, 15786.00
951.0650, 15552.00
952.1860, 15592.00
953.3060, 15666.00
954.4260, 15435.00
955.5460, 15662.00
956.6650, 15515.00
957.7850, 15670.00
958.9040, 15522.00
960.0230, 15653.00
961.1420, 15748.00
962.2610, 15737.00
963.3800, 15885.00
964.4990, 15979.00
965.6170, 15951.00
966.7350, 15974.00
967.8530, 16104.00
968.9710, 16280.00
970.0890, 16350.00
971.2070, 16529.00
972.3240, 16655.00
973.4410, 16936.00
974.5580, 17046.00
975.6750, 17340.00
976.7920, 17815.00
977.9090, 18066.00
979.0250, 18316.00
980.1410, 18818.00
981.2580, 19275.00
982.3740, 19913.00
983.4890, 20916.00
984.6050, 22081.00
985.7200, 23259.00
986.8360, 25099.00
987.9510, 26746.00
989.0660, 29166.00
990.1810, 31576.00
991.2950, 34142.00
992.4100, 37044.00
993.5240, 39854.00
994.6390, 43472.00
995.7530, 46921.00
996.8660, 50357.00
997.9800, 54077.00
999.0940, 57764.00
1000.207, 60207.00
1001.320, 61759.00
1002.433, 62036.00
1003.546, 59526.00
1004.659, 55485.00
1005.772, 50598.00
1006.884, 45201.00
1007.996, 39952.00
1009.108, 35136.00
1010.220, 31277.00
1011.332, 28375.00
1012.444, 25944.00
1013.555, 24191.00
1014.666, 22873.00
1015.777, 21870.00
1016.888, 21013.00
1017.999, 20453.00
1019.110, 20043.00
1020.220, 19905.00
1021.331, 20189.00
1022.441, 20399.00
1023.551, 20389.00
1024.661, 20290.00
1025.770, 20345.00
1026.880, 19757.00
1027.989, 19244.00
1029.098, 18598.00
1030.207, 18173.00
1031.316, 17877.00
1032.425, 17705.00
1033.533, 17183.00
1034.642, 17179.31
1035.750, 16983.40
1036.858, 17061.00
1037.966, 16864.00
1039.073, 16843.00
1040.181, 16873.00
1041.288, 16783.00
1042.396, 16824.00
1043.503, 16806.00
1044.610, 16829.00
1045.716, 16731.00
1046.823, 16841.00
1047.929, 16823.00
1049.036, 16690.00
1050.142, 16802.00
1051.248, 16909.00
1052.353, 16746.00
1053.459, 16729.00
1054.564, 16874.00
1055.670, 16926.00
1056.775, 16966.00
1057.880, 17141.00
1058.985, 16817.00
1060.089, 16873.00
1061.194, 16969.00
1062.298, 16721.00
1063.402, 17033.00
1064.506, 17009.00
1065.610, 17013.00
1066.713, 16959.00
1067.817, 16972.02
1068.920, 17112.00
1070.023, 17036.00
1071.126, 17142.00
1072.229, 17311.00
1073.332, 17219.00
1074.435, 17157.00
1075.537, 17282.00
1076.639, 17394.00
1077.741, 17304.00
1078.843, 17397.00
1079.945, 17648.00
1081.046, 17583.00
1082.148, 17671.00
1083.249, 17716.00
1084.350, 17928.00
1085.451, 18082.00
1086.551, 18192.00
1087.652, 18283.00
1088.752, 18175.00
1089.853, 18243.00
1090.953, 18208.00
1092.053, 18328.00
1093.152, 18008.00
1094.252, 17797.00
1095.351, 17870.00
1096.451, 17796.00
1097.550, 17825.00
1098.649, 17622.00
1099.748, 17572.00
1100.846, 17361.00
1101.945, 17407.00
1103.043, 17228.00
1104.141, 17304.00
1105.239, 17406.00
1106.337, 17383.00
1107.434, 17138.00
1108.532, 17366.00
1109.629, 17385.00
1110.726, 17577.00
1111.823, 17633.00
1112.920, 17773.00
1114.017, 17831.66
1115.113, 18106.00
1116.210, 17907.00
1117.306, 17924.00
1118.402, 17929.00
1119.498, 17480.00
1120.593, 17318.00
1121.689, 17297.00
1122.784, 17185.00
1123.879, 16931.00
1124.974, 17086.00
1126.069, 16901.00
1127.164, 16798.00
1128.259, 16808.00
1129.353, 16700.07
1130.447, 16741.00
1131.541, 16671.00
1132.635, 16585.00
1133.729, 16673.00
1134.822, 16731.00
1135.916, 16821.00
1137.009, 16679.00
1138.102, 16606.00
1139.195, 16629.73
1140.288, 16646.31
1141.380, 16670.00
1142.473, 16714.00
1143.565, 16855.00
1144.657, 16667.00
1145.749, 16651.00
1146.841, 16822.00
1147.932, 16882.00
1149.024, 16735.00
1150.115, 16880.00
1151.206, 16910.00
1152.297, 17117.00
1153.388, 16906.00
1154.479, 17102.53
1155.569, 17201.00
1156.659, 17182.00
1157.750, 17321.00
1158.839, 17108.00
1159.929, 17288.00
1161.019, 17393.00
1162.108, 17509.00
1163.198, 17770.00
1164.287, 17603.00
1165.376, 18219.00
1166.465, 18049.00
1167.553, 18361.00
1168.642, 18855.00
1169.730, 18889.00
1170.818, 18926.00
1171.906, 19184.00
1172.994, 19149.00
1174.082, 18938.00
1175.170, 18454.00
1176.257, 18133.00
1177.344, 17961.00
1178.431, 17618.00
1179.518, 17543.00
1180.605, 17287.00
1181.691, 17224.00
1182.778, 17196.00
1183.864, 17189.00
1184.950, 17048.00
1186.036, 17192.00
1187.122, 17045.00
1188.207, 17062.00
1189.292, 16958.00
1190.378, 17038.00
1191.463, 16989.00
1192.548, 17047.00
1193.632, 16954.00
1194.717, 17116.00
1195.801, 16917.00
1196.886, 17041.00
1197.970, 16998.00
1199.054, 17099.00
1200.137, 17186.00
1201.221, 17007.00
1202.305, 17063.00
1203.388, 16879.00
1204.471, 17062.00
1205.554, 17086.00
1206.637, 17108.00
1207.719, 17103.00
1208.802, 17103.00
1209.884, 17103.00
1210.966, 17225.00
1212.048, 17250.00
1213.130, 17001.00
1214.212, 17106.00
1215.293, 17153.00
1216.374, 17128.00
1217.456, 17384.00
1218.536, 17354.00
1219.617, 17008.00
1220.698, 17148.00
1221.778, 17254.00
1222.859, 17073.00
1223.939, 17220.00
1225.019, 17251.00
1226.099, 17344.00
1227.178, 17276.00
1228.258, 17375.00
1229.337, 17222.00
1230.417, 17327.00
1231.496, 17417.00
1232.574, 17288.00
1233.653, 17421.00
1234.732, 17579.00
1235.810, 17474.37
1236.888, 17485.00
1237.966, 17411.00
1239.044, 17505.00
1240.122, 17512.00
1241.199, 17551.00
1242.277, 17613.79
1243.354, 17522.00
1244.431, 17711.00
1245.508, 17514.00
1246.585, 17524.00
1247.661, 17578.00
1248.738, 17583.00
1249.814, 17631.00
1250.890, 17480.00
1251.966, 17517.00
1253.042, 17554.00
1254.117, 17617.00
1255.193, 17662.99
1256.268, 17710.00
1257.343, 17753.00
1258.418, 17660.00
1259.493, 17642.00
1260.567, 17573.00
1261.642, 17853.00
1262.716, 17857.00
1263.790, 17928.00
1264.864, 18009.00
1265.938, 17942.00
1267.011, 17931.00
1268.085, 17998.00
1269.158, 18016.00
1270.231, 17937.00
1271.304, 18014.00
1272.377, 18102.00
1273.450, 18018.00
1274.522, 18080.00
1275.594, 18087.00
1276.666, 18108.00
1277.738, 18025.00
1278.810, 18044.00
1279.882, 18108.00
1280.953, 18251.00
1282.025, 18244.00
1283.096, 18114.00
1284.167, 18133.00
1285.238, 18027.00
1286.308, 18078.00
1287.379, 18063.00
1288.449, 18222.00
1289.519, 18127.00
1290.589, 18324.00
1291.659, 18102.00
1292.729, 18162.00
1293.798, 18245.00
1294.868, 18379.00
1295.937, 18319.00
1297.006, 18212.00
1298.075, 18327.00
1299.143, 18202.00
1300.212, 18196.00
1301.280, 18326.00
1302.348, 18312.00
1303.416, 18298.00
1304.484, 18360.00
1305.552, 18467.00
1306.620, 18497.00
1307.687, 18555.00
1308.754, 18510.00
1309.821, 18512.00
1310.888, 18619.00
1311.955, 18516.00
1313.021, 18654.00
1314.088, 18543.00
1315.154, 18580.00
1316.220, 18570.00
1317.286, 18639.00
1318.352, 18643.00
1319.417, 18719.00
1320.483, 18700.00
1321.548, 18589.00
1322.613, 18680.00
1323.678, 18518.00
1324.743, 18806.00
1325.807, 18431.00
1326.872, 18647.00
1327.936, 18536.00
1329.000, 18606.00
1330.064, 18612.00
1331.128, 18656.00
1332.191, 18673.00
1333.255, 18620.63
1334.318, 18623.00
1335.381, 18503.00
1336.444, 18523.00
1337.507, 18484.20
1338.569, 18620.00
1339.632, 18555.00
1340.694, 18628.00
1341.756, 18651.00
1342.818, 18572.00
1343.880, 18654.00
1344.941, 18723.00
1346.003, 18755.00
1347.064, 18668.00
1348.125, 18720.00
1349.186, 18798.00
1350.247, 18721.00
1351.308, 18818.00
1352.368, 18672.00
1353.428, 18747.00
1354.489, 18924.00
1355.549, 18788.00
1356.608, 18667.00
1357.668, 18706.00
1358.727, 18855.00
1359.787, 18680.00
1360.846, 18784.00
1361.905, 18732.00
1362.964, 18966.00
1364.022, 18923.00
1365.081, 18689.00
1366.139, 18854.00
1367.197, 18812.00
1368.255, 18863.00
1369.313, 18795.00
1370.371, 18850.24
1371.428, 18728.00
1372.486, 18955.00
1373.543, 18967.00
1374.600, 19058.00
1375.657, 18915.00
1376.713, 18914.00
1377.770, 19009.00
1378.826, 18996.00
1379.882, 19081.00
1380.938, 19056.00
1381.994, 19012.00
1383.050, 19009.00
1384.106, 18976.00
1385.161, 18974.38
1386.216, 19146.00
1387.271, 18980.00
1388.326, 19123.00
1389.381, 19145.00
1390.435, 19031.00
1391.490, 19103.00
1392.544, 19151.00
1393.598, 19202.00
1394.652, 18972.00
1395.705, 19084.00
1396.759, 19006.00
1397.812, 19125.00
1398.866, 19079.00
1399.919, 19190.00
1400.972, 19050.00
1402.024, 19056.00
1403.077, 19196.00
1404.129, 19253.00
1405.181, 19263.00
1406.233, 19206.00
1407.285, 19187.00
1408.337, 19224.00
1409.389, 19180.00
1410.440, 19249.00
1411.491, 19168.00
1412.542, 19261.00
1413.593, 19200.00
1414.644, 19269.00
1415.695, 19447.00
1416.745, 19239.00
1417.795, 19310.00
1418.845, 19241.00
1419.895, 19116.00
1420.945, 19390.00
1421.995, 19390.00
1423.044, 19246.00
1424.093, 19326.00
1425.142, 19411.00
1426.191, 19328.00
1427.240, 19395.00
1428.289, 19505.00
1429.337, 19508.00
1430.385, 19580.24
1431.433, 19438.00
1432.481, 19588.00
1433.529, 19610.00
1434.577, 19448.00
1435.624, 19714.00
1436.672, 19847.00
1437.719, 19881.00
1438.766, 19959.00
1439.812, 19880.00
1440.859, 19980.00
1441.905, 19984.83
1442.952, 20020.63
1443.998, 20049.00
1445.044, 20128.00
1446.090, 20176.00
1447.135, 20236.00
1448.181, 20303.00
1449.226, 20332.56
1450.271, 20394.00
1451.316, 20368.00
1452.361, 20421.00
1453.405, 20378.00
1454.450, 20315.00
1455.494, 20360.00
1456.538, 20409.00
1457.582, 20315.00
1458.626, 20303.00
1459.670, 20284.00
1460.713, 20167.00
1461.757, 20350.00
1462.800, 20217.00
1463.843, 20318.00
1464.886, 20284.00
1465.928, 20271.00
1466.971, 20091.00
1468.013, 19954.00
1469.055, 20168.00
1470.097, 20015.00
1471.139, 20135.00
1472.181, 20149.00
1473.222, 20203.00
1474.263, 20250.00
1475.305, 20176.00
1476.346, 20164.00
1477.386, 20114.00
1478.427, 20152.00
1479.468, 20162.00
1480.508, 20156.95
1481.548, 20131.82
1482.588, 20141.00
1483.628, 20072.00
1484.668, 19987.00
1485.707, 20016.00
1486.747, 20052.00
1487.786, 20132.00
1488.825, 20131.00
1489.864, 20138.00
1490.902, 20016.00
1491.941, 20167.00
1492.979, 20010.00
1494.017, 20233.00
1495.055, 20231.00
1496.093, 20209.00
1497.131, 20107.00
1498.168, 20059.00
1499.206, 20072.00
1500.243, 20163.00
1501.280, 20252.00
1502.317, 20285.25
1503.354, 20294.48
1504.390, 20337.00
1505.426, 20265.00
1506.463, 20172.00
1507.499, 20183.00
1508.535, 20170.19
1509.570, 20402.00
1510.606, 20260.00
1511.641, 20316.00
1512.676, 20432.00
1513.711, 20187.00
1514.746, 20353.00
1515.781, 20443.00
1516.816, 20395.00
1517.850, 20271.00
1518.884, 20386.00
1519.918, 20455.00
1520.952, 20378.00
1521.986, 20395.00
1523.019, 20400.20
1524.053, 20489.00
1525.086, 20412.00
1526.119, 20452.00
1527.152, 20479.00
1528.185, 20502.00
1529.217, 20634.00
1530.250, 20490.00
1531.282, 20620.00
1532.314, 20473.00
1533.346, 20724.00
1534.377, 20645.00
1535.409, 20467.00
1536.440, 20464.00
1537.472, 20705.00
1538.503, 20759.00
1539.534, 20687.00
1540.564, 20542.00
1541.595, 20497.00
1542.625, 20730.00
1543.656, 20633.00
1544.686, 20678.00
1545.716, 20787.00
1546.745, 20706.00
1547.775, 20844.00
1548.804, 20702.00
1549.834, 20906.00
1550.863, 20976.00
1551.892, 21272.00
1552.920, 21185.00
1553.949, 21096.00
1554.977, 21369.00
1556.006, 21076.00
1557.034, 21058.00
1558.062, 20813.00
1559.089, 20634.00
1560.117, 20825.00
1561.144, 20873.00
1562.172, 21083.00
1563.199, 20896.00
1564.226, 20924.00
1565.252, 21010.00
1566.279, 20817.00
1567.305, 20961.00
1568.332, 21046.00
1569.358, 21001.00
1570.384, 20793.00
1571.409, 21076.00
1572.435, 21187.00
##END=



