##NAMES=Scholzite
##RRUFFID=R050238
##IDEAL CHEMISTRY=CaZn^2+^_2_(PO_4_)_2_&#183;2H_2_O
##LOCALITY=near Blinman, South Australia, Australia
##OWNER=RRUFF
##SOURCE=Marcus Origlieri
##DESCRIPTION=Colorless bladed crystals
##STATUS=The identification of this mineral has been confirmed by X-ray diffraction and chemical analysis
##URL=rruff.info/R050238
##MEASURED CHEMISTRY=Ca_1.00_Zn_2.00_(P_1.00_O_4_)_2_Â·2H_2_O
##PIN_ID=M00218
##ORIENTATION=Laser parallel to c* (0 0 1). Fiducial mark perpendicular to laser is parallel to a [1 0 0]
135.3560, 10226.00
136.5850, 10421.00
137.8140, 10731.00
139.0430, 10826.69
140.2710, 11099.00
141.5000, 11038.00
142.7280, 11163.00
143.9560, 11209.00
145.1840, 11131.00
146.4120, 11091.00
147.6390, 11085.00
148.8670, 11231.29
150.0940, 11419.00
151.3210, 11647.00
152.5490, 12015.00
153.7750, 12292.00
155.0020, 12670.00
156.2290, 13188.00
157.4550, 13755.00
158.6810, 14654.00
159.9080, 15307.00
161.1340, 16276.00
162.3590, 16926.00
163.5850, 17452.18
164.8110, 17442.46
166.0360, 17864.00
167.2610, 16630.00
168.4860, 15616.00
169.7110, 14456.00
170.9360, 13593.00
172.1610, 12544.00
173.3850, 11823.00
174.6100, 11440.00
175.8340, 10914.00
177.0580, 10600.00
178.2820, 10466.00
179.5050, 10394.00
180.7290, 10155.00
181.9520, 10147.00
183.1760, 9981.000
184.3990, 9882.000
185.6220, 9831.000
186.8450, 9812.000
188.0670, 9802.000
189.2900, 9835.000
190.5120, 9673.000
191.7340, 9731.677
192.9560, 9846.000
194.1780, 9784.000
195.4000, 9603.000
196.6220, 9708.000
197.8430, 9709.000
199.0640, 9928.000
200.2860, 10055.00
201.5070, 10249.00
202.7270, 10402.00
203.9480, 10115.00
205.1690, 10177.00
206.3890, 10285.00
207.6090, 10653.00
208.8290, 11347.00
210.0490, 12216.00
211.2690, 13137.00
212.4890, 14396.00
213.7080, 15630.00
214.9280, 17009.00
216.1470, 18619.00
217.3660, 20440.00
218.5850, 22073.00
219.8030, 23937.00
221.0220, 25125.00
222.2400, 25816.00
223.4590, 25191.00
224.6770, 24031.00
225.8950, 22543.00
227.1120, 20307.00
228.3300, 18499.00
229.5480, 16842.00
230.7650, 15545.00
231.9820, 14600.00
233.1990, 13866.00
234.4160, 13311.00
235.6330, 12947.00
236.8490, 12549.00
238.0660, 12287.00
239.2820, 11969.00
240.4980, 11616.00
241.7140, 11361.00
242.9300, 11107.19
244.1460, 10837.00
245.3610, 10692.00
246.5770, 10615.00
247.7920, 10458.00
249.0070, 10386.26
250.2220, 10163.00
251.4370, 10243.00
252.6510, 10121.00
253.8660, 10073.00
255.0800, 10244.00
256.2940, 10318.00
257.5080, 10734.00
258.7220, 10684.08
259.9360, 11033.00
261.1490, 10807.00
262.3630, 10799.00
263.5760, 10998.00
264.7890, 11232.00
266.0020, 11556.00
267.2150, 11842.00
268.4270, 11945.00
269.6400, 12326.00
270.8520, 12425.00
272.0640, 12491.00
273.2760, 12659.00
274.4880, 12866.00
275.7000, 12771.00
276.9120, 12971.00
278.1230, 13096.00
279.3340, 13013.00
280.5450, 13281.00
281.7560, 13288.00
282.9670, 13488.00
284.1780, 13963.00
285.3880, 14328.00
286.5980, 13988.66
287.8090, 13470.00
289.0190, 13330.00
290.2290, 13167.00
291.4380, 13123.00
292.6480, 12834.00
293.8570, 12787.00
295.0670, 12611.00
296.2760, 12404.00
297.4850, 12246.00
298.6930, 12345.00
299.9020, 12247.00
301.1110, 12441.00
302.3190, 12316.00
303.5270, 12292.00
304.7350, 12430.00
305.9430, 12560.00
307.1510, 12540.00
308.3580, 12572.00
309.5660, 12621.00
310.7730, 12381.00
311.9800, 12277.00
313.1870, 12086.00
314.3940, 11971.00
315.6010, 11780.00
316.8070, 11689.00
318.0130, 11369.00
319.2200, 11186.00
320.4260, 11099.00
321.6310, 11055.00
322.8370, 10919.00
324.0430, 10787.00
325.2480, 10744.00
326.4540, 10708.00
327.6590, 10739.00
328.8640, 10766.00
330.0680, 10700.00
331.2730, 10748.00
332.4780, 10741.00
333.6820, 10598.00
334.8860, 10663.00
336.0900, 10616.00
337.2940, 10667.00
338.4980, 10632.00
339.7010, 10605.00
340.9050, 10485.00
342.1080, 10432.00
343.3110, 10394.00
344.5140, 10263.00
345.7170, 10171.00
346.9200, 9999.000
348.1220, 9872.000
349.3240, 9842.000
350.5270, 9649.000
351.7290, 9365.000
352.9310, 9303.000
354.1320, 9195.000
355.3340, 9110.000
356.5350, 8988.000
357.7370, 8936.000
358.9380, 8828.000
360.1390, 8767.000
361.3400, 8826.000
362.5400, 8751.000
363.7410, 8699.000
364.9410, 8652.000
366.1410, 8600.000
367.3410, 8629.000
368.5410, 8763.000
369.7410, 8672.000
370.9400, 8733.000
372.1400, 8696.000
373.3390, 8629.000
374.5380, 8754.000
375.7370, 8761.000
376.9360, 8690.000
378.1350, 8819.000
379.3330, 8793.000
380.5310, 8898.000
381.7300, 8893.000
382.9280, 9143.000
384.1260, 9136.000
385.3230, 9186.000
386.5210, 9265.000
387.7180, 9551.000
388.9160, 9653.000
390.1130, 9793.000
391.3100, 9941.000
392.5060, 10097.00
393.7030, 10429.00
394.9000, 10631.00
396.0960, 11054.00
397.2920, 11573.00
398.4880, 12062.00
399.6840, 12768.00
400.8800, 13268.00
402.0750, 14126.00
403.2710, 14985.00
404.4660, 15852.00
405.6610, 17024.00
406.8560, 17616.00
408.0510, 18597.00
409.2450, 19255.00
410.4400, 19431.00
411.6340, 19341.00
412.8280, 18817.00
414.0220, 18144.00
415.2160, 16996.00
416.4100, 15811.00
417.6030, 14814.00
418.7970, 13818.00
419.9900, 12926.00
421.1830, 12322.00
422.3760, 11849.00
423.5690, 11178.00
424.7610, 11442.00
425.9540, 11007.53
427.1460, 10641.34
428.3380, 10766.00
429.5300, 9914.000
430.7220, 9748.000
431.9140, 9528.000
433.1050, 9480.000
434.2970, 9511.000
435.4880, 9308.000
436.6790, 9162.000
437.8700, 9205.000
439.0610, 9005.000
440.2510, 9063.000
441.4420, 8990.000
442.6320, 8886.000
443.8220, 9029.000
445.0120, 9015.000
446.2020, 8888.000
447.3910, 8819.000
448.5810, 8818.000
449.7700, 8822.000
450.9600, 8903.000
452.1490, 8774.000
453.3370, 8773.000
454.5260, 8879.000
455.7150, 8791.000
456.9030, 8811.000
458.0910, 8758.000
459.2800, 8733.000
460.4670, 8759.000
461.6550, 8727.000
462.8430, 8805.000
464.0300, 8729.000
465.2180, 8802.000
466.4050, 8778.000
467.5920, 8725.000
468.7790, 8872.000
469.9650, 8691.000
471.1520, 8744.000
472.3380, 8824.000
473.5250, 8796.000
474.7110, 8832.421
475.8970, 8794.000
477.0820, 8819.000
478.2680, 8857.000
479.4540, 8825.000
480.6390, 8840.000
481.8240, 8863.623
483.0090, 8920.000
484.1940, 8921.000
485.3780, 8970.670
486.5630, 8893.000
487.7470, 9019.000
488.9320, 9099.000
490.1160, 9062.000
491.3000, 9022.000
492.4830, 9007.000
493.6670, 9206.000
494.8500, 9193.000
496.0340, 9284.000
497.2170, 9332.000
498.4000, 9443.000
499.5820, 9361.000
500.7650, 9424.000
501.9480, 9497.000
503.1300, 9577.000
504.3120, 9491.000
505.4940, 9493.000
506.6760, 9648.000
507.8580, 9577.000
509.0390, 9697.000
510.2210, 9773.000
511.4020, 9770.000
512.5830, 9748.000
513.7640, 9680.000
514.9450, 9669.636
516.1250, 9633.894
517.3060, 9607.000
518.4860, 9579.000
519.6660, 9552.000
520.8460, 9516.779
522.0260, 9489.000
523.2060, 9504.000
524.3850, 9566.000
525.5650, 9567.000
526.7440, 9535.000
527.9230, 9561.000
529.1020, 9560.000
530.2810, 9573.000
531.4590, 9621.000
532.6380, 9679.000
533.8160, 9674.000
534.9940, 9694.000
536.1720, 9731.624
537.3500, 9894.000
538.5270, 9794.000
539.7050, 9863.000
540.8820, 9897.000
542.0590, 10112.00
543.2360, 10144.00
544.4130, 10278.00
545.5900, 10228.00
546.7660, 10453.00
547.9430, 10361.00
549.1190, 10490.00
550.2950, 10727.00
551.4710, 10545.00
552.6470, 10668.00
553.8220, 10624.00
554.9980, 10554.00
556.1730, 10445.00
557.3480, 10406.00
558.5230, 10252.00
559.6980, 10381.00
560.8730, 10241.00
562.0470, 10248.00
563.2220, 10144.00
564.3960, 10201.00
565.5700, 10284.00
566.7440, 10320.00
567.9170, 10302.00
569.0910, 10517.00
570.2640, 10347.00
571.4380, 10426.00
572.6110, 10571.00
573.7840, 10685.00
574.9570, 10613.00
576.1290, 10703.00
577.3020, 10800.00
578.4740, 10816.00
579.6460, 10977.00
580.8180, 10915.00
581.9900, 11002.00
583.1620, 10948.00
584.3330, 11083.00
585.5040, 11101.00
586.6760, 11148.00
587.8470, 11096.00
589.0180, 10988.00
590.1880, 11108.00
591.3590, 11186.00
592.5290, 11072.00
593.7000, 11075.00
594.8700, 11168.00
596.0400, 11114.00
597.2090, 11125.00
598.3790, 11022.00
599.5490, 11075.00
600.7180, 11045.00
601.8870, 10843.00
603.0560, 10831.00
604.2250, 10697.00
605.3940, 10685.00
606.5620, 10625.00
607.7300, 10729.00
608.8990, 10577.00
610.0670, 10497.00
611.2350, 10368.00
612.4020, 10498.00
613.5700, 10404.00
614.7370, 10378.00
615.9050, 10411.00
617.0720, 10340.00
618.2390, 10355.00
619.4060, 10380.00
620.5720, 10418.00
621.7390, 10351.00
622.9050, 10412.00
624.0710, 10428.00
625.2370, 10477.70
626.4030, 10511.00
627.5690, 10591.00
628.7340, 10652.00
629.9000, 10632.00
631.0650, 10742.00
632.2300, 10676.00
633.3950, 10717.00
634.5600, 10805.00
635.7240, 10687.00
636.8890, 10704.00
638.0530, 10868.00
639.2170, 10785.00
640.3810, 10672.00
641.5450, 10713.00
642.7080, 10745.00
643.8720, 10574.00
645.0350, 10562.00
646.1980, 10691.00
647.3610, 10735.00
648.5240, 10574.00
649.6870, 10584.00
650.8490, 10571.00
652.0120, 10595.00
653.1740, 10610.00
654.3360, 10683.00
655.4980, 10646.00
656.6600, 10711.23
657.8210, 10773.00
658.9830, 10753.00
660.1440, 10776.00
661.3050, 10701.00
662.4660, 10610.00
663.6270, 10666.00
664.7870, 10692.00
665.9480, 10788.00
667.1080, 10668.00
668.2680, 10601.00
669.4280, 10693.00
670.5880, 10666.00
671.7480, 10675.00
672.9070, 10625.00
674.0670, 10591.00
675.2260, 10692.00
676.3850, 10663.00
677.5440, 10708.00
678.7030, 10768.00
679.8610, 10707.00
681.0200, 10683.00
682.1780, 10787.00
683.3360, 10839.00
684.4940, 10850.00
685.6520, 10923.00
686.8090, 10891.00
687.9670, 10835.00
689.1240, 10768.00
690.2810, 10921.00
691.4380, 10852.00
692.5950, 10954.00
693.7520, 10866.00
694.9080, 10953.00
696.0650, 10840.00
697.2210, 11006.00
698.3770, 11355.00
699.5330, 11156.34
700.6880, 11185.00
701.8440, 11031.00
702.9990, 10958.00
704.1550, 10988.00
705.3100, 11072.00
706.4650, 11079.00
707.6190, 11057.00
708.7740, 11141.00
709.9290, 11161.00
711.0830, 11207.00
712.2370, 11209.00
713.3910, 11235.20
714.5450, 11300.00
715.6980, 11272.00
716.8520, 11201.00
718.0050, 11222.00
719.1580, 11317.00
720.3110, 11242.00
721.4640, 11337.00
722.6170, 11196.00
723.7700, 11358.00
724.9220, 11385.00
726.0740, 11281.00
727.2260, 11357.00
728.3780, 11383.00
729.5300, 11416.00
730.6810, 11472.66
731.8330, 11510.00
732.9840, 11523.00
734.1350, 11546.00
735.2860, 11478.00
736.4370, 11464.00
737.5880, 11496.00
738.7380, 11496.00
739.8880, 11557.00
741.0390, 11510.00
742.1890, 11552.16
743.3380, 11549.00
744.4880, 11582.00
745.6380, 11560.00
746.7870, 11549.00
747.9360, 11555.00
749.0850, 11530.39
750.2340, 11510.79
751.3830, 11507.00
752.5310, 11522.00
753.6800, 11533.00
754.8280, 11566.20
755.9760, 11577.10
757.1240, 11645.00
758.2720, 11595.00
759.4190, 11623.00
760.5670, 11595.00
761.7140, 11626.16
762.8610, 11753.00
764.0080, 11713.00
765.1550, 11743.00
766.3020, 11814.00
767.4480, 11799.00
768.5950, 11681.00
769.7410, 11893.00
770.8870, 11749.00
772.0330, 11774.00
773.1780, 11882.00
774.3240, 11793.00
775.4690, 11806.00
776.6140, 11895.00
777.7590, 11880.00
778.9040, 11981.00
780.0490, 11832.00
781.1940, 11864.00
782.3380, 11867.00
783.4820, 11817.00
784.6260, 11956.00
785.7700, 12027.00
786.9140, 11929.00
788.0580, 12002.00
789.2010, 12073.00
790.3450, 12105.00
791.4880, 12056.00
792.6310, 12083.51
793.7730, 12068.08
794.9160, 12081.00
796.0590, 12077.00
797.2010, 12140.00
798.3430, 12212.00
799.4850, 12106.00
800.6270, 12244.00
801.7690, 12109.00
802.9100, 12218.00
804.0520, 12127.00
805.1930, 12221.00
806.3340, 12222.00
807.4750, 12324.00
808.6160, 12273.00
809.7560, 12273.00
810.8970, 12415.80
812.0370, 12388.26
813.1770, 12717.00
814.3170, 12538.00
815.4570, 12728.00
816.5960, 12970.00
817.7360, 12343.00
818.8750, 12550.00
820.0140, 12477.00
821.1530, 12413.00
822.2920, 12421.00
823.4310, 12455.00
824.5690, 12427.00
825.7070, 12543.00
826.8460, 12477.00
827.9840, 12597.00
829.1220, 12566.00
830.2590, 12610.00
831.3970, 12569.00
832.5340, 12550.00
833.6710, 12628.00
834.8080, 12575.00
835.9450, 12656.00
837.0820, 12752.00
838.2190, 12674.00
839.3550, 12724.00
840.4910, 12771.00
841.6270, 12809.00
842.7630, 12834.31
843.8990, 12816.00
845.0350, 12817.00
846.1700, 12916.00
847.3060, 12799.00
848.4410, 12981.00
849.5760, 12913.00
850.7100, 12836.00
851.8450, 12782.00
852.9800, 13036.00
854.1140, 12947.00
855.2480, 13046.00
856.3820, 13061.00
857.5160, 13142.00
858.6500, 13025.00
859.7830, 13083.00
860.9170, 13144.00
862.0500, 13072.00
863.1830, 13131.00
864.3160, 13084.00
865.4480, 12972.00
866.5810, 13077.00
867.7130, 13267.00
868.8460, 13168.00
869.9780, 13088.00
871.1100, 13283.00
872.2410, 13158.00
873.3730, 13382.00
874.5050, 13357.00
875.6360, 13188.00
876.7670, 13438.00
877.8980, 13347.00
879.0290, 13188.00
880.1590, 13413.00
881.2900, 13377.00
882.4200, 13419.00
883.5500, 13345.00
884.6800, 13551.00
885.8100, 13697.00
886.9400, 13616.00
888.0690, 13653.00
889.1990, 13666.00
890.3280, 13747.00
891.4570, 13779.37
892.5860, 13799.00
893.7140, 13868.00
894.8430, 13884.56
895.9710, 13957.06
897.1000, 13950.00
898.2280, 14104.00
899.3560, 14158.00
900.4830, 14245.00
901.6110, 14377.00
902.7380, 14452.00
903.8660, 14626.25
904.9930, 14831.00
906.1200, 15001.00
907.2460, 15154.00
908.3730, 15399.00
909.5000, 15844.00
910.6260, 16290.00
911.7520, 16690.00
912.8780, 17397.00
914.0040, 18130.00
915.1290, 19084.00
916.2550, 20161.00
917.3800, 21117.00
918.5050, 22467.00
919.6300, 23637.00
920.7550, 24800.00
921.8800, 25658.00
923.0040, 26422.00
924.1290, 26611.00
925.2530, 26337.00
926.3770, 26231.00
927.5010, 25446.00
928.6250, 24750.00
929.7480, 23777.00
930.8720, 22893.00
931.9950, 22228.00
933.1180, 21226.00
934.2410, 20786.00
935.3640, 20368.00
936.4860, 20146.00
937.6090, 19535.70
938.7310, 19107.00
939.8530, 18523.00
940.9750, 18264.00
942.0970, 17990.00
943.2180, 17806.00
944.3400, 17461.00
945.4610, 17287.00
946.5820, 16970.00
947.7030, 16705.00
948.8240, 16696.00
949.9450, 16765.00
951.0650, 16473.00
952.1860, 16289.00
953.3060, 16159.00
954.4260, 15938.00
955.5460, 16020.00
956.6650, 16041.00
957.7850, 16103.00
958.9040, 16010.00
960.0230, 15877.00
961.1420, 15908.26
962.2610, 15858.64
963.3800, 15880.00
964.4990, 15970.00
965.6170, 15988.00
966.7350, 16247.00
967.8530, 16347.00
968.9710, 16177.00
970.0890, 16440.00
971.2070, 16605.00
972.3240, 16921.00
973.4410, 16896.00
974.5580, 17202.00
975.6750, 17373.23
976.7920, 17847.00
977.9090, 17908.00
979.0250, 18587.00
980.1410, 19162.00
981.2580, 20038.00
982.3740, 20854.00
983.4890, 21887.00
984.6050, 23078.00
985.7200, 24611.00
986.8360, 26488.00
987.9510, 28511.00
989.0660, 30502.00
990.1810, 32981.00
991.2950, 35290.00
992.4100, 37791.00
993.5240, 40441.00
994.6390, 43313.00
995.7530, 45652.00
996.8660, 48304.00
997.9800, 50433.00
999.0940, 51836.00
1000.207, 53142.00
1001.320, 52507.00
1002.433, 51099.00
1003.546, 48821.00
1004.659, 45326.00
1005.772, 41207.00
1006.884, 37046.00
1007.996, 33491.00
1009.108, 30144.00
1010.220, 27405.00
1011.332, 25209.00
1012.444, 23278.00
1013.555, 22214.00
1014.666, 21211.00
1015.777, 20505.00
1016.888, 19964.00
1017.999, 19746.00
1019.110, 19492.00
1020.220, 19416.00
1021.331, 19344.00
1022.441, 19444.00
1023.551, 19493.00
1024.661, 19121.00
1025.770, 19043.00
1026.880, 18719.00
1027.989, 18374.00
1029.098, 18181.00
1030.207, 17833.00
1031.316, 17658.00
1032.425, 17380.00
1033.533, 17193.00
1034.642, 17074.00
1035.750, 17119.00
1036.858, 17009.00
1037.966, 16959.00
1039.073, 16800.00
1040.181, 16927.00
1041.288, 16878.00
1042.396, 16918.00
1043.503, 16850.00
1044.610, 17005.00
1045.716, 16959.00
1046.823, 16971.00
1047.929, 17153.00
1049.036, 17185.00
1050.142, 17148.00
1051.248, 17364.00
1052.353, 17607.00
1053.459, 17523.02
1054.564, 17778.00
1055.670, 17411.00
1056.775, 17438.00
1057.880, 17265.00
1058.985, 17480.00
1060.089, 17291.00
1061.194, 17095.00
1062.298, 17237.00
1063.402, 17181.00
1064.506, 17136.04
1065.610, 17191.03
1066.713, 17103.00
1067.817, 17182.00
1068.920, 17229.00
1070.023, 17178.00
1071.126, 17147.00
1072.229, 17329.00
1073.332, 17284.00
1074.435, 17507.00
1075.537, 17322.00
1076.639, 17346.00
1077.741, 17703.00
1078.843, 17466.00
1079.945, 17609.00
1081.046, 17583.00
1082.148, 17655.00
1083.249, 17889.00
1084.350, 17686.00
1085.451, 17942.00
1086.551, 18000.00
1087.652, 17848.00
1088.752, 18102.00
1089.853, 17980.00
1090.953, 17871.00
1092.053, 17952.00
1093.152, 17965.00
1094.252, 17935.62
1095.351, 18004.00
1096.451, 17946.00
1097.550, 18041.00
1098.649, 18099.00
1099.748, 18226.00
1100.846, 18311.00
1101.945, 18433.00
1103.043, 18373.00
1104.141, 18639.00
1105.239, 18746.00
1106.337, 19220.00
1107.434, 19559.00
1108.532, 20020.00
1109.629, 20851.00
1110.726, 21743.00
1111.823, 22488.00
1112.920, 23304.00
1114.017, 23933.00
1115.113, 24058.00
1116.210, 24334.00
1117.306, 24305.00
1118.402, 22863.00
1119.498, 21668.00
1120.593, 20595.00
1121.689, 19979.00
1122.784, 19278.00
1123.879, 18903.00
1124.974, 18649.00
1126.069, 18458.00
1127.164, 18246.00
1128.259, 18207.00
1129.353, 18182.00
1130.447, 18235.00
1131.541, 18114.00
1132.635, 18191.00
1133.729, 18306.00
1134.822, 18208.00
1135.916, 18262.00
1137.009, 18165.00
1138.102, 18121.00
1139.195, 18153.00
1140.288, 18133.00
1141.380, 18298.00
1142.473, 18489.00
1143.565, 18333.00
1144.657, 18499.00
1145.749, 18510.00
1146.841, 18534.00
1147.932, 18641.00
1149.024, 18734.26
1150.115, 18934.00
1151.206, 19049.00
1152.297, 19266.00
1153.388, 19517.00
1154.479, 19724.00
1155.569, 20186.00
1156.659, 20299.00
1157.750, 20967.00
1158.839, 21303.00
1159.929, 22052.00
1161.019, 22761.00
1162.108, 23714.00
1163.198, 24825.00
1164.287, 26250.00
1165.376, 28126.00
1166.465, 29945.00
1167.553, 32081.00
1168.642, 34079.00
1169.730, 35840.00
1170.818, 36861.00
1171.906, 36545.00
1172.994, 35677.00
1174.082, 33434.00
1175.170, 30775.00
1176.257, 28372.00
1177.344, 26028.00
1178.431, 24553.00
1179.518, 23327.00
1180.605, 22220.00
1181.691, 21459.00
1182.778, 20872.00
1183.864, 20624.00
1184.950, 20172.00
1186.036, 19904.00
1187.122, 19685.00
1188.207, 19451.15
1189.292, 19403.00
1190.378, 19168.00
1191.463, 19163.00
1192.548, 19070.00
1193.632, 19020.00
1194.717, 19129.00
1195.801, 18841.00
1196.886, 18851.00
1197.970, 18991.00
1199.054, 18875.00
1200.137, 18836.00
1201.221, 18853.00
1202.305, 18895.00
1203.388, 18907.00
1204.471, 18785.00
1205.554, 18664.00
1206.637, 18802.00
1207.719, 18817.00
1208.802, 18904.00
1209.884, 18679.00
1210.966, 18662.00
1212.048, 18911.00
1213.130, 18727.00
1214.212, 18867.00
1215.293, 18977.00
1216.374, 18687.00
1217.456, 18714.00
1218.536, 18862.00
1219.617, 18910.00
1220.698, 18917.00
1221.778, 18885.00
1222.859, 19011.00
1223.939, 18866.00
1225.019, 19075.00
1226.099, 18986.00
1227.178, 18956.00
1228.258, 19065.00
1229.337, 18917.00
1230.417, 19064.00
1231.496, 19001.00
1232.574, 19063.00
1233.653, 19153.00
1234.732, 19211.00
1235.810, 19052.00
1236.888, 19044.00
1237.966, 19084.00
1239.044, 19085.00
1240.122, 19054.71
1241.199, 19216.28
1242.277, 19311.35
1243.354, 19343.49
1244.431, 19124.21
1245.508, 19229.57
1246.585, 19204.84
1247.661, 19174.76
1248.738, 19325.82
1249.814, 19143.10
1250.890, 19291.28
1251.966, 19362.00
1253.042, 19380.00
1254.117, 19378.00
1255.193, 19405.00
1256.268, 19372.00
1257.343, 19344.00
1258.418, 19315.00
1259.493, 19226.00
1260.567, 19290.00
1261.642, 19537.00
1262.716, 19592.00
1263.790, 19568.00
1264.864, 19549.00
1265.938, 19671.00
1267.011, 19856.00
1268.085, 19625.00
1269.158, 19672.00
1270.231, 19553.00
1271.304, 19649.00
1272.377, 19681.00
1273.450, 19592.00
1274.522, 19659.00
1275.594, 19661.11
1276.666, 19753.00
1277.738, 19687.00
1278.810, 19879.00
1279.882, 19828.00
1280.953, 19816.00
1282.025, 19898.00
1283.096, 19774.00
1284.167, 19983.00
1285.238, 19999.00
1286.308, 20030.00
1287.379, 20049.00
1288.449, 20006.00
1289.519, 20054.15
1290.589, 20165.00
1291.659, 20120.00
1292.729, 20154.00
1293.798, 20222.00
1294.868, 20194.00
1295.937, 20158.00
1297.006, 20237.00
1298.075, 20270.00
1299.143, 20254.00
1300.212, 20280.00
1301.280, 20306.00
1302.348, 20330.00
1303.416, 20397.00
1304.484, 20460.00
1305.552, 20514.00
1306.620, 20260.00
1307.687, 20480.00
1308.754, 20358.00
1309.821, 20726.00
1310.888, 20631.00
1311.955, 20537.00
1313.021, 20636.00
1314.088, 20660.00
1315.154, 20679.00
1316.220, 20739.00
1317.286, 20723.00
1318.352, 20698.00
1319.417, 20799.00
1320.483, 20767.00
1321.548, 20790.00
1322.613, 20839.00
1323.678, 20746.00
1324.743, 20912.00
1325.807, 20954.00
1326.872, 21116.00
1327.936, 20837.00
1329.000, 20926.00
1330.064, 20869.00
1331.128, 20807.00
1332.191, 20957.00
1333.255, 21044.00
1334.318, 21035.00
1335.381, 21045.00
1336.444, 21109.59
1337.507, 21282.00
1338.569, 21205.00
1339.632, 21190.00
1340.694, 21227.00
1341.756, 21036.00
1342.818, 21166.00
1343.880, 21126.00
1344.941, 21257.00
1346.003, 21422.00
1347.064, 21271.00
1348.125, 21354.00
1349.186, 21470.00
1350.247, 21424.00
1351.308, 21288.00
1352.368, 21360.00
1353.428, 21559.00
1354.489, 21671.00
1355.549, 21393.00
1356.608, 21576.00
1357.668, 21549.00
1358.727, 21384.00
1359.787, 21669.00
1360.846, 21497.00
1361.905, 21445.00
1362.964, 21563.00
1364.022, 21677.00
1365.081, 21583.00
1366.139, 21475.00
1367.197, 21498.00
1368.255, 21645.00
1369.313, 21824.00
1370.371, 21915.00
1371.428, 21630.00
1372.486, 21829.00
1373.543, 21692.00
1374.600, 21689.00
1375.657, 21697.00
1376.713, 21829.00
1377.770, 21753.00
1378.826, 21890.00
1379.882, 21990.00
1380.938, 22035.00
1381.994, 22067.00
1383.050, 22108.00
1384.106, 22076.00
1385.161, 22049.00
1386.216, 22137.00
1387.271, 22101.00
1388.326, 22142.98
1389.381, 22102.00
1390.435, 22262.00
1391.490, 22198.00
1392.544, 22382.00
1393.598, 22182.00
1394.652, 22339.26
1395.705, 22492.15
1396.759, 22578.53
1397.812, 22601.98
1398.866, 22374.01
1399.919, 22470.69
1400.972, 22437.27
1402.024, 22398.52
1403.077, 22540.89
1404.129, 22349.49
1405.181, 22488.99
1406.233, 22496.41
1407.285, 22564.27
1408.337, 22501.23
1409.389, 22478.62
1410.440, 22586.96
1411.491, 22618.00
1412.542, 22701.00
1413.593, 22659.00
1414.644, 22733.00
1415.695, 22891.00
1416.745, 22829.00
1417.795, 22824.00
1418.845, 22730.00
1419.895, 22825.00
1420.945, 22858.00
1421.995, 22848.00
1423.044, 22837.00
1424.093, 23042.00
1425.142, 23058.00
1426.191, 23011.00
1427.240, 22959.00
1428.289, 22998.00
1429.337, 22981.00
1430.385, 23221.00
1431.433, 23135.00
1432.481, 23154.00
1433.529, 23386.00
1434.577, 23097.00
1435.624, 23122.00
1436.672, 23201.00
1437.719, 23318.00
1438.766, 23386.00
1439.812, 23442.71
1440.859, 23474.00
1441.905, 23445.00
1442.952, 23593.00
1443.998, 23421.00
1445.044, 23694.00
1446.090, 23808.00
1447.135, 23921.00
1448.181, 23744.00
1449.226, 23701.00
1450.271, 23763.00
1451.316, 23765.00
1452.361, 23942.00
1453.405, 23776.00
1454.450, 23814.00
1455.494, 23969.00
1456.538, 23934.00
1457.582, 24018.00
1458.626, 23770.00
1459.670, 24011.00
1460.713, 24105.00
1461.757, 24303.00
1462.800, 24060.00
1463.843, 24663.00
1464.886, 24204.00
1465.928, 23948.00
1466.971, 23984.00
1468.013, 24280.00
1469.055, 24086.97
1470.097, 24181.00
1471.139, 24043.00
1472.181, 24065.00
1473.222, 24075.00
1474.263, 24268.00
1475.305, 24456.00
1476.346, 24323.00
1477.386, 24298.00
1478.427, 24532.00
1479.468, 24343.00
1480.508, 24256.00
1481.548, 24304.00
1482.588, 24427.00
1483.628, 24376.00
1484.668, 24489.00
1485.707, 24382.00
1486.747, 24411.00
1487.786, 24389.00
1488.825, 24516.00
1489.864, 24605.00
1490.902, 24434.00
1491.941, 24708.00
1492.979, 24674.00
1494.017, 24612.00
1495.055, 24652.00
1496.093, 24562.00
1497.131, 24649.00
1498.168, 24731.00
1499.206, 24692.00
1500.243, 24866.00
1501.280, 24829.78
1502.317, 24789.00
1503.354, 24860.00
1504.390, 24868.00
1505.426, 24937.00
1506.463, 25037.00
1507.499, 25104.00
1508.535, 25117.00
1509.570, 25050.00
1510.606, 25192.00
1511.641, 25217.00
1512.676, 25076.00
1513.711, 25228.00
1514.746, 25215.00
1515.781, 25280.00
1516.816, 25199.00
1517.850, 25469.00
1518.884, 25423.78
1519.918, 25434.00
1520.952, 25521.00
1521.986, 25453.00
1523.019, 25527.00
1524.053, 25457.00
1525.086, 25466.00
1526.119, 25245.00
1527.152, 25606.00
1528.185, 26112.00
1529.217, 25674.00
1530.250, 25714.00
1531.282, 25983.00
1532.314, 25651.00
1533.346, 25678.00
1534.377, 25780.00
1535.409, 25814.00
1536.440, 25827.56
1537.472, 25881.51
1538.503, 25809.00
1539.534, 25948.00
1540.564, 25901.00
1541.595, 25958.00
1542.625, 26048.00
1543.656, 25932.00
1544.686, 25848.00
1545.716, 26046.00
1546.745, 26049.00
1547.775, 26054.00
1548.804, 26203.61
1549.834, 26170.00
1550.863, 26337.00
1551.892, 26580.00
1552.920, 26499.00
1553.949, 26525.00
1554.977, 26617.00
1556.006, 26128.00
1557.034, 26364.00
1558.062, 26222.00
1559.089, 26277.00
1560.117, 26188.00
1561.144, 26531.00
1562.172, 26336.00
1563.199, 26551.00
1564.226, 26379.00
1565.252, 26490.00
1566.279, 26516.00
1567.305, 26599.00
1568.332, 26413.00
1569.358, 26616.00
1570.384, 26475.00
1571.409, 26597.00
1572.435, 26688.00
##END=



