##NAMES=Scolecite
##RRUFFID=R050083
##IDEAL CHEMISTRY=Ca(Si_3_Al_2_)O_10_&#183;3H_2_O
##LOCALITY=near Ahmednagar, Maharashtra, India
##OWNER=RRUFF
##SOURCE=Rock Currier
##DESCRIPTION=Colorless acicular single crystals associated with fluorapophyllite
##STATUS=The identification of this mineral has been confirmed by X-ray diffraction and chemical analysis
##URL=rruff.info/R050083
##MEASURED CHEMISTRY=(Ca_.992_Na_.008_)[Al_2_Si_3_O_10_]Â·3H_2_O
##PIN_ID=M00476
##ORIENTATION=Laser parallel to a* (1 0 0). Fiducial mark perpendicular to laser is parallel to b [0 1 0]
103.843, 7497.000
105.240, 8209.000
106.637, 8156.000
108.033, 9057.000
109.429, 9156.000
110.825, 10400.000
112.220, 10113.143
113.616, 11340.000
115.011, 9931.000
116.406, 9113.000
117.800, 9346.000
119.195, 8731.000
120.589, 8921.000
121.983, 8812.000
123.377, 8647.000
124.770, 8962.000
126.163, 8558.000
127.556, 9104.000
128.949, 8879.000
130.342, 9223.000
131.734, 9436.000
133.126, 9482.000
134.518, 9914.000
135.909, 9740.000
137.301, 10860.000
138.692, 11270.000
140.083, 12460.000
141.473, 13040.000
142.864, 12960.000
144.254, 12770.000
145.644, 11570.000
147.034, 11240.000
148.423, 10400.000
149.812, 10550.000
151.201, 10830.000
152.590, 11170.000
153.979, 12540.000
155.367, 12690.000
156.755, 13980.000
158.143, 13830.000
159.530, 14020.000
160.918, 13340.000
162.305, 12350.000
163.692, 11980.000
165.078, 10700.000
166.465, 10780.000
167.851, 10190.000
169.237, 10360.000
170.623, 10210.000
172.008, 10090.000
173.393, 10520.000
174.778, 10110.000
176.163, 11010.000
177.548, 10770.000
178.932, 11170.000
180.316, 11620.000
181.700, 11520.000
183.083, 12290.000
184.467, 11880.000
185.850, 12640.000
187.233, 12400.000
188.616, 12390.000
189.998, 12230.000
191.380, 11320.000
192.762, 11550.000
194.144, 10500.000
195.525, 10580.000
196.907, 9993.000
198.288, 9858.000
199.669, 9910.000
201.049, 9382.000
202.429, 9941.000
203.810, 9547.000
205.189, 10230.000
206.569, 9891.000
207.949, 9741.000
209.328, 10100.000
210.707, 9500.000
212.085, 9795.000
213.464, 9179.000
214.842, 9581.000
216.220, 9423.000
217.598, 9398.000
218.976, 9858.000
220.353, 9523.000
221.730, 10190.000
223.107, 9811.000
224.483, 9889.000
225.860, 9762.000
227.236, 9270.000
228.612, 9457.000
229.988, 8731.000
231.363, 9093.000
232.738, 8700.000
234.113, 8798.000
235.488, 8921.000
236.863, 8471.000
238.237, 9014.000
239.611, 8333.000
240.985, 8696.000
242.359, 8366.000
243.732, 8436.000
245.105, 8812.000
246.478, 8283.000
247.851, 9022.000
249.223, 8584.000
250.595, 9100.000
251.967, 9068.000
253.339, 9264.000
254.711, 9676.000
256.082, 9196.000
257.453, 9955.000
258.824, 9414.000
260.195, 9698.000
261.565, 9427.000
262.935, 9101.000
264.305, 9573.000
265.675, 8852.000
267.044, 9453.000
268.414, 9131.000
269.783, 9348.000
271.151, 9312.000
272.520, 9043.000
273.888, 9752.000
275.256, 9088.000
276.624, 9592.000
277.992, 9358.000
279.359, 9514.000
280.726, 10220.000
282.093, 9812.000
283.460, 10700.000
284.827, 10340.000
286.193, 10820.000
287.559, 10760.000
288.925, 10320.000
290.290, 10740.000
291.656, 9916.000
293.021, 10330.000
294.386, 9698.000
295.750, 9624.000
297.115, 9666.000
298.479, 9008.000
299.843, 9594.000
301.207, 8838.000
302.570, 9367.000
303.933, 9191.000
305.296, 8984.000
306.659, 9595.000
308.022, 8969.000
309.384, 9584.000
310.746, 9100.000
312.108, 9318.000
313.470, 9358.000
314.831, 9091.000
316.193, 9574.000
317.554, 9009.000
318.914, 9568.000
320.275, 9077.000
321.635, 9072.000
322.995, 9408.000
324.355, 8842.000
325.715, 9431.000
327.074, 8873.000
328.434, 9210.000
329.792, 9276.000
331.151, 9034.000
332.510, 9627.000
333.868, 9086.000
335.226, 9892.000
336.584, 9561.000
337.941, 9673.000
339.299, 10080.000
340.656, 9566.000
342.013, 10220.000
343.370, 9760.000
344.726, 10170.000
346.082, 10200.000
347.438, 9838.000
348.794, 10310.000
350.150, 9664.000
351.505, 10280.000
352.860, 9829.000
354.215, 10010.000
355.570, 10300.000
356.924, 9576.000
358.278, 10280.000
359.632, 9623.000
360.986, 10120.000
362.339, 9815.000
363.693, 9650.000
365.046, 10170.000
366.399, 9449.000
367.751, 10180.000
369.104, 9536.000
370.456, 9698.000
371.808, 9916.000
373.159, 9317.000
374.511, 10120.000
375.862, 9269.000
377.213, 9816.000
378.564, 9740.000
379.914, 9465.000
381.265, 10070.000
382.615, 9247.000
383.965, 10040.000
385.315, 9620.000
386.664, 9650.000
388.013, 10060.000
389.362, 9472.000
390.711, 10260.000
392.060, 9548.000
393.408, 10070.000
394.756, 10060.000
396.104, 9767.000
397.451, 10560.000
398.799, 9898.000
400.146, 10430.000
401.493, 10180.000
402.840, 10520.000
404.186, 11080.000
405.533, 10520.000
406.879, 11390.000
408.225, 10740.000
409.570, 11070.000
410.916, 11050.000
412.261, 10560.000
413.606, 11120.000
414.951, 10120.000
416.295, 10710.000
417.639, 10360.000
418.983, 10240.000
420.327, 10730.000
421.671, 10170.000
423.014, 10870.000
424.357, 10380.000
425.700, 10750.000
427.043, 11260.000
428.386, 10700.000
429.728, 11900.000
431.070, 11400.000
432.412, 12280.000
433.753, 12500.000
435.095, 12270.000
436.436, 13080.000
437.777, 11900.000
439.118, 12370.000
440.458, 11640.000
441.798, 11290.000
443.138, 11620.000
444.478, 10560.000
445.818, 11330.000
447.157, 10620.000
448.496, 10980.000
449.835, 11200.000
451.174, 10740.000
452.513, 11560.000
453.851, 10870.000
455.189, 11400.000
456.527, 11250.000
457.864, 10920.000
459.202, 11530.000
460.539, 10800.000
461.876, 11440.000
463.212, 10900.000
464.549, 10930.000
465.885, 11110.000
467.221, 10340.000
468.557, 11180.000
469.893, 10510.000
471.228, 10800.000
472.563, 10840.000
473.898, 10320.000
475.233, 11240.000
476.567, 10340.000
477.902, 11060.000
479.236, 10890.000
480.570, 10660.000
481.903, 11590.000
483.237, 10750.000
484.570, 11630.000
485.903, 11520.000
487.235, 11490.000
488.568, 12210.000
489.900, 11590.000
491.232, 12550.000
492.564, 11950.000
493.896, 12230.000
495.227, 12460.000
496.558, 11780.000
497.889, 12510.000
499.220, 11850.000
500.551, 12010.000
501.881, 12110.000
503.211, 11550.000
504.541, 12330.000
505.870, 11530.000
507.200, 12130.000
508.529, 11900.000
509.858, 11730.000
511.187, 12390.000
512.515, 11670.000
513.844, 12740.000
515.172, 12450.000
516.500, 12770.000
517.827, 13450.000
519.155, 13040.000
520.482, 14440.000
521.809, 14430.000
523.136, 15350.000
524.462, 16420.000
525.789, 17230.000
527.115, 19790.000
528.441, 21110.000
529.766, 24240.000
531.092, 28180.000
532.417, 30700.000
533.742, 35750.000
535.067, 36650.000
536.391, 37950.000
537.716, 36230.000
539.040, 32340.000
540.364, 29400.000
541.688, 24770.000
543.011, 22520.000
544.334, 19760.000
545.657, 17820.000
546.980, 17030.000
548.303, 15220.000
549.625, 15150.000
550.947, 14030.000
552.269, 13480.000
553.591, 13610.000
554.913, 12580.000
556.234, 13200.000
557.555, 12310.000
558.876, 12450.000
560.197, 12530.000
561.517, 11640.000
562.837, 12750.000
564.157, 11680.000
565.477, 12030.000
566.797, 12170.000
568.116, 11560.000
569.435, 12360.000
570.754, 11320.000
572.073, 11960.000
573.391, 11810.000
574.709, 11310.000
576.027, 12010.000
577.345, 11010.000
578.663, 11740.000
579.980, 11500.000
581.297, 11210.000
582.614, 11880.000
583.931, 10940.000
585.248, 11830.000
586.564, 11310.000
587.880, 11180.000
589.196, 11850.000
590.511, 10930.000
591.827, 11700.000
593.142, 11140.000
594.457, 11190.000
595.772, 11780.000
597.086, 10710.000
598.401, 11700.000
599.715, 11120.000
601.029, 11210.000
602.343, 11620.000
603.656, 10670.000
604.969, 11620.000
606.282, 11010.000
607.595, 11090.000
608.908, 11430.000
610.220, 10580.000
611.532, 11570.000
612.844, 10790.000
614.156, 11260.000
615.468, 11400.000
616.779, 10700.000
618.090, 11730.000
619.401, 10970.000
620.712, 11440.000
622.022, 11500.000
623.332, 10930.000
624.642, 11920.000
625.952, 11030.000
627.262, 11650.000
628.571, 11460.000
629.880, 11120.000
631.189, 11960.000
632.498, 10980.000
633.807, 11570.000
635.115, 11520.000
636.423, 10940.000
637.731, 12060.000
639.039, 11000.000
640.346, 11620.000
641.653, 11510.000
642.960, 11090.000
644.267, 12180.000
645.574, 11030.000
646.880, 11790.000
648.186, 11790.000
649.492, 11420.000
650.798, 12220.000
652.103, 11310.000
653.409, 11960.000
654.714, 12000.000
656.019, 11490.000
657.323, 12310.000
658.628, 11300.000
659.932, 12100.000
661.236, 11750.000
662.540, 11490.000
663.843, 12180.000
665.147, 11350.000
666.450, 11960.000
667.753, 11820.000
669.056, 11540.000
670.358, 12290.000
671.660, 11300.000
672.963, 12200.000
674.264, 11860.000
675.566, 11630.000
676.868, 12380.000
678.169, 11410.000
679.470, 12350.000
680.771, 12500.000
682.071, 11680.000
683.372, 12420.000
684.672, 11330.000
685.972, 12290.000
687.271, 11950.000
688.571, 11720.000
689.870, 12710.000
691.169, 11640.000
692.468, 12790.000
693.767, 12260.000
695.065, 11910.000
696.364, 12950.000
697.662, 11840.000
698.960, 12570.000
700.257, 12480.000
701.555, 12150.000
702.852, 13130.000
704.149, 12270.000
705.446, 13090.000
706.742, 12800.000
708.038, 12400.000
709.335, 13220.000
710.631, 12140.000
711.926, 12940.000
713.222, 12360.000
714.517, 12030.000
715.812, 12930.000
717.107, 11720.000
718.402, 12780.000
719.696, 12160.000
720.990, 12000.000
722.284, 12620.000
723.578, 11770.000
724.872, 12550.000
726.165, 12120.000
727.458, 11790.000
728.751, 12850.000
730.044, 11540.000
731.336, 12440.000
732.629, 12110.000
733.921, 11790.000
735.213, 12700.000
736.504, 11620.000
737.796, 12430.000
739.087, 12320.000
740.378, 11660.000
741.669, 12770.000
742.960, 11750.000
744.250, 12480.000
745.540, 12630.000
746.830, 11940.000
748.120, 12960.000
749.410, 12070.000
750.699, 12610.000
751.988, 12850.000
753.277, 12080.000
754.566, 13210.000
755.854, 12360.000
757.143, 12830.000
758.431, 13150.000
759.719, 12150.000
761.006, 13290.000
762.294, 12380.000
763.581, 12710.000
764.868, 13070.000
766.155, 12120.000
767.442, 13250.000
768.728, 12240.000
770.014, 12570.000
771.300, 12830.000
772.586, 11790.000
773.872, 12980.000
775.157, 12150.000
776.442, 12150.000
777.727, 12790.000
779.012, 11660.000
780.297, 12700.000
781.581, 12230.000
782.865, 12100.000
784.149, 13030.000
785.433, 11860.000
786.716, 12780.000
787.999, 12390.000
789.282, 12100.000
790.565, 13070.000
791.848, 11930.000
793.130, 12830.000
794.413, 12520.000
795.695, 12170.000
796.977, 13150.000
798.258, 11960.000
799.540, 12740.000
800.821, 12740.000
802.102, 12050.000
803.382, 13150.000
804.663, 12100.000
805.943, 12740.000
807.224, 12740.000
808.504, 12120.000
809.783, 13230.000
811.063, 12190.000
812.342, 12690.000
813.621, 13080.000
814.900, 12040.000
816.179, 13400.000
817.457, 12530.000
818.736, 12730.000
820.014, 13200.000
821.292, 12060.000
822.569, 13260.000
823.847, 12540.000
825.124, 12560.000
826.401, 13270.000
827.678, 12380.000
828.954, 13290.000
830.231, 12860.000
831.507, 12480.000
832.783, 13480.000
834.059, 12340.000
835.334, 13350.000
836.610, 12950.000
837.885, 12590.000
839.160, 13470.000
840.435, 12470.000
841.709, 13210.000
842.983, 13270.000
844.258, 12390.000
845.532, 13720.000
846.805, 12470.000
848.079, 13160.000
849.352, 13260.000
850.625, 12350.000
851.898, 13620.000
853.171, 12730.000
854.443, 13140.000
855.715, 13670.000
856.988, 12490.000
858.259, 13970.000
859.531, 13180.000
860.803, 13080.000
862.074, 13810.000
863.345, 12620.000
864.616, 13600.000
865.886, 13270.000
867.157, 12810.000
868.427, 13970.000
869.697, 12700.000
870.967, 13450.000
872.236, 13480.000
873.506, 12740.000
874.775, 13820.000
876.044, 12950.000
877.313, 13320.000
878.581, 13550.000
879.849, 12780.000
881.118, 13830.000
882.386, 12920.000
883.653, 13150.000
884.921, 14010.000
886.188, 12770.000
887.455, 14060.000
888.722, 13430.000
889.989, 13200.000
891.255, 14310.000
892.522, 13000.000
893.788, 13980.000
895.054, 13740.000
896.319, 13110.000
897.585, 14410.000
898.850, 13110.000
900.115, 13790.000
901.380, 14130.000
902.645, 13010.000
903.909, 14510.000
905.174, 13470.000
906.438, 13680.000
907.701, 14150.000
908.965, 12990.000
910.229, 14040.000
911.492, 13470.000
912.755, 13480.000
914.018, 14550.000
915.280, 13290.000
916.543, 14350.000
917.805, 13930.000
919.067, 13550.000
920.329, 14780.000
921.590, 13540.000
922.852, 14150.000
924.113, 14620.000
925.374, 13520.000
926.635, 15050.000
927.895, 14180.000
929.156, 14610.000
930.416, 15280.000
931.676, 14420.000
932.936, 15910.000
934.195, 15850.000
935.454, 15560.000
936.714, 16970.000
937.973, 15710.000
939.231, 16310.000
940.490, 15930.000
941.748, 14860.000
943.006, 15550.000
944.264, 14310.000
945.522, 14790.000
946.780, 15100.000
948.037, 14070.000
949.294, 15410.000
950.551, 14410.000
951.808, 14490.000
953.064, 15520.000
954.320, 14050.000
955.577, 15060.000
956.832, 14480.000
958.088, 13950.000
959.344, 15300.000
960.599, 13750.000
961.854, 14780.000
963.109, 14790.000
964.364, 13900.000
965.618, 15240.000
966.872, 14290.000
968.127, 14470.000
969.380, 14990.000
970.634, 14060.000
971.888, 15140.000
973.141, 14490.000
974.394, 14290.000
975.647, 15290.000
976.900, 13980.000
978.152, 15190.000
979.404, 15120.000
980.656, 14420.000
981.908, 15840.000
983.160, 14750.000
984.411, 15580.000
985.663, 16230.000
986.914, 15040.000
988.165, 16220.000
989.415, 15280.000
990.666, 15000.000
991.916, 15860.000
993.166, 14470.000
994.416, 15190.000
995.665, 15220.000
996.915, 14630.000
998.164, 15940.000
999.413, 15080.000
1000.662, 15870.000
1001.911, 16540.000
1003.159, 15670.000
1004.407, 17020.000
1005.655, 16490.000
1006.903, 16390.000
1008.151, 17870.000
1009.398, 16480.000
1010.646, 17470.000
1011.893, 17060.000
1013.139, 16100.000
1014.386, 17270.000
1015.633, 15880.000
1016.879, 15980.000
1018.125, 16710.000
1019.371, 15220.000
1020.616, 16490.000
1021.862, 15800.000
1023.107, 15420.000
1024.352, 16560.000
1025.597, 15280.000
1026.842, 16010.000
1028.086, 16460.000
1029.330, 15450.000
1030.574, 16960.000
1031.818, 16160.000
1033.062, 16570.000
1034.305, 17120.000
1035.548, 15750.000
1036.791, 17020.000
1038.034, 16490.000
1039.277, 16050.000
1040.519, 17550.000
1041.762, 16360.000
1043.004, 17470.000
1044.246, 18290.000
1045.487, 17370.000
1046.729, 19440.000
1047.970, 18410.000
1049.211, 17880.000
1050.452, 18430.000
1051.692, 16510.000
1052.933, 17270.000
1054.173, 16760.000
1055.413, 15670.000
1056.653, 16900.000
1057.893, 15360.000
1059.132, 15830.000
1060.371, 16210.000
1061.610, 14970.000
1062.849, 16410.000
1064.088, 15720.000
1065.326, 15540.000
1066.565, 16670.000
1067.803, 15230.000
1069.041, 16120.000
1070.278, 16450.000
1071.516, 15240.000
1072.753, 17280.000
1073.990, 16270.000
1075.227, 15720.000
1076.464, 16710.000
1077.700, 15150.000
1078.936, 16270.000
1080.173, 15990.000
1081.408, 15190.000
1082.644, 16660.000
1083.880, 15440.000
1085.115, 16120.000
1086.350, 16540.000
1087.585, 15410.000
1088.820, 17040.000
1090.054, 16090.000
1091.288, 15940.000
1092.522, 17460.000
1093.756, 15850.000
1094.990, 16820.000
1096.224, 17010.000
1097.457, 16070.000
1098.690, 17550.000
1099.923, 16520.000
1101.156, 16510.000
1102.388, 17450.000
1103.621, 16040.000
1104.853, 16980.000
1106.085, 16840.000
1107.316, 15670.000
1108.548, 17050.000
1109.779, 15890.000
1111.010, 15890.000
1112.241, 16500.000
1113.472, 15040.000
1114.703, 16250.000
1115.933, 15890.000
1117.163, 15380.000
1118.393, 16810.000
1119.623, 15320.000
1120.853, 16300.000
1122.082, 16640.000
1123.311, 15420.000
1124.540, 17070.000
1125.769, 16270.000
1126.997, 15880.000
1128.226, 17040.000
1129.454, 15650.000
1130.682, 16370.000
1131.910, 16490.000
1133.138, 15540.000
1134.365, 16910.000
1135.592, 15910.000
1136.819, 15920.000
1138.046, 16970.000
1139.273, 15590.000
1140.499, 16650.000
1141.725, 16540.000
1142.951, 15670.000
1144.177, 17100.000
1145.403, 16150.000
1146.628, 16030.000
1147.854, 17030.000
1149.079, 15660.000
1150.304, 16770.000
1151.528, 16630.000
1152.753, 15760.000
1153.977, 17290.000
1155.201, 16130.000
1156.425, 16260.000
1157.649, 17440.000
1158.872, 15770.000
1160.096, 17120.000
1161.319, 16660.000
1162.542, 15960.000
1163.764, 17280.000
1164.987, 15890.000
1166.209, 16310.000
1167.431, 17170.000
1168.653, 15740.000
1169.875, 17300.000
1171.097, 16600.000
1172.318, 16030.000
1173.539, 17580.000
1174.760, 16020.000
1175.981, 16670.000
1177.202, 17530.000
1178.422, 15830.000
##END=



