##NAMES=Senegalite
##RRUFFID=R050239
##IDEAL CHEMISTRY=Al_2_PO_4_(OH)_3_&#183;H_2_O
##LOCALITY=Kourondicko iron ore (magnetite) deposit, Faleme River Basin, Senegal
##OWNER=RRUFF
##SOURCE=Marcus Origlieri
##DESCRIPTION=Colorless prismatic crystals
##STATUS=The identification of this mineral has been confirmed by X-ray diffraction and chemical analysis
##URL=rruff.info/R050239
##MEASURED CHEMISTRY=Al_2.00_P_1.00_O_4_(OH)_3_Â·H_2_O
##PIN_ID=M00389
##ORIENTATION=Laser parallel to -b* (0 -1 0). Fiducial mark perpendicular to laser is parallel to -c [0 0 -1]
114.4400, 18481.00
115.6710, 18567.00
116.9030, 18813.00
118.1340, 18731.00
119.3650, 18822.00
120.5960, 19052.00
121.8270, 19051.00
123.0580, 19168.00
124.2880, 19339.45
125.5190, 19681.00
126.7490, 19732.00
127.9790, 20024.00
129.2090, 20387.00
130.4390, 20447.00
131.6680, 20647.00
132.8980, 20912.00
134.1270, 21003.00
135.3560, 20863.00
136.5850, 20746.00
137.8140, 20702.00
139.0430, 20739.00
140.2710, 20674.00
141.5000, 20625.00
142.7280, 20582.00
143.9560, 20882.00
145.1840, 20947.00
146.4120, 20850.00
147.6390, 21063.00
148.8670, 20768.00
150.0940, 21097.00
151.3210, 21126.00
152.5490, 21105.00
153.7750, 21056.00
155.0020, 21063.00
156.2290, 21367.00
157.4550, 21359.00
158.6810, 21285.00
159.9080, 21529.00
161.1340, 21355.00
162.3590, 21457.00
163.5850, 21712.00
164.8110, 21889.00
166.0360, 21793.00
167.2610, 21985.00
168.4860, 21580.00
169.7110, 21952.00
170.9360, 21690.00
172.1610, 21889.00
173.3850, 21915.00
174.6100, 21900.00
175.8340, 21945.00
177.0580, 22200.00
178.2820, 22037.00
179.5050, 22261.00
180.7290, 21981.00
181.9520, 22371.00
183.1760, 22509.00
184.3990, 22493.00
185.6220, 22519.00
186.8450, 22664.00
188.0670, 22899.00
189.2900, 22997.00
190.5120, 23118.00
191.7340, 23340.00
192.9560, 23417.00
194.1780, 23407.00
195.4000, 23316.00
196.6220, 23516.00
197.8430, 23597.00
199.0640, 23412.00
200.2860, 23260.00
201.5070, 23514.00
202.7270, 23700.00
203.9480, 23490.00
205.1690, 23472.00
206.3890, 23444.00
207.6090, 23143.00
208.8290, 23223.00
210.0490, 22996.00
211.2690, 23104.00
212.4890, 23328.00
213.7080, 23150.00
214.9280, 23169.00
216.1470, 23273.00
217.3660, 23349.00
218.5850, 23403.00
219.8030, 23384.00
221.0220, 23475.00
222.2400, 23644.00
223.4590, 23816.00
224.6770, 23782.00
225.8950, 24093.00
227.1120, 24045.00
228.3300, 24377.00
229.5480, 24326.00
230.7650, 24693.00
231.9820, 25112.00
233.1990, 25150.00
234.4160, 24988.00
235.6330, 25166.00
236.8490, 24871.00
238.0660, 24600.00
239.2820, 24582.00
240.4980, 24539.00
241.7140, 24475.00
242.9300, 24246.00
244.1460, 24329.00
245.3610, 24227.00
246.5770, 24212.00
247.7920, 24229.00
249.0070, 24167.00
250.2220, 24000.00
251.4370, 24204.00
252.6510, 24275.00
253.8660, 23951.00
255.0800, 24422.00
256.2940, 24357.00
257.5080, 24357.00
258.7220, 24440.00
259.9360, 24536.00
261.1490, 24636.00
262.3630, 24525.00
263.5760, 24626.00
264.7890, 24737.00
266.0020, 24930.00
267.2150, 24668.00
268.4270, 24976.00
269.6400, 25225.00
270.8520, 24994.00
272.0640, 25196.00
273.2760, 25408.00
274.4880, 25594.00
275.7000, 25421.00
276.9120, 25505.00
278.1230, 25311.00
279.3340, 25426.00
280.5450, 25288.00
281.7560, 25275.00
282.9670, 25457.00
284.1780, 25452.00
285.3880, 25791.00
286.5980, 25948.00
287.8090, 25957.00
289.0190, 26223.00
290.2290, 26308.00
291.4380, 26770.00
292.6480, 26885.00
293.8570, 26602.00
295.0670, 26874.00
296.2760, 26559.00
297.4850, 26522.00
298.6930, 26496.00
299.9020, 26580.00
301.1110, 26707.00
302.3190, 26709.00
303.5270, 26607.00
304.7350, 26390.00
305.9430, 26564.00
307.1510, 26371.00
308.3580, 26347.00
309.5660, 26149.00
310.7730, 26247.00
311.9800, 26367.00
313.1870, 26547.00
314.3940, 26649.00
315.6010, 26550.00
316.8070, 26656.00
318.0130, 26738.00
319.2200, 26648.00
320.4260, 26721.00
321.6310, 26921.00
322.8370, 26921.00
324.0430, 26925.00
325.2480, 27216.00
326.4540, 27336.00
327.6590, 27258.00
328.8640, 27289.00
330.0680, 27423.00
331.2730, 27202.00
332.4780, 27338.00
333.6820, 27018.00
334.8860, 26820.00
336.0900, 27161.00
337.2940, 27020.00
338.4980, 26879.00
339.7010, 26702.00
340.9050, 26702.00
342.1080, 26838.00
343.3110, 26616.00
344.5140, 26843.00
345.7170, 26996.00
346.9200, 26885.00
348.1220, 26801.00
349.3240, 27104.00
350.5270, 27133.00
351.7290, 27084.00
352.9310, 27058.00
354.1320, 27025.00
355.3340, 27126.00
356.5350, 27238.00
357.7370, 27356.00
358.9380, 27444.00
360.1390, 27661.00
361.3400, 27590.00
362.5400, 27882.00
363.7410, 27850.00
364.9410, 28198.00
366.1410, 27885.00
367.3410, 28115.00
368.5410, 28096.00
369.7410, 28086.00
370.9400, 28246.00
372.1400, 27954.00
373.3390, 28261.00
374.5380, 28175.00
375.7370, 28172.00
376.9360, 28028.00
378.1350, 28017.00
379.3330, 27957.00
380.5310, 27819.00
381.7300, 27934.00
382.9280, 27774.00
384.1260, 27747.00
385.3230, 27561.00
386.5210, 27935.00
387.7180, 27888.00
388.9160, 27726.00
390.1130, 27864.00
391.3100, 27811.00
392.5060, 27792.00
393.7030, 28011.00
394.9000, 27803.00
396.0960, 27879.00
397.2920, 28082.00
398.4880, 27891.00
399.6840, 28127.00
400.8800, 28080.00
402.0750, 28195.00
403.2710, 28063.00
404.4660, 28190.00
405.6610, 28315.00
406.8560, 28187.00
408.0510, 28191.00
409.2450, 28300.00
410.4400, 28287.00
411.6340, 28544.00
412.8280, 28507.00
414.0220, 28641.00
415.2160, 28604.00
416.4100, 28517.00
417.6030, 28724.00
418.7970, 28711.00
419.9900, 28919.00
421.1830, 28939.00
422.3760, 28876.00
423.5690, 28934.00
424.7610, 29006.00
425.9540, 29209.00
427.1460, 29450.00
428.3380, 29500.00
429.5300, 29722.17
430.7220, 29791.53
431.9140, 30012.00
433.1050, 29905.00
434.2970, 29955.00
435.4880, 29945.00
436.6790, 30108.00
437.8700, 30526.00
439.0610, 30581.00
440.2510, 30721.00
441.4420, 30661.00
442.6320, 30656.00
443.8220, 30533.00
445.0120, 30535.00
446.2020, 30691.00
447.3910, 30637.00
448.5810, 30362.00
449.7700, 30572.00
450.9600, 30267.00
452.1490, 30234.00
453.3370, 30189.00
454.5260, 30383.00
455.7150, 30391.00
456.9030, 30115.00
458.0910, 30479.00
459.2800, 30600.00
460.4670, 30796.00
461.6550, 30471.00
462.8430, 30822.00
464.0300, 30977.00
465.2180, 31117.00
466.4050, 31422.00
467.5920, 31530.00
468.7790, 31755.00
469.9650, 31992.00
471.1520, 32357.00
472.3380, 32712.00
473.5250, 32895.00
474.7110, 33243.00
475.8970, 33254.00
477.0820, 33343.00
478.2680, 33847.00
479.4540, 33587.00
480.6390, 33356.00
481.8240, 32865.00
483.0090, 32375.00
484.1940, 32029.00
485.3780, 31665.29
486.5630, 31450.00
487.7470, 31145.00
488.9320, 30990.00
490.1160, 30887.00
491.3000, 31043.00
492.4830, 30936.00
493.6670, 30877.00
494.8500, 30847.00
496.0340, 30692.00
497.2170, 30728.00
498.4000, 30773.00
499.5820, 30849.00
500.7650, 30758.00
501.9480, 30826.00
503.1300, 30665.00
504.3120, 30686.00
505.4940, 30656.00
506.6760, 30715.00
507.8580, 30628.00
509.0390, 30790.00
510.2210, 30658.00
511.4020, 30909.00
512.5830, 30767.00
513.7640, 30857.00
514.9450, 30894.00
516.1250, 30685.00
517.3060, 30822.00
518.4860, 30499.00
519.6660, 30947.00
520.8460, 30984.00
522.0260, 30841.00
523.2060, 30961.00
524.3850, 31038.00
525.5650, 31266.00
526.7440, 31331.48
527.9230, 31246.00
529.1020, 31470.00
530.2810, 31425.00
531.4590, 31326.00
532.6380, 31170.00
533.8160, 31531.00
534.9940, 31712.00
536.1720, 31728.00
537.3500, 31857.00
538.5270, 31785.00
539.7050, 32011.00
540.8820, 32088.00
542.0590, 31912.00
543.2360, 32045.00
544.4130, 32314.00
545.5900, 32176.00
546.7660, 32178.00
547.9430, 32062.00
549.1190, 32399.00
550.2950, 32529.00
551.4710, 32383.00
552.6470, 32566.27
553.8220, 32467.00
554.9980, 32524.00
556.1730, 32538.00
557.3480, 32345.00
558.5230, 32685.00
559.6980, 32514.00
560.8730, 32683.00
562.0470, 32565.00
563.2220, 32755.00
564.3960, 32445.00
565.5700, 32336.00
566.7440, 32621.00
567.9170, 32592.00
569.0910, 32749.00
570.2640, 32552.00
571.4380, 32609.00
572.6110, 32665.00
573.7840, 32423.00
574.9570, 32599.00
576.1290, 32566.00
577.3020, 32480.00
578.4740, 32773.00
579.6460, 32654.00
580.8180, 32553.00
581.9900, 32667.00
583.1620, 32812.00
584.3330, 32570.00
585.5040, 32800.00
586.6760, 32645.00
587.8470, 32891.00
589.0180, 32754.00
590.1880, 32606.00
591.3590, 32714.00
592.5290, 32969.00
593.7000, 32695.00
594.8700, 32922.00
596.0400, 33066.00
597.2090, 33111.00
598.3790, 33182.00
599.5490, 33200.00
600.7180, 33260.00
601.8870, 33296.00
603.0560, 33326.40
604.2250, 33350.00
605.3940, 33440.00
606.5620, 33556.00
607.7300, 33727.00
608.8990, 33697.00
610.0670, 33787.00
611.2350, 33814.00
612.4020, 33936.00
613.5700, 34119.00
614.7370, 34052.00
615.9050, 34162.00
617.0720, 34413.00
618.2390, 34374.00
619.4060, 34607.00
620.5720, 34528.00
621.7390, 34274.00
622.9050, 34171.00
624.0710, 34519.00
625.2370, 34266.00
626.4030, 34128.00
627.5690, 34381.00
628.7340, 34214.00
629.9000, 34216.00
631.0650, 34156.00
632.2300, 34079.00
633.3950, 34129.00
634.5600, 34165.00
635.7240, 33933.00
636.8890, 33858.00
638.0530, 33943.00
639.2170, 33930.00
640.3810, 34233.00
641.5450, 34117.00
642.7080, 34087.00
643.8720, 33937.00
645.0350, 34070.00
646.1980, 34264.00
647.3610, 34061.00
648.5240, 33919.00
649.6870, 34118.00
650.8490, 33954.00
652.0120, 34165.00
653.1740, 34030.00
654.3360, 34166.00
655.4980, 34192.00
656.6600, 34135.00
657.8210, 34244.88
658.9830, 34203.00
660.1440, 34284.00
661.3050, 34233.00
662.4660, 34100.00
663.6270, 34217.00
664.7870, 34256.00
665.9480, 34476.00
667.1080, 34312.00
668.2680, 34420.00
669.4280, 34381.00
670.5880, 34638.00
671.7480, 34545.00
672.9070, 34668.00
674.0670, 34676.00
675.2260, 34719.00
676.3850, 34714.00
677.5440, 34638.18
678.7030, 34620.00
679.8610, 34523.00
681.0200, 34462.00
682.1780, 34576.00
683.3360, 34554.29
684.4940, 34503.00
685.6520, 34678.00
686.8090, 34636.00
687.9670, 34697.00
689.1240, 34685.00
690.2810, 34901.00
691.4380, 34824.00
692.5950, 34891.00
693.7520, 34818.00
694.9080, 35139.00
696.0650, 35353.00
697.2210, 35270.00
698.3770, 35256.00
699.5330, 35445.00
700.6880, 35324.00
701.8440, 35393.00
702.9990, 35386.00
704.1550, 35600.00
705.3100, 35436.00
706.4650, 35373.00
707.6190, 35763.00
708.7740, 35491.00
709.9290, 35555.00
711.0830, 35505.00
712.2370, 35328.00
713.3910, 35119.00
714.5450, 35455.00
715.6980, 35498.00
716.8520, 35106.00
718.0050, 35352.00
719.1580, 35405.00
720.3110, 35303.00
721.4640, 35388.00
722.6170, 35420.93
723.7700, 35461.00
724.9220, 35517.00
726.0740, 35485.00
727.2260, 35441.00
728.3780, 35385.00
729.5300, 35516.00
730.6810, 35560.00
731.8330, 35673.00
732.9840, 35680.00
734.1350, 35730.00
735.2860, 35697.00
736.4370, 35675.00
737.5880, 35723.00
738.7380, 35860.00
739.8880, 35878.00
741.0390, 35831.00
742.1890, 35666.00
743.3380, 36035.00
744.4880, 35763.00
745.6380, 35916.00
746.7870, 35781.00
747.9360, 36068.00
749.0850, 35856.00
750.2340, 35988.00
751.3830, 35693.00
752.5310, 35980.00
753.6800, 36061.00
754.8280, 35935.00
755.9760, 35992.00
757.1240, 36000.00
758.2720, 35948.00
759.4190, 36114.00
760.5670, 35971.00
761.7140, 36156.00
762.8610, 36315.00
764.0080, 36029.00
765.1550, 36322.00
766.3020, 36195.00
767.4480, 36322.00
768.5950, 36313.00
769.7410, 36371.00
770.8870, 36313.00
772.0330, 36293.00
773.1780, 36413.00
774.3240, 36411.00
775.4690, 36543.00
776.6140, 36558.00
777.7590, 36481.00
778.9040, 36699.00
780.0490, 36582.00
781.1940, 36732.00
782.3380, 36566.00
783.4820, 36643.14
784.6260, 36653.00
785.7700, 36732.00
786.9140, 36661.00
788.0580, 36715.00
789.2010, 36964.00
790.3450, 36811.00
791.4880, 36947.00
792.6310, 36773.00
793.7730, 36878.00
794.9160, 36957.00
796.0590, 37180.00
797.2010, 36930.00
798.3430, 37226.00
799.4850, 36838.00
800.6270, 37118.00
801.7690, 37164.00
802.9100, 37083.00
804.0520, 37148.00
805.1930, 37295.00
806.3340, 37272.00
807.4750, 37597.00
808.6160, 37365.00
809.7560, 37756.00
810.8970, 37355.00
812.0370, 37414.00
813.1770, 37554.00
814.3170, 37754.00
815.4570, 37636.00
816.5960, 37361.00
817.7360, 37747.00
818.8750, 37290.00
820.0140, 37688.00
821.1530, 37672.00
822.2920, 37737.00
823.4310, 37955.00
824.5690, 37988.00
825.7070, 37901.00
826.8460, 37955.00
827.9840, 38003.00
829.1220, 38036.00
830.2590, 38080.00
831.3970, 38073.11
832.5340, 37863.00
833.6710, 38053.00
834.8080, 37979.00
835.9450, 37975.70
837.0820, 38081.00
838.2190, 37978.00
839.3550, 37971.00
840.4910, 38124.00
841.6270, 38050.00
842.7630, 38185.00
843.8990, 38433.00
845.0350, 38258.00
846.1700, 38629.00
847.3060, 38569.00
848.4410, 38365.00
849.5760, 38645.00
850.7100, 38390.00
851.8450, 38523.00
852.9800, 38700.00
854.1140, 38690.00
855.2480, 38821.00
856.3820, 38697.00
857.5160, 38836.00
858.6500, 38747.00
859.7830, 38971.00
860.9170, 39037.00
862.0500, 38985.00
863.1830, 38898.00
864.3160, 39077.00
865.4480, 39047.00
866.5810, 38979.00
867.7130, 39154.00
868.8460, 38752.00
869.9780, 39094.00
871.1100, 39047.00
872.2410, 39196.00
873.3730, 39053.00
874.5050, 39066.00
875.6360, 39089.36
876.7670, 39151.00
877.8980, 39150.00
879.0290, 39185.00
880.1590, 39234.71
881.2900, 39256.00
882.4200, 39316.00
883.5500, 39392.00
884.6800, 39401.00
885.8100, 39678.00
886.9400, 39375.00
888.0690, 39558.00
889.1990, 39767.00
890.3280, 39537.00
891.4570, 39509.00
892.5860, 39815.00
893.7140, 39708.00
894.8430, 39641.00
895.9710, 39681.00
897.1000, 39561.00
898.2280, 39850.00
899.3560, 39844.00
900.4830, 39868.00
901.6110, 40015.00
902.7380, 39926.00
903.8660, 39976.55
904.9930, 40006.00
906.1200, 40022.00
907.2460, 39976.00
908.3730, 40127.00
909.5000, 40012.00
910.6260, 39977.00
911.7520, 40259.00
912.8780, 39862.00
914.0040, 40211.00
915.1290, 40259.00
916.2550, 40208.00
917.3800, 40276.00
918.5050, 40496.00
919.6300, 40198.00
920.7550, 40486.00
921.8800, 40342.00
923.0040, 40455.00
924.1290, 40408.00
925.2530, 40525.00
926.3770, 40537.00
927.5010, 40499.00
928.6250, 40362.00
929.7480, 40697.00
930.8720, 40488.00
931.9950, 40716.00
933.1180, 40519.00
934.2410, 40453.00
935.3640, 40773.00
936.4860, 40512.00
937.6090, 40730.00
938.7310, 40934.00
939.8530, 40596.00
940.9750, 40868.00
942.0970, 41027.00
943.2180, 40625.00
944.3400, 40813.00
945.4610, 41202.00
946.5820, 41138.00
947.7030, 41112.00
948.8240, 41358.00
949.9450, 41213.00
951.0650, 41185.00
952.1860, 41088.00
953.3060, 41194.00
954.4260, 41306.00
955.5460, 41276.65
956.6650, 41496.00
957.7850, 41357.00
958.9040, 41334.00
960.0230, 41442.00
961.1420, 41588.00
962.2610, 41470.00
963.3800, 41359.00
964.4990, 41552.00
965.6170, 41489.00
966.7350, 41473.00
967.8530, 41884.00
968.9710, 41506.00
970.0890, 41503.00
971.2070, 42067.00
972.3240, 41895.00
973.4410, 42030.00
974.5580, 41867.00
975.6750, 42049.00
976.7920, 41957.00
977.9090, 42135.00
979.0250, 42100.00
980.1410, 42295.00
981.2580, 42150.00
982.3740, 42380.00
983.4890, 42252.00
984.6050, 42354.00
985.7200, 42172.00
986.8360, 42360.00
987.9510, 42248.00
989.0660, 42351.00
990.1810, 42425.00
991.2950, 42452.48
992.4100, 42575.00
993.5240, 42644.00
994.6390, 42805.00
995.7530, 42980.00
996.8660, 42952.00
997.9800, 43017.00
999.0940, 42863.00
1000.207, 43018.12
1001.320, 42932.00
1002.433, 43199.00
1003.546, 43282.00
1004.659, 43258.00
1005.772, 43080.00
1006.884, 43644.00
1007.996, 43268.00
1009.108, 43597.00
1010.220, 43770.00
1011.332, 44110.00
1012.444, 44238.00
1013.555, 44408.90
1014.666, 44343.00
1015.777, 44580.00
1016.888, 44894.00
1017.999, 44819.00
1019.110, 44942.00
1020.220, 45210.00
1021.331, 45632.00
1022.441, 45946.00
1023.551, 46078.00
1024.661, 46400.00
1025.770, 46327.00
1026.880, 46819.00
1027.989, 46859.00
1029.098, 47115.00
1030.207, 47080.00
1031.316, 46837.00
1032.425, 46619.00
1033.533, 46517.00
1034.642, 46469.00
1035.750, 46000.00
1036.858, 45761.00
1037.966, 45205.00
1039.073, 45330.00
1040.181, 45441.00
1041.288, 45182.00
1042.396, 45279.00
1043.503, 44671.00
1044.610, 44864.00
1045.716, 44550.00
1046.823, 44857.00
1047.929, 44670.00
1049.036, 44775.00
1050.142, 44566.00
1051.248, 44856.00
1052.353, 44856.00
1053.459, 45079.00
1054.564, 45023.09
1055.670, 44681.00
1056.775, 44871.00
1057.880, 44847.00
1058.985, 44780.00
1060.089, 45261.00
1061.194, 45344.00
1062.298, 45488.00
1063.402, 45511.00
1064.506, 45622.00
1065.610, 45696.00
1066.713, 45677.00
1067.817, 45821.00
1068.920, 45732.00
1070.023, 45371.00
1071.126, 45620.00
1072.229, 45402.00
1073.332, 45387.00
1074.435, 45508.00
1075.537, 45404.00
1076.639, 45588.00
1077.741, 45483.00
1078.843, 45501.00
1079.945, 45826.00
1081.046, 45469.00
1082.148, 45629.00
1083.249, 45547.00
1084.350, 45407.00
1085.451, 45709.00
1086.551, 45574.00
1087.652, 45404.00
1088.752, 45771.00
1089.853, 45422.00
1090.953, 45572.00
1092.053, 45504.00
1093.152, 45612.00
1094.252, 45544.00
1095.351, 45497.00
1096.451, 45619.00
1097.550, 45506.00
1098.649, 45386.00
1099.748, 45746.00
1100.846, 45758.00
1101.945, 45792.00
1103.043, 45641.00
1104.141, 45656.00
1105.239, 45816.00
1106.337, 45920.00
1107.434, 45929.00
1108.532, 45993.57
1109.629, 45985.00
1110.726, 45932.00
1111.823, 45871.00
1112.920, 45678.00
1114.017, 45809.00
1115.113, 46192.00
1116.210, 45953.00
1117.306, 46149.00
1118.402, 46460.00
1119.498, 46330.00
1120.593, 46428.00
1121.689, 46328.00
1122.784, 46804.00
1123.879, 46447.00
1124.974, 46581.00
1126.069, 46471.00
1127.164, 46437.00
1128.259, 46766.00
1129.353, 46705.00
1130.447, 46674.00
1131.541, 46658.00
1132.635, 46736.00
1133.729, 46858.00
1134.822, 46719.00
1135.916, 46699.00
1137.009, 46888.00
1138.102, 46925.00
1139.195, 46920.00
1140.288, 47065.34
1141.380, 47267.00
1142.473, 47193.00
1143.565, 47245.00
1144.657, 47181.00
1145.749, 47247.00
1146.841, 47573.00
1147.932, 47543.00
1149.024, 47760.00
1150.115, 47795.10
1151.206, 47587.00
1152.297, 47791.00
1153.388, 47804.00
1154.479, 47724.00
1155.569, 47769.00
1156.659, 48061.00
1157.750, 47775.00
1158.839, 47687.00
1159.929, 48110.00
1161.019, 47670.00
1162.108, 47815.00
1163.198, 47658.00
1164.287, 47807.00
1165.376, 47703.00
1166.465, 47768.00
1167.553, 47784.00
1168.642, 48149.00
1169.730, 47770.00
1170.818, 47996.00
1171.906, 47617.00
1172.994, 47927.00
1174.082, 48464.00
1175.170, 48084.00
1176.257, 47908.00
1177.344, 48211.00
1178.431, 48259.00
1179.518, 48162.00
1180.605, 48228.00
1181.691, 48238.00
1182.778, 48103.00
1183.864, 48477.00
1184.950, 48167.00
1186.036, 48416.00
1187.122, 48292.00
1188.207, 48387.00
1189.292, 48623.00
1190.378, 48323.00
1191.463, 48410.00
1192.548, 48473.00
1193.632, 48854.00
1194.717, 48534.00
1195.801, 48790.00
1196.886, 48822.00
1197.970, 48589.00
1199.054, 48688.00
1200.137, 48556.00
1201.221, 48990.00
1202.305, 49148.00
1203.388, 48928.00
1204.471, 49116.00
1205.554, 48917.00
1206.637, 49264.00
1207.719, 49235.00
1208.802, 49093.00
1209.884, 49339.00
1210.966, 49194.00
1212.048, 49178.00
1213.130, 49298.00
1214.212, 49503.00
1215.293, 49369.00
1216.374, 49171.00
1217.456, 49450.00
1218.536, 49491.00
1219.617, 49691.00
1220.698, 49561.00
1221.778, 49666.00
1222.859, 49689.00
1223.939, 49424.00
1225.019, 49745.00
1226.099, 49852.00
1227.178, 49814.00
1228.258, 49475.00
1229.337, 49772.00
1230.417, 49810.00
1231.496, 49955.00
1232.574, 49938.00
1233.653, 49889.00
1234.732, 50004.00
1235.810, 50054.00
1236.888, 50037.00
1237.966, 50003.00
1239.044, 49999.00
1240.122, 49930.00
1241.199, 50150.00
1242.277, 50279.00
1243.354, 50227.00
1244.431, 50355.00
1245.508, 50364.00
1246.585, 50298.00
1247.661, 50724.00
1248.738, 50224.00
1249.814, 50596.00
1250.890, 50335.00
1251.966, 50903.00
1253.042, 50828.00
1254.117, 50581.00
1255.193, 50373.00
1256.268, 50460.24
1257.343, 50873.00
1258.418, 50698.00
1259.493, 50846.00
1260.567, 51108.00
1261.642, 50995.00
1262.716, 50939.00
1263.790, 51296.00
1264.864, 51111.00
1265.938, 50846.00
1267.011, 51089.00
1268.085, 51121.00
1269.158, 51247.00
1270.231, 50996.00
1271.304, 50916.00
1272.377, 51151.00
1273.450, 51279.00
1274.522, 51334.00
1275.594, 51482.29
1276.666, 51671.00
1277.738, 51535.00
1278.810, 51748.00
1279.882, 51520.00
1280.953, 51727.00
1282.025, 51437.00
1283.096, 51787.00
1284.167, 51826.00
1285.238, 51506.00
1286.308, 51625.00
1287.379, 51547.00
1288.449, 51531.00
1289.519, 51918.00
1290.589, 52228.00
1291.659, 51989.00
1292.729, 51843.00
1293.798, 52325.00
1294.868, 51984.00
1295.937, 52320.00
1297.006, 51956.00
1298.075, 52071.00
1299.143, 52429.00
1300.212, 52269.00
1301.280, 52214.00
1302.348, 52517.00
1303.416, 52384.00
1304.484, 52514.00
1305.552, 52417.00
1306.620, 52274.00
1307.687, 52525.00
1308.754, 52325.00
1309.821, 52676.00
1310.888, 52516.00
1311.955, 52505.00
1313.021, 52837.00
1314.088, 52655.00
1315.154, 52804.00
1316.220, 52972.00
1317.286, 52440.00
1318.352, 52936.00
1319.417, 53138.00
1320.483, 52888.00
1321.548, 52973.00
1322.613, 53241.00
1323.678, 53000.00
1324.743, 52893.00
1325.807, 53228.00
1326.872, 53144.00
1327.936, 53287.00
1329.000, 53086.00
1330.064, 53158.00
1331.128, 53487.00
1332.191, 53264.00
1333.255, 53500.00
1334.318, 53426.00
1335.381, 53527.00
1336.444, 53470.00
1337.507, 53321.00
1338.569, 53312.00
1339.632, 53817.00
1340.694, 53790.00
1341.756, 53748.00
1342.818, 53493.00
1343.880, 53833.00
1344.941, 53501.00
1346.003, 53938.00
1347.064, 53871.00
1348.125, 53882.00
1349.186, 54131.00
1350.247, 54143.00
1351.308, 53967.00
1352.368, 54295.00
1353.428, 54129.00
1354.489, 54060.00
1355.549, 53905.00
1356.608, 54068.00
1357.668, 54035.89
1358.727, 54101.10
1359.787, 54176.00
1360.846, 54312.00
1361.905, 54377.00
1362.964, 54561.00
1364.022, 54405.00
1365.081, 54534.00
1366.139, 54390.00
1367.197, 54460.00
1368.255, 54509.00
1369.313, 54490.00
1370.371, 54540.00
1371.428, 54564.00
1372.486, 54763.00
1373.543, 54582.00
1374.600, 54898.00
1375.657, 54748.00
1376.713, 54668.00
1377.770, 54864.00
1378.826, 54888.00
1379.882, 54847.00
1380.938, 54967.00
1381.994, 54970.00
1383.050, 54920.00
1384.106, 54838.00
1385.161, 54912.00
1386.216, 55263.00
1387.271, 55028.00
1388.326, 55203.00
1389.381, 55210.00
1390.435, 55162.00
1391.490, 55003.00
1392.544, 55223.00
1393.598, 55181.00
1394.652, 55082.00
1395.705, 55180.00
1396.759, 55086.32
1397.812, 55502.00
1398.866, 55081.00
1399.919, 55287.00
1400.972, 55461.00
1402.024, 55230.00
1403.077, 55597.00
1404.129, 55445.00
1405.181, 55521.00
1406.233, 55659.00
1407.285, 55622.00
1408.337, 55698.00
1409.389, 55481.00
1410.440, 55762.00
1411.491, 55721.14
1412.542, 56056.00
1413.593, 55816.00
1414.644, 55849.00
1415.695, 55805.00
1416.745, 56204.00
1417.795, 55813.00
1418.845, 55603.00
1419.895, 56092.00
1420.945, 55816.00
1421.995, 56243.00
1423.044, 56217.00
1424.093, 56045.00
1425.142, 55945.00
1426.191, 56634.00
1427.240, 56138.00
1428.289, 56568.00
1429.337, 56345.00
1430.385, 56643.00
1431.433, 56551.00
1432.481, 56344.00
1433.529, 56501.00
1434.577, 56604.00
1435.624, 56721.00
1436.672, 56678.21
1437.719, 56706.00
1438.766, 56546.00
1439.812, 56758.00
1440.859, 56750.00
1441.905, 56537.00
1442.952, 56985.00
1443.998, 56815.00
1445.044, 56875.00
1446.090, 56855.00
1447.135, 56972.00
1448.181, 57156.00
1449.226, 56742.00
1450.271, 56977.00
1451.316, 57356.00
1452.361, 57055.00
1453.405, 57192.00
1454.450, 56988.00
1455.494, 56898.00
1456.538, 57160.00
1457.582, 57404.00
1458.626, 57341.00
1459.670, 57337.00
1460.713, 57119.00
1461.757, 57448.00
1462.800, 57483.00
1463.843, 57517.00
1464.886, 57359.00
1465.928, 57619.00
1466.971, 57734.00
1468.013, 57573.00
1469.055, 57566.00
1470.097, 57443.00
1471.139, 57499.00
1472.181, 57651.00
1473.222, 57917.00
1474.263, 57655.00
1475.305, 57839.00
1476.346, 57707.00
1477.386, 58079.00
1478.427, 57825.00
1479.468, 58075.00
1480.508, 57714.00
1481.548, 57728.00
1482.588, 57846.00
1483.628, 58035.00
1484.668, 57962.00
1485.707, 57897.00
1486.747, 58096.00
1487.786, 58441.00
1488.825, 58300.00
1489.864, 58633.00
1490.902, 58441.00
1491.941, 58156.00
1492.979, 58098.00
1494.017, 58160.00
1495.055, 58294.00
1496.093, 58217.48
1497.131, 57893.00
1498.168, 58198.00
1499.206, 58315.00
1500.243, 58393.00
1501.280, 58654.00
1502.317, 58531.00
1503.354, 58502.00
1504.390, 58729.00
1505.426, 58553.00
1506.463, 58650.00
1507.499, 58772.00
1508.535, 58725.08
1509.570, 58756.00
1510.606, 58881.00
1511.641, 58788.00
1512.676, 59038.50
1513.711, 59015.00
1514.746, 59065.00
1515.781, 59103.00
1516.816, 58991.00
1517.850, 59332.00
1518.884, 58857.00
1519.918, 58759.00
1520.952, 59070.00
1521.986, 59561.00
1523.019, 59331.00
1524.053, 59242.00
1525.086, 59338.00
1526.119, 59428.00
1527.152, 59383.00
1528.185, 59233.00
1529.217, 59399.00
1530.250, 59333.00
1531.282, 59512.00
1532.314, 59365.00
1533.346, 59450.00
1534.377, 59396.00
1535.409, 59732.00
1536.440, 59532.00
1537.472, 59903.00
1538.503, 59689.00
1539.534, 59527.00
1540.564, 59409.00
1541.595, 59762.00
1542.625, 59912.00
1543.656, 59831.00
1544.686, 59993.00
1545.716, 60036.00
1546.745, 60018.00
1547.775, 60032.00
1548.804, 59999.00
1549.834, 60100.00
1550.863, 60024.00
1551.892, 60155.00
1552.920, 60094.00
1553.949, 59990.00
1554.977, 60243.00
1556.006, 60304.00
1557.034, 60658.00
1558.062, 60370.00
1559.089, 60284.00
1560.117, 60421.00
1561.144, 60255.00
1562.172, 60291.00
1563.199, 60423.00
1564.226, 60271.00
1565.252, 60160.00
1566.279, 60453.00
1567.305, 60592.00
1568.332, 60430.00
1569.358, 60457.00
1570.384, 60766.00
1571.409, 61160.00
##END=



