##NAMES=Serandite
##RRUFFID=R050261
##IDEAL CHEMISTRY=NaMn^2+^_2_Si_3_O_8_(OH)
##LOCALITY=Mont Saint-Hilaire, Rouville County, Quebec, Canada
##OWNER=RRUFF
##SOURCE=Marcus Origlieri
##DESCRIPTION=Orange tabular single crystal associated with aegirine and microcline
##STATUS=The identification of this mineral has been confirmed by X-ray diffraction and chemical analysis
##URL=rruff.info/R050261
##MEASURED CHEMISTRY=Na_0.96_(Mn_0.92_Ca_0.06_Fe_0.01_)_2_Si_3.03_O_8_(OH)
##PIN_ID=L01850
##ORIENTATION=Laser parallel to -b* (0 -1 0). Fiducial mark perpendicular to laser is parallel to c [0 0 1]
93.48000, 5667.000
94.71400, 5988.396
95.94800, 6219.000
97.18200, 6648.000
98.41600, 6990.000
99.64900, 7447.000
100.8830, 7785.000
102.1160, 8172.000
103.3490, 8762.000
104.5820, 9126.000
105.8150, 9384.000
107.0470, 9438.000
108.2800, 9509.000
109.5120, 9466.078
110.7440, 9796.000
111.9760, 9236.000
113.2080, 8978.000
114.4400, 8859.000
115.6710, 9058.000
116.9030, 8877.000
118.1340, 8566.000
119.3650, 8153.000
120.5960, 7747.000
121.8270, 7741.000
123.0580, 7637.000
124.2880, 7653.000
125.5190, 7637.000
126.7490, 7831.000
127.9790, 8129.000
129.2090, 8454.000
130.4390, 8909.000
131.6680, 9275.000
132.8980, 9391.000
134.1270, 9389.000
135.3560, 9311.000
136.5850, 9220.000
137.8140, 8964.000
139.0430, 8729.000
140.2710, 8421.000
141.5000, 7926.000
142.7280, 7605.000
143.9560, 7343.000
145.1840, 7154.000
146.4120, 6909.000
147.6390, 7010.000
148.8670, 6926.000
150.0940, 7155.000
151.3210, 7328.000
152.5490, 7491.000
153.7750, 7738.000
155.0020, 7960.000
156.2290, 8072.000
157.4550, 8185.000
158.6810, 8195.000
159.9080, 8216.000
161.1340, 8192.000
162.3590, 8104.401
163.5850, 8032.150
164.8110, 7844.000
166.0360, 7803.000
167.2610, 7611.000
168.4860, 7500.000
169.7110, 7417.000
170.9360, 7384.000
172.1610, 7158.000
173.3850, 7006.000
174.6100, 7000.000
175.8340, 6974.000
177.0580, 7018.000
178.2820, 6930.000
179.5050, 7012.000
180.7290, 6948.000
181.9520, 6903.000
183.1760, 7087.000
184.3990, 7230.000
185.6220, 7288.000
186.8450, 7586.000
188.0670, 7631.000
189.2900, 7803.000
190.5120, 8203.000
191.7340, 8273.000
192.9560, 8650.000
194.1780, 8796.000
195.4000, 8956.000
196.6220, 8980.000
197.8430, 9049.000
199.0640, 8951.000
200.2860, 9121.000
201.5070, 9022.000
202.7270, 9029.000
203.9480, 9059.000
205.1690, 8724.000
206.3890, 8566.000
207.6090, 8431.000
208.8290, 8401.000
210.0490, 8527.000
211.2690, 8551.000
212.4890, 8756.000
213.7080, 8851.000
214.9280, 8819.000
216.1470, 9123.000
217.3660, 9165.000
218.5850, 9177.000
219.8030, 9321.000
221.0220, 9343.000
222.2400, 9216.000
223.4590, 9187.000
224.6770, 9100.000
225.8950, 8964.000
227.1120, 8792.000
228.3300, 8526.000
229.5480, 8461.000
230.7650, 8226.000
231.9820, 8147.000
233.1990, 7985.000
234.4160, 7881.000
235.6330, 7754.000
236.8490, 7653.000
238.0660, 7619.000
239.2820, 7605.000
240.4980, 7678.000
241.7140, 7687.215
242.9300, 7714.000
244.1460, 7806.000
245.3610, 7854.000
246.5770, 7949.000
247.7920, 8153.000
249.0070, 8185.000
250.2220, 8372.000
251.4370, 8595.000
252.6510, 8741.000
253.8660, 8906.944
255.0800, 9132.000
256.2940, 9188.000
257.5080, 9292.000
258.7220, 9422.000
259.9360, 9798.000
261.1490, 9950.000
262.3630, 9830.000
263.5760, 9857.000
264.7890, 9707.000
266.0020, 9832.000
267.2150, 9952.000
268.4270, 9802.000
269.6400, 9979.000
270.8520, 9751.000
272.0640, 9885.000
273.2760, 9917.000
274.4880, 9823.000
275.7000, 9977.000
276.9120, 10049.12
278.1230, 10175.00
279.3340, 10335.00
280.5450, 10478.00
281.7560, 10621.00
282.9670, 10885.00
284.1780, 10866.00
285.3880, 11025.00
286.5980, 10971.00
287.8090, 10765.00
289.0190, 10891.00
290.2290, 10732.00
291.4380, 10460.00
292.6480, 10362.00
293.8570, 10298.00
295.0670, 10147.00
296.2760, 9962.000
297.4850, 9734.000
298.6930, 9452.000
299.9020, 9344.000
301.1110, 9056.000
302.3190, 9027.000
303.5270, 8748.000
304.7350, 8554.000
305.9430, 8465.000
307.1510, 8333.000
308.3580, 8104.000
309.5660, 8052.000
310.7730, 7966.000
311.9800, 7812.000
313.1870, 7761.000
314.3940, 7764.000
315.6010, 7746.000
316.8070, 7862.000
318.0130, 7752.000
319.2200, 7901.000
320.4260, 7932.000
321.6310, 8112.000
322.8370, 8288.000
324.0430, 8313.000
325.2480, 8384.000
326.4540, 8465.000
327.6590, 8582.000
328.8640, 8585.000
330.0680, 8693.000
331.2730, 8642.000
332.4780, 8612.000
333.6820, 8580.000
334.8860, 8589.000
336.0900, 8561.000
337.2940, 8491.000
338.4980, 8480.000
339.7010, 8353.000
340.9050, 8228.000
342.1080, 8248.000
343.3110, 8174.000
344.5140, 8263.000
345.7170, 8361.000
346.9200, 8423.000
348.1220, 8494.000
349.3240, 8518.000
350.5270, 8575.000
351.7290, 8765.000
352.9310, 8945.000
354.1320, 8960.000
355.3340, 9299.000
356.5350, 9484.000
357.7370, 9572.000
358.9380, 9796.000
360.1390, 9971.000
361.3400, 10082.00
362.5400, 10209.00
363.7410, 10158.00
364.9410, 10145.00
366.1410, 10001.48
367.3410, 9705.000
368.5410, 9537.000
369.7410, 9256.000
370.9400, 8881.000
372.1400, 8632.000
373.3390, 8374.000
374.5380, 8169.000
375.7370, 7956.000
376.9360, 7869.000
378.1350, 7806.000
379.3330, 7790.000
380.5310, 7737.000
381.7300, 7714.000
382.9280, 7618.000
384.1260, 7565.000
385.3230, 7558.100
386.5210, 7544.000
387.7180, 7577.000
388.9160, 7594.000
390.1130, 7663.000
391.3100, 7671.000
392.5060, 7603.000
393.7030, 7611.000
394.9000, 7772.000
396.0960, 7745.000
397.2920, 7869.000
398.4880, 7889.000
399.6840, 7989.155
400.8800, 8138.897
402.0750, 8253.000
403.2710, 8467.000
404.4660, 8706.000
405.6610, 8889.000
406.8560, 9183.000
408.0510, 9434.000
409.2450, 9677.000
410.4400, 9892.000
411.6340, 10072.00
412.8280, 10386.00
414.0220, 10327.00
415.2160, 10498.00
416.4100, 10510.00
417.6030, 10416.00
418.7970, 10434.00
419.9900, 10138.00
421.1830, 10033.00
422.3760, 9708.000
423.5690, 9451.000
424.7610, 9249.000
425.9540, 8961.000
427.1460, 8927.000
428.3380, 8668.000
429.5300, 8481.000
430.7220, 8283.000
431.9140, 8278.000
433.1050, 8236.000
434.2970, 8129.000
435.4880, 8131.000
436.6790, 8040.000
437.8700, 8097.000
439.0610, 8057.000
440.2510, 7972.000
441.4420, 7956.000
442.6320, 8000.000
443.8220, 7904.000
445.0120, 7853.000
446.2020, 7915.000
447.3910, 7893.000
448.5810, 7888.000
449.7700, 8027.000
450.9600, 8066.000
452.1490, 8003.000
453.3370, 8089.000
454.5260, 8099.000
455.7150, 8110.000
456.9030, 8097.000
458.0910, 8168.000
459.2800, 8297.000
460.4670, 8202.000
461.6550, 8337.000
462.8430, 8306.000
464.0300, 8218.000
465.2180, 8161.000
466.4050, 8165.000
467.5920, 8116.269
468.7790, 8093.017
469.9650, 8075.000
471.1520, 8057.000
472.3380, 8011.000
473.5250, 8025.000
474.7110, 7971.000
475.8970, 7968.000
477.0820, 8043.000
478.2680, 8181.000
479.4540, 8083.000
480.6390, 8230.000
481.8240, 8130.000
483.0090, 8030.000
484.1940, 8202.000
485.3780, 8245.000
486.5630, 8209.000
487.7470, 8503.000
488.9320, 8322.000
490.1160, 8433.000
491.3000, 8478.000
492.4830, 8434.000
493.6670, 8514.000
494.8500, 8395.000
496.0340, 8318.000
497.2170, 8422.000
498.4000, 8492.000
499.5820, 8413.000
500.7650, 8509.000
501.9480, 8535.000
503.1300, 8569.000
504.3120, 8603.000
505.4940, 8552.000
506.6760, 8744.000
507.8580, 8812.000
509.0390, 8803.000
510.2210, 8816.000
511.4020, 8686.000
512.5830, 8662.000
513.7640, 8620.000
514.9450, 8624.000
516.1250, 8634.000
517.3060, 8626.000
518.4860, 8590.000
519.6660, 8637.000
520.8460, 8528.000
522.0260, 8600.000
523.2060, 8660.000
524.3850, 8618.000
525.5650, 8519.000
526.7440, 8466.000
527.9230, 8413.000
529.1020, 8456.000
530.2810, 8386.000
531.4590, 8334.000
532.6380, 8287.000
533.8160, 8204.000
534.9940, 8198.472
536.1720, 8155.000
537.3500, 8129.000
538.5270, 8193.000
539.7050, 8067.000
540.8820, 8212.000
542.0590, 8074.000
543.2360, 8120.000
544.4130, 8101.000
545.5900, 7997.000
546.7660, 8181.000
547.9430, 8070.000
549.1190, 8236.000
550.2950, 8149.000
551.4710, 8183.000
552.6470, 8092.000
553.8220, 8160.000
554.9980, 8103.000
556.1730, 8114.000
557.3480, 8074.000
558.5230, 8147.000
559.6980, 8071.000
560.8730, 8006.000
562.0470, 8089.000
563.2220, 8272.000
564.3960, 8179.000
565.5700, 8128.000
566.7440, 8258.000
567.9170, 8206.000
569.0910, 8055.000
570.2640, 8192.000
571.4380, 8206.000
572.6110, 8308.000
573.7840, 8313.000
574.9570, 8345.000
576.1290, 8285.000
577.3020, 8346.000
578.4740, 8284.000
579.6460, 8342.000
580.8180, 8331.000
581.9900, 8260.000
583.1620, 8373.000
584.3330, 8417.000
585.5040, 8419.000
586.6760, 8384.000
587.8470, 8426.000
589.0180, 8412.952
590.1880, 8461.000
591.3590, 8413.000
592.5290, 8444.000
593.7000, 8421.000
594.8700, 8519.000
596.0400, 8535.000
597.2090, 8524.000
598.3790, 8553.000
599.5490, 8538.000
600.7180, 8582.000
601.8870, 8607.000
603.0560, 8696.000
604.2250, 8720.084
605.3940, 8879.000
606.5620, 8773.000
607.7300, 8793.000
608.8990, 8754.000
610.0670, 8896.000
611.2350, 8719.000
612.4020, 8931.000
613.5700, 8932.000
614.7370, 9013.000
615.9050, 8970.000
617.0720, 9004.000
618.2390, 9097.000
619.4060, 9075.000
620.5720, 9192.000
621.7390, 9064.000
622.9050, 9173.000
624.0710, 9251.000
625.2370, 9373.000
626.4030, 9397.000
627.5690, 9473.000
628.7340, 9522.000
629.9000, 9683.000
631.0650, 9771.000
632.2300, 9886.424
633.3950, 10041.00
634.5600, 10120.00
635.7240, 10286.00
636.8890, 10393.00
638.0530, 10568.00
639.2170, 10746.82
640.3810, 10911.00
641.5450, 11173.00
642.7080, 11445.00
643.8720, 11749.00
645.0350, 12246.00
646.1980, 12675.00
647.3610, 12956.00
648.5240, 13643.00
649.6870, 14368.00
650.8490, 15175.00
652.0120, 16294.00
653.1740, 17666.00
654.3360, 19168.00
655.4980, 21572.00
656.6600, 24390.00
657.8210, 27788.00
658.9830, 32474.00
660.1440, 37142.00
661.3050, 42637.00
662.4660, 47275.00
663.6270, 51244.00
664.7870, 54041.00
665.9480, 55244.00
667.1080, 54670.00
668.2680, 51657.00
669.4280, 47920.00
670.5880, 42909.00
671.7480, 37433.00
672.9070, 32367.00
674.0670, 27938.00
675.2260, 24194.00
676.3850, 21404.00
677.5440, 19125.00
678.7030, 17485.00
679.8610, 16246.00
681.0200, 15263.00
682.1780, 14375.00
683.3360, 13825.00
684.4940, 13331.00
685.6520, 12954.00
686.8090, 12611.00
687.9670, 12360.00
689.1240, 12188.00
690.2810, 12179.00
691.4380, 12189.00
692.5950, 12290.00
693.7520, 12279.00
694.9080, 12726.00
696.0650, 12842.00
697.2210, 13169.00
698.3770, 13287.00
699.5330, 13738.00
700.6880, 13885.00
701.8440, 13879.00
702.9990, 13798.00
704.1550, 13511.00
705.3100, 13158.00
706.4650, 12797.00
707.6190, 12389.00
708.7740, 12163.00
709.9290, 11794.00
711.0830, 11432.00
712.2370, 11245.00
713.3910, 11063.00
714.5450, 11134.00
715.6980, 11008.00
716.8520, 11145.00
718.0050, 11039.00
719.1580, 10904.00
720.3110, 10882.00
721.4640, 10641.00
722.6170, 10783.00
723.7700, 10395.00
724.9220, 10334.00
726.0740, 10089.00
727.2260, 10061.00
728.3780, 9914.000
729.5300, 9926.000
730.6810, 9825.000
731.8330, 9735.000
732.9840, 9665.000
734.1350, 9656.000
735.2860, 9717.000
736.4370, 9754.000
737.5880, 9712.000
738.7380, 9706.077
739.8880, 9729.000
741.0390, 9612.000
742.1890, 9592.000
743.3380, 9554.000
744.4880, 9526.433
745.6380, 9637.000
746.7870, 9572.000
747.9360, 9527.000
749.0850, 9656.000
750.2340, 9565.000
751.3830, 9605.000
752.5310, 9606.000
753.6800, 9607.000
754.8280, 9612.136
755.9760, 9506.000
757.1240, 9598.000
758.2720, 9566.000
759.4190, 9558.000
760.5670, 9689.000
761.7140, 9695.000
762.8610, 9673.000
764.0080, 9692.000
765.1550, 9718.000
766.3020, 9715.703
767.4480, 9656.000
768.5950, 9705.000
769.7410, 9687.000
770.8870, 9608.000
772.0330, 9615.000
773.1780, 9608.533
774.3240, 9630.000
775.4690, 9669.000
776.6140, 9673.000
777.7590, 9771.000
778.9040, 9740.000
780.0490, 9830.000
781.1940, 9764.000
782.3380, 9826.000
783.4820, 9835.976
784.6260, 9757.000
785.7700, 9865.000
786.9140, 9895.000
788.0580, 9908.850
789.2010, 9945.531
790.3450, 9888.000
791.4880, 9945.000
792.6310, 9941.000
793.7730, 9915.000
794.9160, 9992.000
796.0590, 9968.000
797.2010, 9908.000
798.3430, 9888.000
799.4850, 10015.00
800.6270, 9974.000
801.7690, 9924.000
802.9100, 10088.00
804.0520, 10087.00
805.1930, 10028.00
806.3340, 10098.00
807.4750, 10025.00
808.6160, 10008.00
809.7560, 10028.00
810.8970, 10076.00
812.0370, 10044.00
813.1770, 10165.00
814.3170, 10182.00
815.4570, 10286.00
816.5960, 10168.00
817.7360, 10152.00
818.8750, 10241.00
820.0140, 10250.00
821.1530, 10305.00
822.2920, 10287.00
823.4310, 10297.00
824.5690, 10266.00
825.7070, 10485.00
826.8460, 10418.00
827.9840, 10392.00
829.1220, 10430.00
830.2590, 10331.00
831.3970, 10367.00
832.5340, 10384.00
833.6710, 10347.27
834.8080, 10487.00
835.9450, 10400.00
837.0820, 10411.00
838.2190, 10586.00
839.3550, 10692.00
840.4910, 10497.00
841.6270, 10646.00
842.7630, 10536.00
843.8990, 10668.00
845.0350, 10611.00
846.1700, 10671.00
847.3060, 10633.00
848.4410, 10653.00
849.5760, 10746.00
850.7100, 10862.00
851.8450, 10886.39
852.9800, 10779.00
854.1140, 10949.00
855.2480, 10827.00
856.3820, 10770.00
857.5160, 10808.00
858.6500, 10843.00
859.7830, 10921.00
860.9170, 10983.00
862.0500, 10997.73
863.1830, 11031.00
864.3160, 11013.00
865.4480, 11058.00
866.5810, 11036.00
867.7130, 10907.00
868.8460, 11152.00
869.9780, 11013.00
871.1100, 11099.00
872.2410, 10980.00
873.3730, 11042.00
874.5050, 11192.00
875.6360, 11154.00
876.7670, 11308.00
877.8980, 11264.00
879.0290, 11261.00
880.1590, 11264.00
881.2900, 11439.00
882.4200, 11396.00
883.5500, 11608.00
884.6800, 11534.00
885.8100, 11767.00
886.9400, 12035.00
888.0690, 12306.00
889.1990, 12630.00
890.3280, 12973.00
891.4570, 13428.00
892.5860, 13885.00
893.7140, 14348.00
894.8430, 14794.00
895.9710, 15303.00
897.1000, 15255.00
898.2280, 15347.00
899.3560, 15341.00
900.4830, 14913.00
901.6110, 14661.00
902.7380, 14266.00
903.8660, 13912.00
904.9930, 13525.00
906.1200, 13285.00
907.2460, 12972.00
908.3730, 12904.00
909.5000, 12805.00
910.6260, 12699.00
911.7520, 12644.00
912.8780, 12560.00
914.0040, 12447.00
915.1290, 12421.00
916.2550, 12319.00
917.3800, 12465.00
918.5050, 12531.00
919.6300, 12439.00
920.7550, 12254.00
921.8800, 12450.00
923.0040, 12447.00
924.1290, 12321.00
925.2530, 12377.00
926.3770, 12396.00
927.5010, 12305.00
928.6250, 12344.00
929.7480, 12378.00
930.8720, 12336.00
931.9950, 12343.00
933.1180, 12207.00
934.2410, 12377.00
935.3640, 12322.00
936.4860, 12233.00
937.6090, 12431.00
938.7310, 12271.00
939.8530, 12404.00
940.9750, 12618.00
942.0970, 12738.00
943.2180, 12658.00
944.3400, 12534.00
945.4610, 12686.00
946.5820, 12777.00
947.7030, 12934.00
948.8240, 13043.00
949.9450, 13158.00
951.0650, 13351.00
952.1860, 13496.00
953.3060, 13811.00
954.4260, 14026.18
955.5460, 14433.00
956.6650, 14597.00
957.7850, 14925.00
958.9040, 15277.00
960.0230, 15677.00
961.1420, 15958.00
962.2610, 16307.00
963.3800, 16905.00
964.4990, 17136.00
965.6170, 18010.00
966.7350, 18277.00
967.8530, 18836.00
968.9710, 19221.00
970.0890, 19734.00
971.2070, 20082.00
972.3240, 20288.00
973.4410, 20722.00
974.5580, 20722.00
975.6750, 20869.00
976.7920, 20705.00
977.9090, 20674.00
979.0250, 20379.00
980.1410, 20004.00
981.2580, 19560.00
982.3740, 19014.00
983.4890, 18658.00
984.6050, 18119.00
985.7200, 17848.00
986.8360, 17635.00
987.9510, 17287.00
989.0660, 17287.00
990.1810, 17033.00
991.2950, 17127.00
992.4100, 17188.00
993.5240, 17263.00
994.6390, 17522.00
995.7530, 17622.00
996.8660, 17807.00
997.9800, 17839.00
999.0940, 18008.00
1000.207, 18147.00
1001.320, 18084.00
1002.433, 18049.00
1003.546, 18172.00
1004.659, 18327.00
1005.772, 18691.00
1006.884, 19228.00
1007.996, 19688.00
1009.108, 20753.00
1010.220, 21936.00
1011.332, 23201.00
1012.444, 25162.00
1013.555, 27082.00
1014.666, 29064.00
1015.777, 31225.00
1016.888, 32870.00
1017.999, 33780.00
1019.110, 34322.00
1020.220, 34005.00
1021.331, 33022.00
1022.441, 31156.00
1023.551, 29390.00
1024.661, 27135.00
1025.770, 25159.00
1026.880, 23367.00
1027.989, 21735.61
1029.098, 20525.00
1030.207, 19173.00
1031.316, 18146.00
1032.425, 17521.00
1033.533, 16873.00
1034.642, 16337.00
1035.750, 16020.00
1036.858, 15561.00
1037.966, 15391.00
1039.073, 14964.00
1040.181, 14818.00
1041.288, 14683.00
1042.396, 14342.00
1043.503, 14275.00
1044.610, 14150.00
1045.716, 14049.00
1046.823, 13997.00
1047.929, 13856.00
1049.036, 13650.00
1050.142, 13853.00
1051.248, 13559.00
1052.353, 13559.00
1053.459, 13378.00
1054.564, 13523.00
1055.670, 13497.00
1056.775, 13333.00
1057.880, 13491.00
1058.985, 13308.00
1060.089, 13418.00
1061.194, 13242.00
1062.298, 13365.00
1063.402, 13174.00
1064.506, 13152.00
1065.610, 13073.00
1066.713, 13209.00
1067.817, 13143.00
1068.920, 13184.00
1070.023, 13210.00
1071.126, 13133.00
1072.229, 13062.00
1073.332, 13060.43
1074.435, 13001.55
1075.537, 13002.00
1076.639, 12978.00
1077.741, 12978.40
1078.843, 12990.00
1079.945, 13012.00
1081.046, 13046.00
1082.148, 13089.00
1083.249, 12947.00
1084.350, 12826.00
1085.451, 12947.00
1086.551, 12935.00
1087.652, 12913.00
1088.752, 12908.00
1089.853, 12799.00
1090.953, 12785.00
1092.053, 12883.00
1093.152, 12779.00
1094.252, 12740.00
1095.351, 12738.00
1096.451, 12572.00
1097.550, 12767.00
1098.649, 12706.00
1099.748, 12726.00
1100.846, 12645.00
1101.945, 12844.00
1103.043, 12699.00
1104.141, 12744.00
1105.239, 12540.00
1106.337, 12607.00
1107.434, 12743.00
1108.532, 12556.00
1109.629, 12551.00
1110.726, 12716.00
1111.823, 12620.00
1112.920, 12635.00
1114.017, 12643.00
1115.113, 12754.00
1116.210, 12727.00
1117.306, 12758.00
1118.402, 12777.00
1119.498, 12919.00
1120.593, 12866.00
1121.689, 12975.00
1122.784, 13020.00
1123.879, 13001.00
1124.974, 12954.00
1126.069, 12941.00
1127.164, 12970.00
1128.259, 12803.00
1129.353, 12769.00
1130.447, 12896.00
1131.541, 12698.00
1132.635, 12539.00
1133.729, 12565.00
1134.822, 12692.00
1135.916, 12608.00
1137.009, 12659.00
1138.102, 12576.00
1139.195, 12477.00
1140.288, 12708.00
1141.380, 12681.00
1142.473, 12551.00
1143.565, 12616.00
1144.657, 12736.00
1145.749, 12572.00
1146.841, 12589.00
1147.932, 12706.00
1149.024, 12580.00
1150.115, 12678.00
1151.206, 12640.00
1152.297, 12827.00
1153.388, 12780.00
1154.479, 12763.00
1155.569, 12816.00
1156.659, 12818.00
1157.750, 12705.00
1158.839, 12903.00
1159.929, 12838.00
1161.019, 12878.00
1162.108, 12708.00
1163.198, 12689.00
1164.287, 12642.00
1165.376, 12740.00
1166.465, 12781.00
1167.553, 12833.00
1168.642, 12849.00
1169.730, 12940.00
1170.818, 12968.00
1171.906, 12911.00
1172.994, 12747.00
1174.082, 12795.00
1175.170, 12876.00
1176.257, 12803.00
1177.344, 12889.00
1178.431, 12781.00
1179.518, 12861.00
1180.605, 12706.00
1181.691, 12941.00
1182.778, 12885.00
1183.864, 12919.00
1184.950, 12864.00
1186.036, 12875.93
1187.122, 12916.00
1188.207, 12934.00
1189.292, 12836.00
1190.378, 12954.00
1191.463, 12920.00
1192.548, 13050.00
1193.632, 13039.00
1194.717, 12977.00
1195.801, 13099.00
1196.886, 12902.00
1197.970, 13020.00
1199.054, 13186.00
1200.137, 12940.00
1201.221, 13048.00
1202.305, 13091.00
1203.388, 12980.00
1204.471, 13176.00
1205.554, 13284.00
1206.637, 13269.00
1207.719, 13093.00
1208.802, 13288.00
1209.884, 13076.00
1210.966, 13357.00
1212.048, 13196.00
1213.130, 13272.00
1214.212, 13164.00
1215.293, 13250.00
1216.374, 13326.00
1217.456, 13232.00
1218.536, 13306.00
1219.617, 13186.00
1220.698, 13370.00
1221.778, 13525.00
1222.859, 13308.00
1223.939, 13310.00
1225.019, 13333.00
1226.099, 13301.00
1227.178, 13421.00
1228.258, 13370.00
1229.337, 13406.00
1230.417, 13277.00
1231.496, 13385.00
1232.574, 13509.00
1233.653, 13397.00
1234.732, 13581.00
1235.810, 13536.00
1236.888, 13436.00
1237.966, 13437.00
1239.044, 13330.00
1240.122, 13453.00
1241.199, 13587.00
1242.277, 13359.00
1243.354, 13434.00
1244.431, 13598.00
1245.508, 13564.00
1246.585, 13540.00
1247.661, 13724.00
1248.738, 13686.00
1249.814, 13651.00
1250.890, 13568.00
1251.966, 13677.00
1253.042, 13717.00
1254.117, 13685.00
1255.193, 13634.00
1256.268, 13624.00
1257.343, 13659.00
1258.418, 13594.00
1259.493, 13710.00
1260.567, 13672.00
1261.642, 13888.00
1262.716, 13738.00
1263.790, 13831.00
1264.864, 13790.00
1265.938, 13795.00
1267.011, 13912.00
1268.085, 13821.00
1269.158, 13912.00
1270.231, 13772.00
1271.304, 13805.00
1272.377, 13893.00
1273.450, 13809.00
1274.522, 13821.00
1275.594, 13795.00
1276.666, 13814.42
1277.738, 13849.00
1278.810, 13879.00
1279.882, 13911.00
1280.953, 13917.00
1282.025, 13937.00
1283.096, 13890.00
1284.167, 14013.00
1285.238, 13882.00
1286.308, 13994.00
1287.379, 14110.00
1288.449, 14065.00
1289.519, 14170.00
1290.589, 14002.00
1291.659, 14093.00
1292.729, 14111.00
1293.798, 14138.00
1294.868, 14081.00
1295.937, 14133.00
1297.006, 14386.00
1298.075, 14102.00
1299.143, 14285.00
1300.212, 14170.00
1301.280, 14326.00
1302.348, 14306.00
1303.416, 14325.00
1304.484, 14285.00
1305.552, 14297.66
1306.620, 14332.00
1307.687, 14303.00
1308.754, 14293.00
1309.821, 14293.00
1310.888, 14502.00
1311.955, 14401.00
1313.021, 14496.00
1314.088, 14594.00
1315.154, 14370.00
1316.220, 14420.00
1317.286, 14280.00
1318.352, 14494.00
1319.417, 14418.00
1320.483, 14590.00
1321.548, 14670.00
1322.613, 14448.00
1323.678, 14575.00
1324.743, 14681.00
1325.807, 14509.00
1326.872, 14582.00
1327.936, 14624.00
1329.000, 14705.00
1330.064, 14712.00
1331.128, 14821.00
1332.191, 14681.00
1333.255, 14707.00
1334.318, 14619.00
1335.381, 14708.00
1336.444, 14873.00
1337.507, 14659.00
1338.569, 14966.00
1339.632, 14890.00
1340.694, 14958.00
1341.756, 14808.00
1342.818, 14926.00
1343.880, 15011.00
1344.941, 14999.00
1346.003, 14908.00
1347.064, 15068.00
1348.125, 15057.00
1349.186, 15172.00
1350.247, 15101.00
1351.308, 15283.00
1352.368, 15136.00
1353.428, 15379.00
1354.489, 15301.00
1355.549, 15396.00
1356.608, 15495.00
1357.668, 15499.00
1358.727, 15375.00
1359.787, 15628.00
1360.846, 15477.00
1361.905, 15676.00
1362.964, 15591.00
1364.022, 15582.00
1365.081, 15805.00
1366.139, 15899.00
1367.197, 15857.00
1368.255, 15840.00
1369.313, 16028.00
1370.371, 16008.00
1371.428, 16261.00
1372.486, 16240.00
1373.543, 16206.00
1374.600, 16384.00
1375.657, 16190.00
1376.713, 16304.00
1377.770, 16372.00
1378.826, 16283.00
1379.882, 16349.42
1380.938, 16305.00
1381.994, 16316.00
1383.050, 16183.00
1384.106, 16115.00
1385.161, 16226.00
1386.216, 16072.00
1387.271, 16046.00
1388.326, 16027.00
1389.381, 15884.00
1390.435, 16006.00
1391.490, 15928.00
1392.544, 16022.00
1393.598, 16006.11
1394.652, 15682.00
1395.705, 15884.00
1396.759, 15829.00
1397.812, 15550.00
1398.866, 15567.00
1399.919, 15716.00
1400.972, 15641.00
1402.024, 15625.00
1403.077, 15727.00
1404.129, 15632.00
1405.181, 15598.00
1406.233, 15717.00
1407.285, 15590.00
1408.337, 15602.00
1409.389, 15619.00
1410.440, 15459.00
1411.491, 15614.00
1412.542, 15633.00
1413.593, 15600.00
1414.644, 15612.00
1415.695, 15546.00
1416.745, 15521.00
1417.795, 15557.00
1418.845, 15681.00
1419.895, 15507.00
1420.945, 15821.00
1421.995, 15449.00
1423.044, 15704.00
1424.093, 15737.00
1425.142, 15622.00
1426.191, 15712.00
1427.240, 15677.00
1428.289, 15543.00
1429.337, 15701.00
1430.385, 15610.00
1431.433, 15556.00
1432.481, 15626.00
1433.529, 15611.82
1434.577, 15781.00
1435.624, 15769.00
1436.672, 15712.00
1437.719, 15908.00
1438.766, 15900.00
1439.812, 15870.00
1440.859, 15971.39
1441.905, 15820.00
1442.952, 15984.00
1443.998, 15883.00
1445.044, 15737.00
1446.090, 16066.00
1447.135, 15849.00
1448.181, 15843.00
1449.226, 16054.00
1450.271, 15967.00
1451.316, 15927.00
1452.361, 15954.00
1453.405, 15881.00
1454.450, 15888.00
1455.494, 16111.00
1456.538, 16094.00
1457.582, 16066.00
1458.626, 15912.00
1459.670, 15938.00
1460.713, 15962.00
1461.757, 16092.00
1462.800, 16179.00
1463.843, 16148.00
1464.886, 16227.00
1465.928, 16213.37
1466.971, 16248.00
1468.013, 16180.00
1469.055, 16171.00
1470.097, 16126.00
1471.139, 16246.00
1472.181, 16302.00
1473.222, 16274.00
1474.263, 16297.12
1475.305, 16239.86
1476.346, 16282.00
1477.386, 16197.00
1478.427, 16296.00
1479.468, 16298.97
1480.508, 16346.00
1481.548, 16372.00
1482.588, 16325.00
1483.628, 16340.00
1484.668, 16421.00
1485.707, 16450.00
1486.747, 16540.00
1487.786, 16693.96
1488.825, 16610.27
1489.864, 16684.64
1490.902, 16465.00
1491.941, 16648.00
1492.979, 16549.00
1494.017, 16454.00
1495.055, 16457.00
1496.093, 16435.46
1497.131, 16574.00
1498.168, 16503.00
1499.206, 16495.00
1500.243, 16562.00
1501.280, 16530.00
1502.317, 16684.00
1503.354, 16548.00
1504.390, 16687.00
1505.426, 16674.00
1506.463, 16686.00
1507.499, 16590.00
1508.535, 16625.00
1509.570, 16609.00
1510.606, 16440.00
1511.641, 16503.00
1512.676, 16515.96
1513.711, 16522.19
1514.746, 16650.00
1515.781, 16666.00
1516.816, 16712.00
1517.850, 16843.00
1518.884, 16728.00
1519.918, 16830.00
1520.952, 16765.00
1521.986, 16749.00
1523.019, 16717.00
1524.053, 16864.00
1525.086, 16918.00
1526.119, 16850.00
1527.152, 16709.00
1528.185, 16874.00
1529.217, 17051.00
1530.250, 17242.00
1531.282, 16945.00
1532.314, 16944.00
1533.346, 16884.00
1534.377, 16752.00
1535.409, 16926.00
1536.440, 16873.00
1537.472, 17132.00
1538.503, 16919.00
1539.534, 16880.00
1540.564, 17076.00
1541.595, 16998.00
1542.625, 17131.00
1543.656, 17214.00
1544.686, 17238.00
1545.716, 17220.00
1546.745, 16959.00
1547.775, 17145.00
1548.804, 17097.00
1549.834, 17169.00
1550.863, 17261.00
1551.892, 17364.00
1552.920, 17425.05
1553.949, 17330.00
1554.977, 17489.00
1556.006, 17412.00
1557.034, 17278.00
1558.062, 17347.00
1559.089, 17501.00
1560.117, 17254.00
1561.144, 17490.00
1562.172, 17431.00
1563.199, 17360.00
1564.226, 17350.00
1565.252, 17392.00
1566.279, 17535.00
1567.305, 17508.00
1568.332, 17537.00
1569.358, 17497.00
1570.384, 17597.00
##END=



