##NAMES=Serandite
##RRUFFID=R050261
##IDEAL CHEMISTRY=NaMn^2+^_2_Si_3_O_8_(OH)
##LOCALITY=Mont Saint-Hilaire, Rouville County, Quebec, Canada
##OWNER=RRUFF
##SOURCE=Marcus Origlieri
##DESCRIPTION=Orange tabular single crystal associated with aegirine and microcline
##STATUS=The identification of this mineral has been confirmed by X-ray diffraction and chemical analysis
##URL=rruff.info/R050261
##MEASURED CHEMISTRY=Na_0.96_(Mn_0.92_Ca_0.06_Fe_0.01_)_2_Si_3.03_O_8_(OH)
##PIN_ID=L01850
##ORIENTATION=Laser parallel to -b* (0 -1 0). Fiducial mark perpendicular to laser is parallel to c [0 0 1]
93.48000, 5486.000
94.71400, 5609.000
95.94800, 5726.000
97.18200, 5865.000
98.41600, 5939.000
99.64900, 6223.000
100.8830, 6546.000
102.1160, 6661.000
103.3490, 7018.000
104.5820, 7355.000
105.8150, 7675.000
107.0470, 8103.000
108.2800, 8236.000
109.5120, 8675.000
110.7440, 8837.000
111.9760, 8524.000
113.2080, 8531.000
114.4400, 8849.000
115.6710, 9236.000
116.9030, 9619.000
118.1340, 9467.000
119.3650, 8954.000
120.5960, 8535.000
121.8270, 8077.000
123.0580, 7789.000
124.2880, 7614.000
125.5190, 7486.000
126.7490, 7508.000
127.9790, 7518.000
129.2090, 7736.000
130.4390, 8229.000
131.6680, 8662.000
132.8980, 8883.000
134.1270, 9087.000
135.3560, 9229.000
136.5850, 9315.000
137.8140, 9694.000
139.0430, 9759.000
140.2710, 9361.000
141.5000, 8810.000
142.7280, 8391.000
143.9560, 8044.000
145.1840, 7786.000
146.4120, 7599.000
147.6390, 7467.000
148.8670, 7399.000
150.0940, 7344.000
151.3210, 7561.000
152.5490, 7771.000
153.7750, 7809.000
155.0020, 7893.000
156.2290, 7941.000
157.4550, 8191.000
158.6810, 8533.000
159.9080, 8597.000
161.1340, 8858.000
162.3590, 8971.000
163.5850, 9219.000
164.8110, 9248.000
166.0360, 9266.000
167.2610, 9385.000
168.4860, 9307.000
169.7110, 9402.000
170.9360, 9102.000
172.1610, 8839.000
173.3850, 8551.000
174.6100, 8411.000
175.8340, 8288.000
177.0580, 8209.000
178.2820, 8122.000
179.5050, 8147.000
180.7290, 8119.000
181.9520, 8048.000
183.1760, 8035.000
184.3990, 8210.000
185.6220, 8236.000
186.8450, 8466.000
188.0670, 8646.000
189.2900, 8906.000
190.5120, 9149.000
191.7340, 9328.000
192.9560, 9549.000
194.1780, 9602.000
195.4000, 9483.000
196.6220, 9547.000
197.8430, 9324.000
199.0640, 9364.000
200.2860, 9238.000
201.5070, 9219.000
202.7270, 9238.000
203.9480, 9006.000
205.1690, 8816.000
206.3890, 8550.000
207.6090, 8565.000
208.8290, 8532.000
210.0490, 8358.000
211.2690, 8533.000
212.4890, 8335.000
213.7080, 8460.000
214.9280, 8465.000
216.1470, 8505.000
217.3660, 8481.000
218.5850, 8620.000
219.8030, 8712.000
221.0220, 8791.000
222.2400, 8849.000
223.4590, 8786.000
224.6770, 8746.000
225.8950, 8815.000
227.1120, 8749.000
228.3300, 8754.000
229.5480, 8860.000
230.7650, 8925.000
231.9820, 8764.000
233.1990, 8738.000
234.4160, 8686.000
235.6330, 8613.783
236.8490, 8623.000
238.0660, 8553.000
239.2820, 8614.000
240.4980, 8645.000
241.7140, 8475.000
242.9300, 8540.000
244.1460, 8583.000
245.3610, 8642.000
246.5770, 8784.000
247.7920, 8826.000
249.0070, 8975.000
250.2220, 9102.000
251.4370, 9266.000
252.6510, 9556.000
253.8660, 9748.000
255.0800, 10027.00
256.2940, 10223.00
257.5080, 10564.00
258.7220, 10714.00
259.9360, 10758.00
261.1490, 10900.00
262.3630, 10634.00
263.5760, 10487.00
264.7890, 10406.00
266.0020, 10517.00
267.2150, 10361.00
268.4270, 10427.00
269.6400, 10300.00
270.8520, 10342.00
272.0640, 10226.00
273.2760, 10239.00
274.4880, 10225.59
275.7000, 10142.00
276.9120, 10297.00
278.1230, 10285.00
279.3340, 10496.00
280.5450, 10646.00
281.7560, 10785.00
282.9670, 10896.00
284.1780, 11024.00
285.3880, 11306.00
286.5980, 11407.00
287.8090, 11470.00
289.0190, 11389.00
290.2290, 11505.00
291.4380, 11549.00
292.6480, 11443.00
293.8570, 11509.00
295.0670, 11490.00
296.2760, 11426.00
297.4850, 11349.37
298.6930, 11147.00
299.9020, 11050.00
301.1110, 10882.00
302.3190, 10640.00
303.5270, 10514.00
304.7350, 10314.00
305.9430, 10218.00
307.1510, 9802.000
308.3580, 9842.000
309.5660, 9641.000
310.7730, 9618.000
311.9800, 9542.000
313.1870, 9473.377
314.3940, 9547.000
315.6010, 9462.000
316.8070, 9588.000
318.0130, 9720.000
319.2200, 9841.000
320.4260, 9897.000
321.6310, 9968.000
322.8370, 10147.00
324.0430, 10205.00
325.2480, 10395.00
326.4540, 10653.00
327.6590, 10556.00
328.8640, 10690.00
330.0680, 10475.00
331.2730, 10373.00
332.4780, 10336.00
333.6820, 10318.00
334.8860, 9975.000
336.0900, 9937.000
337.2940, 9752.000
338.4980, 9609.000
339.7010, 9523.000
340.9050, 9484.000
342.1080, 9452.000
343.3110, 9436.375
344.5140, 9439.000
345.7170, 9469.000
346.9200, 9528.000
348.1220, 9594.730
349.3240, 9485.000
350.5270, 9712.000
351.7290, 9702.000
352.9310, 9728.000
354.1320, 9948.000
355.3340, 10044.00
356.5350, 10251.00
357.7370, 10550.00
358.9380, 10650.00
360.1390, 11051.00
361.3400, 11118.00
362.5400, 11464.00
363.7410, 11576.00
364.9410, 11841.00
366.1410, 11635.00
367.3410, 11483.00
368.5410, 11204.00
369.7410, 10989.00
370.9400, 10572.00
372.1400, 10325.00
373.3390, 10068.00
374.5380, 9788.000
375.7370, 9646.000
376.9360, 9486.000
378.1350, 9443.000
379.3330, 9316.000
380.5310, 9329.000
381.7300, 9089.000
382.9280, 9051.000
384.1260, 9077.000
385.3230, 9217.000
386.5210, 9127.000
387.7180, 9319.000
388.9160, 9062.000
390.1130, 9034.000
391.3100, 9033.000
392.5060, 9169.000
393.7030, 9212.000
394.9000, 9194.000
396.0960, 9209.000
397.2920, 9387.000
398.4880, 9351.000
399.6840, 9412.000
400.8800, 9569.000
402.0750, 9560.000
403.2710, 9627.000
404.4660, 9790.000
405.6610, 9922.000
406.8560, 10308.00
408.0510, 10381.00
409.2450, 10573.00
410.4400, 11022.00
411.6340, 11090.00
412.8280, 11363.00
414.0220, 11644.00
415.2160, 11839.00
416.4100, 12211.00
417.6030, 12090.00
418.7970, 12222.00
419.9900, 11972.00
421.1830, 11852.00
422.3760, 11688.00
423.5690, 11376.00
424.7610, 11145.00
425.9540, 10925.00
427.1460, 10768.00
428.3380, 10587.00
429.5300, 10438.00
430.7220, 10190.00
431.9140, 10164.00
433.1050, 9844.000
434.2970, 9865.000
435.4880, 9814.000
436.6790, 9900.000
437.8700, 9713.000
439.0610, 9738.000
440.2510, 9728.000
441.4420, 9605.000
442.6320, 9540.000
443.8220, 9682.000
445.0120, 9518.000
446.2020, 9582.000
447.3910, 9458.000
448.5810, 9609.000
449.7700, 9614.000
450.9600, 9621.000
452.1490, 9829.000
453.3370, 9621.000
454.5260, 9749.000
455.7150, 9735.000
456.9030, 9868.000
458.0910, 9792.000
459.2800, 10011.00
460.4670, 10080.00
461.6550, 10075.00
462.8430, 10190.00
464.0300, 10088.00
465.2180, 10043.00
466.4050, 10117.00
467.5920, 10083.00
468.7790, 10113.00
469.9650, 10195.00
471.1520, 10162.00
472.3380, 10209.00
473.5250, 10273.00
474.7110, 10204.00
475.8970, 10307.00
477.0820, 10384.00
478.2680, 10460.00
479.4540, 10506.00
480.6390, 10601.00
481.8240, 10775.00
483.0090, 10883.00
484.1940, 11073.00
485.3780, 11164.00
486.5630, 11367.00
487.7470, 11520.00
488.9320, 11906.00
490.1160, 12131.00
491.3000, 12387.00
492.4830, 12423.00
493.6670, 12275.00
494.8500, 11980.00
496.0340, 11925.00
497.2170, 11701.00
498.4000, 11430.00
499.5820, 11425.00
500.7650, 11217.00
501.9480, 11161.00
503.1300, 10955.00
504.3120, 10991.00
505.4940, 11018.00
506.6760, 10963.00
507.8580, 11005.00
509.0390, 10871.00
510.2210, 10892.00
511.4020, 10731.00
512.5830, 10798.00
513.7640, 10762.00
514.9450, 10627.00
516.1250, 10644.00
517.3060, 10659.00
518.4860, 10673.00
519.6660, 10875.00
520.8460, 10958.00
522.0260, 11040.00
523.2060, 10907.00
524.3850, 11130.00
525.5650, 11138.00
526.7440, 10933.00
527.9230, 10948.00
529.1020, 10765.00
530.2810, 10777.00
531.4590, 10531.00
532.6380, 10522.00
533.8160, 10543.00
534.9940, 10510.00
536.1720, 10506.00
537.3500, 10446.00
538.5270, 10411.00
539.7050, 10481.00
540.8820, 10439.00
542.0590, 10496.00
543.2360, 10518.00
544.4130, 10493.00
545.5900, 10499.90
546.7660, 10497.00
547.9430, 10450.00
549.1190, 10458.00
550.2950, 10432.00
551.4710, 10549.00
552.6470, 10437.00
553.8220, 10505.00
554.9980, 10412.00
556.1730, 10617.00
557.3480, 10409.00
558.5230, 10532.00
559.6980, 10489.00
560.8730, 10440.00
562.0470, 10551.00
563.2220, 10426.00
564.3960, 10477.00
565.5700, 10507.00
566.7440, 10524.00
567.9170, 10346.00
569.0910, 10508.00
570.2640, 10301.00
571.4380, 10444.00
572.6110, 10554.00
573.7840, 10603.00
574.9570, 10618.78
576.1290, 10642.10
577.3020, 10626.36
578.4740, 10612.00
579.6460, 10573.00
580.8180, 10545.00
581.9900, 10524.00
583.1620, 10615.00
584.3330, 10534.00
585.5040, 10426.00
586.6760, 10602.00
587.8470, 10579.00
589.0180, 10654.00
590.1880, 10612.00
591.3590, 10532.00
592.5290, 10568.00
593.7000, 10555.68
594.8700, 10659.00
596.0400, 10616.00
597.2090, 10669.00
598.3790, 10717.00
599.5490, 10710.59
600.7180, 10712.00
601.8870, 10740.00
603.0560, 10825.00
604.2250, 10839.00
605.3940, 10870.00
606.5620, 10881.00
607.7300, 10963.00
608.8990, 10968.00
610.0670, 10989.12
611.2350, 11057.00
612.4020, 11002.00
613.5700, 10949.00
614.7370, 10941.00
615.9050, 10995.00
617.0720, 11076.00
618.2390, 11188.00
619.4060, 11179.00
620.5720, 11244.35
621.7390, 11326.00
622.9050, 11310.00
624.0710, 11320.00
625.2370, 11385.00
626.4030, 11458.00
627.5690, 11512.10
628.7340, 11678.00
629.9000, 11643.00
631.0650, 11815.00
632.2300, 11852.00
633.3950, 11952.00
634.5600, 12027.00
635.7240, 12112.00
636.8890, 12313.00
638.0530, 12441.00
639.2170, 12441.00
640.3810, 12681.00
641.5450, 12860.00
642.7080, 13101.00
643.8720, 13369.06
645.0350, 13627.00
646.1980, 13918.00
647.3610, 14254.00
648.5240, 14687.33
649.6870, 15192.00
650.8490, 15777.00
652.0120, 16402.00
653.1740, 17241.00
654.3360, 18386.00
655.4980, 19736.00
656.6600, 21615.00
657.8210, 24121.00
658.9830, 26918.00
660.1440, 30457.00
661.3050, 34472.00
662.4660, 39205.00
663.6270, 44519.00
664.7870, 49176.00
665.9480, 52697.00
667.1080, 54431.00
668.2680, 52922.00
669.4280, 49301.00
670.5880, 44730.00
671.7480, 39033.00
672.9070, 34110.00
674.0670, 29548.00
675.2260, 26051.00
676.3850, 23180.00
677.5440, 20875.00
678.7030, 19361.00
679.8610, 18220.00
681.0200, 17369.00
682.1780, 16449.00
683.3360, 15940.00
684.4940, 15535.00
685.6520, 15118.00
686.8090, 14905.00
687.9670, 14703.00
689.1240, 14390.00
690.2810, 14289.00
691.4380, 14334.00
692.5950, 14467.00
693.7520, 14492.00
694.9080, 14560.00
696.0650, 14821.00
697.2210, 15569.00
698.3770, 15745.00
699.5330, 16097.00
700.6880, 16407.00
701.8440, 16725.00
702.9990, 16594.00
704.1550, 16513.00
705.3100, 16144.00
706.4650, 15602.00
707.6190, 14995.00
708.7740, 14733.00
709.9290, 14266.00
711.0830, 13825.00
712.2370, 13719.00
713.3910, 13708.00
714.5450, 13551.00
715.6980, 13505.00
716.8520, 13503.00
718.0050, 13427.00
719.1580, 13521.00
720.3110, 13366.00
721.4640, 13303.00
722.6170, 13148.00
723.7700, 12937.00
724.9220, 12692.00
726.0740, 12723.00
727.2260, 12477.00
728.3780, 12416.00
729.5300, 12367.00
730.6810, 12223.00
731.8330, 12247.00
732.9840, 12064.00
734.1350, 12169.00
735.2860, 12082.00
736.4370, 12086.00
737.5880, 12131.00
738.7380, 12135.00
739.8880, 12193.00
741.0390, 12135.00
742.1890, 12233.00
743.3380, 12121.00
744.4880, 12046.00
745.6380, 12058.00
746.7870, 11967.00
747.9360, 12008.00
749.0850, 12085.00
750.2340, 12054.00
751.3830, 12037.00
752.5310, 12025.00
753.6800, 12008.78
754.8280, 12074.00
755.9760, 12045.00
757.1240, 12038.00
758.2720, 12175.00
759.4190, 12054.00
760.5670, 12134.00
761.7140, 12148.00
762.8610, 12150.00
764.0080, 12042.00
765.1550, 12080.00
766.3020, 12198.00
767.4480, 12052.00
768.5950, 12193.00
769.7410, 12096.00
770.8870, 11999.00
772.0330, 12048.00
773.1780, 12121.00
774.3240, 12154.00
775.4690, 12171.12
776.6140, 12185.00
777.7590, 12196.00
778.9040, 12261.00
780.0490, 12318.00
781.1940, 12348.00
782.3380, 12347.71
783.4820, 12317.00
784.6260, 12328.00
785.7700, 12291.00
786.9140, 12324.00
788.0580, 12381.00
789.2010, 12307.00
790.3450, 12373.00
791.4880, 12345.00
792.6310, 12292.00
793.7730, 12422.00
794.9160, 12386.00
796.0590, 12272.00
797.2010, 12473.00
798.3430, 12553.00
799.4850, 12397.00
800.6270, 12540.00
801.7690, 12524.00
802.9100, 12545.00
804.0520, 12505.00
805.1930, 12528.84
806.3340, 12638.00
807.4750, 12565.00
808.6160, 12642.00
809.7560, 12683.00
810.8970, 12593.00
812.0370, 12739.00
813.1770, 12583.00
814.3170, 12795.00
815.4570, 12689.00
816.5960, 12639.00
817.7360, 12780.00
818.8750, 12670.00
820.0140, 12738.00
821.1530, 12761.00
822.2920, 12744.48
823.4310, 12686.00
824.5690, 12788.00
825.7070, 12902.00
826.8460, 12959.00
827.9840, 12837.00
829.1220, 12977.00
830.2590, 12860.00
831.3970, 12866.00
832.5340, 12830.00
833.6710, 13130.00
834.8080, 12868.00
835.9450, 12928.00
837.0820, 13106.00
838.2190, 13021.00
839.3550, 13168.00
840.4910, 13189.00
841.6270, 13016.00
842.7630, 13127.00
843.8990, 13189.00
845.0350, 13083.00
846.1700, 13125.00
847.3060, 13186.00
848.4410, 13137.00
849.5760, 13189.00
850.7100, 13216.00
851.8450, 13195.00
852.9800, 13220.00
854.1140, 13365.00
855.2480, 13361.00
856.3820, 13273.00
857.5160, 13359.00
858.6500, 13313.00
859.7830, 13290.00
860.9170, 13382.00
862.0500, 13480.00
863.1830, 13419.00
864.3160, 13468.00
865.4480, 13617.00
866.5810, 13408.00
867.7130, 13611.00
868.8460, 13428.00
869.9780, 13597.00
871.1100, 13592.00
872.2410, 13646.00
873.3730, 13628.00
874.5050, 13659.00
875.6360, 13762.00
876.7670, 13735.00
877.8980, 13853.00
879.0290, 13850.00
880.1590, 13819.00
881.2900, 13896.00
882.4200, 13982.00
883.5500, 13885.00
884.6800, 13985.00
885.8100, 14053.00
886.9400, 14271.00
888.0690, 14299.00
889.1990, 14473.00
890.3280, 14597.00
891.4570, 14887.00
892.5860, 14915.00
893.7140, 15427.00
894.8430, 15583.00
895.9710, 15866.00
897.1000, 16054.00
898.2280, 16096.00
899.3560, 16021.00
900.4830, 16045.00
901.6110, 15984.00
902.7380, 15637.00
903.8660, 15514.00
904.9930, 15279.00
906.1200, 15173.00
907.2460, 14865.00
908.3730, 14970.00
909.5000, 14724.00
910.6260, 14956.00
911.7520, 14753.00
912.8780, 14865.00
914.0040, 14813.00
915.1290, 14773.00
916.2550, 14712.00
917.3800, 14699.00
918.5050, 14802.00
919.6300, 14685.00
920.7550, 14858.00
921.8800, 14709.00
923.0040, 14749.00
924.1290, 14737.00
925.2530, 14947.00
926.3770, 14801.00
927.5010, 14853.00
928.6250, 14945.00
929.7480, 14947.00
930.8720, 14994.00
931.9950, 14687.00
933.1180, 15039.00
934.2410, 14960.00
935.3640, 14979.00
936.4860, 15234.00
937.6090, 15021.00
938.7310, 15139.00
939.8530, 15315.00
940.9750, 15301.00
942.0970, 15462.00
943.2180, 15474.00
944.3400, 15586.00
945.4610, 15753.00
946.5820, 15810.00
947.7030, 15863.00
948.8240, 16280.00
949.9450, 16372.00
951.0650, 16649.00
952.1860, 16929.00
953.3060, 17216.00
954.4260, 17564.00
955.5460, 17729.00
956.6650, 18329.00
957.7850, 18787.00
958.9040, 19054.00
960.0230, 19811.00
961.1420, 20375.00
962.2610, 21037.00
963.3800, 21763.00
964.4990, 22220.00
965.6170, 22862.00
966.7350, 23578.00
967.8530, 24266.00
968.9710, 25052.00
970.0890, 25936.00
971.2070, 26230.00
972.3240, 26940.00
973.4410, 27741.00
974.5580, 28173.00
975.6750, 28506.00
976.7920, 28325.00
977.9090, 28703.00
979.0250, 28193.00
980.1410, 27972.00
981.2580, 27023.00
982.3740, 26257.00
983.4890, 25414.00
984.6050, 24559.00
985.7200, 23758.00
986.8360, 23134.00
987.9510, 22620.00
989.0660, 22294.00
990.1810, 21922.00
991.2950, 21798.00
992.4100, 21597.23
993.5240, 21273.00
994.6390, 21467.00
995.7530, 21347.00
996.8660, 21441.21
997.9800, 21322.00
999.0940, 21483.00
1000.207, 21372.00
1001.320, 21250.00
1002.433, 21127.00
1003.546, 20931.00
1004.659, 21237.00
1005.772, 21286.00
1006.884, 21486.00
1007.996, 21912.00
1009.108, 22418.00
1010.220, 23022.00
1011.332, 24113.00
1012.444, 24909.00
1013.555, 26106.00
1014.666, 27718.00
1015.777, 29302.00
1016.888, 30758.00
1017.999, 31573.00
1019.110, 32409.00
1020.220, 32373.00
1021.331, 31952.00
1022.441, 30581.00
1023.551, 29131.00
1024.661, 27524.00
1025.770, 25784.00
1026.880, 24277.00
1027.989, 22827.00
1029.098, 21856.00
1030.207, 20940.00
1031.316, 20294.00
1032.425, 19759.00
1033.533, 19221.00
1034.642, 19032.00
1035.750, 18522.00
1036.858, 18302.00
1037.966, 17905.00
1039.073, 17704.00
1040.181, 17654.00
1041.288, 17635.00
1042.396, 17439.00
1043.503, 17196.00
1044.610, 17139.00
1045.716, 17048.00
1046.823, 17039.00
1047.929, 16951.00
1049.036, 16918.00
1050.142, 16915.00
1051.248, 16861.00
1052.353, 16810.00
1053.459, 16808.00
1054.564, 16734.00
1055.670, 16616.00
1056.775, 16533.00
1057.880, 16677.00
1058.985, 16711.00
1060.089, 16602.00
1061.194, 16748.00
1062.298, 16741.00
1063.402, 16500.00
1064.506, 16583.00
1065.610, 16679.00
1066.713, 16580.00
1067.817, 16532.00
1068.920, 16522.00
1070.023, 16525.00
1071.126, 16275.00
1072.229, 16639.00
1073.332, 16414.00
1074.435, 16561.00
1075.537, 16424.00
1076.639, 16517.00
1077.741, 16400.00
1078.843, 16270.00
1079.945, 16286.00
1081.046, 16356.00
1082.148, 16306.00
1083.249, 16281.00
1084.350, 16312.00
1085.451, 16364.00
1086.551, 16381.00
1087.652, 16313.00
1088.752, 16188.00
1089.853, 16347.00
1090.953, 16171.00
1092.053, 16437.00
1093.152, 16316.00
1094.252, 16221.00
1095.351, 16350.00
1096.451, 16227.00
1097.550, 16131.00
1098.649, 16244.00
1099.748, 16099.00
1100.846, 16331.00
1101.945, 16260.00
1103.043, 16329.00
1104.141, 16229.00
1105.239, 16212.00
1106.337, 16198.00
1107.434, 16274.00
1108.532, 16123.00
1109.629, 16129.00
1110.726, 16192.00
1111.823, 16121.28
1112.920, 16246.00
1114.017, 16189.00
1115.113, 16148.00
1116.210, 16354.00
1117.306, 16195.00
1118.402, 16447.00
1119.498, 16420.00
1120.593, 16715.00
1121.689, 16579.00
1122.784, 16668.00
1123.879, 16890.00
1124.974, 16826.00
1126.069, 16715.00
1127.164, 16696.00
1128.259, 16573.00
1129.353, 16515.00
1130.447, 16450.00
1131.541, 16397.00
1132.635, 16369.33
1133.729, 16255.00
1134.822, 16351.00
1135.916, 16392.00
1137.009, 16438.00
1138.102, 16385.00
1139.195, 16253.00
1140.288, 16496.00
1141.380, 16333.00
1142.473, 16365.00
1143.565, 16365.00
1144.657, 16346.00
1145.749, 16545.00
1146.841, 16508.00
1147.932, 16581.87
1149.024, 16468.00
1150.115, 16588.00
1151.206, 16674.00
1152.297, 16508.00
1153.388, 16415.00
1154.479, 16676.00
1155.569, 16455.00
1156.659, 16564.00
1157.750, 16460.00
1158.839, 16646.00
1159.929, 16719.00
1161.019, 16766.00
1162.108, 16481.00
1163.198, 16768.00
1164.287, 16740.00
1165.376, 16563.00
1166.465, 16694.00
1167.553, 16652.00
1168.642, 16760.00
1169.730, 16760.00
1170.818, 16708.00
1171.906, 16639.00
1172.994, 16772.00
1174.082, 16872.00
1175.170, 16766.00
1176.257, 16799.00
1177.344, 16667.00
1178.431, 16751.00
1179.518, 16825.00
1180.605, 16876.00
1181.691, 16831.00
1182.778, 16817.00
1183.864, 16862.00
1184.950, 16937.00
1186.036, 17019.00
1187.122, 16874.00
1188.207, 16993.00
1189.292, 16909.00
1190.378, 16787.00
1191.463, 17030.00
1192.548, 16972.00
1193.632, 16935.00
1194.717, 16786.00
1195.801, 16975.00
1196.886, 16919.00
1197.970, 17031.00
1199.054, 17118.00
1200.137, 17115.00
1201.221, 17155.86
1202.305, 17137.70
1203.388, 17117.00
1204.471, 17091.00
1205.554, 17100.52
1206.637, 17033.00
1207.719, 17111.00
1208.802, 17103.04
1209.884, 17084.00
1210.966, 17142.00
1212.048, 17145.57
1213.130, 17158.82
1214.212, 17192.00
1215.293, 17178.00
1216.374, 17163.00
1217.456, 17155.00
1218.536, 17251.00
1219.617, 17167.00
1220.698, 17231.00
1221.778, 17286.00
1222.859, 17212.00
1223.939, 17352.00
1225.019, 17411.00
1226.099, 17361.00
1227.178, 17374.00
1228.258, 17360.00
1229.337, 17369.00
1230.417, 17432.00
1231.496, 17364.00
1232.574, 17621.00
1233.653, 17288.00
1234.732, 17416.00
1235.810, 17569.00
1236.888, 17520.00
1237.966, 17430.00
1239.044, 17379.00
1240.122, 17545.00
1241.199, 17568.00
1242.277, 17580.00
1243.354, 17547.00
1244.431, 17689.00
1245.508, 17506.00
1246.585, 17722.00
1247.661, 17525.00
1248.738, 17709.00
1249.814, 17836.00
1250.890, 17745.00
1251.966, 17762.00
1253.042, 17809.44
1254.117, 17602.00
1255.193, 17854.00
1256.268, 17738.00
1257.343, 17705.00
1258.418, 17742.00
1259.493, 17661.00
1260.567, 17718.00
1261.642, 17818.00
1262.716, 17838.00
1263.790, 17885.00
1264.864, 17852.00
1265.938, 17838.00
1267.011, 17743.00
1268.085, 17964.00
1269.158, 17746.00
1270.231, 17949.00
1271.304, 18026.00
1272.377, 17946.00
1273.450, 18023.00
1274.522, 18037.00
1275.594, 18037.00
1276.666, 17918.00
1277.738, 17998.00
1278.810, 18121.00
1279.882, 17966.00
1280.953, 18033.00
1282.025, 18051.00
1283.096, 18004.00
1284.167, 18163.00
1285.238, 18052.00
1286.308, 18250.00
1287.379, 18255.00
1288.449, 18264.00
1289.519, 18109.00
1290.589, 18335.00
1291.659, 18183.00
1292.729, 18353.00
1293.798, 18356.00
1294.868, 18363.00
1295.937, 18309.00
1297.006, 18350.00
1298.075, 18371.00
1299.143, 18209.00
1300.212, 18475.00
1301.280, 18562.00
1302.348, 18365.00
1303.416, 18335.00
1304.484, 18435.00
1305.552, 18356.00
1306.620, 18407.29
1307.687, 18579.00
1308.754, 18422.00
1309.821, 18401.00
1310.888, 18341.00
1311.955, 18552.00
1313.021, 18533.00
1314.088, 18519.00
1315.154, 18535.00
1316.220, 18545.00
1317.286, 18550.54
1318.352, 18578.00
1319.417, 18597.00
1320.483, 18676.00
1321.548, 18753.00
1322.613, 18768.00
1323.678, 18789.00
1324.743, 18598.00
1325.807, 18767.00
1326.872, 18565.00
1327.936, 18831.00
1329.000, 18873.00
1330.064, 18727.00
1331.128, 18754.00
1332.191, 18928.00
1333.255, 18857.00
1334.318, 18928.00
1335.381, 18978.00
1336.444, 18845.00
1337.507, 18897.00
1338.569, 19082.00
1339.632, 19014.00
1340.694, 18886.00
1341.756, 19041.00
1342.818, 18881.00
1343.880, 19019.00
1344.941, 19044.00
1346.003, 19021.00
1347.064, 19088.00
1348.125, 18922.00
1349.186, 19070.00
1350.247, 19343.00
1351.308, 19197.00
1352.368, 19245.00
1353.428, 19322.00
1354.489, 19380.00
1355.549, 19420.12
1356.608, 19482.71
1357.668, 19480.00
1358.727, 19542.00
1359.787, 19539.00
1360.846, 19476.00
1361.905, 19495.00
1362.964, 19541.00
1364.022, 19444.00
1365.081, 19604.00
1366.139, 19583.00
1367.197, 19699.00
1368.255, 19709.00
1369.313, 19683.00
1370.371, 19837.00
1371.428, 19840.00
1372.486, 19709.00
1373.543, 19581.00
1374.600, 19739.00
1375.657, 19783.00
1376.713, 19872.00
1377.770, 19922.00
1378.826, 19912.00
1379.882, 19738.00
1380.938, 19911.00
1381.994, 19795.00
1383.050, 19856.00
1384.106, 19731.00
1385.161, 19688.00
1386.216, 19918.00
1387.271, 19856.00
1388.326, 19906.00
1389.381, 19885.00
1390.435, 19622.00
1391.490, 19902.00
1392.544, 19683.00
1393.598, 19933.00
1394.652, 19766.00
1395.705, 20037.00
1396.759, 19811.00
1397.812, 19975.00
1398.866, 19681.00
1399.919, 19876.00
1400.972, 19762.00
1402.024, 19940.00
1403.077, 20039.00
1404.129, 19707.00
1405.181, 19953.00
1406.233, 19935.00
1407.285, 20004.00
1408.337, 20002.00
1409.389, 20065.00
1410.440, 19892.00
1411.491, 20066.00
1412.542, 19957.00
1413.593, 19939.00
1414.644, 19986.00
1415.695, 19961.00
1416.745, 20054.00
1417.795, 19960.00
1418.845, 20012.00
1419.895, 19965.00
1420.945, 19948.80
1421.995, 19869.00
1423.044, 19910.00
1424.093, 20119.00
1425.142, 20090.00
1426.191, 20310.00
1427.240, 20122.00
1428.289, 19988.00
1429.337, 20298.00
1430.385, 20202.00
1431.433, 20314.00
1432.481, 20041.00
1433.529, 20152.00
1434.577, 20124.00
1435.624, 20289.00
1436.672, 20301.00
1437.719, 20191.00
1438.766, 20203.00
1439.812, 20098.00
1440.859, 20291.00
1441.905, 20442.00
1442.952, 20266.00
1443.998, 20300.00
1445.044, 20317.00
1446.090, 20501.00
1447.135, 20441.00
1448.181, 20495.00
1449.226, 20479.00
1450.271, 20470.00
1451.316, 20508.00
1452.361, 20472.00
1453.405, 20478.00
1454.450, 20661.00
1455.494, 20625.00
1456.538, 20556.00
1457.582, 20382.00
1458.626, 20579.00
1459.670, 20669.00
1460.713, 20601.00
1461.757, 20819.00
1462.800, 20595.00
1463.843, 20658.00
1464.886, 20669.00
1465.928, 20830.00
1466.971, 20673.00
1468.013, 20745.00
1469.055, 20852.00
1470.097, 20823.00
1471.139, 20703.00
1472.181, 20673.00
1473.222, 20832.00
1474.263, 20879.00
1475.305, 20876.00
1476.346, 20976.00
1477.386, 20935.00
1478.427, 20880.00
1479.468, 21095.00
1480.508, 20952.00
1481.548, 20950.00
1482.588, 21095.00
1483.628, 20909.00
1484.668, 21154.00
1485.707, 20945.00
1486.747, 20996.00
1487.786, 21090.00
1488.825, 21215.00
1489.864, 21062.00
1490.902, 21212.00
1491.941, 21107.00
1492.979, 21085.00
1494.017, 21173.00
1495.055, 21303.00
1496.093, 21101.00
1497.131, 21283.00
1498.168, 21236.00
1499.206, 21244.00
1500.243, 21267.00
1501.280, 21244.00
1502.317, 21090.00
1503.354, 21218.00
1504.390, 21430.00
1505.426, 21154.00
1506.463, 21352.00
1507.499, 21348.00
1508.535, 21334.00
1509.570, 21502.00
1510.606, 21522.00
1511.641, 21313.00
1512.676, 21437.00
1513.711, 21621.00
1514.746, 21352.00
1515.781, 21646.00
1516.816, 21589.00
1517.850, 21404.00
1518.884, 21559.00
1519.918, 21458.00
1520.952, 21479.00
1521.986, 21466.00
1523.019, 21547.00
1524.053, 21605.72
1525.086, 21666.00
1526.119, 21737.00
1527.152, 21675.00
1528.185, 21618.00
1529.217, 21585.00
1530.250, 21580.99
1531.282, 21772.00
1532.314, 21626.00
1533.346, 21839.00
1534.377, 21918.00
1535.409, 21879.00
1536.440, 21892.00
1537.472, 21951.23
1538.503, 21900.00
1539.534, 22053.00
1540.564, 22043.00
1541.595, 22085.73
1542.625, 21913.00
1543.656, 22073.00
1544.686, 21886.00
1545.716, 21919.00
1546.745, 21902.00
1547.775, 21913.00
1548.804, 21886.00
1549.834, 21873.00
1550.863, 22299.00
1551.892, 22053.00
1552.920, 22368.00
1553.949, 22356.00
1554.977, 22265.00
1556.006, 22276.00
1557.034, 22153.00
1558.062, 22216.00
1559.089, 22191.67
1560.117, 22179.24
1561.144, 22269.00
1562.172, 22181.00
1563.199, 22324.00
1564.226, 22307.00
1565.252, 22645.00
1566.279, 22425.00
1567.305, 22558.00
1568.332, 22448.00
1569.358, 22508.00
1570.384, 22562.00
##END=



