##NAMES=Serandite
##RRUFFID=R050261
##IDEAL CHEMISTRY=NaMn^2+^_2_Si_3_O_8_(OH)
##LOCALITY=Mont Saint-Hilaire, Rouville County, Quebec, Canada
##OWNER=RRUFF
##SOURCE=Marcus Origlieri
##DESCRIPTION=Orange tabular single crystal associated with aegirine and microcline
##STATUS=The identification of this mineral has been confirmed by X-ray diffraction and chemical analysis
##URL=rruff.info/R050261
##MEASURED CHEMISTRY=Na_0.96_(Mn_0.92_Ca_0.06_Fe_0.01_)_2_Si_3.03_O_8_(OH)
##PIN_ID=L01217
##ORIENTATION=Laser parallel to (0 -1 -1). Fiducial mark perpendicular to laser is parallel to -a [-1 0 0]
93.48000, 4430.000
94.71400, 4519.000
95.94800, 4566.000
97.18200, 4639.000
98.41600, 4610.000
99.64900, 4794.000
100.8830, 4981.000
102.1160, 5016.000
103.3490, 5033.000
104.5820, 5379.000
105.8150, 5696.000
107.0470, 5982.000
108.2800, 6591.000
109.5120, 7049.000
110.7440, 7225.000
111.9760, 6930.000
113.2080, 6806.000
114.4400, 6851.000
115.6710, 7218.000
116.9030, 7584.000
118.1340, 7790.000
119.3650, 8409.000
120.5960, 8780.000
121.8270, 8733.000
123.0580, 8228.000
124.2880, 7442.000
125.5190, 6637.000
126.7490, 6120.000
127.9790, 5935.000
129.2090, 6031.000
130.4390, 6155.000
131.6680, 6341.000
132.8980, 6640.000
134.1270, 6830.000
135.3560, 7311.000
136.5850, 7666.000
137.8140, 7980.000
139.0430, 8268.000
140.2710, 8256.000
141.5000, 7887.000
142.7280, 7353.000
143.9560, 6925.000
145.1840, 6371.000
146.4120, 5786.000
147.6390, 5448.000
148.8670, 5280.000
150.0940, 5199.000
151.3210, 5198.000
152.5490, 5234.000
153.7750, 5309.000
155.0020, 5223.000
156.2290, 5395.000
157.4550, 5424.000
158.6810, 5537.000
159.9080, 5764.000
161.1340, 5982.000
162.3590, 6182.000
163.5850, 6384.000
164.8110, 6717.000
166.0360, 6912.000
167.2610, 6935.000
168.4860, 7087.000
169.7110, 7118.000
170.9360, 7208.000
172.1610, 7191.000
173.3850, 7101.000
174.6100, 6919.000
175.8340, 6578.000
177.0580, 6373.000
178.2820, 6191.000
179.5050, 6059.000
180.7290, 5967.000
181.9520, 6071.000
183.1760, 5965.000
184.3990, 5916.000
185.6220, 5810.000
186.8450, 5798.892
188.0670, 5751.000
189.2900, 5807.000
190.5120, 5782.000
191.7340, 5838.000
192.9560, 6031.000
194.1780, 6189.000
195.4000, 6189.000
196.6220, 6374.000
197.8430, 6480.000
199.0640, 6486.000
200.2860, 6668.000
201.5070, 6776.000
202.7270, 6923.000
203.9480, 6851.000
205.1690, 6669.000
206.3890, 6468.000
207.6090, 6356.000
208.8290, 6328.000
210.0490, 6265.000
211.2690, 6258.000
212.4890, 6323.000
213.7080, 6240.000
214.9280, 6346.000
216.1470, 6318.000
217.3660, 6375.000
218.5850, 6430.000
219.8030, 6348.000
221.0220, 6361.000
222.2400, 6543.000
223.4590, 6608.000
224.6770, 6770.000
225.8950, 6773.000
227.1120, 6778.000
228.3300, 6842.000
229.5480, 6728.000
230.7650, 6761.000
231.9820, 6717.000
233.1990, 6691.000
234.4160, 6749.000
235.6330, 6774.000
236.8490, 6817.000
238.0660, 6779.000
239.2820, 6610.000
240.4980, 6595.000
241.7140, 6400.000
242.9300, 6272.000
244.1460, 6111.000
245.3610, 6086.000
246.5770, 6013.000
247.7920, 5980.000
249.0070, 6018.000
250.2220, 5945.000
251.4370, 6086.000
252.6510, 6221.000
253.8660, 6161.000
255.0800, 6437.000
256.2940, 6475.000
257.5080, 6729.000
258.7220, 6972.000
259.9360, 7316.000
261.1490, 7421.000
262.3630, 7414.000
263.5760, 7203.000
264.7890, 7236.000
266.0020, 7035.000
267.2150, 7019.000
268.4270, 6889.000
269.6400, 6964.000
270.8520, 6886.000
272.0640, 6795.000
273.2760, 6849.000
274.4880, 6815.000
275.7000, 6806.000
276.9120, 6885.000
278.1230, 6926.000
279.3340, 6882.000
280.5450, 7041.000
281.7560, 7021.000
282.9670, 7126.000
284.1780, 7343.000
285.3880, 7435.000
286.5980, 7473.000
287.8090, 7656.000
289.0190, 7677.000
290.2290, 7790.000
291.4380, 7772.000
292.6480, 7658.000
293.8570, 7504.000
295.0670, 7533.000
296.2760, 7380.000
297.4850, 7380.000
298.6930, 7326.000
299.9020, 7244.000
301.1110, 7206.000
302.3190, 7134.000
303.5270, 7017.000
304.7350, 6834.000
305.9430, 6759.000
307.1510, 6589.000
308.3580, 6445.000
309.5660, 6320.000
310.7730, 6258.000
311.9800, 6257.000
313.1870, 6086.000
314.3940, 6000.000
315.6010, 6043.000
316.8070, 5924.000
318.0130, 5854.000
319.2200, 5895.000
320.4260, 5901.000
321.6310, 5920.717
322.8370, 6062.000
324.0430, 6016.000
325.2480, 6048.000
326.4540, 6123.000
327.6590, 6095.000
328.8640, 6097.000
330.0680, 6154.000
331.2730, 6170.000
332.4780, 6141.000
333.6820, 6242.000
334.8860, 6160.000
336.0900, 6204.000
337.2940, 6162.000
338.4980, 6189.000
339.7010, 6066.000
340.9050, 6074.000
342.1080, 6023.000
343.3110, 6084.000
344.5140, 6143.000
345.7170, 6225.000
346.9200, 6141.000
348.1220, 6202.000
349.3240, 6190.000
350.5270, 6329.000
351.7290, 6458.000
352.9310, 6428.000
354.1320, 6446.000
355.3340, 6611.000
356.5350, 6713.000
357.7370, 6765.000
358.9380, 6817.000
360.1390, 6892.000
361.3400, 6958.000
362.5400, 6978.000
363.7410, 7066.000
364.9410, 7234.000
366.1410, 7236.000
367.3410, 7152.000
368.5410, 7128.000
369.7410, 6943.000
370.9400, 6946.000
372.1400, 6747.000
373.3390, 6519.000
374.5380, 6326.000
375.7370, 6304.000
376.9360, 6167.000
378.1350, 6090.000
379.3330, 6060.000
380.5310, 6009.000
381.7300, 6024.000
382.9280, 5884.000
384.1260, 5818.000
385.3230, 5866.000
386.5210, 5873.000
387.7180, 5850.000
388.9160, 5843.000
390.1130, 5893.000
391.3100, 5880.000
392.5060, 5854.000
393.7030, 5874.000
394.9000, 5856.000
396.0960, 5878.000
397.2920, 5883.000
398.4880, 5897.000
399.6840, 5998.000
400.8800, 6025.000
402.0750, 6020.000
403.2710, 6022.000
404.4660, 6178.000
405.6610, 6265.000
406.8560, 6344.000
408.0510, 6352.000
409.2450, 6651.000
410.4400, 6798.000
411.6340, 6869.000
412.8280, 7108.000
414.0220, 7289.000
415.2160, 7428.000
416.4100, 7555.000
417.6030, 7630.787
418.7970, 7658.000
419.9900, 7677.000
421.1830, 7623.000
422.3760, 7525.000
423.5690, 7264.000
424.7610, 7117.000
425.9540, 6913.000
427.1460, 6671.000
428.3380, 6553.000
429.5300, 6525.000
430.7220, 6456.000
431.9140, 6326.000
433.1050, 6265.000
434.2970, 6173.000
435.4880, 6109.000
436.6790, 6153.000
437.8700, 6041.000
439.0610, 6039.000
440.2510, 6156.000
441.4420, 5958.000
442.6320, 6016.000
443.8220, 5994.000
445.0120, 6025.000
446.2020, 6013.887
447.3910, 6015.000
448.5810, 5979.000
449.7700, 5989.000
450.9600, 5971.000
452.1490, 6086.000
453.3370, 6120.000
454.5260, 6206.000
455.7150, 6228.000
456.9030, 6357.000
458.0910, 6534.000
459.2800, 6555.000
460.4670, 6613.000
461.6550, 6644.000
462.8430, 6708.000
464.0300, 6669.086
465.2180, 6617.000
466.4050, 6561.000
467.5920, 6430.000
468.7790, 6328.000
469.9650, 6197.000
471.1520, 6278.000
472.3380, 6190.000
473.5250, 6174.000
474.7110, 6145.000
475.8970, 6192.000
477.0820, 6125.000
478.2680, 6170.000
479.4540, 6203.000
480.6390, 6130.000
481.8240, 6254.000
483.0090, 6289.000
484.1940, 6258.000
485.3780, 6391.000
486.5630, 6391.000
487.7470, 6555.000
488.9320, 6524.000
490.1160, 6640.000
491.3000, 6773.000
492.4830, 7018.000
493.6670, 6950.000
494.8500, 7071.000
496.0340, 7090.000
497.2170, 7012.000
498.4000, 6960.000
499.5820, 6929.000
500.7650, 6806.000
501.9480, 6681.000
503.1300, 6669.000
504.3120, 6667.000
505.4940, 6655.000
506.6760, 6626.000
507.8580, 6790.000
509.0390, 6648.000
510.2210, 6761.000
511.4020, 6769.000
512.5830, 6655.000
513.7640, 6682.000
514.9450, 6564.000
516.1250, 6556.000
517.3060, 6565.000
518.4860, 6459.000
519.6660, 6520.000
520.8460, 6553.000
522.0260, 6468.000
523.2060, 6577.000
524.3850, 6686.000
525.5650, 6612.000
526.7440, 6856.000
527.9230, 6711.000
529.1020, 6820.000
530.2810, 6762.000
531.4590, 6733.000
532.6380, 6759.000
533.8160, 6732.000
534.9940, 6751.304
536.1720, 6744.000
537.3500, 6785.000
538.5270, 6809.000
539.7050, 6825.000
540.8820, 6818.000
542.0590, 6766.000
543.2360, 6722.000
544.4130, 6829.000
545.5900, 6753.000
546.7660, 6802.000
547.9430, 6750.000
549.1190, 6652.000
550.2950, 6623.000
551.4710, 6731.000
552.6470, 6751.000
553.8220, 6729.000
554.9980, 6639.000
556.1730, 6617.000
557.3480, 6711.000
558.5230, 6527.000
559.6980, 6480.000
560.8730, 6552.000
562.0470, 6695.000
563.2220, 6556.000
564.3960, 6657.000
565.5700, 6615.000
566.7440, 6661.000
567.9170, 6516.000
569.0910, 6616.000
570.2640, 6484.000
571.4380, 6568.000
572.6110, 6565.000
573.7840, 6556.000
574.9570, 6584.000
576.1290, 6567.000
577.3020, 6551.000
578.4740, 6462.000
579.6460, 6575.000
580.8180, 6552.000
581.9900, 6695.000
583.1620, 6679.000
584.3330, 6643.000
585.5040, 6597.000
586.6760, 6599.000
587.8470, 6667.000
589.0180, 6603.000
590.1880, 6698.000
591.3590, 6665.000
592.5290, 6726.000
593.7000, 6680.000
594.8700, 6714.000
596.0400, 6723.000
597.2090, 6703.000
598.3790, 6737.000
599.5490, 6676.000
600.7180, 6651.000
601.8870, 6744.000
603.0560, 6803.000
604.2250, 6807.418
605.3940, 6844.000
606.5620, 6853.000
607.7300, 6874.000
608.8990, 6909.000
610.0670, 6932.014
611.2350, 6955.848
612.4020, 6988.000
613.5700, 6998.000
614.7370, 7005.000
615.9050, 7018.000
617.0720, 7175.000
618.2390, 7058.000
619.4060, 7358.000
620.5720, 7268.000
621.7390, 7325.000
622.9050, 7344.000
624.0710, 7483.000
625.2370, 7532.004
626.4030, 7578.698
627.5690, 7708.000
628.7340, 7641.000
629.9000, 7731.000
631.0650, 7721.000
632.2300, 7829.000
633.3950, 7948.000
634.5600, 8078.000
635.7240, 8131.000
636.8890, 8312.000
638.0530, 8440.000
639.2170, 8647.000
640.3810, 8745.000
641.5450, 8831.000
642.7080, 9023.000
643.8720, 9439.000
645.0350, 9681.000
646.1980, 10077.00
647.3610, 10348.00
648.5240, 10763.00
649.6870, 11217.00
650.8490, 11785.00
652.0120, 12378.00
653.1740, 13367.00
654.3360, 14405.00
655.4980, 15647.00
656.6600, 17317.00
657.8210, 19538.00
658.9830, 21991.00
660.1440, 25420.00
661.3050, 28859.00
662.4660, 32971.00
663.6270, 37715.00
664.7870, 43496.00
665.9480, 48861.00
667.1080, 54813.00
668.2680, 59024.00
669.4280, 60755.00
670.5880, 58678.00
671.7480, 53843.00
672.9070, 47499.00
674.0670, 40057.00
675.2260, 33620.00
676.3850, 28122.00
677.5440, 23941.00
678.7030, 20688.00
679.8610, 18397.00
681.0200, 16656.00
682.1780, 15178.00
683.3360, 14009.00
684.4940, 13313.00
685.6520, 12508.00
686.8090, 12108.00
687.9670, 11588.00
689.1240, 11318.00
690.2810, 11121.00
691.4380, 10876.00
692.5950, 10921.00
693.7520, 11034.00
694.9080, 11151.00
696.0650, 11411.43
697.2210, 11625.00
698.3770, 12104.00
699.5330, 12459.00
700.6880, 12994.00
701.8440, 13510.00
702.9990, 13963.00
704.1550, 14159.00
705.3100, 14177.00
706.4650, 13669.00
707.6190, 13186.00
708.7740, 12455.00
709.9290, 11739.00
711.0830, 11036.00
712.2370, 10599.00
713.3910, 10116.00
714.5450, 9817.000
715.6980, 9562.000
716.8520, 9407.000
718.0050, 9350.000
719.1580, 9345.000
720.3110, 9187.000
721.4640, 9046.000
722.6170, 8969.000
723.7700, 8841.000
724.9220, 8655.000
726.0740, 8502.000
727.2260, 8326.000
728.3780, 8224.000
729.5300, 8032.000
730.6810, 8068.000
731.8330, 7866.000
732.9840, 7885.000
734.1350, 7756.000
735.2860, 7733.000
736.4370, 7637.000
737.5880, 7593.000
738.7380, 7674.000
739.8880, 7738.000
741.0390, 7652.000
742.1890, 7577.000
743.3380, 7551.000
744.4880, 7612.000
745.6380, 7542.000
746.7870, 7593.000
747.9360, 7428.000
749.0850, 7560.000
750.2340, 7492.000
751.3830, 7456.000
752.5310, 7471.000
753.6800, 7516.000
754.8280, 7344.000
755.9760, 7475.000
757.1240, 7376.000
758.2720, 7468.000
759.4190, 7465.000
760.5670, 7511.000
761.7140, 7465.000
762.8610, 7467.000
764.0080, 7450.877
765.1550, 7449.000
766.3020, 7424.000
767.4480, 7433.000
768.5950, 7473.000
769.7410, 7563.000
770.8870, 7447.000
772.0330, 7416.000
773.1780, 7460.000
774.3240, 7567.000
775.4690, 7548.000
776.6140, 7561.000
777.7590, 7556.000
778.9040, 7604.000
780.0490, 7604.000
781.1940, 7579.000
782.3380, 7582.551
783.4820, 7541.000
784.6260, 7558.000
785.7700, 7535.000
786.9140, 7561.000
788.0580, 7659.000
789.2010, 7658.000
790.3450, 7598.000
791.4880, 7576.000
792.6310, 7716.000
793.7730, 7606.000
794.9160, 7629.000
796.0590, 7698.000
797.2010, 7639.000
798.3430, 7741.000
799.4850, 7759.000
800.6270, 7715.000
801.7690, 7719.000
802.9100, 7780.000
804.0520, 7772.000
805.1930, 7751.000
806.3340, 7707.000
807.4750, 7808.000
808.6160, 7861.000
809.7560, 7783.000
810.8970, 7853.000
812.0370, 7780.000
813.1770, 7893.000
814.3170, 7827.000
815.4570, 7873.000
816.5960, 7910.000
817.7360, 7981.000
818.8750, 7995.919
820.0140, 8030.000
821.1530, 7997.000
822.2920, 8032.000
823.4310, 7943.000
824.5690, 7884.000
825.7070, 8067.000
826.8460, 8085.000
827.9840, 7987.000
829.1220, 8068.000
830.2590, 8093.000
831.3970, 8076.000
832.5340, 8069.000
833.6710, 8123.000
834.8080, 8221.000
835.9450, 8116.000
837.0820, 8181.000
838.2190, 8123.000
839.3550, 8229.000
840.4910, 8332.000
841.6270, 8287.000
842.7630, 8252.000
843.8990, 8348.000
845.0350, 8324.000
846.1700, 8326.000
847.3060, 8283.000
848.4410, 8266.000
849.5760, 8418.000
850.7100, 8400.000
851.8450, 8458.000
852.9800, 8462.000
854.1140, 8453.000
855.2480, 8484.000
856.3820, 8487.278
857.5160, 8624.000
858.6500, 8530.000
859.7830, 8601.000
860.9170, 8653.000
862.0500, 8579.000
863.1830, 8631.000
864.3160, 8630.000
865.4480, 8677.000
866.5810, 8696.334
867.7130, 8719.882
868.8460, 8721.000
869.9780, 8756.000
871.1100, 8728.000
872.2410, 8706.000
873.3730, 8698.000
874.5050, 8804.000
875.6360, 8628.000
876.7670, 8785.000
877.8980, 8748.000
879.0290, 8730.000
880.1590, 8742.000
881.2900, 8726.000
882.4200, 8882.000
883.5500, 8900.000
884.6800, 8980.000
885.8100, 9172.000
886.9400, 9261.000
888.0690, 9278.000
889.1990, 9479.000
890.3280, 9695.000
891.4570, 9904.000
892.5860, 10232.00
893.7140, 10411.00
894.8430, 10727.00
895.9710, 11231.00
897.1000, 11468.00
898.2280, 11903.00
899.3560, 12101.00
900.4830, 12059.00
901.6110, 11956.00
902.7380, 11768.00
903.8660, 11434.00
904.9930, 11091.00
906.1200, 10930.00
907.2460, 10516.00
908.3730, 10295.00
909.5000, 10091.00
910.6260, 10168.00
911.7520, 9908.000
912.8780, 9740.000
914.0040, 9891.000
915.1290, 9728.000
916.2550, 9760.000
917.3800, 9689.000
918.5050, 9704.000
919.6300, 9734.000
920.7550, 9770.000
921.8800, 9880.000
923.0040, 9849.000
924.1290, 9752.000
925.2530, 9791.000
926.3770, 9673.000
927.5010, 9732.000
928.6250, 9719.000
929.7480, 9827.000
930.8720, 9787.000
931.9950, 9782.000
933.1180, 9911.000
934.2410, 9686.000
935.3640, 9862.000
936.4860, 9891.000
937.6090, 9884.000
938.7310, 9967.000
939.8530, 9825.000
940.9750, 9987.000
942.0970, 10060.00
943.2180, 10273.00
944.3400, 10187.00
945.4610, 10365.00
946.5820, 10355.00
947.7030, 10508.00
948.8240, 10584.00
949.9450, 10654.00
951.0650, 10935.00
952.1860, 11086.00
953.3060, 11361.00
954.4260, 11604.00
955.5460, 11858.00
956.6650, 12114.00
957.7850, 12308.00
958.9040, 12585.00
960.0230, 13103.00
961.1420, 13338.00
962.2610, 13788.00
963.3800, 14193.00
964.4990, 14863.00
965.6170, 15240.00
966.7350, 15602.00
967.8530, 16191.00
968.9710, 16505.00
970.0890, 17098.00
971.2070, 17400.00
972.3240, 18037.00
973.4410, 18152.00
974.5580, 18368.00
975.6750, 18483.00
976.7920, 18480.95
977.9090, 18508.00
979.0250, 18335.00
980.1410, 18239.00
981.2580, 17991.00
982.3740, 17662.00
983.4890, 17375.00
984.6050, 17248.00
985.7200, 16829.00
986.8360, 16624.00
987.9510, 16638.00
989.0660, 16342.00
990.1810, 16247.00
991.2950, 16170.00
992.4100, 16055.00
993.5240, 16191.00
994.6390, 16344.00
995.7530, 16545.00
996.8660, 16753.00
997.9800, 16805.00
999.0940, 17184.00
1000.207, 17421.00
1001.320, 17558.00
1002.433, 17559.00
1003.546, 17917.00
1004.659, 17850.00
1005.772, 17925.00
1006.884, 18432.00
1007.996, 18972.00
1009.108, 19672.00
1010.220, 20668.00
1011.332, 22080.00
1012.444, 23464.00
1013.555, 25756.00
1014.666, 27881.00
1015.777, 30370.00
1016.888, 32880.00
1017.999, 35485.00
1019.110, 37758.00
1020.220, 39322.00
1021.331, 40014.00
1022.441, 39323.00
1023.551, 37556.00
1024.661, 34977.00
1025.770, 31918.00
1026.880, 29239.00
1027.989, 26410.00
1029.098, 24237.00
1030.207, 21851.00
1031.316, 19989.00
1032.425, 18396.00
1033.533, 17250.00
1034.642, 16399.00
1035.750, 15593.00
1036.858, 14823.00
1037.966, 14464.00
1039.073, 13891.00
1040.181, 13600.00
1041.288, 13227.15
1042.396, 12832.00
1043.503, 12653.00
1044.610, 12406.00
1045.716, 12242.00
1046.823, 12076.00
1047.929, 11940.00
1049.036, 11839.00
1050.142, 11770.00
1051.248, 11536.00
1052.353, 11573.00
1053.459, 11468.00
1054.564, 11250.00
1055.670, 11253.00
1056.775, 11218.00
1057.880, 11073.00
1058.985, 11054.00
1060.089, 10967.00
1061.194, 10912.00
1062.298, 10849.00
1063.402, 10932.00
1064.506, 10813.00
1065.610, 10825.00
1066.713, 10857.00
1067.817, 10689.00
1068.920, 10695.00
1070.023, 10693.00
1071.126, 10603.00
1072.229, 10629.00
1073.332, 10526.00
1074.435, 10526.15
1075.537, 10534.00
1076.639, 10480.00
1077.741, 10500.00
1078.843, 10433.00
1079.945, 10510.00
1081.046, 10513.00
1082.148, 10495.00
1083.249, 10421.00
1084.350, 10355.00
1085.451, 10434.00
1086.551, 10415.00
1087.652, 10410.33
1088.752, 10239.00
1089.853, 10360.00
1090.953, 10301.00
1092.053, 10177.00
1093.152, 10245.00
1094.252, 10157.00
1095.351, 10202.00
1096.451, 10237.00
1097.550, 10243.00
1098.649, 10106.00
1099.748, 10123.00
1100.846, 10025.00
1101.945, 10077.00
1103.043, 10003.00
1104.141, 10050.00
1105.239, 10049.00
1106.337, 10030.00
1107.434, 10114.00
1108.532, 10188.00
1109.629, 9951.000
1110.726, 10028.00
1111.823, 10039.00
1112.920, 10008.00
1114.017, 9998.000
1115.113, 10031.00
1116.210, 10009.00
1117.306, 10050.00
1118.402, 10307.00
1119.498, 10113.00
1120.593, 10288.00
1121.689, 10312.00
1122.784, 10215.00
1123.879, 10288.00
1124.974, 10358.00
1126.069, 10241.00
1127.164, 10178.00
1128.259, 10228.00
1129.353, 10092.00
1130.447, 10077.00
1131.541, 10195.00
1132.635, 10093.00
1133.729, 9986.000
1134.822, 10131.00
1135.916, 10007.00
1137.009, 10007.00
1138.102, 10119.00
1139.195, 10083.00
1140.288, 10029.00
1141.380, 10062.00
1142.473, 10124.00
1143.565, 10081.00
1144.657, 10066.00
1145.749, 10064.00
1146.841, 10148.00
1147.932, 10119.00
1149.024, 10063.00
1150.115, 10094.00
1151.206, 10023.00
1152.297, 10113.00
1153.388, 10074.00
1154.479, 10100.00
1155.569, 10118.74
1156.659, 10078.00
1157.750, 10121.00
1158.839, 10098.00
1159.929, 10071.00
1161.019, 10086.00
1162.108, 10084.18
1163.198, 10134.00
1164.287, 10100.00
1165.376, 10142.64
1166.465, 10120.00
1167.553, 10130.00
1168.642, 10180.00
1169.730, 10126.00
1170.818, 10253.00
1171.906, 10079.00
1172.994, 10073.00
1174.082, 10228.00
1175.170, 10251.00
1176.257, 10119.00
1177.344, 10303.00
1178.431, 10200.00
1179.518, 10238.00
1180.605, 10230.00
1181.691, 10181.86
1182.778, 10223.99
1183.864, 10181.00
1184.950, 10221.00
1186.036, 10349.00
1187.122, 10272.00
1188.207, 10382.00
1189.292, 10289.00
1190.378, 10294.00
1191.463, 10362.00
1192.548, 10315.00
1193.632, 10304.00
1194.717, 10319.00
1195.801, 10297.00
1196.886, 10325.00
1197.970, 10345.00
1199.054, 10391.00
1200.137, 10393.00
1201.221, 10343.00
1202.305, 10491.00
1203.388, 10417.00
1204.471, 10326.00
1205.554, 10580.00
1206.637, 10472.00
1207.719, 10496.00
1208.802, 10415.00
1209.884, 10515.00
1210.966, 10401.00
1212.048, 10673.00
1213.130, 10577.00
1214.212, 10484.00
1215.293, 10603.00
1216.374, 10528.00
1217.456, 10635.00
1218.536, 10645.00
1219.617, 10821.00
1220.698, 10583.00
1221.778, 10685.00
1222.859, 10599.00
1223.939, 10640.00
1225.019, 10710.00
1226.099, 10625.00
1227.178, 10712.00
1228.258, 10682.00
1229.337, 10795.00
1230.417, 10793.00
1231.496, 10696.00
1232.574, 10899.00
1233.653, 10744.00
1234.732, 10679.00
1235.810, 10755.00
1236.888, 10850.00
1237.966, 10776.00
1239.044, 10732.00
1240.122, 10819.00
1241.199, 10815.00
1242.277, 10745.00
1243.354, 10861.00
1244.431, 10866.00
1245.508, 10942.00
1246.585, 10863.00
1247.661, 10831.00
1248.738, 10921.00
1249.814, 10960.00
1250.890, 10861.00
1251.966, 10964.00
1253.042, 10763.00
1254.117, 10941.00
1255.193, 10997.00
1256.268, 11086.00
1257.343, 10837.00
1258.418, 10887.00
1259.493, 11037.00
1260.567, 11117.00
1261.642, 11258.00
1262.716, 11159.20
1263.790, 11119.00
1264.864, 10977.00
1265.938, 11115.00
1267.011, 11179.00
1268.085, 11170.00
1269.158, 11269.00
1270.231, 11196.00
1271.304, 11193.00
1272.377, 11172.00
1273.450, 11131.85
1274.522, 11187.00
1275.594, 11126.00
1276.666, 11178.00
1277.738, 11290.00
1278.810, 11296.00
1279.882, 11243.00
1280.953, 11310.00
1282.025, 11324.00
1283.096, 11375.00
1284.167, 11252.00
1285.238, 11415.00
1286.308, 11139.00
1287.379, 11361.00
1288.449, 11375.00
1289.519, 11375.00
1290.589, 11456.00
1291.659, 11448.53
1292.729, 11526.00
1293.798, 11463.00
1294.868, 11505.00
1295.937, 11473.00
1297.006, 11532.00
1298.075, 11480.00
1299.143, 11507.03
1300.212, 11542.00
1301.280, 11537.00
1302.348, 11469.00
1303.416, 11488.94
1304.484, 11564.00
1305.552, 11546.00
1306.620, 11644.00
1307.687, 11670.00
1308.754, 11649.00
1309.821, 11611.00
1310.888, 11710.00
1311.955, 11639.00
1313.021, 11577.00
1314.088, 11878.00
1315.154, 11711.00
1316.220, 11810.00
1317.286, 11801.00
1318.352, 11799.00
1319.417, 11731.00
1320.483, 11689.00
1321.548, 11757.00
1322.613, 11773.00
1323.678, 11752.00
1324.743, 11774.00
1325.807, 11712.00
1326.872, 11827.00
1327.936, 11696.00
1329.000, 11852.00
1330.064, 11888.00
1331.128, 11830.00
1332.191, 11872.00
1333.255, 11872.36
1334.318, 11832.00
1335.381, 11857.00
1336.444, 11847.00
1337.507, 11747.00
1338.569, 11935.00
1339.632, 11838.00
1340.694, 11858.00
1341.756, 12055.00
1342.818, 12032.00
1343.880, 11908.00
1344.941, 12032.00
1346.003, 11990.00
1347.064, 11944.00
1348.125, 12227.00
1349.186, 12109.00
1350.247, 12161.00
1351.308, 12095.00
1352.368, 12195.00
1353.428, 12315.00
1354.489, 12342.00
1355.549, 12105.00
1356.608, 12668.00
1357.668, 12873.00
1358.727, 12440.00
1359.787, 12362.00
1360.846, 12440.00
1361.905, 12483.00
1362.964, 12574.00
1364.022, 12602.00
1365.081, 12641.34
1366.139, 12647.00
1367.197, 12654.00
1368.255, 12685.74
1369.313, 12703.00
1370.371, 12755.00
1371.428, 12770.00
1372.486, 12848.00
1373.543, 12962.00
1374.600, 12882.00
1375.657, 12892.00
1376.713, 12821.00
1377.770, 12928.00
1378.826, 12945.00
1379.882, 12900.00
1380.938, 12970.00
1381.994, 12948.00
1383.050, 12897.00
1384.106, 12824.00
1385.161, 12916.00
1386.216, 12878.00
1387.271, 12739.00
1388.326, 12779.00
1389.381, 12658.00
1390.435, 12680.00
1391.490, 12722.00
1392.544, 12825.00
1393.598, 12570.00
1394.652, 12681.00
1395.705, 12545.00
1396.759, 12481.00
1397.812, 12556.00
1398.866, 12453.00
1399.919, 12553.00
1400.972, 12537.00
1402.024, 12409.00
1403.077, 12617.00
1404.129, 12597.00
1405.181, 12532.00
1406.233, 12445.00
1407.285, 12538.00
1408.337, 12663.00
1409.389, 12553.00
1410.440, 12576.00
1411.491, 12519.00
1412.542, 12579.00
1413.593, 12639.00
1414.644, 12489.00
1415.695, 12583.00
1416.745, 12529.00
1417.795, 12561.00
1418.845, 12572.00
1419.895, 12655.00
1420.945, 12455.00
1421.995, 12590.00
1423.044, 12484.00
1424.093, 12604.00
1425.142, 12625.00
1426.191, 12602.00
1427.240, 12676.00
1428.289, 12671.79
1429.337, 12725.00
1430.385, 12673.00
1431.433, 12750.00
1432.481, 12675.00
1433.529, 12824.00
1434.577, 12717.00
1435.624, 12703.00
1436.672, 12882.00
1437.719, 12784.00
1438.766, 12836.00
1439.812, 12802.00
1440.859, 13028.00
1441.905, 13140.00
1442.952, 12918.00
1443.998, 13093.00
1445.044, 12944.00
1446.090, 13124.00
1447.135, 13127.00
1448.181, 13166.00
1449.226, 13288.00
1450.271, 13278.00
1451.316, 13230.00
1452.361, 13337.00
1453.405, 13218.00
1454.450, 13183.00
1455.494, 13240.00
1456.538, 13265.00
1457.582, 13281.00
1458.626, 13302.00
1459.670, 13406.00
1460.713, 13372.00
1461.757, 13371.00
1462.800, 13371.00
1463.843, 13314.00
1464.886, 13210.00
1465.928, 13278.00
1466.971, 13104.00
1468.013, 13124.00
1469.055, 13110.00
1470.097, 13283.00
1471.139, 13212.00
1472.181, 13279.00
1473.222, 13300.69
1474.263, 13266.00
1475.305, 13310.00
1476.346, 13265.00
1477.386, 13272.00
1478.427, 13243.00
1479.468, 13228.00
1480.508, 13366.00
1481.548, 13242.00
1482.588, 13323.00
1483.628, 13333.00
1484.668, 13159.00
1485.707, 13353.00
1486.747, 13220.00
1487.786, 13286.00
1488.825, 13430.00
1489.864, 13288.00
1490.902, 13270.00
1491.941, 13304.00
1492.979, 13239.00
1494.017, 13363.00
1495.055, 13265.00
1496.093, 13448.00
1497.131, 13297.00
1498.168, 13271.00
1499.206, 13354.00
1500.243, 13299.00
1501.280, 13368.00
1502.317, 13325.00
1503.354, 13340.00
1504.390, 13415.00
1505.426, 13363.00
1506.463, 13471.00
1507.499, 13558.00
1508.535, 13353.00
1509.570, 13392.00
1510.606, 13408.00
1511.641, 13292.00
1512.676, 13469.00
1513.711, 13561.00
1514.746, 13549.00
1515.781, 13612.58
1516.816, 13487.00
1517.850, 13542.00
1518.884, 13644.00
1519.918, 13496.00
1520.952, 13454.00
1521.986, 13629.00
1523.019, 13460.00
1524.053, 13670.00
1525.086, 13741.00
1526.119, 13793.00
1527.152, 13603.00
1528.185, 13630.00
1529.217, 13722.00
1530.250, 13728.00
1531.282, 13769.00
1532.314, 13775.83
1533.346, 13770.97
1534.377, 13769.00
1535.409, 13771.00
1536.440, 13791.42
1537.472, 13844.00
1538.503, 13821.00
1539.534, 13738.00
1540.564, 13768.00
1541.595, 13899.00
1542.625, 13761.00
1543.656, 13906.00
1544.686, 13783.00
1545.716, 14036.00
1546.745, 13920.00
1547.775, 13954.00
1548.804, 13899.00
1549.834, 13995.00
1550.863, 14069.00
1551.892, 13955.00
1552.920, 14113.00
1553.949, 14182.00
1554.977, 14063.00
1556.006, 14099.00
1557.034, 14067.00
1558.062, 13978.00
1559.089, 14050.00
1560.117, 14047.00
1561.144, 13963.00
1562.172, 13987.00
1563.199, 14162.00
1564.226, 14087.00
1565.252, 14193.00
1566.279, 14076.00
1567.305, 14181.00
1568.332, 14117.00
1569.358, 14232.00
1570.384, 14293.00
##END=



