##NAMES=Shortite
##RRUFFID=R050248
##IDEAL CHEMISTRY=Na_2_Ca_2_(CO_3_)_3_
##LOCALITY=Stauffer mine, Green River, Wyoming, USA
##OWNER=RRUFF
##SOURCE=Marcus Origlieri
##DESCRIPTION=Colorless wedge-shaped single crystal
##STATUS=The identification of this mineral has been confirmed by X-ray diffraction and chemical analysis
##URL=rruff.info/R050248
##MEASURED CHEMISTRY=Na_2.00_Ca_2.00_(CO_3_)_3_ ; CO2 not measured but estimated by difference and stoichiometry.
##PIN_ID=L00721
##ORIENTATION=Laser parallel to b* (0 1 0). Fiducial mark perpendicular to laser is parallel to -c [0 0 -1]
108.2800, 6879.000
109.5120, 7045.000
110.7440, 7069.000
111.9760, 6976.000
113.2080, 7107.000
114.4400, 7106.000
115.6710, 7076.000
116.9030, 7184.000
118.1340, 7153.000
119.3650, 7198.000
120.5960, 7298.000
121.8270, 7312.000
123.0580, 7442.000
124.2880, 7474.000
125.5190, 7452.000
126.7490, 7473.000
127.9790, 7526.000
129.2090, 7612.000
130.4390, 7663.000
131.6680, 7778.000
132.8980, 7747.000
134.1270, 7830.000
135.3560, 8067.000
136.5850, 8088.000
137.8140, 8093.000
139.0430, 8362.000
140.2710, 8196.000
141.5000, 8182.000
142.7280, 8061.000
143.9560, 8001.000
145.1840, 8072.000
146.4120, 8021.000
147.6390, 7939.000
148.8670, 8019.000
150.0940, 8055.000
151.3210, 7939.000
152.5490, 8093.000
153.7750, 8033.000
155.0020, 8131.000
156.2290, 8082.000
157.4550, 8148.000
158.6810, 8169.000
159.9080, 8125.000
161.1340, 8188.000
162.3590, 8347.000
163.5850, 8319.000
164.8110, 8398.000
166.0360, 8384.000
167.2610, 8540.000
168.4860, 8582.000
169.7110, 8478.000
170.9360, 8530.000
172.1610, 8459.000
173.3850, 8431.000
174.6100, 8436.000
175.8340, 8374.000
177.0580, 8403.000
178.2820, 8375.000
179.5050, 8413.000
180.7290, 8521.000
181.9520, 8335.000
183.1760, 8420.000
184.3990, 8479.000
185.6220, 8416.000
186.8450, 8609.000
188.0670, 8494.000
189.2900, 8623.000
190.5120, 8724.000
191.7340, 8765.000
192.9560, 8845.000
194.1780, 8919.000
195.4000, 8949.000
196.6220, 9160.000
197.8430, 9268.000
199.0640, 9321.000
200.2860, 9170.000
201.5070, 9235.000
202.7270, 9143.000
203.9480, 9214.000
205.1690, 9245.000
206.3890, 9221.000
207.6090, 9006.000
208.8290, 9068.000
210.0490, 8896.000
211.2690, 8889.000
212.4890, 9029.000
213.7080, 9107.000
214.9280, 8910.000
216.1470, 9039.000
217.3660, 8958.000
218.5850, 8911.000
219.8030, 8971.000
221.0220, 9015.000
222.2400, 8974.000
223.4590, 9049.000
224.6770, 8962.000
225.8950, 8971.000
227.1120, 8903.000
228.3300, 9075.000
229.5480, 9023.000
230.7650, 9080.000
231.9820, 9182.000
233.1990, 9180.000
234.4160, 9132.000
235.6330, 9298.000
236.8490, 9252.000
238.0660, 9438.000
239.2820, 9303.000
240.4980, 9358.000
241.7140, 9352.000
242.9300, 9428.000
244.1460, 9405.000
245.3610, 9347.000
246.5770, 9409.000
247.7920, 9321.000
249.0070, 9454.000
250.2220, 9505.000
251.4370, 9556.000
252.6510, 9605.000
253.8660, 9563.000
255.0800, 9744.000
256.2940, 9879.000
257.5080, 9852.000
258.7220, 9725.000
259.9360, 9812.000
261.1490, 9836.000
262.3630, 9774.000
263.5760, 9769.000
264.7890, 9866.000
266.0020, 9801.000
267.2150, 9808.000
268.4270, 9747.000
269.6400, 9740.562
270.8520, 9787.000
272.0640, 9747.000
273.2760, 9728.000
274.4880, 9784.000
275.7000, 9952.000
276.9120, 9890.000
278.1230, 9911.000
279.3340, 9916.000
280.5450, 9735.000
281.7560, 9785.000
282.9670, 9870.000
284.1780, 10031.00
285.3880, 9864.000
286.5980, 9951.000
287.8090, 9916.000
289.0190, 9911.000
290.2290, 9955.000
291.4380, 9943.000
292.6480, 9923.000
293.8570, 9842.000
295.0670, 9981.000
296.2760, 10032.00
297.4850, 9812.000
298.6930, 10008.00
299.9020, 10021.00
301.1110, 10048.00
302.3190, 10135.00
303.5270, 10026.00
304.7350, 10118.00
305.9430, 10132.00
307.1510, 10198.00
308.3580, 10116.00
309.5660, 10113.00
310.7730, 10107.00
311.9800, 10045.00
313.1870, 10198.00
314.3940, 10042.00
315.6010, 10327.00
316.8070, 10246.00
318.0130, 10177.00
319.2200, 10342.00
320.4260, 10373.00
321.6310, 10225.00
322.8370, 10374.00
324.0430, 10386.00
325.2480, 10276.00
326.4540, 10365.00
327.6590, 10282.00
328.8640, 10409.00
330.0680, 10468.00
331.2730, 10291.00
332.4780, 10518.00
333.6820, 10538.00
334.8860, 10498.00
336.0900, 10475.00
337.2940, 10478.00
338.4980, 10445.00
339.7010, 10665.00
340.9050, 10641.00
342.1080, 10726.00
343.3110, 10576.00
344.5140, 10657.00
345.7170, 10740.00
346.9200, 10698.00
348.1220, 10887.00
349.3240, 10669.00
350.5270, 10668.00
351.7290, 10563.00
352.9310, 10778.00
354.1320, 10771.00
355.3340, 10700.00
356.5350, 10838.00
357.7370, 10804.00
358.9380, 10942.00
360.1390, 10928.38
361.3400, 10828.00
362.5400, 10925.00
363.7410, 10858.00
364.9410, 10864.00
366.1410, 10947.00
367.3410, 11050.00
368.5410, 11007.00
369.7410, 10969.00
370.9400, 10952.00
372.1400, 11147.00
373.3390, 10973.00
374.5380, 11199.00
375.7370, 11059.00
376.9360, 11136.00
378.1350, 11077.00
379.3330, 11008.00
380.5310, 11158.00
381.7300, 11271.00
382.9280, 11183.00
384.1260, 11202.00
385.3230, 11151.00
386.5210, 11232.00
387.7180, 11286.00
388.9160, 11307.00
390.1130, 11250.00
391.3100, 11198.00
392.5060, 11374.00
393.7030, 11333.00
394.9000, 11390.00
396.0960, 11423.00
397.2920, 11274.00
398.4880, 11445.00
399.6840, 11477.00
400.8800, 11307.00
402.0750, 11555.00
403.2710, 11445.00
404.4660, 11420.00
405.6610, 11491.00
406.8560, 11487.00
408.0510, 11437.00
409.2450, 11496.73
410.4400, 11516.00
411.6340, 11593.00
412.8280, 11617.50
414.0220, 11700.00
415.2160, 11678.81
416.4100, 11695.00
417.6030, 11714.00
418.7970, 11704.88
419.9900, 11675.00
421.1830, 11707.00
422.3760, 11666.00
423.5690, 11663.00
424.7610, 11720.00
425.9540, 11786.00
427.1460, 11843.00
428.3380, 11813.00
429.5300, 11922.00
430.7220, 11929.00
431.9140, 11804.00
433.1050, 11934.00
434.2970, 11780.00
435.4880, 11964.00
436.6790, 11892.00
437.8700, 11942.00
439.0610, 11952.00
440.2510, 11996.00
441.4420, 12047.00
442.6320, 11929.00
443.8220, 12047.00
445.0120, 11941.00
446.2020, 12130.00
447.3910, 12035.00
448.5810, 12150.00
449.7700, 12128.00
450.9600, 12150.00
452.1490, 12178.00
453.3370, 12221.00
454.5260, 12184.00
455.7150, 12221.00
456.9030, 12172.00
458.0910, 12213.00
459.2800, 12188.00
460.4670, 12279.00
461.6550, 12243.00
462.8430, 12284.00
464.0300, 12402.00
465.2180, 12411.00
466.4050, 12350.00
467.5920, 12376.00
468.7790, 12304.00
469.9650, 12475.00
471.1520, 12447.00
472.3380, 12590.00
473.5250, 12491.00
474.7110, 12339.00
475.8970, 12416.00
477.0820, 12553.00
478.2680, 12526.00
479.4540, 12557.00
480.6390, 12633.00
481.8240, 12650.00
483.0090, 12646.00
484.1940, 12534.00
485.3780, 12643.00
486.5630, 12697.00
487.7470, 12558.00
488.9320, 12642.00
490.1160, 12564.00
491.3000, 12668.00
492.4830, 12791.00
493.6670, 12654.00
494.8500, 12836.00
496.0340, 12847.00
497.2170, 12725.00
498.4000, 12745.00
499.5820, 12707.00
500.7650, 12703.00
501.9480, 12737.00
503.1300, 12770.04
504.3120, 12840.53
505.4940, 12852.00
506.6760, 12876.48
507.8580, 12924.00
509.0390, 12888.00
510.2210, 12926.00
511.4020, 12919.00
512.5830, 12903.00
513.7640, 12980.00
514.9450, 12986.09
516.1250, 13081.00
517.3060, 13024.00
518.4860, 13058.00
519.6660, 12985.00
520.8460, 13061.00
522.0260, 13169.00
523.2060, 13215.00
524.3850, 13242.00
525.5650, 13196.00
526.7440, 13324.00
527.9230, 13167.00
529.1020, 13216.00
530.2810, 13331.00
531.4590, 13263.00
532.6380, 13379.00
533.8160, 13347.00
534.9940, 13350.00
536.1720, 13290.00
537.3500, 13154.00
538.5270, 13349.00
539.7050, 13406.00
540.8820, 13500.00
542.0590, 13434.00
543.2360, 13516.00
544.4130, 13505.00
545.5900, 13599.00
546.7660, 13484.00
547.9430, 13501.00
549.1190, 13496.00
550.2950, 13465.00
551.4710, 13679.00
552.6470, 13446.00
553.8220, 13504.00
554.9980, 13739.00
556.1730, 13701.00
557.3480, 13633.00
558.5230, 13602.00
559.6980, 13610.00
560.8730, 13775.00
562.0470, 13758.00
563.2220, 13800.00
564.3960, 13782.00
565.5700, 13820.00
566.7440, 13788.00
567.9170, 13806.00
569.0910, 13760.00
570.2640, 13871.00
571.4380, 13905.00
572.6110, 13836.00
573.7840, 14021.00
574.9570, 13935.00
576.1290, 13861.00
577.3020, 13987.00
578.4740, 14015.00
579.6460, 13973.00
580.8180, 13943.00
581.9900, 14040.00
583.1620, 13935.00
584.3330, 14064.00
585.5040, 14136.00
586.6760, 14053.00
587.8470, 14175.00
589.0180, 14193.00
590.1880, 13961.00
591.3590, 14234.00
592.5290, 14054.00
593.7000, 14182.00
594.8700, 14125.00
596.0400, 14297.00
597.2090, 14200.00
598.3790, 14354.00
599.5490, 14270.00
600.7180, 14279.00
601.8870, 14405.00
603.0560, 14426.00
604.2250, 14425.00
605.3940, 14271.00
606.5620, 14324.00
607.7300, 14344.00
608.8990, 14394.00
610.0670, 14519.00
611.2350, 14580.00
612.4020, 14696.00
613.5700, 14526.00
614.7370, 14467.00
615.9050, 14471.00
617.0720, 14439.36
618.2390, 14483.00
619.4060, 14503.00
620.5720, 14684.00
621.7390, 14727.00
622.9050, 14698.00
624.0710, 14629.00
625.2370, 14780.00
626.4030, 14837.00
627.5690, 14755.00
628.7340, 14790.00
629.9000, 14771.00
631.0650, 14712.00
632.2300, 14717.00
633.3950, 14844.00
634.5600, 14956.00
635.7240, 14819.00
636.8890, 14907.00
638.0530, 14873.00
639.2170, 14907.00
640.3810, 14987.00
641.5450, 14903.00
642.7080, 14910.00
643.8720, 14962.00
645.0350, 15060.00
646.1980, 14958.00
647.3610, 15018.00
648.5240, 14944.00
649.6870, 14856.00
650.8490, 15045.00
652.0120, 15057.00
653.1740, 14999.00
654.3360, 15079.00
655.4980, 15089.00
656.6600, 15031.00
657.8210, 15203.00
658.9830, 15039.00
660.1440, 15205.00
661.3050, 15094.00
662.4660, 15197.00
663.6270, 15191.00
664.7870, 15253.00
665.9480, 15170.00
667.1080, 15376.00
668.2680, 15235.00
669.4280, 15342.00
670.5880, 15381.00
671.7480, 15294.00
672.9070, 15286.00
674.0670, 15334.00
675.2260, 15412.00
676.3850, 15222.00
677.5440, 15435.00
678.7030, 15355.00
679.8610, 15446.00
681.0200, 15614.00
682.1780, 15532.00
683.3360, 15536.00
684.4940, 15454.00
685.6520, 15558.00
686.8090, 15600.00
687.9670, 15632.00
689.1240, 15765.00
690.2810, 15770.63
691.4380, 15779.00
692.5950, 15900.00
693.7520, 15876.00
694.9080, 16057.00
696.0650, 15922.00
697.2210, 15970.00
698.3770, 15884.00
699.5330, 15937.30
700.6880, 16041.00
701.8440, 16048.00
702.9990, 16157.00
704.1550, 16173.00
705.3100, 16364.00
706.4650, 16461.00
707.6190, 16836.00
708.7740, 16780.01
709.9290, 17119.00
711.0830, 16683.00
712.2370, 16441.00
713.3910, 16181.00
714.5450, 16417.00
715.6980, 16253.00
716.8520, 16268.00
718.0050, 16281.00
719.1580, 16244.00
720.3110, 16227.00
721.4640, 16084.00
722.6170, 16198.00
723.7700, 16088.00
724.9220, 16278.00
726.0740, 16306.00
727.2260, 16198.00
728.3780, 16272.00
729.5300, 16127.00
730.6810, 16303.00
731.8330, 16426.00
732.9840, 16329.00
734.1350, 16287.00
735.2860, 16232.00
736.4370, 16435.00
737.5880, 16370.00
738.7380, 16400.00
739.8880, 16282.00
741.0390, 16341.26
742.1890, 16484.00
743.3380, 16450.00
744.4880, 16437.00
745.6380, 16549.00
746.7870, 16502.00
747.9360, 16629.00
749.0850, 16443.00
750.2340, 16668.00
751.3830, 16535.00
752.5310, 16594.00
753.6800, 16583.00
754.8280, 16631.00
755.9760, 16645.00
757.1240, 16664.00
758.2720, 16519.00
759.4190, 16665.00
760.5670, 16664.00
761.7140, 16833.00
762.8610, 16842.00
764.0080, 16918.00
765.1550, 16701.00
766.3020, 16895.00
767.4480, 16860.00
768.5950, 16674.00
769.7410, 16802.00
770.8870, 16799.00
772.0330, 16916.00
773.1780, 16805.00
774.3240, 16851.00
775.4690, 17013.00
776.6140, 16841.00
777.7590, 17052.00
778.9040, 16884.00
780.0490, 17092.00
781.1940, 17095.00
782.3380, 16975.00
783.4820, 17075.00
784.6260, 17080.00
785.7700, 16941.00
786.9140, 17226.00
788.0580, 17269.00
789.2010, 17205.00
790.3450, 17047.00
791.4880, 17065.00
792.6310, 17314.00
793.7730, 17186.00
794.9160, 17121.00
796.0590, 17433.00
797.2010, 17295.00
798.3430, 17388.00
799.4850, 17458.00
800.6270, 17418.00
801.7690, 17462.00
802.9100, 17449.00
804.0520, 17351.00
805.1930, 17398.00
806.3340, 17494.00
807.4750, 17394.00
808.6160, 17498.00
809.7560, 17382.00
810.8970, 17545.00
812.0370, 17566.00
813.1770, 17631.00
814.3170, 17713.00
815.4570, 17565.00
816.5960, 17521.00
817.7360, 17585.00
818.8750, 17512.00
820.0140, 17737.00
821.1530, 17650.00
822.2920, 17640.00
823.4310, 17721.00
824.5690, 17663.00
825.7070, 17769.00
826.8460, 17756.00
827.9840, 17943.00
829.1220, 17823.00
830.2590, 17867.00
831.3970, 17992.00
832.5340, 17935.00
833.6710, 17840.00
834.8080, 18130.00
835.9450, 18055.00
837.0820, 18041.00
838.2190, 18180.00
839.3550, 18061.00
840.4910, 18215.00
841.6270, 17908.00
842.7630, 18070.00
843.8990, 17995.00
845.0350, 18083.00
846.1700, 17995.00
847.3060, 18002.00
848.4410, 18173.00
849.5760, 18182.00
850.7100, 18275.00
851.8450, 18340.00
852.9800, 18154.00
854.1140, 18240.00
855.2480, 18203.94
856.3820, 18355.00
857.5160, 18238.00
858.6500, 18329.00
859.7830, 18427.00
860.9170, 18406.00
862.0500, 18538.00
863.1830, 18477.00
864.3160, 18536.00
865.4480, 18551.00
866.5810, 18688.00
867.7130, 18587.00
868.8460, 18413.00
869.9780, 18605.00
871.1100, 18387.00
872.2410, 18558.00
873.3730, 18623.00
874.5050, 18644.00
875.6360, 18751.00
876.7670, 18640.00
877.8980, 18686.00
879.0290, 18690.00
880.1590, 18793.00
881.2900, 18734.00
882.4200, 18725.00
883.5500, 18670.00
884.6800, 18733.00
885.8100, 18790.00
886.9400, 18785.00
888.0690, 18746.00
889.1990, 18803.00
890.3280, 18879.00
891.4570, 18806.00
892.5860, 19003.00
893.7140, 18917.00
894.8430, 19040.00
895.9710, 19158.00
897.1000, 18917.00
898.2280, 19012.00
899.3560, 18954.00
900.4830, 19117.00
901.6110, 19055.00
902.7380, 19045.00
903.8660, 19082.00
904.9930, 19090.00
906.1200, 19185.00
907.2460, 19193.00
908.3730, 19224.00
909.5000, 19099.00
910.6260, 19425.00
911.7520, 19304.00
912.8780, 19188.00
914.0040, 19393.00
915.1290, 19307.00
916.2550, 19436.00
917.3800, 19428.00
918.5050, 19456.00
919.6300, 19281.00
920.7550, 19383.00
921.8800, 19406.00
923.0040, 19500.00
924.1290, 19466.00
925.2530, 19492.00
926.3770, 19535.00
927.5010, 19547.00
928.6250, 19587.00
929.7480, 19601.00
930.8720, 19619.88
931.9950, 19636.32
933.1180, 19658.00
934.2410, 19646.00
935.3640, 19676.11
936.4860, 19661.00
937.6090, 19812.00
938.7310, 19758.00
939.8530, 19857.00
940.9750, 19752.00
942.0970, 19802.00
943.2180, 19790.00
944.3400, 19805.00
945.4610, 19821.00
946.5820, 19979.00
947.7030, 19898.00
948.8240, 19798.00
949.9450, 20085.00
951.0650, 20039.00
952.1860, 19879.00
953.3060, 19873.00
954.4260, 19993.00
955.5460, 19929.00
956.6650, 20001.30
957.7850, 20068.00
958.9040, 20097.00
960.0230, 20153.00
961.1420, 20235.00
962.2610, 20327.00
963.3800, 20343.42
964.4990, 20166.00
965.6170, 20416.00
966.7350, 20248.00
967.8530, 20336.00
968.9710, 20324.00
970.0890, 20505.00
971.2070, 20163.00
972.3240, 20223.00
973.4410, 20380.00
974.5580, 20255.00
975.6750, 20442.00
976.7920, 20584.00
977.9090, 20390.00
979.0250, 20296.00
980.1410, 20514.00
981.2580, 20494.00
982.3740, 20419.00
983.4890, 20412.00
984.6050, 20533.00
985.7200, 20665.00
986.8360, 20526.00
987.9510, 20693.00
989.0660, 20624.00
990.1810, 20824.00
991.2950, 20817.00
992.4100, 20750.00
993.5240, 20798.00
994.6390, 20754.00
995.7530, 20968.00
996.8660, 20937.00
997.9800, 20905.00
999.0940, 20860.00
1000.207, 20876.00
1001.320, 20776.00
1002.433, 20964.00
1003.546, 20830.00
1004.659, 21000.00
1005.772, 20984.00
1006.884, 20995.00
1007.996, 21034.00
1009.108, 20953.00
1010.220, 21071.00
1011.332, 20949.00
1012.444, 21252.00
1013.555, 21122.00
1014.666, 21180.00
1015.777, 21302.00
1016.888, 21149.00
1017.999, 21286.00
1019.110, 21446.00
1020.220, 21236.00
1021.331, 21186.00
1022.441, 21471.00
1023.551, 21328.00
1024.661, 21246.00
1025.770, 21224.00
1026.880, 21213.00
1027.989, 21409.00
1029.098, 21449.00
1030.207, 21477.00
1031.316, 21370.00
1032.425, 21434.00
1033.533, 21412.00
1034.642, 21439.00
1035.750, 21451.00
1036.858, 21477.00
1037.966, 21611.00
1039.073, 21641.00
1040.181, 21659.00
1041.288, 21503.00
1042.396, 21693.00
1043.503, 21823.00
1044.610, 21637.00
1045.716, 21699.00
1046.823, 21744.00
1047.929, 21724.00
1049.036, 21909.00
1050.142, 21859.00
1051.248, 22091.00
1052.353, 21953.00
1053.459, 21885.00
1054.564, 21840.00
1055.670, 21835.66
1056.775, 22113.00
1057.880, 21958.00
1058.985, 22067.00
1060.089, 22244.00
1061.194, 22074.00
1062.298, 22100.00
1063.402, 22263.00
1064.506, 22296.00
1065.610, 22482.00
1066.713, 22668.00
1067.817, 22577.00
1068.920, 22785.00
1070.023, 22857.00
1071.126, 23002.00
1072.229, 22813.00
1073.332, 23001.00
1074.435, 22698.00
1075.537, 22654.00
1076.639, 22673.00
1077.741, 22655.00
1078.843, 22761.00
1079.945, 22986.00
1081.046, 23307.00
1082.148, 23660.00
1083.249, 24439.00
1084.350, 26597.00
1085.451, 30738.00
1086.551, 34995.00
1087.652, 40704.00
1088.752, 53171.00
1089.853, 61279.00
1090.953, 54082.00
1092.053, 39377.00
1093.152, 30751.00
1094.252, 26541.00
1095.351, 24763.00
1096.451, 24025.00
1097.550, 23458.00
1098.649, 23235.00
1099.748, 22960.00
1100.846, 23183.00
1101.945, 22992.00
1103.043, 23071.00
1104.141, 22999.00
1105.239, 22913.00
1106.337, 23040.00
1107.434, 22891.00
1108.532, 23076.00
1109.629, 22935.00
1110.726, 23282.00
1111.823, 23090.00
1112.920, 23191.00
1114.017, 23299.00
1115.113, 23135.00
1116.210, 23216.00
1117.306, 23102.00
1118.402, 23352.00
1119.498, 23244.00
1120.593, 23288.00
1121.689, 23153.00
1122.784, 23306.00
1123.879, 23239.33
1124.974, 23285.00
1126.069, 23252.00
1127.164, 23264.00
1128.259, 23347.00
1129.353, 23398.00
1130.447, 23419.00
1131.541, 23396.00
1132.635, 23525.00
1133.729, 23545.00
1134.822, 23580.00
1135.916, 23370.00
1137.009, 23440.00
1138.102, 23527.00
1139.195, 23617.00
1140.288, 23641.00
1141.380, 23683.00
1142.473, 23659.00
1143.565, 23565.00
1144.657, 23797.00
1145.749, 23915.00
1146.841, 23766.00
1147.932, 23708.00
1149.024, 23743.00
1150.115, 23751.00
1151.206, 23878.00
1152.297, 23893.00
1153.388, 23940.00
1154.479, 23815.00
1155.569, 23844.00
1156.659, 24092.00
1157.750, 23823.00
1158.839, 24102.00
1159.929, 24061.00
1161.019, 24155.00
1162.108, 24016.00
1163.198, 24093.00
1164.287, 24187.00
1165.376, 24276.00
1166.465, 24332.00
1167.553, 23984.00
1168.642, 24060.00
1169.730, 24136.00
1170.818, 24252.00
1171.906, 24383.00
1172.994, 24312.00
1174.082, 24347.00
1175.170, 24364.00
1176.257, 24307.00
1177.344, 24436.00
1178.431, 24539.00
1179.518, 24303.00
1180.605, 24668.00
1181.691, 24622.00
1182.778, 24569.00
1183.864, 24746.00
1184.950, 24514.00
1186.036, 24667.00
1187.122, 24682.00
1188.207, 24716.00
1189.292, 24711.00
1190.378, 24643.00
1191.463, 24626.00
1192.548, 24665.00
1193.632, 24583.00
1194.717, 24863.00
1195.801, 24983.00
1196.886, 24951.00
1197.970, 24977.00
1199.054, 24923.00
1200.137, 24866.00
1201.221, 24797.00
1202.305, 24797.45
1203.388, 24825.82
1204.471, 24869.00
1205.554, 24976.00
1206.637, 25164.00
1207.719, 25304.00
1208.802, 24926.00
1209.884, 25087.00
1210.966, 25223.00
1212.048, 25301.00
1213.130, 25478.00
1214.212, 25318.00
1215.293, 25133.00
1216.374, 25325.00
1217.456, 25339.00
1218.536, 25307.00
1219.617, 25181.00
1220.698, 25272.00
1221.778, 25318.00
1222.859, 25457.00
1223.939, 25288.00
1225.019, 25479.00
1226.099, 25568.00
1227.178, 25206.00
1228.258, 25623.00
1229.337, 25669.00
1230.417, 25546.00
1231.496, 25442.00
1232.574, 25642.00
1233.653, 25655.00
1234.732, 25566.00
1235.810, 25753.00
1236.888, 25486.00
1237.966, 25739.00
1239.044, 25905.00
1240.122, 25872.00
1241.199, 25881.00
1242.277, 25716.00
1243.354, 25919.00
1244.431, 25791.00
1245.508, 25981.00
1246.585, 25998.00
1247.661, 25983.00
1248.738, 26014.00
1249.814, 26071.00
1250.890, 26035.00
1251.966, 25928.00
1253.042, 25878.00
1254.117, 25936.00
1255.193, 26073.00
1256.268, 26037.00
1257.343, 26158.00
1258.418, 26038.00
1259.493, 25950.00
1260.567, 26210.00
1261.642, 26353.00
1262.716, 26238.00
1263.790, 26312.00
1264.864, 26404.00
1265.938, 26330.00
1267.011, 26380.00
1268.085, 26381.00
1269.158, 26606.00
1270.231, 26382.00
1271.304, 26366.00
1272.377, 26568.00
1273.450, 26407.00
1274.522, 26281.00
1275.594, 26404.00
1276.666, 26491.00
1277.738, 26624.00
1278.810, 26662.00
1279.882, 26682.00
1280.953, 26562.00
1282.025, 26597.00
1283.096, 26652.00
1284.167, 26595.00
1285.238, 26655.00
1286.308, 26775.00
1287.379, 26749.00
1288.449, 26824.00
1289.519, 26831.00
1290.589, 26835.00
1291.659, 26806.00
1292.729, 26824.00
1293.798, 26757.00
1294.868, 26805.00
1295.937, 26733.00
1297.006, 27069.00
1298.075, 27044.00
1299.143, 27035.00
1300.212, 26874.00
1301.280, 27090.00
1302.348, 27207.00
1303.416, 27091.00
1304.484, 27469.00
1305.552, 27137.00
1306.620, 27083.00
1307.687, 27304.00
1308.754, 27124.00
1309.821, 27411.00
1310.888, 27329.00
1311.955, 27395.00
1313.021, 27391.00
1314.088, 27343.00
1315.154, 27514.00
1316.220, 27408.00
1317.286, 27735.00
1318.352, 27583.00
1319.417, 27474.00
1320.483, 27698.00
1321.548, 27716.00
1322.613, 27698.00
1323.678, 27545.00
1324.743, 27773.00
1325.807, 27770.00
1326.872, 27727.00
1327.936, 27992.00
1329.000, 27787.00
1330.064, 27877.00
1331.128, 27822.00
1332.191, 27790.00
1333.255, 27695.00
1334.318, 27715.00
1335.381, 27836.00
1336.444, 27986.00
1337.507, 28173.00
1338.569, 28194.46
1339.632, 28307.99
1340.694, 28226.00
1341.756, 28338.00
1342.818, 28306.00
1343.880, 28141.00
1344.941, 28232.00
1346.003, 28334.00
1347.064, 28488.00
1348.125, 28276.00
1349.186, 28142.00
1350.247, 28281.00
1351.308, 28235.00
1352.368, 28431.00
1353.428, 28549.00
1354.489, 28343.00
1355.549, 28497.00
1356.608, 28585.00
1357.668, 28446.00
1358.727, 28622.00
1359.787, 28564.00
1360.846, 28522.00
1361.905, 28626.00
1362.964, 28694.00
1364.022, 28582.00
1365.081, 28641.00
1366.139, 28570.00
1367.197, 28621.73
1368.255, 28544.00
1369.313, 28800.00
1370.371, 28621.00
1371.428, 28816.00
1372.486, 28839.00
1373.543, 28782.00
1374.600, 29114.00
1375.657, 28945.00
1376.713, 29017.00
1377.770, 28787.00
1378.826, 28797.00
1379.882, 29063.00
1380.938, 29233.00
1381.994, 29287.00
1383.050, 29302.04
1384.106, 28835.00
1385.161, 29219.00
1386.216, 29056.00
1387.271, 29170.00
1388.326, 29382.00
1389.381, 29228.00
1390.435, 29537.00
1391.490, 29189.00
1392.544, 29124.00
1393.598, 29235.00
1394.652, 29476.00
1395.705, 29301.00
1396.759, 29469.00
1397.812, 29380.00
1398.866, 29589.00
1399.919, 29552.00
1400.972, 29605.00
1402.024, 29496.00
1403.077, 29420.00
1404.129, 29546.00
1405.181, 29718.00
1406.233, 29466.00
1407.285, 29721.00
1408.337, 29405.00
1409.389, 29738.00
1410.440, 29681.00
1411.491, 29867.00
1412.542, 29794.00
1413.593, 29862.00
1414.644, 29945.00
1415.695, 29781.00
1416.745, 29824.00
1417.795, 29694.00
1418.845, 29841.00
1419.895, 29817.00
1420.945, 29844.00
1421.995, 29679.00
1423.044, 29812.15
1424.093, 29786.00
1425.142, 29976.00
1426.191, 30111.00
1427.240, 30151.00
1428.289, 30244.18
1429.337, 30187.00
1430.385, 30289.00
1431.433, 30383.00
1432.481, 30359.00
1433.529, 30131.00
1434.577, 30312.00
1435.624, 30141.00
1436.672, 30304.00
1437.719, 30223.00
1438.766, 30333.00
1439.812, 30375.00
1440.859, 30456.00
1441.905, 30440.00
1442.952, 30522.00
1443.998, 30644.00
1445.044, 30596.23
1446.090, 30495.00
1447.135, 30593.00
1448.181, 30540.00
1449.226, 30600.00
1450.271, 30437.00
1451.316, 30764.00
1452.361, 30788.00
1453.405, 30862.00
1454.450, 30693.00
1455.494, 30526.00
1456.538, 30596.00
1457.582, 30875.00
1458.626, 31049.00
1459.670, 30797.00
1460.713, 30924.00
1461.757, 30695.00
1462.800, 30759.00
1463.843, 31015.00
1464.886, 31180.00
1465.928, 31211.00
1466.971, 31197.00
1468.013, 31736.00
1469.055, 31919.00
1470.097, 31852.00
1471.139, 32025.00
1472.181, 31958.00
1473.222, 31536.00
1474.263, 31191.00
1475.305, 31566.00
1476.346, 31591.00
1477.386, 31573.00
1478.427, 31575.00
1479.468, 31550.00
1480.508, 31424.00
1481.548, 31600.00
1482.588, 31346.00
1483.628, 31464.00
1484.668, 31519.00
1485.707, 31364.00
1486.747, 31690.00
1487.786, 31433.00
1488.825, 31673.00
1489.864, 31677.00
1490.902, 31726.00
1491.941, 31582.00
1492.979, 31806.00
1494.017, 31693.00
1495.055, 31786.00
1496.093, 31829.00
1497.131, 31766.00
1498.168, 31650.00
1499.206, 31732.00
1500.243, 31740.00
1501.280, 31797.00
1502.317, 31845.00
1503.354, 31844.00
1504.390, 31932.00
1505.426, 32369.00
1506.463, 32052.00
1507.499, 31752.00
1508.535, 32187.00
1509.570, 32080.00
1510.606, 32102.00
1511.641, 31927.00
1512.676, 32207.00
1513.711, 31889.00
1514.746, 32131.00
1515.781, 32331.00
1516.816, 32176.00
1517.850, 32263.00
1518.884, 32287.00
1519.918, 32232.00
1520.952, 32513.00
1521.986, 32570.00
1523.019, 32488.00
1524.053, 32510.00
1525.086, 32342.00
1526.119, 32789.00
1527.152, 32588.00
1528.185, 32688.00
1529.217, 32404.00
1530.250, 32685.00
1531.282, 32616.00
1532.314, 32599.00
1533.346, 32718.00
1534.377, 32519.00
1535.409, 32899.00
1536.440, 32681.00
1537.472, 32502.00
1538.503, 32714.00
1539.534, 32919.00
1540.564, 33074.00
1541.595, 33030.00
1542.625, 33164.90
1543.656, 32830.00
1544.686, 33131.00
1545.716, 33110.00
1546.745, 32835.00
1547.775, 33062.00
1548.804, 33041.00
1549.834, 32922.00
1550.863, 33118.00
1551.892, 33227.00
1552.920, 33150.00
1553.949, 33377.00
1554.977, 33187.00
1556.006, 33263.00
1557.034, 33322.00
1558.062, 33437.00
1559.089, 33498.00
1560.117, 33350.00
1561.144, 33414.00
1562.172, 33548.00
1563.199, 33381.00
1564.226, 33663.00
1565.252, 33528.00
1566.279, 33517.00
1567.305, 33535.00
1568.332, 33588.00
1569.358, 33587.00
1570.384, 33892.00
##END=



