##NAMES=Shortite
##RRUFFID=R050248
##IDEAL CHEMISTRY=Na_2_Ca_2_(CO_3_)_3_
##LOCALITY=Stauffer mine, Green River, Wyoming, USA
##OWNER=RRUFF
##SOURCE=Marcus Origlieri
##DESCRIPTION=Colorless wedge-shaped single crystal
##STATUS=The identification of this mineral has been confirmed by X-ray diffraction and chemical analysis
##URL=rruff.info/R050248
##MEASURED CHEMISTRY=Na_2.00_Ca_2.00_(CO_3_)_3_ ; CO2 not measured but estimated by difference and stoichiometry.
##PIN_ID=L00721
##ORIENTATION=Laser parallel to b* (0 1 0). Fiducial mark perpendicular to laser is parallel to -c [0 0 -1]
108.2800, 7457.000
109.5120, 7502.000
110.7440, 7619.000
111.9760, 7587.000
113.2080, 7642.000
114.4400, 7706.000
115.6710, 7868.000
116.9030, 7849.000
118.1340, 7939.000
119.3650, 7827.000
120.5960, 7968.000
121.8270, 8013.000
123.0580, 8031.000
124.2880, 8169.000
125.5190, 8100.000
126.7490, 8392.000
127.9790, 8425.000
129.2090, 8596.000
130.4390, 8886.000
131.6680, 8973.000
132.8980, 9189.000
134.1270, 9497.000
135.3560, 9890.000
136.5850, 10189.00
137.8140, 10464.00
139.0430, 10474.00
140.2710, 10153.00
141.5000, 9947.000
142.7280, 9684.000
143.9560, 9497.897
145.1840, 9187.000
146.4120, 9178.000
147.6390, 8983.000
148.8670, 8848.000
150.0940, 8910.000
151.3210, 8945.000
152.5490, 9054.000
153.7750, 9068.000
155.0020, 8969.000
156.2290, 9092.000
157.4550, 9093.000
158.6810, 9246.000
159.9080, 9470.000
161.1340, 9563.000
162.3590, 9678.000
163.5850, 10009.00
164.8110, 10268.00
166.0360, 10725.00
167.2610, 11020.00
168.4860, 11294.00
169.7110, 11251.00
170.9360, 10817.00
172.1610, 10719.00
173.3850, 10271.00
174.6100, 10028.00
175.8340, 9859.000
177.0580, 9856.000
178.2820, 9826.000
179.5050, 9977.000
180.7290, 9761.000
181.9520, 9855.000
183.1760, 9544.000
184.3990, 9632.000
185.6220, 9593.000
186.8450, 9686.000
188.0670, 9762.000
189.2900, 9730.000
190.5120, 9921.000
191.7340, 9966.000
192.9560, 10038.00
194.1780, 10352.00
195.4000, 10559.00
196.6220, 10871.00
197.8430, 11005.00
199.0640, 11051.00
200.2860, 11163.02
201.5070, 11067.00
202.7270, 11084.00
203.9480, 10971.00
205.1690, 10886.15
206.3890, 10643.00
207.6090, 10633.00
208.8290, 10494.00
210.0490, 10286.00
211.2690, 10180.00
212.4890, 10180.00
213.7080, 10025.00
214.9280, 10053.00
216.1470, 9899.000
217.3660, 9997.000
218.5850, 9968.000
219.8030, 9986.000
221.0220, 9873.000
222.2400, 9939.000
223.4590, 9952.000
224.6770, 9972.000
225.8950, 9990.000
227.1120, 10095.00
228.3300, 10086.00
229.5480, 10057.00
230.7650, 10071.00
231.9820, 10239.00
233.1990, 10242.00
234.4160, 10262.00
235.6330, 10317.00
236.8490, 10292.00
238.0660, 10394.00
239.2820, 10407.00
240.4980, 10425.00
241.7140, 10471.00
242.9300, 10709.00
244.1460, 10651.00
245.3610, 10826.00
246.5770, 10718.00
247.7920, 11013.00
249.0070, 11048.00
250.2220, 11263.00
251.4370, 11387.00
252.6510, 11589.00
253.8660, 11840.00
255.0800, 12000.00
256.2940, 12481.00
257.5080, 12790.00
258.7220, 13144.00
259.9360, 13272.00
261.1490, 13371.00
262.3630, 13559.00
263.5760, 13609.00
264.7890, 13818.00
266.0020, 13553.00
267.2150, 13479.00
268.4270, 13260.00
269.6400, 12771.00
270.8520, 12556.00
272.0640, 12208.00
273.2760, 11995.00
274.4880, 11660.00
275.7000, 11498.00
276.9120, 11243.00
278.1230, 11181.00
279.3340, 11187.00
280.5450, 11046.00
281.7560, 11091.00
282.9670, 10816.00
284.1780, 10875.00
285.3880, 10870.00
286.5980, 10742.00
287.8090, 10910.00
289.0190, 10822.00
290.2290, 10979.00
291.4380, 10855.00
292.6480, 10886.00
293.8570, 10781.00
295.0670, 10967.00
296.2760, 10900.00
297.4850, 10891.00
298.6930, 11092.00
299.9020, 10834.00
301.1110, 10861.00
302.3190, 10934.00
303.5270, 10836.00
304.7350, 10996.00
305.9430, 10997.00
307.1510, 10972.00
308.3580, 10991.00
309.5660, 10957.00
310.7730, 11066.00
311.9800, 11118.00
313.1870, 10905.00
314.3940, 11104.00
315.6010, 10960.00
316.8070, 11143.00
318.0130, 11017.00
319.2200, 11099.00
320.4260, 11158.00
321.6310, 11148.00
322.8370, 11202.00
324.0430, 11140.00
325.2480, 11292.00
326.4540, 11239.00
327.6590, 11325.00
328.8640, 11305.00
330.0680, 11259.00
331.2730, 11322.00
332.4780, 11301.00
333.6820, 11499.00
334.8860, 11324.00
336.0900, 11432.00
337.2940, 11265.00
338.4980, 11301.00
339.7010, 11499.00
340.9050, 11533.00
342.1080, 11446.00
343.3110, 11479.00
344.5140, 11447.00
345.7170, 11436.00
346.9200, 11479.00
348.1220, 11487.00
349.3240, 11525.78
350.5270, 11545.00
351.7290, 11619.00
352.9310, 11623.00
354.1320, 11680.50
355.3340, 11590.00
356.5350, 11686.00
357.7370, 11649.00
358.9380, 11613.00
360.1390, 11629.00
361.3400, 11732.00
362.5400, 11830.00
363.7410, 11780.00
364.9410, 11638.00
366.1410, 11820.00
367.3410, 11721.00
368.5410, 11765.00
369.7410, 11727.00
370.9400, 11836.00
372.1400, 11869.00
373.3390, 11892.00
374.5380, 11949.00
375.7370, 11921.00
376.9360, 11958.00
378.1350, 11928.00
379.3330, 12020.00
380.5310, 11914.00
381.7300, 11901.00
382.9280, 11923.00
384.1260, 11999.00
385.3230, 12083.00
386.5210, 12043.00
387.7180, 12008.00
388.9160, 12142.00
390.1130, 12131.00
391.3100, 12103.00
392.5060, 12177.00
393.7030, 12087.00
394.9000, 12174.00
396.0960, 12165.00
397.2920, 12205.00
398.4880, 12283.00
399.6840, 12350.00
400.8800, 12201.00
402.0750, 12290.00
403.2710, 12238.00
404.4660, 12438.00
405.6610, 12258.00
406.8560, 12480.00
408.0510, 12373.00
409.2450, 12473.00
410.4400, 12395.00
411.6340, 12562.00
412.8280, 12391.00
414.0220, 12453.00
415.2160, 12283.00
416.4100, 12463.00
417.6030, 12578.00
418.7970, 12520.00
419.9900, 12555.00
421.1830, 12456.00
422.3760, 12539.00
423.5690, 12542.00
424.7610, 12641.00
425.9540, 12665.00
427.1460, 12596.00
428.3380, 12664.00
429.5300, 12600.00
430.7220, 12721.00
431.9140, 12704.00
433.1050, 12895.00
434.2970, 12802.00
435.4880, 12946.00
436.6790, 12913.00
437.8700, 12903.00
439.0610, 12816.00
440.2510, 12867.00
441.4420, 12911.00
442.6320, 12908.00
443.8220, 12942.00
445.0120, 12932.00
446.2020, 12900.00
447.3910, 12870.00
448.5810, 12957.00
449.7700, 13037.00
450.9600, 12964.00
452.1490, 12972.00
453.3370, 13181.00
454.5260, 13067.00
455.7150, 13121.00
456.9030, 13062.00
458.0910, 13159.00
459.2800, 13096.00
460.4670, 13249.00
461.6550, 13125.00
462.8430, 13240.00
464.0300, 13321.00
465.2180, 13226.00
466.4050, 13266.00
467.5920, 13274.00
468.7790, 13210.00
469.9650, 13339.00
471.1520, 13362.00
472.3380, 13342.00
473.5250, 13454.00
474.7110, 13528.00
475.8970, 13408.00
477.0820, 13440.00
478.2680, 13594.00
479.4540, 13480.00
480.6390, 13533.00
481.8240, 13498.00
483.0090, 13548.00
484.1940, 13547.00
485.3780, 13660.00
486.5630, 13654.00
487.7470, 13650.00
488.9320, 13656.00
490.1160, 13642.00
491.3000, 13620.00
492.4830, 13705.00
493.6670, 13792.00
494.8500, 13717.00
496.0340, 13616.00
497.2170, 13777.00
498.4000, 13713.00
499.5820, 13788.00
500.7650, 13890.00
501.9480, 13789.00
503.1300, 13788.00
504.3120, 13806.00
505.4940, 13864.00
506.6760, 13822.00
507.8580, 13953.00
509.0390, 14017.00
510.2210, 13801.00
511.4020, 13984.00
512.5830, 13844.00
513.7640, 14033.00
514.9450, 14028.00
516.1250, 14022.00
517.3060, 13972.00
518.4860, 14123.00
519.6660, 14105.00
520.8460, 14016.00
522.0260, 14174.00
523.2060, 14186.00
524.3850, 14347.00
525.5650, 14101.00
526.7440, 14284.00
527.9230, 14284.00
529.1020, 14352.00
530.2810, 14330.00
531.4590, 14295.00
532.6380, 14387.00
533.8160, 14298.00
534.9940, 14390.00
536.1720, 14342.00
537.3500, 14343.00
538.5270, 14393.00
539.7050, 14517.00
540.8820, 14552.00
542.0590, 14498.00
543.2360, 14572.00
544.4130, 14441.00
545.5900, 14470.00
546.7660, 14572.00
547.9430, 14576.00
549.1190, 14726.00
550.2950, 14668.00
551.4710, 14642.00
552.6470, 14628.00
553.8220, 14731.00
554.9980, 14608.00
556.1730, 14850.00
557.3480, 14717.00
558.5230, 14901.00
559.6980, 14753.00
560.8730, 14824.00
562.0470, 14851.00
563.2220, 14831.00
564.3960, 14917.00
565.5700, 14857.00
566.7440, 15025.00
567.9170, 14926.00
569.0910, 15000.00
570.2640, 14973.00
571.4380, 15021.00
572.6110, 15011.64
573.7840, 15033.00
574.9570, 14985.00
576.1290, 15014.00
577.3020, 15003.00
578.4740, 15193.00
579.6460, 14963.00
580.8180, 15204.00
581.9900, 15188.00
583.1620, 15184.00
584.3330, 15110.00
585.5040, 15065.00
586.6760, 15306.00
587.8470, 15214.00
589.0180, 15189.00
590.1880, 15255.00
591.3590, 15216.00
592.5290, 15334.00
593.7000, 15392.00
594.8700, 15312.00
596.0400, 15352.00
597.2090, 15369.00
598.3790, 15272.00
599.5490, 15481.00
600.7180, 15489.00
601.8870, 15497.00
603.0560, 15647.00
604.2250, 15537.00
605.3940, 15568.00
606.5620, 15575.00
607.7300, 15569.00
608.8990, 15594.00
610.0670, 15670.00
611.2350, 15662.75
612.4020, 15697.59
613.5700, 15682.00
614.7370, 15756.00
615.9050, 15735.00
617.0720, 15818.34
618.2390, 15836.00
619.4060, 15826.00
620.5720, 15918.00
621.7390, 15809.00
622.9050, 15877.00
624.0710, 15789.00
625.2370, 15841.30
626.4030, 15842.00
627.5690, 15942.00
628.7340, 15934.00
629.9000, 15974.00
631.0650, 15899.00
632.2300, 15831.00
633.3950, 16089.00
634.5600, 16152.00
635.7240, 16032.00
636.8890, 16098.00
638.0530, 16167.00
639.2170, 16083.00
640.3810, 16091.00
641.5450, 16156.00
642.7080, 16216.00
643.8720, 16140.00
645.0350, 16151.00
646.1980, 16331.00
647.3610, 16180.00
648.5240, 16192.00
649.6870, 16296.00
650.8490, 16216.00
652.0120, 16397.00
653.1740, 16356.00
654.3360, 16434.00
655.4980, 16467.00
656.6600, 16324.00
657.8210, 16498.00
658.9830, 16486.00
660.1440, 16423.00
661.3050, 16528.00
662.4660, 16504.00
663.6270, 16428.00
664.7870, 16571.00
665.9480, 16643.00
667.1080, 16557.00
668.2680, 16717.00
669.4280, 16596.00
670.5880, 16745.00
671.7480, 16668.00
672.9070, 16846.00
674.0670, 16788.00
675.2260, 16690.00
676.3850, 16557.00
677.5440, 16812.00
678.7030, 16860.00
679.8610, 16795.00
681.0200, 16992.00
682.1780, 16865.00
683.3360, 16869.00
684.4940, 17100.00
685.6520, 17035.00
686.8090, 17054.00
687.9670, 16990.00
689.1240, 17091.00
690.2810, 17089.04
691.4380, 17272.00
692.5950, 17180.00
693.7520, 17326.00
694.9080, 17407.00
696.0650, 17512.00
697.2210, 17285.00
698.3770, 17232.00
699.5330, 17232.00
700.6880, 17192.96
701.8440, 17251.64
702.9990, 17306.00
704.1550, 17420.00
705.3100, 17552.00
706.4650, 17705.00
707.6190, 17870.00
708.7740, 17921.99
709.9290, 18059.00
711.0830, 17942.00
712.2370, 17994.00
713.3910, 17830.00
714.5450, 17726.00
715.6980, 17831.00
716.8520, 17855.00
718.0050, 17881.61
719.1580, 18038.00
720.3110, 17923.00
721.4640, 17887.00
722.6170, 17747.00
723.7700, 17638.00
724.9220, 17606.00
726.0740, 17712.00
727.2260, 17786.00
728.3780, 17645.00
729.5300, 17607.00
730.6810, 17833.00
731.8330, 17844.00
732.9840, 17929.00
734.1350, 17969.30
735.2860, 17899.00
736.4370, 17937.00
737.5880, 17915.00
738.7380, 17829.00
739.8880, 17988.00
741.0390, 18003.00
742.1890, 17900.00
743.3380, 17920.00
744.4880, 18037.00
745.6380, 18187.00
746.7870, 18118.00
747.9360, 18101.00
749.0850, 17987.00
750.2340, 18079.00
751.3830, 18139.00
752.5310, 18138.00
753.6800, 18039.00
754.8280, 18227.00
755.9760, 18195.00
757.1240, 18239.00
758.2720, 18335.00
759.4190, 18197.00
760.5670, 18211.00
761.7140, 18187.00
762.8610, 18309.00
764.0080, 18421.00
765.1550, 18441.00
766.3020, 18330.00
767.4480, 18317.00
768.5950, 18322.00
769.7410, 18451.00
770.8870, 18453.00
772.0330, 18576.00
773.1780, 18577.00
774.3240, 18654.00
775.4690, 18646.00
776.6140, 18566.00
777.7590, 18631.00
778.9040, 18766.00
780.0490, 18634.00
781.1940, 18677.00
782.3380, 18758.00
783.4820, 18603.00
784.6260, 18850.00
785.7700, 18754.00
786.9140, 18724.00
788.0580, 18925.00
789.2010, 18787.00
790.3450, 18909.00
791.4880, 18952.00
792.6310, 18902.00
793.7730, 18924.00
794.9160, 18976.00
796.0590, 18976.00
797.2010, 18987.00
798.3430, 19010.97
799.4850, 19049.00
800.6270, 19055.00
801.7690, 19052.00
802.9100, 19108.00
804.0520, 19197.00
805.1930, 19183.00
806.3340, 19301.00
807.4750, 19223.00
808.6160, 19413.00
809.7560, 19301.00
810.8970, 19270.00
812.0370, 19224.00
813.1770, 19411.00
814.3170, 19350.00
815.4570, 19393.00
816.5960, 19548.00
817.7360, 19461.00
818.8750, 19544.00
820.0140, 19505.00
821.1530, 19514.00
822.2920, 19438.00
823.4310, 19419.00
824.5690, 19723.00
825.7070, 19628.00
826.8460, 19678.00
827.9840, 19611.00
829.1220, 19563.00
830.2590, 19651.00
831.3970, 19626.00
832.5340, 19548.00
833.6710, 19644.00
834.8080, 19881.00
835.9450, 19634.00
837.0820, 19835.00
838.2190, 19833.00
839.3550, 19863.00
840.4910, 19956.00
841.6270, 19937.00
842.7630, 19867.00
843.8990, 19881.00
845.0350, 19801.00
846.1700, 19967.00
847.3060, 19916.00
848.4410, 20003.00
849.5760, 19997.00
850.7100, 20092.00
851.8450, 20085.00
852.9800, 20031.00
854.1140, 20226.00
855.2480, 20239.00
856.3820, 20196.00
857.5160, 20425.00
858.6500, 20418.00
859.7830, 20247.00
860.9170, 20394.00
862.0500, 20483.00
863.1830, 20715.00
864.3160, 20723.00
865.4480, 20622.00
866.5810, 20635.00
867.7130, 20681.00
868.8460, 20561.00
869.9780, 20507.00
871.1100, 20461.00
872.2410, 20465.40
873.3730, 20466.71
874.5050, 20547.00
875.6360, 20535.00
876.7670, 20589.00
877.8980, 20649.00
879.0290, 20673.00
880.1590, 20770.00
881.2900, 20743.00
882.4200, 20724.00
883.5500, 20888.00
884.6800, 20859.00
885.8100, 20774.00
886.9400, 20922.00
888.0690, 20853.00
889.1990, 20714.00
890.3280, 21015.00
891.4570, 20767.00
892.5860, 21048.00
893.7140, 20973.00
894.8430, 21048.00
895.9710, 20977.00
897.1000, 21125.00
898.2280, 21062.00
899.3560, 20967.00
900.4830, 21173.00
901.6110, 21060.00
902.7380, 21074.00
903.8660, 21172.00
904.9930, 21121.00
906.1200, 21273.00
907.2460, 21240.00
908.3730, 21060.00
909.5000, 21355.00
910.6260, 21385.00
911.7520, 21083.00
912.8780, 21396.00
914.0040, 21610.00
915.1290, 21503.00
916.2550, 21447.00
917.3800, 21619.00
918.5050, 21428.00
919.6300, 21659.00
920.7550, 21500.00
921.8800, 21617.00
923.0040, 21538.00
924.1290, 21487.00
925.2530, 21768.00
926.3770, 21747.00
927.5010, 21474.00
928.6250, 21676.00
929.7480, 21478.00
930.8720, 21790.00
931.9950, 21891.00
933.1180, 21758.00
934.2410, 21766.00
935.3640, 21705.00
936.4860, 21865.00
937.6090, 22044.00
938.7310, 21985.00
939.8530, 22094.00
940.9750, 21910.00
942.0970, 22113.00
943.2180, 22139.00
944.3400, 21992.00
945.4610, 22116.00
946.5820, 22187.00
947.7030, 22265.00
948.8240, 22336.00
949.9450, 22316.00
951.0650, 22387.41
952.1860, 22402.17
953.3060, 22466.00
954.4260, 22398.00
955.5460, 22445.00
956.6650, 22339.00
957.7850, 22329.00
958.9040, 22448.00
960.0230, 22544.00
961.1420, 22327.00
962.2610, 22463.00
963.3800, 22354.00
964.4990, 22589.00
965.6170, 22462.00
966.7350, 22476.00
967.8530, 22727.00
968.9710, 22725.00
970.0890, 22625.00
971.2070, 22717.00
972.3240, 22774.00
973.4410, 22809.00
974.5580, 22850.73
975.6750, 22892.56
976.7920, 22893.00
977.9090, 22901.00
979.0250, 22926.00
980.1410, 22785.00
981.2580, 23013.00
982.3740, 23023.00
983.4890, 22888.00
984.6050, 23038.00
985.7200, 22925.00
986.8360, 23157.00
987.9510, 23184.00
989.0660, 23161.00
990.1810, 23286.00
991.2950, 23248.00
992.4100, 23230.00
993.5240, 23362.00
994.6390, 23407.00
995.7530, 23391.00
996.8660, 23409.16
997.9800, 23432.76
999.0940, 23446.65
1000.207, 23458.00
1001.320, 23515.00
1002.433, 23495.00
1003.546, 23557.00
1004.659, 23514.00
1005.772, 23305.00
1006.884, 23625.00
1007.996, 23666.00
1009.108, 23423.00
1010.220, 23584.00
1011.332, 23674.00
1012.444, 23743.00
1013.555, 23766.00
1014.666, 23549.00
1015.777, 23782.00
1016.888, 23967.00
1017.999, 23690.00
1019.110, 23808.00
1020.220, 23811.00
1021.331, 23823.00
1022.441, 23874.00
1023.551, 23937.00
1024.661, 24112.00
1025.770, 24075.00
1026.880, 23974.00
1027.989, 24153.00
1029.098, 24219.00
1030.207, 24049.00
1031.316, 24264.00
1032.425, 24269.00
1033.533, 24266.00
1034.642, 24173.00
1035.750, 24257.00
1036.858, 24325.00
1037.966, 24423.00
1039.073, 24454.00
1040.181, 24298.00
1041.288, 24363.00
1042.396, 24373.00
1043.503, 24531.00
1044.610, 24321.00
1045.716, 24542.00
1046.823, 24408.00
1047.929, 24505.00
1049.036, 24552.00
1050.142, 24720.00
1051.248, 24637.00
1052.353, 24758.00
1053.459, 24787.00
1054.564, 24642.00
1055.670, 24863.00
1056.775, 24870.00
1057.880, 24900.00
1058.985, 24932.00
1060.089, 25020.47
1061.194, 25326.00
1062.298, 25271.00
1063.402, 25540.00
1064.506, 25769.00
1065.610, 26439.00
1066.713, 27097.00
1067.817, 28103.00
1068.920, 29619.00
1070.023, 31807.00
1071.126, 32182.00
1072.229, 30418.00
1073.332, 28730.00
1074.435, 27581.00
1075.537, 26699.00
1076.639, 26289.00
1077.741, 25776.00
1078.843, 25781.00
1079.945, 26192.00
1081.046, 26172.00
1082.148, 26711.00
1083.249, 27092.00
1084.350, 28488.00
1085.451, 31445.00
1086.551, 34410.00
1087.652, 39259.00
1088.752, 50165.00
1089.853, 58324.00
1090.953, 52693.00
1092.053, 42321.00
1093.152, 35621.00
1094.252, 31121.00
1095.351, 28452.00
1096.451, 26996.00
1097.550, 26574.00
1098.649, 26345.00
1099.748, 26232.00
1100.846, 26201.00
1101.945, 26273.00
1103.043, 26096.00
1104.141, 26174.00
1105.239, 25949.00
1106.337, 26121.00
1107.434, 26196.00
1108.532, 25898.00
1109.629, 25994.00
1110.726, 26124.00
1111.823, 26162.00
1112.920, 26198.00
1114.017, 26037.00
1115.113, 26323.00
1116.210, 26482.00
1117.306, 26282.00
1118.402, 26473.00
1119.498, 26401.00
1120.593, 26237.00
1121.689, 26540.00
1122.784, 26502.00
1123.879, 26535.00
1124.974, 26422.00
1126.069, 26793.00
1127.164, 26543.00
1128.259, 26685.00
1129.353, 26668.00
1130.447, 26667.00
1131.541, 26958.00
1132.635, 26800.00
1133.729, 26846.00
1134.822, 26783.00
1135.916, 26915.00
1137.009, 26684.00
1138.102, 26874.00
1139.195, 26909.00
1140.288, 27046.00
1141.380, 26993.00
1142.473, 27042.00
1143.565, 27030.00
1144.657, 26972.00
1145.749, 26971.00
1146.841, 27037.84
1147.932, 27102.00
1149.024, 27197.00
1150.115, 27253.00
1151.206, 27292.00
1152.297, 27164.00
1153.388, 27265.00
1154.479, 27393.00
1155.569, 27541.00
1156.659, 27395.00
1157.750, 27257.00
1158.839, 27382.00
1159.929, 27588.00
1161.019, 27719.00
1162.108, 27581.00
1163.198, 27566.00
1164.287, 27712.00
1165.376, 27467.00
1166.465, 27642.00
1167.553, 27614.00
1168.642, 27773.00
1169.730, 27775.00
1170.818, 27563.00
1171.906, 27917.00
1172.994, 27806.00
1174.082, 28141.00
1175.170, 27821.00
1176.257, 27853.00
1177.344, 27894.00
1178.431, 27955.00
1179.518, 28053.00
1180.605, 27954.00
1181.691, 28065.00
1182.778, 28024.00
1183.864, 28228.00
1184.950, 27945.00
1186.036, 28150.00
1187.122, 27941.00
1188.207, 28117.00
1189.292, 28246.00
1190.378, 28300.00
1191.463, 28194.00
1192.548, 28415.00
1193.632, 28518.00
1194.717, 28596.00
1195.801, 28303.00
1196.886, 28701.00
1197.970, 28468.00
1199.054, 28451.00
1200.137, 28579.00
1201.221, 28526.00
1202.305, 28729.00
1203.388, 28783.00
1204.471, 28601.00
1205.554, 28861.00
1206.637, 28760.00
1207.719, 28838.00
1208.802, 28661.00
1209.884, 28819.00
1210.966, 28795.00
1212.048, 29018.00
1213.130, 28897.00
1214.212, 28677.00
1215.293, 28987.00
1216.374, 29015.00
1217.456, 29055.00
1218.536, 29138.00
1219.617, 29136.00
1220.698, 29053.00
1221.778, 29254.00
1222.859, 28918.00
1223.939, 29253.00
1225.019, 29108.00
1226.099, 29175.00
1227.178, 29415.00
1228.258, 29231.00
1229.337, 29518.00
1230.417, 29592.00
1231.496, 29432.00
1232.574, 29523.00
1233.653, 29417.00
1234.732, 29693.00
1235.810, 29724.00
1236.888, 29700.00
1237.966, 29706.00
1239.044, 29650.00
1240.122, 29744.00
1241.199, 29718.00
1242.277, 29686.00
1243.354, 29540.00
1244.431, 29651.00
1245.508, 30027.00
1246.585, 30236.00
1247.661, 29914.00
1248.738, 29668.00
1249.814, 30003.00
1250.890, 30002.00
1251.966, 29914.00
1253.042, 29911.00
1254.117, 29915.00
1255.193, 29895.00
1256.268, 29857.00
1257.343, 29965.00
1258.418, 30018.96
1259.493, 30079.56
1260.567, 30217.00
1261.642, 30267.00
1262.716, 30298.00
1263.790, 30432.00
1264.864, 30401.00
1265.938, 30372.00
1267.011, 30600.00
1268.085, 30382.00
1269.158, 30321.00
1270.231, 30465.00
1271.304, 30549.00
1272.377, 30591.00
1273.450, 30681.00
1274.522, 30500.00
1275.594, 30782.00
1276.666, 30815.00
1277.738, 30502.00
1278.810, 30782.00
1279.882, 30723.00
1280.953, 30764.00
1282.025, 30859.00
1283.096, 30980.00
1284.167, 31027.00
1285.238, 30905.00
1286.308, 30887.00
1287.379, 30937.00
1288.449, 30940.00
1289.519, 30941.00
1290.589, 30999.31
1291.659, 31040.00
1292.729, 31150.00
1293.798, 31074.00
1294.868, 31252.00
1295.937, 31153.00
1297.006, 31207.00
1298.075, 31261.00
1299.143, 31063.00
1300.212, 31232.00
1301.280, 31150.00
1302.348, 31323.00
1303.416, 31531.00
1304.484, 31560.00
1305.552, 31510.00
1306.620, 31734.00
1307.687, 31663.00
1308.754, 31628.00
1309.821, 31891.00
1310.888, 31649.00
1311.955, 31759.00
1313.021, 31676.00
1314.088, 31750.00
1315.154, 32029.00
1316.220, 31847.00
1317.286, 32061.00
1318.352, 32156.00
1319.417, 32013.00
1320.483, 32216.00
1321.548, 32190.00
1322.613, 32086.00
1323.678, 32104.00
1324.743, 32182.00
1325.807, 32288.00
1326.872, 32362.00
1327.936, 32372.00
1329.000, 32183.00
1330.064, 32532.00
1331.128, 32401.00
1332.191, 32712.00
1333.255, 32358.00
1334.318, 32707.00
1335.381, 32581.00
1336.444, 32669.00
1337.507, 32757.00
1338.569, 32709.00
1339.632, 32648.00
1340.694, 32620.00
1341.756, 32806.00
1342.818, 32777.00
1343.880, 32890.00
1344.941, 32754.00
1346.003, 32827.00
1347.064, 32659.00
1348.125, 32954.00
1349.186, 32976.00
1350.247, 33053.00
1351.308, 33402.00
1352.368, 33017.00
1353.428, 33010.00
1354.489, 33115.00
1355.549, 33067.00
1356.608, 33168.00
1357.668, 33213.00
1358.727, 33150.00
1359.787, 33100.00
1360.846, 33158.41
1361.905, 33192.00
1362.964, 33307.00
1364.022, 33456.00
1365.081, 33675.00
1366.139, 33466.00
1367.197, 33673.00
1368.255, 33542.00
1369.313, 33473.00
1370.371, 33711.00
1371.428, 33524.00
1372.486, 33700.00
1373.543, 33770.00
1374.600, 33714.00
1375.657, 33768.00
1376.713, 33853.00
1377.770, 33744.00
1378.826, 33938.00
1379.882, 33702.00
1380.938, 33897.00
1381.994, 34015.00
1383.050, 33990.00
1384.106, 33951.00
1385.161, 34163.00
1386.216, 34273.00
1387.271, 34206.00
1388.326, 34343.00
1389.381, 34321.04
1390.435, 34292.00
1391.490, 34244.00
1392.544, 34203.00
1393.598, 34227.60
1394.652, 34258.00
1395.705, 34290.00
1396.759, 34272.00
1397.812, 34304.00
1398.866, 34362.13
1399.919, 34545.00
1400.972, 34547.00
1402.024, 34638.82
1403.077, 34699.24
1404.129, 34716.00
1405.181, 34813.00
1406.233, 34785.00
1407.285, 34905.00
1408.337, 34689.00
1409.389, 34522.00
1410.440, 34703.00
1411.491, 34825.00
1412.542, 35009.00
1413.593, 35007.85
1414.644, 34947.00
1415.695, 34948.00
1416.745, 34940.92
1417.795, 34841.00
1418.845, 35030.00
1419.895, 34938.00
1420.945, 35026.00
1421.995, 35096.00
1423.044, 35161.00
1424.093, 35130.00
1425.142, 35012.00
1426.191, 35478.00
1427.240, 35457.00
1428.289, 35548.00
1429.337, 35194.00
1430.385, 35490.00
1431.433, 35658.00
1432.481, 35309.00
1433.529, 35689.00
1434.577, 35724.00
1435.624, 35611.00
1436.672, 35570.00
1437.719, 35790.00
1438.766, 35520.00
1439.812, 35609.00
1440.859, 35727.00
1441.905, 36039.00
1442.952, 35937.00
1443.998, 36041.00
1445.044, 35861.00
1446.090, 35713.00
1447.135, 35931.00
1448.181, 35778.00
1449.226, 36003.00
1450.271, 35930.00
1451.316, 35721.00
1452.361, 36034.00
1453.405, 35923.00
1454.450, 35922.00
1455.494, 36235.00
1456.538, 36273.00
1457.582, 36235.00
1458.626, 36217.00
1459.670, 36598.00
1460.713, 36308.00
1461.757, 36497.00
1462.800, 36283.00
1463.843, 36490.00
1464.886, 36688.00
1465.928, 36649.00
1466.971, 36837.00
1468.013, 37126.00
1469.055, 37078.00
1470.097, 37359.00
1471.139, 37443.00
1472.181, 37036.00
1473.222, 37244.00
1474.263, 36931.00
1475.305, 36936.00
1476.346, 37023.00
1477.386, 36975.00
1478.427, 37097.00
1479.468, 37083.00
1480.508, 37163.00
1481.548, 37106.00
1482.588, 37052.00
1483.628, 37043.00
1484.668, 37116.96
1485.707, 37035.00
1486.747, 37371.00
1487.786, 37298.00
1488.825, 37492.00
1489.864, 37206.00
1490.902, 37620.00
1491.941, 37419.00
1492.979, 37493.00
1494.017, 37496.00
1495.055, 37589.00
1496.093, 37650.00
1497.131, 37546.00
1498.168, 37523.00
1499.206, 37555.00
1500.243, 37906.00
1501.280, 37705.00
1502.317, 37751.00
1503.354, 37974.00
1504.390, 37751.00
1505.426, 37917.00
1506.463, 37939.00
1507.499, 38101.00
1508.535, 37954.00
1509.570, 38016.00
1510.606, 38100.00
1511.641, 38267.00
1512.676, 38192.00
1513.711, 38067.00
1514.746, 38258.00
1515.781, 38458.00
1516.816, 38320.00
1517.850, 38207.00
1518.884, 38144.00
1519.918, 38130.54
1520.952, 38275.00
1521.986, 38148.00
1523.019, 38496.00
1524.053, 38458.00
1525.086, 38459.00
1526.119, 38570.00
1527.152, 38464.00
1528.185, 38548.00
1529.217, 38707.00
1530.250, 38763.00
1531.282, 38814.68
1532.314, 38936.00
1533.346, 38805.00
1534.377, 38873.00
1535.409, 38744.00
1536.440, 38932.00
1537.472, 39115.00
1538.503, 38873.00
1539.534, 39157.00
1540.564, 38913.00
1541.595, 39183.00
1542.625, 39243.00
1543.656, 39059.00
1544.686, 39177.00
1545.716, 39071.00
1546.745, 39222.00
1547.775, 39358.00
1548.804, 39542.00
1549.834, 39629.09
1550.863, 39624.74
1551.892, 39777.00
1552.920, 39545.00
1553.949, 39507.00
1554.977, 39503.00
1556.006, 39695.00
1557.034, 39785.00
1558.062, 39896.00
1559.089, 39684.00
1560.117, 39862.00
1561.144, 39814.00
1562.172, 39611.00
1563.199, 40079.00
1564.226, 39762.00
1565.252, 39931.00
1566.279, 39686.00
1567.305, 40015.00
1568.332, 40236.00
1569.358, 40031.00
1570.384, 40061.00
##END=



