##NAMES=Shortite
##RRUFFID=R050248
##IDEAL CHEMISTRY=Na_2_Ca_2_(CO_3_)_3_
##LOCALITY=Stauffer mine, Green River, Wyoming, USA
##OWNER=RRUFF
##SOURCE=Marcus Origlieri
##DESCRIPTION=Colorless wedge-shaped single crystal
##STATUS=The identification of this mineral has been confirmed by X-ray diffraction and chemical analysis
##URL=rruff.info/R050248
##MEASURED CHEMISTRY=Na_2.00_Ca_2.00_(CO_3_)_3_ ; CO2 not measured but estimated by difference and stoichiometry.
##PIN_ID=L00721
##ORIENTATION=Laser parallel to b* (0 1 0). Fiducial mark perpendicular to laser is parallel to -c [0 0 -1]
108.2800, 9180.000
109.5120, 9324.000
110.7440, 9300.000
111.9760, 9385.000
113.2080, 9559.000
114.4400, 9722.000
115.6710, 9645.000
116.9030, 9704.000
118.1340, 9902.000
119.3650, 9964.000
120.5960, 10008.00
121.8270, 10118.00
123.0580, 10161.00
124.2880, 10402.00
125.5190, 10346.00
126.7490, 10538.00
127.9790, 10848.00
129.2090, 11141.00
130.4390, 11500.00
131.6680, 11984.00
132.8980, 12497.44
134.1270, 12770.00
135.3560, 13775.00
136.5850, 14666.00
137.8140, 15490.00
139.0430, 15351.00
140.2710, 14732.00
141.5000, 14173.00
142.7280, 13626.00
143.9560, 12888.00
145.1840, 12285.00
146.4120, 11770.00
147.6390, 11458.00
148.8670, 11386.00
150.0940, 11306.00
151.3210, 11316.00
152.5490, 11205.00
153.7750, 11283.00
155.0020, 11339.00
156.2290, 11211.00
157.4550, 11320.00
158.6810, 11327.00
159.9080, 11362.00
161.1340, 11240.00
162.3590, 11369.00
163.5850, 11432.00
164.8110, 11361.00
166.0360, 11487.00
167.2610, 11699.00
168.4860, 11690.00
169.7110, 11826.00
170.9360, 11685.00
172.1610, 11727.00
173.3850, 11776.00
174.6100, 11726.00
175.8340, 11827.00
177.0580, 11948.00
178.2820, 12125.00
179.5050, 12191.00
180.7290, 12336.00
181.9520, 12435.00
183.1760, 12410.00
184.3990, 12491.00
185.6220, 12446.00
186.8450, 12516.00
188.0670, 12519.00
189.2900, 12764.00
190.5120, 12816.00
191.7340, 13027.00
192.9560, 13309.00
194.1780, 13795.00
195.4000, 14248.00
196.6220, 14691.00
197.8430, 15056.00
199.0640, 15307.00
200.2860, 15193.00
201.5070, 15050.00
202.7270, 15143.00
203.9480, 14973.00
205.1690, 14890.00
206.3890, 14602.00
207.6090, 14344.00
208.8290, 14048.00
210.0490, 13687.00
211.2690, 13497.00
212.4890, 13209.00
213.7080, 13139.00
214.9280, 13016.00
216.1470, 12922.00
217.3660, 12686.00
218.5850, 12661.00
219.8030, 12860.00
221.0220, 12644.00
222.2400, 12900.00
223.4590, 12651.00
224.6770, 12772.00
225.8950, 12633.00
227.1120, 12662.00
228.3300, 12647.00
229.5480, 12737.00
230.7650, 12694.00
231.9820, 12702.00
233.1990, 12790.00
234.4160, 12836.00
235.6330, 12936.00
236.8490, 12829.00
238.0660, 12807.00
239.2820, 12890.00
240.4980, 12931.00
241.7140, 12897.00
242.9300, 13008.00
244.1460, 12973.00
245.3610, 13052.00
246.5770, 13124.00
247.7920, 13300.00
249.0070, 13286.00
250.2220, 13500.00
251.4370, 13409.00
252.6510, 13700.00
253.8660, 13772.00
255.0800, 14068.00
256.2940, 14166.00
257.5080, 14522.00
258.7220, 14948.00
259.9360, 15355.00
261.1490, 15826.50
262.3630, 16247.00
263.5760, 16869.00
264.7890, 17199.00
266.0020, 17825.00
267.2150, 17782.00
268.4270, 17477.00
269.6400, 17015.00
270.8520, 16556.00
272.0640, 16221.00
273.2760, 15628.00
274.4880, 15130.00
275.7000, 14808.00
276.9120, 14475.00
278.1230, 14343.00
279.3340, 14179.00
280.5450, 13993.00
281.7560, 13994.00
282.9670, 13978.00
284.1780, 13843.00
285.3880, 13794.00
286.5980, 13889.00
287.8090, 13926.00
289.0190, 13952.00
290.2290, 13911.00
291.4380, 14011.00
292.6480, 13962.00
293.8570, 13895.00
295.0670, 13736.00
296.2760, 13823.00
297.4850, 13888.00
298.6930, 13996.00
299.9020, 13942.00
301.1110, 13943.00
302.3190, 13895.00
303.5270, 13984.00
304.7350, 14025.00
305.9430, 14031.00
307.1510, 14070.10
308.3580, 14102.00
309.5660, 14078.00
310.7730, 14083.00
311.9800, 14061.00
313.1870, 14091.00
314.3940, 14140.00
315.6010, 14133.00
316.8070, 14255.00
318.0130, 14226.00
319.2200, 14161.00
320.4260, 14286.00
321.6310, 14458.00
322.8370, 14372.00
324.0430, 14359.00
325.2480, 14333.00
326.4540, 14217.00
327.6590, 14395.00
328.8640, 14442.00
330.0680, 14464.00
331.2730, 14365.00
332.4780, 14407.00
333.6820, 14424.28
334.8860, 14584.00
336.0900, 14551.00
337.2940, 14548.00
338.4980, 14691.00
339.7010, 14711.00
340.9050, 14624.00
342.1080, 14661.00
343.3110, 14612.00
344.5140, 14667.00
345.7170, 14725.00
346.9200, 14629.00
348.1220, 14654.00
349.3240, 14753.00
350.5270, 14683.62
351.7290, 14785.00
352.9310, 14730.00
354.1320, 14838.00
355.3340, 14836.91
356.5350, 14864.14
357.7370, 14866.00
358.9380, 14937.00
360.1390, 14959.00
361.3400, 15018.00
362.5400, 15101.00
363.7410, 14941.00
364.9410, 15023.00
366.1410, 15065.00
367.3410, 15276.00
368.5410, 15240.00
369.7410, 15241.00
370.9400, 15261.00
372.1400, 15228.00
373.3390, 15267.48
374.5380, 15347.00
375.7370, 15317.00
376.9360, 15381.00
378.1350, 15392.00
379.3330, 15393.00
380.5310, 15375.00
381.7300, 15335.00
382.9280, 15344.00
384.1260, 15499.00
385.3230, 15524.00
386.5210, 15271.00
387.7180, 15491.00
388.9160, 15469.00
390.1130, 15487.00
391.3100, 15578.00
392.5060, 15532.35
393.7030, 15589.00
394.9000, 15553.00
396.0960, 15673.00
397.2920, 15796.00
398.4880, 15809.12
399.6840, 15859.00
400.8800, 15851.00
402.0750, 15917.00
403.2710, 15803.00
404.4660, 15880.00
405.6610, 15828.00
406.8560, 16024.00
408.0510, 15782.00
409.2450, 15668.00
410.4400, 15950.00
411.6340, 15995.00
412.8280, 16014.00
414.0220, 16053.00
415.2160, 16085.98
416.4100, 16104.81
417.6030, 16154.00
418.7970, 16149.00
419.9900, 16182.00
421.1830, 16211.00
422.3760, 16220.05
423.5690, 16185.00
424.7610, 16259.00
425.9540, 16191.00
427.1460, 16213.00
428.3380, 16158.00
429.5300, 16180.72
430.7220, 16301.00
431.9140, 16261.00
433.1050, 16334.00
434.2970, 16446.00
435.4880, 16347.00
436.6790, 16544.00
437.8700, 16456.00
439.0610, 16442.00
440.2510, 16571.00
441.4420, 16522.00
442.6320, 16583.00
443.8220, 16631.00
445.0120, 16631.00
446.2020, 16716.00
447.3910, 16648.00
448.5810, 16678.00
449.7700, 16758.00
450.9600, 16687.00
452.1490, 16783.00
453.3370, 16790.00
454.5260, 16726.00
455.7150, 16834.00
456.9030, 16898.00
458.0910, 16949.00
459.2800, 16895.00
460.4670, 16700.00
461.6550, 16884.00
462.8430, 16792.00
464.0300, 17009.00
465.2180, 16931.00
466.4050, 17027.00
467.5920, 17022.00
468.7790, 16942.00
469.9650, 17030.00
471.1520, 17129.00
472.3380, 17054.00
473.5250, 17196.00
474.7110, 17175.00
475.8970, 17202.00
477.0820, 17149.00
478.2680, 17094.00
479.4540, 17312.00
480.6390, 17228.00
481.8240, 17395.00
483.0090, 17398.00
484.1940, 17285.00
485.3780, 17294.00
486.5630, 17414.00
487.7470, 17401.00
488.9320, 17429.00
490.1160, 17441.00
491.3000, 17576.00
492.4830, 17392.00
493.6670, 17591.00
494.8500, 17530.00
496.0340, 17475.00
497.2170, 17682.00
498.4000, 17501.00
499.5820, 17797.00
500.7650, 17799.00
501.9480, 17636.00
503.1300, 17818.00
504.3120, 17670.00
505.4940, 17893.00
506.6760, 17804.00
507.8580, 17965.00
509.0390, 17977.00
510.2210, 17862.00
511.4020, 17821.00
512.5830, 17795.00
513.7640, 17936.00
514.9450, 17871.00
516.1250, 18080.00
517.3060, 17974.00
518.4860, 18030.00
519.6660, 18075.00
520.8460, 18043.00
522.0260, 18088.00
523.2060, 18247.00
524.3850, 18189.00
525.5650, 18249.17
526.7440, 18364.00
527.9230, 18267.00
529.1020, 18259.00
530.2810, 18282.00
531.4590, 18379.00
532.6380, 18354.65
533.8160, 18360.00
534.9940, 18367.00
536.1720, 18386.00
537.3500, 18388.00
538.5270, 18353.00
539.7050, 18634.00
540.8820, 18335.00
542.0590, 18422.00
543.2360, 18319.00
544.4130, 18648.00
545.5900, 18553.00
546.7660, 18571.00
547.9430, 18572.00
549.1190, 18699.00
550.2950, 18649.00
551.4710, 18738.00
552.6470, 18743.00
553.8220, 18768.77
554.9980, 18739.00
556.1730, 18859.00
557.3480, 18893.00
558.5230, 18990.00
559.6980, 18954.00
560.8730, 18881.00
562.0470, 18832.00
563.2220, 18826.00
564.3960, 18928.00
565.5700, 18994.00
566.7440, 19017.00
567.9170, 19046.00
569.0910, 18913.00
570.2640, 19179.00
571.4380, 18994.00
572.6110, 18974.00
573.7840, 19245.00
574.9570, 19078.00
576.1290, 19240.00
577.3020, 19258.00
578.4740, 19285.00
579.6460, 19329.34
580.8180, 19129.00
581.9900, 19289.00
583.1620, 19321.00
584.3330, 19204.00
585.5040, 19470.00
586.6760, 19335.00
587.8470, 19351.00
589.0180, 19502.00
590.1880, 19610.00
591.3590, 19507.00
592.5290, 19505.00
593.7000, 19429.00
594.8700, 19697.00
596.0400, 19515.00
597.2090, 19605.00
598.3790, 19513.00
599.5490, 19636.00
600.7180, 19829.00
601.8870, 19577.00
603.0560, 19951.00
604.2250, 19708.00
605.3940, 19686.00
606.5620, 19884.00
607.7300, 19815.00
608.8990, 19855.00
610.0670, 19864.00
611.2350, 19758.00
612.4020, 19793.00
613.5700, 20180.00
614.7370, 19863.00
615.9050, 19989.00
617.0720, 20225.00
618.2390, 19979.00
619.4060, 19983.00
620.5720, 19946.00
621.7390, 20242.00
622.9050, 20266.00
624.0710, 20288.00
625.2370, 20187.00
626.4030, 20255.00
627.5690, 20318.00
628.7340, 20271.00
629.9000, 20065.00
631.0650, 20306.00
632.2300, 20478.00
633.3950, 20275.00
634.5600, 20343.00
635.7240, 20474.00
636.8890, 20527.00
638.0530, 20462.00
639.2170, 20475.00
640.3810, 20505.00
641.5450, 20669.00
642.7080, 20515.00
643.8720, 20592.00
645.0350, 20707.00
646.1980, 20505.00
647.3610, 20603.00
648.5240, 20824.00
649.6870, 20734.00
650.8490, 20579.00
652.0120, 20858.00
653.1740, 20830.00
654.3360, 20894.00
655.4980, 20860.00
656.6600, 20978.00
657.8210, 20953.73
658.9830, 21022.00
660.1440, 20949.00
661.3050, 20865.00
662.4660, 20843.00
663.6270, 21036.00
664.7870, 21045.00
665.9480, 21179.00
667.1080, 21024.00
668.2680, 21236.00
669.4280, 21172.00
670.5880, 21133.00
671.7480, 21203.00
672.9070, 21205.00
674.0670, 21199.95
675.2260, 21232.00
676.3850, 21191.00
677.5440, 21332.00
678.7030, 21335.00
679.8610, 21318.00
681.0200, 21592.00
682.1780, 21367.00
683.3360, 21198.00
684.4940, 21467.00
685.6520, 21496.00
686.8090, 21602.00
687.9670, 21554.00
689.1240, 21544.00
690.2810, 21596.00
691.4380, 21774.00
692.5950, 21849.00
693.7520, 22002.00
694.9080, 21968.00
696.0650, 22108.00
697.2210, 21862.00
698.3770, 22005.00
699.5330, 21844.00
700.6880, 21823.00
701.8440, 21823.00
702.9990, 21900.00
704.1550, 21958.00
705.3100, 21957.00
706.4650, 22204.00
707.6190, 22374.00
708.7740, 22336.00
709.9290, 22354.00
711.0830, 22221.00
712.2370, 22194.00
713.3910, 22316.00
714.5450, 22072.00
715.6980, 22426.00
716.8520, 22206.00
718.0050, 22311.00
719.1580, 22282.00
720.3110, 22367.00
721.4640, 22426.00
722.6170, 22263.00
723.7700, 22248.00
724.9220, 22248.00
726.0740, 22330.00
727.2260, 22386.00
728.3780, 22308.00
729.5300, 22367.00
730.6810, 22558.00
731.8330, 22536.00
732.9840, 22476.00
734.1350, 22309.00
735.2860, 22465.00
736.4370, 22660.00
737.5880, 22571.00
738.7380, 22459.00
739.8880, 22689.00
741.0390, 22755.00
742.1890, 22786.00
743.3380, 22662.00
744.4880, 22824.00
745.6380, 22731.00
746.7870, 22761.00
747.9360, 22698.00
749.0850, 22714.38
750.2340, 22895.00
751.3830, 22804.00
752.5310, 22734.00
753.6800, 22872.00
754.8280, 22832.00
755.9760, 22865.00
757.1240, 23137.00
758.2720, 22998.00
759.4190, 23090.00
760.5670, 23024.00
761.7140, 23084.00
762.8610, 23074.00
764.0080, 23098.64
765.1550, 23197.00
766.3020, 23223.00
767.4480, 23151.00
768.5950, 23315.00
769.7410, 23377.00
770.8870, 23298.00
772.0330, 23451.00
773.1780, 23450.00
774.3240, 23420.00
775.4690, 23344.00
776.6140, 23524.00
777.7590, 23499.00
778.9040, 23571.00
780.0490, 23592.00
781.1940, 23318.00
782.3380, 23486.00
783.4820, 23614.00
784.6260, 23362.00
785.7700, 23480.00
786.9140, 23533.00
788.0580, 23609.00
789.2010, 23727.00
790.3450, 23588.00
791.4880, 23788.00
792.6310, 23714.00
793.7730, 23606.00
794.9160, 23834.00
796.0590, 23910.00
797.2010, 23977.00
798.3430, 24031.00
799.4850, 24094.56
800.6270, 24059.00
801.7690, 24225.00
802.9100, 23989.00
804.0520, 24072.00
805.1930, 24104.00
806.3340, 23939.00
807.4750, 24068.00
808.6160, 24117.00
809.7560, 24126.00
810.8970, 24339.00
812.0370, 24379.00
813.1770, 24310.00
814.3170, 24350.00
815.4570, 24325.00
816.5960, 24479.00
817.7360, 24435.00
818.8750, 24435.00
820.0140, 24372.00
821.1530, 24496.00
822.2920, 24593.00
823.4310, 24522.00
824.5690, 24390.00
825.7070, 24430.00
826.8460, 24817.00
827.9840, 24627.00
829.1220, 24700.00
830.2590, 24448.00
831.3970, 24753.00
832.5340, 24800.00
833.6710, 24750.00
834.8080, 24962.00
835.9450, 24795.00
837.0820, 24709.00
838.2190, 24820.00
839.3550, 24843.00
840.4910, 24959.00
841.6270, 24811.00
842.7630, 24919.00
843.8990, 24885.22
845.0350, 24978.00
846.1700, 24883.00
847.3060, 25024.00
848.4410, 25085.00
849.5760, 24947.00
850.7100, 25025.00
851.8450, 25214.00
852.9800, 25045.00
854.1140, 25365.00
855.2480, 25307.00
856.3820, 25300.00
857.5160, 25291.00
858.6500, 25513.00
859.7830, 25372.00
860.9170, 25743.00
862.0500, 25681.00
863.1830, 26230.00
864.3160, 26100.00
865.4480, 26031.00
866.5810, 26010.00
867.7130, 25914.00
868.8460, 25775.00
869.9780, 25765.00
871.1100, 25537.00
872.2410, 25629.00
873.3730, 25772.00
874.5050, 25609.00
875.6360, 25680.00
876.7670, 25792.00
877.8980, 25748.00
879.0290, 25732.00
880.1590, 25977.00
881.2900, 25848.00
882.4200, 25863.00
883.5500, 25863.00
884.6800, 26058.00
885.8100, 26117.00
886.9400, 26156.00
888.0690, 25960.00
889.1990, 26070.00
890.3280, 26255.00
891.4570, 26063.00
892.5860, 26134.00
893.7140, 26029.00
894.8430, 26029.00
895.9710, 26278.00
897.1000, 26074.00
898.2280, 26215.00
899.3560, 26456.00
900.4830, 26314.00
901.6110, 26312.00
902.7380, 26377.00
903.8660, 26438.00
904.9930, 26348.00
906.1200, 26528.00
907.2460, 26577.00
908.3730, 26269.00
909.5000, 26508.00
910.6260, 26473.00
911.7520, 26599.00
912.8780, 26707.00
914.0040, 26507.00
915.1290, 26636.00
916.2550, 26631.00
917.3800, 26750.00
918.5050, 26891.00
919.6300, 26842.00
920.7550, 26762.00
921.8800, 26955.00
923.0040, 26896.00
924.1290, 26780.00
925.2530, 27082.00
926.3770, 26892.00
927.5010, 27074.00
928.6250, 27081.00
929.7480, 27117.00
930.8720, 27149.00
931.9950, 27336.00
933.1180, 27214.00
934.2410, 27053.00
935.3640, 27289.00
936.4860, 27429.00
937.6090, 27175.00
938.7310, 27394.00
939.8530, 27303.00
940.9750, 27344.00
942.0970, 27326.00
943.2180, 27496.00
944.3400, 27313.00
945.4610, 27233.00
946.5820, 27513.00
947.7030, 27562.00
948.8240, 27668.00
949.9450, 27828.00
951.0650, 27831.82
952.1860, 27803.00
953.3060, 27885.00
954.4260, 27838.00
955.5460, 27844.00
956.6650, 27930.00
957.7850, 27720.00
958.9040, 27942.00
960.0230, 27765.00
961.1420, 27930.00
962.2610, 28043.00
963.3800, 27998.00
964.4990, 28087.00
965.6170, 27940.00
966.7350, 28001.00
967.8530, 28166.00
968.9710, 28395.00
970.0890, 28120.00
971.2070, 28228.00
972.3240, 28138.00
973.4410, 28150.00
974.5580, 28168.62
975.6750, 28277.00
976.7920, 28212.00
977.9090, 28229.00
979.0250, 28327.00
980.1410, 28497.00
981.2580, 28513.00
982.3740, 28562.00
983.4890, 28510.00
984.6050, 28258.00
985.7200, 28667.00
986.8360, 28808.00
987.9510, 28629.00
989.0660, 28526.00
990.1810, 28710.00
991.2950, 28869.00
992.4100, 28618.00
993.5240, 28831.00
994.6390, 28987.00
995.7530, 28939.00
996.8660, 28652.00
997.9800, 29002.00
999.0940, 28816.00
1000.207, 29033.00
1001.320, 29125.00
1002.433, 28929.00
1003.546, 29170.00
1004.659, 29119.00
1005.772, 28948.00
1006.884, 29253.00
1007.996, 29181.00
1009.108, 29216.00
1010.220, 29255.00
1011.332, 29253.00
1012.444, 29189.00
1013.555, 29142.00
1014.666, 29383.00
1015.777, 29182.00
1016.888, 29485.00
1017.999, 29316.00
1019.110, 29519.00
1020.220, 29714.00
1021.331, 29557.00
1022.441, 29740.00
1023.551, 29601.00
1024.661, 29552.00
1025.770, 29662.00
1026.880, 29929.00
1027.989, 29818.00
1029.098, 29840.00
1030.207, 29565.00
1031.316, 29833.00
1032.425, 29907.00
1033.533, 29834.00
1034.642, 30012.00
1035.750, 29959.00
1036.858, 29903.00
1037.966, 30116.00
1039.073, 30157.00
1040.181, 30191.00
1041.288, 30220.00
1042.396, 30100.00
1043.503, 30277.00
1044.610, 30175.00
1045.716, 30271.00
1046.823, 30482.00
1047.929, 30370.00
1049.036, 30365.00
1050.142, 30665.00
1051.248, 30494.00
1052.353, 30567.00
1053.459, 30668.00
1054.564, 30457.00
1055.670, 30791.00
1056.775, 30847.00
1057.880, 30907.00
1058.985, 31091.35
1060.089, 31178.00
1061.194, 31309.00
1062.298, 31380.00
1063.402, 31483.00
1064.506, 32099.00
1065.610, 33419.00
1066.713, 34670.00
1067.817, 36710.00
1068.920, 40419.00
1070.023, 45385.00
1071.126, 46672.00
1072.229, 42977.00
1073.332, 39806.00
1074.435, 36726.00
1075.537, 34197.00
1076.639, 33025.00
1077.741, 32436.00
1078.843, 32057.00
1079.945, 32025.00
1081.046, 32214.00
1082.148, 32222.00
1083.249, 32514.00
1084.350, 33704.00
1085.451, 35908.00
1086.551, 38425.00
1087.652, 42167.00
1088.752, 50647.00
1089.853, 57698.00
1090.953, 53771.00
1092.053, 46433.00
1093.152, 41296.00
1094.252, 37260.00
1095.351, 34164.00
1096.451, 32960.00
1097.550, 32338.00
1098.649, 32224.00
1099.748, 31983.00
1100.846, 32031.00
1101.945, 31810.00
1103.043, 32152.00
1104.141, 31897.00
1105.239, 31855.00
1106.337, 32056.00
1107.434, 31851.00
1108.532, 32122.00
1109.629, 32174.00
1110.726, 32126.00
1111.823, 32069.00
1112.920, 32341.00
1114.017, 32128.00
1115.113, 32135.00
1116.210, 32141.00
1117.306, 32406.00
1118.402, 32328.00
1119.498, 32485.00
1120.593, 32445.00
1121.689, 32329.00
1122.784, 32694.00
1123.879, 32720.00
1124.974, 32566.00
1126.069, 32631.00
1127.164, 32755.00
1128.259, 32705.00
1129.353, 32698.00
1130.447, 32813.00
1131.541, 32642.00
1132.635, 32973.00
1133.729, 32722.00
1134.822, 32681.00
1135.916, 32731.00
1137.009, 33011.00
1138.102, 32837.00
1139.195, 32724.00
1140.288, 33265.00
1141.380, 33353.00
1142.473, 33106.00
1143.565, 33120.00
1144.657, 33252.00
1145.749, 33237.00
1146.841, 33185.00
1147.932, 33131.00
1149.024, 33379.00
1150.115, 33247.00
1151.206, 33456.00
1152.297, 33559.00
1153.388, 33535.00
1154.479, 33644.00
1155.569, 33673.00
1156.659, 33533.00
1157.750, 33537.00
1158.839, 33626.00
1159.929, 33770.00
1161.019, 33650.00
1162.108, 33764.00
1163.198, 33700.00
1164.287, 33850.00
1165.376, 34093.00
1166.465, 33766.00
1167.553, 33970.00
1168.642, 33823.00
1169.730, 33962.00
1170.818, 33854.00
1171.906, 33962.00
1172.994, 33928.00
1174.082, 33865.00
1175.170, 34278.00
1176.257, 33936.00
1177.344, 34066.00
1178.431, 34305.00
1179.518, 34257.00
1180.605, 34268.00
1181.691, 34306.00
1182.778, 34209.00
1183.864, 34213.00
1184.950, 34303.91
1186.036, 34433.00
1187.122, 34474.00
1188.207, 34585.00
1189.292, 34576.00
1190.378, 34630.86
1191.463, 34592.00
1192.548, 34665.00
1193.632, 34646.00
1194.717, 34618.00
1195.801, 34704.08
1196.886, 34845.00
1197.970, 34876.00
1199.054, 34894.00
1200.137, 35064.00
1201.221, 34824.00
1202.305, 34995.00
1203.388, 34974.00
1204.471, 35141.00
1205.554, 34895.00
1206.637, 35070.00
1207.719, 35174.00
1208.802, 35043.00
1209.884, 35374.00
1210.966, 35328.00
1212.048, 35144.00
1213.130, 35375.00
1214.212, 35244.00
1215.293, 35446.00
1216.374, 35434.00
1217.456, 35483.00
1218.536, 35528.41
1219.617, 35510.00
1220.698, 35592.00
1221.778, 35523.00
1222.859, 35668.00
1223.939, 35680.00
1225.019, 35775.00
1226.099, 35514.00
1227.178, 35763.00
1228.258, 35668.00
1229.337, 35781.00
1230.417, 36015.00
1231.496, 35971.92
1232.574, 36119.00
1233.653, 36079.00
1234.732, 36140.00
1235.810, 36204.00
1236.888, 36224.14
1237.966, 36250.00
1239.044, 36277.00
1240.122, 36250.00
1241.199, 36265.86
1242.277, 36199.00
1243.354, 36265.00
1244.431, 36250.06
1245.508, 36269.00
1246.585, 36385.00
1247.661, 36297.00
1248.738, 36517.00
1249.814, 36509.00
1250.890, 36419.00
1251.966, 36605.00
1253.042, 36720.00
1254.117, 36463.00
1255.193, 36673.00
1256.268, 36797.00
1257.343, 36608.00
1258.418, 36692.00
1259.493, 36860.00
1260.567, 36826.00
1261.642, 36870.00
1262.716, 36914.00
1263.790, 36992.00
1264.864, 36947.00
1265.938, 37049.00
1267.011, 37167.00
1268.085, 37148.31
1269.158, 36948.00
1270.231, 37147.00
1271.304, 37100.00
1272.377, 37001.00
1273.450, 37102.00
1274.522, 37065.72
1275.594, 37126.98
1276.666, 37166.00
1277.738, 37260.00
1278.810, 37409.00
1279.882, 37458.00
1280.953, 37481.25
1282.025, 37417.00
1283.096, 37435.00
1284.167, 37527.00
1285.238, 37462.00
1286.308, 37715.00
1287.379, 37411.00
1288.449, 37512.00
1289.519, 37556.00
1290.589, 37783.00
1291.659, 37894.00
1292.729, 37793.00
1293.798, 37888.00
1294.868, 37856.00
1295.937, 37800.00
1297.006, 37988.00
1298.075, 37767.00
1299.143, 37873.00
1300.212, 38072.00
1301.280, 38119.00
1302.348, 38140.00
1303.416, 37970.00
1304.484, 38166.00
1305.552, 38148.00
1306.620, 38274.00
1307.687, 38253.00
1308.754, 38314.00
1309.821, 38449.00
1310.888, 38465.00
1311.955, 38411.00
1313.021, 38377.00
1314.088, 38528.00
1315.154, 38796.00
1316.220, 39174.00
1317.286, 38937.00
1318.352, 39042.00
1319.417, 38886.00
1320.483, 38921.00
1321.548, 38966.00
1322.613, 39093.00
1323.678, 39128.00
1324.743, 39099.00
1325.807, 39063.00
1326.872, 39058.00
1327.936, 38986.00
1329.000, 39219.00
1330.064, 39161.00
1331.128, 39380.00
1332.191, 39442.00
1333.255, 39375.00
1334.318, 39213.00
1335.381, 39430.00
1336.444, 39376.00
1337.507, 39359.00
1338.569, 39386.00
1339.632, 39471.85
1340.694, 39918.00
1341.756, 39660.00
1342.818, 39824.00
1343.880, 39778.00
1344.941, 39591.00
1346.003, 39498.00
1347.064, 39626.00
1348.125, 39792.00
1349.186, 39895.00
1350.247, 39982.00
1351.308, 39761.00
1352.368, 39954.00
1353.428, 39975.00
1354.489, 39896.00
1355.549, 40004.00
1356.608, 40192.00
1357.668, 40004.00
1358.727, 40476.00
1359.787, 40314.00
1360.846, 40403.00
1361.905, 40210.00
1362.964, 40237.00
1364.022, 40395.00
1365.081, 40351.00
1366.139, 40504.00
1367.197, 40297.00
1368.255, 40496.00
1369.313, 40661.00
1370.371, 40298.00
1371.428, 40596.00
1372.486, 40870.00
1373.543, 40832.00
1374.600, 41004.00
1375.657, 40875.00
1376.713, 40693.00
1377.770, 40749.00
1378.826, 40996.00
1379.882, 40764.00
1380.938, 40832.00
1381.994, 40996.00
1383.050, 40853.00
1384.106, 41038.00
1385.161, 41133.00
1386.216, 40869.00
1387.271, 41028.00
1388.326, 41173.00
1389.381, 41123.00
1390.435, 41226.00
1391.490, 41231.00
1392.544, 41193.00
1393.598, 41229.00
1394.652, 41237.00
1395.705, 41357.00
1396.759, 41400.00
1397.812, 41657.00
1398.866, 41422.00
1399.919, 41911.00
1400.972, 41731.00
1402.024, 41918.00
1403.077, 41682.00
1404.129, 42163.00
1405.181, 42150.00
1406.233, 41942.00
1407.285, 41803.00
1408.337, 41898.00
1409.389, 42074.00
1410.440, 42363.00
1411.491, 42090.00
1412.542, 41851.00
1413.593, 42061.00
1414.644, 42099.00
1415.695, 42165.00
1416.745, 42013.00
1417.795, 41933.00
1418.845, 42046.00
1419.895, 42204.00
1420.945, 42046.00
1421.995, 42059.00
1423.044, 42210.00
1424.093, 42579.00
1425.142, 42529.00
1426.191, 42542.00
1427.240, 42758.00
1428.289, 42605.00
1429.337, 42619.00
1430.385, 42545.00
1431.433, 42672.00
1432.481, 42752.00
1433.529, 42939.00
1434.577, 42884.00
1435.624, 42576.00
1436.672, 42790.00
1437.719, 43195.00
1438.766, 42897.00
1439.812, 43247.00
1440.859, 43266.00
1441.905, 43045.00
1442.952, 43256.00
1443.998, 43076.00
1445.044, 43039.00
1446.090, 43428.00
1447.135, 43015.00
1448.181, 43411.00
1449.226, 43291.00
1450.271, 43276.00
1451.316, 43538.00
1452.361, 43608.00
1453.405, 43735.00
1454.450, 43706.28
1455.494, 43707.00
1456.538, 43602.00
1457.582, 43568.00
1458.626, 43657.00
1459.670, 43752.00
1460.713, 43600.00
1461.757, 43751.00
1462.800, 43867.00
1463.843, 44084.00
1464.886, 43961.00
1465.928, 43916.00
1466.971, 43964.00
1468.013, 43913.00
1469.055, 43976.00
1470.097, 44208.00
1471.139, 44071.00
1472.181, 44172.00
1473.222, 44474.00
1474.263, 44400.00
1475.305, 44390.00
1476.346, 44359.00
1477.386, 44619.00
1478.427, 44258.00
1479.468, 44282.00
1480.508, 44802.00
1481.548, 44542.00
1482.588, 44769.00
1483.628, 44617.00
1484.668, 44635.00
1485.707, 44613.00
1486.747, 44612.29
1487.786, 44827.00
1488.825, 44801.00
1489.864, 44825.00
1490.902, 45156.00
1491.941, 44781.00
1492.979, 45091.00
1494.017, 44890.00
1495.055, 44935.00
1496.093, 45072.00
1497.131, 44623.00
1498.168, 45018.00
1499.206, 45130.00
1500.243, 45377.00
1501.280, 45235.00
1502.317, 45478.00
1503.354, 45230.00
1504.390, 45264.00
1505.426, 45316.00
1506.463, 45774.00
1507.499, 45745.00
1508.535, 45902.00
1509.570, 45616.00
1510.606, 45885.00
1511.641, 45882.00
1512.676, 45691.00
1513.711, 45794.00
1514.746, 45714.00
1515.781, 45897.00
1516.816, 45946.00
1517.850, 46008.00
1518.884, 45783.00
1519.918, 45833.00
1520.952, 45966.00
1521.986, 46134.00
1523.019, 46038.00
1524.053, 46432.00
1525.086, 46255.00
1526.119, 46165.00
1527.152, 46412.00
1528.185, 46401.00
1529.217, 46455.00
1530.250, 46333.00
1531.282, 46431.00
1532.314, 46334.00
1533.346, 46379.00
1534.377, 46434.00
1535.409, 46250.00
1536.440, 46867.00
1537.472, 46613.00
1538.503, 46826.00
1539.534, 46346.00
1540.564, 46650.00
1541.595, 47035.00
1542.625, 46843.00
1543.656, 46920.00
1544.686, 46942.00
1545.716, 47171.00
1546.745, 47153.00
1547.775, 47027.00
1548.804, 46849.00
1549.834, 47113.00
1550.863, 47460.00
1551.892, 47221.00
1552.920, 47353.00
1553.949, 47648.00
1554.977, 47307.00
1556.006, 47379.00
1557.034, 47777.00
1558.062, 47566.00
1559.089, 47573.00
1560.117, 47541.00
1561.144, 47647.00
1562.172, 47729.00
1563.199, 47677.00
1564.226, 47763.00
1565.252, 47912.00
1566.279, 48111.00
1567.305, 48077.00
1568.332, 47961.00
1569.358, 47861.00
1570.384, 48540.00
##END=



