##NAMES=Shortite
##RRUFFID=R050248
##IDEAL CHEMISTRY=Na_2_Ca_2_(CO_3_)_3_
##LOCALITY=Stauffer mine, Green River, Wyoming, USA
##OWNER=RRUFF
##SOURCE=Marcus Origlieri
##DESCRIPTION=Colorless wedge-shaped single crystal
##STATUS=The identification of this mineral has been confirmed by X-ray diffraction and chemical analysis
##URL=rruff.info/R050248
##MEASURED CHEMISTRY=Na_2.00_Ca_2.00_(CO_3_)_3_ ; CO2 not measured but estimated by difference and stoichiometry.
##PIN_ID=L01144
##ORIENTATION=Laser parallel to a* (1 0 0). Fiducial mark perpendicular to laser is parallel to -b [0 -1 0]
102.9200, 11471.00
104.1590, 11675.00
105.3980, 11846.00
106.6360, 11877.00
107.8750, 12239.00
109.1130, 12236.00
110.3510, 12477.00
111.5890, 12482.00
112.8270, 12632.00
114.0650, 12608.00
115.3020, 12537.00
116.5390, 12652.00
117.7770, 12673.00
119.0130, 12839.00
120.2500, 12788.00
121.4870, 12773.00
122.7230, 12994.00
123.9590, 13013.00
125.1950, 13147.00
126.4310, 13237.00
127.6670, 13344.00
128.9030, 13390.00
130.1380, 13607.00
131.3730, 13852.00
132.6080, 13804.00
133.8430, 13923.00
135.0780, 14109.00
136.3120, 14051.00
137.5470, 14294.00
138.7810, 14289.00
140.0150, 14432.00
141.2480, 14565.00
142.4820, 14580.00
143.7160, 14459.00
144.9490, 14467.00
146.1820, 14424.00
147.4150, 14437.75
148.6480, 14475.79
149.8800, 14536.00
151.1130, 14608.00
152.3450, 14705.00
153.5770, 14834.00
154.8090, 14748.00
156.0410, 14881.00
157.2720, 14939.00
158.5040, 14833.00
159.7350, 14988.00
160.9660, 14979.00
162.1970, 14889.00
163.4270, 15038.00
164.6580, 15154.00
165.8880, 15213.00
167.1180, 15329.00
168.3480, 15530.00
169.5780, 15652.00
170.8080, 15667.00
172.0370, 15532.00
173.2670, 15797.00
174.4960, 15421.00
175.7250, 15440.00
176.9540, 15167.00
178.1820, 15102.00
179.4110, 15228.00
180.6390, 15151.00
181.8670, 15044.00
183.0950, 15172.00
184.3230, 15256.00
185.5500, 15126.00
186.7780, 15374.00
188.0050, 15434.00
189.2320, 15416.00
190.4590, 15594.00
191.6850, 15719.00
192.9120, 16071.00
194.1380, 16247.00
195.3650, 16549.00
196.5910, 16696.00
197.8160, 16943.00
199.0420, 17246.00
200.2680, 17572.00
201.4930, 17676.00
202.7180, 17728.00
203.9430, 17609.00
205.1680, 17412.00
206.3930, 17123.00
207.6170, 16816.00
208.8410, 16426.00
210.0660, 16267.65
211.2890, 16123.00
212.5130, 15969.00
213.7370, 15864.00
214.9600, 15836.00
216.1840, 15827.00
217.4070, 15874.00
218.6300, 15846.00
219.8520, 15643.00
221.0750, 15911.00
222.2970, 15755.00
223.5200, 15947.00
224.7420, 15934.00
225.9640, 15878.00
227.1850, 15848.00
228.4070, 15919.00
229.6280, 15928.00
230.8490, 16207.00
232.0700, 16271.00
233.2910, 16248.00
234.5120, 16306.00
235.7320, 16243.00
236.9530, 16426.00
238.1730, 16526.00
239.3930, 16340.00
240.6130, 16361.00
241.8320, 16306.00
243.0520, 16553.00
244.2710, 16527.00
245.4900, 16506.00
246.7090, 16709.00
247.9280, 16676.00
249.1470, 16799.00
250.3650, 17011.00
251.5840, 16994.00
252.8020, 17115.00
254.0200, 17401.00
255.2370, 17719.00
256.4550, 18003.00
257.6720, 18277.45
258.8900, 18630.00
260.1070, 18795.00
261.3240, 19010.00
262.5400, 19229.00
263.7570, 19159.00
264.9730, 19434.00
266.1900, 19308.00
267.4060, 18918.00
268.6220, 18734.00
269.8370, 18285.00
271.0530, 18179.00
272.2680, 17839.00
273.4830, 17573.00
274.6980, 17545.00
275.9130, 17508.00
277.1280, 17371.00
278.3420, 17231.00
279.5570, 17218.00
280.7710, 17148.00
281.9850, 17104.29
283.1990, 17142.72
284.4120, 17134.00
285.6260, 17151.00
286.8390, 17346.00
288.0520, 17197.00
289.2650, 17263.00
290.4780, 17212.00
291.6910, 17392.00
292.9030, 17368.00
294.1160, 17536.00
295.3280, 17431.00
296.5400, 17390.00
297.7510, 17281.00
298.9630, 17283.09
300.1740, 17321.48
301.3860, 17346.00
302.5970, 17442.00
303.8080, 17600.00
305.0180, 17602.00
306.2290, 17393.00
307.4390, 17507.00
308.6500, 17474.00
309.8600, 17454.00
311.0700, 17828.00
312.2790, 17779.00
313.4890, 17773.00
314.6980, 17708.00
315.9080, 17766.00
317.1170, 17771.00
318.3250, 17812.00
319.5340, 17949.00
320.7430, 17911.00
321.9510, 17918.00
323.1590, 18074.00
324.3670, 17993.00
325.5750, 18089.00
326.7830, 18124.00
327.9900, 18108.00
329.1980, 18169.00
330.4050, 18158.99
331.6120, 18083.00
332.8190, 18193.00
334.0250, 18169.00
335.2320, 18247.00
336.4380, 18153.00
337.6440, 18358.00
338.8500, 18376.00
340.0560, 18255.00
341.2620, 18367.00
342.4670, 18392.00
343.6730, 18479.00
344.8780, 18578.00
346.0830, 18595.64
347.2870, 18508.00
348.4920, 18606.00
349.6970, 18594.00
350.9010, 18472.00
352.1050, 18564.00
353.3090, 18590.00
354.5130, 18700.00
355.7160, 18726.12
356.9200, 18775.00
358.1230, 18744.00
359.3260, 18870.00
360.5290, 18774.00
361.7320, 18981.00
362.9340, 18850.00
364.1370, 18835.00
365.3390, 18965.00
366.5410, 18926.00
367.7430, 18948.00
368.9450, 18963.00
370.1460, 18934.00
371.3480, 19115.00
372.5490, 19118.00
373.7500, 19260.00
374.9510, 19231.00
376.1520, 19143.00
377.3520, 19132.00
378.5520, 19179.00
379.7530, 19316.00
380.9530, 19314.00
382.1530, 19435.00
383.3520, 19499.00
384.5520, 19533.00
385.7510, 19710.00
386.9500, 19474.00
388.1490, 19404.00
389.3480, 19600.00
390.5470, 19611.00
391.7450, 19638.00
392.9440, 19873.00
394.1420, 19802.00
395.3400, 19522.00
396.5380, 20030.00
397.7350, 19714.00
398.9330, 19823.00
400.1300, 20125.00
401.3270, 19957.00
402.5240, 19858.00
403.7210, 19996.00
404.9180, 19977.00
406.1140, 20068.00
407.3110, 20062.48
408.5070, 19912.00
409.7030, 20104.00
410.8990, 19973.00
412.0940, 20139.00
413.2900, 19979.00
414.4850, 19840.00
415.6800, 20004.00
416.8750, 20168.00
418.0700, 20003.00
419.2650, 20021.00
420.4590, 20053.00
421.6530, 19835.00
422.8470, 20277.00
424.0410, 20203.00
425.2350, 20099.00
426.4290, 20268.00
427.6220, 20290.00
428.8160, 20245.00
430.0090, 20359.00
431.2020, 20287.00
432.3940, 20367.00
433.5870, 20398.00
434.7790, 20169.00
435.9720, 20589.00
437.1640, 20327.00
438.3560, 20353.00
439.5470, 20550.00
440.7390, 20434.00
441.9300, 20388.00
443.1220, 20699.00
444.3130, 20625.00
445.5040, 20572.00
446.6940, 20794.00
447.8850, 20711.00
449.0750, 20737.00
450.2660, 20757.00
451.4560, 20745.36
452.6460, 20983.00
453.8350, 20762.00
455.0250, 20992.00
456.2140, 20978.00
457.4040, 20989.00
458.5930, 21113.00
459.7820, 20923.00
460.9700, 21133.00
462.1590, 21078.00
463.3470, 20872.00
464.5350, 21238.00
465.7240, 20974.00
466.9110, 21158.00
468.0990, 21151.00
469.2870, 21238.00
470.4740, 21282.00
471.6610, 21244.00
472.8480, 21490.00
474.0350, 21374.00
475.2220, 21322.00
476.4090, 21214.00
477.5950, 21365.00
478.7810, 21341.00
479.9670, 21434.00
481.1530, 21535.00
482.3390, 21483.00
483.5240, 21687.00
484.7100, 21516.00
485.8950, 21674.00
487.0800, 21645.00
488.2650, 21665.00
489.4490, 21805.00
490.6340, 21716.00
491.8180, 21636.00
493.0030, 22004.00
494.1870, 21634.00
495.3700, 21887.00
496.5540, 21951.00
497.7380, 21917.00
498.9210, 21958.00
500.1040, 22195.00
501.2870, 22106.00
502.4700, 22123.00
503.6530, 22232.00
504.8350, 22146.00
506.0180, 22236.83
507.2000, 22361.00
508.3820, 22344.00
509.5640, 22443.00
510.7450, 22529.00
511.9270, 22359.00
513.1080, 22559.00
514.2890, 22510.00
515.4700, 22419.00
516.6510, 22542.00
517.8320, 22635.00
519.0130, 22652.00
520.1930, 22711.00
521.3730, 22695.00
522.5530, 22795.00
523.7330, 22798.00
524.9130, 22715.00
526.0920, 22837.00
527.2710, 22993.00
528.4510, 22785.00
529.6300, 22819.00
530.8080, 22942.00
531.9870, 23032.00
533.1660, 22740.00
534.3440, 22942.00
535.5220, 22590.00
536.7000, 23019.00
537.8780, 23069.00
539.0560, 22920.00
540.2330, 22947.00
541.4110, 23065.00
542.5880, 23073.00
543.7650, 23078.00
544.9420, 22913.00
546.1180, 23208.00
547.2950, 23099.00
548.4710, 23123.00
549.6470, 23380.00
550.8230, 23261.00
551.9990, 23347.00
553.1750, 23349.00
554.3500, 23274.00
555.5260, 23482.00
556.7010, 23354.00
557.8760, 23354.00
559.0510, 23471.00
560.2250, 23410.00
561.4000, 23549.00
562.5740, 23639.00
563.7480, 23595.00
564.9220, 23759.00
566.0960, 23611.00
567.2700, 23670.00
568.4430, 23566.00
569.6170, 23438.00
570.7900, 23719.00
571.9630, 23844.00
573.1360, 23753.00
574.3080, 23701.00
575.4810, 23921.00
576.6530, 23975.00
577.8250, 24049.00
578.9980, 24132.00
580.1690, 24091.25
581.3410, 24126.16
582.5130, 24047.00
583.6840, 24049.00
584.8550, 24130.00
586.0260, 23994.00
587.1970, 24227.00
588.3680, 24212.00
589.5380, 24314.00
590.7080, 23994.00
591.8790, 24120.00
593.0490, 24201.00
594.2190, 24212.00
595.3880, 24410.00
596.5580, 24449.00
597.7270, 24393.00
598.8960, 24503.00
600.0650, 24572.00
601.2340, 24443.00
602.4030, 24524.13
603.5710, 24578.00
604.7400, 24567.00
605.9080, 24510.00
607.0760, 24637.00
608.2440, 24718.00
609.4120, 24916.00
610.5790, 24851.00
611.7460, 24612.00
612.9140, 24737.00
614.0810, 25040.00
615.2480, 24715.00
616.4140, 24873.00
617.5810, 25000.00
618.7470, 24988.00
619.9130, 24943.00
621.0790, 25021.00
622.2450, 25016.00
623.4110, 25073.00
624.5770, 24978.00
625.7420, 25290.00
626.9070, 25114.00
628.0720, 25200.00
629.2370, 25306.00
630.4020, 25238.00
631.5660, 25405.00
632.7310, 25332.00
633.8950, 25406.69
635.0590, 25564.00
636.2230, 25518.00
637.3870, 25511.00
638.5500, 25575.00
639.7140, 25638.00
640.8770, 25752.00
642.0400, 25715.00
643.2030, 25840.00
644.3660, 25634.00
645.5280, 25687.00
646.6910, 25791.00
647.8530, 25715.00
649.0150, 25948.00
650.1770, 26017.00
651.3390, 25946.00
652.5000, 25874.00
653.6620, 25903.00
654.8230, 25771.00
655.9840, 25874.00
657.1450, 26032.00
658.3060, 25907.00
659.4660, 26181.00
660.6270, 26105.00
661.7870, 26325.00
662.9470, 26112.00
664.1070, 26198.00
665.2670, 26145.00
666.4260, 26142.00
667.5860, 26200.00
668.7450, 26160.68
669.9040, 26328.00
671.0630, 26225.00
672.2220, 26281.00
673.3800, 26476.00
674.5390, 26453.00
675.6970, 26494.00
676.8550, 26422.00
678.0130, 26373.00
679.1710, 26645.00
680.3290, 26650.00
681.4860, 26675.00
682.6430, 26733.00
683.8000, 26818.00
684.9570, 26771.00
686.1140, 26794.00
687.2710, 26854.00
688.4270, 27002.00
689.5840, 26857.00
690.7400, 27001.00
691.8960, 27237.00
693.0520, 27449.00
694.2070, 27431.00
695.3630, 27581.00
696.5180, 27415.00
697.6730, 27479.00
698.8280, 27659.00
699.9830, 27325.00
701.1380, 27231.00
702.2920, 27245.00
703.4470, 27088.00
704.6010, 27491.00
705.7550, 27608.00
706.9090, 27622.00
708.0620, 27981.00
709.2160, 28033.00
710.3690, 28388.00
711.5220, 28412.00
712.6750, 28552.00
713.8280, 28453.00
714.9810, 28529.00
716.1340, 28627.00
717.2860, 28459.00
718.4380, 28194.00
719.5900, 27921.00
720.7420, 27906.00
721.8940, 27784.00
723.0450, 27672.00
724.1970, 27933.00
725.3480, 27753.00
726.4990, 27770.00
727.6500, 28033.00
728.8010, 27957.00
729.9510, 27968.00
731.1020, 28120.00
732.2520, 28226.00
733.4020, 28131.00
734.5520, 28049.00
735.7020, 28403.00
736.8510, 28159.00
738.0010, 28208.00
739.1500, 28123.00
740.2990, 28027.00
741.4480, 28149.00
742.5970, 28343.00
743.7450, 28367.00
744.8940, 28531.00
746.0420, 28549.00
747.1900, 28255.00
748.3380, 28710.00
749.4860, 28443.00
750.6330, 28736.00
751.7810, 28365.00
752.9280, 28588.00
754.0750, 28533.00
755.2220, 28669.00
756.3690, 28748.00
757.5160, 28754.00
758.6620, 28888.00
759.8090, 28750.00
760.9550, 28833.00
762.1010, 28901.00
763.2470, 28982.00
764.3920, 29052.19
765.5380, 29109.00
766.6830, 29131.00
767.8280, 29153.81
768.9730, 29158.69
770.1180, 29158.00
771.2630, 29076.00
772.4070, 29075.00
773.5520, 29136.75
774.6960, 29036.00
775.8400, 29339.00
776.9840, 29428.00
778.1280, 29608.00
779.2710, 29429.00
780.4140, 29284.00
781.5580, 29409.00
782.7010, 29221.00
783.8440, 29454.00
784.9860, 29393.00
786.1290, 29413.00
787.2710, 29603.00
788.4140, 29899.00
789.5560, 29444.00
790.6980, 29473.00
791.8390, 29755.00
792.9810, 29719.00
794.1220, 29919.00
795.2640, 29600.00
796.4050, 29788.00
797.5460, 29923.00
798.6860, 29884.00
799.8270, 30143.00
800.9680, 30085.00
802.1080, 30237.00
803.2480, 30177.00
804.3880, 30055.00
805.5280, 29958.00
806.6670, 30179.00
807.8070, 30181.00
808.9460, 30374.00
810.0850, 30339.00
811.2240, 30285.00
812.3630, 30450.00
813.5020, 30339.00
814.6400, 30420.00
815.7790, 30453.00
816.9170, 30388.00
818.0550, 30478.08
819.1930, 30488.05
820.3300, 30548.00
821.4680, 30560.00
822.6050, 30548.92
823.7430, 30545.01
824.8800, 30587.00
826.0170, 30635.00
827.1530, 30750.00
828.2900, 30749.00
829.4260, 30861.00
830.5620, 30910.00
831.6990, 31088.00
832.8340, 31176.00
833.9700, 31152.48
835.1060, 31150.00
836.2410, 31120.00
837.3760, 31204.00
838.5120, 31297.00
839.6470, 31449.00
840.7810, 31189.00
841.9160, 31403.00
843.0500, 31327.00
844.1850, 31190.00
845.3190, 31321.00
846.4530, 31569.00
847.5870, 31426.00
848.7200, 31686.00
849.8540, 31463.00
850.9870, 31383.00
852.1200, 31597.00
853.2530, 31556.00
854.3860, 31822.00
855.5190, 31728.00
856.6510, 31867.00
857.7840, 31757.00
858.9160, 31922.00
860.0480, 31893.00
861.1800, 32079.00
862.3110, 31931.00
863.4430, 32073.00
864.5740, 32089.00
865.7060, 32083.00
866.8370, 32040.00
867.9680, 32121.00
869.0980, 32172.00
870.2290, 32273.00
871.3590, 32293.23
872.4900, 32242.00
873.6200, 32308.00
874.7500, 32468.00
875.8790, 32412.00
877.0090, 32459.00
878.1380, 32417.00
879.2680, 32517.00
880.3970, 32631.00
881.5260, 32417.00
882.6550, 32554.00
883.7830, 32782.00
884.9120, 32487.00
886.0400, 32842.00
887.1680, 32871.00
888.2960, 32780.00
889.4240, 32906.00
890.5520, 32951.00
891.6790, 32848.00
892.8070, 32740.00
893.9340, 32872.00
895.0610, 33072.00
896.1880, 32943.00
897.3140, 32986.00
898.4410, 32962.00
899.5670, 33036.00
900.6940, 33282.00
901.8200, 33284.00
902.9450, 33440.00
904.0710, 33297.00
905.1970, 33367.00
906.3220, 33434.00
907.4470, 33364.00
908.5730, 33595.00
909.6980, 33405.00
910.8220, 33470.00
911.9470, 33616.00
913.0710, 33733.00
914.1960, 33564.00
915.3200, 33575.00
916.4440, 33816.00
917.5680, 33826.00
918.6910, 34072.00
919.8150, 33974.00
920.9380, 33764.00
922.0610, 33708.00
923.1840, 33795.00
924.3070, 33947.00
925.4300, 33897.00
926.5520, 33913.00
927.6750, 34003.00
928.7970, 34185.00
929.9190, 34088.00
931.0410, 34296.00
932.1630, 34255.00
933.2840, 34318.00
934.4060, 34275.00
935.5270, 34353.00
936.6480, 34445.00
937.7690, 34583.00
938.8900, 34590.04
940.0100, 34556.00
941.1310, 34638.00
942.2510, 34494.00
943.3710, 34530.00
944.4910, 34687.00
945.6110, 34591.00
946.7310, 34930.00
947.8500, 34844.00
948.9690, 34645.00
950.0890, 35084.00
951.2080, 34944.00
952.3260, 34826.00
953.4450, 34903.00
954.5640, 34955.07
955.6820, 35122.00
956.8000, 35225.00
957.9180, 35292.00
959.0360, 35342.00
960.1540, 35379.00
961.2710, 35344.00
962.3890, 35223.00
963.5060, 35530.00
964.6230, 35289.00
965.7400, 35549.00
966.8570, 35594.00
967.9730, 35522.00
969.0900, 35485.00
970.2060, 35834.00
971.3220, 35783.00
972.4380, 35513.00
973.5540, 35845.00
974.6700, 35810.00
975.7850, 36111.00
976.9010, 35941.00
978.0160, 35904.00
979.1310, 36087.00
980.2460, 36041.00
981.3600, 36101.00
982.4750, 36127.00
983.5890, 36123.00
984.7030, 36145.00
985.8170, 36403.00
986.9310, 36364.00
988.0450, 36378.97
989.1590, 36562.00
990.2720, 36355.00
991.3850, 36237.00
992.4980, 36369.00
993.6110, 36550.00
994.7240, 36407.00
995.8370, 36538.00
996.9490, 36631.00
998.0620, 36463.00
999.1740, 36674.00
1000.286, 36647.00
1001.398, 36689.00
1002.509, 36855.00
1003.621, 36970.00
1004.732, 37015.00
1005.843, 37059.00
1006.954, 37028.00
1008.065, 36984.00
1009.176, 36944.00
1010.286, 37151.00
1011.397, 37217.00
1012.507, 37392.00
1013.617, 37293.00
1014.727, 37238.00
1015.837, 37415.00
1016.946, 37464.00
1018.056, 37413.00
1019.165, 37608.00
1020.274, 37425.00
1021.383, 37507.00
1022.492, 37575.00
1023.601, 37778.00
1024.709, 37606.00
1025.817, 37773.00
1026.926, 37665.00
1028.034, 37779.00
1029.141, 37678.00
1030.249, 37920.00
1031.357, 38154.00
1032.464, 37993.00
1033.571, 38086.00
1034.678, 38178.00
1035.785, 38059.00
1036.892, 38082.00
1037.999, 38475.00
1039.105, 38328.00
1040.211, 38331.00
1041.317, 38541.00
1042.423, 38339.00
1043.529, 38625.00
1044.635, 38435.00
1045.740, 38320.00
1046.845, 38646.00
1047.951, 38703.00
1049.056, 38632.00
1050.160, 38887.00
1051.265, 38782.00
1052.370, 38819.00
1053.474, 39051.00
1054.578, 38962.00
1055.682, 38996.00
1056.786, 39345.00
1057.890, 39272.00
1058.993, 39456.00
1060.097, 39418.00
1061.200, 39645.00
1062.303, 39816.00
1063.406, 39800.00
1064.509, 40671.00
1065.612, 41806.00
1066.714, 43330.00
1067.816, 44644.00
1068.919, 46333.00
1070.021, 48495.00
1071.122, 48790.00
1072.224, 48209.00
1073.326, 46687.00
1074.427, 44538.00
1075.528, 42543.00
1076.629, 41247.00
1077.730, 40815.00
1078.831, 40718.00
1079.931, 40671.00
1081.032, 40942.00
1082.132, 41589.00
1083.232, 43536.00
1084.332, 45675.38
1085.432, 49155.00
1086.531, 52521.00
1087.631, 57147.00
1088.730, 62803.00
1089.829, 63661.00
1090.928, 62543.00
1092.027, 58890.00
1093.126, 52580.00
1094.224, 46495.00
1095.323, 43364.00
1096.421, 41811.00
1097.519, 41566.00
1098.617, 40991.00
1099.715, 41177.00
1100.812, 41097.00
1101.910, 41159.00
1103.007, 40976.00
1104.104, 40875.00
1105.201, 41011.00
1106.298, 41154.00
1107.394, 40890.00
1108.491, 40839.00
1109.587, 41219.00
1110.683, 41452.00
1111.779, 41238.00
1112.875, 41207.00
1113.971, 41094.00
1115.066, 41284.00
1116.162, 41395.00
1117.257, 41311.00
1118.352, 41601.00
1119.447, 41643.00
1120.542, 41737.00
1121.636, 41653.00
1122.731, 41771.00
1123.825, 41646.00
1124.919, 41944.00
1126.013, 41957.00
1127.107, 41963.00
1128.200, 41873.00
1129.294, 42118.00
1130.387, 41904.00
1131.480, 42001.00
1132.573, 42099.00
1133.666, 42062.00
1134.759, 41993.00
1135.851, 42112.00
1136.944, 42101.42
1138.036, 42189.00
1139.128, 42260.00
1140.220, 42480.00
1141.312, 42674.00
1142.403, 42586.00
1143.495, 42533.00
1144.586, 42690.00
1145.677, 42359.00
1146.768, 42486.00
1147.859, 42655.00
1148.950, 43069.00
1150.040, 42846.00
1151.130, 42847.00
1152.221, 43168.00
1153.311, 42850.00
1154.401, 43073.00
1155.490, 42956.00
1156.580, 43113.00
1157.669, 43016.00
1158.759, 43043.00
1159.848, 43316.00
1160.937, 43350.00
1162.025, 43417.00
1163.114, 43250.00
1164.202, 43534.00
1165.291, 43570.00
1166.379, 43450.00
1167.467, 43677.00
1168.555, 43644.00
1169.642, 43962.00
1170.730, 43911.00
1171.817, 43702.00
1172.905, 43935.00
1173.992, 44191.00
1175.078, 43931.00
1176.165, 44083.00
1177.252, 44135.00
1178.338, 44252.00
1179.425, 43997.00
1180.511, 44092.00
1181.597, 44116.92
1182.682, 44170.00
1183.768, 44274.00
1184.854, 44301.96
1185.939, 44390.21
1187.024, 44412.00
1188.109, 44493.00
1189.194, 44559.00
1190.279, 44508.00
1191.363, 44643.00
1192.448, 44442.00
1193.532, 44692.00
1194.616, 44919.00
1195.700, 44933.00
1196.784, 44729.00
1197.867, 45198.00
1198.951, 44818.00
1200.034, 45011.00
1201.117, 45157.00
1202.200, 45075.00
1203.283, 45362.00
1204.366, 45192.00
1205.448, 45222.00
1206.531, 45442.00
1207.613, 45101.00
1208.695, 45406.00
1209.777, 45384.00
1210.859, 45885.00
1211.940, 45505.00
1213.022, 45685.00
1214.103, 45727.00
1215.184, 45635.00
1216.265, 45923.00
1217.346, 46205.00
1218.427, 45634.00
1219.507, 45953.00
1220.587, 46015.00
1221.668, 46146.00
1222.748, 46404.00
1223.828, 46059.00
1224.907, 46300.00
1225.987, 46256.00
1227.066, 46413.00
1228.146, 46599.00
1229.225, 46450.00
1230.304, 46458.00
1231.382, 46805.00
1232.461, 46491.00
1233.540, 46449.00
1234.618, 46717.00
1235.696, 46942.00
1236.774, 46945.00
1237.852, 46820.00
1238.930, 47130.00
1240.007, 46874.00
1241.085, 47145.00
1242.162, 46904.00
1243.239, 47034.00
1244.316, 47004.00
1245.393, 47165.00
1246.469, 47544.00
1247.546, 47209.00
1248.622, 47254.00
1249.698, 47526.00
1250.774, 47428.00
1251.850, 47333.00
1252.926, 47283.00
1254.001, 47650.00
1255.077, 47771.00
1256.152, 47741.00
1257.227, 48116.00
1258.302, 47721.00
1259.377, 48012.00
1260.451, 47958.00
1261.526, 47737.00
1262.600, 48298.00
1263.674, 48056.00
1264.748, 48016.00
1265.822, 48015.00
1266.896, 47994.96
1267.969, 48248.00
1269.043, 48214.00
1270.116, 48299.00
1271.189, 48604.00
1272.262, 48248.00
1273.335, 48644.00
1274.407, 48559.00
1275.480, 48599.00
1276.552, 48823.00
1277.624, 48782.00
1278.696, 49084.00
1279.768, 49027.00
1280.840, 49046.00
1281.911, 48902.00
1282.982, 48830.00
1284.054, 48834.39
1285.125, 48993.00
1286.196, 48930.00
1287.266, 49023.00
1288.337, 49303.00
1289.407, 49288.00
1290.478, 49562.00
1291.548, 49397.00
1292.618, 49526.00
1293.688, 49546.00
1294.757, 49530.33
1295.827, 49573.04
1296.896, 49646.00
1297.965, 49563.00
1299.034, 49758.00
1300.103, 49765.00
1301.172, 49978.00
1302.241, 49878.00
1303.309, 49884.00
1304.377, 49901.00
1305.445, 49883.27
1306.513, 49936.50
1307.581, 50011.00
1308.649, 50002.00
1309.716, 50257.00
1310.784, 50239.00
1311.851, 50317.00
1312.918, 50193.00
1313.985, 50569.00
1315.052, 50414.00
1316.118, 50877.00
1317.185, 50757.00
1318.251, 50641.00
1319.317, 50690.00
1320.383, 50771.00
1321.449, 51000.00
1322.514, 50811.00
1323.580, 50877.00
1324.645, 50939.00
1325.711, 51303.00
1326.776, 50977.00
1327.840, 51399.00
1328.905, 51027.00
1329.970, 51211.00
1331.034, 51234.00
1332.099, 51544.00
1333.163, 51226.00
1334.227, 51546.00
1335.290, 51561.00
1336.354, 51317.00
1337.418, 51502.00
1338.481, 51684.00
1339.544, 51507.00
1340.607, 52013.00
1341.670, 51845.00
1342.733, 51750.00
1343.795, 51854.00
1344.858, 52015.00
1345.920, 52085.00
1346.982, 52264.00
1348.044, 52122.00
1349.106, 52105.00
1350.168, 52069.00
1351.229, 52305.00
1352.291, 52272.00
1353.352, 52301.00
1354.413, 52635.00
1355.474, 52323.00
1356.534, 52520.00
1357.595, 52452.00
1358.656, 52854.00
1359.716, 52669.00
1360.776, 52599.00
1361.836, 52793.00
1362.896, 52756.00
1363.955, 53087.00
1365.015, 53064.00
1366.074, 53033.00
1367.134, 53122.00
1368.193, 53064.00
1369.252, 53048.00
1370.310, 53234.00
1371.369, 53277.00
1372.427, 53254.00
1373.486, 53456.00
1374.544, 53076.00
1375.602, 53351.00
1376.660, 53435.00
1377.717, 53327.00
1378.775, 53615.00
1379.832, 53695.00
1380.889, 53722.90
1381.946, 54051.00
1383.003, 53814.00
1384.060, 53694.00
1385.117, 53706.00
1386.173, 54083.00
1387.230, 53993.00
1388.286, 54184.00
1389.342, 54353.00
1390.398, 54270.00
1391.453, 54210.00
1392.509, 54245.00
1393.564, 54261.00
1394.619, 54301.10
1395.675, 54144.00
1396.729, 54393.00
1397.784, 54309.00
1398.839, 54259.00
1399.893, 54374.00
1400.948, 54921.00
1402.002, 54708.00
1403.056, 54702.00
1404.110, 55081.00
1405.163, 54829.00
1406.217, 54989.00
1407.270, 55109.00
1408.324, 54888.00
1409.377, 55023.00
1410.430, 55327.00
1411.483, 55328.00
1412.535, 55258.00
1413.588, 55347.00
1414.640, 55521.00
1415.692, 55648.00
1416.744, 56077.00
1417.796, 56327.00
1418.848, 56588.00
1419.900, 56441.00
1420.951, 56164.00
1422.002, 56380.00
1423.053, 56119.00
1424.104, 55826.00
1425.155, 55654.00
1426.206, 56136.00
1427.256, 55887.00
1428.307, 56065.00
1429.357, 56061.00
1430.407, 56064.00
1431.457, 56170.00
1432.507, 56168.00
1433.556, 56357.00
1434.606, 56132.00
1435.655, 56447.00
1436.704, 56513.00
1437.753, 56465.00
1438.802, 56723.00
1439.851, 56367.00
1440.899, 56524.00
1441.948, 56580.00
1442.996, 56981.00
1444.044, 56694.00
1445.092, 56966.00
1446.140, 56587.00
1447.187, 56899.00
1448.235, 56666.00
1449.282, 56993.00
1450.329, 57183.00
1451.376, 57190.00
1452.423, 56963.00
1453.470, 57086.00
1454.517, 57123.00
1455.563, 57409.00
1456.609, 57239.00
1457.655, 57581.00
1458.701, 57185.00
1459.747, 57421.00
1460.793, 57503.00
1461.838, 57731.00
1462.884, 57382.00
1463.929, 57602.00
1464.974, 57779.00
1466.019, 57585.00
1467.064, 57974.00
1468.108, 57930.00
1469.153, 57687.00
1470.197, 57876.00
1471.241, 58050.00
1472.285, 58126.00
1473.329, 58219.00
1474.373, 58310.38
1475.416, 58311.55
1476.460, 58431.00
1477.503, 58323.00
1478.546, 58340.00
1479.589, 58395.00
1480.632, 58730.00
1481.674, 58284.00
1482.717, 58216.00
1483.759, 58715.00
1484.801, 58591.00
1485.843, 58755.00
1486.885, 58774.00
1487.927, 58896.00
1488.968, 58794.00
1490.010, 59147.00
1491.051, 59385.00
1492.092, 58846.00
1493.133, 58529.00
1494.174, 59138.00
1495.215, 59104.00
1496.255, 59223.00
1497.296, 59385.00
1498.336, 59398.00
1499.376, 59310.00
1500.416, 59014.00
1501.456, 59412.00
1502.495, 59683.00
1503.535, 59469.00
1504.574, 59743.00
1505.613, 59718.00
1506.652, 59671.00
1507.691, 59999.00
1508.730, 59956.00
1509.768, 59639.00
1510.807, 60336.00
1511.845, 60081.00
1512.883, 59852.00
1513.921, 60174.00
1514.959, 60214.00
1515.996, 60109.00
1517.034, 60706.00
1518.071, 60452.00
1519.109, 60262.00
1520.146, 60557.00
1521.183, 60374.00
1522.219, 60538.00
1523.256, 60513.00
1524.292, 60746.00
1525.329, 60484.00
1526.365, 60728.00
1527.401, 60828.00
1528.437, 60578.00
1529.472, 60740.00
1530.508, 60800.00
1531.543, 60618.00
1532.579, 60903.00
1533.614, 61165.00
1534.649, 60920.00
1535.683, 60770.00
1536.718, 60843.00
1537.753, 60977.00
1538.787, 60824.00
1539.821, 61149.00
1540.855, 61332.00
1541.889, 61255.00
1542.923, 61239.00
1543.956, 61246.00
1544.990, 61080.00
1546.023, 61420.00
1547.056, 61423.00
1548.089, 61193.00
1549.122, 61631.00
1550.155, 61807.00
1551.187, 61398.00
1552.220, 61682.00
1553.252, 61525.00
1554.284, 61875.00
1555.316, 61953.00
1556.348, 61766.00
1557.379, 61874.00
1558.411, 61847.00
1559.442, 62226.00
1560.474, 62143.03
1561.505, 61953.00
1562.535, 62225.00
1563.566, 61999.00
1564.597, 62130.00
1565.627, 62176.00
1566.658, 62208.00
1567.688, 62600.00
1568.718, 62567.00
1569.748, 62650.00
1570.777, 62858.00
##END=



