##NAMES=Shortite
##RRUFFID=R050248
##IDEAL CHEMISTRY=Na_2_Ca_2_(CO_3_)_3_
##LOCALITY=Stauffer mine, Green River, Wyoming, USA
##OWNER=RRUFF
##SOURCE=Marcus Origlieri
##DESCRIPTION=Colorless wedge-shaped single crystal
##STATUS=The identification of this mineral has been confirmed by X-ray diffraction and chemical analysis
##URL=rruff.info/R050248
##MEASURED CHEMISTRY=Na_2.00_Ca_2.00_(CO_3_)_3_ ; CO2 not measured but estimated by difference and stoichiometry.
##PIN_ID=L00721
##ORIENTATION=Laser parallel to b* (0 1 0). Fiducial mark perpendicular to laser is parallel to -c [0 0 -1]
108.2800, 8992.000
109.5120, 8929.000
110.7440, 8947.000
111.9760, 8920.000
113.2080, 8983.758
114.4400, 9051.000
115.6710, 9129.000
116.9030, 9180.000
118.1340, 9219.000
119.3650, 9238.000
120.5960, 9364.000
121.8270, 9395.977
123.0580, 9358.000
124.2880, 9549.000
125.5190, 9661.000
126.7490, 9784.000
127.9790, 9796.000
129.2090, 10031.00
130.4390, 10162.00
131.6680, 10391.00
132.8980, 10495.00
134.1270, 10612.00
135.3560, 11009.00
136.5850, 11207.00
137.8140, 11534.00
139.0430, 11407.00
140.2710, 11203.00
141.5000, 11120.00
142.7280, 10960.00
143.9560, 10597.00
145.1840, 10639.00
146.4120, 10456.00
147.6390, 10571.00
148.8670, 10400.00
150.0940, 10416.00
151.3210, 10373.00
152.5490, 10478.00
153.7750, 10713.00
155.0020, 10769.00
156.2290, 10884.00
157.4550, 10954.00
158.6810, 11173.00
159.9080, 11458.00
161.1340, 11782.00
162.3590, 12187.00
163.5850, 12481.00
164.8110, 12921.00
166.0360, 13669.00
167.2610, 14265.00
168.4860, 14594.00
169.7110, 14385.00
170.9360, 13954.00
172.1610, 13571.00
173.3850, 12935.00
174.6100, 12528.00
175.8340, 12142.00
177.0580, 11812.00
178.2820, 11715.00
179.5050, 11496.00
180.7290, 11523.00
181.9520, 11353.00
183.1760, 11380.00
184.3990, 11240.00
185.6220, 11290.00
186.8450, 11347.00
188.0670, 11445.00
189.2900, 11363.00
190.5120, 11555.00
191.7340, 11539.00
192.9560, 11634.00
194.1780, 11848.00
195.4000, 12175.00
196.6220, 12204.00
197.8430, 12239.00
199.0640, 12326.00
200.2860, 12211.00
201.5070, 12335.00
202.7270, 12351.00
203.9480, 12205.00
205.1690, 12218.00
206.3890, 12119.00
207.6090, 12061.00
208.8290, 11911.00
210.0490, 11859.00
211.2690, 11698.00
212.4890, 11789.00
213.7080, 11649.00
214.9280, 11703.00
216.1470, 11722.00
217.3660, 11545.00
218.5850, 11639.00
219.8030, 11708.00
221.0220, 11676.00
222.2400, 11657.00
223.4590, 11674.00
224.6770, 11702.84
225.8950, 11850.00
227.1120, 11811.00
228.3300, 11892.00
229.5480, 11955.00
230.7650, 11984.00
231.9820, 12056.00
233.1990, 12091.00
234.4160, 12259.00
235.6330, 12103.00
236.8490, 12475.00
238.0660, 12428.00
239.2820, 12262.00
240.4980, 12420.00
241.7140, 12541.00
242.9300, 12605.00
244.1460, 12755.00
245.3610, 12755.00
246.5770, 13022.00
247.7920, 13381.00
249.0070, 13552.00
250.2220, 13649.00
251.4370, 14038.00
252.6510, 14203.00
253.8660, 14590.00
255.0800, 15108.00
256.2940, 15463.00
257.5080, 15881.00
258.7220, 16240.00
259.9360, 16647.00
261.1490, 16731.00
262.3630, 16841.00
263.5760, 16811.00
264.7890, 16801.00
266.0020, 16509.00
267.2150, 16059.00
268.4270, 15718.00
269.6400, 15245.00
270.8520, 14771.00
272.0640, 14449.00
273.2760, 14177.00
274.4880, 13927.00
275.7000, 13597.00
276.9120, 13421.00
278.1230, 13259.00
279.3340, 13166.00
280.5450, 13142.00
281.7560, 13090.00
282.9670, 13032.00
284.1780, 12880.00
285.3880, 13047.00
286.5980, 12858.00
287.8090, 12861.00
289.0190, 12703.00
290.2290, 12850.00
291.4380, 12632.00
292.6480, 12890.00
293.8570, 12784.00
295.0670, 12886.00
296.2760, 12691.00
297.4850, 12798.00
298.6930, 12758.00
299.9020, 12900.00
301.1110, 12807.00
302.3190, 12911.00
303.5270, 12752.00
304.7350, 12985.00
305.9430, 12927.00
307.1510, 12837.00
308.3580, 12744.00
309.5660, 13046.00
310.7730, 12790.00
311.9800, 12981.00
313.1870, 12887.00
314.3940, 12901.00
315.6010, 12890.00
316.8070, 13008.00
318.0130, 13102.00
319.2200, 13120.00
320.4260, 13065.00
321.6310, 13114.00
322.8370, 13141.00
324.0430, 13060.00
325.2480, 13220.00
326.4540, 13237.00
327.6590, 13060.00
328.8640, 13099.00
330.0680, 13198.00
331.2730, 13300.00
332.4780, 13190.00
333.6820, 13140.00
334.8860, 13199.00
336.0900, 13189.00
337.2940, 13209.00
338.4980, 13350.00
339.7010, 13386.00
340.9050, 13348.00
342.1080, 13409.51
343.3110, 13409.00
344.5140, 13406.00
345.7170, 13330.00
346.9200, 13304.00
348.1220, 13461.00
349.3240, 13390.00
350.5270, 13550.00
351.7290, 13337.00
352.9310, 13536.00
354.1320, 13649.00
355.3340, 13402.00
356.5350, 13614.00
357.7370, 13598.00
358.9380, 13554.00
360.1390, 13705.00
361.3400, 13718.00
362.5400, 13815.00
363.7410, 13881.00
364.9410, 13691.00
366.1410, 13789.00
367.3410, 13742.00
368.5410, 13739.00
369.7410, 13779.00
370.9400, 13838.00
372.1400, 13857.00
373.3390, 14052.00
374.5380, 13904.00
375.7370, 13964.00
376.9360, 14058.00
378.1350, 13919.00
379.3330, 13994.00
380.5310, 14002.00
381.7300, 14064.00
382.9280, 14096.77
384.1260, 14023.00
385.3230, 14151.00
386.5210, 14167.00
387.7180, 14165.00
388.9160, 14009.00
390.1130, 14168.00
391.3100, 14131.00
392.5060, 14270.00
393.7030, 14278.15
394.9000, 14170.00
396.0960, 14280.00
397.2920, 14313.00
398.4880, 14261.00
399.6840, 14254.00
400.8800, 14264.01
402.0750, 14251.66
403.2710, 14302.00
404.4660, 14322.00
405.6610, 14397.00
406.8560, 14553.00
408.0510, 14475.00
409.2450, 14393.00
410.4400, 14572.00
411.6340, 14682.00
412.8280, 14606.00
414.0220, 14538.00
415.2160, 14574.00
416.4100, 14718.00
417.6030, 14642.00
418.7970, 14811.00
419.9900, 14730.00
421.1830, 14821.00
422.3760, 14657.00
423.5690, 14718.00
424.7610, 14761.00
425.9540, 14814.00
427.1460, 14743.00
428.3380, 14816.00
429.5300, 14819.00
430.7220, 14842.37
431.9140, 14937.00
433.1050, 14910.00
434.2970, 14940.00
435.4880, 14950.00
436.6790, 15016.00
437.8700, 14913.00
439.0610, 14991.00
440.2510, 14905.00
441.4420, 15128.00
442.6320, 15061.00
443.8220, 15102.00
445.0120, 15179.00
446.2020, 14989.00
447.3910, 15193.00
448.5810, 15144.00
449.7700, 15249.00
450.9600, 15230.00
452.1490, 15215.00
453.3370, 15310.00
454.5260, 15264.00
455.7150, 15400.00
456.9030, 15327.00
458.0910, 15378.00
459.2800, 15479.00
460.4670, 15410.00
461.6550, 15314.00
462.8430, 15527.00
464.0300, 15481.00
465.2180, 15507.00
466.4050, 15669.00
467.5920, 15656.00
468.7790, 15571.00
469.9650, 15552.00
471.1520, 15634.00
472.3380, 15687.00
473.5250, 15805.00
474.7110, 15564.00
475.8970, 15699.00
477.0820, 15641.00
478.2680, 15823.00
479.4540, 15804.00
480.6390, 15940.00
481.8240, 15826.00
483.0090, 16119.00
484.1940, 15900.00
485.3780, 15960.00
486.5630, 15917.00
487.7470, 16086.00
488.9320, 16102.00
490.1160, 16042.00
491.3000, 16014.00
492.4830, 16272.00
493.6670, 16025.00
494.8500, 16231.00
496.0340, 16142.00
497.2170, 16160.00
498.4000, 16069.00
499.5820, 16128.00
500.7650, 16225.00
501.9480, 16281.00
503.1300, 16351.00
504.3120, 16397.58
505.4940, 16411.00
506.6760, 16417.00
507.8580, 16487.00
509.0390, 16383.00
510.2210, 16366.00
511.4020, 16400.00
512.5830, 16530.00
513.7640, 16621.00
514.9450, 16543.00
516.1250, 16602.00
517.3060, 16501.00
518.4860, 16735.00
519.6660, 16631.00
520.8460, 16678.00
522.0260, 16715.00
523.2060, 16722.18
524.3850, 16762.00
525.5650, 16825.00
526.7440, 16878.00
527.9230, 16941.00
529.1020, 16868.00
530.2810, 16781.00
531.4590, 16958.00
532.6380, 16829.00
533.8160, 16832.00
534.9940, 16983.00
536.1720, 17146.00
537.3500, 16927.00
538.5270, 17023.00
539.7050, 17076.00
540.8820, 16990.00
542.0590, 17094.00
543.2360, 17257.00
544.4130, 17353.00
545.5900, 17199.00
546.7660, 17374.00
547.9430, 17272.00
549.1190, 17005.00
550.2950, 17333.00
551.4710, 17250.00
552.6470, 17429.00
553.8220, 17506.00
554.9980, 17335.00
556.1730, 17443.00
557.3480, 17431.00
558.5230, 17519.00
559.6980, 17529.00
560.8730, 17566.00
562.0470, 17592.41
563.2220, 17534.00
564.3960, 17651.00
565.5700, 17601.00
566.7440, 17697.00
567.9170, 17583.00
569.0910, 17613.00
570.2640, 17708.00
571.4380, 17726.00
572.6110, 17766.00
573.7840, 17797.59
574.9570, 17738.00
576.1290, 17783.00
577.3020, 17884.00
578.4740, 17785.00
579.6460, 17961.00
580.8180, 17979.00
581.9900, 18030.00
583.1620, 17882.00
584.3330, 17941.38
585.5040, 18009.00
586.6760, 17923.00
587.8470, 17928.00
589.0180, 17889.48
590.1880, 17952.16
591.3590, 17947.00
592.5290, 18127.00
593.7000, 18174.00
594.8700, 18272.00
596.0400, 18234.00
597.2090, 18197.00
598.3790, 18160.00
599.5490, 18179.72
600.7180, 18186.00
601.8870, 18236.00
603.0560, 18382.00
604.2250, 18424.00
605.3940, 18469.00
606.5620, 18535.00
607.7300, 18474.00
608.8990, 18432.00
610.0670, 18537.00
611.2350, 18496.00
612.4020, 18408.00
613.5700, 18638.00
614.7370, 18742.00
615.9050, 18759.00
617.0720, 18706.00
618.2390, 18630.00
619.4060, 18648.76
620.5720, 18692.37
621.7390, 18697.00
622.9050, 18817.00
624.0710, 18972.00
625.2370, 18938.00
626.4030, 18894.00
627.5690, 19057.00
628.7340, 19124.00
629.9000, 18946.00
631.0650, 18896.00
632.2300, 18871.00
633.3950, 19244.00
634.5600, 19209.00
635.7240, 19254.00
636.8890, 19040.00
638.0530, 19149.00
639.2170, 19234.00
640.3810, 19471.00
641.5450, 19444.00
642.7080, 19308.00
643.8720, 19275.00
645.0350, 19213.00
646.1980, 19308.00
647.3610, 19538.00
648.5240, 19431.00
649.6870, 19410.00
650.8490, 19300.00
652.0120, 19698.00
653.1740, 19503.00
654.3360, 19620.00
655.4980, 19487.00
656.6600, 19585.00
657.8210, 19559.00
658.9830, 19681.00
660.1440, 19581.00
661.3050, 19784.00
662.4660, 19858.00
663.6270, 19683.00
664.7870, 19812.00
665.9480, 19737.00
667.1080, 19686.00
668.2680, 19873.00
669.4280, 19852.00
670.5880, 19857.00
671.7480, 19995.00
672.9070, 20100.00
674.0670, 20055.00
675.2260, 20027.00
676.3850, 20102.00
677.5440, 20094.00
678.7030, 20129.00
679.8610, 19974.00
681.0200, 20249.00
682.1780, 20104.00
683.3360, 20236.00
684.4940, 20212.00
685.6520, 20201.00
686.8090, 20257.00
687.9670, 20294.00
689.1240, 20358.00
690.2810, 20417.00
691.4380, 20581.00
692.5950, 20537.00
693.7520, 20719.00
694.9080, 20594.00
696.0650, 20627.00
697.2210, 20744.00
698.3770, 20565.00
699.5330, 20637.00
700.6880, 20733.00
701.8440, 20751.00
702.9990, 20720.00
704.1550, 20871.00
705.3100, 20621.00
706.4650, 21032.00
707.6190, 21236.00
708.7740, 21364.00
709.9290, 21225.00
711.0830, 21348.00
712.2370, 21309.00
713.3910, 21413.00
714.5450, 21424.00
715.6980, 21487.00
716.8520, 21606.00
718.0050, 21949.00
719.1580, 21895.00
720.3110, 21469.00
721.4640, 21669.00
722.6170, 21275.00
723.7700, 21312.00
724.9220, 21337.00
726.0740, 21272.00
727.2260, 21249.00
728.3780, 21291.00
729.5300, 21212.00
730.6810, 21310.00
731.8330, 21513.00
732.9840, 21363.00
734.1350, 21327.00
735.2860, 21440.00
736.4370, 21337.00
737.5880, 21453.00
738.7380, 21451.00
739.8880, 21556.00
741.0390, 21520.00
742.1890, 21689.00
743.3380, 21564.00
744.4880, 21637.00
745.6380, 21628.00
746.7870, 21754.00
747.9360, 21792.00
749.0850, 21883.00
750.2340, 21777.00
751.3830, 21703.00
752.5310, 21815.00
753.6800, 21733.00
754.8280, 22000.00
755.9760, 21863.00
757.1240, 21942.00
758.2720, 21869.00
759.4190, 22084.00
760.5670, 21970.00
761.7140, 22146.00
762.8610, 22088.00
764.0080, 21965.00
765.1550, 22277.00
766.3020, 22315.00
767.4480, 22040.00
768.5950, 22230.00
769.7410, 22362.00
770.8870, 22297.00
772.0330, 22431.00
773.1780, 22420.00
774.3240, 22228.00
775.4690, 22515.00
776.6140, 22453.00
777.7590, 22376.00
778.9040, 22648.00
780.0490, 22527.00
781.1940, 22478.00
782.3380, 22636.00
783.4820, 22674.00
784.6260, 22633.00
785.7700, 22876.00
786.9140, 22684.00
788.0580, 22919.00
789.2010, 22714.00
790.3450, 22629.00
791.4880, 22884.00
792.6310, 22973.00
793.7730, 22968.00
794.9160, 22972.00
796.0590, 23020.59
797.2010, 22982.00
798.3430, 23097.00
799.4850, 23035.00
800.6270, 23112.00
801.7690, 22981.00
802.9100, 23179.00
804.0520, 23267.00
805.1930, 23222.00
806.3340, 23293.00
807.4750, 23183.00
808.6160, 23443.00
809.7560, 23466.00
810.8970, 23357.00
812.0370, 23324.00
813.1770, 23436.00
814.3170, 23412.00
815.4570, 23569.00
816.5960, 23542.00
817.7360, 23622.00
818.8750, 23615.00
820.0140, 23484.00
821.1530, 23603.00
822.2920, 23461.00
823.4310, 23736.00
824.5690, 23933.00
825.7070, 23650.00
826.8460, 23882.00
827.9840, 23951.00
829.1220, 23839.00
830.2590, 23799.00
831.3970, 24112.00
832.5340, 24044.00
833.6710, 23763.00
834.8080, 24052.00
835.9450, 23982.00
837.0820, 23865.00
838.2190, 24196.00
839.3550, 24179.00
840.4910, 24196.00
841.6270, 24285.00
842.7630, 24256.00
843.8990, 24305.00
845.0350, 24354.85
846.1700, 24236.00
847.3060, 24448.00
848.4410, 24348.00
849.5760, 24370.00
850.7100, 24396.00
851.8450, 24508.00
852.9800, 24482.00
854.1140, 24540.00
855.2480, 24412.00
856.3820, 24530.00
857.5160, 24647.00
858.6500, 24915.00
859.7830, 24660.00
860.9170, 24871.00
862.0500, 24664.00
863.1830, 25054.00
864.3160, 25069.00
865.4480, 25045.00
866.5810, 25056.00
867.7130, 25087.37
868.8460, 25009.00
869.9780, 25094.00
871.1100, 25034.00
872.2410, 25111.59
873.3730, 25153.00
874.5050, 25239.00
875.6360, 25236.00
876.7670, 25234.00
877.8980, 25314.00
879.0290, 25163.00
880.1590, 25343.00
881.2900, 25362.00
882.4200, 25223.00
883.5500, 25397.00
884.6800, 25351.00
885.8100, 25440.00
886.9400, 25339.00
888.0690, 25300.00
889.1990, 25429.00
890.3280, 25446.00
891.4570, 25649.00
892.5860, 25549.00
893.7140, 25721.00
894.8430, 25568.00
895.9710, 25643.00
897.1000, 25832.00
898.2280, 25422.00
899.3560, 25525.00
900.4830, 25659.00
901.6110, 25827.00
902.7380, 25705.00
903.8660, 25769.00
904.9930, 25701.00
906.1200, 25890.00
907.2460, 25966.00
908.3730, 25937.00
909.5000, 26047.00
910.6260, 26054.00
911.7520, 26070.00
912.8780, 25972.00
914.0040, 26157.00
915.1290, 26046.00
916.2550, 26243.00
917.3800, 26252.00
918.5050, 26171.00
919.6300, 26172.00
920.7550, 26386.00
921.8800, 26538.00
923.0040, 26495.00
924.1290, 26525.00
925.2530, 26400.00
926.3770, 26457.00
927.5010, 26605.00
928.6250, 26652.00
929.7480, 26689.00
930.8720, 26667.00
931.9950, 26619.00
933.1180, 26696.00
934.2410, 26690.97
935.3640, 26683.00
936.4860, 26802.00
937.6090, 26917.00
938.7310, 27054.00
939.8530, 26960.00
940.9750, 26849.00
942.0970, 27085.00
943.2180, 27212.00
944.3400, 27159.00
945.4610, 27261.00
946.5820, 27190.00
947.7030, 27116.00
948.8240, 27178.00
949.9450, 27101.00
951.0650, 27167.49
952.1860, 27178.00
953.3060, 27299.00
954.4260, 27404.00
955.5460, 27494.00
956.6650, 27369.00
957.7850, 27547.00
958.9040, 27705.00
960.0230, 27521.00
961.1420, 27698.00
962.2610, 27485.00
963.3800, 27628.00
964.4990, 27538.00
965.6170, 27655.00
966.7350, 27714.00
967.8530, 27852.00
968.9710, 27811.00
970.0890, 27774.00
971.2070, 27849.00
972.3240, 27996.00
973.4410, 28015.00
974.5580, 27988.00
975.6750, 28135.00
976.7920, 27977.00
977.9090, 28181.00
979.0250, 27946.00
980.1410, 28138.00
981.2580, 28217.00
982.3740, 28436.00
983.4890, 28334.00
984.6050, 28510.00
985.7200, 28157.00
986.8360, 28430.00
987.9510, 28350.00
989.0660, 28406.00
990.1810, 28632.00
991.2950, 28321.00
992.4100, 28518.00
993.5240, 28616.00
994.6390, 28749.00
995.7530, 28720.00
996.8660, 28588.00
997.9800, 28527.00
999.0940, 28577.00
1000.207, 28829.00
1001.320, 28821.00
1002.433, 28857.00
1003.546, 28956.00
1004.659, 28834.00
1005.772, 28991.00
1006.884, 28903.00
1007.996, 29219.00
1009.108, 29097.00
1010.220, 29078.00
1011.332, 29028.00
1012.444, 29081.00
1013.555, 29297.00
1014.666, 29393.00
1015.777, 29295.00
1016.888, 29350.00
1017.999, 29353.00
1019.110, 29343.00
1020.220, 29328.00
1021.331, 29667.00
1022.441, 29443.00
1023.551, 29598.00
1024.661, 29389.00
1025.770, 29454.00
1026.880, 29684.00
1027.989, 29685.00
1029.098, 29950.00
1030.207, 29774.00
1031.316, 30042.00
1032.425, 30070.00
1033.533, 29926.00
1034.642, 30072.00
1035.750, 30044.27
1036.858, 29880.00
1037.966, 30116.00
1039.073, 30045.00
1040.181, 30067.00
1041.288, 30185.00
1042.396, 30348.00
1043.503, 30360.00
1044.610, 30340.00
1045.716, 30428.00
1046.823, 30315.00
1047.929, 30207.00
1049.036, 30389.00
1050.142, 30606.00
1051.248, 30610.00
1052.353, 30685.83
1053.459, 30388.00
1054.564, 30670.00
1055.670, 30726.00
1056.775, 30729.00
1057.880, 30915.00
1058.985, 30678.00
1060.089, 31057.00
1061.194, 30947.00
1062.298, 31207.00
1063.402, 31259.00
1064.506, 31767.00
1065.610, 32019.00
1066.713, 32884.00
1067.817, 33515.00
1068.920, 34899.00
1070.023, 36507.00
1071.126, 36711.00
1072.229, 35494.00
1073.332, 33945.00
1074.435, 33111.00
1075.537, 32693.00
1076.639, 32009.00
1077.741, 31960.00
1078.843, 32229.00
1079.945, 32040.00
1081.046, 32140.00
1082.148, 32475.00
1083.249, 33148.00
1084.350, 34255.00
1085.451, 36882.00
1086.551, 40107.00
1087.652, 43716.00
1088.752, 51220.00
1089.853, 56533.00
1090.953, 51912.00
1092.053, 44863.00
1093.152, 40189.00
1094.252, 36658.00
1095.351, 34321.00
1096.451, 33150.00
1097.550, 32858.00
1098.649, 32635.00
1099.748, 32457.00
1100.846, 32344.00
1101.945, 32403.00
1103.043, 32221.00
1104.141, 32291.00
1105.239, 32306.00
1106.337, 32562.00
1107.434, 32470.00
1108.532, 32520.00
1109.629, 32560.00
1110.726, 32585.23
1111.823, 32511.00
1112.920, 32682.00
1114.017, 32795.00
1115.113, 32773.00
1116.210, 32743.00
1117.306, 32793.15
1118.402, 32849.00
1119.498, 32840.00
1120.593, 32991.00
1121.689, 33078.00
1122.784, 32920.00
1123.879, 33231.00
1124.974, 33037.00
1126.069, 33078.00
1127.164, 32839.00
1128.259, 32926.79
1129.353, 33127.00
1130.447, 33140.00
1131.541, 33244.00
1132.635, 33517.00
1133.729, 33241.00
1134.822, 33512.00
1135.916, 33502.00
1137.009, 33490.00
1138.102, 33615.00
1139.195, 33579.00
1140.288, 33827.00
1141.380, 33590.00
1142.473, 33818.00
1143.565, 33779.00
1144.657, 33811.00
1145.749, 33703.00
1146.841, 33683.00
1147.932, 33979.00
1149.024, 34003.00
1150.115, 33979.00
1151.206, 34103.00
1152.297, 33969.00
1153.388, 34091.00
1154.479, 34228.00
1155.569, 34207.00
1156.659, 34253.00
1157.750, 34123.00
1158.839, 34272.00
1159.929, 34233.00
1161.019, 34278.00
1162.108, 34393.00
1163.198, 34563.00
1164.287, 34557.00
1165.376, 34678.00
1166.465, 34512.00
1167.553, 34576.00
1168.642, 34518.00
1169.730, 34913.00
1170.818, 34741.00
1171.906, 34904.00
1172.994, 34847.00
1174.082, 34867.00
1175.170, 34943.00
1176.257, 34927.00
1177.344, 34900.00
1178.431, 35211.00
1179.518, 34924.00
1180.605, 35421.00
1181.691, 35141.00
1182.778, 35194.00
1183.864, 35099.00
1184.950, 35160.00
1186.036, 35428.00
1187.122, 35315.00
1188.207, 35384.00
1189.292, 35483.00
1190.378, 35448.00
1191.463, 35550.00
1192.548, 35548.00
1193.632, 35569.00
1194.717, 35698.00
1195.801, 35545.00
1196.886, 35797.00
1197.970, 35667.00
1199.054, 35709.00
1200.137, 35681.00
1201.221, 35741.50
1202.305, 35974.00
1203.388, 35937.00
1204.471, 36036.00
1205.554, 36149.00
1206.637, 36134.00
1207.719, 36077.00
1208.802, 36000.00
1209.884, 35991.99
1210.966, 35925.00
1212.048, 35947.00
1213.130, 36238.00
1214.212, 36245.00
1215.293, 36322.00
1216.374, 36488.00
1217.456, 36412.00
1218.536, 36619.00
1219.617, 36540.00
1220.698, 36494.00
1221.778, 36711.00
1222.859, 36617.00
1223.939, 36835.00
1225.019, 36729.00
1226.099, 36616.00
1227.178, 36908.00
1228.258, 36900.00
1229.337, 36903.00
1230.417, 36917.00
1231.496, 36798.00
1232.574, 37036.00
1233.653, 37275.00
1234.732, 37030.00
1235.810, 37038.00
1236.888, 37182.00
1237.966, 37116.00
1239.044, 37168.00
1240.122, 37341.00
1241.199, 37334.01
1242.277, 37368.27
1243.354, 37484.00
1244.431, 37402.00
1245.508, 37487.00
1246.585, 37625.00
1247.661, 37677.00
1248.738, 37786.00
1249.814, 37711.00
1250.890, 37697.00
1251.966, 37672.00
1253.042, 37673.59
1254.117, 37682.00
1255.193, 37773.00
1256.268, 37715.00
1257.343, 37886.00
1258.418, 37921.00
1259.493, 38048.00
1260.567, 38033.00
1261.642, 37937.00
1262.716, 38285.00
1263.790, 38470.00
1264.864, 38497.00
1265.938, 38502.00
1267.011, 38365.00
1268.085, 38377.00
1269.158, 38392.00
1270.231, 38462.00
1271.304, 38793.00
1272.377, 38680.00
1273.450, 38820.00
1274.522, 38568.00
1275.594, 38624.00
1276.666, 38580.00
1277.738, 38840.00
1278.810, 38671.00
1279.882, 38690.00
1280.953, 38543.00
1282.025, 38803.00
1283.096, 38942.00
1284.167, 38828.00
1285.238, 39102.00
1286.308, 38945.00
1287.379, 39357.00
1288.449, 39115.00
1289.519, 38994.00
1290.589, 39383.00
1291.659, 39258.00
1292.729, 39499.00
1293.798, 39543.00
1294.868, 39326.00
1295.937, 39354.00
1297.006, 39482.00
1298.075, 39339.00
1299.143, 39466.00
1300.212, 39703.00
1301.280, 39376.00
1302.348, 39575.00
1303.416, 39436.00
1304.484, 39828.00
1305.552, 39868.00
1306.620, 39764.00
1307.687, 39839.00
1308.754, 40029.00
1309.821, 40032.00
1310.888, 40108.00
1311.955, 40233.00
1313.021, 40015.00
1314.088, 40213.00
1315.154, 40222.00
1316.220, 40481.00
1317.286, 40382.00
1318.352, 40855.00
1319.417, 40325.00
1320.483, 40790.00
1321.548, 40859.00
1322.613, 40585.00
1323.678, 40882.00
1324.743, 40806.00
1325.807, 40613.00
1326.872, 40738.00
1327.936, 40988.00
1329.000, 41342.00
1330.064, 41230.00
1331.128, 41304.00
1332.191, 41144.00
1333.255, 41264.00
1334.318, 41136.00
1335.381, 41250.00
1336.444, 41305.00
1337.507, 41502.00
1338.569, 41548.00
1339.632, 41367.00
1340.694, 41518.00
1341.756, 41490.00
1342.818, 41588.00
1343.880, 41557.00
1344.941, 41650.02
1346.003, 41566.00
1347.064, 41779.00
1348.125, 41753.00
1349.186, 41713.00
1350.247, 41866.00
1351.308, 41775.00
1352.368, 41916.00
1353.428, 42075.00
1354.489, 42052.00
1355.549, 42005.00
1356.608, 42295.00
1357.668, 42397.00
1358.727, 42319.00
1359.787, 42533.00
1360.846, 42416.00
1361.905, 42342.00
1362.964, 42411.00
1364.022, 42227.00
1365.081, 42285.00
1366.139, 42285.00
1367.197, 42709.00
1368.255, 42627.00
1369.313, 42473.00
1370.371, 42799.00
1371.428, 42590.00
1372.486, 42506.00
1373.543, 42836.00
1374.600, 42893.00
1375.657, 42942.00
1376.713, 42858.00
1377.770, 42936.00
1378.826, 42898.00
1379.882, 43068.00
1380.938, 43242.00
1381.994, 43137.00
1383.050, 43260.00
1384.106, 43226.00
1385.161, 43169.00
1386.216, 43429.00
1387.271, 43221.00
1388.326, 43459.00
1389.381, 43608.00
1390.435, 43074.00
1391.490, 43487.00
1392.544, 43859.00
1393.598, 43489.00
1394.652, 43621.00
1395.705, 43537.00
1396.759, 43815.00
1397.812, 44108.00
1398.866, 44172.00
1399.919, 43840.00
1400.972, 44059.00
1402.024, 44417.00
1403.077, 44010.00
1404.129, 44381.00
1405.181, 44285.00
1406.233, 44059.00
1407.285, 44116.00
1408.337, 44308.00
1409.389, 44356.00
1410.440, 44524.00
1411.491, 44440.00
1412.542, 44183.00
1413.593, 44669.00
1414.644, 44403.00
1415.695, 44471.00
1416.745, 44502.00
1417.795, 44480.16
1418.845, 44720.00
1419.895, 44691.00
1420.945, 44674.00
1421.995, 44948.00
1423.044, 44848.00
1424.093, 44950.00
1425.142, 44996.00
1426.191, 44967.00
1427.240, 45119.00
1428.289, 45124.00
1429.337, 45177.00
1430.385, 45244.05
1431.433, 45294.00
1432.481, 45325.00
1433.529, 45443.00
1434.577, 45476.00
1435.624, 45548.00
1436.672, 46030.00
1437.719, 45620.00
1438.766, 45377.00
1439.812, 45752.00
1440.859, 45705.00
1441.905, 45716.00
1442.952, 45730.00
1443.998, 45936.00
1445.044, 45802.00
1446.090, 45841.00
1447.135, 46033.00
1448.181, 45773.00
1449.226, 45994.00
1450.271, 46047.00
1451.316, 46148.00
1452.361, 46150.00
1453.405, 46116.00
1454.450, 46404.00
1455.494, 46246.00
1456.538, 46360.00
1457.582, 46476.00
1458.626, 46340.00
1459.670, 46614.00
1460.713, 46716.00
1461.757, 46356.00
1462.800, 46828.00
1463.843, 46726.00
1464.886, 46810.00
1465.928, 46511.00
1466.971, 47164.00
1468.013, 47041.00
1469.055, 47193.00
1470.097, 47380.00
1471.139, 47616.00
1472.181, 47103.00
1473.222, 47364.00
1474.263, 47319.00
1475.305, 47387.00
1476.346, 47455.00
1477.386, 47618.00
1478.427, 47275.00
1479.468, 47470.00
1480.508, 47187.00
1481.548, 47398.00
1482.588, 47396.00
1483.628, 47517.00
1484.668, 47301.00
1485.707, 47504.00
1486.747, 47786.00
1487.786, 47700.00
1488.825, 47929.00
1489.864, 47895.00
1490.902, 47879.00
1491.941, 48157.00
1492.979, 47709.00
1494.017, 48074.00
1495.055, 47824.00
1496.093, 47951.00
1497.131, 48199.00
1498.168, 48316.00
1499.206, 48029.00
1500.243, 48452.00
1501.280, 48206.00
1502.317, 48296.00
1503.354, 48489.00
1504.390, 48480.00
1505.426, 48660.00
1506.463, 48343.00
1507.499, 48590.00
1508.535, 48613.00
1509.570, 48924.00
1510.606, 48951.00
1511.641, 49036.00
1512.676, 48994.00
1513.711, 48932.00
1514.746, 48927.00
1515.781, 48900.00
1516.816, 48924.07
1517.850, 48958.07
1518.884, 48993.00
1519.918, 49060.00
1520.952, 49079.00
1521.986, 49117.00
1523.019, 49240.00
1524.053, 49619.00
1525.086, 49318.00
1526.119, 49528.00
1527.152, 49701.00
1528.185, 49582.00
1529.217, 49799.00
1530.250, 49771.00
1531.282, 49971.00
1532.314, 49883.00
1533.346, 50059.00
1534.377, 49815.00
1535.409, 49890.00
1536.440, 50015.00
1537.472, 49987.00
1538.503, 49819.00
1539.534, 50132.00
1540.564, 50062.00
1541.595, 49960.00
1542.625, 50250.00
1543.656, 50196.00
1544.686, 50079.00
1545.716, 50243.00
1546.745, 50140.00
1547.775, 50411.00
1548.804, 50393.00
1549.834, 50601.00
1550.863, 50527.00
1551.892, 50721.00
1552.920, 51067.00
1553.949, 50753.00
1554.977, 51058.00
1556.006, 50819.00
1557.034, 51123.00
1558.062, 50885.00
1559.089, 51197.00
1560.117, 51170.00
1561.144, 50879.00
1562.172, 51212.00
1563.199, 51258.00
1564.226, 51284.00
1565.252, 51353.00
1566.279, 51388.00
1567.305, 51495.00
1568.332, 51416.00
1569.358, 51708.00
1570.384, 51638.00
##END=



