##NAMES=Sodalite
##RRUFFID=R060405
##IDEAL CHEMISTRY=Na_4_Si_3_Al_3_O_12_Cl
##LOCALITY=Cerro Sapo, Cochabamba Department, Bolivia
##OWNER=RRUFF
##SOURCE=Marcus Origlieri
##DESCRIPTION=Blue massive associated with brown burbankite R050646
##STATUS=The identification of this mineral has been confirmed by X-ray diffraction and chemical analysis
##URL=rruff.info/R060405
##MEASURED CHEMISTRY=Na_8.00_Al_6.00_Si_6.00_O_24_Cl_2_
##PIN_ID=L01500
##ORIENTATION=Laser parallel to a* (1 0 0). Fiducial mark perpendicular to laser is parallel to c [0 0 1]
67.11500, 14082.00
68.35300, 14167.00
69.59000, 14387.00
70.82800, 14687.00
72.06500, 16157.00
73.30200, 16641.00
74.53900, 18262.00
75.77500, 18135.00
77.01200, 17658.00
78.24800, 19518.00
79.48400, 21646.00
80.72100, 22545.00
81.95600, 21678.00
83.19200, 19983.00
84.42800, 19617.00
85.66300, 19721.00
86.89900, 18699.00
88.13400, 17301.00
89.36900, 15853.00
90.60400, 14655.00
91.83800, 13524.00
93.07300, 12791.00
94.30700, 12275.00
95.54100, 12048.00
96.77500, 11715.00
98.00900, 11517.00
99.24300, 11810.49
100.4770, 12218.00
101.7100, 12943.00
102.9440, 14430.00
104.1770, 15855.00
105.4100, 16444.00
106.6430, 16553.00
107.8750, 17018.00
109.1080, 16918.00
110.3400, 17296.00
111.5720, 17251.00
112.8040, 16555.00
114.0360, 15889.00
115.2680, 15708.00
116.5000, 14935.00
117.7310, 14430.00
118.9620, 13806.00
120.1940, 12752.00
121.4250, 12308.00
122.6550, 12425.00
123.8860, 12809.00
125.1170, 12853.00
126.3470, 12573.00
127.5770, 12816.00
128.8070, 13010.00
130.0370, 13634.00
131.2670, 13703.00
132.4970, 13592.00
133.7260, 13483.00
134.9550, 13270.00
136.1850, 13172.00
137.4140, 12925.00
138.6420, 13228.00
139.8710, 13366.00
141.1000, 13328.00
142.3280, 13368.00
143.5560, 13506.00
144.7840, 13836.00
146.0120, 14142.00
147.2400, 14440.00
148.4680, 14403.00
149.6950, 14406.00
150.9220, 14404.00
152.1500, 14624.00
153.3770, 14856.00
154.6030, 15781.00
155.8300, 16401.00
157.0570, 17256.00
158.2830, 18732.00
159.5090, 20471.00
160.7350, 22390.00
161.9610, 24825.00
163.1870, 27495.00
164.4130, 30282.00
165.6380, 32959.00
166.8630, 34353.00
168.0880, 33925.00
169.3130, 32025.00
170.5380, 29371.00
171.7630, 26190.00
172.9870, 23412.00
174.2120, 21544.00
175.4360, 19963.00
176.6600, 19316.00
177.8840, 18327.00
179.1080, 17887.00
180.3310, 17143.00
181.5550, 16740.00
182.7780, 16000.00
184.0010, 15556.00
185.2240, 15196.00
186.4470, 14465.00
187.6700, 13892.00
188.8920, 13371.00
190.1150, 13120.00
191.3370, 12877.00
192.5590, 12584.00
193.7810, 12393.51
195.0020, 12188.45
196.2240, 11994.00
197.4450, 11867.00
198.6670, 11673.00
199.8880, 11561.62
201.1090, 11462.00
202.3300, 11290.00
203.5500, 11180.00
204.7710, 11099.00
205.9910, 11106.00
207.2110, 11078.00
208.4310, 10991.00
209.6510, 10923.00
210.8710, 11009.00
212.0910, 11047.00
213.3100, 10915.00
214.5290, 11035.00
215.7480, 11072.00
216.9670, 11126.00
218.1860, 11116.00
219.4050, 11371.00
220.6230, 11470.00
221.8420, 11648.00
223.0600, 12049.00
224.2780, 12281.00
225.4960, 12387.00
226.7130, 12767.00
227.9310, 12918.00
229.1480, 13281.00
230.3660, 13452.00
231.5830, 13939.00
232.8000, 14252.00
234.0160, 14651.00
235.2330, 14800.00
236.4490, 14760.00
237.6660, 14857.00
238.8820, 14952.00
240.0980, 15272.00
241.3140, 15400.00
242.5300, 15835.00
243.7450, 16610.00
244.9600, 17288.00
246.1760, 18263.00
247.3910, 19262.00
248.6060, 20198.00
249.8200, 21846.00
251.0350, 23615.00
252.2500, 26777.00
253.4640, 28751.49
254.6780, 30881.00
255.8920, 33761.00
257.1060, 36058.00
258.3190, 38320.00
259.5330, 40977.00
260.7460, 43094.00
261.9600, 45230.00
263.1730, 46538.00
264.3850, 46688.00
265.5980, 46994.00
266.8110, 47279.00
268.0230, 44310.00
269.2360, 40367.00
270.4480, 37272.00
271.6600, 34780.00
272.8710, 32173.00
274.0830, 29505.00
275.2950, 27622.00
276.5060, 25896.00
277.7170, 24845.00
278.9280, 23641.00
280.1390, 23050.00
281.3500, 22648.00
282.5600, 22397.00
283.7710, 22464.00
284.9810, 22830.00
286.1910, 23617.00
287.4010, 24491.00
288.6110, 25502.00
289.8200, 26579.00
291.0300, 28023.00
292.2390, 28862.00
293.4480, 29609.00
294.6570, 29514.00
295.8660, 28536.00
297.0750, 26554.00
298.2830, 24200.00
299.4920, 22008.00
300.7000, 19653.00
301.9080, 18118.06
303.1160, 16602.67
304.3240, 15457.00
305.5310, 14606.00
306.7390, 13873.00
307.9460, 13603.00
309.1530, 13393.00
310.3600, 13140.00
311.5670, 12977.00
312.7740, 12750.00
313.9800, 12686.00
315.1870, 12595.00
316.3930, 12515.00
317.5990, 12573.00
318.8050, 12481.00
320.0110, 12308.50
321.2160, 12350.06
322.4220, 12367.74
323.6270, 12362.82
324.8320, 12267.62
326.0370, 12289.00
327.2420, 12263.66
328.4460, 12236.42
329.6510, 12251.00
330.8550, 12299.00
332.0590, 12259.00
333.2630, 12434.00
334.4670, 12299.00
335.6710, 12406.00
336.8740, 12423.00
338.0780, 12213.00
339.2810, 12404.00
340.4840, 12213.00
341.6870, 12274.00
342.8900, 12285.00
344.0920, 12285.00
345.2950, 12195.00
346.4970, 12216.32
347.6990, 12193.08
348.9010, 12206.00
350.1030, 12167.00
351.3050, 12193.00
352.5060, 12142.00
353.7080, 12277.00
354.9090, 12347.00
356.1100, 12185.00
357.3110, 12236.00
358.5110, 12178.00
359.7120, 12233.00
360.9120, 12161.00
362.1130, 12260.00
363.3130, 12389.00
364.5130, 12412.00
365.7120, 12583.00
366.9120, 12695.00
368.1120, 12551.00
369.3110, 12711.00
370.5100, 12647.00
371.7090, 12845.00
372.9080, 12731.00
374.1070, 12461.00
375.3050, 12363.00
376.5040, 12262.00
377.7020, 12031.00
378.9000, 11947.00
380.0980, 12158.00
381.2950, 11957.00
382.4930, 12020.00
383.6910, 11996.00
384.8880, 11830.00
386.0850, 11877.00
387.2820, 11989.00
388.4790, 11952.00
389.6750, 12083.00
390.8720, 11998.00
392.0680, 12114.00
393.2640, 12153.00
394.4600, 12087.00
395.6560, 12189.00
396.8520, 12318.00
398.0480, 12453.00
399.2430, 12436.00
400.4380, 12553.00
401.6330, 12878.00
402.8280, 13116.00
404.0230, 13396.00
405.2180, 13690.00
406.4120, 13894.00
407.6060, 14303.00
408.8000, 14761.00
409.9940, 15107.00
411.1880, 15023.00
412.3820, 14768.00
413.5750, 14596.00
414.7690, 14282.00
415.9620, 14063.00
417.1550, 13983.00
418.3480, 13946.00
419.5410, 14163.00
420.7330, 14166.00
421.9260, 14348.70
423.1180, 14491.00
424.3100, 14737.00
425.5020, 14988.00
426.6940, 15232.00
427.8850, 15551.00
429.0770, 15828.00
430.2680, 16183.71
431.4590, 16539.84
432.6500, 16936.00
433.8410, 17339.00
435.0320, 17745.00
436.2220, 18225.00
437.4130, 18389.00
438.6030, 18750.00
439.7930, 19792.00
440.9830, 20719.00
442.1730, 21601.00
443.3620, 23205.00
444.5520, 24717.00
445.7410, 26976.00
446.9300, 29540.00
448.1190, 33017.00
449.3080, 37042.00
450.4960, 42662.00
451.6850, 49239.00
452.8730, 57531.00
454.0610, 67933.00
455.2490, 80534.00
456.4370, 95437.00
457.6250, 112760.0
458.8130, 132692.0
460.0000, 153436.0
461.1870, 174765.0
462.3740, 193614.0
463.5610, 206982.0
464.7480, 210704.0
465.9340, 203019.0
467.1210, 184661.0
468.3070, 159158.0
469.4930, 131974.0
470.6790, 107723.0
471.8650, 87914.00
473.0510, 72582.00
474.2360, 60994.00
475.4210, 51748.00
476.6070, 45014.00
477.7920, 40057.00
478.9770, 35918.00
480.1610, 32634.00
481.3460, 29812.00
482.5300, 27695.00
483.7140, 25867.00
484.8980, 24325.00
486.0820, 23270.00
487.2660, 22245.00
488.4500, 21494.00
489.6330, 20645.00
490.8160, 20101.00
492.0000, 19518.00
493.1830, 19074.00
494.3650, 18683.00
495.5480, 18609.00
496.7300, 18431.00
497.9130, 18096.00
499.0950, 17582.00
500.2770, 17002.00
501.4590, 16325.00
502.6410, 15860.00
503.8220, 15394.00
505.0030, 14763.00
506.1850, 14398.00
507.3660, 14147.00
508.5470, 14002.00
509.7270, 13936.00
510.9080, 13900.00
512.0880, 13704.00
513.2690, 13698.00
514.4490, 13604.00
515.6290, 13335.00
516.8090, 13563.00
517.9880, 13528.00
519.1680, 13363.00
520.3470, 13301.00
521.5260, 13218.18
522.7050, 13136.00
523.8840, 13041.00
525.0630, 13017.00
526.2410, 12886.00
527.4200, 12834.00
528.5980, 12847.00
529.7760, 12653.00
530.9540, 12493.00
532.1320, 12440.00
533.3090, 12383.00
534.4870, 12247.00
535.6640, 12300.00
536.8410, 12098.00
538.0180, 12156.00
539.1950, 11861.00
540.3710, 12020.00
541.5480, 11789.00
542.7240, 11787.00
543.9000, 11793.00
545.0760, 11650.00
546.2520, 11481.00
547.4280, 11544.00
548.6040, 11312.00
549.7790, 11300.00
550.9540, 11311.00
552.1290, 11314.00
553.3040, 11169.00
554.4790, 11179.00
555.6530, 10980.00
556.8280, 11021.00
558.0020, 11041.00
559.1760, 10921.00
560.3500, 10816.00
561.5240, 10673.00
562.6980, 10573.00
563.8710, 10587.00
565.0440, 10450.00
566.2170, 10549.00
567.3900, 10413.00
568.5630, 10404.00
569.7360, 10249.00
570.9090, 10290.00
572.0810, 10310.00
573.2530, 10278.00
574.4250, 10211.00
575.5970, 10230.00
576.7690, 10209.00
577.9400, 10037.00
579.1120, 10071.00
580.2830, 10207.00
581.4540, 10048.00
582.6250, 10154.00
583.7960, 10104.00
584.9660, 10050.00
586.1370, 10089.00
587.3070, 10122.00
588.4770, 10057.16
589.6470, 9955.000
590.8170, 9936.000
591.9870, 9950.000
593.1560, 9846.000
594.3260, 9927.000
595.4950, 10089.00
596.6640, 9956.000
597.8330, 10009.00
599.0010, 10077.00
600.1700, 9916.000
601.3380, 10013.00
602.5070, 10152.00
603.6750, 10256.00
604.8430, 10364.00
606.0100, 10346.00
607.1780, 10369.00
608.3450, 10390.00
609.5130, 10395.00
610.6800, 10512.00
611.8470, 10163.00
613.0140, 10266.00
614.1800, 10014.00
615.3470, 10057.00
616.5130, 9966.000
617.6790, 9951.000
618.8450, 9901.000
620.0110, 9948.000
621.1770, 10005.00
622.3420, 9960.000
623.5080, 9940.000
624.6730, 9912.000
625.8380, 9964.000
627.0030, 10009.00
628.1680, 9914.000
629.3320, 9860.000
630.4970, 9774.000
631.6610, 9925.000
632.8250, 9858.000
633.9890, 9844.000
635.1530, 9906.000
636.3160, 9777.000
637.4800, 9940.000
638.6430, 9802.000
639.8060, 9820.000
640.9690, 9903.000
642.1320, 9940.000
643.2950, 9985.000
644.4570, 10018.19
645.6200, 10038.66
646.7820, 10059.00
647.9440, 10036.00
649.1060, 10053.00
650.2670, 9979.000
651.4290, 9962.000
652.5900, 9936.000
653.7520, 10135.00
654.9130, 10209.00
656.0740, 10187.00
657.2340, 10162.00
658.3950, 10258.00
659.5550, 10199.00
660.7160, 10273.00
661.8760, 10205.00
663.0360, 10222.00
664.1960, 10309.00
665.3550, 10391.00
666.5150, 10322.00
667.6740, 10392.00
668.8330, 10368.00
669.9920, 10384.00
671.1510, 10356.00
672.3100, 10361.00
673.4680, 10373.34
674.6270, 10431.00
675.7850, 10425.00
676.9430, 10532.00
678.1010, 10612.00
679.2590, 10500.00
680.4160, 10570.00
681.5740, 10574.00
682.7310, 10585.00
683.8880, 10514.00
685.0450, 10503.00
686.2020, 10558.00
687.3580, 10693.00
688.5150, 10756.00
689.6710, 10894.10
690.8270, 11066.00
691.9830, 11128.00
693.1390, 11224.00
694.2950, 11245.00
695.4500, 11493.00
696.6050, 11553.66
697.7610, 11457.62
698.9160, 11645.31
700.0710, 11634.15
701.2250, 11599.17
702.3800, 11541.53
703.5340, 11393.67
704.6880, 11362.39
705.8420, 11284.39
706.9960, 11204.47
708.1500, 11189.60
709.3040, 11054.87
710.4570, 11110.00
711.6100, 11102.00
712.7640, 11117.00
713.9160, 11182.00
715.0690, 11142.00
716.2220, 11161.00
717.3740, 11193.00
718.5270, 11071.00
719.6790, 11273.00
720.8310, 11298.00
721.9830, 11363.00
723.1340, 11294.00
724.2860, 11473.00
725.4370, 11473.00
726.5880, 11669.00
727.7390, 12016.00
728.8900, 12308.00
730.0410, 12687.00
731.1910, 13142.00
732.3420, 13297.00
733.4920, 13646.00
734.6420, 13748.00
735.7920, 13505.00
736.9420, 13127.00
738.0910, 12641.00
739.2410, 12248.00
740.3900, 11884.00
741.5390, 11556.00
742.6880, 11377.00
743.8370, 10972.00
744.9860, 10979.00
746.1340, 10760.00
747.2820, 10759.00
748.4310, 10512.00
749.5790, 10482.00
750.7260, 10495.00
751.8740, 10212.00
753.0220, 10196.00
754.1690, 10218.00
755.3160, 10121.00
756.4630, 10144.00
757.6100, 10209.00
758.7570, 10054.00
759.9030, 10164.00
761.0500, 10087.38
762.1960, 10164.00
763.3420, 10012.00
764.4880, 10081.00
765.6340, 10071.00
766.7790, 10020.00
767.9250, 10087.00
769.0700, 9868.000
770.2150, 9858.000
771.3600, 9989.000
772.5050, 9841.000
773.6490, 9872.000
774.7940, 9787.000
775.9380, 9916.000
777.0820, 9860.000
778.2260, 9843.000
779.3700, 9981.000
780.5140, 9854.000
781.6570, 9834.000
782.8010, 10086.00
783.9440, 9762.000
785.0870, 9924.000
786.2300, 9840.000
787.3720, 9878.000
788.5150, 9833.000
789.6570, 9789.000
790.8000, 9914.000
791.9420, 9749.000
793.0840, 9793.000
794.2250, 9708.000
795.3670, 9919.000
796.5080, 9795.000
797.6500, 9781.000
798.7910, 9808.000
799.9320, 9663.000
801.0720, 9750.000
802.2130, 9685.000
803.3530, 9650.000
804.4940, 9732.000
805.6340, 9856.000
806.7740, 9869.000
807.9140, 9951.000
809.0530, 9756.000
810.1930, 9682.000
811.3320, 9763.000
812.4710, 9605.000
813.6100, 9670.000
814.7490, 9759.000
815.8880, 9807.000
817.0270, 9834.898
818.1650, 9702.000
819.3030, 9846.000
820.4410, 9626.000
821.5790, 9580.000
822.7170, 9775.000
823.8540, 9645.000
824.9920, 9706.000
826.1290, 9725.000
827.2660, 9791.000
828.4030, 9691.000
829.5400, 9785.000
830.6760, 9714.000
831.8130, 9821.000
832.9490, 9778.000
834.0850, 9834.000
835.2210, 9742.000
836.3570, 9779.000
837.4930, 9769.000
838.6280, 9759.606
839.7640, 9851.000
840.8990, 9798.000
842.0340, 9819.000
843.1690, 9877.000
844.3030, 9763.000
845.4380, 9800.000
846.5720, 9937.000
847.7060, 9889.000
848.8400, 9952.000
849.9740, 9991.000
851.1080, 9915.000
852.2420, 9985.000
853.3750, 10077.00
854.5080, 10052.00
855.6410, 10185.00
856.7740, 10012.00
857.9070, 10269.00
859.0400, 10242.00
860.1720, 10092.00
861.3040, 10162.00
862.4360, 10276.00
863.5680, 10137.00
864.7000, 10256.00
865.8320, 10187.00
866.9630, 10392.00
868.0950, 10458.00
869.2260, 10467.00
870.3570, 10519.00
871.4880, 10366.00
872.6180, 10391.00
873.7490, 10410.00
874.8790, 10316.00
876.0090, 10494.00
877.1390, 10412.00
878.2690, 10453.00
879.3990, 10514.00
880.5280, 10399.00
881.6580, 10466.00
882.7870, 10309.00
883.9160, 10433.00
885.0450, 10299.00
886.1740, 10195.00
887.3020, 10134.00
888.4310, 10183.00
889.5590, 10184.00
890.6870, 10110.00
891.8150, 10183.00
892.9430, 10144.00
894.0700, 10045.00
895.1980, 10034.00
896.3250, 10079.00
897.4520, 10037.08
898.5790, 10109.94
899.7060, 10158.91
900.8330, 10185.28
901.9590, 10121.36
903.0850, 10174.01
904.2120, 10179.96
905.3380, 10183.98
906.4630, 10253.03
907.5890, 10202.23
908.7150, 10270.26
909.8400, 10290.85
910.9650, 10197.00
912.0900, 10141.00
913.2150, 10258.00
914.3400, 10333.00
915.4640, 10317.00
916.5890, 10309.00
917.7130, 10398.00
918.8370, 10393.00
919.9610, 10581.00
921.0850, 10444.00
922.2080, 10383.00
923.3320, 10380.00
924.4550, 10511.00
925.5780, 10522.00
926.7010, 10649.00
927.8240, 10637.00
928.9460, 10634.00
930.0690, 10691.00
931.1910, 10699.00
932.3130, 10716.00
933.4350, 10808.00
934.5570, 10811.00
935.6790, 10885.00
936.8000, 10855.00
937.9220, 10967.00
939.0430, 11099.00
940.1640, 11327.00
941.2850, 11212.00
942.4050, 11300.00
943.5260, 11341.00
944.6460, 11307.00
945.7660, 11495.00
946.8860, 11563.00
948.0060, 11843.00
949.1260, 11882.00
950.2460, 12028.00
951.3650, 12156.00
952.4840, 12295.00
953.6030, 12621.00
954.7220, 13154.00
955.8410, 13566.00
956.9590, 14283.00
958.0780, 15084.00
959.1960, 16036.37
960.3140, 17221.34
961.4320, 18402.00
962.5500, 19901.00
963.6680, 21407.00
964.7850, 22858.00
965.9020, 23757.00
967.0190, 24517.00
968.1360, 24756.00
969.2530, 24661.00
970.3700, 24619.00
971.4860, 24656.00
972.6030, 24979.00
973.7190, 24635.00
974.8350, 24539.00
975.9510, 24708.00
977.0660, 25354.00
978.1820, 27499.00
979.2970, 31141.00
980.4130, 36311.00
981.5280, 43943.00
982.6420, 57674.00
983.7570, 59974.00
984.8720, 70148.00
985.9860, 77511.00
987.1000, 79206.00
988.2140, 73866.00
989.3280, 63062.00
990.4420, 50421.00
991.5560, 38980.00
992.6690, 31130.00
993.7820, 27355.00
994.8950, 22352.00
996.0080, 19667.00
997.1210, 17992.00
998.2340, 16902.00
999.3460, 15891.00
1000.458, 15282.00
1001.571, 14661.00
1002.683, 14366.00
1003.794, 14233.00
1004.906, 13995.00
1006.017, 13733.00
1007.129, 13840.00
1008.240, 13771.00
1009.351, 13928.00
1010.462, 13961.00
1011.572, 14017.00
1012.683, 13957.00
1013.793, 13729.00
1014.904, 13338.00
1016.014, 12862.00
1017.123, 12526.00
1018.233, 12236.00
1019.343, 12091.00
1020.452, 11900.00
1021.561, 11744.00
1022.670, 11696.00
1023.779, 11518.00
1024.888, 11527.00
1025.997, 11656.00
1027.105, 11513.00
1028.213, 11597.00
1029.321, 11583.00
1030.429, 11786.00
1031.537, 11568.00
1032.645, 11668.00
1033.752, 11660.00
1034.859, 11681.91
1035.966, 11899.00
1037.073, 11834.00
1038.180, 11931.00
1039.287, 12000.00
1040.393, 12274.00
1041.500, 12337.00
1042.606, 12857.00
1043.712, 13074.00
1044.818, 13597.00
1045.923, 13958.00
1047.029, 14260.00
1048.134, 14621.00
1049.239, 15037.00
1050.344, 15672.88
1051.449, 16200.00
1052.554, 17154.00
1053.658, 18156.00
1054.763, 19049.00
1055.867, 19877.00
1056.971, 20811.00
1058.075, 21604.00
1059.179, 21761.00
1060.282, 21658.00
1061.385, 21420.00
1062.489, 20818.00
1063.592, 20199.00
1064.695, 19913.00
1065.797, 19614.00
1066.900, 19588.00
1068.002, 19712.00
1069.105, 20179.00
1070.207, 21231.00
1071.309, 22589.00
1072.411, 23778.00
1073.512, 24696.00
1074.614, 24352.00
1075.715, 23850.00
1076.816, 22496.00
1077.917, 20668.00
1079.018, 18405.00
1080.118, 16363.00
1081.219, 14773.00
1082.319, 13818.00
1083.419, 13317.00
1084.519, 12969.00
1085.619, 12894.00
1086.719, 12461.00
1087.818, 12412.00
1088.918, 12400.00
1090.017, 12474.00
1091.116, 12266.00
1092.215, 12397.00
1093.314, 12241.00
1094.412, 12305.00
1095.510, 12265.00
1096.609, 12208.00
1097.707, 12108.00
1098.805, 12134.00
1099.902, 12101.00
1101.000, 12026.00
1102.097, 12021.00
1103.195, 11919.00
1104.292, 11988.00
1105.389, 11968.00
1106.485, 11962.89
1107.582, 12063.00
1108.678, 11970.00
1109.775, 12030.00
1110.871, 12012.00
1111.967, 11971.00
1113.062, 11908.00
1114.158, 11897.68
1115.254, 11843.00
1116.349, 11831.00
1117.444, 11839.64
1118.539, 11761.38
1119.634, 11806.00
1120.728, 11814.00
1121.823, 11767.00
1122.917, 11828.62
1124.011, 11801.00
1125.105, 11895.00
1126.199, 11922.00
1127.293, 11943.00
1128.386, 11940.63
1129.480, 12080.00
1130.573, 11881.00
1131.666, 12032.00
1132.759, 12021.00
1133.851, 11878.00
1134.944, 11791.00
1136.036, 11984.00
1137.129, 12002.00
1138.221, 12137.00
1139.313, 11967.00
1140.404, 11939.00
1141.496, 11946.00
1142.587, 11902.00
1143.678, 11977.00
1144.770, 11858.00
1145.860, 11938.00
1146.951, 11998.00
1148.042, 11935.00
1149.132, 11871.00
1150.223, 11976.00
1151.313, 11923.00
1152.403, 11975.00
1153.492, 11986.00
1154.582, 11950.00
1155.671, 11901.00
1156.761, 11871.00
1157.850, 11963.00
1158.939, 11779.00
1160.028, 11875.00
1161.116, 12020.00
1162.205, 11753.00
1163.293, 11844.00
1164.381, 11846.00
1165.469, 11815.00
1166.557, 11702.00
1167.645, 11866.00
1168.732, 11817.00
1169.820, 11773.00
1170.907, 11870.00
1171.994, 11836.00
1173.081, 11824.52
1174.167, 11836.51
1175.254, 11777.00
1176.340, 11779.00
1177.426, 11770.19
1178.512, 11694.00
1179.598, 11723.00
1180.684, 11675.00
1181.770, 11680.06
1182.855, 11596.00
1183.940, 11511.00
1185.025, 11615.00
1186.110, 11466.00
1187.195, 11493.00
1188.280, 11611.00
1189.364, 11443.00
1190.448, 11491.00
1191.532, 11508.00
1192.616, 11496.00
1193.700, 11532.00
1194.784, 11523.12
1195.867, 11450.00
1196.950, 11499.00
1198.034, 11476.00
1199.117, 11412.00
1200.199, 11609.00
1201.282, 11419.00
1202.364, 11512.00
1203.447, 11593.00
1204.529, 11582.00
1205.611, 11613.31
1206.693, 11600.00
1207.774, 11619.00
1208.856, 11597.00
1209.937, 11667.00
1211.018, 11645.00
1212.099, 11621.00
1213.180, 11416.00
1214.261, 11535.00
1215.341, 11542.00
1216.422, 11434.00
1217.502, 11505.00
1218.582, 11549.00
1219.662, 11579.00
1220.742, 11342.00
1221.821, 11457.00
1222.900, 11361.00
1223.980, 11466.00
1225.059, 11389.00
1226.138, 11518.00
1227.216, 11476.00
1228.295, 11528.00
1229.373, 11514.00
1230.452, 11511.00
1231.530, 11537.00
1232.608, 11391.00
1233.685, 11494.00
1234.763, 11519.00
1235.840, 11420.00
1236.918, 11307.00
1237.995, 11417.00
1239.072, 11320.00
1240.149, 11374.00
1241.225, 11390.00
1242.302, 11356.00
1243.378, 11392.00
1244.454, 11422.00
1245.530, 11456.00
1246.606, 11411.00
1247.681, 11386.00
1248.757, 11397.00
1249.832, 11289.00
1250.907, 11396.00
1251.982, 11387.00
1253.057, 11457.00
1254.132, 11400.00
1255.206, 11420.65
1256.281, 11406.82
1257.355, 11391.00
1258.429, 11379.00
1259.503, 11327.00
1260.576, 11345.00
1261.650, 11342.00
1262.723, 11338.24
1263.797, 11396.00
1264.870, 11342.00
1265.942, 11432.00
1267.015, 11410.00
1268.088, 11366.00
1269.160, 11255.00
1270.232, 11272.00
1271.304, 11294.00
1272.376, 11275.00
1273.448, 11333.00
1274.520, 11329.00
1275.591, 11268.00
1276.662, 11295.42
1277.733, 11297.38
1278.804, 11290.00
1279.875, 11315.00
1280.946, 11348.00
1282.016, 11294.00
1283.086, 11262.00
1284.156, 11213.00
1285.226, 11312.00
1286.296, 11241.00
1287.366, 11311.00
1288.435, 11175.00
1289.505, 11209.00
1290.574, 11162.00
1291.643, 11160.00
1292.711, 11128.00
1293.780, 11259.00
1294.849, 11238.00
1295.917, 11331.00
1296.985, 11313.53
1298.053, 11246.00
1299.121, 11256.00
1300.189, 11216.00
1301.256, 11172.00
1302.323, 11334.00
1303.391, 11169.00
1304.458, 11268.00
1305.524, 11234.00
1306.591, 11175.00
1307.658, 11219.00
1308.724, 11330.00
1309.790, 11402.00
1310.856, 11208.00
1311.922, 11208.00
1312.988, 11127.00
1314.053, 11248.00
1315.119, 11290.00
1316.184, 11345.00
1317.249, 11256.00
1318.314, 11397.00
1319.379, 11305.00
1320.443, 11165.00
1321.508, 11229.00
1322.572, 11376.00
1323.636, 11316.00
1324.700, 11309.00
1325.764, 11293.00
1326.827, 11302.08
1327.891, 11269.00
1328.954, 11374.00
1330.017, 11353.00
1331.080, 11430.00
1332.143, 11341.00
1333.205, 11280.00
1334.268, 11428.00
1335.330, 11338.00
1336.392, 11450.00
1337.454, 11522.00
1338.516, 11491.00
1339.578, 11543.00
1340.639, 11514.00
1341.701, 11499.00
1342.762, 11529.00
1343.823, 11528.00
1344.883, 11582.00
1345.944, 11683.00
1347.005, 11482.00
1348.065, 11686.00
1349.125, 11561.00
1350.185, 11629.00
1351.245, 11557.00
1352.305, 11741.00
1353.364, 11758.00
1354.424, 11636.00
1355.483, 11725.00
1356.542, 11694.00
1357.601, 11659.00
1358.659, 11670.00
1359.718, 11669.00
1360.776, 11635.00
1361.834, 11756.00
1362.893, 11794.00
1363.950, 11672.00
1365.008, 11883.00
1366.066, 11569.00
1367.123, 11823.00
1368.180, 11782.00
1369.237, 11880.00
1370.294, 11881.00
1371.351, 11864.00
1372.408, 11882.00
1373.464, 11931.00
1374.520, 12004.00
1375.576, 11953.00
1376.632, 11984.00
1377.688, 11926.00
1378.744, 11993.00
1379.799, 12172.00
1380.854, 12151.00
1381.910, 12148.00
1382.965, 12298.00
1384.019, 12238.00
1385.074, 12298.00
1386.128, 12440.00
1387.183, 12223.00
1388.237, 12250.00
1389.291, 12233.00
1390.345, 12273.00
1391.398, 12237.00
1392.452, 12221.00
1393.505, 12326.00
1394.558, 12421.00
1395.611, 12373.00
1396.664, 12295.00
1397.717, 12330.00
1398.769, 12269.00
1399.822, 12423.00
1400.874, 12352.00
1401.926, 12380.00
1402.978, 12383.31
1404.029, 12341.64
1405.081, 12365.00
1406.132, 12346.00
1407.183, 12408.00
1408.234, 12541.00
1409.285, 12491.00
1410.336, 12537.00
1411.387, 12448.00
1412.437, 12459.00
1413.487, 12501.40
1414.537, 12559.03
1415.587, 12592.77
1416.637, 12603.92
1417.686, 12524.79
1418.736, 12562.23
1419.785, 12552.96
1420.834, 12541.76
1421.883, 12595.61
1422.932, 12529.61
1423.980, 12582.42
1425.029, 12587.81
1426.077, 12614.91
1427.125, 12594.99
1428.173, 12589.59
1429.221, 12631.22
1430.269, 12646.81
1431.316, 12621.48
1432.363, 12649.95
1433.410, 12582.30
1434.457, 12598.99
1435.504, 12652.08
1436.551, 12629.12
1437.597, 12658.44
1438.644, 12667.86
1439.690, 12586.75
1440.736, 12663.06
1441.781, 12671.29
1442.827, 12609.62
1443.873, 12680.54
1444.918, 12628.50
1445.963, 12620.35
1447.008, 12794.00
1448.053, 12628.00
1449.098, 12764.00
1450.142, 12797.00
1451.186, 12895.00
1452.231, 12862.00
1453.275, 12900.77
1454.319, 12888.71
1455.362, 12871.00
1456.406, 12802.00
1457.449, 12698.00
1458.492, 12576.00
1459.535, 12729.00
1460.578, 12608.00
1461.621, 12533.00
1462.663, 12709.00
1463.706, 12567.00
1464.748, 12607.00
1465.790, 12691.00
1466.832, 12746.00
1467.874, 12717.41
1468.915, 12661.00
1469.957, 12620.00
1470.998, 12601.00
1472.039, 12512.00
1473.080, 12480.88
1474.121, 12579.00
1475.161, 12443.00
1476.202, 12471.00
1477.242, 12597.00
1478.282, 12387.00
1479.322, 12647.00
1480.362, 12466.00
1481.401, 12484.00
1482.441, 12433.00
1483.480, 12528.00
1484.519, 12408.00
1485.558, 12464.00
1486.597, 12508.00
1487.636, 12513.00
1488.674, 12627.00
1489.712, 12490.00
1490.751, 12436.00
1491.788, 12577.00
1492.826, 12393.00
1493.864, 12422.00
1494.901, 12492.00
1495.939, 12333.00
1496.976, 12362.00
1498.013, 12482.00
1499.050, 12432.00
1500.086, 12459.21
1501.123, 12517.00
1502.159, 12382.00
1503.195, 12598.00
1504.231, 12487.00
1505.267, 12360.00
1506.303, 12452.00
1507.338, 12415.00
1508.374, 12387.00
1509.409, 12453.00
1510.444, 12406.00
1511.479, 12347.00
1512.514, 12332.00
1513.548, 12344.00
1514.583, 12446.00
1515.617, 12444.00
1516.651, 12327.00
1517.685, 12266.00
1518.718, 12401.00
1519.752, 12424.00
1520.785, 12404.57
1521.819, 12407.00
1522.852, 12378.00
1523.885, 12441.00
1524.917, 12442.00
1525.950, 12315.00
1526.982, 12205.00
1528.015, 12274.91
1529.047, 12255.82
1530.079, 12380.00
1531.110, 12353.00
1532.142, 12373.00
1533.173, 12349.00
1534.205, 12274.00
1535.236, 12361.00
1536.267, 12269.00
1537.298, 12314.00
1538.328, 12452.00
1539.359, 12485.00
1540.389, 12480.00
1541.419, 12467.27
1542.449, 12367.62
1543.479, 12414.68
1544.508, 12437.87
1545.538, 12438.46
1546.567, 12348.77
1547.596, 12375.66
1548.625, 12355.83
1549.654, 12334.09
1550.683, 12377.39
1551.711, 12300.83
1552.740, 12343.10
1553.768, 12337.95
1554.796, 12354.50
1555.824, 12324.04
1556.851, 12308.11
1557.879, 12339.20
1558.906, 12344.25
1559.933, 12308.39
1560.960, 12326.33
1561.987, 12248.14
1563.014, 12254.31
1564.041, 12296.87
1565.067, 12263.38
1566.093, 12282.18
1567.119, 12281.07
1568.145, 12189.44
1569.171, 12255.23
1570.196, 12252.95
1571.222, 12180.76
1572.247, 12241.16
1573.272, 12210.56
1574.297, 12251.00
1575.322, 12215.00
##END=



