##NAMES=Sodalite
##RRUFFID=R060355
##IDEAL CHEMISTRY=Na_4_Si_3_Al_3_O_12_Cl
##LOCALITY=Mont Saint-Hilaire, Quebec, Canada
##OWNER=RRUFF
##SOURCE=Herb Obodda
##DESCRIPTION=Clear colorless fragment
##STATUS=The identification of this mineral has been confirmed by X-ray diffraction and chemical analysis
##URL=rruff.info/R060355
##MEASURED CHEMISTRY=(Na_0.98_[box]_0.02_)_8_Al_6.00_(Si_0.99_Al_0.01_)_6_O_24_Cl_1.82_
##PIN_ID=L00616
##ORIENTATION=Laser parallel to a* (1 0 0). Fiducial mark perpendicular to laser is parallel to -c [0 0 -1]
125.3850, 37374.00
126.6170, 37488.00
127.8490, 37905.00
129.0810, 38279.00
130.3130, 38327.00
131.5450, 38800.00
132.7770, 38297.00
134.0080, 38036.00
135.2390, 37625.00
136.4710, 37547.00
137.7020, 37828.00
138.9320, 37980.00
140.1630, 37836.00
141.3930, 37483.00
142.6240, 37812.00
143.8540, 37656.00
145.0840, 37715.00
146.3140, 38072.00
147.5440, 37825.00
148.7730, 37673.00
150.0020, 37695.00
151.2320, 37896.00
152.4610, 38164.00
153.6900, 37955.00
154.9180, 38857.00
156.1470, 38967.00
157.3750, 39949.00
158.6040, 40671.00
159.8320, 41746.00
161.0600, 43180.00
162.2870, 44749.00
163.5150, 46154.00
164.7420, 46810.00
165.9700, 46996.00
167.1970, 46616.00
168.4240, 45783.00
169.6510, 44615.00
170.8770, 42776.00
172.1040, 42210.00
173.3300, 41555.00
174.5560, 40846.00
175.7820, 40748.00
177.0080, 40442.00
178.2340, 40197.00
179.4590, 39608.00
180.6850, 39437.00
181.9100, 39066.00
183.1350, 38713.00
184.3600, 38408.00
185.5850, 38310.00
186.8090, 37914.00
188.0340, 38004.00
189.2580, 37954.00
190.4820, 37764.00
191.7060, 38129.00
192.9300, 37973.00
194.1530, 38254.00
195.3770, 38258.00
196.6000, 38468.00
197.8230, 38269.00
199.0460, 38298.00
200.2690, 38247.00
201.4910, 38358.00
202.7140, 38186.00
203.9360, 38417.00
205.1580, 38485.00
206.3800, 38406.00
207.6020, 38373.00
208.8240, 38399.00
210.0450, 38346.00
211.2670, 38444.00
212.4880, 38689.00
213.7090, 38547.00
214.9300, 38775.00
216.1510, 38434.00
217.3710, 38605.00
218.5920, 38638.00
219.8120, 38782.00
221.0320, 38821.00
222.2520, 38897.00
223.4720, 39361.00
224.6910, 39537.00
225.9110, 39731.38
227.1300, 39938.00
228.3490, 40056.00
229.5680, 40386.00
230.7870, 40472.00
232.0050, 40919.00
233.2240, 41292.00
234.4420, 41459.00
235.6600, 41406.00
236.8780, 41483.00
238.0960, 41603.00
239.3140, 41812.00
240.5310, 41763.00
241.7490, 42171.00
242.9660, 42633.00
244.1830, 43001.00
245.4000, 43644.00
246.6160, 43834.00
247.8330, 44723.00
249.0490, 45374.00
250.2660, 46433.00
251.4820, 47694.00
252.6980, 49065.00
253.9130, 50802.00
255.1290, 52508.00
256.3440, 54373.00
257.5600, 56043.00
258.7750, 57601.00
259.9900, 59105.00
261.2040, 60552.00
262.4190, 61346.00
263.6330, 61527.00
264.8480, 60950.00
266.0620, 59379.00
267.2760, 58129.00
268.4900, 56261.00
269.7030, 54708.00
270.9170, 52759.00
272.1300, 51422.00
273.3430, 50214.00
274.5560, 48640.00
275.7690, 47611.00
276.9820, 47003.00
278.1940, 46334.00
279.4070, 45596.00
280.6190, 45536.00
281.8310, 44872.00
283.0430, 44956.00
284.2550, 44840.00
285.4660, 45157.00
286.6770, 45312.00
287.8890, 46033.00
289.1000, 46653.00
290.3110, 47527.00
291.5210, 48194.00
292.7320, 48910.00
293.9420, 49010.00
295.1530, 48764.00
296.3630, 48012.00
297.5730, 46694.00
298.7830, 45586.00
299.9920, 44235.00
301.2020, 43389.00
302.4110, 42436.00
303.6200, 41919.00
304.8290, 41500.00
306.0380, 41038.00
307.2470, 41027.00
308.4550, 40725.00
309.6630, 40918.00
310.8720, 40411.00
312.0800, 40332.00
313.2880, 40427.00
314.4950, 40643.00
315.7030, 40449.00
316.9100, 40711.00
318.1170, 40387.00
319.3240, 40261.00
320.5310, 40267.00
321.7380, 40590.00
322.9450, 40149.00
324.1510, 40576.00
325.3570, 40598.00
326.5630, 40538.00
327.7690, 40474.00
328.9750, 40477.86
330.1810, 40458.00
331.3860, 40453.00
332.5910, 40394.00
333.7960, 40397.00
335.0010, 40463.00
336.2060, 40710.00
337.4110, 40391.00
338.6150, 40451.00
339.8200, 40724.00
341.0240, 40682.00
342.2280, 40791.00
343.4320, 40433.00
344.6350, 40733.00
345.8390, 40889.00
347.0420, 40465.00
348.2450, 40942.00
349.4480, 40766.00
350.6510, 41152.00
351.8540, 41039.00
353.0560, 40812.00
354.2590, 40973.00
355.4610, 41047.00
356.6630, 41120.00
357.8650, 41113.00
359.0670, 41033.00
360.2680, 40982.00
361.4700, 41077.00
362.6710, 41268.00
363.8720, 41212.00
365.0730, 41497.00
366.2740, 41441.00
367.4740, 41674.00
368.6750, 41530.00
369.8750, 41892.00
371.0750, 41669.00
372.2750, 42030.00
373.4750, 42012.00
374.6740, 42089.00
375.8740, 41975.00
377.0730, 41944.00
378.2720, 41758.00
379.4710, 41754.00
380.6700, 41798.37
381.8690, 42024.00
383.0670, 41895.00
384.2660, 42078.00
385.4640, 41959.00
386.6620, 42351.00
387.8600, 42416.00
389.0570, 42492.00
390.2550, 42340.00
391.4520, 42572.78
392.6490, 42754.00
393.8460, 42932.00
395.0430, 43110.00
396.2400, 43323.00
397.4370, 43487.00
398.6330, 43439.00
399.8290, 44098.00
401.0250, 44190.00
402.2210, 44334.00
403.4170, 45099.00
404.6130, 45103.07
405.8080, 45434.94
407.0030, 45556.00
408.1980, 45668.00
409.3930, 45854.00
410.5880, 45601.00
411.7830, 45639.00
412.9770, 45175.00
414.1720, 45294.00
415.3660, 45165.00
416.5600, 45048.00
417.7530, 45184.00
418.9470, 45213.00
420.1410, 45446.00
421.3340, 45722.00
422.5270, 45800.00
423.7200, 45843.00
424.9130, 46250.00
426.1060, 46159.00
427.2980, 46590.00
428.4900, 46634.00
429.6830, 47148.00
430.8750, 47356.00
432.0670, 47766.00
433.2580, 48052.00
434.4500, 48414.00
435.6410, 48911.00
436.8320, 48956.00
438.0240, 49570.00
439.2140, 49867.00
440.4050, 50524.00
441.5960, 51600.00
442.7860, 52255.00
443.9760, 53523.00
445.1670, 54856.00
446.3560, 56877.00
447.5460, 58712.00
448.7360, 60815.00
449.9250, 63846.00
451.1150, 67041.00
452.3040, 71353.00
453.4930, 77112.00
454.6810, 84083.00
455.8700, 93276.00
457.0590, 103998.0
458.2470, 118203.0
459.4350, 133134.0
460.6230, 148668.0
461.8110, 162489.0
462.9980, 169655.0
464.1860, 169851.0
465.3730, 160610.0
466.5600, 145451.0
467.7470, 128556.0
468.9340, 113037.0
470.1210, 100016.0
471.3080, 90337.00
472.4940, 84062.00
473.6800, 75700.00
474.8660, 71090.00
476.0520, 67606.00
477.2380, 64699.00
478.4230, 62336.00
479.6090, 60503.00
480.7940, 58972.00
481.9790, 57702.24
483.1640, 56958.00
484.3490, 56156.00
485.5330, 55706.00
486.7180, 55558.00
487.9020, 54820.00
489.0860, 54718.00
490.2700, 54132.00
491.4540, 53330.00
492.6370, 53098.00
493.8210, 52650.00
495.0040, 52612.00
496.1870, 52127.00
497.3700, 51903.00
498.5530, 51752.00
499.7360, 51635.00
500.9180, 51553.00
502.1000, 51350.00
503.2830, 50974.00
504.4650, 50919.00
505.6460, 50626.00
506.8280, 50834.00
508.0100, 50479.00
509.1910, 50721.00
510.3720, 50459.00
511.5530, 50792.00
512.7340, 50621.00
513.9150, 51238.00
515.0950, 51020.00
516.2760, 50877.00
517.4560, 50795.00
518.6360, 51033.00
519.8160, 51078.00
520.9950, 51066.00
522.1750, 50935.00
523.3540, 51161.00
524.5340, 51133.00
525.7130, 50879.00
526.8920, 51141.00
528.0700, 50990.00
529.2490, 50995.00
530.4270, 51160.00
531.6060, 51125.00
532.7840, 50989.00
533.9620, 51085.00
535.1390, 50999.09
536.3170, 50934.00
537.4940, 50911.00
538.6720, 50806.00
539.8490, 50684.00
541.0260, 51088.00
542.2030, 51054.00
543.3790, 51224.00
544.5560, 51196.00
545.7320, 50870.00
546.9080, 51142.00
548.0840, 51075.00
549.2600, 51100.00
550.4360, 51194.00
551.6110, 51154.00
552.7860, 51114.00
553.9620, 51240.00
555.1370, 51409.00
556.3110, 51743.00
557.4860, 51367.00
558.6610, 51617.00
559.8350, 51599.00
561.0090, 51373.00
562.1830, 51832.00
563.3570, 52202.00
564.5310, 51822.00
565.7040, 51446.00
566.8780, 51772.00
568.0510, 51775.00
569.2240, 51651.00
570.3970, 51993.00
571.5700, 52893.00
572.7420, 52761.00
573.9150, 52435.00
575.0870, 52261.00
576.2590, 52059.00
577.4310, 51921.00
578.6030, 52426.00
579.7740, 52281.00
580.9460, 52355.00
582.1170, 52603.00
583.2880, 52361.00
584.4590, 52759.00
585.6300, 52851.00
586.8010, 53042.00
587.9710, 52945.00
589.1410, 53369.00
590.3110, 53568.00
591.4810, 53213.00
592.6510, 53555.00
593.8210, 53455.00
594.9900, 53806.00
596.1600, 53511.00
597.3290, 53741.00
598.4980, 53622.00
599.6670, 53408.00
600.8350, 53836.00
602.0040, 53881.00
603.1720, 54629.00
604.3400, 54593.00
605.5080, 54235.00
606.6760, 54169.00
607.8440, 54685.00
609.0120, 54340.40
610.1790, 55042.00
611.3460, 54519.00
612.5130, 54508.00
613.6800, 55272.00
614.8470, 55172.00
616.0130, 55599.00
617.1800, 55475.00
618.3460, 55939.00
619.5120, 55873.00
620.6780, 56002.00
621.8440, 55981.00
623.0090, 56015.00
624.1750, 56143.64
625.3400, 56176.00
626.5050, 56274.00
627.6700, 56340.31
628.8350, 56396.00
629.9990, 56422.33
631.1640, 56348.00
632.3280, 56284.00
633.4920, 56268.00
634.6560, 56346.00
635.8200, 56228.00
636.9840, 56196.00
638.1470, 56580.00
639.3100, 56512.00
640.4730, 56616.00
641.6360, 56432.00
642.7990, 57005.00
643.9620, 56559.00
645.1240, 56865.00
646.2870, 57035.00
647.4490, 56681.00
648.6110, 56435.00
649.7730, 56928.00
650.9340, 56981.00
652.0960, 56641.00
653.2570, 57029.00
654.4180, 56456.00
655.5790, 56752.00
656.7400, 56645.00
657.9010, 56603.00
659.0620, 56599.00
660.2220, 56658.00
661.3820, 56607.00
662.5420, 56500.00
663.7020, 56698.00
664.8620, 56449.00
666.0210, 56876.00
667.1810, 57009.00
668.3400, 56917.00
669.4990, 57147.00
670.6580, 57038.00
671.8170, 57155.00
672.9750, 57285.70
674.1340, 57356.00
675.2920, 57448.00
676.4500, 57335.00
677.6080, 57179.00
678.7660, 57568.00
679.9230, 57791.00
681.0810, 57767.00
682.2380, 57557.00
683.3950, 57892.00
684.5520, 58008.00
685.7090, 57952.00
686.8660, 58215.00
688.0220, 58221.00
689.1780, 58622.00
690.3340, 58459.00
691.4900, 58438.00
692.6460, 58681.00
693.8020, 58629.00
694.9570, 59133.00
696.1130, 59109.00
697.2680, 59141.00
698.4230, 59770.00
699.5780, 59797.00
700.7320, 60448.00
701.8870, 60015.00
703.0410, 60544.00
704.1950, 61003.00
705.3490, 61341.00
706.5030, 62003.00
707.6570, 62676.00
708.8110, 63596.00
709.9640, 64432.00
711.1170, 65133.00
712.2700, 65684.84
713.4230, 66270.00
714.5760, 66507.00
715.7280, 66850.00
716.8810, 67138.00
718.0330, 66741.00
719.1850, 66656.00
720.3370, 66334.00
721.4890, 66144.00
722.6400, 65955.00
723.7920, 65582.00
724.9430, 65685.00
726.0940, 65563.00
727.2450, 65107.00
728.3960, 65341.00
729.5460, 65156.00
730.6970, 65285.00
731.8470, 65734.00
732.9970, 65778.00
734.1470, 65956.75
735.2970, 66383.00
736.4460, 65959.00
737.5960, 66181.00
738.7450, 65763.00
739.8940, 65839.00
741.0430, 65635.00
742.1920, 65655.00
743.3410, 65289.00
744.4890, 65305.00
745.6370, 65199.70
746.7850, 65167.00
747.9330, 65131.00
749.0810, 65051.00
750.2290, 65123.00
751.3760, 64972.00
752.5240, 65125.00
753.6710, 65443.00
754.8180, 65149.00
755.9650, 65238.00
757.1110, 65395.00
758.2580, 65150.00
759.4040, 64974.00
760.5510, 64833.00
761.6970, 64910.09
762.8420, 65341.00
763.9880, 65326.00
765.1340, 65363.00
766.2790, 65831.00
767.4240, 65517.00
768.5690, 65792.00
769.7140, 65602.00
770.8590, 66259.00
772.0030, 66084.00
773.1480, 66473.00
774.2920, 66652.00
775.4360, 67251.00
776.5800, 67444.00
777.7240, 68032.00
778.8670, 68379.00
780.0110, 68791.00
781.1540, 68859.00
782.2970, 68529.00
783.4400, 68141.00
784.5830, 68022.00
785.7250, 67720.21
786.8680, 67511.00
788.0100, 67277.00
789.1520, 67121.00
790.2940, 66857.00
791.4360, 67271.00
792.5780, 67140.00
793.7190, 66865.00
794.8600, 67277.00
796.0010, 67158.00
797.1420, 66848.00
798.2830, 67069.00
799.4240, 66925.00
800.5640, 66980.66
801.7050, 66822.00
802.8450, 67164.00
803.9850, 67373.00
805.1250, 67540.00
806.2640, 67736.00
807.4040, 67994.00
808.5430, 68459.00
809.6820, 68234.00
810.8210, 68704.00
811.9600, 68379.00
813.0990, 68980.00
814.2370, 69379.00
815.3760, 69773.00
816.5140, 70008.00
817.6520, 69717.00
818.7900, 69927.00
819.9270, 69745.00
821.0650, 69910.00
822.2020, 69856.00
823.3390, 69689.00
824.4760, 69815.00
825.6130, 70057.00
826.7500, 70443.00
827.8870, 70482.00
829.0230, 70789.00
830.1590, 71096.00
831.2950, 71036.00
832.4310, 71474.00
833.5670, 71799.00
834.7030, 71691.00
835.8380, 72088.00
836.9730, 72442.00
838.1080, 72761.00
839.2430, 72935.52
840.3780, 72894.00
841.5130, 73109.00
842.6470, 73097.77
843.7810, 73011.00
844.9150, 73230.00
846.0490, 73244.00
847.1830, 73368.00
848.3170, 73650.00
849.4500, 73380.00
850.5830, 73679.00
851.7160, 73567.00
852.8490, 74174.00
853.9820, 73624.00
855.1150, 74147.00
856.2470, 74302.00
857.3800, 74668.00
858.5120, 74454.00
859.6440, 74665.00
860.7760, 74905.00
861.9070, 74877.00
863.0390, 75095.00
864.1700, 75047.00
865.3010, 75513.00
866.4320, 75047.00
867.5630, 74428.00
868.6940, 74930.00
869.8240, 74811.00
870.9540, 75098.00
872.0850, 74766.00
873.2150, 75001.00
874.3450, 74870.00
875.4740, 75012.00
876.6040, 75085.00
877.7330, 74647.00
878.8620, 75015.00
879.9910, 75348.00
881.1200, 74952.00
882.2490, 75299.00
883.3770, 75189.00
884.5060, 75295.00
885.6340, 75120.00
886.7620, 75725.00
887.8900, 74965.00
889.0180, 75683.00
890.1450, 75415.00
891.2730, 75972.00
892.4000, 76490.00
893.5270, 75864.00
894.6540, 76091.00
895.7810, 75772.00
896.9070, 76286.00
898.0340, 76478.00
899.1600, 76330.00
900.2860, 76497.00
901.4120, 76536.00
902.5380, 76866.00
903.6630, 76361.00
904.7890, 76890.00
905.9140, 76924.00
907.0390, 76770.00
908.1640, 77528.00
909.2890, 77734.00
910.4130, 77574.00
911.5380, 77723.00
912.6620, 77892.00
913.7860, 78051.00
914.9100, 78308.00
916.0340, 78542.00
917.1580, 78644.00
918.2810, 78838.00
919.4040, 79271.00
920.5280, 79645.00
921.6510, 79701.00
922.7730, 80067.00
923.8960, 79843.00
925.0180, 79888.00
926.1410, 80034.00
927.2630, 80015.00
928.3850, 80355.00
929.5070, 80528.00
930.6280, 80287.00
931.7500, 79963.00
932.8710, 80072.00
933.9920, 80401.00
935.1130, 80261.00
936.2340, 80311.00
937.3550, 80410.34
938.4760, 80391.25
939.5960, 80563.00
940.7160, 80449.00
941.8360, 80652.00
942.9560, 80587.00
944.0760, 80693.00
945.1950, 80639.00
946.3150, 80865.00
947.4340, 81346.00
948.5530, 80954.00
949.6720, 81482.00
950.7900, 81955.00
951.9090, 81601.00
953.0270, 82051.00
954.1460, 82059.00
955.2640, 82128.00
956.3820, 82587.00
957.4990, 82889.00
958.6170, 83232.00
959.7340, 83869.00
960.8520, 84368.00
961.9690, 85253.27
963.0860, 86107.00
964.2020, 86992.00
965.3190, 87535.00
966.4350, 87965.00
967.5520, 88111.00
968.6680, 88487.16
969.7840, 88666.00
970.8990, 89024.00
972.0150, 89103.00
973.1310, 89538.00
974.2460, 89580.00
975.3610, 89506.00
976.4760, 90574.00
977.5910, 90907.00
978.7050, 93066.00
979.8200, 95216.00
980.9340, 98288.00
982.0480, 102309.0
983.1620, 107357.0
984.2760, 113085.0
985.3900, 117483.0
986.5030, 121230.0
987.6160, 120876.0
988.7300, 117900.0
989.8430, 112665.0
990.9550, 107661.0
992.0680, 103324.0
993.1810, 101561.0
994.2930, 99827.00
995.4050, 99924.00
996.5170, 100071.0
997.6290, 101277.0
998.7410, 103090.0
999.8520, 105446.0
1000.964, 108276.0
1002.075, 109512.0
1003.186, 107226.0
1004.297, 103355.0
1005.407, 98427.00
1006.518, 95055.00
1007.628, 92921.00
1008.738, 91233.00
1009.848, 90876.00
1010.958, 89602.00
1012.068, 89414.00
1013.178, 88996.00
1014.287, 87916.00
1015.396, 88120.00
1016.505, 88132.00
1017.614, 88064.00
1018.723, 88376.00
1019.831, 88806.00
1020.940, 88881.00
1022.048, 88947.00
1023.156, 89140.00
1024.264, 89172.00
1025.372, 89930.00
1026.479, 90135.00
1027.587, 90172.00
1028.694, 91271.00
1029.801, 91090.00
1030.908, 91002.00
1032.015, 91587.00
1033.121, 91122.00
1034.228, 91482.00
1035.334, 90960.00
1036.440, 91187.00
1037.546, 90895.00
1038.652, 90432.00
1039.758, 91050.00
1040.863, 90772.00
1041.968, 90786.00
1043.074, 90926.00
1044.178, 91236.00
1045.283, 91236.00
1046.388, 91482.00
1047.492, 91667.00
1048.597, 91933.00
1049.701, 91881.00
1050.805, 92506.00
1051.909, 92367.00
1053.012, 92890.00
1054.116, 93101.00
1055.219, 93355.00
1056.322, 93650.00
1057.425, 94001.89
1058.528, 94403.20
1059.631, 94855.00
1060.733, 95288.00
1061.836, 95858.00
1062.938, 96280.00
1064.040, 96683.00
1065.142, 97240.00
1066.243, 96898.00
1067.345, 96844.00
1068.446, 96568.00
1069.547, 95850.00
1070.648, 95591.00
1071.749, 95857.00
1072.850, 95033.00
1073.951, 95076.00
1075.051, 94844.00
1076.151, 94418.00
1077.251, 94174.00
1078.351, 94172.07
1079.451, 94286.00
1080.550, 94345.00
1081.650, 94204.00
1082.749, 94411.00
1083.848, 94416.00
1084.947, 94486.00
1086.046, 94355.00
1087.144, 94501.00
1088.243, 94438.62
1089.341, 94508.00
1090.439, 94447.00
1091.537, 94454.00
1092.635, 94556.00
1093.732, 94650.00
1094.830, 94944.00
1095.927, 94643.00
1097.024, 94679.00
1098.121, 94808.00
1099.218, 95533.00
1100.314, 95284.00
1101.411, 95488.00
1102.507, 95765.00
1103.603, 95627.00
1104.699, 95881.00
1105.795, 95756.00
1106.890, 96223.00
1107.986, 96342.00
1109.081, 96559.00
1110.176, 96723.00
1111.271, 96419.00
1112.366, 96658.46
1113.461, 96447.00
1114.555, 96864.00
1115.649, 96607.00
1116.744, 96874.00
1117.838, 97710.00
1118.931, 97186.00
1120.025, 97543.00
1121.119, 97555.00
1122.212, 97682.00
1123.305, 97995.00
1124.398, 98057.00
1125.491, 98314.00
1126.584, 98560.00
1127.676, 98129.00
1128.768, 98510.00
1129.861, 99541.00
1130.953, 99319.00
1132.044, 99370.00
1133.136, 99800.00
1134.228, 99776.00
1135.319, 99521.00
1136.410, 99613.00
1137.501, 99309.00
1138.592, 99846.00
1139.683, 99795.00
1140.773, 100143.0
1141.864, 100088.0
1142.954, 100154.0
1144.044, 100260.0
1145.134, 100192.0
1146.224, 100265.0
1147.313, 100565.0
1148.402, 101031.0
1149.492, 101629.0
1150.581, 101062.0
1151.670, 101968.0
1152.758, 102264.0
1153.847, 102442.0
1154.935, 103055.0
1156.024, 103330.0
1157.112, 102973.0
1158.200, 102507.0
1159.287, 102694.0
1160.375, 102759.0
1161.462, 102826.0
1162.550, 102995.5
1163.637, 102858.0
1164.724, 103234.0
1165.810, 103348.0
1166.897, 103364.0
1167.983, 103683.0
1169.070, 103540.0
1170.156, 103754.0
1171.242, 104136.0
1172.327, 103827.0
1173.413, 104121.0
1174.499, 104563.0
1175.584, 104898.0
1176.669, 105248.0
1177.754, 105809.0
1178.839, 105826.6
1179.923, 105951.5
1181.008, 105996.0
1182.092, 105826.0
1183.176, 106003.0
1184.260, 105953.0
1185.344, 107074.0
1186.428, 106856.0
1187.511, 107613.0
1188.595, 107646.0
1189.678, 107830.0
1190.761, 108052.0
1191.843, 107714.0
1192.926, 107777.0
1194.009, 107936.0
1195.091, 107440.0
1196.173, 107375.0
1197.255, 107811.0
1198.337, 107399.0
1199.419, 108027.0
1200.500, 107958.0
1201.582, 108399.0
1202.663, 107855.0
1203.744, 108025.0
1204.825, 107991.0
1205.905, 108565.0
1206.986, 108967.0
1208.066, 108510.0
1209.146, 108739.0
1210.226, 108876.6
1211.306, 108820.4
1212.386, 109162.0
1213.466, 109104.0
1214.545, 109065.0
1215.624, 109363.0
1216.703, 109131.0
1217.782, 109806.0
1218.861, 109751.0
1219.939, 109955.0
1221.018, 110033.0
1222.096, 110340.4
1223.174, 110598.5
1224.252, 111071.0
1225.330, 111353.0
1226.407, 111733.0
1227.485, 112344.0
1228.562, 112295.0
1229.639, 112270.0
1230.716, 112989.0
1231.793, 112588.0
1232.869, 113146.0
1233.946, 112653.0
1235.022, 112413.0
1236.098, 113156.0
1237.174, 112754.0
1238.250, 112388.0
1239.325, 112460.0
1240.401, 112626.0
1241.476, 113070.0
1242.551, 112423.0
1243.626, 112194.0
1244.701, 112645.0
1245.776, 113259.0
1246.850, 113473.0
1247.924, 112720.0
1248.999, 113327.0
1250.073, 113235.0
1251.146, 113532.0
1252.220, 113386.0
1253.293, 113698.0
1254.367, 113291.0
1255.440, 113881.0
1256.513, 114128.0
1257.586, 113982.0
1258.658, 114577.0
1259.731, 114976.0
1260.803, 115015.0
1261.875, 115527.0
1262.947, 115654.0
1264.019, 116028.0
1265.091, 116432.2
1266.162, 116841.0
1267.234, 117248.0
1268.305, 117396.0
1269.376, 117806.0
1270.447, 117735.0
1271.517, 117852.0
1272.588, 118518.0
1273.658, 118371.0
1274.729, 118984.0
1275.799, 119296.0
1276.868, 119504.0
1277.938, 120651.0
1279.008, 120807.0
1280.077, 121925.0
1281.146, 122429.0
1282.215, 123327.0
1283.284, 124258.0
1284.353, 124993.0
1285.421, 126057.0
1286.490, 126531.0
1287.558, 126884.0
1288.626, 127535.0
1289.694, 126759.0
1290.762, 126365.0
1291.829, 126119.0
1292.897, 125980.0
1293.964, 125734.0
1295.031, 125304.0
1296.098, 125531.0
1297.165, 124941.0
1298.231, 125123.0
1299.298, 124882.0
1300.364, 123985.0
1301.430, 123738.0
1302.496, 123482.0
1303.562, 123650.0
1304.627, 123077.0
1305.693, 123073.0
1306.758, 123450.0
1307.823, 124140.0
1308.888, 123463.0
1309.953, 123667.0
1311.018, 123877.0
1312.082, 123947.0
1313.146, 123837.0
1314.210, 124283.0
1315.274, 123448.0
1316.338, 123297.0
1317.402, 123131.0
1318.465, 123136.0
1319.529, 123599.0
1320.592, 122441.0
1321.655, 122374.0
1322.718, 122969.0
1323.780, 122320.0
1324.843, 123187.0
1325.905, 122689.0
1326.967, 123449.0
1328.029, 123566.0
1329.091, 123238.0
1330.153, 123405.0
1331.214, 123650.0
1332.275, 123544.0
1333.337, 123809.0
1334.398, 123959.0
1335.458, 124174.0
1336.519, 124114.3
1337.580, 124090.0
1338.640, 124024.0
1339.700, 124079.0
1340.760, 124284.0
1341.820, 124235.0
1342.880, 124331.0
1343.939, 125080.0
1344.999, 125117.0
1346.058, 124972.0
1347.117, 125519.0
1348.176, 125478.0
1349.235, 125726.0
1350.293, 125331.0
1351.351, 125571.0
1352.410, 125095.0
1353.468, 125768.0
1354.526, 125516.0
1355.583, 125825.0
1356.641, 125664.0
1357.698, 125670.0
1358.756, 125755.0
1359.813, 125720.0
1360.869, 126475.0
1361.926, 126240.0
1362.983, 126796.0
1364.039, 126879.0
1365.095, 126647.0
1366.152, 126637.0
1367.207, 127029.0
1368.263, 127070.0
1369.319, 127174.0
1370.374, 127248.0
1371.430, 127384.1
1372.485, 127759.0
1373.540, 127598.0
1374.594, 127643.0
1375.649, 127556.0
1376.703, 128027.0
1377.758, 127642.0
1378.812, 127852.0
1379.866, 128329.0
1380.920, 128380.0
1381.973, 128722.0
1383.027, 129075.0
1384.080, 128829.0
1385.133, 128893.0
1386.186, 129018.0
1387.239, 129424.0
1388.291, 130083.0
1389.344, 129652.0
1390.396, 130002.0
1391.448, 129354.0
1392.500, 129663.0
1393.552, 130142.0
1394.604, 129946.0
1395.655, 130067.0
1396.707, 129538.0
1397.758, 130471.0
1398.809, 130244.0
1399.860, 130667.0
1400.910, 130938.4
1401.961, 130769.9
1403.011, 131281.0
1404.061, 130903.0
1405.111, 130953.0
1406.161, 131670.0
1407.211, 131452.0
1408.260, 132191.0
1409.310, 131692.0
1410.359, 131932.0
1411.408, 132332.0
1412.457, 132531.0
1413.506, 132781.0
1414.554, 132872.0
1415.603, 133448.0
1416.651, 133349.0
1417.699, 133252.0
1418.747, 133851.0
1419.794, 134052.0
1420.842, 134447.0
1421.889, 134889.0
1422.937, 134962.0
1423.984, 135458.0
1425.031, 135524.0
1426.077, 135759.0
1427.124, 136228.0
1428.170, 137000.0
1429.217, 137382.0
1430.263, 137958.0
1431.309, 138394.0
1432.354, 139509.0
1433.400, 139919.0
1434.445, 140781.0
1435.491, 141151.0
1436.536, 142168.0
1437.581, 142938.0
1438.625, 143456.0
1439.670, 143998.0
1440.714, 144673.0
1441.759, 144357.0
1442.803, 145051.0
1443.847, 144375.0
1444.890, 144829.0
1445.934, 144880.7
1446.978, 144273.0
1448.021, 145154.0
1449.064, 143642.0
1450.107, 143776.0
1451.150, 144214.0
1452.192, 143510.0
1453.235, 143273.0
1454.277, 143904.0
1455.319, 143892.0
1456.361, 143765.0
1457.403, 143512.0
1458.445, 143541.0
1459.486, 143407.9
1460.528, 143604.0
1461.569, 143329.0
1462.610, 143297.0
1463.651, 143328.0
1464.691, 142975.0
1465.732, 142815.0
1466.772, 142550.0
1467.812, 142734.0
1468.852, 142686.0
1469.892, 141920.0
1470.932, 142904.0
1471.971, 142379.0
1473.011, 142474.0
1474.050, 143002.0
1475.089, 142435.0
1476.128, 142569.0
1477.166, 142971.0
1478.205, 142683.0
1479.243, 142686.0
1480.282, 142546.0
1481.320, 143955.0
1482.357, 143059.0
1483.395, 143254.0
1484.433, 143447.0
1485.470, 142956.0
1486.507, 143629.0
1487.544, 143506.0
1488.581, 143332.0
1489.618, 143426.0
1490.655, 143533.0
1491.691, 143567.0
1492.727, 143972.0
1493.763, 143665.0
1494.799, 144287.0
1495.835, 144105.0
1496.871, 144105.0
1497.906, 144803.0
1498.941, 144875.0
1499.976, 145096.0
1501.011, 145414.0
1502.046, 145624.0
1503.081, 145819.0
1504.115, 145762.0
1505.149, 145972.0
1506.183, 146036.4
1507.217, 146045.0
1508.251, 146225.0
1509.285, 145515.0
1510.318, 145540.0
1511.352, 145315.0
1512.385, 145680.0
1513.418, 146223.0
1514.450, 145350.0
1515.483, 145972.0
1516.516, 146724.0
1517.548, 146374.0
1518.580, 146797.0
1519.612, 147105.0
1520.644, 147230.0
1521.675, 147809.0
1522.707, 147789.0
1523.738, 147666.0
1524.769, 147241.0
1525.800, 147553.0
1526.831, 147420.0
1527.862, 147830.0
1528.892, 147825.0
1529.923, 148311.0
1530.953, 148645.0
1531.983, 147949.0
1533.013, 148666.0
1534.042, 149336.0
1535.072, 148713.0
1536.101, 149621.0
1537.131, 148943.0
1538.160, 149393.0
1539.188, 150263.0
1540.217, 149700.0
1541.246, 149740.0
1542.274, 149938.0
1543.302, 150411.0
1544.330, 150808.0
1545.358, 150756.0
1546.386, 150581.0
1547.413, 150815.0
1548.441, 150811.2
1549.468, 151489.0
1550.495, 151175.0
1551.522, 151499.0
1552.549, 151927.0
1553.575, 151877.0
1554.602, 152335.0
1555.628, 151991.0
1556.654, 152474.0
1557.680, 152258.0
1558.706, 151706.0
1559.731, 152249.0
1560.757, 152661.0
1561.782, 153380.0
1562.807, 153660.0
1563.832, 153581.0
1564.857, 154002.0
1565.881, 154190.6
1566.906, 153902.0
1567.930, 154701.0
1568.954, 154972.0
1569.978, 155086.0
1571.002, 155035.0
1572.025, 155115.0
1573.049, 155798.0
1574.072, 155577.0
1575.095, 156203.0
1576.118, 156114.0
1577.141, 156084.0
1578.164, 157117.0
##END=



