##NAMES=Sodalite
##RRUFFID=R060355
##IDEAL CHEMISTRY=Na_4_Si_3_Al_3_O_12_Cl
##LOCALITY=Mont Saint-Hilaire, Quebec, Canada
##OWNER=RRUFF
##SOURCE=Herb Obodda
##DESCRIPTION=Clear colorless fragment
##STATUS=The identification of this mineral has been confirmed by X-ray diffraction and chemical analysis
##URL=rruff.info/R060355
##MEASURED CHEMISTRY=(Na_0.98_[box]_0.02_)_8_Al_6.00_(Si_0.99_Al_0.01_)_6_O_24_Cl_1.82_
##PIN_ID=L00616
##ORIENTATION=Laser parallel to a* (1 0 0). Fiducial mark perpendicular to laser is parallel to -c [0 0 -1]
125.3850, 31992.00
126.6170, 31917.00
127.8490, 31811.00
129.0810, 31880.00
130.3130, 31877.00
131.5450, 31897.00
132.7770, 31676.00
134.0080, 31728.00
135.2390, 31425.00
136.4710, 31788.00
137.7020, 31723.00
138.9320, 32213.00
140.1630, 32244.00
141.3930, 31899.00
142.6240, 32027.00
143.8540, 31967.00
145.0840, 32120.00
146.3140, 32100.01
147.5440, 32147.00
148.7730, 32052.00
150.0020, 31794.00
151.2320, 31640.00
152.4610, 31675.00
153.6900, 31558.00
154.9180, 31651.00
156.1470, 32104.00
157.3750, 32494.00
158.6040, 33253.00
159.8320, 34057.00
161.0600, 34862.00
162.2870, 36627.00
163.5150, 37638.00
164.7420, 37873.00
165.9700, 37891.00
167.1970, 37392.00
168.4240, 36313.00
169.6510, 35285.00
170.8770, 34445.00
172.1040, 33522.00
173.3300, 33030.00
174.5560, 32500.00
175.7820, 32248.00
177.0080, 31917.00
178.2340, 31605.00
179.4590, 31491.00
180.6850, 31345.00
181.9100, 31160.00
183.1350, 30974.00
184.3600, 30905.00
185.5850, 30860.00
186.8090, 30803.27
188.0340, 30847.00
189.2580, 30762.00
190.4820, 30800.00
191.7060, 30726.00
192.9300, 30755.29
194.1530, 30814.67
195.3770, 30787.00
196.6000, 30994.00
197.8230, 30974.00
199.0460, 31109.00
200.2690, 31096.00
201.4910, 31425.00
202.7140, 30982.00
203.9360, 31309.00
205.1580, 31200.00
206.3800, 31036.00
207.6020, 31003.00
208.8240, 31138.00
210.0450, 31270.00
211.2670, 31385.00
212.4880, 31401.00
213.7090, 31417.00
214.9300, 31342.00
216.1510, 31376.00
217.3710, 31235.00
218.5920, 31464.00
219.8120, 31160.00
221.0320, 31368.00
222.2520, 31533.00
223.4720, 31737.00
224.6910, 31844.77
225.9110, 31973.00
227.1300, 32052.00
228.3490, 32267.00
229.5680, 32393.00
230.7870, 32485.67
232.0050, 32634.75
233.2240, 32691.00
234.4420, 32773.00
235.6600, 32931.00
236.8780, 32829.00
238.0960, 32965.00
239.3140, 33242.00
240.5310, 33427.00
241.7490, 33778.00
242.9660, 33628.00
244.1830, 34283.00
245.4000, 34283.00
246.6160, 34597.00
247.8330, 34992.00
249.0490, 35912.00
250.2660, 36317.00
251.4820, 37362.00
252.6980, 38743.00
253.9130, 39553.00
255.1290, 41397.00
256.3440, 42771.00
257.5600, 43844.00
258.7750, 44964.00
259.9900, 46120.00
261.2040, 47273.00
262.4190, 47974.00
263.6330, 47787.00
264.8480, 47627.00
266.0620, 46583.00
267.2760, 45489.00
268.4900, 43946.00
269.7030, 42484.00
270.9170, 41386.00
272.1300, 39980.00
273.3430, 39146.00
274.5560, 37986.00
275.7690, 37335.00
276.9820, 36527.00
278.1940, 36061.00
279.4070, 35717.00
280.6190, 35200.00
281.8310, 34970.00
283.0430, 34588.00
284.2550, 34435.00
285.4660, 34213.00
286.6770, 34083.00
287.8890, 34156.39
289.1000, 34221.00
290.3110, 34508.00
291.5210, 34808.00
292.7320, 35230.00
293.9420, 35552.00
295.1530, 35987.00
296.3630, 36016.00
297.5730, 35419.00
298.7830, 34964.00
299.9920, 34113.00
301.2020, 33543.00
302.4110, 33229.00
303.6200, 32906.00
304.8290, 32710.00
306.0380, 32659.00
307.2470, 32398.00
308.4550, 32445.00
309.6630, 32456.00
310.8720, 32321.00
312.0800, 32270.00
313.2880, 32371.00
314.4950, 32153.00
315.7030, 31925.00
316.9100, 32193.00
318.1170, 32106.00
319.3240, 32274.00
320.5310, 32231.00
321.7380, 32238.00
322.9450, 32126.00
324.1510, 32324.00
325.3570, 32141.00
326.5630, 32099.00
327.7690, 31966.00
328.9750, 32158.00
330.1810, 32188.00
331.3860, 32124.40
332.5910, 32216.16
333.7960, 32034.00
335.0010, 32166.00
336.2060, 32146.00
337.4110, 31964.00
338.6150, 32276.00
339.8200, 32095.00
341.0240, 32091.00
342.2280, 32767.00
343.4320, 33071.00
344.6350, 32925.00
345.8390, 32376.00
347.0420, 32310.00
348.2450, 32340.00
349.4480, 32225.00
350.6510, 32495.00
351.8540, 32148.00
353.0560, 32532.00
354.2590, 32386.00
355.4610, 32269.00
356.6630, 32583.00
357.8650, 32847.00
359.0670, 32552.00
360.2680, 32661.00
361.4700, 32457.00
362.6710, 32589.00
363.8720, 32771.00
365.0730, 32782.00
366.2740, 32630.00
367.4740, 32496.00
368.6750, 32552.00
369.8750, 32663.00
371.0750, 32634.00
372.2750, 32581.00
373.4750, 32717.00
374.6740, 32738.00
375.8740, 32655.00
377.0730, 32872.00
378.2720, 33048.00
379.4710, 32798.00
380.6700, 33203.00
381.8690, 33123.00
383.0670, 33476.00
384.2660, 33216.00
385.4640, 33244.00
386.6620, 33397.00
387.8600, 33729.00
389.0570, 33756.00
390.2550, 33879.35
391.4520, 33914.98
392.6490, 33992.00
393.8460, 33856.00
395.0430, 33951.00
396.2400, 33931.00
397.4370, 34425.00
398.6330, 34231.00
399.8290, 34691.00
401.0250, 34809.00
402.2210, 35178.00
403.4170, 35409.00
404.6130, 35862.00
405.8080, 36494.00
407.0030, 36976.00
408.1980, 37894.00
409.3930, 38140.00
410.5880, 37824.00
411.7830, 37451.00
412.9770, 36533.00
414.1720, 36137.00
415.3660, 35711.00
416.5600, 35546.00
417.7530, 35457.00
418.9470, 35480.00
420.1410, 35527.00
421.3340, 35552.00
422.5270, 35811.00
423.7200, 35950.00
424.9130, 35990.00
426.1060, 36217.00
427.2980, 36123.00
428.4900, 36090.00
429.6830, 36473.00
430.8750, 36912.00
432.0670, 37007.00
433.2580, 37146.00
434.4500, 37251.00
435.6410, 37562.00
436.8320, 37967.00
438.0240, 38206.00
439.2140, 38495.00
440.4050, 38899.00
441.5960, 39229.00
442.7860, 39798.00
443.9760, 40401.00
445.1670, 41296.00
446.3560, 42149.00
447.5460, 43230.00
448.7360, 44806.00
449.9250, 46693.00
451.1150, 48848.00
452.3040, 51695.00
453.4930, 55783.00
454.6810, 60687.00
455.8700, 66791.00
457.0590, 74670.00
458.2470, 85431.00
459.4350, 97893.00
460.6230, 110901.0
461.8110, 122627.0
462.9980, 127848.0
464.1860, 126915.0
465.3730, 118895.0
466.5600, 107030.0
467.7470, 94514.00
468.9340, 83658.00
470.1210, 74253.00
471.3080, 67343.00
472.4940, 61450.00
473.6800, 57296.00
474.8660, 53806.00
476.0520, 51492.00
477.2380, 49326.00
478.4230, 47846.00
479.6090, 46385.00
480.7940, 45195.00
481.9790, 44281.50
483.1640, 43729.00
484.3490, 43029.00
485.5330, 42475.00
486.7180, 42341.00
487.9020, 41912.00
489.0860, 41778.66
490.2700, 41700.00
491.4540, 41691.00
492.6370, 41956.00
493.8210, 42194.00
495.0040, 42463.00
496.1870, 42744.00
497.3700, 42535.43
498.5530, 42428.00
499.7360, 41956.00
500.9180, 41473.00
502.1000, 41012.00
503.2830, 40597.08
504.4650, 40006.00
505.6460, 39914.00
506.8280, 39588.00
508.0100, 39511.00
509.1910, 39417.12
510.3720, 39503.00
511.5530, 39398.00
512.7340, 39560.00
513.9150, 39743.00
515.0950, 39596.00
516.2760, 39646.00
517.4560, 39641.00
518.6360, 39746.00
519.8160, 39641.00
520.9950, 39628.00
522.1750, 39657.00
523.3540, 39772.00
524.5340, 39884.00
525.7130, 39629.00
526.8920, 39552.00
528.0700, 39578.00
529.2490, 39446.00
530.4270, 39568.00
531.6060, 39494.00
532.7840, 39517.00
533.9620, 39391.00
535.1390, 39621.00
536.3170, 39461.00
537.4940, 39317.00
538.6720, 39527.00
539.8490, 39370.00
541.0260, 39580.00
542.2030, 39559.00
543.3790, 39768.00
544.5560, 39765.91
545.7320, 39716.00
546.9080, 39702.00
548.0840, 39816.00
549.2600, 39620.00
550.4360, 39525.00
551.6110, 39828.00
552.7860, 39690.00
553.9620, 39740.00
555.1370, 39588.00
556.3110, 39934.00
557.4860, 39847.00
558.6610, 39826.41
559.8350, 39878.08
561.0090, 39846.00
562.1830, 39834.00
563.3570, 39873.56
564.5310, 39840.29
565.7040, 39906.00
566.8780, 39897.00
568.0510, 39859.00
569.2240, 40050.00
570.3970, 40070.00
571.5700, 39990.00
572.7420, 40037.00
573.9150, 40030.00
575.0870, 40259.00
576.2590, 40357.00
577.4310, 40566.00
578.6030, 40540.10
579.7740, 40484.00
580.9460, 40474.00
582.1170, 40542.00
583.2880, 40566.00
584.4590, 40530.00
585.6300, 40995.00
586.8010, 40898.00
587.9710, 41041.00
589.1410, 40907.00
590.3110, 41205.00
591.4810, 41022.00
592.6510, 41565.00
593.8210, 41239.00
594.9900, 41479.00
596.1600, 41254.00
597.3290, 41661.00
598.4980, 42015.00
599.6670, 41737.00
600.8350, 41921.00
602.0040, 41756.00
603.1720, 42012.00
604.3400, 42245.00
605.5080, 42191.00
606.6760, 42553.00
607.8440, 42720.00
609.0120, 42699.00
610.1790, 42624.00
611.3460, 42838.00
612.5130, 42611.00
613.6800, 42370.00
614.8470, 43002.00
616.0130, 43032.00
617.1800, 43141.00
618.3460, 43770.00
619.5120, 43234.00
620.6780, 43487.00
621.8440, 43592.00
623.0090, 43495.00
624.1750, 43850.00
625.3400, 43903.00
626.5050, 43787.00
627.6700, 43897.00
628.8350, 43198.00
629.9990, 43403.00
631.1640, 43370.00
632.3280, 43386.00
633.4920, 43569.00
634.6560, 43576.00
635.8200, 43271.00
636.9840, 43296.00
638.1470, 43457.00
639.3100, 43665.00
640.4730, 43692.00
641.6360, 43902.00
642.7990, 43972.00
643.9620, 43824.00
645.1240, 43923.00
646.2870, 43770.00
647.4490, 43799.00
648.6110, 43911.00
649.7730, 44057.00
650.9340, 44165.00
652.0960, 43780.00
653.2570, 44165.00
654.4180, 43763.00
655.5790, 43682.00
656.7400, 43641.00
657.9010, 43501.11
659.0620, 43443.00
660.2220, 43436.00
661.3820, 43335.00
662.5420, 43266.00
663.7020, 43307.29
664.8620, 43532.00
666.0210, 43437.00
667.1810, 43642.00
668.3400, 43828.00
669.4990, 43650.00
670.6580, 43537.00
671.8170, 43871.00
672.9750, 43751.00
674.1340, 43858.00
675.2920, 43851.00
676.4500, 43898.00
677.6080, 43948.00
678.7660, 43848.00
679.9230, 43866.00
681.0810, 43834.00
682.2380, 44103.00
683.3950, 44142.00
684.5520, 44275.00
685.7090, 44270.00
686.8660, 44242.00
688.0220, 44405.00
689.1780, 44611.00
690.3340, 44543.00
691.4900, 44500.00
692.6460, 44927.00
693.8020, 44909.00
694.9570, 45018.00
696.1130, 45115.00
697.2680, 45271.00
698.4230, 45257.00
699.5780, 45618.00
700.7320, 45622.00
701.8870, 46009.00
703.0410, 46386.00
704.1950, 46263.00
705.3490, 46835.00
706.5030, 47154.00
707.6570, 47814.00
708.8110, 48240.00
709.9640, 48685.06
711.1170, 49148.00
712.2700, 49528.00
713.4230, 49856.00
714.5760, 50167.00
715.7280, 50558.00
716.8810, 50543.00
718.0330, 50628.00
719.1850, 50438.00
720.3370, 50304.00
721.4890, 50125.00
722.6400, 50064.00
723.7920, 49790.00
724.9430, 49707.00
726.0940, 49613.00
727.2450, 49315.00
728.3960, 49087.00
729.5460, 49194.00
730.6970, 48880.00
731.8470, 49148.00
732.9970, 49634.00
734.1470, 49559.00
735.2970, 49588.00
736.4460, 49251.00
737.5960, 49454.00
738.7450, 49163.00
739.8940, 49249.00
741.0430, 49524.00
742.1920, 49132.00
743.3410, 49428.00
744.4890, 49121.00
745.6370, 49373.00
746.7850, 49358.00
747.9330, 49397.00
749.0810, 49460.00
750.2290, 49263.00
751.3760, 49607.00
752.5240, 49560.00
753.6710, 49253.00
754.8180, 49305.00
755.9650, 49692.00
757.1110, 49646.00
758.2580, 49537.00
759.4040, 49608.00
760.5510, 49670.00
761.6970, 49659.00
762.8420, 49554.00
763.9880, 49547.00
765.1340, 49868.00
766.2790, 49688.00
767.4240, 49785.00
768.5690, 49671.00
769.7140, 49840.00
770.8590, 49873.00
772.0030, 50145.00
773.1480, 50124.00
774.2920, 50495.00
775.4360, 50536.00
776.5800, 50798.00
777.7240, 51732.00
778.8670, 51855.00
780.0110, 52682.00
781.1540, 52422.00
782.2970, 52361.00
783.4400, 52407.00
784.5830, 51782.00
785.7250, 51438.00
786.8680, 51273.00
788.0100, 51246.00
789.1520, 50946.00
790.2940, 50933.00
791.4360, 51012.00
792.5780, 50776.00
793.7190, 50849.00
794.8600, 51264.00
796.0010, 50995.00
797.1420, 51189.00
798.2830, 51124.00
799.4240, 51352.00
800.5640, 51350.00
801.7050, 51352.00
802.8450, 51309.00
803.9850, 51491.00
805.1250, 51319.00
806.2640, 51161.00
807.4040, 51324.00
808.5430, 51703.00
809.6820, 52001.00
810.8210, 52021.00
811.9600, 52166.00
813.0990, 52265.00
814.2370, 52674.00
815.3760, 52778.00
816.5140, 52823.36
817.6520, 53084.00
818.7900, 52839.00
819.9270, 52854.00
821.0650, 52941.00
822.2020, 52817.00
823.3390, 52911.00
824.4760, 52963.00
825.6130, 53040.00
826.7500, 53177.00
827.8870, 53351.00
829.0230, 53452.52
830.1590, 53710.00
831.2950, 53703.00
832.4310, 54039.00
833.5670, 54158.00
834.7030, 54341.00
835.8380, 54522.00
836.9730, 54617.00
838.1080, 55060.00
839.2430, 55479.00
840.3780, 55733.00
841.5130, 55987.00
842.6470, 55962.97
843.7810, 55550.00
844.9150, 55724.00
846.0490, 55647.00
847.1830, 55508.00
848.3170, 55677.00
849.4500, 55689.00
850.5830, 56035.00
851.7160, 55745.00
852.8490, 56318.00
853.9820, 56055.00
855.1150, 56234.00
856.2470, 56751.00
857.3800, 56897.00
858.5120, 56856.00
859.6440, 56841.00
860.7760, 56685.00
861.9070, 56726.00
863.0390, 56687.00
864.1700, 56584.00
865.3010, 56822.00
866.4320, 56580.00
867.5630, 56939.00
868.6940, 56913.00
869.8240, 57002.00
870.9540, 57016.00
872.0850, 57035.38
873.2150, 56995.62
874.3450, 57026.00
875.4740, 56827.00
876.6040, 56693.00
877.7330, 56540.00
878.8620, 57056.00
879.9910, 56882.00
881.1200, 56953.00
882.2490, 56628.00
883.3770, 56689.00
884.5060, 56955.00
885.6340, 56534.00
886.7620, 56794.00
887.8900, 56740.00
889.0180, 57032.00
890.1450, 57040.00
891.2730, 57216.00
892.4000, 57267.00
893.5270, 57287.00
894.6540, 57462.00
895.7810, 57469.00
896.9070, 57477.00
898.0340, 57399.00
899.1600, 57581.00
900.2860, 57565.00
901.4120, 57754.00
902.5380, 57908.00
903.6630, 58061.00
904.7890, 58097.86
905.9140, 58245.00
907.0390, 58110.00
908.1640, 58062.00
909.2890, 58046.27
910.4130, 58293.00
911.5380, 58158.00
912.6620, 58551.00
913.7860, 58916.00
914.9100, 58990.00
916.0340, 59182.00
917.1580, 59222.00
918.2810, 59351.00
919.4040, 59496.00
920.5280, 59558.66
921.6510, 59665.33
922.7730, 59744.00
923.8960, 59744.00
925.0180, 59841.00
926.1410, 59722.00
927.2630, 59969.00
928.3850, 60085.00
929.5070, 59943.00
930.6280, 59789.00
931.7500, 60228.00
932.8710, 60212.00
933.9920, 59862.00
935.1130, 59952.00
936.2340, 60255.00
937.3550, 60195.00
938.4760, 60111.00
939.5960, 60363.00
940.7160, 60024.00
941.8360, 60399.00
942.9560, 60559.00
944.0760, 61154.00
945.1950, 60474.00
946.3150, 60804.00
947.4340, 60540.00
948.5530, 60648.00
949.6720, 60694.00
950.7900, 60885.00
951.9090, 60907.00
953.0270, 61301.00
954.1460, 61058.00
955.2640, 61309.00
956.3820, 61244.00
957.4990, 61436.34
958.6170, 61756.00
959.7340, 61919.00
960.8520, 62172.63
961.9690, 62142.00
963.0860, 62569.00
964.2020, 62835.00
965.3190, 62901.00
966.4350, 63500.00
967.5520, 63488.00
968.6680, 63819.00
969.7840, 63691.00
970.8990, 64050.00
972.0150, 64016.00
973.1310, 64744.00
974.2460, 65023.00
975.3610, 65025.00
976.4760, 65953.00
977.5910, 66684.00
978.7050, 68045.00
979.8200, 69472.00
980.9340, 71320.00
982.0480, 74442.00
983.1620, 77756.00
984.2760, 82226.00
985.3900, 86353.00
986.5030, 89066.00
987.6160, 88675.00
988.7300, 86376.00
989.8430, 82469.00
990.9550, 78696.00
992.0680, 76171.00
993.1810, 74467.00
994.2930, 73697.00
995.4050, 73752.00
996.5170, 74309.00
997.6290, 74958.00
998.7410, 75962.00
999.8520, 78697.00
1000.964, 81510.00
1002.075, 83762.00
1003.186, 83177.00
1004.297, 79667.00
1005.407, 75728.00
1006.518, 72179.00
1007.628, 70533.00
1008.738, 69348.00
1009.848, 68991.00
1010.958, 68492.00
1012.068, 68187.00
1013.178, 67685.00
1014.287, 67344.00
1015.396, 66959.00
1016.505, 66393.00
1017.614, 66251.00
1018.723, 66526.00
1019.831, 66543.00
1020.940, 66266.00
1022.048, 66300.00
1023.156, 66353.00
1024.264, 66810.00
1025.372, 66917.00
1026.479, 67287.00
1027.587, 67169.00
1028.694, 67714.00
1029.801, 67839.00
1030.908, 68347.00
1032.015, 68424.00
1033.121, 68237.00
1034.228, 68362.00
1035.334, 68030.00
1036.440, 68226.00
1037.546, 67971.00
1038.652, 67918.00
1039.758, 68018.00
1040.863, 68084.00
1041.968, 67912.00
1043.074, 68066.00
1044.178, 68242.00
1045.283, 68015.00
1046.388, 68406.00
1047.492, 68653.00
1048.597, 69227.00
1049.701, 69430.00
1050.805, 69766.00
1051.909, 70296.00
1053.012, 70708.00
1054.116, 71135.00
1055.219, 72258.00
1056.322, 72374.00
1057.425, 72727.00
1058.528, 73398.00
1059.631, 72979.00
1060.733, 72794.00
1061.836, 71881.00
1062.938, 71755.00
1064.040, 71447.00
1065.142, 71265.00
1066.243, 70838.00
1067.345, 70776.00
1068.446, 70468.45
1069.547, 69917.00
1070.648, 70000.00
1071.749, 70090.00
1072.850, 69904.00
1073.951, 70155.00
1075.051, 69600.00
1076.151, 69900.00
1077.251, 69752.00
1078.351, 69889.00
1079.451, 69725.00
1080.550, 70374.00
1081.650, 70124.00
1082.749, 70104.00
1083.848, 70417.00
1084.947, 70049.00
1086.046, 70346.00
1087.144, 70368.00
1088.243, 70229.00
1089.341, 70181.00
1090.439, 70162.00
1091.537, 69888.00
1092.635, 70049.00
1093.732, 70194.00
1094.830, 70687.00
1095.927, 70405.00
1097.024, 70965.00
1098.121, 70488.00
1099.218, 70852.00
1100.314, 70462.00
1101.411, 70852.00
1102.507, 71068.00
1103.603, 70834.00
1104.699, 70900.00
1105.795, 71036.00
1106.890, 71175.00
1107.986, 71376.00
1109.081, 71479.00
1110.176, 71623.73
1111.271, 71534.00
1112.366, 71775.00
1113.461, 72017.00
1114.555, 71904.00
1115.649, 72240.00
1116.744, 71939.00
1117.838, 72141.00
1118.931, 72101.00
1120.025, 72058.51
1121.119, 72198.00
1122.212, 72132.00
1123.305, 72481.00
1124.398, 72684.00
1125.491, 73007.00
1126.584, 72768.00
1127.676, 72834.00
1128.768, 73135.00
1129.861, 73322.00
1130.953, 73733.00
1132.044, 73878.00
1133.136, 73939.00
1134.228, 73910.00
1135.319, 74031.00
1136.410, 73772.00
1137.501, 73651.00
1138.592, 73714.00
1139.683, 73749.00
1140.773, 73675.00
1141.864, 73817.00
1142.954, 73942.00
1144.044, 74294.00
1145.134, 74313.00
1146.224, 74542.00
1147.313, 74425.00
1148.402, 74718.00
1149.492, 74847.00
1150.581, 75024.00
1151.670, 75686.00
1152.758, 75580.00
1153.847, 75488.00
1154.935, 76106.00
1156.024, 76263.00
1157.112, 76713.00
1158.200, 76286.00
1159.287, 76048.00
1160.375, 76089.00
1161.462, 76536.00
1162.550, 76142.00
1163.637, 76385.00
1164.724, 76241.00
1165.810, 76233.00
1166.897, 76131.00
1167.983, 76457.00
1169.070, 76140.00
1170.156, 76470.00
1171.242, 76908.00
1172.327, 77006.00
1173.413, 77263.00
1174.499, 77630.00
1175.584, 77669.00
1176.669, 77790.00
1177.754, 77964.00
1178.839, 78442.00
1179.923, 78438.00
1181.008, 78531.00
1182.092, 78229.00
1183.176, 78710.00
1184.260, 78641.00
1185.344, 78969.00
1186.428, 79116.00
1187.511, 79599.00
1188.595, 79799.00
1189.678, 79960.00
1190.761, 79751.00
1191.843, 79923.00
1192.926, 79586.00
1194.009, 79853.00
1195.091, 79805.00
1196.173, 79555.00
1197.255, 79392.00
1198.337, 79424.00
1199.419, 79575.00
1200.500, 79702.00
1201.582, 80070.00
1202.663, 79778.00
1203.744, 80007.00
1204.825, 80319.00
1205.905, 79755.00
1206.986, 79551.00
1208.066, 79911.00
1209.146, 79487.00
1210.226, 80233.00
1211.306, 80344.00
1212.386, 80459.00
1213.466, 80600.00
1214.545, 80624.00
1215.624, 80907.00
1216.703, 80921.00
1217.782, 81140.00
1218.861, 81209.91
1219.939, 81369.00
1221.018, 81435.00
1222.096, 81571.00
1223.174, 81901.00
1224.252, 81814.00
1225.330, 82238.00
1226.407, 82785.00
1227.485, 83455.00
1228.562, 83142.00
1229.639, 83061.00
1230.716, 83563.00
1231.793, 83744.00
1232.869, 83227.00
1233.946, 83495.00
1235.022, 82866.00
1236.098, 83276.00
1237.174, 83416.00
1238.250, 83219.00
1239.325, 84032.00
1240.401, 83224.00
1241.476, 82992.00
1242.551, 83222.00
1243.626, 83200.00
1244.701, 83119.00
1245.776, 83307.00
1246.850, 83301.66
1247.924, 83493.00
1248.999, 83469.00
1250.073, 83345.00
1251.146, 83409.00
1252.220, 83480.00
1253.293, 83466.62
1254.367, 83965.00
1255.440, 83688.00
1256.513, 84081.00
1257.586, 84515.00
1258.658, 83913.00
1259.731, 84706.00
1260.803, 85036.00
1261.875, 84887.00
1262.947, 85474.00
1264.019, 85650.00
1265.091, 86295.00
1266.162, 86107.00
1267.234, 86248.00
1268.305, 86592.00
1269.376, 86922.00
1270.447, 86953.00
1271.517, 87388.00
1272.588, 87203.00
1273.658, 87150.00
1274.729, 87782.00
1275.799, 88222.00
1276.868, 88170.00
1277.938, 88662.00
1279.008, 89256.00
1280.077, 89934.00
1281.146, 90665.00
1282.215, 90620.00
1283.284, 91639.00
1284.353, 92140.00
1285.421, 93405.00
1286.490, 93763.00
1287.558, 93505.00
1288.626, 93752.00
1289.694, 93645.00
1290.762, 93926.00
1291.829, 93348.00
1292.897, 93710.00
1293.964, 93664.00
1295.031, 93076.00
1296.098, 92886.00
1297.165, 92573.00
1298.231, 92453.00
1299.298, 92489.00
1300.364, 91505.00
1301.430, 91734.00
1302.496, 91199.00
1303.562, 90985.00
1304.627, 91033.00
1305.693, 90827.00
1306.758, 91234.00
1307.823, 91250.00
1308.888, 91582.00
1309.953, 91349.00
1311.018, 91411.00
1312.082, 91417.00
1313.146, 91385.49
1314.210, 91468.00
1315.274, 91271.00
1316.338, 91487.00
1317.402, 91053.00
1318.465, 90607.00
1319.529, 90740.00
1320.592, 90200.00
1321.655, 90555.00
1322.718, 90489.00
1323.780, 89777.00
1324.843, 90343.00
1325.905, 90549.00
1326.967, 90374.00
1328.029, 90553.00
1329.091, 90532.00
1330.153, 91204.00
1331.214, 90761.00
1332.275, 90676.00
1333.337, 90972.00
1334.398, 90660.00
1335.458, 91129.00
1336.519, 90698.00
1337.580, 90862.00
1338.640, 90946.00
1339.700, 91210.00
1340.760, 91280.00
1341.820, 91491.00
1342.880, 91205.00
1343.939, 91527.00
1344.999, 91730.00
1346.058, 92113.00
1347.117, 92122.00
1348.176, 92190.00
1349.235, 92032.00
1350.293, 92148.00
1351.351, 92075.00
1352.410, 92127.00
1353.468, 92063.00
1354.526, 91946.00
1355.583, 92035.00
1356.641, 91859.00
1357.698, 91761.00
1358.756, 92283.00
1359.813, 92500.00
1360.869, 92178.00
1361.926, 93092.00
1362.983, 92488.00
1364.039, 92638.00
1365.095, 92716.00
1366.152, 92953.00
1367.207, 93229.00
1368.263, 92924.00
1369.319, 93310.00
1370.374, 92698.00
1371.430, 93561.00
1372.485, 93588.00
1373.540, 93702.00
1374.594, 93529.00
1375.649, 93627.28
1376.703, 94033.00
1377.758, 93742.00
1378.812, 93962.00
1379.866, 94200.00
1380.920, 94075.00
1381.973, 94414.00
1383.027, 94420.00
1384.080, 94285.00
1385.133, 95085.00
1386.186, 94645.00
1387.239, 95427.00
1388.291, 95174.00
1389.344, 94883.00
1390.396, 95185.00
1391.448, 95273.00
1392.500, 94890.00
1393.552, 95093.00
1394.604, 94922.00
1395.655, 95469.00
1396.707, 94678.00
1397.758, 95038.00
1398.809, 95055.00
1399.860, 95834.00
1400.910, 95655.00
1401.961, 95373.00
1403.011, 95944.00
1404.061, 95906.00
1405.111, 95486.00
1406.161, 96166.00
1407.211, 96181.00
1408.260, 95974.00
1409.310, 96052.00
1410.359, 96125.00
1411.408, 96735.00
1412.457, 96628.00
1413.506, 97418.00
1414.554, 97173.00
1415.603, 97068.00
1416.651, 97808.00
1417.699, 97292.00
1418.747, 97605.00
1419.794, 97800.00
1420.842, 98543.00
1421.889, 98669.00
1422.937, 98648.00
1423.984, 99333.00
1425.031, 99252.00
1426.077, 99266.00
1427.124, 99911.00
1428.170, 100203.0
1429.217, 100591.0
1430.263, 101053.0
1431.309, 101504.0
1432.354, 102006.3
1433.400, 102595.0
1434.445, 103141.0
1435.491, 103817.0
1436.536, 104565.0
1437.581, 105142.0
1438.625, 105730.0
1439.670, 106078.0
1440.714, 106751.0
1441.759, 106934.0
1442.803, 107326.0
1443.847, 107049.0
1444.890, 106686.0
1445.934, 105842.0
1446.978, 106345.0
1448.021, 105836.0
1449.064, 105926.0
1450.107, 105915.0
1451.150, 106002.0
1452.192, 106114.0
1453.235, 105966.0
1454.277, 105841.0
1455.319, 106118.0
1456.361, 105596.0
1457.403, 105447.0
1458.445, 105934.0
1459.486, 105532.0
1460.528, 105221.0
1461.569, 105341.0
1462.610, 105378.0
1463.651, 105319.0
1464.691, 105145.4
1465.732, 105068.0
1466.772, 104598.0
1467.812, 104455.0
1468.852, 104147.0
1469.892, 104091.0
1470.932, 104264.0
1471.971, 103780.0
1473.011, 104034.0
1474.050, 104252.0
1475.089, 104171.0
1476.128, 104251.3
1477.166, 104289.1
1478.205, 104153.0
1479.243, 104363.0
1480.282, 104382.0
1481.320, 104522.6
1482.357, 104401.0
1483.395, 104603.0
1484.433, 104653.0
1485.470, 104560.0
1486.507, 105028.0
1487.544, 104602.0
1488.581, 104693.0
1489.618, 104410.0
1490.655, 104707.0
1491.691, 104417.0
1492.727, 105148.0
1493.763, 104511.0
1494.799, 104880.0
1495.835, 104936.0
1496.871, 105144.0
1497.906, 104913.0
1498.941, 105180.0
1499.976, 105243.9
1501.011, 105155.0
1502.046, 105405.0
1503.081, 105790.0
1504.115, 105640.0
1505.149, 105958.0
1506.183, 105910.0
1507.217, 106002.0
1508.251, 105778.0
1509.285, 105886.0
1510.318, 106062.0
1511.352, 105818.0
1512.385, 105854.0
1513.418, 106380.0
1514.450, 106544.0
1515.483, 106472.0
1516.516, 106276.0
1517.548, 105987.0
1518.580, 106302.0
1519.612, 107341.0
1520.644, 107689.0
1521.675, 106948.0
1522.707, 107366.0
1523.738, 107229.0
1524.769, 107359.0
1525.800, 107116.0
1526.831, 106933.0
1527.862, 107370.0
1528.892, 107705.0
1529.923, 107152.0
1530.953, 107874.0
1531.983, 107642.0
1533.013, 107907.0
1534.042, 108115.0
1535.072, 108236.0
1536.101, 108329.0
1537.131, 108292.0
1538.160, 108823.0
1539.188, 108610.0
1540.217, 108243.0
1541.246, 108882.0
1542.274, 109221.0
1543.302, 108959.0
1544.330, 108906.0
1545.358, 109321.0
1546.386, 109593.0
1547.413, 110134.0
1548.441, 109777.0
1549.468, 110111.0
1550.495, 110190.0
1551.522, 110260.0
1552.549, 110170.0
1553.575, 110363.1
1554.602, 110415.0
1555.628, 110596.0
1556.654, 110651.0
1557.680, 110631.0
1558.706, 110722.9
1559.731, 111105.0
1560.757, 111125.0
1561.782, 111311.0
1562.807, 111657.0
1563.832, 111795.0
1564.857, 111991.0
1565.881, 111640.0
1566.906, 112140.0
1567.930, 111960.0
1568.954, 112455.0
1569.978, 112827.0
1571.002, 112721.0
1572.025, 112508.0
1573.049, 113317.0
1574.072, 113032.0
1575.095, 113313.0
1576.118, 113688.0
1577.141, 113903.0
1578.164, 113985.0
##END=



