##NAMES=Sodalite
##RRUFFID=R060405
##IDEAL CHEMISTRY=Na_4_Si_3_Al_3_O_12_Cl
##LOCALITY=Cerro Sapo, Cochabamba Department, Bolivia
##OWNER=RRUFF
##SOURCE=Marcus Origlieri
##DESCRIPTION=Blue massive associated with brown burbankite R050646
##STATUS=The identification of this mineral has been confirmed by X-ray diffraction and chemical analysis
##URL=rruff.info/R060405
##MEASURED CHEMISTRY=Na_8.00_Al_6.00_Si_6.00_O_24_Cl_2_
##PIN_ID=L01500
##ORIENTATION=Laser parallel to a* (1 0 0). Fiducial mark perpendicular to laser is parallel to c [0 0 1]
67.11500, 12472.00
68.35300, 12592.00
69.59000, 12944.00
70.82800, 12978.00
72.06500, 13947.00
73.30200, 14608.00
74.53900, 16057.00
75.77500, 15903.00
77.01200, 15304.00
78.24800, 16444.00
79.48400, 18504.00
80.72100, 19635.00
81.95600, 18510.00
83.19200, 16826.00
84.42800, 16936.00
85.66300, 16843.00
86.89900, 16316.00
88.13400, 14736.00
89.36900, 13775.00
90.60400, 12834.00
91.83800, 12087.00
93.07300, 11144.00
94.30700, 10600.00
95.54100, 10314.00
96.77500, 10190.00
98.00900, 10164.00
99.24300, 10304.00
100.4770, 10948.00
101.7100, 11801.00
102.9440, 13457.00
104.1770, 14803.00
105.4100, 15555.00
106.6430, 15848.00
107.8750, 15712.00
109.1080, 15590.00
110.3400, 15577.00
111.5720, 15520.00
112.8040, 15258.00
114.0360, 15277.00
115.2680, 15089.00
116.5000, 14419.00
117.7310, 13686.00
118.9620, 13010.00
120.1940, 12070.00
121.4250, 11724.00
122.6550, 11949.00
123.8860, 12273.00
125.1170, 11832.00
126.3470, 12028.00
127.5770, 12195.00
128.8070, 12476.00
130.0370, 12717.00
131.2670, 12731.00
132.4970, 12861.00
133.7260, 12644.00
134.9550, 12575.00
136.1850, 12502.00
137.4140, 12395.00
138.6420, 12573.00
139.8710, 12938.00
141.1000, 12990.00
142.3280, 13218.00
143.5560, 13348.00
144.7840, 13681.00
146.0120, 13813.00
147.2400, 14214.00
148.4680, 14295.00
149.6950, 14440.00
150.9220, 14546.00
152.1500, 14627.00
153.3770, 15181.00
154.6030, 16323.00
155.8300, 17476.00
157.0570, 18681.00
158.2830, 20816.00
159.5090, 22920.00
160.7350, 25340.00
161.9610, 27641.00
163.1870, 30047.00
164.4130, 31686.00
165.6380, 33223.00
166.8630, 33107.00
168.0880, 32452.00
169.3130, 30248.00
170.5380, 27866.00
171.7630, 25233.00
172.9870, 22477.00
174.2120, 20739.00
175.4360, 19364.00
176.6600, 18264.00
177.8840, 17575.00
179.1080, 16846.00
180.3310, 16148.00
181.5550, 15631.00
182.7780, 15015.64
184.0010, 14565.00
185.2240, 13890.00
186.4470, 13513.00
187.6700, 12812.00
188.8920, 12669.00
190.1150, 12154.00
191.3370, 11976.00
192.5590, 11752.00
193.7810, 11516.00
195.0020, 11287.00
196.2240, 11110.00
197.4450, 11111.00
198.6670, 10881.00
199.8880, 10696.00
201.1090, 10816.00
202.3300, 10616.00
203.5500, 10515.00
204.7710, 10398.00
205.9910, 10359.00
207.2110, 10403.00
208.4310, 10497.00
209.6510, 10558.00
210.8710, 10588.00
212.0910, 10511.00
213.3100, 10581.00
214.5290, 10577.00
215.7480, 10580.00
216.9670, 10621.00
218.1860, 10848.00
219.4050, 10974.00
220.6230, 11072.00
221.8420, 11209.00
223.0600, 11613.00
224.2780, 11894.00
225.4960, 12206.00
226.7130, 12539.00
227.9310, 12806.00
229.1480, 13273.00
230.3660, 13321.00
231.5830, 13975.00
232.8000, 14162.00
234.0160, 14319.00
235.2330, 14470.00
236.4490, 14621.00
237.6660, 14865.00
238.8820, 15029.00
240.0980, 15405.00
241.3140, 15930.00
242.5300, 16309.00
243.7450, 17318.00
244.9600, 18074.00
246.1760, 18986.00
247.3910, 20282.00
248.6060, 21796.00
249.8200, 23536.00
251.0350, 25604.00
252.2500, 28381.00
253.4640, 30870.00
254.6780, 33930.00
255.8920, 36895.00
257.1060, 39981.00
258.3190, 42354.00
259.5330, 44439.00
260.7460, 46378.00
261.9600, 47666.00
263.1730, 48255.00
264.3850, 48143.00
265.5980, 46819.00
266.8110, 45091.00
268.0230, 44033.00
269.2360, 40074.00
270.4480, 36662.00
271.6600, 33701.00
272.8710, 31226.00
274.0830, 29097.00
275.2950, 27176.00
276.5060, 25520.00
277.7170, 24212.00
278.9280, 23282.21
280.1390, 22729.00
281.3500, 22326.00
282.5600, 22300.00
283.7710, 22483.00
284.9810, 22832.00
286.1910, 23569.00
287.4010, 24725.00
288.6110, 25509.00
289.8200, 26773.00
291.0300, 27363.00
292.2390, 28006.00
293.4480, 28494.00
294.6570, 27787.00
295.8660, 26762.00
297.0750, 24915.00
298.2830, 23448.00
299.4920, 21120.00
300.7000, 19219.00
301.9080, 17430.00
303.1160, 16276.00
304.3240, 15133.00
305.5310, 14370.00
306.7390, 13853.00
307.9460, 13495.00
309.1530, 13331.00
310.3600, 12946.00
311.5670, 12819.00
312.7740, 12732.00
313.9800, 12758.00
315.1870, 12725.00
316.3930, 12674.00
317.5990, 12485.00
318.8050, 12512.86
320.0110, 12458.00
321.2160, 12544.00
322.4220, 12400.00
323.6270, 12554.00
324.8320, 12475.00
326.0370, 12324.00
327.2420, 12445.00
328.4460, 12491.00
329.6510, 12485.00
330.8550, 12535.00
332.0590, 12465.00
333.2630, 12382.00
334.4670, 12437.00
335.6710, 12313.00
336.8740, 12278.00
338.0780, 12490.00
339.2810, 12403.00
340.4840, 12423.00
341.6870, 12348.00
342.8900, 12331.33
344.0920, 12373.00
345.2950, 12288.00
346.4970, 12260.00
347.6990, 12234.00
348.9010, 12053.00
350.1030, 12049.00
351.3050, 12060.00
352.5060, 12110.00
353.7080, 12202.00
354.9090, 11997.00
356.1100, 12039.00
357.3110, 12170.00
358.5110, 12034.00
359.7120, 12158.00
360.9120, 12211.00
362.1130, 12092.00
363.3130, 12187.00
364.5130, 12245.00
365.7120, 12320.00
366.9120, 12335.00
368.1120, 12381.00
369.3110, 12477.00
370.5100, 12504.00
371.7090, 12304.00
372.9080, 12313.00
374.1070, 12132.00
375.3050, 12185.00
376.5040, 12073.00
377.7020, 11662.00
378.9000, 11797.00
380.0980, 11604.00
381.2950, 11913.00
382.4930, 11746.00
383.6910, 11694.00
384.8880, 11867.00
386.0850, 11766.00
387.2820, 11759.00
388.4790, 11747.00
389.6750, 11855.00
390.8720, 11839.86
392.0680, 11899.00
393.2640, 11902.00
394.4600, 11910.00
395.6560, 11956.00
396.8520, 12112.00
398.0480, 12134.00
399.2430, 12461.00
400.4380, 12549.00
401.6330, 12859.00
402.8280, 13314.00
404.0230, 13708.00
405.2180, 14014.00
406.4120, 14423.00
407.6060, 14527.00
408.8000, 14905.00
409.9940, 15139.00
411.1880, 14958.00
412.3820, 14881.00
413.5750, 14460.00
414.7690, 14172.00
415.9620, 14062.00
417.1550, 13792.00
418.3480, 13795.00
419.5410, 14023.00
420.7330, 14164.00
421.9260, 14274.00
423.1180, 14510.00
424.3100, 14666.00
425.5020, 14924.00
426.6940, 15279.00
427.8850, 15637.00
429.0770, 15941.00
430.2680, 16213.00
431.4590, 16452.00
432.6500, 17071.00
433.8410, 17339.00
435.0320, 17878.00
436.2220, 18105.00
437.4130, 18987.00
438.6030, 19733.00
439.7930, 20778.00
440.9830, 22034.00
442.1730, 24189.00
443.3620, 25153.00
444.5520, 27832.00
445.7410, 30306.00
446.9300, 33724.00
448.1190, 37956.00
449.3080, 42849.00
450.4960, 49679.00
451.6850, 58278.00
452.8730, 68284.00
454.0610, 81484.00
455.2490, 97559.00
456.4370, 115004.0
457.6250, 135630.0
458.8130, 157038.0
460.0000, 177459.0
461.1870, 194849.0
462.3740, 207087.0
463.5610, 212827.0
464.7480, 209707.0
465.9340, 197527.0
467.1210, 177748.0
468.3070, 152328.0
469.4930, 127058.0
470.6790, 104415.0
471.8650, 85696.00
473.0510, 71057.00
474.2360, 60038.00
475.4210, 51555.00
476.6070, 45074.00
477.7920, 40024.00
478.9770, 35855.00
480.1610, 32544.00
481.3460, 30187.00
482.5300, 28153.00
483.7140, 26436.00
484.8980, 25224.00
486.0820, 23830.00
487.2660, 22926.00
488.4500, 22264.00
489.6330, 21359.00
490.8160, 20907.00
492.0000, 20120.00
493.1830, 19873.00
494.3650, 19531.00
495.5480, 19083.00
496.7300, 18834.00
497.9130, 18421.00
499.0950, 17778.00
500.2770, 17252.00
501.4590, 16438.00
502.6410, 15804.00
503.8220, 15120.00
505.0030, 14746.00
506.1850, 14330.00
507.3660, 13976.00
508.5470, 13904.00
509.7270, 13625.00
510.9080, 13645.00
512.0880, 13332.00
513.2690, 13367.00
514.4490, 13342.00
515.6290, 13240.00
516.8090, 13182.00
517.9880, 13249.00
519.1680, 12974.00
520.3470, 13051.00
521.5260, 12892.00
522.7050, 12865.00
523.8840, 12537.00
525.0630, 12518.00
526.2410, 12663.00
527.4200, 12387.00
528.5980, 12426.00
529.7760, 12341.00
530.9540, 12085.00
532.1320, 11914.00
533.3090, 11974.00
534.4870, 11683.00
535.6640, 11649.00
536.8410, 11618.00
538.0180, 11510.00
539.1950, 11516.00
540.3710, 11349.00
541.5480, 11246.00
542.7240, 11214.00
543.9000, 11170.00
545.0760, 11218.00
546.2520, 11034.00
547.4280, 11007.38
548.6040, 11034.00
549.7790, 10853.00
550.9540, 10797.00
552.1290, 10783.00
553.3040, 10580.00
554.4790, 10485.00
555.6530, 10452.00
556.8280, 10306.00
558.0020, 10256.62
559.1760, 10231.00
560.3500, 10138.00
561.5240, 10106.00
562.6980, 10107.00
563.8710, 9898.000
565.0440, 9956.000
566.2170, 9871.000
567.3900, 9712.000
568.5630, 9597.000
569.7360, 9761.000
570.9090, 9787.000
572.0810, 9817.000
573.2530, 9660.000
574.4250, 9569.000
575.5970, 9715.000
576.7690, 9804.000
577.9400, 9674.000
579.1120, 9685.000
580.2830, 9617.000
581.4540, 9558.000
582.6250, 9685.000
583.7960, 9712.000
584.9660, 9644.000
586.1370, 9589.000
587.3070, 9588.000
588.4770, 9592.000
589.6470, 9558.000
590.8170, 9543.000
591.9870, 9695.000
593.1560, 9519.000
594.3260, 9634.000
595.4950, 9568.000
596.6640, 9512.000
597.8330, 9599.000
599.0010, 9686.000
600.1700, 9708.000
601.3380, 9749.000
602.5070, 9844.000
603.6750, 9870.000
604.8430, 10025.00
606.0100, 10117.00
607.1780, 10178.00
608.3450, 10062.00
609.5130, 10217.00
610.6800, 10054.00
611.8470, 9874.000
613.0140, 9828.000
614.1800, 9740.000
615.3470, 9717.000
616.5130, 9690.000
617.6790, 9519.000
618.8450, 9655.000
620.0110, 9567.000
621.1770, 9562.000
622.3420, 9412.000
623.5080, 9553.000
624.6730, 9516.000
625.8380, 9483.000
627.0030, 9554.000
628.1680, 9530.000
629.3320, 9517.526
630.4970, 9531.044
631.6610, 9487.000
632.8250, 9474.000
633.9890, 9495.000
635.1530, 9386.000
636.3160, 9455.000
637.4800, 9509.000
638.6430, 9487.000
639.8060, 9605.000
640.9690, 9604.000
642.1320, 9532.000
643.2950, 9648.000
644.4570, 9566.000
645.6200, 9673.000
646.7820, 9651.903
647.9440, 9705.186
649.1060, 9638.000
650.2670, 9774.000
651.4290, 9790.000
652.5900, 9702.000
653.7520, 9767.000
654.9130, 9822.000
656.0740, 9776.000
657.2340, 9818.000
658.3950, 9965.000
659.5550, 9804.000
660.7160, 9893.000
661.8760, 9920.000
663.0360, 9785.000
664.1960, 10094.00
665.3550, 10137.00
666.5150, 10250.00
667.6740, 9983.000
668.8330, 10011.00
669.9920, 10050.00
671.1510, 10175.00
672.3100, 10183.00
673.4680, 10192.00
674.6270, 10221.00
675.7850, 10027.00
676.9430, 10131.00
678.1010, 10154.00
679.2590, 10205.00
680.4160, 10314.00
681.5740, 10250.00
682.7310, 10366.00
683.8880, 10296.00
685.0450, 10257.00
686.2020, 10300.00
687.3580, 10318.00
688.5150, 10413.00
689.6710, 10445.00
690.8270, 10562.00
691.9830, 10650.00
693.1390, 10828.00
694.2950, 10907.00
695.4500, 10945.00
696.6050, 11253.00
697.7610, 11203.59
698.9160, 11372.00
700.0710, 11201.00
701.2250, 11135.00
702.3800, 11010.00
703.5340, 10984.00
704.6880, 11038.00
705.8420, 10993.00
706.9960, 10891.00
708.1500, 11037.00
709.3040, 11048.00
710.4570, 11006.00
711.6100, 11144.00
712.7640, 11284.00
713.9160, 11401.00
715.0690, 11342.00
716.2220, 11340.00
717.3740, 11268.00
718.5270, 11182.00
719.6790, 11214.00
720.8310, 11147.00
721.9830, 11262.00
723.1340, 11152.00
724.2860, 11190.00
725.4370, 11330.00
726.5880, 11465.00
727.7390, 11798.00
728.8900, 12077.00
730.0410, 12246.00
731.1910, 12562.00
732.3420, 12742.00
733.4920, 12714.00
734.6420, 12908.00
735.7920, 12687.00
736.9420, 12431.00
738.0910, 12078.00
739.2410, 11827.00
740.3900, 11492.00
741.5390, 11208.00
742.6880, 11091.00
743.8370, 10959.00
744.9860, 10690.00
746.1340, 10627.00
747.2820, 10403.00
748.4310, 10446.00
749.5790, 10154.00
750.7260, 10198.00
751.8740, 10029.00
753.0220, 9997.000
754.1690, 9865.000
755.3160, 9734.000
756.4630, 9691.000
757.6100, 9658.508
758.7570, 9805.000
759.9030, 9714.000
761.0500, 9793.000
762.1960, 9890.000
763.3420, 9761.000
764.4880, 9606.000
765.6340, 9622.000
766.7790, 9619.000
767.9250, 9594.000
769.0700, 9618.000
770.2150, 9580.000
771.3600, 9552.000
772.5050, 9510.000
773.6490, 9477.000
774.7940, 9624.000
775.9380, 9422.000
777.0820, 9459.000
778.2260, 9634.000
779.3700, 9578.000
780.5140, 9638.000
781.6570, 9480.000
782.8010, 9512.000
783.9440, 9490.000
785.0870, 9542.000
786.2300, 9459.000
787.3720, 9495.000
788.5150, 9440.000
789.6570, 9491.000
790.8000, 9459.684
791.9420, 9402.841
793.0840, 9488.000
794.2250, 9303.000
795.3670, 9447.000
796.5080, 9482.000
797.6500, 9362.000
798.7910, 9394.000
799.9320, 9316.000
801.0720, 9461.000
802.2130, 9221.000
803.3530, 9413.000
804.4940, 9363.000
805.6340, 9361.000
806.7740, 9372.000
807.9140, 9294.000
809.0530, 9373.000
810.1930, 9360.703
811.3320, 9363.000
812.4710, 9397.000
813.6100, 9325.000
814.7490, 9308.000
815.8880, 9403.000
817.0270, 9300.000
818.1650, 9384.000
819.3030, 9424.000
820.4410, 9288.000
821.5790, 9497.000
822.7170, 9515.619
823.8540, 9413.792
824.9920, 9659.000
826.1290, 9332.000
827.2660, 9215.000
828.4030, 9411.000
829.5400, 9392.000
830.6760, 9414.000
831.8130, 9472.000
832.9490, 9397.000
834.0850, 9402.000
835.2210, 9500.000
836.3570, 9484.000
837.4930, 9513.000
838.6280, 9480.000
839.7640, 9520.041
840.8990, 9506.000
842.0340, 9579.000
843.1690, 9632.000
844.3030, 9645.919
845.4380, 9488.000
846.5720, 9666.000
847.7060, 9519.000
848.8400, 9574.000
849.9740, 9698.000
851.1080, 9754.000
852.2420, 9803.000
853.3750, 9848.213
854.5080, 9882.546
855.6410, 9873.000
856.7740, 9941.000
857.9070, 9931.000
859.0400, 9959.000
860.1720, 9898.000
861.3040, 9850.000
862.4360, 9907.000
863.5680, 9881.876
864.7000, 10051.00
865.8320, 9943.000
866.9630, 10039.00
868.0950, 10117.00
869.2260, 10129.00
870.3570, 10092.00
871.4880, 10159.00
872.6180, 10151.00
873.7490, 10127.00
874.8790, 10194.00
876.0090, 10113.00
877.1390, 10069.00
878.2690, 10213.00
879.3990, 10255.00
880.5280, 10025.00
881.6580, 10062.00
882.7870, 10073.00
883.9160, 10083.00
885.0450, 9827.000
886.1740, 9848.000
887.3020, 9837.000
888.4310, 9955.000
889.5590, 9968.000
890.6870, 9904.786
891.8150, 9829.000
892.9430, 9762.000
894.0700, 9727.000
895.1980, 9705.000
896.3250, 9561.000
897.4520, 9832.000
898.5790, 9672.000
899.7060, 9858.000
900.8330, 9707.000
901.9590, 9832.000
903.0850, 9737.000
904.2120, 9803.000
905.3380, 9963.000
906.4630, 9757.000
907.5890, 9824.000
908.7150, 9935.000
909.8400, 9969.000
910.9650, 10007.00
912.0900, 10019.00
913.2150, 9897.000
914.3400, 10020.00
915.4640, 10064.00
916.5890, 10032.00
917.7130, 10163.00
918.8370, 10030.00
919.9610, 10135.00
921.0850, 10147.00
922.2080, 10110.00
923.3320, 10099.00
924.4550, 10218.00
925.5780, 10287.00
926.7010, 10201.00
927.8240, 10352.00
928.9460, 10247.00
930.0690, 10325.00
931.1910, 10346.00
932.3130, 10386.00
933.4350, 10416.00
934.5570, 10416.00
935.6790, 10489.00
936.8000, 10498.90
937.9220, 10574.07
939.0430, 10597.00
940.1640, 10703.00
941.2850, 10848.00
942.4050, 10867.00
943.5260, 11035.00
944.6460, 11043.00
945.7660, 11072.00
946.8860, 11099.00
948.0060, 11151.00
949.1260, 11307.00
950.2460, 11465.00
951.3650, 11531.00
952.4840, 11839.00
953.6030, 11996.00
954.7220, 12553.00
955.8410, 12900.00
956.9590, 13478.00
958.0780, 14119.00
959.1960, 15166.00
960.3140, 15874.00
961.4320, 17126.00
962.5500, 18139.00
963.6680, 19366.00
964.7850, 20280.00
965.9020, 21263.00
967.0190, 21649.00
968.1360, 21839.00
969.2530, 22041.00
970.3700, 22171.00
971.4860, 22336.00
972.6030, 22530.00
973.7190, 22502.00
974.8350, 23195.00
975.9510, 24070.00
977.0660, 26173.00
978.1820, 29151.00
979.2970, 33927.00
980.4130, 40113.00
981.5280, 48076.00
982.6420, 57004.00
983.7570, 67096.00
984.8720, 74827.00
985.9860, 79180.00
987.1000, 77753.00
988.2140, 70517.00
989.3280, 59351.00
990.4420, 47584.00
991.5560, 37402.00
992.6690, 29819.00
993.7820, 24873.00
994.8950, 21682.00
996.0080, 19386.00
997.1210, 17777.00
998.2340, 16575.00
999.3460, 15777.00
1000.458, 15231.00
1001.571, 14761.00
1002.683, 14360.00
1003.794, 14194.00
1004.906, 13923.00
1006.017, 13806.00
1007.129, 13941.00
1008.240, 13904.00
1009.351, 14042.00
1010.462, 14266.00
1011.572, 14323.00
1012.683, 13850.00
1013.793, 13704.00
1014.904, 13194.00
1016.014, 12720.00
1017.123, 12452.00
1018.233, 11961.00
1019.343, 11876.00
1020.452, 11669.00
1021.561, 11562.00
1022.670, 11375.00
1023.779, 11229.00
1024.888, 11308.00
1025.997, 11205.00
1027.105, 11456.00
1028.213, 11300.00
1029.321, 11413.00
1030.429, 11377.00
1031.537, 11502.00
1032.645, 11642.00
1033.752, 11614.00
1034.859, 11588.00
1035.966, 11751.00
1037.073, 11639.00
1038.180, 11779.00
1039.287, 11953.00
1040.393, 12319.00
1041.500, 12536.00
1042.606, 12709.00
1043.712, 13173.00
1044.818, 13593.00
1045.923, 13856.00
1047.029, 14479.00
1048.134, 14955.00
1049.239, 15760.00
1050.344, 16501.00
1051.449, 17486.00
1052.554, 18546.00
1053.658, 19927.00
1054.763, 21057.00
1055.867, 22266.00
1056.971, 23275.00
1058.075, 23666.00
1059.179, 24266.00
1060.282, 24357.00
1061.385, 24145.00
1062.489, 23910.00
1063.592, 23521.00
1064.695, 23310.00
1065.797, 22850.00
1066.900, 22666.00
1068.002, 22447.00
1069.105, 22658.00
1070.207, 22899.00
1071.309, 23532.00
1072.411, 24522.00
1073.512, 25147.00
1074.614, 25502.00
1075.715, 24783.00
1076.816, 22911.00
1077.917, 20665.00
1079.018, 18578.00
1080.118, 16368.00
1081.219, 14980.00
1082.319, 14131.00
1083.419, 13522.00
1084.519, 13050.00
1085.619, 12873.00
1086.719, 12588.00
1087.818, 12465.00
1088.918, 12176.00
1090.017, 12279.00
1091.116, 12300.00
1092.215, 12130.00
1093.314, 12012.00
1094.412, 12138.00
1095.510, 12098.00
1096.609, 12040.00
1097.707, 12081.00
1098.805, 12074.00
1099.902, 11918.00
1101.000, 11828.00
1102.097, 11907.00
1103.195, 11757.00
1104.292, 11782.00
1105.389, 11683.00
1106.485, 11714.00
1107.582, 11743.00
1108.678, 11770.00
1109.775, 11669.00
1110.871, 11800.00
1111.967, 11842.00
1113.062, 11564.00
1114.158, 11744.00
1115.254, 11807.00
1116.349, 11638.00
1117.444, 11626.00
1118.539, 11583.00
1119.634, 11584.00
1120.728, 11645.00
1121.823, 11707.00
1122.917, 11659.00
1124.011, 11625.00
1125.105, 11660.00
1126.199, 11616.69
1127.293, 11640.00
1128.386, 11598.00
1129.480, 11716.00
1130.573, 11739.00
1131.666, 11655.00
1132.759, 11688.16
1133.851, 11835.00
1134.944, 11606.00
1136.036, 11680.00
1137.129, 11630.00
1138.221, 11487.00
1139.313, 11643.00
1140.404, 11555.00
1141.496, 11697.00
1142.587, 11645.50
1143.678, 11969.00
1144.770, 11630.00
1145.860, 11651.00
1146.951, 11800.00
1148.042, 11500.00
1149.132, 11788.00
1150.223, 11657.00
1151.313, 11733.00
1152.403, 11573.00
1153.492, 11585.00
1154.582, 11647.00
1155.671, 11664.00
1156.761, 11615.00
1157.850, 11549.00
1158.939, 11693.00
1160.028, 11535.00
1161.116, 11530.00
1162.205, 11630.00
1163.293, 11542.00
1164.381, 11444.00
1165.469, 11534.00
1166.557, 11292.00
1167.645, 11409.78
1168.732, 11629.00
1169.820, 11493.00
1170.907, 11506.00
1171.994, 11460.00
1173.081, 11378.00
1174.167, 11376.00
1175.254, 11453.00
1176.340, 11318.00
1177.426, 11362.00
1178.512, 11294.00
1179.598, 11462.00
1180.684, 11274.00
1181.770, 11413.00
1182.855, 11260.00
1183.940, 11327.00
1185.025, 11166.00
1186.110, 11196.00
1187.195, 11207.00
1188.280, 11170.93
1189.364, 11168.75
1190.448, 11199.00
1191.532, 11154.00
1192.616, 11171.00
1193.700, 11254.00
1194.784, 11217.00
1195.867, 11116.00
1196.950, 11175.00
1198.034, 11106.00
1199.117, 11195.00
1200.199, 11265.00
1201.282, 11134.00
1202.364, 11187.00
1203.447, 11347.00
1204.529, 11118.00
1205.611, 11264.00
1206.693, 11195.00
1207.774, 11206.00
1208.856, 11181.00
1209.937, 11205.00
1211.018, 11153.00
1212.099, 11177.60
1213.180, 11253.00
1214.261, 11189.00
1215.341, 11203.00
1216.422, 11178.00
1217.502, 11199.00
1218.582, 11216.00
1219.662, 11228.00
1220.742, 11191.00
1221.821, 11288.00
1222.900, 11192.00
1223.980, 11086.00
1225.059, 11183.00
1226.138, 11218.00
1227.216, 11214.00
1228.295, 11471.00
1229.373, 11328.00
1230.452, 11399.00
1231.530, 11240.00
1232.608, 11203.00
1233.685, 11196.00
1234.763, 11053.00
1235.840, 11078.53
1236.918, 11039.02
1237.995, 11082.00
1239.072, 11037.00
1240.149, 11089.00
1241.225, 11129.00
1242.302, 11004.00
1243.378, 11106.00
1244.454, 11021.00
1245.530, 11120.00
1246.606, 10988.00
1247.681, 11094.00
1248.757, 11054.00
1249.832, 11022.00
1250.907, 10954.00
1251.982, 10978.00
1253.057, 10970.00
1254.132, 11004.00
1255.206, 11085.00
1256.281, 10983.00
1257.355, 11135.00
1258.429, 11174.00
1259.503, 11065.00
1260.576, 11163.00
1261.650, 11016.00
1262.723, 11021.00
1263.797, 10959.00
1264.870, 11005.00
1265.942, 10974.99
1267.015, 11087.00
1268.088, 10928.00
1269.160, 10949.00
1270.232, 10863.00
1271.304, 11024.00
1272.376, 10889.00
1273.448, 10973.00
1274.520, 11101.00
1275.591, 11019.00
1276.662, 11002.00
1277.733, 10891.00
1278.804, 10948.00
1279.875, 10900.00
1280.946, 11036.00
1282.016, 11112.00
1283.086, 11105.00
1284.156, 11118.47
1285.226, 11018.00
1286.296, 11075.00
1287.366, 10988.00
1288.435, 11063.00
1289.505, 11024.00
1290.574, 10892.00
1291.643, 11120.00
1292.711, 10994.00
1293.780, 11097.00
1294.849, 11070.00
1295.917, 11077.00
1296.985, 11034.00
1298.053, 10992.00
1299.121, 11021.25
1300.189, 10953.00
1301.256, 11026.00
1302.323, 11073.00
1303.391, 10993.00
1304.458, 11031.00
1305.524, 10889.00
1306.591, 11041.00
1307.658, 10920.00
1308.724, 10975.00
1309.790, 11012.00
1310.856, 11137.00
1311.922, 10956.00
1312.988, 10881.00
1314.053, 10930.00
1315.119, 10961.00
1316.184, 11047.00
1317.249, 11001.00
1318.314, 11027.00
1319.379, 11078.00
1320.443, 11042.00
1321.508, 10946.00
1322.572, 11037.00
1323.636, 11161.00
1324.700, 10934.00
1325.764, 10993.00
1326.827, 11292.00
1327.891, 11537.00
1328.954, 11149.00
1330.017, 11031.00
1331.080, 11058.00
1332.143, 11051.00
1333.205, 11126.00
1334.268, 11169.00
1335.330, 11238.00
1336.392, 11166.00
1337.454, 11229.00
1338.516, 11158.00
1339.578, 11194.00
1340.639, 11244.00
1341.701, 11168.00
1342.762, 11164.00
1343.823, 11343.00
1344.883, 11230.00
1345.944, 11241.00
1347.005, 11352.00
1348.065, 11334.00
1349.125, 11276.00
1350.185, 11317.00
1351.245, 11347.00
1352.305, 11266.00
1353.364, 11375.00
1354.424, 11392.00
1355.483, 11282.00
1356.542, 11372.00
1357.601, 11432.00
1358.659, 11270.00
1359.718, 11422.00
1360.776, 11432.00
1361.834, 11344.00
1362.893, 11327.00
1363.950, 11315.00
1365.008, 11320.60
1366.066, 11377.00
1367.123, 11391.00
1368.180, 11412.74
1369.237, 11471.69
1370.294, 11472.00
1371.351, 11552.00
1372.408, 11634.00
1373.464, 11620.00
1374.520, 11703.40
1375.576, 11599.00
1376.632, 11759.00
1377.688, 11782.00
1378.744, 11718.00
1379.799, 11823.00
1380.854, 11689.00
1381.910, 11844.00
1382.965, 11896.00
1384.019, 11899.00
1385.074, 12074.00
1386.128, 11989.00
1387.183, 11991.00
1388.237, 12048.00
1389.291, 11926.00
1390.345, 12041.00
1391.398, 12066.00
1392.452, 11823.00
1393.505, 12025.00
1394.558, 12001.00
1395.611, 11984.00
1396.664, 12026.00
1397.717, 11995.00
1398.769, 11858.00
1399.822, 12055.00
1400.874, 12040.00
1401.926, 11961.00
1402.978, 12115.00
1404.029, 11973.00
1405.081, 11942.00
1406.132, 12178.00
1407.183, 11999.00
1408.234, 12022.00
1409.285, 12087.00
1410.336, 12235.00
1411.387, 12039.00
1412.437, 12026.00
1413.487, 12297.00
1414.537, 12103.00
1415.587, 12062.00
1416.637, 12074.00
1417.686, 12181.00
1418.736, 12155.00
1419.785, 12214.00
1420.834, 12172.00
1421.883, 12297.00
1422.932, 12166.00
1423.980, 12148.00
1425.029, 12298.00
1426.077, 12448.00
1427.125, 12442.00
1428.173, 12382.00
1429.221, 12364.00
1430.269, 12387.09
1431.316, 12418.00
1432.363, 12442.00
1433.410, 12537.00
1434.457, 12554.00
1435.504, 12548.00
1436.551, 12748.00
1437.597, 12767.00
1438.644, 12738.00
1439.690, 12790.00
1440.736, 12792.00
1441.781, 12733.00
1442.827, 12725.00
1443.873, 12839.00
1444.918, 12850.00
1445.963, 12908.00
1447.008, 12875.23
1448.053, 12779.00
1449.098, 12763.00
1450.142, 12753.00
1451.186, 12697.00
1452.231, 12756.00
1453.275, 12653.00
1454.319, 12684.00
1455.362, 12602.00
1456.406, 12700.00
1457.449, 12619.00
1458.492, 12833.00
1459.535, 12562.00
1460.578, 12529.00
1461.621, 12758.00
1462.663, 12581.00
1463.706, 12439.00
1464.748, 12543.00
1465.790, 12653.00
1466.832, 12553.00
1467.874, 12532.00
1468.915, 12595.00
1469.957, 12481.00
1470.998, 12365.00
1472.039, 12384.00
1473.080, 12340.19
1474.121, 12326.00
1475.161, 12347.00
1476.202, 12428.00
1477.242, 12389.00
1478.282, 12395.00
1479.322, 12328.00
1480.362, 12314.00
1481.401, 12336.35
1482.441, 12285.00
1483.480, 12367.00
1484.519, 12313.00
1485.558, 12263.00
1486.597, 12240.00
1487.636, 12139.00
1488.674, 12280.00
1489.712, 12090.00
1490.751, 12051.00
1491.788, 12046.00
1492.826, 12188.00
1493.864, 12054.00
1494.901, 12141.00
1495.939, 12014.00
1496.976, 11942.00
1498.013, 12235.00
1499.050, 12077.00
1500.086, 12096.00
1501.123, 11996.00
1502.159, 12061.00
1503.195, 12162.00
1504.231, 12189.00
1505.267, 12131.00
1506.303, 12258.00
1507.338, 12136.00
1508.374, 12072.00
1509.409, 12039.00
1510.444, 11938.00
1511.479, 11937.00
1512.514, 11954.00
1513.548, 11952.00
1514.583, 12162.00
1515.617, 12073.00
1516.651, 12114.00
1517.685, 11929.00
1518.718, 12040.00
1519.752, 12002.00
1520.785, 11807.00
1521.819, 11883.00
1522.852, 11836.84
1523.885, 11904.00
1524.917, 11911.00
1525.950, 11914.00
1526.982, 12020.00
1528.015, 12043.00
1529.047, 11863.00
1530.079, 11891.00
1531.110, 11919.00
1532.142, 11956.00
1533.173, 11997.00
1534.205, 11973.76
1535.236, 11894.00
1536.267, 11933.00
1537.298, 11927.00
1538.328, 11934.00
1539.359, 11942.00
1540.389, 11959.00
1541.419, 11938.00
1542.449, 11959.00
1543.479, 11952.00
1544.508, 12012.00
1545.538, 12086.00
1546.567, 12051.00
1547.596, 12113.00
1548.625, 11962.00
1549.654, 12193.00
1550.683, 12130.00
1551.711, 12204.00
1552.740, 12366.00
1553.768, 12251.00
1554.796, 12546.00
1555.824, 12360.00
1556.851, 11931.00
1557.879, 12068.00
1558.906, 11910.00
1559.933, 12131.00
1560.960, 12647.00
1561.987, 12762.00
1563.014, 12867.00
1564.041, 12259.00
1565.067, 11929.00
1566.093, 11822.00
1567.119, 11961.00
1568.145, 11684.00
1569.171, 11964.00
1570.196, 11993.00
1571.222, 11993.00
1572.247, 11756.00
1573.272, 11917.00
1574.297, 11853.00
1575.322, 11936.00
1576.346, 11831.00
1577.371, 11965.00
1578.395, 11923.00
##END=



