##NAMES=Sodalite
##RRUFFID=R060355
##IDEAL CHEMISTRY=Na_4_Si_3_Al_3_O_12_Cl
##LOCALITY=Mont Saint-Hilaire, Quebec, Canada
##OWNER=RRUFF
##SOURCE=Herb Obodda
##DESCRIPTION=Clear colorless fragment
##STATUS=The identification of this mineral has been confirmed by X-ray diffraction and chemical analysis
##URL=rruff.info/R060355
##MEASURED CHEMISTRY=(Na_0.98_[box]_0.02_)_8_Al_6.00_(Si_0.99_Al_0.01_)_6_O_24_Cl_1.82_
##PIN_ID=L00616
##ORIENTATION=Laser parallel to a* (1 0 0). Fiducial mark perpendicular to laser is parallel to -c [0 0 -1]
125.3850, 34119.00
126.6170, 34540.00
127.8490, 34671.00
129.0810, 34769.00
130.3130, 35194.00
131.5450, 35173.00
132.7770, 34961.00
134.0080, 34861.00
135.2390, 34677.00
136.4710, 34877.00
137.7020, 34920.00
138.9320, 35548.00
140.1630, 35297.00
141.3930, 35284.47
142.6240, 35134.00
143.8540, 34997.00
145.0840, 35349.00
146.3140, 35597.00
147.5440, 35649.00
148.7730, 35408.00
150.0020, 35404.00
151.2320, 35664.00
152.4610, 35694.00
153.6900, 35676.00
154.9180, 35780.00
156.1470, 35910.00
157.3750, 36543.00
158.6040, 37131.00
159.8320, 38539.00
161.0600, 39186.00
162.2870, 40510.00
163.5150, 41555.00
164.7420, 41672.00
165.9700, 42021.00
167.1970, 41367.00
168.4240, 40706.00
169.6510, 39534.00
170.8770, 38585.00
172.1040, 37772.00
173.3300, 37610.00
174.5560, 37373.00
175.7820, 37755.00
177.0080, 37241.58
178.2340, 36659.00
179.4590, 36654.00
180.6850, 36124.00
181.9100, 36031.00
183.1350, 35785.00
184.3600, 35870.00
185.5850, 35591.00
186.8090, 35331.00
188.0340, 35487.00
189.2580, 35360.09
190.4820, 35563.00
191.7060, 35543.00
192.9300, 35617.00
194.1530, 35887.00
195.3770, 35614.00
196.6000, 35915.00
197.8230, 35958.00
199.0460, 36022.00
200.2690, 35744.00
201.4910, 36119.00
202.7140, 36134.00
203.9360, 36054.00
205.1580, 36256.00
206.3800, 36215.00
207.6020, 36007.00
208.8240, 36002.00
210.0450, 36244.00
211.2670, 36128.00
212.4880, 36161.00
213.7090, 36334.00
214.9300, 36063.00
216.1510, 36125.00
217.3710, 36151.00
218.5920, 35989.00
219.8120, 36333.00
221.0320, 36532.00
222.2520, 36629.00
223.4720, 36552.00
224.6910, 36591.00
225.9110, 36925.00
227.1300, 37116.00
228.3490, 37301.00
229.5680, 37495.00
230.7870, 37565.00
232.0050, 37765.40
233.2240, 38083.00
234.4420, 37987.00
235.6600, 38096.00
236.8780, 37999.00
238.0960, 38207.00
239.3140, 38490.00
240.5310, 38762.00
241.7490, 38736.00
242.9660, 39085.00
244.1830, 39335.00
245.4000, 39709.00
246.6160, 39861.00
247.8330, 40460.00
249.0490, 41153.00
250.2660, 41720.00
251.4820, 42688.00
252.6980, 43839.00
253.9130, 44814.00
255.1290, 46397.00
256.3440, 47750.00
257.5600, 48966.00
258.7750, 50320.00
259.9900, 51147.00
261.2040, 52171.00
262.4190, 52634.00
263.6330, 52591.00
264.8480, 52237.00
266.0620, 51376.00
267.2760, 50022.00
268.4900, 48721.00
269.7030, 47697.00
270.9170, 46506.00
272.1300, 45180.00
273.3430, 44289.00
274.5560, 43476.00
275.7690, 42999.00
276.9820, 42092.00
278.1940, 41691.00
279.4070, 41273.00
280.6190, 40970.00
281.8310, 40796.00
283.0430, 40878.00
284.2550, 40750.00
285.4660, 41024.00
286.6770, 41202.00
287.8890, 41411.00
289.1000, 41844.00
290.3110, 42386.00
291.5210, 43001.00
292.7320, 43099.00
293.9420, 43163.19
295.1530, 42884.67
296.3630, 42588.00
297.5730, 41818.00
298.7830, 40987.00
299.9920, 40331.00
301.2020, 39531.00
302.4110, 39492.00
303.6200, 38900.00
304.8290, 38902.00
306.0380, 38538.00
307.2470, 38554.00
308.4550, 38318.00
309.6630, 38381.00
310.8720, 38357.00
312.0800, 38425.00
313.2880, 38278.00
314.4950, 38299.22
315.7030, 38165.00
316.9100, 38229.00
318.1170, 38239.00
319.3240, 38201.00
320.5310, 38278.00
321.7380, 38263.00
322.9450, 38390.00
324.1510, 38417.00
325.3570, 38265.00
326.5630, 38184.00
327.7690, 38217.00
328.9750, 38374.00
330.1810, 38222.00
331.3860, 38542.00
332.5910, 39228.00
333.7960, 39052.00
335.0010, 38810.00
336.2060, 38823.00
337.4110, 38480.00
338.6150, 38333.00
339.8200, 38693.00
341.0240, 38648.00
342.2280, 38463.00
343.4320, 38312.00
344.6350, 38690.00
345.8390, 38813.00
347.0420, 38805.00
348.2450, 38688.00
349.4480, 38839.00
350.6510, 39067.00
351.8540, 39053.00
353.0560, 39034.00
354.2590, 38954.00
355.4610, 39045.00
356.6630, 38863.00
357.8650, 39081.00
359.0670, 38975.00
360.2680, 39204.00
361.4700, 39190.00
362.6710, 39320.00
363.8720, 39360.00
365.0730, 39381.98
366.2740, 39399.47
367.4740, 39380.00
368.6750, 39425.00
369.8750, 39323.00
371.0750, 39478.00
372.2750, 39724.00
373.4750, 39574.00
374.6740, 39808.00
375.8740, 39511.00
377.0730, 39416.00
378.2720, 39818.00
379.4710, 39609.00
380.6700, 39811.00
381.8690, 39752.00
383.0670, 40125.00
384.2660, 39830.00
385.4640, 40116.00
386.6620, 40071.00
387.8600, 39894.00
389.0570, 40433.00
390.2550, 40435.00
391.4520, 40437.00
392.6490, 40617.00
393.8460, 40869.00
395.0430, 40725.00
396.2400, 40796.00
397.4370, 40769.00
398.6330, 41153.00
399.8290, 41320.00
401.0250, 41515.00
402.2210, 41690.00
403.4170, 42069.00
404.6130, 42143.00
405.8080, 42626.00
407.0030, 42950.00
408.1980, 43108.00
409.3930, 43562.00
410.5880, 43194.00
411.7830, 42978.00
412.9770, 42510.00
414.1720, 42537.00
415.3660, 42276.00
416.5600, 42559.00
417.7530, 42598.00
418.9470, 42670.00
420.1410, 42607.00
421.3340, 42480.00
422.5270, 42672.00
423.7200, 42888.00
424.9130, 42832.00
426.1060, 42994.00
427.2980, 43101.00
428.4900, 43422.00
429.6830, 43838.00
430.8750, 44085.00
432.0670, 44280.03
433.2580, 44512.00
434.4500, 44579.00
435.6410, 44747.00
436.8320, 44956.00
438.0240, 45177.00
439.2140, 45457.00
440.4050, 45925.00
441.5960, 46380.96
442.7860, 47054.00
443.9760, 47725.00
445.1670, 48652.00
446.3560, 49802.00
447.5460, 50956.00
448.7360, 52701.00
449.9250, 54364.00
451.1150, 56846.00
452.3040, 59616.00
453.4930, 63752.00
454.6810, 68796.00
455.8700, 75174.00
457.0590, 83108.00
458.2470, 93759.00
459.4350, 105425.0
460.6230, 118367.0
461.8110, 127978.0
462.9980, 132784.0
464.1860, 130724.0
465.3730, 122488.0
466.5600, 110697.0
467.7470, 98668.00
468.9340, 87913.00
470.1210, 79163.00
471.3080, 71985.00
472.4940, 67083.00
473.6800, 63160.00
474.8660, 60077.00
476.0520, 57568.00
477.2380, 56025.00
478.4230, 54755.00
479.6090, 53219.00
480.7940, 52028.00
481.9790, 51219.00
483.1640, 50738.00
484.3490, 50203.00
485.5330, 49894.00
486.7180, 49399.00
487.9020, 49124.00
489.0860, 49001.00
490.2700, 48686.00
491.4540, 48373.00
492.6370, 48619.00
493.8210, 48478.00
495.0040, 48252.00
496.1870, 48484.00
497.3700, 48356.00
498.5530, 48123.00
499.7360, 47955.00
500.9180, 47807.00
502.1000, 47209.00
503.2830, 46604.00
504.4650, 46859.00
505.6460, 46853.00
506.8280, 46942.00
508.0100, 46617.00
509.1910, 46609.00
510.3720, 46747.77
511.5530, 46739.23
512.7340, 46989.00
513.9150, 47095.00
515.0950, 46969.00
516.2760, 47237.00
517.4560, 47488.00
518.6360, 46812.00
519.8160, 47139.00
520.9950, 46821.00
522.1750, 47113.00
523.3540, 47184.00
524.5340, 47030.00
525.7130, 47107.00
526.8920, 46916.00
528.0700, 47051.00
529.2490, 47158.00
530.4270, 47226.00
531.6060, 46973.00
532.7840, 47048.00
533.9620, 46816.00
535.1390, 47118.00
536.3170, 47117.00
537.4940, 46956.00
538.6720, 46964.00
539.8490, 47177.00
541.0260, 47306.00
542.2030, 47202.00
543.3790, 46982.00
544.5560, 46992.00
545.7320, 47069.57
546.9080, 47134.00
548.0840, 47365.54
549.2600, 47371.79
550.4360, 47448.00
551.6110, 47349.00
552.7860, 47483.00
553.9620, 47538.00
555.1370, 47456.00
556.3110, 47713.00
557.4860, 47516.00
558.6610, 47708.00
559.8350, 47788.00
561.0090, 47800.00
562.1830, 47733.00
563.3570, 47589.00
564.5310, 47865.00
565.7040, 47624.00
566.8780, 47752.00
568.0510, 47891.00
569.2240, 47629.00
570.3970, 47897.00
571.5700, 47869.00
572.7420, 48323.00
573.9150, 47962.00
575.0870, 48110.00
576.2590, 48047.00
577.4310, 48183.00
578.6030, 48539.00
579.7740, 48406.00
580.9460, 48449.00
582.1170, 48745.00
583.2880, 48439.00
584.4590, 48358.00
585.6300, 48636.00
586.8010, 48766.00
587.9710, 48918.00
589.1410, 49141.00
590.3110, 49103.00
591.4810, 48973.00
592.6510, 49246.00
593.8210, 49245.00
594.9900, 49536.00
596.1600, 49557.00
597.3290, 49417.00
598.4980, 49666.00
599.6670, 49407.00
600.8350, 49515.00
602.0040, 49498.00
603.1720, 49961.00
604.3400, 50140.00
605.5080, 50203.00
606.6760, 50027.00
607.8440, 50149.00
609.0120, 50185.91
610.1790, 50238.00
611.3460, 50415.00
612.5130, 50386.00
613.6800, 50576.00
614.8470, 50836.00
616.0130, 50675.00
617.1800, 50763.00
618.3460, 51131.00
619.5120, 51129.00
620.6780, 51364.00
621.8440, 51232.00
623.0090, 51439.00
624.1750, 51504.00
625.3400, 51352.00
626.5050, 51726.00
627.6700, 51443.00
628.8350, 51545.00
629.9990, 51277.00
631.1640, 51475.00
632.3280, 51596.00
633.4920, 51317.00
634.6560, 51239.00
635.8200, 51270.00
636.9840, 51402.00
638.1470, 51308.00
639.3100, 51383.00
640.4730, 51672.00
641.6360, 52021.00
642.7990, 51964.00
643.9620, 51960.00
645.1240, 51925.00
646.2870, 51741.00
647.4490, 51903.00
648.6110, 51763.00
649.7730, 51569.00
650.9340, 52029.00
652.0960, 52553.00
653.2570, 52110.00
654.4180, 52131.85
655.5790, 51847.00
656.7400, 51606.00
657.9010, 51646.00
659.0620, 51912.00
660.2220, 51861.00
661.3820, 51798.00
662.5420, 51633.00
663.7020, 51971.00
664.8620, 51551.00
666.0210, 52053.00
667.1810, 51861.00
668.3400, 52115.00
669.4990, 51952.00
670.6580, 52201.00
671.8170, 52254.00
672.9750, 51983.00
674.1340, 52172.00
675.2920, 52219.00
676.4500, 52309.00
677.6080, 52411.00
678.7660, 52444.00
679.9230, 52465.00
681.0810, 52449.00
682.2380, 52676.00
683.3950, 52672.00
684.5520, 52576.00
685.7090, 52778.00
686.8660, 52784.00
688.0220, 52758.00
689.1780, 53091.00
690.3340, 53480.00
691.4900, 53260.00
692.6460, 53150.00
693.8020, 53402.00
694.9570, 53682.00
696.1130, 53973.00
697.2680, 53729.00
698.4230, 53768.00
699.5780, 54359.00
700.7320, 54101.00
701.8870, 54385.00
703.0410, 54710.00
704.1950, 54598.00
705.3490, 55205.00
706.5030, 55350.00
707.6570, 55994.00
708.8110, 56591.00
709.9640, 57196.00
711.1170, 57477.00
712.2700, 58054.00
713.4230, 58194.00
714.5760, 58358.00
715.7280, 58294.00
716.8810, 58531.00
718.0330, 58387.00
719.1850, 58024.00
720.3370, 58179.00
721.4890, 57842.00
722.6400, 58072.00
723.7920, 57704.00
724.9430, 57482.00
726.0940, 57742.00
727.2450, 57293.00
728.3960, 57585.00
729.5460, 57605.00
730.6970, 57622.00
731.8470, 57752.00
732.9970, 58525.00
734.1470, 58329.00
735.2970, 58336.00
736.4460, 58035.00
737.5960, 58170.00
738.7450, 58029.00
739.8940, 57935.00
741.0430, 57916.00
742.1920, 57656.00
743.3410, 57873.00
744.4890, 57616.00
745.6370, 57560.00
746.7850, 58042.00
747.9330, 57834.00
749.0810, 57750.00
750.2290, 58089.00
751.3760, 57933.00
752.5240, 58195.00
753.6710, 58058.00
754.8180, 58019.00
755.9650, 58411.00
757.1110, 58115.00
758.2580, 58217.00
759.4040, 58300.00
760.5510, 58137.00
761.6970, 58059.00
762.8420, 58243.00
763.9880, 58194.00
765.1340, 58025.00
766.2790, 58171.00
767.4240, 58240.00
768.5690, 58351.00
769.7140, 58401.00
770.8590, 58717.00
772.0030, 58668.00
773.1480, 59087.00
774.2920, 59318.00
775.4360, 59136.00
776.5800, 59637.00
777.7240, 60097.00
778.8670, 60566.00
780.0110, 60492.00
781.1540, 60589.00
782.2970, 60740.00
783.4400, 60458.00
784.5830, 59890.00
785.7250, 59648.00
786.8680, 59802.00
788.0100, 60119.00
789.1520, 60210.00
790.2940, 59827.00
791.4360, 59440.00
792.5780, 59134.00
793.7190, 59256.00
794.8600, 59135.00
796.0010, 59680.00
797.1420, 59309.00
798.2830, 59499.00
799.4240, 59347.00
800.5640, 59514.00
801.7050, 59611.00
802.8450, 59576.00
803.9850, 59566.00
805.1250, 60070.00
806.2640, 60206.00
807.4040, 59983.00
808.5430, 60408.00
809.6820, 60443.00
810.8210, 60681.00
811.9600, 60685.00
813.0990, 60878.00
814.2370, 61252.00
815.3760, 61250.00
816.5140, 61457.00
817.6520, 61785.00
818.7900, 61731.00
819.9270, 61401.00
821.0650, 61665.00
822.2020, 61425.00
823.3390, 61877.00
824.4760, 61738.00
825.6130, 61469.00
826.7500, 61984.00
827.8870, 62111.00
829.0230, 61971.00
830.1590, 62653.00
831.2950, 62411.00
832.4310, 62433.00
833.5670, 62400.00
834.7030, 63000.00
835.8380, 62878.00
836.9730, 63383.00
838.1080, 63196.00
839.2430, 63638.00
840.3780, 63926.00
841.5130, 64018.00
842.6470, 63782.00
843.7810, 63763.00
844.9150, 64065.00
846.0490, 63924.00
847.1830, 64346.00
848.3170, 64035.00
849.4500, 64099.00
850.5830, 64557.00
851.7160, 64157.00
852.8490, 64509.00
853.9820, 64747.00
855.1150, 64768.00
856.2470, 64922.00
857.3800, 65024.00
858.5120, 65197.00
859.6440, 65060.00
860.7760, 65186.00
861.9070, 65425.00
863.0390, 65557.00
864.1700, 65385.00
865.3010, 65233.00
866.4320, 65478.00
867.5630, 65288.00
868.6940, 65409.00
869.8240, 65190.00
870.9540, 65508.00
872.0850, 65376.00
873.2150, 65559.00
874.3450, 65334.00
875.4740, 65292.00
876.6040, 65426.00
877.7330, 65567.00
878.8620, 65594.00
879.9910, 65613.11
881.1200, 65424.00
882.2490, 65546.00
883.3770, 65705.00
884.5060, 65699.00
885.6340, 65428.00
886.7620, 65770.00
887.8900, 65462.00
889.0180, 65805.00
890.1450, 65961.00
891.2730, 65440.00
892.4000, 65784.00
893.5270, 65897.00
894.6540, 65907.00
895.7810, 66130.00
896.9070, 66120.99
898.0340, 66146.00
899.1600, 66237.00
900.2860, 66393.00
901.4120, 66568.00
902.5380, 66411.00
903.6630, 66642.82
904.7890, 66702.64
905.9140, 66947.00
907.0390, 66895.00
908.1640, 67159.00
909.2890, 67163.00
910.4130, 67217.40
911.5380, 67534.00
912.6620, 67342.00
913.7860, 67645.00
914.9100, 67838.00
916.0340, 67639.00
917.1580, 67840.00
918.2810, 67889.00
919.4040, 68142.00
920.5280, 68329.00
921.6510, 68431.00
922.7730, 68450.00
923.8960, 68647.00
925.0180, 68800.00
926.1410, 68745.00
927.2630, 68562.00
928.3850, 68655.00
929.5070, 69464.00
930.6280, 68734.00
931.7500, 69204.00
932.8710, 68958.00
933.9920, 68689.00
935.1130, 68772.00
936.2340, 69036.00
937.3550, 69059.00
938.4760, 69127.00
939.5960, 69247.22
940.7160, 69329.00
941.8360, 69324.00
942.9560, 69359.00
944.0760, 69264.00
945.1950, 69360.88
946.3150, 69651.00
947.4340, 69594.00
948.5530, 69651.00
949.6720, 69966.00
950.7900, 69930.00
951.9090, 69666.00
953.0270, 70209.00
954.1460, 70211.00
955.2640, 70448.00
956.3820, 70838.00
957.4990, 70739.00
958.6170, 71156.00
959.7340, 71462.00
960.8520, 72193.00
961.9690, 72515.00
963.0860, 73491.00
964.2020, 73619.00
965.3190, 74010.00
966.4350, 74699.00
967.5520, 74684.00
968.6680, 74465.00
969.7840, 74189.00
970.8990, 75814.00
972.0150, 75097.00
973.1310, 75491.00
974.2460, 75418.00
975.3610, 75357.00
976.4760, 75792.00
977.5910, 76834.00
978.7050, 77487.00
979.8200, 78818.00
980.9340, 81151.00
982.0480, 83886.00
983.1620, 87746.00
984.2760, 91809.00
985.3900, 96024.00
986.5030, 97676.00
987.6160, 97480.00
988.7300, 94928.00
989.8430, 91011.00
990.9550, 87722.00
992.0680, 84626.00
993.1810, 83151.00
994.2930, 82299.00
995.4050, 82186.00
996.5170, 82323.00
997.6290, 83142.00
998.7410, 84225.00
999.8520, 85350.00
1000.964, 87976.00
1002.075, 89402.00
1003.186, 88150.00
1004.297, 84648.00
1005.407, 81581.00
1006.518, 79214.00
1007.628, 77812.00
1008.738, 76814.00
1009.848, 76654.00
1010.958, 75928.00
1012.068, 75745.00
1013.178, 75466.00
1014.287, 75200.00
1015.396, 74955.00
1016.505, 74826.00
1017.614, 74689.91
1018.723, 74861.00
1019.831, 74669.00
1020.940, 74921.00
1022.048, 75203.00
1023.156, 75150.00
1024.264, 75739.00
1025.372, 75933.00
1026.479, 76190.00
1027.587, 76288.00
1028.694, 76473.00
1029.801, 76598.00
1030.908, 76508.00
1032.015, 76931.00
1033.121, 76617.00
1034.228, 76499.00
1035.334, 76968.00
1036.440, 76619.00
1037.546, 76218.00
1038.652, 76318.00
1039.758, 76418.00
1040.863, 76243.00
1041.968, 76585.00
1043.074, 76645.00
1044.178, 76735.00
1045.283, 76913.97
1046.388, 76667.00
1047.492, 77094.00
1048.597, 77484.00
1049.701, 77507.00
1050.805, 77357.00
1051.909, 77816.00
1053.012, 78349.00
1054.116, 78356.00
1055.219, 78876.00
1056.322, 78984.00
1057.425, 79520.00
1058.528, 79389.00
1059.631, 79344.00
1060.733, 79548.00
1061.836, 79396.00
1062.938, 79708.00
1064.040, 79640.00
1065.142, 79980.00
1066.243, 80130.00
1067.345, 79196.00
1068.446, 79161.00
1069.547, 78952.00
1070.648, 79142.00
1071.749, 78998.00
1072.850, 78721.00
1073.951, 78911.00
1075.051, 78576.00
1076.151, 78220.00
1077.251, 78410.00
1078.351, 78590.00
1079.451, 78626.00
1080.550, 78588.00
1081.650, 79260.00
1082.749, 78934.00
1083.848, 78790.00
1084.947, 79289.00
1086.046, 78869.00
1087.144, 79009.00
1088.243, 79054.00
1089.341, 79121.00
1090.439, 79136.00
1091.537, 79158.00
1092.635, 79466.00
1093.732, 79272.00
1094.830, 79492.00
1095.927, 78917.00
1097.024, 79648.00
1098.121, 79630.00
1099.218, 79410.00
1100.314, 79809.00
1101.411, 79447.00
1102.507, 79856.00
1103.603, 80079.00
1104.699, 80050.00
1105.795, 79963.00
1106.890, 80523.00
1107.986, 80625.00
1109.081, 80500.00
1110.176, 80897.00
1111.271, 80733.00
1112.366, 80690.00
1113.461, 80892.00
1114.555, 80869.00
1115.649, 80640.00
1116.744, 80832.00
1117.838, 80914.32
1118.931, 80820.00
1120.025, 81292.00
1121.119, 81264.00
1122.212, 81347.00
1123.305, 81710.00
1124.398, 81497.00
1125.491, 81989.00
1126.584, 81792.00
1127.676, 81959.00
1128.768, 82143.00
1129.861, 82587.00
1130.953, 82585.00
1132.044, 82946.00
1133.136, 82493.00
1134.228, 82551.00
1135.319, 82423.00
1136.410, 83082.00
1137.501, 82437.00
1138.592, 83034.00
1139.683, 82778.00
1140.773, 82906.00
1141.864, 82969.00
1142.954, 82911.00
1144.044, 83046.00
1145.134, 83147.00
1146.224, 83159.00
1147.313, 83270.00
1148.402, 83451.00
1149.492, 83713.00
1150.581, 83720.00
1151.670, 84328.00
1152.758, 84656.00
1153.847, 84612.00
1154.935, 85011.00
1156.024, 85056.00
1157.112, 85013.00
1158.200, 84524.00
1159.287, 84870.00
1160.375, 85296.00
1161.462, 85333.00
1162.550, 84641.00
1163.637, 84560.00
1164.724, 85181.00
1165.810, 85057.00
1166.897, 85327.00
1167.983, 85393.00
1169.070, 85720.00
1170.156, 85469.00
1171.242, 85777.00
1172.327, 86117.00
1173.413, 85997.00
1174.499, 86215.00
1175.584, 86325.11
1176.669, 86767.00
1177.754, 86603.00
1178.839, 86719.00
1179.923, 86978.00
1181.008, 86954.00
1182.092, 87236.00
1183.176, 87125.00
1184.260, 87025.00
1185.344, 87492.00
1186.428, 87874.00
1187.511, 87486.00
1188.595, 87955.00
1189.678, 88115.00
1190.761, 88215.00
1191.843, 88366.00
1192.926, 88153.00
1194.009, 88199.00
1195.091, 87912.00
1196.173, 88349.00
1197.255, 88247.00
1198.337, 87939.00
1199.419, 88838.00
1200.500, 87998.00
1201.582, 89007.00
1202.663, 88637.00
1203.744, 88263.00
1204.825, 89033.00
1205.905, 88359.00
1206.986, 88961.00
1208.066, 89024.00
1209.146, 88689.00
1210.226, 88715.00
1211.306, 89074.00
1212.386, 89175.00
1213.466, 88992.00
1214.545, 88934.00
1215.624, 89321.00
1216.703, 89534.00
1217.782, 89217.00
1218.861, 89506.00
1219.939, 90125.00
1221.018, 89837.00
1222.096, 90377.00
1223.174, 90504.00
1224.252, 90652.00
1225.330, 91252.00
1226.407, 90688.00
1227.485, 91139.00
1228.562, 91402.00
1229.639, 91264.00
1230.716, 91944.00
1231.793, 91730.00
1232.869, 91734.00
1233.946, 91699.00
1235.022, 91704.45
1236.098, 91744.10
1237.174, 91845.00
1238.250, 91808.00
1239.325, 91897.00
1240.401, 91850.00
1241.476, 91744.00
1242.551, 91597.00
1243.626, 91522.00
1244.701, 91680.98
1245.776, 92123.00
1246.850, 92075.00
1247.924, 91998.00
1248.999, 92112.00
1250.073, 91583.00
1251.146, 92067.00
1252.220, 92092.00
1253.293, 92547.00
1254.367, 92285.00
1255.440, 92571.00
1256.513, 92466.00
1257.586, 93063.00
1258.658, 92826.00
1259.731, 92887.00
1260.803, 92885.00
1261.875, 93441.00
1262.947, 93722.00
1264.019, 94048.00
1265.091, 94086.00
1266.162, 94448.00
1267.234, 94656.00
1268.305, 94763.00
1269.376, 95052.00
1270.447, 94896.00
1271.517, 95118.00
1272.588, 95359.00
1273.658, 95377.00
1274.729, 95761.00
1275.799, 96227.00
1276.868, 96403.00
1277.938, 96849.00
1279.008, 96954.00
1280.077, 97831.00
1281.146, 98069.00
1282.215, 98983.00
1283.284, 99569.00
1284.353, 102484.0
1285.421, 100949.0
1286.490, 102079.0
1287.558, 101429.0
1288.626, 101032.0
1289.694, 101352.0
1290.762, 100439.0
1291.829, 100269.0
1292.897, 100571.0
1293.964, 100390.0
1295.031, 99816.00
1296.098, 100247.0
1297.165, 100325.0
1298.231, 99397.00
1299.298, 99761.00
1300.364, 98976.00
1301.430, 99004.00
1302.496, 98817.00
1303.562, 99328.00
1304.627, 99137.00
1305.693, 99864.00
1306.758, 99239.00
1307.823, 98702.00
1308.888, 99473.00
1309.953, 98884.00
1311.018, 99222.00
1312.082, 99798.00
1313.146, 98059.00
1314.210, 98698.00
1315.274, 99181.00
1316.338, 98929.00
1317.402, 98809.00
1318.465, 98525.00
1319.529, 98993.00
1320.592, 98588.00
1321.655, 98812.00
1322.718, 98631.00
1323.780, 98400.00
1324.843, 98751.00
1325.905, 98858.00
1326.967, 98989.00
1328.029, 98859.00
1329.091, 98644.00
1330.153, 99082.00
1331.214, 99210.00
1332.275, 98735.00
1333.337, 99324.00
1334.398, 99078.00
1335.458, 99451.00
1336.519, 98936.00
1337.580, 99719.00
1338.640, 99181.00
1339.700, 99250.00
1340.760, 99712.00
1341.820, 99368.00
1342.880, 99817.00
1343.939, 99904.00
1344.999, 100304.0
1346.058, 100233.0
1347.117, 100060.0
1348.176, 100688.0
1349.235, 100422.0
1350.293, 100482.0
1351.351, 100683.0
1352.410, 100216.0
1353.468, 100155.0
1354.526, 100602.0
1355.583, 100245.0
1356.641, 100503.0
1357.698, 101104.0
1358.756, 100587.0
1359.813, 100439.0
1360.869, 100389.0
1361.926, 100434.3
1362.983, 101157.0
1364.039, 101426.6
1365.095, 101616.7
1366.152, 101744.0
1367.207, 101817.9
1368.263, 101349.0
1369.319, 101832.7
1370.374, 102088.1
1371.430, 102439.9
1372.485, 102084.0
1373.540, 101067.0
1374.594, 102263.0
1375.649, 101706.0
1376.703, 101969.0
1377.758, 101970.0
1378.812, 102130.0
1379.866, 102385.4
1380.920, 102530.2
1381.973, 102715.3
1383.027, 102945.0
1384.080, 103041.0
1385.133, 103135.0
1386.186, 103273.0
1387.239, 103317.5
1388.291, 103319.5
1389.344, 103391.0
1390.396, 103243.0
1391.448, 103189.0
1392.500, 103136.0
1393.552, 103256.5
1394.604, 103912.0
1395.655, 103614.0
1396.707, 103658.0
1397.758, 103845.0
1398.809, 103668.0
1399.860, 103438.0
1400.910, 104528.0
1401.961, 104046.0
1403.011, 103964.0
1404.061, 104518.0
1405.111, 104380.0
1406.161, 104261.0
1407.211, 104645.0
1408.260, 104883.0
1409.310, 104643.0
1410.359, 104898.0
1411.408, 104958.0
1412.457, 105130.0
1413.506, 105330.0
1414.554, 105573.0
1415.603, 105724.0
1416.651, 106048.0
1417.699, 106268.0
1418.747, 106161.0
1419.794, 106610.0
1420.842, 106461.0
1421.889, 106174.0
1422.937, 107329.0
1423.984, 107231.0
1425.031, 107186.0
1426.077, 107807.0
1427.124, 108009.0
1428.170, 107673.0
1429.217, 108354.0
1430.263, 108788.0
1431.309, 109239.0
1432.354, 109674.0
1433.400, 110031.0
1434.445, 110669.0
1435.491, 110543.0
1436.536, 111389.0
1437.581, 112294.0
1438.625, 112602.0
1439.670, 112681.0
1440.714, 113377.0
1441.759, 113311.0
1442.803, 113274.0
1443.847, 113319.0
1444.890, 112852.0
1445.934, 112709.0
1446.978, 112835.0
1448.021, 112470.0
1449.064, 112778.0
1450.107, 112463.0
1451.150, 112993.0
1452.192, 113015.0
1453.235, 112768.0
1454.277, 112702.0
1455.319, 112725.0
1456.361, 113106.0
1457.403, 112731.0
1458.445, 112975.0
1459.486, 112323.0
1460.528, 112521.0
1461.569, 112144.0
1462.610, 111958.0
1463.651, 112956.0
1464.691, 113572.0
1465.732, 112399.0
1466.772, 111968.0
1467.812, 111891.0
1468.852, 112069.0
1469.892, 111743.0
1470.932, 112262.0
1471.971, 112157.0
1473.011, 112768.0
1474.050, 112573.0
1475.089, 113186.0
1476.128, 112734.0
1477.166, 113028.3
1478.205, 112582.0
1479.243, 113285.0
1480.282, 113239.0
1481.320, 113349.0
1482.357, 112669.0
1483.395, 112137.0
1484.433, 112354.9
1485.470, 112206.3
1486.507, 112538.0
1487.544, 112609.0
1488.581, 112561.0
1489.618, 112630.0
1490.655, 112571.0
1491.691, 112496.0
1492.727, 112733.0
1493.763, 112878.0
1494.799, 113261.0
1495.835, 112512.0
1496.871, 113214.0
1497.906, 112956.0
1498.941, 113147.0
1499.976, 113626.0
1501.011, 113437.0
1502.046, 113742.0
1503.081, 113659.0
1504.115, 113612.0
1505.149, 113851.0
1506.183, 113816.0
1507.217, 113788.0
1508.251, 113767.0
1509.285, 113638.0
1510.318, 114108.0
1511.352, 113834.0
1512.385, 113923.0
1513.418, 113565.0
1514.450, 113694.0
1515.483, 113815.4
1516.516, 113917.5
1517.548, 114228.0
1518.580, 114614.0
1519.612, 114805.0
1520.644, 115533.0
1521.675, 114965.0
1522.707, 114691.0
1523.738, 115192.0
1524.769, 115059.0
1525.800, 115123.0
1526.831, 114902.0
1527.862, 115150.0
1528.892, 115652.0
1529.923, 115539.0
1530.953, 115640.0
1531.983, 115742.0
1533.013, 115782.0
1534.042, 115912.0
1535.072, 115683.0
1536.101, 116042.0
1537.131, 116181.0
1538.160, 116339.0
1539.188, 116761.0
1540.217, 116386.0
1541.246, 116859.0
1542.274, 117055.0
1543.302, 117046.0
1544.330, 117527.0
1545.358, 117074.0
1546.386, 117823.0
1547.413, 117461.0
1548.441, 117564.0
1549.468, 117879.0
1550.495, 117742.0
1551.522, 117859.0
1552.549, 118082.0
1553.575, 118356.0
1554.602, 118341.6
1555.628, 118648.0
1556.654, 118369.0
1557.680, 118456.0
1558.706, 118493.0
1559.731, 118505.0
1560.757, 118774.0
1561.782, 118931.0
1562.807, 119102.0
1563.832, 119423.0
1564.857, 119720.0
1565.881, 119758.8
1566.906, 119539.0
1567.930, 119793.0
1568.954, 120171.0
1569.978, 120100.0
1571.002, 120457.0
1572.025, 120152.0
1573.049, 120634.0
1574.072, 120383.0
1575.095, 120764.0
1576.118, 120849.0
1577.141, 121131.0
1578.164, 121044.0
##END=



