##NAMES=Sodalite
##RRUFFID=R060405
##IDEAL CHEMISTRY=Na_4_Si_3_Al_3_O_12_Cl
##LOCALITY=Cerro Sapo, Cochabamba Department, Bolivia
##OWNER=RRUFF
##SOURCE=Marcus Origlieri
##DESCRIPTION=Blue massive associated with brown burbankite R050646
##STATUS=The identification of this mineral has been confirmed by X-ray diffraction and chemical analysis
##URL=rruff.info/R060405
##MEASURED CHEMISTRY=Na_8.00_Al_6.00_Si_6.00_O_24_Cl_2_
##PIN_ID=L01500
##ORIENTATION=Laser parallel to a* (1 0 0). Fiducial mark perpendicular to laser is parallel to c [0 0 1]
68.35300, 16530.00
69.59000, 17150.00
70.82800, 16917.00
72.06500, 17966.00
73.30200, 19281.00
74.53900, 21172.00
75.77500, 21218.00
77.01200, 23010.13
78.24800, 24036.00
79.48400, 24807.00
80.72100, 25761.00
81.95600, 24959.00
83.19200, 24615.98
84.42800, 23930.80
85.66300, 22210.00
86.89900, 21520.00
88.13400, 19893.00
89.36900, 18130.00
90.60400, 16549.00
91.83800, 15343.00
93.07300, 14326.00
94.30700, 13790.00
95.54100, 13557.00
96.77500, 13145.00
98.00900, 13000.00
99.24300, 13097.00
100.4770, 13893.00
101.7100, 14725.00
102.9440, 16512.00
104.1770, 17533.00
105.4100, 18352.00
106.6430, 18720.00
107.8750, 18309.00
109.1080, 18530.00
110.3400, 18699.00
111.5720, 18887.00
112.8040, 18642.00
114.0360, 18469.00
115.2680, 17924.00
116.5000, 17114.00
117.7310, 16232.00
118.9620, 15351.00
120.1940, 14321.00
121.4250, 13730.00
122.6550, 13907.00
123.8860, 14083.00
125.1170, 13860.00
126.3470, 14012.00
127.5770, 14315.00
128.8070, 14432.00
130.0370, 14634.00
131.2670, 14798.00
132.4970, 14358.00
133.7260, 14093.00
134.9550, 14093.00
136.1850, 13970.00
137.4140, 13850.00
138.6420, 14173.00
139.8710, 14416.00
141.1000, 14523.00
142.3280, 14689.00
143.5560, 14691.00
144.7840, 14804.00
146.0120, 15127.00
147.2400, 15370.00
148.4680, 15355.00
149.6950, 15319.00
150.9220, 15364.00
152.1500, 15720.00
153.3770, 16187.00
154.6030, 17627.00
155.8300, 18328.00
157.0570, 19592.00
158.2830, 21291.00
159.5090, 23782.00
160.7350, 26289.00
161.9610, 29225.00
163.1870, 31547.00
164.4130, 33718.00
165.6380, 34314.00
166.8630, 33721.00
168.0880, 31528.00
169.3130, 28750.00
170.5380, 26147.00
171.7630, 23684.00
172.9870, 21651.00
174.2120, 20388.00
175.4360, 19359.00
176.6600, 18469.00
177.8840, 17872.00
179.1080, 17196.00
180.3310, 16704.00
181.5550, 16013.00
182.7780, 15526.00
184.0010, 14973.00
185.2240, 14551.00
186.4470, 14167.45
187.6700, 13830.11
188.8920, 13534.00
190.1150, 13326.00
191.3370, 13101.00
192.5590, 12924.00
193.7810, 12715.00
195.0020, 12231.00
196.2240, 12227.00
197.4450, 12024.00
198.6670, 12025.00
199.8880, 11928.00
201.1090, 11744.00
202.3300, 11543.00
203.5500, 11586.00
204.7710, 11419.00
205.9910, 11484.00
207.2110, 11621.00
208.4310, 11493.00
209.6510, 11554.00
210.8710, 11571.00
212.0910, 11532.00
213.3100, 11559.00
214.5290, 11665.00
215.7480, 11558.00
216.9670, 11751.00
218.1860, 11995.00
219.4050, 11961.00
220.6230, 12152.00
221.8420, 12429.00
223.0600, 12726.00
224.2780, 12940.00
225.4960, 13275.56
226.7130, 13520.00
227.9310, 13857.00
229.1480, 14200.00
230.3660, 14383.00
231.5830, 14590.00
232.8000, 14821.43
234.0160, 14990.21
235.2330, 15209.00
236.4490, 15359.00
237.6660, 15552.00
238.8820, 15752.00
240.0980, 16013.00
241.3140, 16343.00
242.5300, 17056.00
243.7450, 17738.00
244.9600, 18570.00
246.1760, 19535.00
247.3910, 20500.00
248.6060, 22074.00
249.8200, 23799.00
251.0350, 25870.00
252.2500, 28104.00
253.4640, 30595.00
254.6780, 33687.00
255.8920, 36679.00
257.1060, 39517.00
258.3190, 42363.00
259.5330, 44149.00
260.7460, 45653.00
261.9600, 46608.00
263.1730, 46554.00
264.3850, 46361.00
265.5980, 44616.00
266.8110, 42247.00
268.0230, 39564.00
269.2360, 37056.00
270.4480, 34314.00
271.6600, 31949.00
272.8710, 29657.00
274.0830, 27734.45
275.2950, 26050.00
276.5060, 24681.00
277.7170, 23479.00
278.9280, 22796.85
280.1390, 22147.57
281.3500, 21911.00
282.5600, 21817.00
283.7710, 21787.00
284.9810, 22358.00
286.1910, 22810.00
287.4010, 23714.00
288.6110, 24716.00
289.8200, 25511.00
291.0300, 26558.00
292.2390, 27375.00
293.4480, 27606.00
294.6570, 27369.00
295.8660, 26449.00
297.0750, 24690.00
298.2830, 22493.00
299.4920, 20377.00
300.7000, 18786.00
301.9080, 17192.00
303.1160, 16051.00
304.3240, 15146.00
305.5310, 14584.00
306.7390, 14152.00
307.9460, 13926.00
309.1530, 13501.00
310.3600, 13489.00
311.5670, 13265.04
312.7740, 13375.00
313.9800, 12970.00
315.1870, 13161.00
316.3930, 12887.00
317.5990, 13008.00
318.8050, 12891.00
320.0110, 12779.00
321.2160, 12832.00
322.4220, 12751.66
323.6270, 12746.00
324.8320, 12737.00
326.0370, 12800.00
327.2420, 12826.00
328.4460, 12696.00
329.6510, 12926.00
330.8550, 12899.00
332.0590, 12773.00
333.2630, 12862.00
334.4670, 12758.00
335.6710, 12613.00
336.8740, 12626.00
338.0780, 12801.00
339.2810, 12775.00
340.4840, 12708.00
341.6870, 12714.00
342.8900, 12689.00
344.0920, 12579.00
345.2950, 12633.00
346.4970, 12623.00
347.6990, 12730.00
348.9010, 12522.00
350.1030, 12695.00
351.3050, 12565.00
352.5060, 12587.00
353.7080, 12538.00
354.9090, 12568.00
356.1100, 12468.00
357.3110, 12533.00
358.5110, 12535.00
359.7120, 12718.00
360.9120, 12604.00
362.1130, 12649.00
363.3130, 12507.00
364.5130, 12688.00
365.7120, 12721.00
366.9120, 12962.00
368.1120, 12778.00
369.3110, 12876.00
370.5100, 12798.00
371.7090, 12739.00
372.9080, 12555.00
374.1070, 12479.00
375.3050, 12379.00
376.5040, 12336.00
377.7020, 12240.00
378.9000, 12095.00
380.0980, 12275.00
381.2950, 12028.00
382.4930, 12075.00
383.6910, 12244.00
384.8880, 12154.00
386.0850, 12186.00
387.2820, 12015.00
388.4790, 12066.00
389.6750, 12250.00
390.8720, 12079.42
392.0680, 12217.37
393.2640, 12331.44
394.4600, 12422.91
395.6560, 12424.10
396.8520, 12541.87
398.0480, 12612.92
399.2430, 12795.00
400.4380, 12912.00
401.6330, 13150.00
402.8280, 13449.00
404.0230, 13929.00
405.2180, 14221.00
406.4120, 14704.00
407.6060, 15028.00
408.8000, 15327.00
409.9940, 15293.00
411.1880, 15294.00
412.3820, 14701.00
413.5750, 14486.00
414.7690, 14349.00
415.9620, 14140.00
417.1550, 14072.00
418.3480, 14063.00
419.5410, 14401.00
420.7330, 14318.00
421.9260, 14546.00
423.1180, 14698.00
424.3100, 14784.00
425.5020, 15151.00
426.6940, 15329.00
427.8850, 15750.00
429.0770, 15994.00
430.2680, 16393.00
431.4590, 16859.00
432.6500, 17114.00
433.8410, 17322.00
435.0320, 17869.00
436.2220, 18418.00
437.4130, 18924.00
438.6030, 19728.00
439.7930, 20946.00
440.9830, 22275.00
442.1730, 23803.00
443.3620, 25602.00
444.5520, 27937.00
445.7410, 30572.00
446.9300, 33612.00
448.1190, 37750.00
449.3080, 42632.00
450.4960, 48853.00
451.6850, 56496.00
452.8730, 65868.00
454.0610, 78180.00
455.2490, 92082.00
456.4370, 109530.0
457.6250, 128862.0
458.8130, 150401.0
460.0000, 170909.0
461.1870, 189185.0
462.3740, 199645.0
463.5610, 203007.0
464.7480, 194168.0
465.9340, 176519.0
467.1210, 153910.0
468.3070, 128817.0
469.4930, 106390.0
470.6790, 87587.00
471.8650, 72896.00
473.0510, 61555.00
474.2360, 52671.00
475.4210, 45714.00
476.6070, 40824.00
477.7920, 36472.00
478.9770, 33404.00
480.1610, 30750.00
481.3460, 28682.00
482.5300, 27100.00
483.7140, 25890.00
484.8980, 24703.00
486.0820, 23919.00
487.2660, 22976.00
488.4500, 22430.00
489.6330, 21535.00
490.8160, 20866.00
492.0000, 20361.00
493.1830, 19996.00
494.3650, 19649.00
495.5480, 19435.00
496.7300, 19178.00
497.9130, 18655.00
499.0950, 17843.00
500.2770, 17172.00
501.4590, 16378.00
502.6410, 15749.00
503.8220, 15307.00
505.0030, 14985.00
506.1850, 14714.00
507.3660, 14340.00
508.5470, 14255.00
509.7270, 14258.00
510.9080, 14115.00
512.0880, 13954.00
513.2690, 14086.00
514.4490, 13886.00
515.6290, 13652.00
516.8090, 13703.00
517.9880, 13505.00
519.1680, 13690.00
520.3470, 13422.00
521.5260, 13491.00
522.7050, 13405.00
523.8840, 13413.00
525.0630, 13140.00
526.2410, 13106.00
527.4200, 12977.00
528.5980, 12950.00
529.7760, 12781.00
530.9540, 12622.00
532.1320, 12640.00
533.3090, 12461.00
534.4870, 12535.00
535.6640, 12457.00
536.8410, 12263.00
538.0180, 12281.00
539.1950, 12322.00
540.3710, 12058.00
541.5480, 12159.00
542.7240, 12041.00
543.9000, 11882.00
545.0760, 11900.00
546.2520, 11709.00
547.4280, 11766.00
548.6040, 11727.00
549.7790, 11667.00
550.9540, 11569.00
552.1290, 11703.00
553.3040, 11368.00
554.4790, 11427.00
555.6530, 11229.00
556.8280, 11229.00
558.0020, 11136.00
559.1760, 11054.00
560.3500, 11058.00
561.5240, 11031.00
562.6980, 10836.00
563.8710, 10826.00
565.0440, 10822.00
566.2170, 10604.00
567.3900, 10678.00
568.5630, 10628.00
569.7360, 10434.00
570.9090, 10664.00
572.0810, 10625.00
573.2530, 10680.00
574.4250, 10578.00
575.5970, 10544.43
576.7690, 10602.23
577.9400, 10427.00
579.1120, 10602.00
580.2830, 10619.00
581.4540, 10397.00
582.6250, 10471.00
583.7960, 10517.00
584.9660, 10389.00
586.1370, 10344.00
587.3070, 10387.00
588.4770, 10312.00
589.6470, 10295.00
590.8170, 10256.00
591.9870, 10314.00
593.1560, 10233.00
594.3260, 10359.00
595.4950, 10290.00
596.6640, 10307.00
597.8330, 10276.00
599.0010, 10332.01
600.1700, 10367.00
601.3380, 10511.00
602.5070, 10547.00
603.6750, 10709.00
604.8430, 10665.00
606.0100, 10750.00
607.1780, 10759.00
608.3450, 10874.00
609.5130, 10958.00
610.6800, 10713.00
611.8470, 10649.00
613.0140, 10389.00
614.1800, 10434.00
615.3470, 10346.00
616.5130, 10239.00
617.6790, 10331.00
618.8450, 10369.00
620.0110, 10233.00
621.1770, 10222.00
622.3420, 10165.00
623.5080, 10251.00
624.6730, 10180.00
625.8380, 10213.00
627.0030, 10133.00
628.1680, 10134.00
629.3320, 10157.00
630.4970, 10131.91
631.6610, 10247.00
632.8250, 10143.00
633.9890, 10193.00
635.1530, 10197.00
636.3160, 10161.00
637.4800, 10195.00
638.6430, 10217.00
639.8060, 10120.00
640.9690, 10127.00
642.1320, 10251.00
643.2950, 10410.00
644.4570, 10324.06
645.6200, 10382.00
646.7820, 10212.00
647.9440, 10337.00
649.1060, 10316.00
650.2670, 10329.00
651.4290, 10379.00
652.5900, 10389.00
653.7520, 10330.00
654.9130, 10511.00
656.0740, 10366.00
657.2340, 10327.00
658.3950, 10494.00
659.5550, 10527.00
660.7160, 10462.00
661.8760, 10498.00
663.0360, 10529.00
664.1960, 10526.00
665.3550, 10584.00
666.5150, 10561.00
667.6740, 10599.10
668.8330, 10670.00
669.9920, 10712.00
671.1510, 10749.17
672.3100, 10753.27
673.4680, 10794.00
674.6270, 10715.00
675.7850, 10682.00
676.9430, 10631.00
678.1010, 10782.00
679.2590, 10738.00
680.4160, 10757.00
681.5740, 10743.00
682.7310, 10714.00
683.8880, 10779.00
685.0450, 10800.00
686.2020, 10784.00
687.3580, 10867.00
688.5150, 10845.00
689.6710, 11004.00
690.8270, 10912.00
691.9830, 11101.00
693.1390, 11287.00
694.2950, 11257.00
695.4500, 11394.00
696.6050, 11478.00
697.7610, 11662.00
698.9160, 11706.00
700.0710, 11761.00
701.2250, 11743.00
702.3800, 11641.00
703.5340, 11583.00
704.6880, 11600.00
705.8420, 11404.00
706.9960, 11500.00
708.1500, 11244.00
709.3040, 11391.00
710.4570, 11269.00
711.6100, 11414.00
712.7640, 11275.00
713.9160, 11253.00
715.0690, 11403.00
716.2220, 11307.00
717.3740, 11393.00
718.5270, 11263.00
719.6790, 11214.00
720.8310, 11159.00
721.9830, 11279.00
723.1340, 11271.00
724.2860, 11349.00
725.4370, 11325.00
726.5880, 11443.00
727.7390, 11615.00
728.8900, 12045.00
730.0410, 12059.00
731.1910, 12376.00
732.3420, 12413.00
733.4920, 12550.00
734.6420, 12377.00
735.7920, 12326.00
736.9420, 12271.00
738.0910, 11973.00
739.2410, 11897.00
740.3900, 11856.00
741.5390, 11712.00
742.6880, 11543.00
743.8370, 11494.00
744.9860, 11268.00
746.1340, 11104.00
747.2820, 10865.00
748.4310, 10696.00
749.5790, 10677.00
750.7260, 10662.00
751.8740, 10564.00
753.0220, 10497.00
754.1690, 10372.00
755.3160, 10293.00
756.4630, 10344.00
757.6100, 10409.00
758.7570, 10375.00
759.9030, 10434.00
761.0500, 10304.00
762.1960, 10477.00
763.3420, 10311.00
764.4880, 10481.00
765.6340, 10227.00
766.7790, 10181.00
767.9250, 10283.00
769.0700, 10158.00
770.2150, 10156.00
771.3600, 10089.00
772.5050, 10019.00
773.6490, 10029.61
774.7940, 10021.40
775.9380, 10071.00
777.0820, 10065.00
778.2260, 10098.35
779.3700, 10185.00
780.5140, 10155.00
781.6570, 10140.56
782.8010, 10158.00
783.9440, 10022.55
785.0870, 10002.00
786.2300, 9982.000
787.3720, 10028.00
788.5150, 9951.000
789.6570, 10002.00
790.8000, 10162.00
791.9420, 10048.00
793.0840, 10053.00
794.2250, 9948.000
795.3670, 10023.00
796.5080, 10016.00
797.6500, 10009.00
798.7910, 9918.000
799.9320, 9847.000
801.0720, 9967.000
802.2130, 10093.00
803.3530, 10096.00
804.4940, 9960.000
805.6340, 9925.000
806.7740, 9933.000
807.9140, 10014.00
809.0530, 9956.000
810.1930, 10079.00
811.3320, 9911.000
812.4710, 9881.000
813.6100, 9968.000
814.7490, 9824.000
815.8880, 9912.000
817.0270, 9889.000
818.1650, 9872.000
819.3030, 9964.000
820.4410, 9915.473
821.5790, 9869.000
822.7170, 9887.000
823.8540, 9896.000
824.9920, 9866.000
826.1290, 9939.000
827.2660, 9879.000
828.4030, 9963.000
829.5400, 9872.000
830.6760, 9847.000
831.8130, 9988.000
832.9490, 9931.000
834.0850, 9912.000
835.2210, 10081.00
836.3570, 10041.00
837.4930, 10073.00
838.6280, 10158.00
839.7640, 10023.00
840.8990, 10116.00
842.0340, 9988.000
843.1690, 10012.00
844.3030, 10141.00
845.4380, 10110.00
846.5720, 10088.00
847.7060, 10136.38
848.8400, 10108.00
849.9740, 10181.00
851.1080, 10169.00
852.2420, 10249.00
853.3750, 10232.00
854.5080, 10263.00
855.6410, 10336.00
856.7740, 10267.00
857.9070, 10292.00
859.0400, 10327.00
860.1720, 10369.00
861.3040, 10294.00
862.4360, 10453.00
863.5680, 10477.00
864.7000, 10609.00
865.8320, 10598.00
866.9630, 10582.00
868.0950, 10635.00
869.2260, 10757.00
870.3570, 10496.00
871.4880, 10579.00
872.6180, 10526.00
873.7490, 10628.00
874.8790, 10611.00
876.0090, 10714.00
877.1390, 10742.00
878.2690, 10744.00
879.3990, 10645.00
880.5280, 10610.00
881.6580, 10624.00
882.7870, 10550.00
883.9160, 10552.00
885.0450, 10358.00
886.1740, 10532.00
887.3020, 10380.00
888.4310, 10396.00
889.5590, 10395.00
890.6870, 10300.00
891.8150, 10264.00
892.9430, 10311.00
894.0700, 10290.00
895.1980, 10348.00
896.3250, 10327.46
897.4520, 10370.00
898.5790, 10303.00
899.7060, 10278.00
900.8330, 10272.00
901.9590, 10347.00
903.0850, 10382.00
904.2120, 10424.00
905.3380, 10414.00
906.4630, 10484.00
907.5890, 10501.00
908.7150, 10464.00
909.8400, 10515.00
910.9650, 10540.00
912.0900, 10529.50
913.2150, 10505.00
914.3400, 10532.00
915.4640, 10469.00
916.5890, 10464.00
917.7130, 10539.00
918.8370, 10607.00
919.9610, 10564.00
921.0850, 10607.00
922.2080, 10637.73
923.3320, 10632.00
924.4550, 10705.00
925.5780, 10666.00
926.7010, 10688.00
927.8240, 10720.00
928.9460, 10696.00
930.0690, 10804.00
931.1910, 10758.00
932.3130, 10885.00
933.4350, 10907.00
934.5570, 11023.00
935.6790, 11171.00
936.8000, 11126.00
937.9220, 11184.00
939.0430, 11239.00
940.1640, 11217.00
941.2850, 11307.00
942.4050, 11448.00
943.5260, 11339.00
944.6460, 11338.00
945.7660, 11519.00
946.8860, 11446.00
948.0060, 11656.00
949.1260, 11677.00
950.2460, 11708.00
951.3650, 11815.00
952.4840, 12100.00
953.6030, 12462.00
954.7220, 12685.00
955.8410, 13021.00
956.9590, 13320.00
958.0780, 13964.00
959.1960, 14504.00
960.3140, 15317.00
961.4320, 16123.00
962.5500, 17038.00
963.6680, 17880.00
964.7850, 18501.00
965.9020, 19056.00
967.0190, 19541.00
968.1360, 19606.00
969.2530, 19915.00
970.3700, 19913.00
971.4860, 20205.00
972.6030, 20549.00
973.7190, 20854.00
974.8350, 21369.00
975.9510, 22798.00
977.0660, 24914.00
978.1820, 28196.00
979.2970, 32473.00
980.4130, 38657.00
981.5280, 46332.00
982.6420, 55469.00
983.7570, 64898.00
984.8720, 72852.00
985.9860, 75774.00
987.1000, 72001.00
988.2140, 62585.00
989.3280, 51144.00
990.4420, 40700.00
991.5560, 32490.00
992.6690, 26657.00
993.7820, 23292.00
994.8950, 20236.00
996.0080, 18653.00
997.1210, 17162.00
998.2340, 16120.00
999.3460, 15393.00
1000.458, 15055.00
1001.571, 14707.00
1002.683, 14409.00
1003.794, 14070.00
1004.906, 14139.00
1006.017, 13915.00
1007.129, 14187.00
1008.240, 14347.00
1009.351, 14369.00
1010.462, 14570.00
1011.572, 14470.00
1012.683, 14185.00
1013.793, 13796.00
1014.904, 13306.00
1016.014, 13019.00
1017.123, 12836.00
1018.233, 12584.00
1019.343, 12358.86
1020.452, 12232.20
1021.561, 12077.72
1022.670, 12032.00
1023.779, 11877.00
1024.888, 11876.00
1025.997, 11783.00
1027.105, 11915.00
1028.213, 11860.00
1029.321, 11813.00
1030.429, 11918.00
1031.537, 11911.35
1032.645, 12018.00
1033.752, 12053.00
1034.859, 12165.00
1035.966, 12298.00
1037.073, 12376.00
1038.180, 12705.00
1039.287, 12688.00
1040.393, 12807.00
1041.500, 13190.00
1042.606, 13468.00
1043.712, 13901.00
1044.818, 14248.00
1045.923, 14772.00
1047.029, 15107.00
1048.134, 15540.00
1049.239, 16300.00
1050.344, 17234.00
1051.449, 18244.00
1052.554, 19471.00
1053.658, 20681.00
1054.763, 21949.00
1055.867, 22990.00
1056.971, 24006.00
1058.075, 24803.00
1059.179, 25296.00
1060.282, 25248.00
1061.385, 25625.00
1062.489, 25350.00
1063.592, 25450.00
1064.695, 25313.00
1065.797, 25293.00
1066.900, 24949.00
1068.002, 24484.00
1069.105, 24151.00
1070.207, 24153.00
1071.309, 24019.00
1072.411, 24070.00
1073.512, 24183.00
1074.614, 24700.00
1075.715, 24934.00
1076.816, 24596.00
1077.917, 23046.00
1079.018, 20790.00
1080.118, 17840.00
1081.219, 16094.00
1082.319, 14768.00
1083.419, 14122.00
1084.519, 13661.00
1085.619, 13656.00
1086.719, 13349.00
1087.818, 13126.00
1088.918, 13009.00
1090.017, 13061.00
1091.116, 12791.00
1092.215, 12843.00
1093.314, 12761.00
1094.412, 12721.00
1095.510, 12625.00
1096.609, 12734.00
1097.707, 12499.00
1098.805, 12596.00
1099.902, 12622.00
1101.000, 12540.59
1102.097, 12256.35
1103.195, 12379.65
1104.292, 12410.83
1105.389, 12073.96
1106.485, 12212.34
1107.582, 12160.27
1108.678, 12100.39
1109.775, 12305.66
1110.871, 12022.33
1111.967, 12223.40
1113.062, 12231.10
1114.158, 12327.31
1115.254, 12231.88
1116.349, 12195.64
1117.444, 12097.00
1118.539, 12140.00
1119.634, 12195.00
1120.728, 12317.00
1121.823, 12126.00
1122.917, 12065.00
1124.011, 12169.00
1125.105, 12157.00
1126.199, 12320.00
1127.293, 12071.00
1128.386, 12185.00
1129.480, 12216.00
1130.573, 12150.00
1131.666, 12256.00
1132.759, 11993.00
1133.851, 12122.00
1134.944, 11983.00
1136.036, 12131.00
1137.129, 12093.00
1138.221, 12051.00
1139.313, 12127.00
1140.404, 12130.00
1141.496, 12077.00
1142.587, 12139.00
1143.678, 12079.00
1144.770, 12166.00
1145.860, 12108.55
1146.951, 12100.32
1148.042, 12000.00
1149.132, 12062.00
1150.223, 11970.00
1151.313, 11969.00
1152.403, 12108.00
1153.492, 12151.00
1154.582, 12052.00
1155.671, 12069.00
1156.761, 12042.00
1157.850, 12040.00
1158.939, 12008.00
1160.028, 12037.00
1161.116, 12092.00
1162.205, 12025.00
1163.293, 11980.00
1164.381, 12033.00
1165.469, 12023.00
1166.557, 11994.00
1167.645, 12084.00
1168.732, 12026.15
1169.820, 12004.19
1170.907, 11997.00
1171.994, 11891.00
1173.081, 11909.00
1174.167, 11835.00
1175.254, 11934.00
1176.340, 11900.03
1177.426, 11874.00
1178.512, 11886.00
1179.598, 11880.00
1180.684, 11823.00
1181.770, 11835.95
1182.855, 11793.00
1183.940, 11800.00
1185.025, 11769.00
1186.110, 11713.00
1187.195, 11814.00
1188.280, 11701.00
1189.364, 11557.00
1190.448, 11819.00
1191.532, 11591.00
1192.616, 11571.00
1193.700, 11659.00
1194.784, 11722.00
1195.867, 11642.00
1196.950, 11614.00
1198.034, 11674.00
1199.117, 11764.00
1200.199, 11698.00
1201.282, 11781.00
1202.364, 11644.00
1203.447, 11677.82
1204.529, 11678.00
1205.611, 11664.00
1206.693, 11669.00
1207.774, 11651.00
1208.856, 11735.00
1209.937, 11694.00
1211.018, 11660.00
1212.099, 11734.00
1213.180, 11632.00
1214.261, 11641.00
1215.341, 11752.00
1216.422, 11687.00
1217.502, 11993.00
1218.582, 11654.00
1219.662, 11593.00
1220.742, 11776.00
1221.821, 11698.00
1222.900, 11525.00
1223.980, 11616.00
1225.059, 11519.00
1226.138, 11665.00
1227.216, 11741.00
1228.295, 11588.00
1229.373, 11689.00
1230.452, 11725.00
1231.530, 11601.00
1232.608, 11528.00
1233.685, 11767.00
1234.763, 11626.00
1235.840, 11785.00
1236.918, 11630.00
1237.995, 11468.00
1239.072, 11743.00
1240.149, 11635.00
1241.225, 11555.00
1242.302, 11589.00
1243.378, 11549.00
1244.454, 11634.00
1245.530, 11575.00
1246.606, 11601.00
1247.681, 11604.00
1248.757, 11575.69
1249.832, 11714.00
1250.907, 11551.00
1251.982, 11588.00
1253.057, 11593.00
1254.132, 11491.00
1255.206, 11581.00
1256.281, 11586.00
1257.355, 11472.00
1258.429, 11569.00
1259.503, 11695.00
1260.576, 11623.00
1261.650, 11377.00
1262.723, 11576.00
1263.797, 11447.00
1264.870, 11329.00
1265.942, 11442.00
1267.015, 11500.00
1268.088, 11492.00
1269.160, 11544.00
1270.232, 11512.00
1271.304, 11512.00
1272.376, 11645.00
1273.448, 11537.00
1274.520, 11402.00
1275.591, 11544.00
1276.662, 11424.00
1277.733, 11440.00
1278.804, 11484.00
1279.875, 11462.00
1280.946, 11449.00
1282.016, 11410.00
1283.086, 11440.00
1284.156, 11357.00
1285.226, 11430.00
1286.296, 11338.00
1287.366, 11433.00
1288.435, 11426.13
1289.505, 11459.41
1290.574, 11428.00
1291.643, 11536.00
1292.711, 11471.00
1293.780, 11449.00
1294.849, 11520.00
1295.917, 11391.00
1296.985, 11409.00
1298.053, 11476.00
1299.121, 11282.00
1300.189, 11352.00
1301.256, 11364.00
1302.323, 11431.00
1303.391, 11442.00
1304.458, 11400.00
1305.524, 11444.00
1306.591, 11466.00
1307.658, 11413.00
1308.724, 11373.00
1309.790, 11421.34
1310.856, 11507.00
1311.922, 11472.00
1312.988, 11403.00
1314.053, 11352.00
1315.119, 11453.00
1316.184, 11431.00
1317.249, 11404.00
1318.314, 11535.00
1319.379, 11424.00
1320.443, 11455.00
1321.508, 11415.00
1322.572, 11397.00
1323.636, 11511.00
1324.700, 11526.00
1325.764, 11591.00
1326.827, 11524.00
1327.891, 11544.00
1328.954, 11550.86
1330.017, 11588.00
1331.080, 11579.00
1332.143, 11590.00
1333.205, 11646.00
1334.268, 11537.00
1335.330, 11589.00
1336.392, 11751.00
1337.454, 11534.00
1338.516, 11631.00
1339.578, 11582.00
1340.639, 11669.00
1341.701, 11682.00
1342.762, 11607.00
1343.823, 11838.00
1344.883, 11745.00
1345.944, 11885.00
1347.005, 11758.00
1348.065, 11740.00
1349.125, 11785.00
1350.185, 11864.00
1351.245, 11725.00
1352.305, 11925.00
1353.364, 11764.00
1354.424, 11852.00
1355.483, 11695.00
1356.542, 11876.00
1357.601, 11851.00
1358.659, 11918.00
1359.718, 11937.00
1360.776, 11987.00
1361.834, 11923.00
1362.893, 11967.00
1363.950, 12007.00
1365.008, 12233.46
1366.066, 12145.00
1367.123, 12182.89
1368.180, 11985.00
1369.237, 12080.00
1370.294, 12075.00
1371.351, 11979.00
1372.408, 12080.00
1373.464, 11976.00
1374.520, 12072.00
1375.576, 12219.00
1376.632, 12038.00
1377.688, 12226.00
1378.744, 12234.00
1379.799, 12380.00
1380.854, 12323.00
1381.910, 12344.00
1382.965, 12342.00
1384.019, 12347.00
1385.074, 12369.07
1386.128, 12360.52
1387.183, 12429.00
1388.237, 12345.00
1389.291, 12408.67
1390.345, 12380.08
1391.398, 12532.00
1392.452, 12424.00
1393.505, 12493.00
1394.558, 12402.00
1395.611, 12556.00
1396.664, 12450.00
1397.717, 12587.00
1398.769, 12598.00
1399.822, 12601.00
1400.874, 12574.00
1401.926, 12450.00
1402.978, 12510.00
1404.029, 12618.00
1405.081, 12450.00
1406.132, 12517.00
1407.183, 12525.00
1408.234, 12479.00
1409.285, 12670.00
1410.336, 12536.00
1411.387, 12597.00
1412.437, 12522.00
1413.487, 12539.00
1414.537, 12545.00
1415.587, 12488.00
1416.637, 12654.00
1417.686, 12547.00
1418.736, 12569.00
1419.785, 12653.00
1420.834, 12633.00
1421.883, 12566.00
1422.932, 12497.00
1423.980, 12575.00
1425.029, 12574.00
1426.077, 12570.00
1427.125, 12548.00
1428.173, 12562.92
1429.221, 12651.00
1430.269, 12568.00
1431.316, 12636.00
1432.363, 12613.00
1433.410, 12654.00
1434.457, 12760.00
1435.504, 12693.00
1436.551, 12743.00
1437.597, 12776.00
1438.644, 12785.00
1439.690, 12793.00
1440.736, 12814.00
1441.781, 12754.00
1442.827, 12733.00
1443.873, 12791.00
1444.918, 12838.00
1445.963, 12782.00
1447.008, 12927.00
1448.053, 12860.00
1449.098, 12962.00
1450.142, 12828.00
1451.186, 12830.00
1452.231, 12841.00
1453.275, 12749.00
1454.319, 12714.00
1455.362, 12760.00
1456.406, 12786.00
1457.449, 12785.00
1458.492, 12840.00
1459.535, 12856.00
1460.578, 12651.00
1461.621, 12705.00
1462.663, 12676.00
1463.706, 12643.00
1464.748, 12682.00
1465.790, 12686.05
1466.832, 12708.78
1467.874, 12785.00
1468.915, 12706.00
1469.957, 12812.00
1470.998, 12675.00
1472.039, 12636.00
1473.080, 12713.00
1474.121, 12693.00
1475.161, 12642.00
1476.202, 12753.73
1477.242, 12729.00
1478.282, 12838.00
1479.322, 12706.00
1480.362, 12548.00
1481.401, 12717.00
1482.441, 12698.00
1483.480, 12555.00
1484.519, 12521.00
1485.558, 12578.00
1486.597, 12483.00
1487.636, 12658.00
1488.674, 12509.00
1489.712, 12424.00
1490.751, 12552.00
1491.788, 12682.00
1492.826, 12541.00
1493.864, 12523.00
1494.901, 12477.00
1495.939, 12584.00
1496.976, 12524.00
1498.013, 12467.00
1499.050, 12600.00
1500.086, 12583.00
1501.123, 12564.00
1502.159, 12505.00
1503.195, 12595.00
1504.231, 12621.00
1505.267, 12616.00
1506.303, 12499.00
1507.338, 12566.00
1508.374, 12622.00
1509.409, 12416.00
1510.444, 12654.00
1511.479, 12548.00
1512.514, 12584.00
1513.548, 12472.00
1514.583, 12540.00
1515.617, 12596.00
1516.651, 12484.00
1517.685, 12450.00
1518.718, 12433.00
1519.752, 12430.92
1520.785, 12409.00
1521.819, 12479.00
1522.852, 12522.00
1523.885, 12503.00
1524.917, 12495.00
1525.950, 12470.00
1526.982, 12552.00
1528.015, 12415.00
1529.047, 12513.00
1530.079, 12376.00
1531.110, 12358.00
1532.142, 12422.00
1533.173, 12400.00
1534.205, 12402.00
1535.236, 12487.00
1536.267, 12342.00
1537.298, 12443.00
1538.328, 12581.00
1539.359, 12504.00
1540.389, 12553.00
1541.419, 12601.00
1542.449, 12621.00
1543.479, 12569.00
1544.508, 12480.00
1545.538, 12594.00
1546.567, 12596.00
1547.596, 12770.00
1548.625, 12567.00
1549.654, 12800.00
1550.683, 12669.00
1551.711, 12814.00
1552.740, 13077.00
1553.768, 13323.00
1554.796, 13268.00
1555.824, 12919.00
1556.851, 12600.00
1557.879, 12556.00
1558.906, 12436.00
1559.933, 12567.00
1560.960, 12498.00
1561.987, 12500.00
1563.014, 12571.00
1564.041, 12312.00
1565.067, 12375.00
1566.093, 12462.00
1567.119, 12556.00
1568.145, 12398.00
1569.171, 12681.00
1570.196, 12938.00
1571.222, 12472.00
1572.247, 12484.00
1573.272, 12559.00
1574.297, 12549.00
1575.322, 12468.00
1576.346, 12435.00
1577.371, 12447.00
1578.395, 12483.00
##END=



