##NAMES=Spessartine
##RRUFFID=R080053
##IDEAL CHEMISTRY=Mn^2+^_3_Al_2_(SiO_4_)_3_
##LOCALITY=East Africa
##OWNER=RRUFF
##SOURCE=www.multicolour.com
##DESCRIPTION=Transparent orange fragments
##STATUS=The identification of this mineral has been confirmed by X-ray diffraction and chemical analysis
##URL=rruff.info/R080053
##MEASURED CHEMISTRY=(Mn^2+^_1.32_Mg_0.96_Fe^2+^_0.38_Fe^3+^_0.04_Ca_0.30_)Al_2.00_((Si_0.99_Al_0.01_)O_4_)_3_; Fe^2+^ and Fe^3+^ estimated by charge balance
##PIN_ID=L01780
##ORIENTATION=Laser parallel to a* (1 0 0). Fiducial mark perpendicular to laser is parallel to c [0 0 1]
62.86500, 161.0000
64.10500, 163.0000
65.34500, 118.0000
66.58500, 117.0000
67.82500, 131.0000
69.06500, 147.0000
70.30500, 152.0000
71.54400, 124.0000
72.78300, 141.0000
74.02200, 130.0000
75.26100, 174.0000
76.50000, 153.0000
77.73900, 128.0000
78.97700, 182.0000
80.21500, 227.0000
81.45400, 178.0000
82.69200, 190.0000
83.92900, 231.0000
85.16700, 224.0000
86.40400, 217.0000
87.64200, 289.0000
88.87900, 308.0000
90.11600, 383.0000
91.35300, 472.0000
92.58900, 556.0000
93.82600, 591.0000
95.06200, 688.0000
96.29900, 780.0000
97.53500, 923.0000
98.77000, 1053.000
100.0060, 1191.000
101.2420, 1332.000
102.4770, 1508.000
103.7120, 1705.000
104.9470, 1850.000
106.1820, 2195.000
107.4170, 2332.000
108.6520, 2519.000
109.8860, 2596.000
111.1200, 2633.000
112.3540, 2732.000
113.5880, 2889.000
114.8220, 3044.000
116.0560, 3145.000
117.2890, 3304.000
118.5230, 3399.000
119.7560, 3415.000
120.9890, 3413.000
122.2220, 3454.000
123.4540, 3508.000
124.6870, 3544.000
125.9190, 3546.000
127.1510, 3650.000
128.3830, 3635.000
129.6150, 3706.000
130.8470, 3729.000
132.0780, 3772.000
133.3100, 3742.000
134.5410, 3785.000
135.7720, 3725.000
137.0030, 3837.000
138.2330, 3936.000
139.4640, 3887.000
140.6940, 3990.000
141.9250, 3962.000
143.1550, 3905.000
144.3850, 3929.000
145.6140, 4002.000
146.8440, 3964.000
148.0730, 3987.000
149.3030, 3912.000
150.5320, 3979.000
151.7610, 3922.000
152.9890, 4008.000
154.2180, 3965.000
155.4470, 3971.000
156.6750, 4087.000
157.9030, 3950.000
159.1310, 4102.000
160.3590, 4195.000
161.5860, 4210.000
162.8140, 4348.000
164.0410, 4517.000
165.2680, 4663.000
166.4950, 4852.990
167.7220, 5059.041
168.9490, 5265.000
170.1750, 5514.000
171.4020, 5774.000
172.6280, 6027.000
173.8540, 6249.000
175.0800, 6178.000
176.3060, 6237.000
177.5310, 5962.000
178.7570, 5759.000
179.9820, 5493.000
181.2070, 5290.000
182.4320, 5134.000
183.6570, 4897.000
184.8810, 4894.000
186.1060, 4896.000
187.3300, 4863.000
188.5540, 4794.000
189.7780, 4754.000
191.0020, 4848.000
192.2250, 4787.000
193.4490, 5041.000
194.6720, 5099.000
195.8950, 5213.000
197.1180, 5230.000
198.3410, 5313.000
199.5640, 5367.000
200.7860, 5509.000
202.0080, 5573.000
203.2310, 5612.000
204.4530, 5633.000
205.6740, 5760.000
206.8960, 5819.000
208.1180, 5845.000
209.3390, 5963.000
210.5600, 5981.000
211.7810, 5971.000
213.0020, 6095.000
214.2230, 5989.000
215.4430, 5943.000
216.6640, 5916.000
217.8840, 5969.000
219.1040, 5890.000
220.3240, 5824.000
221.5430, 5916.000
222.7630, 5797.000
223.9820, 5789.000
225.2020, 5816.000
226.4210, 5775.000
227.6400, 5674.000
228.8590, 5696.000
230.0770, 5584.000
231.2960, 5652.000
232.5140, 5668.000
233.7320, 5548.000
234.9500, 5690.000
236.1680, 5703.000
237.3850, 5639.000
238.6030, 5662.000
239.8200, 5658.000
241.0370, 5582.000
242.2540, 5569.000
243.4710, 5596.000
244.6880, 5539.804
245.9040, 5654.000
247.1210, 5524.000
248.3370, 5510.000
249.5530, 5580.000
250.7690, 5552.000
251.9840, 5536.000
253.2000, 5529.000
254.4150, 5494.000
255.6300, 5531.000
256.8450, 5421.000
258.0600, 5530.000
259.2750, 5470.000
260.4900, 5511.000
261.7040, 5454.000
262.9180, 5454.000
264.1320, 5468.000
265.3460, 5538.000
266.5600, 5541.000
267.7730, 5407.000
268.9870, 5379.000
270.2000, 5470.000
271.4130, 5631.000
272.6260, 5517.000
273.8390, 5508.000
275.0520, 5625.000
276.2640, 5570.000
277.4760, 5609.000
278.6880, 5568.000
279.9000, 5643.000
281.1120, 5594.000
282.3240, 5616.000
283.5350, 5666.000
284.7470, 5582.000
285.9580, 5724.000
287.1690, 5682.000
288.3800, 5698.000
289.5900, 5782.000
290.8010, 5835.000
292.0110, 5832.000
293.2210, 5814.000
294.4310, 5844.000
295.6410, 5859.000
296.8510, 5920.000
298.0600, 5937.000
299.2700, 5991.850
300.4790, 5999.000
301.6880, 6102.000
302.8970, 6134.825
304.1060, 6196.548
305.3140, 6267.000
306.5230, 6277.000
307.7310, 6315.000
308.9390, 6393.000
310.1470, 6411.000
311.3550, 6544.000
312.5620, 6619.000
313.7700, 6717.000
314.9770, 6965.000
316.1840, 7025.000
317.3910, 7210.000
318.5980, 7260.000
319.8040, 7473.000
321.0110, 7800.000
322.2170, 7714.000
323.4230, 8203.000
324.6290, 8527.000
325.8350, 8721.101
327.0410, 9082.569
328.2460, 9330.000
329.4510, 9706.000
330.6570, 10091.00
331.8620, 10621.00
333.0660, 10859.00
334.2710, 11508.00
335.4760, 11712.00
336.6800, 12126.00
337.8840, 12615.00
339.0880, 13031.00
340.2920, 13643.00
341.4960, 14196.00
342.6990, 15114.00
343.9030, 16252.00
345.1060, 17624.00
346.3090, 19109.00
347.5120, 21146.00
348.7140, 23173.00
349.9170, 25348.00
351.1190, 27969.00
352.3220, 30642.00
353.5240, 32877.00
354.7260, 34887.00
355.9270, 35889.00
357.1290, 35965.00
358.3300, 35543.00
359.5320, 33744.00
360.7330, 31294.00
361.9340, 28801.00
363.1340, 26171.00
364.3350, 23689.00
365.5360, 21847.00
366.7360, 20054.00
367.9360, 18710.00
369.1360, 17740.00
370.3360, 16916.00
371.5350, 16144.00
372.7350, 15689.00
373.9340, 15203.00
375.1330, 14608.00
376.3320, 14043.00
377.5310, 13498.00
378.7300, 12909.04
379.9280, 12431.00
381.1270, 11793.00
382.3250, 11219.00
383.5230, 10732.00
384.7210, 10187.00
385.9180, 9630.000
387.1160, 9180.000
388.3130, 8681.000
389.5100, 8286.000
390.7080, 7875.000
391.9040, 7564.000
393.1010, 7156.000
394.2980, 6920.000
395.4940, 6723.000
396.6900, 6469.000
397.8860, 6387.000
399.0820, 6204.000
400.2780, 6076.000
401.4740, 5892.000
402.6690, 5813.000
403.8640, 5746.000
405.0590, 5676.000
406.2540, 5620.000
407.4490, 5476.000
408.6440, 5439.000
409.8380, 5436.000
411.0320, 5334.000
412.2260, 5198.000
413.4200, 5325.000
414.6140, 5279.000
415.8080, 5152.000
417.0010, 5086.000
418.1950, 5165.000
419.3880, 5017.000
420.5810, 4998.000
421.7740, 5082.000
422.9660, 5050.000
424.1590, 5022.000
425.3510, 5074.000
426.5430, 4998.000
427.7350, 4978.000
428.9270, 5067.000
430.1190, 4959.000
431.3100, 5012.000
432.5020, 4985.000
433.6930, 4992.000
434.8840, 4946.000
436.0750, 4902.000
437.2650, 4944.000
438.4560, 4966.000
439.6460, 4973.000
440.8370, 4969.000
442.0270, 4983.000
443.2160, 5001.000
444.4060, 4994.669
445.5960, 4971.000
446.7850, 5003.000
447.9740, 5036.000
449.1640, 5067.000
450.3520, 5006.000
451.5410, 4980.000
452.7300, 5007.000
453.9180, 5077.000
455.1060, 5092.000
456.2950, 5188.000
457.4830, 5122.000
458.6700, 5164.000
459.8580, 5304.000
461.0450, 5273.000
462.2330, 5240.000
463.4200, 5328.000
464.6070, 5369.000
465.7940, 5332.000
466.9800, 5348.000
468.1670, 5507.000
469.3530, 5529.000
470.5390, 5551.000
471.7250, 5723.000
472.9110, 5757.000
474.0970, 5833.000
475.2820, 5922.000
476.4670, 6133.000
477.6530, 6161.000
478.8380, 6325.000
480.0220, 6406.000
481.2070, 6439.000
482.3920, 6525.000
483.5760, 6487.000
484.7600, 6213.000
485.9440, 6267.000
487.1280, 6177.000
488.3120, 6036.000
489.4950, 6038.000
490.6790, 6027.000
491.8620, 6015.000
493.0450, 6144.000
494.2280, 6142.000
495.4110, 6405.000
496.5930, 6536.000
497.7760, 6786.000
498.9580, 7074.000
500.1400, 7292.000
501.3220, 7598.000
502.5040, 7895.000
503.6850, 8109.000
504.8670, 8414.000
506.0480, 8508.000
507.2290, 8264.000
508.4100, 8086.000
509.5910, 7748.000
510.7710, 7547.000
511.9520, 7292.000
513.1320, 7143.000
514.3120, 7002.000
515.4920, 6861.000
516.6720, 6842.000
517.8520, 6841.000
519.0310, 6774.000
520.2110, 6918.000
521.3900, 7019.000
522.5690, 7067.000
523.7480, 7089.000
524.9260, 7121.000
526.1050, 7135.000
527.2830, 7163.117
528.4610, 7268.000
529.6390, 7241.000
530.8170, 7234.000
531.9950, 7333.000
533.1720, 7396.000
534.3500, 7511.000
535.5270, 7624.000
536.7040, 7847.000
537.8810, 7994.000
539.0570, 8272.000
540.2340, 8586.000
541.4100, 8970.000
542.5870, 9382.000
543.7630, 9870.000
544.9390, 10388.00
546.1140, 11129.00
547.2900, 11865.00
548.4650, 12914.00
549.6410, 14136.00
550.8160, 15308.00
551.9910, 16651.00
553.1650, 17593.00
554.3400, 18868.00
555.5140, 19768.00
556.6890, 20328.00
557.8630, 20110.00
559.0370, 19584.00
560.2100, 18479.00
561.3840, 16998.00
562.5580, 15484.00
563.7310, 13890.00
564.9040, 12434.00
566.0770, 11286.00
567.2500, 10192.00
568.4220, 9519.000
569.5950, 8781.000
570.7670, 8333.000
571.9390, 7962.000
573.1110, 7607.000
574.2830, 7253.000
575.4550, 7063.898
576.6260, 6842.547
577.7980, 6786.000
578.9690, 6618.000
580.1400, 6579.000
581.3110, 6608.000
582.4810, 6488.200
583.6520, 6420.000
584.8220, 6369.000
585.9920, 6318.000
587.1620, 6269.000
588.3320, 6208.000
589.5020, 6242.000
590.6720, 6146.000
591.8410, 6228.000
593.0100, 6147.000
594.1790, 6244.000
595.3480, 6098.000
596.5170, 6107.000
597.6850, 6170.000
598.8540, 6186.000
600.0220, 6154.000
601.1900, 6125.000
602.3580, 6148.000
603.5260, 6209.000
604.6930, 6077.000
605.8610, 6037.000
607.0280, 6110.000
608.1950, 6058.000
609.3620, 5945.000
610.5290, 5941.000
611.6950, 5865.000
612.8620, 5958.000
614.0280, 5839.000
615.1940, 5757.000
616.3600, 5837.000
617.5260, 5897.000
618.6920, 5840.000
619.8570, 5854.000
621.0220, 5911.000
622.1880, 5981.000
623.3530, 6006.000
624.5170, 6113.000
625.6820, 6233.000
626.8470, 6278.000
628.0110, 6461.000
629.1750, 6511.000
630.3390, 6723.000
631.5030, 6850.000
632.6670, 7037.000
633.8300, 7333.000
634.9930, 7318.000
636.1570, 7375.000
637.3200, 7585.000
638.4820, 7443.667
639.6450, 7398.123
640.8080, 7210.000
641.9700, 7144.000
643.1320, 6896.000
644.2940, 6889.000
645.4560, 6599.000
646.6180, 6541.000
647.7790, 6496.000
648.9410, 6338.000
650.1020, 6257.000
651.2630, 6288.000
652.4240, 6114.000
653.5850, 6136.000
654.7450, 5986.000
655.9060, 6009.000
657.0660, 6008.000
658.2260, 5933.000
659.3860, 6037.000
660.5460, 5923.000
661.7050, 5858.000
662.8650, 5925.000
664.0240, 5924.000
665.1830, 5761.000
666.3420, 5840.000
667.5010, 5837.000
668.6600, 5798.000
669.8180, 5831.000
670.9760, 5751.000
672.1340, 5757.000
673.2920, 5681.000
674.4500, 5822.000
675.6080, 5769.000
676.7650, 5789.000
677.9230, 5668.000
679.0800, 5738.000
680.2370, 5672.000
681.3940, 5745.000
682.5500, 5700.000
683.7070, 5653.000
684.8630, 5663.000
686.0190, 5712.000
687.1750, 5745.000
688.3310, 5736.000
689.4870, 5764.000
690.6420, 5670.000
691.7980, 5707.000
692.9530, 5731.000
694.1080, 5762.000
695.2630, 5667.000
696.4180, 5669.000
697.5720, 5711.000
698.7260, 5772.000
699.8810, 5668.000
701.0350, 5835.000
702.1890, 5840.000
703.3420, 5780.000
704.4960, 5884.176
705.6490, 5828.070
706.8030, 5966.000
707.9560, 5845.000
709.1080, 5882.000
710.2610, 6002.000
711.4140, 5897.000
712.5660, 5962.000
713.7180, 5879.000
714.8710, 5919.000
716.0230, 5912.401
717.1740, 6012.000
718.3260, 5904.000
719.4770, 5927.000
720.6290, 5910.000
721.7800, 6058.000
722.9310, 5935.762
724.0810, 6042.861
725.2320, 6098.987
726.3830, 6106.888
727.5330, 5922.132
728.6830, 5986.164
729.8330, 5950.492
730.9830, 5910.731
732.1320, 6078.000
733.2820, 6027.000
734.4310, 6104.000
735.5800, 6037.000
736.7290, 6107.000
737.8780, 6113.000
739.0270, 6166.000
740.1750, 6124.000
741.3240, 6185.000
742.4720, 6194.000
743.6200, 6107.000
744.7680, 6148.000
745.9150, 6184.000
747.0630, 6266.000
748.2100, 6261.000
749.3570, 6121.000
750.5050, 6285.000
751.6510, 6258.000
752.7980, 6198.000
753.9450, 6347.000
755.0910, 6373.000
756.2370, 6223.000
757.3830, 6369.000
758.5290, 6271.000
759.6750, 6393.000
760.8200, 6409.000
761.9660, 6315.000
763.1110, 6426.000
764.2560, 6483.000
765.4010, 6355.000
766.5460, 6262.000
767.6900, 6384.000
768.8350, 6320.000
769.9790, 6421.000
771.1230, 6381.000
772.2670, 6456.000
773.4110, 6535.000
774.5550, 6378.000
775.6980, 6499.000
776.8410, 6515.000
777.9840, 6413.000
779.1270, 6582.000
780.2700, 6511.000
781.4130, 6525.000
782.5550, 6584.000
783.6970, 6602.000
784.8400, 6619.000
785.9820, 6653.000
787.1230, 6741.000
788.2650, 6626.000
789.4070, 6702.000
790.5480, 6737.000
791.6890, 6865.000
792.8300, 6712.000
793.9710, 6853.000
795.1110, 6858.000
796.2520, 6878.000
797.3920, 6956.000
798.5330, 6987.463
799.6730, 7064.000
800.8120, 7106.000
801.9520, 7191.873
803.0920, 7304.000
804.2310, 7387.000
805.3700, 7489.000
806.5090, 7623.000
807.6480, 7636.000
808.7870, 7831.000
809.9250, 7922.000
811.0640, 8097.000
812.2020, 8148.484
813.3400, 8130.000
814.4780, 8256.000
815.6160, 8379.000
816.7530, 8486.000
817.8910, 8432.000
819.0280, 8438.000
820.1650, 8421.000
821.3020, 8487.000
822.4380, 8566.000
823.5750, 8566.000
824.7110, 8646.000
825.8480, 8562.000
826.9840, 8639.000
828.1200, 8651.000
829.2560, 8880.000
830.3910, 8789.000
831.5270, 8934.000
832.6620, 8888.000
833.7970, 9054.000
834.9320, 9218.000
836.0670, 9329.000
837.2010, 9518.606
838.3360, 9712.000
839.4700, 9861.000
840.6040, 10184.00
841.7380, 10362.00
842.8720, 10638.00
844.0060, 11164.00
845.1390, 11516.00
846.2720, 11949.00
847.4060, 12510.00
848.5390, 13000.00
849.6710, 13533.00
850.8040, 14057.00
851.9370, 14278.00
853.0690, 14668.00
854.2010, 14873.00
855.3330, 15053.00
856.4650, 14835.00
857.5970, 14555.00
858.7280, 14358.00
859.8600, 13948.00
860.9910, 13724.00
862.1220, 13204.00
863.2530, 13083.00
864.3830, 12834.00
865.5140, 12548.00
866.6440, 12393.00
867.7740, 12380.00
868.9040, 12324.00
870.0340, 12342.00
871.1640, 12443.00
872.2940, 12588.00
873.4230, 12733.18
874.5520, 12950.78
875.6810, 13169.00
876.8100, 13486.00
877.9390, 13813.56
879.0680, 14200.13
880.1960, 14595.00
881.3240, 15060.00
882.4520, 15581.00
883.5800, 16119.00
884.7080, 16605.00
885.8360, 17221.00
886.9630, 17914.00
888.0900, 18583.00
889.2170, 19397.00
890.3440, 20223.00
891.4710, 21193.00
892.5980, 22264.00
893.7240, 23795.00
894.8510, 25717.00
895.9770, 27860.00
897.1030, 30527.00
898.2280, 33639.00
899.3540, 37770.00
900.4800, 42796.00
901.6050, 48717.00
902.7300, 55200.00
903.8550, 63528.00
904.9800, 71949.00
906.1050, 82210.00
907.2290, 92365.00
908.3530, 102882.0
909.4780, 111977.0
910.6020, 119008.0
911.7250, 122799.0
912.8490, 123818.0
913.9730, 121650.0
915.0960, 115123.0
916.2190, 106347.0
917.3420, 96206.00
918.4650, 85237.00
919.5880, 74932.00
920.7100, 65453.00
921.8330, 56962.00
922.9550, 49735.00
924.0770, 44054.00
925.1990, 38816.00
926.3200, 34994.00
927.4420, 31354.00
928.5630, 28600.00
929.6850, 25787.00
930.8060, 23875.00
931.9270, 22006.00
933.0470, 20518.00
934.1680, 19092.00
935.2880, 18006.00
936.4090, 17133.00
937.5290, 16127.00
938.6490, 15391.00
939.7680, 14807.00
940.8880, 14084.00
942.0070, 13662.00
943.1270, 13029.00
944.2460, 12785.00
945.3650, 12574.00
946.4830, 12137.00
947.6020, 11921.00
948.7210, 11598.00
949.8390, 11414.00
950.9570, 11200.00
952.0750, 10999.00
953.1930, 10834.00
954.3100, 10693.00
955.4280, 10700.00
956.5450, 10587.00
957.6620, 10396.00
958.7790, 10205.00
959.8960, 10322.00
961.0130, 10225.00
962.1290, 10053.00
963.2460, 10091.00
964.3620, 10012.00
965.4780, 10052.00
966.5940, 9873.000
967.7090, 9889.000
968.8250, 9969.000
969.9400, 9783.000
971.0550, 9816.000
972.1700, 9743.000
973.2850, 9758.000
974.4000, 9719.322
975.5140, 9728.000
976.6290, 9681.000
977.7430, 9648.000
978.8570, 9706.000
979.9710, 9632.000
981.0850, 9563.000
982.1980, 9597.000
983.3120, 9453.000
984.4250, 9550.000
985.5380, 9415.000
986.6510, 9405.000
987.7630, 9370.000
988.8760, 9363.000
989.9880, 9346.542
991.1010, 9334.885
992.2130, 9332.000
993.3250, 9328.000
994.4360, 9342.000
995.5480, 9353.000
996.6590, 9361.000
997.7710, 9427.000
998.8820, 9410.000
999.9930, 9594.000
1001.104, 9592.000
1002.214, 9684.000
1003.325, 9678.000
1004.435, 9658.000
1005.545, 9747.000
1006.655, 9715.000
1007.765, 9860.000
1008.874, 9846.000
1009.984, 9838.000
1011.093, 9855.000
1012.202, 10065.00
1013.311, 9946.000
1014.420, 10121.00
1015.529, 10091.00
1016.637, 10260.00
1017.746, 10222.00
1018.854, 10337.00
1019.962, 10315.00
1021.069, 10462.00
1022.177, 10535.00
1023.285, 10663.00
1024.392, 10723.00
1025.499, 10694.00
1026.606, 10882.00
1027.713, 10936.00
1028.820, 10957.38
1029.926, 11250.95
1031.033, 11471.01
1032.139, 11621.30
1033.245, 11493.29
1034.351, 11724.64
1035.456, 11811.88
1036.562, 11893.30
1037.667, 12175.11
1038.773, 12087.58
1039.878, 12366.22
1040.983, 12362.00
1042.087, 12413.00
1043.192, 12273.00
1044.296, 12152.00
1045.400, 12010.00
1046.505, 11679.00
1047.608, 11374.00
1048.712, 11293.00
1049.816, 10841.00
1050.919, 10589.00
1052.022, 10301.00
1053.126, 10164.00
1054.229, 9889.000
1055.331, 9838.000
1056.434, 9568.000
1057.536, 9435.000
1058.639, 9421.000
1059.741, 9264.000
1060.843, 9327.000
1061.944, 9082.000
1063.046, 9147.000
1064.148, 9063.000
1065.249, 8973.000
1066.350, 8834.000
1067.451, 8955.000
1068.552, 8786.000
1069.652, 8709.000
1070.753, 8864.000
1071.853, 8774.000
1072.953, 8829.000
1074.053, 8772.000
1075.153, 8777.000
1076.253, 8712.000
1077.352, 8751.000
1078.452, 8711.000
1079.551, 8584.000
1080.650, 8689.000
1081.749, 8683.000
1082.847, 8632.000
1083.946, 8743.000
1085.044, 8549.000
1086.143, 8560.000
1087.241, 8663.000
1088.338, 8610.000
1089.436, 8644.000
1090.534, 8567.000
1091.631, 8605.000
1092.728, 8544.000
1093.825, 8460.000
1094.922, 8501.000
1096.019, 8467.000
1097.115, 8580.000
1098.212, 8521.000
1099.308, 8549.000
1100.404, 8585.000
1101.500, 8444.000
1102.596, 8647.000
1103.691, 8579.000
1104.787, 8474.000
1105.882, 8623.000
1106.977, 8565.000
1108.072, 8564.000
1109.167, 8715.000
1110.261, 8607.000
1111.356, 8507.000
1112.450, 8584.000
1113.544, 8590.000
1114.638, 8636.000
1115.732, 8614.000
1116.826, 8597.000
1117.919, 8541.000
1119.012, 8576.000
1120.106, 8576.000
1121.199, 8474.000
1122.291, 8490.000
1123.384, 8482.236
1124.476, 8518.000
1125.569, 8544.000
1126.661, 8488.000
1127.753, 8586.000
1128.845, 8642.000
1129.936, 8612.000
1131.028, 8665.000
1132.119, 8682.000
1133.210, 8600.000
1134.301, 8779.000
1135.392, 8680.000
1136.483, 8495.000
1137.573, 8663.000
1138.664, 8674.000
1139.754, 8698.000
1140.844, 8750.000
1141.934, 8651.000
1143.024, 8756.000
1144.113, 8762.000
1145.203, 8698.000
1146.292, 8771.000
1147.381, 8766.000
1148.470, 8701.000
1149.558, 8791.000
1150.647, 8847.000
1151.735, 8965.000
1152.824, 8793.000
1153.912, 8813.000
1155.000, 8912.000
1156.087, 8886.000
1157.175, 9019.000
1158.262, 8942.000
1159.350, 8878.000
1160.437, 9039.000
1161.524, 9068.000
1162.610, 8940.000
1163.697, 8997.000
1164.783, 9085.000
1165.870, 9094.000
1166.956, 9148.000
1168.042, 9181.000
1169.128, 9157.000
1170.213, 9099.000
1171.299, 9203.000
1172.384, 9290.000
1173.469, 9252.000
1174.554, 9217.000
1175.639, 9327.000
1176.723, 9274.000
1177.808, 9297.000
1178.892, 9332.000
1179.976, 9302.851
1181.060, 9373.000
1182.144, 9298.000
1183.228, 9283.000
1184.311, 9295.000
1185.395, 9172.000
1186.478, 9230.000
1187.561, 9173.000
1188.644, 9251.000
1189.726, 9343.000
1190.809, 9334.000
1191.891, 9367.000
1192.974, 9318.000
1194.056, 9249.000
1195.137, 9250.000
1196.219, 9205.000
1197.301, 9154.000
1198.382, 9161.215
1199.463, 9170.228
1200.544, 9175.000
1201.625, 9238.000
1202.706, 9296.000
1203.786, 9322.000
1204.867, 9281.000
1205.947, 9371.000
1207.027, 9325.017
1208.107, 9267.000
1209.187, 9271.000
1210.266, 9239.000
1211.346, 9183.000
1212.425, 9325.000
1213.504, 9260.000
1214.583, 9285.000
1215.662, 9217.000
1216.740, 9419.000
1217.819, 9236.000
1218.897, 9310.000
1219.975, 9327.000
1221.053, 9195.000
1222.131, 9152.000
1223.209, 9138.000
1224.286, 9257.000
1225.363, 9175.000
1226.441, 9275.000
1227.518, 9230.000
1228.594, 9158.000
1229.671, 9096.000
1230.747, 9155.000
1231.824, 9241.000
1232.900, 9345.000
1233.976, 9247.000
1235.052, 9252.000
1236.127, 9344.000
1237.203, 9238.000
1238.278, 9178.000
1239.353, 9324.000
1240.428, 9240.000
1241.503, 9443.000
1242.578, 9320.000
1243.653, 9371.000
1244.727, 9432.000
1245.801, 9536.000
1246.875, 9508.000
1247.949, 9371.000
1249.023, 9430.000
1250.096, 9407.000
1251.170, 9268.000
1252.243, 9407.000
1253.316, 9454.000
1254.389, 9382.000
1255.462, 9511.000
1256.534, 9419.000
1257.606, 9463.614
1258.679, 9346.000
1259.751, 9492.000
1260.823, 9512.000
1261.894, 9505.000
1262.966, 9512.000
1264.037, 9493.948
1265.109, 9509.007
1266.180, 9473.000
1267.251, 9529.000
1268.322, 9580.000
1269.392, 9587.000
1270.463, 9688.000
1271.533, 9636.000
1272.603, 9666.000
1273.673, 9648.000
1274.743, 9705.000
1275.812, 9649.000
1276.882, 9600.000
1277.951, 9554.000
1279.020, 9561.000
1280.089, 9662.000
1281.158, 9817.000
1282.227, 9575.000
1283.295, 9738.000
1284.364, 9625.000
1285.432, 9570.000
1286.500, 9651.000
1287.568, 9532.000
1288.635, 9470.000
1289.703, 9589.000
1290.770, 9621.000
1291.837, 9616.000
1292.904, 9585.000
1293.971, 9666.000
1295.038, 9613.000
1296.104, 9544.000
1297.171, 9620.000
1298.237, 9593.000
1299.303, 9636.000
1300.369, 9541.000
1301.435, 9719.000
1302.500, 9541.000
1303.565, 9516.000
1304.631, 9639.000
1305.696, 9610.000
1306.761, 9655.000
1307.825, 9629.000
1308.890, 9515.000
1309.954, 9562.000
1311.019, 9407.000
1312.083, 9680.000
1313.147, 9510.000
1314.210, 9548.000
1315.274, 9494.000
1316.337, 9494.000
1317.401, 9490.000
1318.464, 9501.000
1319.527, 9500.000
1320.590, 9488.000
1321.652, 9455.000
1322.715, 9475.219
1323.777, 9421.000
1324.839, 9464.000
1325.901, 9521.000
1326.963, 9440.000
1328.024, 9632.000
1329.086, 9502.000
1330.147, 9458.000
1331.208, 9486.000
1332.269, 9383.000
1333.330, 9500.000
1334.391, 9432.000
1335.451, 9589.000
1336.512, 9611.000
1337.572, 9525.000
1338.632, 9569.000
1339.692, 9518.000
1340.751, 9564.000
1341.811, 9632.000
1342.870, 9580.000
1343.929, 9601.000
1344.988, 9488.000
1346.047, 9612.000
1347.106, 9556.000
1348.165, 9602.000
1349.223, 9622.000
1350.281, 9571.000
1351.339, 9704.000
1352.397, 9563.000
1353.455, 9582.000
1354.512, 9524.000
1355.570, 9594.000
1356.627, 9636.000
1357.684, 9658.000
1358.741, 9703.000
1359.798, 9769.000
1360.854, 9657.000
1361.911, 9646.000
1362.967, 9713.000
1364.023, 9684.423
1365.079, 9692.468
1366.135, 9731.000
1367.191, 9702.000
1368.246, 9684.000
1369.301, 9746.000
1370.356, 9723.000
1371.411, 9773.585
1372.466, 9774.551
1373.521, 9823.000
1374.575, 9766.000
1375.630, 9698.000
1376.684, 9657.000
1377.738, 9778.000
1378.791, 9943.000
1379.845, 9950.000
1380.899, 9844.000
1381.952, 9787.000
1383.005, 9803.223
1384.058, 9839.000
1385.111, 9855.000
1386.164, 9871.000
1387.216, 9956.000
1388.268, 9978.000
1389.321, 9967.000
1390.373, 9957.000
1391.425, 10000.00
1392.476, 9975.000
1393.528, 9970.000
1394.579, 9939.000
1395.630, 10104.00
1396.681, 10132.00
1397.732, 10033.00
1398.783, 10192.00
1399.834, 9863.000
1400.884, 10136.00
1401.934, 10155.00
1402.984, 10009.00
1404.034, 10177.00
1405.084, 10058.00
1406.134, 10164.00
1407.183, 10137.00
1408.232, 9997.000
1409.281, 10214.00
1410.330, 10160.00
1411.379, 10199.00
1412.428, 10212.00
1413.476, 10071.00
1414.524, 10163.00
1415.572, 10133.00
1416.620, 10266.00
1417.668, 10082.00
1418.716, 10171.00
1419.763, 10184.00
1420.811, 10206.00
1421.858, 10147.00
1422.905, 10231.00
1423.951, 10105.00
1424.998, 10261.00
1426.045, 10147.00
1427.091, 10172.00
1428.137, 10111.00
1429.183, 10121.00
1430.229, 10190.00
1431.275, 10106.00
1432.320, 10154.00
1433.365, 10042.00
1434.411, 10223.00
1435.456, 10088.00
1436.501, 10239.00
1437.545, 10110.00
1438.590, 10211.00
1439.634, 10077.00
1440.678, 10332.00
1441.722, 10170.00
1442.766, 10169.00
1443.810, 10240.00
1444.854, 10146.00
1445.897, 10149.00
1446.940, 10130.00
1447.983, 10110.81
1449.026, 10198.00
1450.069, 10142.00
1451.112, 10192.00
1452.154, 10269.00
1453.196, 10363.00
1454.238, 10265.00
1455.280, 10244.00
1456.322, 10479.00
1457.364, 10360.00
1458.405, 10370.00
1459.446, 10308.00
1460.487, 10274.00
1461.528, 10326.00
1462.569, 10230.00
1463.610, 10361.00
1464.650, 10344.00
1465.691, 10423.00
1466.731, 10390.00
1467.771, 10462.00
1468.810, 10435.00
1469.850, 10387.00
1470.890, 10438.00
1471.929, 10484.00
1472.968, 10444.00
1474.007, 10378.00
1475.046, 10424.00
1476.085, 10610.00
1477.123, 10542.00
1478.162, 10524.00
1479.200, 10637.00
1480.238, 10541.00
1481.276, 10599.00
1482.313, 10495.00
1483.351, 10501.00
1484.388, 10653.00
1485.425, 10626.00
1486.462, 10580.00
1487.499, 10706.00
1488.536, 10584.00
1489.573, 10566.00
1490.609, 10617.00
1491.645, 10701.00
1492.681, 10786.00
1493.717, 10766.61
1494.753, 10833.00
1495.789, 10737.00
1496.824, 10714.00
1497.859, 10726.00
1498.894, 10756.00
1499.929, 10799.00
1500.964, 10668.00
1501.999, 10771.00
1503.033, 10819.00
1504.067, 10649.00
1505.102, 10666.00
1506.136, 10798.00
1507.169, 10663.00
1508.203, 10855.00
1509.236, 10815.00
1510.270, 10852.00
1511.303, 10730.00
1512.336, 10876.00
1513.369, 10764.00
1514.401, 10746.00
1515.434, 10854.00
1516.466, 10848.00
1517.498, 10753.00
1518.530, 10695.00
1519.562, 10610.00
1520.594, 10777.00
1521.625, 10660.00
1522.657, 10645.00
1523.688, 10788.00
1524.719, 10723.00
1525.750, 10747.00
1526.781, 10644.00
1527.811, 10676.00
1528.841, 10642.00
1529.872, 10611.00
1530.902, 10620.42
1531.932, 10617.70
1532.961, 10604.00
1533.991, 10655.00
1535.020, 10642.00
1536.050, 10666.00
1537.079, 10558.00
1538.108, 10602.25
1539.136, 10653.00
1540.165, 10637.00
1541.193, 10734.00
1542.222, 10789.00
1543.250, 10571.00
1544.278, 10656.00
1545.306, 10569.00
1546.333, 10596.00
1547.361, 10537.00
1548.388, 10630.00
1549.415, 10745.00
1550.442, 10676.00
1551.469, 10631.00
1552.495, 10766.00
1553.522, 10731.00
1554.548, 10797.00
1555.574, 10673.00
1556.600, 10747.00
1557.626, 10819.00
1558.652, 10781.00
1559.677, 10620.00
1560.703, 10746.00
1561.728, 10678.00
1562.753, 10791.00
1563.778, 10713.00
1564.803, 10671.00
1565.827, 10705.00
1566.851, 10636.00
1567.876, 10679.00
1568.900, 10695.00
1569.924, 10766.00
1570.947, 10605.00
1571.971, 10636.00
1572.994, 10758.00
1574.017, 10660.00
1575.041, 10707.00
1576.063, 10808.00
1577.086, 10744.00
1578.109, 10631.00
##END=



