##NAMES=Spessartine
##RRUFFID=R060451
##IDEAL CHEMISTRY=Mn^2+^_3_Al_2_(SiO_4_)_3_
##LOCALITY=unknown
##OWNER=RRUFF
##SOURCE=Gemological Institute of America
##DESCRIPTION=Reddish orange fragment
##STATUS=The identification of this mineral has been confirmed by X-ray diffraction and chemical analysis
##URL=rruff.info/R060451
##MEASURED CHEMISTRY=(Mn_1.26_Mg_0.98_Fe^2+^_0.39_Ca_0.37_)_Î£=3_Al_2.00_(Si_1.00_O_4_)_3_; trace amounts of Ti
##PIN_ID=L01336
##ORIENTATION=Laser parallel to c* (0 0 1). Fiducial mark perpendicular to laser is parallel to a [1 0 0]
62.89900, 931.0000
64.14700, 981.0000
65.39500, 962.0000
66.64300, 987.0000
67.89000, 1001.000
69.13800, 1009.000
70.38500, 1039.000
71.63200, 1091.000
72.87900, 1115.000
74.12500, 1166.000
75.37200, 1199.000
76.61800, 1274.000
77.86400, 1329.000
79.10900, 1382.000
80.35500, 1514.000
81.60000, 1508.000
82.84600, 1626.000
84.09100, 1606.000
85.33500, 1608.000
86.58000, 1583.000
87.82400, 1555.000
89.06900, 1604.000
90.31300, 1591.000
91.55600, 1648.000
92.80000, 1722.000
94.04300, 1711.000
95.28700, 1801.000
96.53000, 1848.000
97.77300, 1999.000
99.01500, 2147.000
100.2580, 2282.000
101.5000, 2440.000
102.7420, 2674.000
103.9840, 2932.000
105.2260, 3147.000
106.4670, 3397.000
107.7080, 3599.712
108.9490, 3789.000
110.1900, 3967.000
111.4310, 4018.000
112.6720, 4120.000
113.9120, 4281.000
115.1520, 4416.000
116.3920, 4666.000
117.6320, 4766.000
118.8710, 4833.000
120.1110, 4835.000
121.3500, 4954.000
122.5890, 4907.000
123.8270, 5035.000
125.0660, 5022.000
126.3040, 5056.000
127.5430, 5119.000
128.7810, 5150.000
130.0180, 5250.000
131.2560, 5219.000
132.4940, 5214.000
133.7310, 5230.000
134.9680, 5322.000
136.2050, 5267.000
137.4410, 5245.000
138.6780, 5465.000
139.9140, 5391.000
141.1500, 5430.000
142.3860, 5378.000
143.6220, 5438.000
144.8570, 5263.000
146.0920, 5376.000
147.3280, 5306.000
148.5620, 5363.000
149.7970, 5386.000
151.0320, 5361.000
152.2660, 5386.000
153.5000, 5462.000
154.7340, 5483.000
155.9680, 5542.000
157.2020, 5491.000
158.4350, 5484.000
159.6680, 5556.000
160.9010, 5561.000
162.1340, 5625.000
163.3670, 5602.000
164.5990, 5713.000
165.8310, 5774.000
167.0630, 5768.000
168.2950, 5890.000
169.5270, 5905.000
170.7580, 6059.000
171.9900, 6241.000
173.2210, 6311.000
174.4510, 6483.000
175.6820, 6492.000
176.9130, 6530.000
178.1430, 6516.000
179.3730, 6388.000
180.6030, 6372.744
181.8330, 6174.000
183.0620, 6174.000
184.2920, 6147.000
185.5210, 5947.000
186.7500, 6010.000
187.9790, 5987.000
189.2070, 5924.000
190.4360, 5961.000
191.6640, 6009.000
192.8920, 5950.000
194.1200, 6125.000
195.3480, 6195.000
196.5750, 6120.000
197.8020, 6200.000
199.0290, 6362.000
200.2560, 6365.000
201.4830, 6485.000
202.7090, 6393.000
203.9360, 6493.000
205.1620, 6555.000
206.3880, 6497.000
207.6140, 6568.000
208.8390, 6673.000
210.0650, 6698.000
211.2900, 6654.000
212.5150, 6666.000
213.7400, 6625.000
214.9640, 6627.000
216.1890, 6745.000
217.4130, 6686.000
218.6370, 6600.000
219.8610, 6710.000
221.0850, 6595.000
222.3080, 6690.000
223.5310, 6638.000
224.7540, 6591.000
225.9770, 6478.000
227.2000, 6561.000
228.4230, 6510.000
229.6450, 6525.000
230.8670, 6448.000
232.0890, 6439.000
233.3110, 6448.140
234.5320, 6425.000
235.7540, 6475.000
236.9750, 6529.000
238.1960, 6541.000
239.4170, 6441.000
240.6380, 6494.000
241.8580, 6428.000
243.0780, 6493.000
244.2990, 6550.000
245.5180, 6476.000
246.7380, 6589.000
247.9580, 6502.000
249.1770, 6486.000
250.3960, 6534.000
251.6150, 6403.000
252.8340, 6510.000
254.0530, 6453.000
255.2710, 6527.000
256.4890, 6327.000
257.7070, 6409.000
258.9250, 6448.000
260.1430, 6474.000
261.3600, 6500.000
262.5770, 6490.000
263.7950, 6494.000
265.0110, 6532.000
266.2280, 6499.072
267.4450, 6509.000
268.6610, 6481.000
269.8770, 6474.781
271.0930, 6469.000
272.3090, 6464.000
273.5250, 6470.000
274.7400, 6477.000
275.9550, 6494.000
277.1700, 6474.000
278.3850, 6498.000
279.6000, 6518.000
280.8140, 6470.000
282.0290, 6529.000
283.2430, 6515.148
284.4570, 6572.000
285.6700, 6559.000
286.8840, 6553.000
288.0970, 6636.000
289.3100, 6742.000
290.5230, 6696.000
291.7360, 6581.000
292.9490, 6690.000
294.1610, 6706.000
295.3740, 6661.000
296.5860, 6753.000
297.7970, 6771.000
299.0090, 6744.000
300.2210, 6764.000
301.4320, 6723.000
302.6430, 6768.000
303.8540, 6869.000
305.0650, 6836.000
306.2750, 6911.000
307.4860, 6996.000
308.6960, 7046.000
309.9060, 7033.000
311.1160, 7110.000
312.3260, 7131.000
313.5350, 7157.000
314.7440, 7189.000
315.9530, 7373.000
317.1620, 7377.000
318.3710, 7546.000
319.5800, 7486.000
320.7880, 7594.000
321.9960, 7627.000
323.2040, 7648.000
324.4120, 7759.751
325.6200, 7871.000
326.8270, 7971.000
328.0340, 8149.000
329.2410, 8319.000
330.4480, 8311.000
331.6550, 8564.000
332.8610, 8842.000
334.0680, 8950.000
335.2740, 9255.000
336.4800, 9382.000
337.6860, 9517.000
338.8910, 9770.000
340.0970, 9885.000
341.3020, 10293.00
342.5070, 10483.00
343.7120, 10912.00
344.9170, 11249.00
346.1210, 11879.00
347.3250, 12579.00
348.5290, 13410.00
349.7330, 14182.00
350.9370, 15357.00
352.1410, 16529.00
353.3440, 18061.00
354.5470, 19108.98
355.7500, 20302.00
356.9530, 21000.00
358.1560, 21778.00
359.3580, 21753.00
360.5610, 21102.00
361.7630, 19957.00
362.9650, 18899.00
364.1660, 17721.00
365.3680, 16463.00
366.5690, 15395.00
367.7710, 14443.00
368.9720, 13680.00
370.1720, 13047.00
371.3730, 12600.00
372.5740, 12082.00
373.7740, 11690.00
374.9740, 11333.00
376.1740, 11147.00
377.3740, 10944.00
378.5730, 10575.00
379.7730, 10386.00
380.9720, 10038.00
382.1710, 9839.000
383.3700, 9485.000
384.5680, 9269.000
385.7670, 9018.000
386.9650, 8866.000
388.1630, 8642.000
389.3610, 8435.000
390.5590, 8231.000
391.7560, 8059.000
392.9540, 7986.000
394.1510, 7766.000
395.3480, 7769.000
396.5450, 7533.000
397.7420, 7517.000
398.9380, 7322.000
400.1340, 7269.000
401.3300, 7221.000
402.5260, 7100.000
403.7220, 7123.000
404.9180, 7030.000
406.1130, 7059.000
407.3080, 7006.000
408.5030, 7036.000
409.6980, 6948.000
410.8930, 6925.000
412.0870, 6906.000
413.2820, 6847.000
414.4760, 6869.000
415.6700, 6849.414
416.8630, 6920.000
418.0570, 6834.000
419.2500, 6818.000
420.4440, 6767.000
421.6370, 6707.000
422.8290, 6795.000
424.0220, 6738.000
425.2150, 6737.000
426.4070, 6766.000
427.5990, 6764.000
428.7910, 6822.000
429.9830, 6849.000
431.1740, 6866.000
432.3660, 6881.307
433.5570, 6830.000
434.7480, 6844.000
435.9390, 6828.000
437.1300, 6729.000
438.3200, 6654.000
439.5110, 6818.000
440.7010, 6750.000
441.8910, 6792.000
443.0810, 6884.000
444.2700, 6813.000
445.4600, 6832.000
446.6490, 6817.000
447.8380, 6922.000
449.0270, 6924.000
450.2160, 6984.000
451.4040, 6964.000
452.5930, 7014.000
453.7810, 7010.000
454.9690, 6906.000
456.1570, 6946.000
457.3440, 6903.000
458.5320, 7083.000
459.7190, 6989.000
460.9060, 7156.000
462.0930, 7065.000
463.2800, 7047.000
464.4660, 7166.000
465.6530, 7151.000
466.8390, 7171.000
468.0250, 7189.000
469.2110, 7279.000
470.3970, 7292.000
471.5820, 7347.396
472.7680, 7415.606
473.9530, 7457.000
475.1380, 7548.000
476.3230, 7642.000
477.5070, 7714.791
478.6920, 7777.538
479.8760, 7817.868
481.0600, 7864.000
482.2440, 7858.000
483.4280, 7859.000
484.6110, 7854.000
485.7950, 7901.000
486.9780, 7729.000
488.1610, 7543.000
489.3440, 7636.000
490.5260, 7736.000
491.7090, 7603.000
492.8910, 7578.000
494.0730, 7652.000
495.2550, 7808.000
496.4370, 7753.000
497.6190, 8009.000
498.8000, 7933.000
499.9810, 8195.000
501.1620, 8280.000
502.3430, 8483.000
503.5240, 8727.000
504.7050, 8939.000
505.8850, 9020.000
507.0650, 9163.000
508.2450, 9007.000
509.4250, 8881.000
510.6050, 8812.000
511.7840, 8630.422
512.9630, 8625.000
514.1430, 8348.000
515.3220, 8278.000
516.5000, 8214.000
517.6790, 8266.000
518.8570, 8345.000
520.0360, 8242.000
521.2140, 8284.000
522.3920, 8220.000
523.5690, 8243.686
524.7470, 8345.000
525.9240, 8342.000
527.1010, 8347.000
528.2780, 8474.000
529.4550, 8464.000
530.6320, 8432.000
531.8080, 8419.000
532.9850, 8496.000
534.1610, 8501.000
535.3370, 8621.000
536.5130, 8635.000
537.6880, 8813.000
538.8640, 8870.000
540.0390, 8883.000
541.2140, 9074.000
542.3890, 9248.000
543.5640, 9422.000
544.7380, 9729.000
545.9130, 9942.000
547.0870, 10207.00
548.2610, 10711.00
549.4350, 11116.00
550.6090, 11572.00
551.7820, 12194.00
552.9550, 13005.00
554.1290, 13581.00
555.3020, 14353.00
556.4740, 14939.00
557.6470, 15431.00
558.8200, 15274.00
559.9920, 15002.00
561.1640, 14700.00
562.3360, 13797.00
563.5080, 13019.00
564.6790, 12252.00
565.8510, 11494.00
567.0220, 10753.00
568.1930, 10282.00
569.3640, 9846.000
570.5350, 9484.000
571.7050, 9232.000
572.8760, 9036.000
574.0460, 8854.000
575.2160, 8748.000
576.3860, 8615.000
577.5550, 8435.000
578.7250, 8427.000
579.8940, 8405.000
581.0630, 8340.000
582.2320, 8241.000
583.4010, 8278.000
584.5700, 8209.000
585.7380, 8171.000
586.9070, 8205.000
588.0750, 8148.000
589.2430, 8129.000
590.4110, 8064.000
591.5780, 8041.000
592.7460, 8154.000
593.9130, 8097.000
595.0800, 8034.000
596.2470, 7992.000
597.4140, 8125.000
598.5800, 7970.000
599.7470, 8182.000
600.9130, 8101.000
602.0790, 8117.000
603.2450, 8218.000
604.4100, 8107.000
605.5760, 8237.000
606.7410, 8226.000
607.9070, 8022.000
609.0720, 8071.000
610.2360, 8118.000
611.4010, 8131.000
612.5660, 8022.000
613.7300, 8096.000
614.8940, 8016.000
616.0580, 8120.000
617.2220, 8023.000
618.3860, 7972.000
619.5490, 8111.000
620.7120, 8007.000
621.8750, 8180.000
623.0380, 8098.000
624.2010, 8205.000
625.3640, 8290.000
626.5260, 8342.000
627.6880, 8390.000
628.8510, 8456.000
630.0120, 8551.000
631.1740, 8603.000
632.3360, 8729.000
633.4970, 8864.000
634.6580, 8927.000
635.8200, 8983.000
636.9800, 9257.000
638.1410, 9157.000
639.3020, 9285.000
640.4620, 9113.000
641.6220, 9130.000
642.7820, 8974.000
643.9420, 9043.000
645.1020, 8780.000
646.2610, 8881.000
647.4210, 8741.000
648.5800, 8603.000
649.7390, 8755.000
650.8980, 8634.000
652.0570, 8601.000
653.2150, 8381.000
654.3730, 8494.000
655.5320, 8507.000
656.6900, 8509.000
657.8470, 8382.000
659.0050, 8346.000
660.1620, 8356.000
661.3200, 8355.000
662.4770, 8313.000
663.6340, 8315.000
664.7910, 8361.000
665.9470, 8360.000
667.1040, 8289.000
668.2600, 8307.000
669.4160, 8189.000
670.5720, 8222.000
671.7280, 8173.289
672.8840, 8322.000
674.0390, 8165.000
675.1940, 8195.000
676.3490, 8304.000
677.5040, 8140.000
678.6590, 8194.000
679.8140, 8157.000
680.9680, 8360.000
682.1220, 8223.000
683.2760, 8274.000
684.4300, 8239.000
685.5840, 8292.000
686.7380, 8299.901
687.8910, 8268.905
689.0440, 8336.000
690.1970, 8252.000
691.3500, 8265.000
692.5030, 8348.000
693.6560, 8323.000
694.8080, 8326.000
695.9600, 8331.000
697.1120, 8259.000
698.2640, 8248.000
699.4160, 8401.000
700.5670, 8344.000
701.7190, 8398.000
702.8700, 8488.000
704.0210, 8294.000
705.1720, 8420.000
706.3230, 8351.000
707.4730, 8509.000
708.6240, 8407.000
709.7740, 8497.000
710.9240, 8383.000
712.0740, 8540.000
713.2230, 8477.000
714.3730, 8399.000
715.5220, 8493.000
716.6720, 8454.000
717.8210, 8569.000
718.9690, 8504.000
720.1180, 8626.000
721.2670, 8565.000
722.4150, 8579.000
723.5630, 8542.000
724.7110, 8571.000
725.8590, 8577.000
727.0070, 8573.000
728.1540, 8587.433
729.3020, 8549.000
730.4490, 8622.000
731.5960, 8631.000
732.7430, 8705.000
733.8890, 8600.000
735.0360, 8555.000
736.1820, 8659.000
737.3280, 8794.000
738.4740, 8643.000
739.6200, 8739.000
740.7660, 8801.000
741.9120, 8825.000
743.0570, 8773.000
744.2020, 8737.000
745.3470, 8729.000
746.4920, 8816.000
747.6370, 8732.000
748.7810, 8873.000
749.9250, 8776.000
751.0700, 8901.000
752.2140, 8777.000
753.3580, 8868.000
754.5010, 8971.000
755.6450, 8940.000
756.7880, 8887.000
757.9310, 8907.000
759.0740, 8829.000
760.2170, 9017.000
761.3600, 9045.000
762.5020, 9013.000
763.6450, 9040.000
764.7870, 8973.000
765.9290, 9092.000
767.0710, 9031.000
768.2120, 9042.000
769.3540, 9103.000
770.4950, 9195.000
771.6370, 9093.000
772.7780, 9083.000
773.9180, 9040.000
775.0590, 9119.000
776.2000, 9165.000
777.3400, 9191.000
778.4800, 9198.000
779.6200, 9219.952
780.7600, 9164.000
781.9000, 9212.000
783.0390, 9210.000
784.1790, 9155.000
785.3180, 9207.688
786.4570, 9271.000
787.5960, 9229.000
788.7350, 9260.000
789.8730, 9217.000
791.0120, 9245.000
792.1500, 9338.000
793.2880, 9391.000
794.4260, 9299.000
795.5630, 9452.000
796.7010, 9426.000
797.8380, 9567.000
798.9760, 9495.000
800.1130, 9537.000
801.2500, 9612.000
802.3860, 9674.000
803.5230, 9755.000
804.6590, 9768.000
805.7960, 9853.592
806.9320, 9946.000
808.0680, 9955.000
809.2030, 10041.00
810.3390, 10022.00
811.4740, 10037.00
812.6100, 10135.00
813.7450, 10346.00
814.8800, 10188.00
816.0140, 10403.00
817.1490, 10473.00
818.2830, 10514.00
819.4180, 10575.00
820.5520, 10446.00
821.6860, 10551.00
822.8200, 10454.00
823.9530, 10560.00
825.0870, 10730.00
826.2200, 10744.00
827.3530, 10794.00
828.4860, 10711.00
829.6190, 10671.00
830.7510, 10756.00
831.8840, 10733.00
833.0160, 10781.61
834.1480, 10806.00
835.2800, 10903.00
836.4120, 11033.00
837.5440, 11165.00
838.6750, 11283.00
839.8070, 11488.00
840.9380, 11582.00
842.0690, 11782.00
843.2000, 11997.00
844.3300, 12227.00
845.4610, 12427.00
846.5910, 12674.00
847.7220, 12866.00
848.8520, 13278.00
849.9810, 13492.00
851.1110, 13855.00
852.2410, 14212.00
853.3700, 14433.00
854.4990, 14457.00
855.6280, 14503.00
856.7570, 14378.00
857.8860, 14213.00
859.0150, 14128.00
860.1430, 13921.00
861.2710, 13649.00
862.3990, 13564.00
863.5270, 13294.00
864.6550, 13248.00
865.7830, 12964.00
866.9100, 12929.00
868.0370, 12886.00
869.1640, 12882.00
870.2910, 12926.00
871.4180, 12865.00
872.5450, 12896.00
873.6710, 13083.00
874.7980, 13072.00
875.9240, 13111.00
877.0500, 13226.00
878.1760, 13547.00
879.3010, 13646.00
880.4270, 13924.00
881.5520, 13959.00
882.6770, 14265.00
883.8020, 14540.00
884.9270, 14808.00
886.0520, 15179.00
887.1760, 15358.00
888.3010, 15709.00
889.4250, 16139.00
890.5490, 16298.00
891.6730, 16919.00
892.7970, 17479.00
893.9200, 17941.00
895.0440, 19015.00
896.1670, 19951.00
897.2900, 21356.00
898.4130, 22904.00
899.5360, 24496.00
900.6580, 26813.00
901.7810, 29375.00
902.9030, 32544.00
904.0250, 36230.00
905.1470, 40292.00
906.2690, 44534.00
907.3910, 49375.00
908.5120, 54579.00
909.6330, 58870.00
910.7540, 62460.00
911.8750, 64759.00
912.9960, 65141.00
914.1170, 64795.00
915.2380, 62240.00
916.3580, 58236.00
917.4780, 53714.00
918.5980, 48351.00
919.7180, 43380.00
920.8380, 38694.00
921.9570, 34965.00
923.0770, 31311.00
924.1960, 28431.00
925.3150, 26047.00
926.4340, 23954.00
927.5530, 22150.00
928.6710, 20944.00
929.7900, 19729.00
930.9080, 18579.00
932.0260, 17814.00
933.1440, 16874.00
934.2620, 16230.00
935.3800, 15722.00
936.4970, 15143.00
937.6140, 14855.00
938.7320, 14309.00
939.8490, 13980.00
940.9660, 13764.00
942.0820, 13505.00
943.1990, 13324.87
944.3150, 13132.76
945.4310, 13061.00
946.5470, 12826.00
947.6630, 12781.00
948.7790, 12704.00
949.8950, 12537.00
951.0100, 12446.00
952.1250, 12351.00
953.2400, 12331.00
954.3550, 12220.00
955.4700, 12200.00
956.5850, 12160.00
957.6990, 12087.00
958.8140, 12007.00
959.9280, 11983.89
961.0420, 12003.00
962.1560, 11916.00
963.2690, 11971.00
964.3830, 11929.00
965.4960, 11897.00
966.6090, 11895.00
967.7230, 11966.00
968.8350, 12019.00
969.9480, 11808.00
971.0610, 11905.00
972.1730, 11825.00
973.2850, 11961.00
974.3980, 12034.11
975.5100, 12066.81
976.6210, 12061.27
977.7330, 11902.86
978.8440, 11941.84
979.9560, 11901.71
981.0670, 11943.00
982.1780, 11764.00
983.2890, 11812.00
984.3990, 11879.00
985.5100, 11818.00
986.6200, 11581.00
987.7310, 11850.00
988.8410, 11737.00
989.9510, 11975.00
991.0600, 11711.00
992.1700, 11729.00
993.2790, 11573.00
994.3890, 11578.00
995.4980, 11541.00
996.6070, 11526.39
997.7160, 11757.00
998.8240, 11613.00
999.9330, 11739.44
1001.041, 11887.00
1002.149, 11839.00
1003.257, 11800.00
1004.365, 11955.00
1005.473, 12088.00
1006.580, 11904.00
1007.688, 11838.00
1008.795, 11928.00
1009.902, 12062.00
1011.009, 12129.00
1012.116, 12216.74
1013.222, 12220.00
1014.329, 12342.00
1015.435, 12325.00
1016.541, 12341.00
1017.647, 12565.00
1018.753, 12442.00
1019.859, 12543.00
1020.964, 12548.00
1022.070, 12689.00
1023.175, 12623.00
1024.280, 12588.00
1025.385, 12741.00
1026.490, 12816.00
1027.594, 12973.00
1028.699, 13072.01
1029.803, 13049.00
1030.907, 13244.00
1032.011, 13284.00
1033.115, 13277.00
1034.219, 13403.00
1035.322, 13497.00
1036.426, 13622.00
1037.529, 13678.00
1038.632, 13697.00
1039.735, 13667.00
1040.837, 13665.00
1041.940, 13854.00
1043.042, 13857.00
1044.145, 13759.00
1045.247, 13625.00
1046.349, 13552.00
1047.451, 13284.00
1048.552, 13261.00
1049.654, 13103.00
1050.755, 12751.00
1051.856, 12745.00
1052.957, 12666.00
1054.058, 12522.00
1055.159, 12285.00
1056.259, 12233.00
1057.360, 12161.00
1058.460, 12102.00
1059.560, 12127.00
1060.660, 12070.00
1061.760, 12063.23
1062.860, 11966.00
1063.959, 12052.00
1065.058, 11949.00
1066.158, 11968.00
1067.257, 11836.00
1068.355, 11841.00
1069.454, 11812.00
1070.553, 11913.00
1071.651, 11897.00
1072.749, 11702.00
1073.847, 11757.00
1074.945, 11703.00
1076.043, 11832.00
1077.141, 11847.00
1078.238, 11814.69
1079.336, 11722.00
1080.433, 11734.00
1081.530, 11782.00
1082.627, 11721.00
1083.723, 11856.00
1084.820, 11906.00
1085.916, 11739.00
1087.013, 11820.00
1088.109, 11826.00
1089.205, 11957.00
1090.301, 11832.00
1091.396, 11854.00
1092.492, 11847.00
1093.587, 11837.00
1094.682, 11741.00
1095.777, 11921.00
1096.872, 12076.00
1097.967, 11864.00
1099.061, 11897.00
1100.156, 11787.00
1101.250, 11976.00
1102.344, 11927.00
1103.438, 11844.00
1104.532, 11893.00
1105.626, 11864.00
1106.719, 11928.00
1107.813, 11804.00
1108.906, 11812.00
1109.999, 12033.00
1111.092, 12099.00
1112.184, 11795.00
1113.277, 11964.00
1114.370, 11899.00
1115.462, 12032.00
1116.554, 11808.00
1117.646, 11875.00
1118.738, 11868.00
1119.829, 11866.00
1120.921, 11936.90
1122.012, 11949.00
1123.104, 12034.00
1124.195, 12077.00
1125.286, 12084.00
1126.376, 12126.11
1127.467, 12014.00
1128.557, 12076.00
1129.648, 12070.00
1130.738, 11873.00
1131.828, 11966.00
1132.918, 12042.00
1134.008, 12158.00
1135.097, 11991.00
1136.186, 11983.00
1137.276, 12123.00
1138.365, 12218.00
1139.454, 12085.00
1140.543, 12167.00
1141.631, 12083.00
1142.720, 11999.00
1143.808, 12132.00
1144.896, 12124.00
1145.984, 12179.00
1147.072, 12154.00
1148.160, 12157.00
1149.248, 12242.00
1150.335, 12094.00
1151.422, 12115.00
1152.509, 12281.00
1153.596, 12146.00
1154.683, 12260.00
1155.770, 12374.00
1156.857, 12367.00
1157.943, 12416.00
1159.029, 12273.00
1160.115, 12364.00
1161.201, 12335.00
1162.287, 12434.00
1163.373, 12393.00
1164.458, 12416.94
1165.543, 12466.00
1166.629, 12395.00
1167.714, 12408.00
1168.799, 12328.00
1169.883, 12489.00
1170.968, 12554.00
1172.052, 12350.00
1173.137, 12574.00
1174.221, 12629.00
1175.305, 12527.00
1176.389, 12541.00
1177.472, 12439.00
1178.556, 12642.00
1179.639, 12558.00
1180.722, 12582.00
1181.805, 12613.00
1182.888, 12442.00
1183.971, 12597.00
1185.054, 12592.00
1186.136, 12604.00
1187.219, 12711.00
1188.301, 12630.00
1189.383, 12555.00
1190.465, 12558.00
1191.547, 12611.75
1192.628, 12616.90
1193.710, 12613.90
1194.791, 12627.42
1195.872, 12592.00
1196.953, 12601.00
1198.034, 12593.00
1199.115, 12542.74
1200.195, 12539.88
1201.276, 12545.00
1202.356, 12531.00
1203.436, 12635.00
1204.516, 12723.00
1205.596, 12610.00
1206.675, 12707.00
1207.755, 12842.00
1208.834, 12676.00
1209.913, 12692.00
1210.992, 12611.00
1212.071, 12815.00
1213.150, 12799.00
1214.229, 12759.00
1215.307, 12695.00
1216.386, 12723.00
1217.464, 12757.00
1218.542, 12753.00
1219.620, 12772.00
1220.697, 12776.27
1221.775, 12647.00
1222.852, 12787.00
1223.930, 12784.00
1225.007, 12807.00
1226.084, 12925.00
1227.161, 12772.00
1228.237, 12763.00
1229.314, 12904.00
1230.390, 12769.00
1231.466, 12867.00
1232.543, 12737.00
1233.619, 12863.00
1234.694, 12751.00
1235.770, 12807.00
1236.845, 12950.00
1237.921, 12905.00
1238.996, 12890.00
1240.071, 12948.00
1241.146, 12935.00
1242.221, 12850.00
1243.295, 12950.00
1244.370, 12882.00
1245.444, 12833.00
1246.518, 13051.00
1247.592, 13021.00
1248.666, 13013.00
1249.740, 12996.00
1250.814, 12995.26
1251.887, 13165.00
1252.960, 13029.00
1254.034, 13078.00
1255.107, 13153.00
1256.179, 13019.00
1257.252, 13183.00
1258.325, 13065.00
1259.397, 13171.00
1260.469, 12993.00
1261.542, 13207.00
1262.614, 13226.00
1263.685, 13093.00
1264.757, 13206.00
1265.829, 13111.00
1266.900, 13122.29
1267.971, 13115.00
1269.042, 13164.00
1270.113, 13210.00
1271.184, 13309.00
1272.255, 13224.00
1273.325, 13221.00
1274.396, 13175.00
1275.466, 13252.00
1276.536, 13222.00
1277.606, 13319.00
1278.676, 13315.56
1279.745, 13345.76
1280.815, 13325.00
1281.884, 13328.98
1282.953, 13355.00
1284.022, 13313.00
1285.091, 13286.00
1286.160, 13272.00
1287.229, 13257.00
1288.297, 13267.00
1289.366, 13173.00
1290.434, 13312.00
1291.502, 13521.00
1292.570, 13191.00
1293.637, 13182.00
1294.705, 13435.00
1295.773, 13452.00
1296.840, 13194.00
1297.907, 13204.00
1298.974, 13322.00
1300.041, 13452.00
1301.108, 13335.00
1302.174, 13416.00
1303.241, 13404.00
1304.307, 13409.00
1305.373, 13379.00
1306.439, 13411.00
1307.505, 13319.00
1308.571, 13260.00
1309.636, 13383.00
1310.702, 13260.00
1311.767, 13338.00
1312.832, 13386.00
1313.897, 13374.00
1314.962, 13390.00
1316.027, 13399.00
1317.091, 13296.00
1318.156, 13307.00
1319.220, 13177.00
1320.284, 13563.00
1321.348, 13269.00
1322.412, 13421.00
1323.475, 13284.00
1324.539, 13466.00
1325.602, 13284.00
1326.666, 13383.00
1327.729, 13388.00
1328.792, 13437.00
1329.855, 13515.00
1330.917, 13510.00
1331.980, 13452.00
1333.042, 13456.00
1334.104, 13460.00
1335.167, 13446.00
1336.229, 13424.00
1337.290, 13539.00
1338.352, 13486.00
1339.414, 13506.94
1340.475, 13383.00
1341.536, 13537.00
1342.597, 13456.00
1343.658, 13561.16
1344.719, 13513.00
1345.780, 13527.00
1346.840, 13555.00
1347.901, 13550.31
1348.961, 13566.00
1350.021, 13551.00
1351.081, 13604.00
1352.141, 13528.00
1353.200, 13724.00
1354.260, 13568.00
1355.319, 13661.00
1356.379, 13685.00
1357.438, 13826.00
1358.497, 13579.00
1359.555, 13697.00
1360.614, 13699.00
1361.673, 13646.00
1362.731, 13659.00
1363.789, 13759.00
1364.847, 13724.00
1365.905, 13804.00
1366.963, 13748.00
1368.021, 13743.00
1369.078, 13784.00
1370.136, 13754.00
1371.193, 13723.77
1372.250, 13736.54
1373.307, 13634.00
1374.364, 13705.00
1375.420, 13693.00
1376.477, 13633.00
1377.533, 13862.00
1378.589, 13752.00
1379.646, 13782.00
1380.702, 13758.00
1381.757, 13865.00
1382.813, 13861.00
1383.869, 13827.00
1384.924, 13703.00
1385.979, 13831.00
1387.034, 13820.00
1388.089, 13762.00
1389.144, 13945.00
1390.199, 14027.00
1391.253, 13976.00
1392.308, 14033.00
1393.362, 14076.00
1394.416, 13913.00
1395.470, 14055.00
1396.524, 14028.00
1397.577, 13973.00
1398.631, 14154.00
1399.684, 14160.00
1400.738, 14130.00
1401.791, 14004.00
1402.844, 14111.00
1403.897, 14016.00
1404.949, 14038.00
1406.002, 14159.00
1407.054, 13939.00
1408.107, 13972.00
1409.159, 14063.00
1410.211, 14022.00
1411.263, 14124.00
1412.314, 14111.00
1413.366, 14161.00
1414.417, 14150.00
1415.468, 14078.00
1416.520, 14096.00
1417.571, 14049.00
1418.621, 14082.00
1419.672, 14258.00
1420.723, 14025.00
1421.773, 14174.00
1422.824, 14186.00
1423.874, 14028.00
1424.924, 14269.00
1425.974, 14157.00
1427.023, 14295.00
1428.073, 14150.00
1429.122, 14200.00
1430.172, 14182.00
1431.221, 14278.00
1432.270, 14202.00
1433.319, 14240.00
1434.367, 14270.00
1435.416, 14260.00
1436.465, 14150.00
1437.513, 14375.00
1438.561, 14279.00
1439.609, 14368.00
1440.657, 14215.00
1441.705, 14290.00
1442.752, 14393.00
1443.800, 14258.00
1444.847, 14333.00
1445.894, 14424.00
1446.942, 14284.00
1447.988, 14435.00
1449.035, 14217.00
1450.082, 14363.00
1451.128, 14517.00
1452.175, 14452.00
1453.221, 14484.00
1454.267, 14517.00
1455.313, 14354.00
1456.359, 14474.00
1457.405, 14431.00
1458.450, 14639.00
1459.496, 14514.00
1460.541, 14568.00
1461.586, 14539.00
1462.631, 14386.00
1463.676, 14495.00
1464.720, 14500.00
1465.765, 14522.00
1466.809, 14522.00
1467.854, 14450.00
1468.898, 14661.00
1469.942, 14602.00
1470.986, 14724.00
1472.029, 14619.00
1473.073, 14544.00
1474.116, 14453.00
1475.160, 14503.00
1476.203, 14547.00
1477.246, 14694.00
1478.289, 14586.00
1479.332, 14675.00
1480.374, 14616.00
1481.417, 14563.00
1482.459, 14810.00
1483.501, 14583.00
1484.543, 14633.00
1485.585, 14653.00
1486.627, 14592.00
1487.669, 14659.00
1488.710, 14745.00
1489.752, 14770.00
1490.793, 14705.00
1491.834, 14873.00
1492.875, 14863.00
1493.916, 14843.00
1494.956, 14594.00
1495.997, 14763.00
1497.037, 14690.00
1498.077, 14736.00
1499.118, 14723.00
1500.158, 14742.00
1501.197, 14766.00
1502.237, 14686.00
1503.277, 14791.00
1504.316, 14652.00
1505.355, 14852.00
1506.395, 14880.00
1507.434, 14660.00
1508.473, 14913.00
1509.511, 14954.00
1510.550, 14858.00
1511.588, 14935.00
1512.627, 14941.00
1513.665, 14866.00
1514.703, 14824.00
1515.741, 14959.00
1516.779, 15050.00
1517.816, 14908.00
1518.854, 15070.00
1519.891, 14937.00
1520.928, 14938.00
1521.966, 14861.00
1523.003, 14877.67
1524.039, 15044.00
1525.076, 14956.00
1526.113, 14975.00
1527.149, 15033.00
1528.185, 14773.00
1529.221, 14996.00
1530.257, 14845.00
1531.293, 14925.00
1532.329, 15130.00
1533.365, 14937.00
1534.400, 14924.00
1535.435, 15076.00
1536.471, 15013.00
1537.506, 14894.00
1538.541, 14997.00
1539.575, 15048.00
1540.610, 14828.00
1541.644, 14938.00
1542.679, 15015.00
1543.713, 14930.00
1544.747, 14866.00
1545.781, 15019.00
1546.815, 14918.00
1547.849, 15000.00
1548.882, 15093.00
1549.916, 15152.00
1550.949, 14874.00
1551.982, 15183.00
1553.015, 15080.00
1554.048, 14873.00
1555.081, 15326.00
1556.113, 15044.00
1557.146, 15058.00
1558.178, 14967.00
1559.210, 14890.03
1560.242, 15105.00
1561.274, 14887.00
1562.306, 15051.00
1563.338, 15182.00
1564.369, 14966.00
1565.400, 15038.00
1566.432, 15048.00
1567.463, 15015.00
1568.494, 15093.00
1569.525, 15121.00
1570.555, 15190.00
1571.586, 15189.64
1572.616, 15058.00
1573.647, 15172.00
1574.677, 15111.00
1575.707, 15083.00
1576.737, 15221.00
1577.766, 15173.00
1578.796, 14983.00
##END=



