##NAMES=Spessartine
##RRUFFID=R080053
##IDEAL CHEMISTRY=Mn^2+^_3_Al_2_(SiO_4_)_3_
##LOCALITY=East Africa
##OWNER=RRUFF
##SOURCE=www.multicolour.com
##DESCRIPTION=Transparent orange fragments
##STATUS=The identification of this mineral has been confirmed by X-ray diffraction and chemical analysis
##URL=rruff.info/R080053
##MEASURED CHEMISTRY=(Mn^2+^_1.32_Mg_0.96_Fe^2+^_0.38_Fe^3+^_0.04_Ca_0.30_)Al_2.00_((Si_0.99_Al_0.01_)O_4_)_3_; Fe^2+^ and Fe^3+^ estimated by charge balance
##PIN_ID=L01780
##ORIENTATION=Laser parallel to a* (1 0 0). Fiducial mark perpendicular to laser is parallel to c [0 0 1]
62.86500, 104.0000
64.10500, 114.0000
65.34500, 80.00000
66.58500, 110.0000
67.82500, 97.00000
69.06500, 112.0000
70.30500, 96.00000
71.54400, 89.00000
72.78300, 94.00000
74.02200, 104.0000
75.26100, 118.0000
76.50000, 102.0000
77.73900, 71.00000
78.97700, 110.0000
80.21500, 165.0000
81.45400, 120.0000
82.69200, 148.0000
83.92900, 185.0000
85.16700, 177.0000
86.40400, 189.0000
87.64200, 253.0000
88.87900, 235.0000
90.11600, 362.0000
91.35300, 404.0000
92.58900, 477.0000
93.82600, 570.0000
95.06200, 645.0000
96.29900, 741.0000
97.53500, 864.0000
98.77000, 969.0000
100.0060, 1118.000
101.2420, 1267.000
102.4770, 1430.478
103.7120, 1601.000
104.9470, 1805.000
106.1820, 2027.000
107.4170, 2249.000
108.6520, 2381.000
109.8860, 2384.000
111.1200, 2453.000
112.3540, 2603.000
113.5880, 2645.000
114.8220, 2797.000
116.0560, 3040.000
117.2890, 3074.000
118.5230, 3193.000
119.7560, 3226.000
120.9890, 3187.000
122.2220, 3318.000
123.4540, 3332.000
124.6870, 3403.000
125.9190, 3332.000
127.1510, 3330.000
128.3830, 3406.000
129.6150, 3454.000
130.8470, 3534.000
132.0780, 3519.000
133.3100, 3546.000
134.5410, 3595.000
135.7720, 3510.000
137.0030, 3595.000
138.2330, 3662.000
139.4640, 3622.000
140.6940, 3714.000
141.9250, 3634.000
143.1550, 3548.000
144.3850, 3645.000
145.6140, 3654.000
146.8440, 3657.000
148.0730, 3693.000
149.3030, 3658.000
150.5320, 3686.086
151.7610, 3700.000
152.9890, 3719.000
154.2180, 3703.000
155.4470, 3737.000
156.6750, 3814.000
157.9030, 3767.000
159.1310, 3942.000
160.3590, 3873.000
161.5860, 4101.000
162.8140, 4231.000
164.0410, 4504.000
165.2680, 4638.000
166.4950, 4926.000
167.7220, 5307.000
168.9490, 5601.000
170.1750, 6140.000
171.4020, 6531.000
172.6280, 7079.000
173.8540, 7412.000
175.0800, 7453.000
176.3060, 7281.000
177.5310, 7106.000
178.7570, 6630.000
179.9820, 6086.000
181.2070, 5551.000
182.4320, 5255.000
183.6570, 4946.000
184.8810, 4850.000
186.1060, 4639.000
187.3300, 4559.000
188.5540, 4513.000
189.7780, 4450.000
191.0020, 4396.000
192.2250, 4400.000
193.4490, 4342.000
194.6720, 4290.000
195.8950, 4452.000
197.1180, 4352.000
198.3410, 4375.000
199.5640, 4366.000
200.7860, 4534.000
202.0080, 4534.000
203.2310, 4555.000
204.4530, 4583.000
205.6740, 4598.000
206.8960, 4579.000
208.1180, 4736.000
209.3390, 4726.000
210.5600, 4776.000
211.7810, 4679.000
213.0020, 4791.000
214.2230, 4789.000
215.4430, 4809.000
216.6640, 4916.000
217.8840, 4846.000
219.1040, 4899.000
220.3240, 4911.000
221.5430, 4994.000
222.7630, 4980.000
223.9820, 4978.000
225.2020, 5025.000
226.4210, 5058.000
227.6400, 4970.000
228.8590, 5049.000
230.0770, 5084.000
231.2960, 5147.000
232.5140, 5255.000
233.7320, 5238.000
234.9500, 5346.000
236.1680, 5356.000
237.3850, 5345.000
238.6030, 5327.000
239.8200, 5446.000
241.0370, 5365.000
242.2540, 5462.000
243.4710, 5497.000
244.6880, 5441.000
245.9040, 5520.000
247.1210, 5509.000
248.3370, 5481.000
249.5530, 5523.000
250.7690, 5558.000
251.9840, 5622.000
253.2000, 5588.000
254.4150, 5620.000
255.6300, 5633.000
256.8450, 5660.000
258.0600, 5567.000
259.2750, 5678.000
260.4900, 5588.000
261.7040, 5709.000
262.9180, 5659.000
264.1320, 5720.000
265.3460, 5818.000
266.5600, 5757.000
267.7730, 5768.000
268.9870, 5698.000
270.2000, 5775.000
271.4130, 5884.000
272.6260, 5852.000
273.8390, 5809.000
275.0520, 5949.000
276.2640, 5927.000
277.4760, 5957.000
278.6880, 5949.000
279.9000, 5952.000
281.1120, 6021.000
282.3240, 6045.000
283.5350, 6022.000
284.7470, 6169.000
285.9580, 6233.000
287.1690, 6216.000
288.3800, 6281.000
289.5900, 6320.028
290.8010, 6363.329
292.0110, 6414.000
293.2210, 6471.000
294.4310, 6508.000
295.6410, 6541.000
296.8510, 6629.000
298.0600, 6623.000
299.2700, 6629.000
300.4790, 6618.000
301.6880, 6598.000
302.8970, 6705.000
304.1060, 6809.000
305.3140, 6840.000
306.5230, 6836.000
307.7310, 6831.000
308.9390, 6906.000
310.1470, 7029.000
311.3550, 7084.000
312.5620, 7161.000
313.7700, 7319.000
314.9770, 7573.000
316.1840, 7729.000
317.3910, 7930.000
318.5980, 8067.000
319.8040, 8451.000
321.0110, 8737.000
322.2170, 9159.000
323.4230, 9644.000
324.6290, 10086.00
325.8350, 10632.00
327.0410, 11237.00
328.2460, 11755.00
329.4510, 12498.00
330.6570, 13228.00
331.8620, 13778.00
333.0660, 14296.00
334.2710, 14829.12
335.4760, 15353.00
336.6800, 15739.00
337.8840, 16187.00
339.0880, 16623.00
340.2920, 17184.00
341.4960, 17830.00
342.6990, 18643.00
343.9030, 20000.00
345.1060, 21672.00
346.3090, 23056.00
347.5120, 25436.00
348.7140, 27687.00
349.9170, 30587.00
351.1190, 33638.00
352.3220, 36640.00
353.5240, 39493.00
354.7260, 42121.00
355.9270, 43238.00
357.1290, 43768.00
358.3300, 42470.00
359.5320, 40295.00
360.7330, 37555.00
361.9340, 34798.00
363.1340, 31747.00
364.3350, 28835.00
365.5360, 26836.00
366.7360, 25007.00
367.9360, 23899.00
369.1360, 22619.00
370.3360, 21975.00
371.5350, 21276.00
372.7350, 20668.00
373.9340, 20110.00
375.1330, 19535.00
376.3320, 18928.00
377.5310, 18217.46
378.7300, 17486.13
379.9280, 16672.00
381.1270, 15816.00
382.3250, 14916.00
383.5230, 13905.00
384.7210, 13065.00
385.9180, 12311.00
387.1160, 11327.00
388.3130, 10744.00
389.5100, 9988.000
390.7080, 9354.000
391.9040, 8801.000
393.1010, 8373.000
394.2980, 7912.000
395.4940, 7610.000
396.6900, 7239.000
397.8860, 6932.000
399.0820, 6773.000
400.2780, 6345.000
401.4740, 6196.000
402.6690, 6152.000
403.8640, 5936.000
405.0590, 5825.000
406.2540, 5665.000
407.4490, 5638.000
408.6440, 5499.000
409.8380, 5485.000
411.0320, 5411.000
412.2260, 5264.000
413.4200, 5239.000
414.6140, 5203.000
415.8080, 5222.000
417.0010, 5142.226
418.1950, 4977.000
419.3880, 4969.000
420.5810, 4908.000
421.7740, 4745.000
422.9660, 4888.000
424.1590, 4885.000
425.3510, 4771.000
426.5430, 4788.000
427.7350, 4661.000
428.9270, 4782.000
430.1190, 4716.000
431.3100, 4647.000
432.5020, 4765.000
433.6930, 4707.000
434.8840, 4811.000
436.0750, 4668.000
437.2650, 4724.000
438.4560, 4637.000
439.6460, 4675.000
440.8370, 4627.000
442.0270, 4711.000
443.2160, 4599.000
444.4060, 4614.000
445.5960, 4682.000
446.7850, 4687.000
447.9740, 4609.000
449.1640, 4698.000
450.3520, 4710.000
451.5410, 4704.000
452.7300, 4791.000
453.9180, 4630.000
455.1060, 4698.000
456.2950, 4706.000
457.4830, 4709.000
458.6700, 4771.000
459.8580, 4715.000
461.0450, 4834.000
462.2330, 4773.000
463.4200, 4905.000
464.6070, 4863.000
465.7940, 4907.000
466.9800, 4918.000
468.1670, 4938.000
469.3530, 4944.000
470.5390, 5004.000
471.7250, 4998.098
472.9110, 4975.000
474.0970, 5038.000
475.2820, 5016.000
476.4670, 5085.000
477.6530, 5033.000
478.8380, 5117.000
480.0220, 5193.000
481.2070, 5066.000
482.3920, 5185.000
483.5760, 5224.000
484.7600, 5182.000
485.9440, 5112.000
487.1280, 5167.000
488.3120, 5086.000
489.4950, 5165.000
490.6790, 5113.000
491.8620, 5240.000
493.0450, 5292.000
494.2280, 5291.000
495.4110, 5361.000
496.5930, 5522.000
497.7760, 5554.000
498.9580, 5604.000
500.1400, 5801.000
501.3220, 5946.000
502.5040, 5940.000
503.6850, 5946.000
504.8670, 6079.000
506.0480, 6151.000
507.2290, 6209.000
508.4100, 6222.000
509.5910, 6149.000
510.7710, 6094.000
511.9520, 6079.000
513.1320, 6059.000
514.3120, 6257.000
515.4920, 6351.000
516.6720, 6412.000
517.8520, 6523.000
519.0310, 6619.000
520.2110, 6679.000
521.3900, 6833.000
522.5690, 7030.000
523.7480, 7117.000
524.9260, 7230.000
526.1050, 7329.000
527.2830, 7330.000
528.4610, 7340.000
529.6390, 7375.000
530.8170, 7387.000
531.9950, 7435.000
533.1720, 7566.000
534.3500, 7555.000
535.5270, 7624.000
536.7040, 7930.000
537.8810, 8216.000
539.0570, 8553.000
540.2340, 8842.000
541.4100, 9179.000
542.5870, 9498.000
543.7630, 10122.00
544.9390, 11038.00
546.1140, 11574.00
547.2900, 12745.00
548.4650, 13776.00
549.6410, 15069.42
550.8160, 16914.00
551.9910, 17955.00
553.1650, 19596.00
554.3400, 20942.00
555.5140, 21965.00
556.6890, 22508.00
557.8630, 22463.00
559.0370, 21651.00
560.2100, 20327.00
561.3840, 18464.00
562.5580, 16560.00
563.7310, 14766.00
564.9040, 13130.00
566.0770, 11659.00
567.2500, 10587.00
568.4220, 9543.000
569.5950, 8977.000
570.7670, 8361.000
571.9390, 7843.000
573.1110, 7454.000
574.2830, 7151.000
575.4550, 6853.000
576.6260, 6709.000
577.7980, 6495.000
578.9690, 6438.000
580.1400, 6335.000
581.3110, 6206.000
582.4810, 6236.000
583.6520, 6090.000
584.8220, 5981.000
585.9920, 6131.000
587.1620, 5887.000
588.3320, 5943.000
589.5020, 5929.000
590.6720, 5900.000
591.8410, 5897.000
593.0100, 5904.000
594.1790, 5843.000
595.3480, 5832.000
596.5170, 6017.000
597.6850, 5900.000
598.8540, 6001.000
600.0220, 5973.000
601.1900, 5987.000
602.3580, 5976.000
603.5260, 5916.000
604.6930, 6031.000
605.8610, 5900.000
607.0280, 5876.000
608.1950, 5709.000
609.3620, 5649.000
610.5290, 5569.000
611.6950, 5466.000
612.8620, 5435.000
614.0280, 5314.000
615.1940, 5310.000
616.3600, 5305.000
617.5260, 5287.000
618.6920, 5329.000
619.8570, 5281.000
621.0220, 5359.000
622.1880, 5373.000
623.3530, 5425.000
624.5170, 5517.000
625.6820, 5534.000
626.8470, 5556.000
628.0110, 5632.000
629.1750, 5709.000
630.3390, 5760.000
631.5030, 5771.000
632.6670, 5915.000
633.8300, 5945.000
634.9930, 5954.000
636.1570, 6048.000
637.3200, 5973.000
638.4820, 6089.000
639.6450, 5897.000
640.8080, 5916.000
641.9700, 5849.000
643.1320, 5825.000
644.2940, 5878.000
645.4560, 5767.000
646.6180, 5682.000
647.7790, 5774.000
648.9410, 5797.000
650.1020, 5689.000
651.2630, 5574.000
652.4240, 5573.000
653.5850, 5578.000
654.7450, 5526.000
655.9060, 5520.271
657.0660, 5444.000
658.2260, 5439.000
659.3860, 5372.000
660.5460, 5266.000
661.7050, 5348.000
662.8650, 5419.000
664.0240, 5314.000
665.1830, 5329.075
666.3420, 5298.413
667.5010, 5272.000
668.6600, 5192.000
669.8180, 5196.800
670.9760, 5183.000
672.1340, 5187.000
673.2920, 5136.000
674.4500, 5148.000
675.6080, 5097.000
676.7650, 5117.000
677.9230, 5132.000
679.0800, 5092.000
680.2370, 5115.120
681.3940, 5082.000
682.5500, 5097.000
683.7070, 5099.000
684.8630, 5042.000
686.0190, 5097.000
687.1750, 5066.000
688.3310, 5067.000
689.4870, 5066.000
690.6420, 5067.000
691.7980, 5072.000
692.9530, 5084.075
694.1080, 5012.000
695.2630, 5092.000
696.4180, 5143.000
697.5720, 5100.000
698.7260, 5161.000
699.8810, 5111.000
701.0350, 5122.000
702.1890, 5148.000
703.3420, 5212.000
704.4960, 5170.000
705.6490, 5225.000
706.8030, 5311.000
707.9560, 5267.000
709.1080, 5218.000
710.2610, 5232.000
711.4140, 5241.806
712.5660, 5296.000
713.7180, 5263.000
714.8710, 5392.000
716.0230, 5289.000
717.1740, 5322.000
718.3260, 5259.000
719.4770, 5256.000
720.6290, 5332.000
721.7800, 5290.000
722.9310, 5390.000
724.0810, 5297.000
725.2320, 5382.000
726.3830, 5279.000
727.5330, 5347.000
728.6830, 5341.000
729.8330, 5331.000
730.9830, 5322.000
732.1320, 5318.178
733.2820, 5383.000
734.4310, 5315.000
735.5800, 5397.000
736.7290, 5413.000
737.8780, 5390.000
739.0270, 5345.000
740.1750, 5447.000
741.3240, 5455.000
742.4720, 5603.000
743.6200, 5551.000
744.7680, 5493.000
745.9150, 5429.000
747.0630, 5437.033
748.2100, 5586.000
749.3570, 5486.000
750.5050, 5555.000
751.6510, 5637.000
752.7980, 5645.000
753.9450, 5546.000
755.0910, 5613.000
756.2370, 5610.000
757.3830, 5661.000
758.5290, 5678.406
759.6750, 5698.000
760.8200, 5722.000
761.9660, 5669.000
763.1110, 5707.000
764.2560, 5687.000
765.4010, 5756.000
766.5460, 5654.000
767.6900, 5717.000
768.8350, 5735.000
769.9790, 5733.000
771.1230, 5804.000
772.2670, 5663.000
773.4110, 5742.000
774.5550, 5769.000
775.6980, 5788.000
776.8410, 5861.000
777.9840, 5797.000
779.1270, 5849.000
780.2700, 5817.000
781.4130, 5831.000
782.5550, 5844.000
783.6970, 5968.000
784.8400, 5961.000
785.9820, 5872.000
787.1230, 6016.000
788.2650, 5981.000
789.4070, 6016.000
790.5480, 6115.000
791.6890, 6086.000
792.8300, 6083.000
793.9710, 6121.000
795.1110, 6273.000
796.2520, 6303.000
797.3920, 6322.000
798.5330, 6395.000
799.6730, 6399.000
800.8120, 6526.000
801.9520, 6486.000
803.0920, 6601.000
804.2310, 6740.000
805.3700, 6794.000
806.5090, 7098.000
807.6480, 7128.000
808.7870, 7359.000
809.9250, 7458.000
811.0640, 7526.000
812.2020, 7575.000
813.3400, 7631.000
814.4780, 7800.000
815.6160, 7820.000
816.7530, 7943.000
817.8910, 8131.000
819.0280, 8024.000
820.1650, 8135.000
821.3020, 8130.000
822.4380, 8012.000
823.5750, 8202.000
824.7110, 8084.000
825.8480, 8075.000
826.9840, 8083.000
828.1200, 7996.000
829.2560, 7994.000
830.3910, 8031.000
831.5270, 8039.000
832.6620, 8166.000
833.7970, 8288.000
834.9320, 8241.000
836.0670, 8295.000
837.2010, 8522.000
838.3360, 8508.000
839.4700, 8547.000
840.6040, 8860.000
841.7380, 8916.000
842.8720, 9236.000
844.0060, 9386.000
845.1390, 9586.000
846.2720, 9766.000
847.4060, 9976.000
848.5390, 10200.97
849.6710, 10551.00
850.8040, 10694.00
851.9370, 10948.00
853.0690, 11245.00
854.2010, 11413.00
855.3330, 11341.00
856.4650, 11501.00
857.5970, 11237.00
858.7280, 11335.00
859.8600, 11440.00
860.9910, 11222.00
862.1220, 11016.00
863.2530, 11146.00
864.3830, 10969.00
865.5140, 10822.00
866.6440, 11058.00
867.7740, 10995.00
868.9040, 11200.00
870.0340, 11197.00
871.1640, 11354.00
872.2940, 11519.00
873.4230, 11852.00
874.5520, 12095.00
875.6810, 12098.00
876.8100, 12552.00
877.9390, 12877.00
879.0680, 13237.00
880.1960, 13762.00
881.3240, 14246.00
882.4520, 14763.75
883.5800, 15279.00
884.7080, 15935.00
885.8360, 16543.00
886.9630, 17257.00
888.0900, 18132.00
889.2170, 19245.00
890.3440, 20307.00
891.4710, 21479.00
892.5980, 22988.00
893.7240, 24624.00
894.8510, 26931.00
895.9770, 29851.00
897.1030, 33084.00
898.2280, 37048.00
899.3540, 41945.00
900.4800, 47593.00
901.6050, 54266.00
902.7300, 62319.00
903.8550, 71612.00
904.9800, 82143.00
906.1050, 93773.00
907.2290, 106101.0
908.3530, 117556.0
909.4780, 127527.0
910.6020, 130374.0
911.7250, 130382.0
912.8490, 130370.0
913.9730, 130398.0
915.0960, 124472.2
916.2190, 121650.0
917.3420, 109308.0
918.4650, 96659.00
919.5880, 84649.00
920.7100, 73496.00
921.8330, 64081.00
922.9550, 55710.00
924.0770, 49051.00
925.1990, 43115.00
926.3200, 38373.00
927.4420, 34292.00
928.5630, 30987.00
929.6850, 28156.00
930.8060, 25655.00
931.9270, 23430.11
933.0470, 21740.00
934.1680, 20004.00
935.2880, 18779.00
936.4090, 17784.00
937.5290, 16496.00
938.6490, 15760.00
939.7680, 15068.00
940.8880, 14472.00
942.0070, 13806.00
943.1270, 13175.00
944.2460, 12848.00
945.3650, 12428.00
946.4830, 11955.00
947.6020, 11775.00
948.7210, 11592.00
949.8390, 11160.00
950.9570, 11144.00
952.0750, 10762.00
953.1930, 10580.00
954.3100, 10391.00
955.4280, 10215.00
956.5450, 10026.00
957.6620, 9972.000
958.7790, 9922.000
959.8960, 9887.000
961.0130, 9809.000
962.1290, 9601.000
963.2460, 9670.000
964.3620, 9459.000
965.4780, 9418.000
966.5940, 9395.000
967.7090, 9248.000
968.8250, 9400.000
969.9400, 9200.000
971.0550, 9327.000
972.1700, 9367.000
973.2850, 9232.000
974.4000, 9214.000
975.5140, 9110.000
976.6290, 9234.000
977.7430, 9188.000
978.8570, 9186.000
979.9710, 9090.000
981.0850, 8949.000
982.1980, 9043.000
983.3120, 8990.000
984.4250, 8829.000
985.5380, 8827.000
986.6510, 8796.000
987.7630, 8665.000
988.8760, 8695.000
989.9880, 8620.000
991.1010, 8636.000
992.2130, 8747.000
993.3250, 8568.000
994.4360, 8664.000
995.5480, 8610.000
996.6590, 8603.000
997.7710, 8744.000
998.8820, 8664.000
999.9930, 8669.000
1001.104, 8904.000
1002.214, 8870.000
1003.325, 8823.000
1004.435, 9052.000
1005.545, 8956.000
1006.655, 8994.000
1007.765, 9022.000
1008.874, 9138.000
1009.984, 9046.000
1011.093, 9171.000
1012.202, 9112.000
1013.311, 9198.000
1014.420, 9291.000
1015.529, 9365.000
1016.637, 9404.000
1017.746, 9438.000
1018.854, 9554.000
1019.962, 9518.000
1021.069, 9582.000
1022.177, 9608.000
1023.285, 9707.000
1024.392, 9654.000
1025.499, 9698.000
1026.606, 9647.000
1027.713, 9626.000
1028.820, 9694.000
1029.926, 9711.000
1031.033, 9812.000
1032.139, 9925.000
1033.245, 9935.000
1034.351, 10176.00
1035.456, 10082.00
1036.562, 10128.00
1037.667, 10513.00
1038.773, 10299.55
1039.878, 10338.08
1040.983, 10202.00
1042.087, 10057.00
1043.192, 10111.00
1044.296, 9870.000
1045.400, 9807.000
1046.505, 9612.000
1047.608, 9435.000
1048.712, 9215.000
1049.816, 9090.000
1050.919, 8999.000
1052.022, 8712.000
1053.126, 8696.000
1054.229, 8477.000
1055.331, 8297.000
1056.434, 8447.000
1057.536, 8149.000
1058.639, 8213.000
1059.741, 8119.000
1060.843, 7934.000
1061.944, 7932.000
1063.046, 8002.000
1064.148, 7944.000
1065.249, 7909.000
1066.350, 7813.000
1067.451, 7816.000
1068.552, 7816.000
1069.652, 7845.000
1070.753, 7748.000
1071.853, 7755.000
1072.953, 7851.000
1074.053, 7749.000
1075.153, 7755.000
1076.253, 7734.000
1077.352, 7707.000
1078.452, 7692.928
1079.551, 7556.000
1080.650, 7636.000
1081.749, 7562.000
1082.847, 7512.000
1083.946, 7669.000
1085.044, 7542.000
1086.143, 7540.000
1087.241, 7641.000
1088.338, 7569.000
1089.436, 7466.000
1090.534, 7574.000
1091.631, 7537.000
1092.728, 7639.000
1093.825, 7650.000
1094.922, 7589.000
1096.019, 7609.000
1097.115, 7650.000
1098.212, 7491.000
1099.308, 7532.000
1100.404, 7554.000
1101.500, 7470.000
1102.596, 7548.000
1103.691, 7535.000
1104.787, 7630.000
1105.882, 7688.000
1106.977, 7650.796
1108.072, 7595.000
1109.167, 7579.000
1110.261, 7526.000
1111.356, 7470.000
1112.450, 7617.000
1113.544, 7652.000
1114.638, 7597.000
1115.732, 7451.000
1116.826, 7599.000
1117.919, 7567.000
1119.012, 7633.000
1120.106, 7462.000
1121.199, 7624.000
1122.291, 7533.000
1123.384, 7607.000
1124.476, 7602.000
1125.569, 7548.000
1126.661, 7553.000
1127.753, 7550.000
1128.845, 7528.000
1129.936, 7606.000
1131.028, 7637.000
1132.119, 7562.000
1133.210, 7570.000
1134.301, 7430.000
1135.392, 7506.000
1136.483, 7670.000
1137.573, 7601.000
1138.664, 7638.000
1139.754, 7644.000
1140.844, 7575.000
1141.934, 7641.000
1143.024, 7583.000
1144.113, 7716.000
1145.203, 7630.000
1146.292, 7640.000
1147.381, 7841.000
1148.470, 7789.000
1149.558, 7726.000
1150.647, 7858.000
1151.735, 7836.000
1152.824, 7822.000
1153.912, 7786.000
1155.000, 7825.000
1156.087, 7988.000
1157.175, 7948.000
1158.262, 8008.000
1159.350, 7974.000
1160.437, 7985.355
1161.524, 7988.000
1162.610, 8013.000
1163.697, 8041.000
1164.783, 8100.000
1165.870, 8114.046
1166.956, 8106.000
1168.042, 8172.000
1169.128, 8125.000
1170.213, 8166.000
1171.299, 8213.000
1172.384, 8275.000
1173.469, 8205.000
1174.554, 8159.000
1175.639, 8208.000
1176.723, 8263.000
1177.808, 8281.000
1178.892, 8297.804
1179.976, 8284.000
1181.060, 8299.000
1182.144, 8205.000
1183.228, 8199.000
1184.311, 8279.000
1185.395, 8212.000
1186.478, 8266.000
1187.561, 8205.195
1188.644, 8220.102
1189.726, 8102.000
1190.809, 8209.000
1191.891, 8226.000
1192.974, 8164.000
1194.056, 8274.000
1195.137, 8239.000
1196.219, 8212.000
1197.301, 8307.000
1198.382, 8218.000
1199.463, 8373.000
1200.544, 8182.000
1201.625, 8196.000
1202.706, 8272.000
1203.786, 8146.000
1204.867, 8244.000
1205.947, 8301.000
1207.027, 8173.000
1208.107, 8244.000
1209.187, 8233.000
1210.266, 8150.000
1211.346, 8141.000
1212.425, 8226.000
1213.504, 8071.000
1214.583, 8131.000
1215.662, 8262.000
1216.740, 8141.000
1217.819, 8161.000
1218.897, 8199.000
1219.975, 8143.000
1221.053, 8043.000
1222.131, 8041.000
1223.209, 8272.000
1224.286, 8151.000
1225.363, 8240.000
1226.441, 8101.000
1227.518, 8031.000
1228.594, 8159.000
1229.671, 8128.000
1230.747, 8189.000
1231.824, 8107.000
1232.900, 8141.000
1233.976, 8143.000
1235.052, 8120.499
1236.127, 8107.000
1237.203, 8130.000
1238.278, 8196.000
1239.353, 8239.000
1240.428, 8237.299
1241.503, 8231.363
1242.578, 8236.000
1243.653, 8177.000
1244.727, 8188.000
1245.801, 8204.000
1246.875, 8347.000
1247.949, 8278.000
1249.023, 8332.000
1250.096, 8438.000
1251.170, 8365.000
1252.243, 8307.000
1253.316, 8387.000
1254.389, 8350.000
1255.462, 8478.000
1256.534, 8476.000
1257.606, 8494.000
1258.679, 8370.000
1259.751, 8499.000
1260.823, 8440.000
1261.894, 8465.000
1262.966, 8484.000
1264.037, 8489.000
1265.109, 8494.000
1266.180, 8556.000
1267.251, 8572.000
1268.322, 8658.000
1269.392, 8611.000
1270.463, 8677.000
1271.533, 9276.000
1272.603, 8735.000
1273.673, 8587.000
1274.743, 9182.000
1275.812, 8523.000
1276.882, 8611.000
1277.951, 8577.000
1279.020, 8447.000
1280.089, 8453.000
1281.158, 8589.000
1282.227, 8546.000
1283.295, 8601.000
1284.364, 8549.000
1285.432, 8621.000
1286.500, 8520.000
1287.568, 8506.000
1288.635, 8577.000
1289.703, 8575.000
1290.770, 8655.000
1291.837, 8615.000
1292.904, 8513.000
1293.971, 8692.000
1295.038, 8477.000
1296.104, 8486.000
1297.171, 8517.000
1298.237, 8396.000
1299.303, 8537.000
1300.369, 8403.000
1301.435, 8568.000
1302.500, 8432.000
1303.565, 8474.000
1304.631, 8517.000
1305.696, 8367.000
1306.761, 8471.000
1307.825, 8380.000
1308.890, 8513.000
1309.954, 8288.000
1311.019, 8409.000
1312.083, 8435.000
1313.147, 8342.000
1314.210, 8419.000
1315.274, 8442.000
1316.337, 8392.000
1317.401, 8413.000
1318.464, 8371.000
1319.527, 8318.000
1320.590, 8268.000
1321.652, 8148.000
1322.715, 8374.000
1323.777, 8154.000
1324.839, 8259.000
1325.901, 8324.000
1326.963, 8254.000
1328.024, 8432.000
1329.086, 8230.000
1330.147, 8393.000
1331.208, 8257.000
1332.269, 8457.000
1333.330, 8321.000
1334.391, 8336.000
1335.451, 8366.000
1336.512, 8375.000
1337.572, 8334.000
1338.632, 8394.000
1339.692, 8385.000
1340.751, 8273.000
1341.811, 8384.000
1342.870, 8336.000
1343.929, 8388.000
1344.988, 8420.000
1346.047, 8381.000
1347.106, 8267.000
1348.165, 8451.000
1349.223, 8416.000
1350.281, 8349.000
1351.339, 8467.000
1352.397, 8397.000
1353.455, 8481.000
1354.512, 8441.000
1355.570, 8403.000
1356.627, 8511.000
1357.684, 8420.000
1358.741, 8571.000
1359.798, 8521.000
1360.854, 8359.000
1361.911, 8501.000
1362.967, 8447.000
1364.023, 8393.000
1365.079, 8554.000
1366.135, 8395.000
1367.191, 8563.000
1368.246, 8496.000
1369.301, 8519.000
1370.356, 8563.935
1371.411, 8586.000
1372.466, 8578.000
1373.521, 8570.000
1374.575, 8545.000
1375.630, 8573.000
1376.684, 8639.000
1377.738, 8662.000
1378.791, 8644.000
1379.845, 8785.000
1380.899, 8793.000
1381.952, 8605.000
1383.005, 8745.000
1384.058, 8699.000
1385.111, 8664.000
1386.164, 8729.000
1387.216, 8703.000
1388.268, 8820.000
1389.321, 8686.000
1390.373, 8888.000
1391.425, 8841.000
1392.476, 8705.000
1393.528, 8867.000
1394.579, 8793.000
1395.630, 8898.000
1396.681, 8970.000
1397.732, 8924.000
1398.783, 8905.000
1399.834, 8819.000
1400.884, 8826.000
1401.934, 8811.162
1402.984, 8783.000
1404.034, 8851.000
1405.084, 8935.000
1406.134, 9020.000
1407.183, 8956.000
1408.232, 8896.000
1409.281, 8919.000
1410.330, 8947.000
1411.379, 9005.000
1412.428, 8959.000
1413.476, 8905.000
1414.524, 9072.000
1415.572, 8974.000
1416.620, 8960.000
1417.668, 9034.000
1418.716, 9027.000
1419.763, 9024.000
1420.811, 9054.000
1421.858, 9058.000
1422.905, 9091.000
1423.951, 8976.000
1424.998, 8969.000
1426.045, 8959.000
1427.091, 8993.000
1428.137, 8994.000
1429.183, 9020.000
1430.229, 9007.000
1431.275, 8936.000
1432.320, 8973.000
1433.365, 8914.000
1434.411, 8955.000
1435.456, 8948.000
1436.501, 8881.000
1437.545, 8998.000
1438.590, 8886.000
1439.634, 8948.000
1440.678, 8912.000
1441.722, 8942.000
1442.766, 9105.000
1443.810, 8799.000
1444.854, 9066.000
1445.897, 9036.000
1446.940, 8879.000
1447.983, 9078.000
1449.026, 8919.000
1450.069, 8841.000
1451.112, 9019.000
1452.154, 9166.000
1453.196, 9040.000
1454.238, 8994.000
1455.280, 9001.000
1456.322, 8928.000
1457.364, 9047.000
1458.405, 9039.000
1459.446, 9020.000
1460.487, 9213.000
1461.528, 9047.000
1462.569, 9162.000
1463.610, 9370.000
1464.650, 9073.000
1465.691, 9135.000
1466.731, 9250.000
1467.771, 9173.000
1468.810, 9193.000
1469.850, 9257.000
1470.890, 9313.000
1471.929, 9245.000
1472.968, 9300.000
1474.007, 9424.000
1475.046, 9380.000
1476.085, 9367.000
1477.123, 9263.000
1478.162, 9257.000
1479.200, 9349.000
1480.238, 9369.000
1481.276, 9309.000
1482.313, 9308.000
1483.351, 9384.000
1484.388, 9482.000
1485.425, 9465.000
1486.462, 9502.000
1487.499, 9228.000
1488.536, 9297.000
1489.573, 9254.000
1490.609, 9408.000
1491.645, 9315.000
1492.681, 9502.000
1493.717, 9313.000
1494.753, 9519.000
1495.789, 9534.000
1496.824, 9618.000
1497.859, 9540.000
1498.894, 9515.000
1499.929, 9526.000
1500.964, 9574.000
1501.999, 9591.000
1503.033, 9557.000
1504.067, 9579.000
1505.102, 9667.000
1506.136, 9635.000
1507.169, 9534.000
1508.203, 9776.000
1509.236, 9772.000
1510.270, 9601.000
1511.303, 9603.000
1512.336, 9651.000
1513.369, 9611.000
1514.401, 9556.000
1515.434, 9685.000
1516.466, 9594.000
1517.498, 9472.000
1518.530, 9600.000
1519.562, 9491.000
1520.594, 9587.000
1521.625, 9547.000
1522.657, 9515.000
1523.688, 9440.000
1524.719, 9398.000
1525.750, 9606.000
1526.781, 9365.000
1527.811, 9486.000
1528.841, 9516.000
1529.872, 9370.000
1530.902, 9417.000
1531.932, 9329.000
1532.961, 9543.000
1533.991, 9410.000
1535.020, 9501.000
1536.050, 9490.000
1537.079, 9631.000
1538.108, 9507.000
1539.136, 9593.000
1540.165, 9266.000
1541.193, 9416.000
1542.222, 9495.000
1543.250, 9340.000
1544.278, 9492.000
1545.306, 9437.000
1546.333, 9474.000
1547.361, 9452.000
1548.388, 9338.000
1549.415, 9563.000
1550.442, 9429.000
1551.469, 9507.000
1552.495, 9423.000
1553.522, 9490.000
1554.548, 9442.336
1555.574, 9341.000
1556.600, 9390.000
1557.626, 9442.000
1558.652, 9488.000
1559.677, 9439.000
1560.703, 9386.000
1561.728, 9383.000
1562.753, 9366.000
1563.778, 9374.000
1564.803, 9331.284
1565.827, 9350.010
1566.851, 9361.291
1567.876, 9393.000
1568.900, 9412.000
1569.924, 9485.000
1570.947, 9520.488
1571.971, 9540.000
1572.994, 9528.000
1574.017, 9437.000
1575.041, 9355.000
1576.063, 9484.000
1577.086, 9402.000
1578.109, 9391.000
##END=



