##NAMES=Spessartine
##RRUFFID=R080053
##IDEAL CHEMISTRY=Mn^2+^_3_Al_2_(SiO_4_)_3_
##LOCALITY=East Africa
##OWNER=RRUFF
##SOURCE=www.multicolour.com
##DESCRIPTION=Transparent orange fragments
##STATUS=The identification of this mineral has been confirmed by X-ray diffraction and chemical analysis
##URL=rruff.info/R080053
##MEASURED CHEMISTRY=(Mn^2+^_1.32_Mg_0.96_Fe^2+^_0.38_Fe^3+^_0.04_Ca_0.30_)Al_2.00_((Si_0.99_Al_0.01_)O_4_)_3_; Fe^2+^ and Fe^3+^ estimated by charge balance
##PIN_ID=L01780
##ORIENTATION=Laser parallel to a* (1 0 0). Fiducial mark perpendicular to laser is parallel to c [0 0 1]
62.86500, 151.0000
64.10500, 129.0000
65.34500, 129.0000
66.58500, 144.0000
67.82500, 121.0000
69.06500, 148.0000
70.30500, 122.0000
71.54400, 111.0000
72.78300, 139.0000
74.02200, 138.0000
75.26100, 158.0000
76.50000, 160.0000
77.73900, 130.0000
78.97700, 161.0000
80.21500, 191.0000
81.45400, 157.0000
82.69200, 173.0000
83.92900, 183.0000
85.16700, 204.0000
86.40400, 215.0000
87.64200, 287.0000
88.87900, 305.0000
90.11600, 343.0000
91.35300, 473.0000
92.58900, 499.0000
93.82600, 561.0000
95.06200, 658.0000
96.29900, 726.0000
97.53500, 871.0000
98.77000, 984.0000
100.0060, 1105.000
101.2420, 1217.000
102.4770, 1378.000
103.7120, 1544.000
104.9470, 1724.000
106.1820, 1966.000
107.4170, 2193.000
108.6520, 2239.000
109.8860, 2366.000
111.1200, 2386.000
112.3540, 2556.000
113.5880, 2550.000
114.8220, 2797.000
116.0560, 2875.000
117.2890, 2974.000
118.5230, 3005.000
119.7560, 3079.000
120.9890, 3112.328
122.2220, 3132.000
123.4540, 3151.000
124.6870, 3177.000
125.9190, 3164.000
127.1510, 3160.000
128.3830, 3314.000
129.6150, 3287.000
130.8470, 3373.000
132.0780, 3425.000
133.3100, 3367.000
134.5410, 3343.000
135.7720, 3390.000
137.0030, 3450.000
138.2330, 3436.000
139.4640, 3518.000
140.6940, 3446.000
141.9250, 3453.000
143.1550, 3420.000
144.3850, 3360.000
145.6140, 3474.000
146.8440, 3474.000
148.0730, 3502.000
149.3030, 3479.000
150.5320, 3470.000
151.7610, 3473.000
152.9890, 3519.000
154.2180, 3599.000
155.4470, 3563.000
156.6750, 3626.000
157.9030, 3624.000
159.1310, 3663.000
160.3590, 3709.000
161.5860, 3957.000
162.8140, 4047.000
164.0410, 4189.000
165.2680, 4298.000
166.4950, 4496.000
167.7220, 4892.000
168.9490, 5164.000
170.1750, 5486.000
171.4020, 5848.000
172.6280, 6142.000
173.8540, 6410.000
175.0800, 6504.000
176.3060, 6409.000
177.5310, 6183.000
178.7570, 5775.000
179.9820, 5468.000
181.2070, 5083.000
182.4320, 4782.000
183.6570, 4514.000
184.8810, 4321.660
186.1060, 4238.000
187.3300, 4140.000
188.5540, 4099.000
189.7780, 4220.000
191.0020, 4181.000
192.2250, 4022.000
193.4490, 4192.000
194.6720, 4109.000
195.8950, 4213.000
197.1180, 4117.000
198.3410, 4168.000
199.5640, 4164.000
200.7860, 4269.000
202.0080, 4253.000
203.2310, 4322.000
204.4530, 4356.000
205.6740, 4366.000
206.8960, 4301.000
208.1180, 4377.000
209.3390, 4371.000
210.5600, 4481.000
211.7810, 4520.000
213.0020, 4439.000
214.2230, 4513.000
215.4430, 4561.000
216.6640, 4510.000
217.8840, 4574.000
219.1040, 4597.000
220.3240, 4585.000
221.5430, 4574.000
222.7630, 4703.000
223.9820, 4638.000
225.2020, 4695.000
226.4210, 4684.000
227.6400, 4768.000
228.8590, 4772.000
230.0770, 4810.000
231.2960, 4830.185
232.5140, 4833.000
233.7320, 4864.000
234.9500, 4891.000
236.1680, 4947.000
237.3850, 4951.000
238.6030, 4971.758
239.8200, 4987.756
241.0370, 4984.000
242.2540, 5008.000
243.4710, 5013.000
244.6880, 5039.000
245.9040, 5082.000
247.1210, 5083.000
248.3370, 5071.000
249.5530, 5042.000
250.7690, 5097.000
251.9840, 5185.000
253.2000, 5131.000
254.4150, 5085.000
255.6300, 5171.000
256.8450, 5091.000
258.0600, 5118.000
259.2750, 5097.000
260.4900, 5231.000
261.7040, 5252.000
262.9180, 5201.000
264.1320, 5250.000
265.3460, 5241.000
266.5600, 5308.000
267.7730, 5282.000
268.9870, 5312.000
270.2000, 5296.000
271.4130, 5302.000
272.6260, 5334.000
273.8390, 5323.000
275.0520, 5362.000
276.2640, 5369.941
277.4760, 5379.650
278.6880, 5419.000
279.9000, 5415.000
281.1120, 5480.869
282.3240, 5531.000
283.5350, 5604.000
284.7470, 5598.000
285.9580, 5603.000
287.1690, 5685.000
288.3800, 5581.000
289.5900, 5681.000
290.8010, 5828.000
292.0110, 5784.000
293.2210, 5772.000
294.4310, 5805.000
295.6410, 5810.240
296.8510, 5930.000
298.0600, 5882.000
299.2700, 5979.000
300.4790, 6025.000
301.6880, 6067.000
302.8970, 6120.746
304.1060, 5988.000
305.3140, 6174.000
306.5230, 6146.000
307.7310, 6126.000
308.9390, 6236.000
310.1470, 6340.000
311.3550, 6384.000
312.5620, 6533.000
313.7700, 6662.000
314.9770, 6838.000
316.1840, 6923.000
317.3910, 7107.000
318.5980, 7296.000
319.8040, 7617.000
321.0110, 7851.419
322.2170, 8031.000
323.4230, 8474.000
324.6290, 8782.000
325.8350, 9183.000
327.0410, 9667.000
328.2460, 10226.00
329.4510, 10570.00
330.6570, 11177.00
331.8620, 11609.00
333.0660, 12052.71
334.2710, 12651.00
335.4760, 12889.00
336.6800, 13252.00
337.8840, 13544.00
339.0880, 14051.00
340.2920, 14550.00
341.4960, 15230.65
342.6990, 16033.00
343.9030, 16988.00
345.1060, 18170.00
346.3090, 19543.00
347.5120, 21398.00
348.7140, 23702.00
349.9170, 25891.00
351.1190, 28095.00
352.3220, 30602.00
353.5240, 32549.00
354.7260, 34312.00
355.9270, 35232.00
357.1290, 35345.00
358.3300, 34358.00
359.5320, 32723.00
360.7330, 30720.00
361.9340, 28554.00
363.1340, 25928.00
364.3350, 23911.00
365.5360, 22190.00
366.7360, 20783.00
367.9360, 19575.00
369.1360, 18998.00
370.3360, 18305.00
371.5350, 17838.00
372.7350, 17181.00
373.9340, 16761.00
375.1330, 16394.00
376.3320, 15925.00
377.5310, 15138.00
378.7300, 14428.00
379.9280, 14066.00
381.1270, 13170.00
382.3250, 12484.00
383.5230, 11763.00
384.7210, 10994.00
385.9180, 10486.00
387.1160, 9641.000
388.3130, 9199.000
389.5100, 8608.000
390.7080, 8095.000
391.9040, 7807.000
393.1010, 7359.000
394.2980, 7076.000
395.4940, 6586.000
396.6900, 6527.000
397.8860, 6182.000
399.0820, 6063.000
400.2780, 5903.000
401.4740, 5761.000
402.6690, 5664.000
403.8640, 5425.000
405.0590, 5434.000
406.2540, 5257.000
407.4490, 5299.000
408.6440, 5206.000
409.8380, 5086.000
411.0320, 5079.000
412.2260, 4988.000
413.4200, 4890.000
414.6140, 4876.000
415.8080, 4814.000
417.0010, 4844.000
418.1950, 4775.000
419.3880, 4691.000
420.5810, 4702.000
421.7740, 4624.000
422.9660, 4584.000
424.1590, 4598.000
425.3510, 4546.000
426.5430, 4557.000
427.7350, 4526.000
428.9270, 4521.921
430.1190, 4503.000
431.3100, 4515.000
432.5020, 4574.000
433.6930, 4563.000
434.8840, 4556.000
436.0750, 4582.000
437.2650, 4558.084
438.4560, 4524.000
439.6460, 4515.000
440.8370, 4517.000
442.0270, 4458.000
443.2160, 4461.982
444.4060, 4543.000
445.5960, 4434.000
446.7850, 4444.000
447.9740, 4435.000
449.1640, 4557.000
450.3520, 4532.000
451.5410, 4525.000
452.7300, 4495.000
453.9180, 4532.000
455.1060, 4561.000
456.2950, 4597.000
457.4830, 4570.000
458.6700, 4653.000
459.8580, 4705.000
461.0450, 4663.000
462.2330, 4682.000
463.4200, 4632.000
464.6070, 4694.000
465.7940, 4742.000
466.9800, 4731.000
468.1670, 4731.000
469.3530, 4706.000
470.5390, 4789.000
471.7250, 4831.000
472.9110, 4826.000
474.0970, 4867.000
475.2820, 4883.000
476.4670, 4906.266
477.6530, 4936.220
478.8380, 4953.000
480.0220, 4964.000
481.2070, 4970.000
482.3920, 4930.000
483.5760, 5025.000
484.7600, 4913.000
485.9440, 5023.000
487.1280, 4938.000
488.3120, 4879.000
489.4950, 5061.000
490.6790, 4949.000
491.8620, 5011.000
493.0450, 5117.000
494.2280, 5188.000
495.4110, 5240.000
496.5930, 5237.000
497.7760, 5325.000
498.9580, 5266.000
500.1400, 5628.000
501.3220, 5622.000
502.5040, 5827.000
503.6850, 5737.000
504.8670, 5893.000
506.0480, 5926.000
507.2290, 5916.000
508.4100, 5842.000
509.5910, 5916.000
510.7710, 5800.000
511.9520, 5787.000
513.1320, 5770.000
514.3120, 5780.104
515.4920, 5903.000
516.6720, 5922.000
517.8520, 6000.000
519.0310, 6181.000
520.2110, 6353.000
521.3900, 6403.000
522.5690, 6484.000
523.7480, 6485.000
524.9260, 6544.000
526.1050, 6609.949
527.2830, 6807.000
528.4610, 6723.000
529.6390, 6801.000
530.8170, 6805.000
531.9950, 6804.000
533.1720, 6927.000
534.3500, 6936.000
535.5270, 7086.000
536.7040, 7261.000
537.8810, 7459.210
539.0570, 7690.000
540.2340, 8007.000
541.4100, 8339.000
542.5870, 8676.000
543.7630, 9266.000
544.9390, 9645.000
546.1140, 10386.00
547.2900, 11280.00
548.4650, 12210.00
549.6410, 13415.00
550.8160, 14309.00
551.9910, 15582.00
553.1650, 16625.00
554.3400, 17735.00
555.5140, 18496.00
556.6890, 18982.00
557.8630, 18790.00
559.0370, 18101.00
560.2100, 17104.00
561.3840, 15473.00
562.5580, 14066.00
563.7310, 12659.00
564.9040, 11233.00
566.0770, 10203.00
567.2500, 9255.000
568.4220, 8547.000
569.5950, 8033.000
570.7670, 7566.000
571.9390, 7265.000
573.1110, 6859.000
574.2830, 6610.000
575.4550, 6377.000
576.6260, 6296.000
577.7980, 6199.000
578.9690, 6005.000
580.1400, 5876.000
581.3110, 5920.000
582.4810, 5782.000
583.6520, 5784.000
584.8220, 5698.000
585.9920, 5802.000
587.1620, 5682.000
588.3320, 5575.000
589.5020, 5652.000
590.6720, 5571.000
591.8410, 5640.000
593.0100, 5621.000
594.1790, 5536.000
595.3480, 5760.000
596.5170, 5718.000
597.6850, 5689.000
598.8540, 5729.000
600.0220, 5688.000
601.1900, 5645.000
602.3580, 5729.000
603.5260, 5789.000
604.6930, 5725.000
605.8610, 5592.000
607.0280, 5535.000
608.1950, 5567.000
609.3620, 5394.000
610.5290, 5334.000
611.6950, 5292.000
612.8620, 5365.000
614.0280, 5282.000
615.1940, 5267.000
616.3600, 5181.000
617.5260, 5076.000
618.6920, 5259.000
619.8570, 5310.000
621.0220, 5183.000
622.1880, 5248.000
623.3530, 5243.000
624.5170, 5309.000
625.6820, 5336.214
626.8470, 5308.000
628.0110, 5412.000
629.1750, 5487.000
630.3390, 5544.000
631.5030, 5528.000
632.6670, 5661.000
633.8300, 5765.000
634.9930, 5832.000
636.1570, 5794.000
637.3200, 5760.000
638.4820, 5753.000
639.6450, 5811.000
640.8080, 5722.000
641.9700, 5820.000
643.1320, 5693.000
644.2940, 5613.000
645.4560, 5629.000
646.6180, 5670.000
647.7790, 5502.000
648.9410, 5506.000
650.1020, 5509.000
651.2630, 5492.000
652.4240, 5326.000
653.5850, 5404.000
654.7450, 5346.000
655.9060, 5394.000
657.0660, 5407.000
658.2260, 5411.000
659.3860, 5244.000
660.5460, 5178.000
661.7050, 5208.000
662.8650, 5270.000
664.0240, 5176.000
665.1830, 5107.000
666.3420, 5051.000
667.5010, 5093.000
668.6600, 5068.716
669.8180, 5073.824
670.9760, 5118.000
672.1340, 5066.000
673.2920, 5103.000
674.4500, 5048.000
675.6080, 5083.000
676.7650, 5023.000
677.9230, 5103.000
679.0800, 5124.000
680.2370, 5043.000
681.3940, 5106.000
682.5500, 5063.000
683.7070, 5032.000
684.8630, 4996.000
686.0190, 5094.000
687.1750, 5015.000
688.3310, 5010.000
689.4870, 5014.000
690.6420, 4966.000
691.7980, 4939.000
692.9530, 5063.000
694.1080, 4984.000
695.2630, 5093.000
696.4180, 5087.000
697.5720, 5102.000
698.7260, 5089.000
699.8810, 5111.000
701.0350, 5074.000
702.1890, 5086.000
703.3420, 5180.000
704.4960, 5151.000
705.6490, 5054.000
706.8030, 5179.000
707.9560, 5145.000
709.1080, 5171.000
710.2610, 5294.000
711.4140, 5290.000
712.5660, 5285.000
713.7180, 5287.000
714.8710, 5250.000
716.0230, 5262.921
717.1740, 5173.000
718.3260, 5263.000
719.4770, 5197.000
720.6290, 5182.000
721.7800, 5239.000
722.9310, 5288.000
724.0810, 5247.000
725.2320, 5284.000
726.3830, 5225.000
727.5330, 5250.000
728.6830, 5226.000
729.8330, 5241.783
730.9830, 5266.000
732.1320, 5294.000
733.2820, 5306.000
734.4310, 5338.000
735.5800, 5336.000
736.7290, 5322.000
737.8780, 5424.000
739.0270, 5305.000
740.1750, 5350.000
741.3240, 5475.000
742.4720, 5426.000
743.6200, 5384.000
744.7680, 5401.000
745.9150, 5458.000
747.0630, 5396.000
748.2100, 5463.000
749.3570, 5449.000
750.5050, 5517.000
751.6510, 5501.000
752.7980, 5438.000
753.9450, 5444.000
755.0910, 5532.000
756.2370, 5569.000
757.3830, 5527.000
758.5290, 5506.000
759.6750, 5538.689
760.8200, 5615.000
761.9660, 5604.000
763.1110, 5586.000
764.2560, 5654.000
765.4010, 5624.000
766.5460, 5564.000
767.6900, 5545.000
768.8350, 5599.000
769.9790, 5579.000
771.1230, 5623.000
772.2670, 5659.000
773.4110, 5731.000
774.5550, 5676.000
775.6980, 5709.000
776.8410, 5696.000
777.9840, 5707.000
779.1270, 5721.000
780.2700, 5805.000
781.4130, 5843.000
782.5550, 5764.000
783.6970, 5857.000
784.8400, 5768.000
785.9820, 5855.000
787.1230, 5885.000
788.2650, 5854.000
789.4070, 5880.000
790.5480, 6023.000
791.6890, 5984.000
792.8300, 6016.000
793.9710, 6062.000
795.1110, 6042.000
796.2520, 6100.000
797.3920, 6113.000
798.5330, 6256.000
799.6730, 6277.000
800.8120, 6350.000
801.9520, 6396.000
803.0920, 6494.482
804.2310, 6584.000
805.3700, 6721.000
806.5090, 6732.000
807.6480, 6855.000
808.7870, 6866.000
809.9250, 7124.000
811.0640, 7096.000
812.2020, 7253.000
813.3400, 7347.000
814.4780, 7386.000
815.6160, 7387.000
816.7530, 7445.000
817.8910, 7624.000
819.0280, 7491.000
820.1650, 7606.000
821.3020, 7678.000
822.4380, 7607.000
823.5750, 7608.000
824.7110, 7647.000
825.8480, 7555.000
826.9840, 7615.000
828.1200, 7601.000
829.2560, 7499.000
830.3910, 7669.000
831.5270, 7707.000
832.6620, 7640.000
833.7970, 7690.000
834.9320, 7733.303
836.0670, 7875.000
837.2010, 7855.000
838.3360, 8055.000
839.4700, 8107.000
840.6040, 8290.000
841.7380, 8424.000
842.8720, 8591.000
844.0060, 8711.000
845.1390, 8877.000
846.2720, 9105.146
847.4060, 9290.000
848.5390, 9641.000
849.6710, 9803.000
850.8040, 10170.00
851.9370, 10333.00
853.0690, 10516.00
854.2010, 10635.00
855.3330, 10599.00
856.4650, 10542.00
857.5970, 10540.00
858.7280, 10573.00
859.8600, 10481.82
860.9910, 10389.00
862.1220, 10299.00
863.2530, 10193.00
864.3830, 10012.00
865.5140, 10076.00
866.6440, 10088.00
867.7740, 10054.00
868.9040, 10232.00
870.0340, 10259.00
871.1640, 10402.00
872.2940, 10504.00
873.4230, 10680.00
874.5520, 11012.00
875.6810, 11062.00
876.8100, 11340.00
877.9390, 11672.00
879.0680, 12128.00
880.1960, 12454.00
881.3240, 12814.00
882.4520, 13141.00
883.5800, 13669.30
884.7080, 14159.00
885.8360, 14756.00
886.9630, 15396.00
888.0900, 15924.00
889.2170, 16696.00
890.3440, 17832.00
891.4710, 18952.00
892.5980, 20256.00
893.7240, 21752.00
894.8510, 23508.00
895.9770, 25671.00
897.1030, 28657.00
898.2280, 31644.00
899.3540, 35763.00
900.4800, 40708.00
901.6050, 46504.60
902.7300, 53288.00
903.8550, 60939.00
904.9800, 69602.00
906.1050, 79235.00
907.2290, 88497.00
908.3530, 98487.00
909.4780, 106514.0
910.6020, 112799.0
911.7250, 116718.0
912.8490, 116784.0
913.9730, 113257.0
915.0960, 106579.0
916.2190, 98703.00
917.3420, 88177.00
918.4650, 78186.00
919.5880, 68376.00
920.7100, 59306.00
921.8330, 52322.00
922.9550, 45601.00
924.0770, 39943.00
925.1990, 35682.00
926.3200, 32028.00
927.4420, 28623.00
928.5630, 25955.00
929.6850, 23721.00
930.8060, 21814.00
931.9270, 19949.00
933.0470, 18468.00
934.1680, 17455.00
935.2880, 16245.00
936.4090, 15236.00
937.5290, 14524.00
938.6490, 13802.00
939.7680, 13292.00
940.8880, 12703.69
942.0070, 12132.00
943.1270, 11798.00
944.2460, 11466.00
945.3650, 11213.00
946.4830, 10859.00
947.6020, 10669.00
948.7210, 10549.00
949.8390, 10241.00
950.9570, 10068.00
952.0750, 9899.000
953.1930, 9717.000
954.3100, 9548.000
955.4280, 9409.000
956.5450, 9405.000
957.6620, 9427.000
958.7790, 9268.000
959.8960, 9283.000
961.0130, 9175.000
962.1290, 9097.000
963.2460, 8882.000
964.3620, 8811.000
965.4780, 9003.000
966.5940, 8835.000
967.7090, 8857.000
968.8250, 8711.000
969.9400, 8750.000
971.0550, 8861.000
972.1700, 8790.000
973.2850, 8816.803
974.4000, 8701.000
975.5140, 8767.000
976.6290, 8705.000
977.7430, 8687.000
978.8570, 8609.000
979.9710, 8577.000
981.0850, 8522.346
982.1980, 8439.000
983.3120, 8422.000
984.4250, 8378.000
985.5380, 8348.000
986.6510, 8374.000
987.7630, 8359.000
988.8760, 8295.000
989.9880, 8214.000
991.1010, 8189.000
992.2130, 8162.581
993.3250, 8198.000
994.4360, 8174.000
995.5480, 8238.000
996.6590, 8293.000
997.7710, 8327.000
998.8820, 8389.000
999.9930, 8318.000
1001.104, 8444.000
1002.214, 8445.000
1003.325, 8556.000
1004.435, 8594.700
1005.545, 8400.000
1006.655, 8653.000
1007.765, 8578.000
1008.874, 8540.000
1009.984, 8689.000
1011.093, 8701.000
1012.202, 8675.000
1013.311, 8721.000
1014.420, 8751.414
1015.529, 8888.000
1016.637, 8851.000
1017.746, 8946.000
1018.854, 8992.000
1019.962, 9048.928
1021.069, 9060.000
1022.177, 9155.000
1023.285, 9195.000
1024.392, 9138.000
1025.499, 9080.000
1026.606, 9084.000
1027.713, 9124.335
1028.820, 9316.000
1029.926, 9273.000
1031.033, 9351.000
1032.139, 9421.000
1033.245, 9392.000
1034.351, 9603.445
1035.456, 9597.562
1036.562, 9645.737
1037.667, 9629.000
1038.773, 9644.949
1039.878, 9577.000
1040.983, 9637.000
1042.087, 9621.000
1043.192, 9573.000
1044.296, 9609.000
1045.400, 10877.00
1046.505, 11135.00
1047.608, 11088.00
1048.712, 9220.000
1049.816, 8652.000
1050.919, 8607.000
1052.022, 8474.000
1053.126, 8341.000
1054.229, 8206.000
1055.331, 8172.000
1056.434, 7983.000
1057.536, 8025.000
1058.639, 7911.000
1059.741, 7921.000
1060.843, 7757.000
1061.944, 7815.000
1063.046, 7670.000
1064.148, 7660.000
1065.249, 7813.000
1066.350, 7685.000
1067.451, 7600.000
1068.552, 7669.000
1069.652, 7665.000
1070.753, 7653.000
1071.853, 7608.000
1072.953, 7614.000
1074.053, 7556.000
1075.153, 7559.000
1076.253, 7464.000
1077.352, 7584.000
1078.452, 7528.000
1079.551, 7497.000
1080.650, 7434.000
1081.749, 7559.000
1082.847, 7553.000
1083.946, 7437.000
1085.044, 7477.000
1086.143, 7360.000
1087.241, 7497.000
1088.338, 7594.000
1089.436, 7516.000
1090.534, 7512.000
1091.631, 7531.000
1092.728, 7444.000
1093.825, 7573.000
1094.922, 7392.000
1096.019, 7490.000
1097.115, 7552.000
1098.212, 7439.000
1099.308, 7416.000
1100.404, 7454.000
1101.500, 7410.000
1102.596, 7477.000
1103.691, 7357.000
1104.787, 7524.000
1105.882, 7389.000
1106.977, 7537.000
1108.072, 7458.000
1109.167, 7456.000
1110.261, 7328.000
1111.356, 7446.000
1112.450, 7529.000
1113.544, 7522.000
1114.638, 7487.000
1115.732, 7507.000
1116.826, 7457.000
1117.919, 7433.000
1119.012, 7465.000
1120.106, 7534.000
1121.199, 7481.000
1122.291, 7473.000
1123.384, 7520.000
1124.476, 7404.000
1125.569, 7497.000
1126.661, 7591.000
1127.753, 7404.000
1128.845, 7445.000
1129.936, 7553.000
1131.028, 7510.000
1132.119, 7477.000
1133.210, 7446.000
1134.301, 7602.000
1135.392, 7405.000
1136.483, 7517.000
1137.573, 7593.000
1138.664, 7460.000
1139.754, 7623.000
1140.844, 7653.000
1141.934, 7538.000
1143.024, 7573.000
1144.113, 7495.000
1145.203, 7641.000
1146.292, 7643.000
1147.381, 7604.000
1148.470, 7568.000
1149.558, 7655.000
1150.647, 7583.000
1151.735, 7706.000
1152.824, 7651.000
1153.912, 7618.000
1155.000, 7756.000
1156.087, 7794.000
1157.175, 7688.000
1158.262, 7675.000
1159.350, 7721.035
1160.437, 7797.000
1161.524, 7829.000
1162.610, 7836.000
1163.697, 7896.000
1164.783, 7900.000
1165.870, 7969.000
1166.956, 8006.462
1168.042, 7863.000
1169.128, 8054.000
1170.213, 8043.000
1171.299, 7962.000
1172.384, 8183.000
1173.469, 8040.000
1174.554, 8003.000
1175.639, 8198.000
1176.723, 8126.000
1177.808, 8011.000
1178.892, 7984.000
1179.976, 8024.000
1181.060, 8020.000
1182.144, 8050.000
1183.228, 8063.000
1184.311, 8027.000
1185.395, 8055.000
1186.478, 8018.000
1187.561, 7985.000
1188.644, 8066.000
1189.726, 8136.000
1190.809, 8150.000
1191.891, 8102.000
1192.974, 8167.000
1194.056, 8138.207
1195.137, 8146.000
1196.219, 8132.000
1197.301, 8136.000
1198.382, 8142.696
1199.463, 8111.086
1200.544, 8071.000
1201.625, 8048.000
1202.706, 8030.000
1203.786, 8013.125
1204.867, 7984.000
1205.947, 8004.231
1207.027, 8018.000
1208.107, 8033.000
1209.187, 8115.000
1210.266, 8051.000
1211.346, 8012.000
1212.425, 8075.000
1213.504, 7912.000
1214.583, 8027.000
1215.662, 8042.000
1216.740, 8073.000
1217.819, 8069.993
1218.897, 8130.000
1219.975, 8003.000
1221.053, 8005.000
1222.131, 7971.000
1223.209, 8076.000
1224.286, 8095.000
1225.363, 8082.000
1226.441, 7969.000
1227.518, 8002.000
1228.594, 7983.000
1229.671, 8016.000
1230.747, 8003.000
1231.824, 7974.000
1232.900, 8008.000
1233.976, 8059.000
1235.052, 8026.000
1236.127, 8065.000
1237.203, 8019.000
1238.278, 8045.000
1239.353, 8147.000
1240.428, 8109.000
1241.503, 8139.000
1242.578, 8005.000
1243.653, 8157.000
1244.727, 8147.000
1245.801, 8208.000
1246.875, 8227.000
1247.949, 8198.000
1249.023, 8150.000
1250.096, 8189.000
1251.170, 8209.000
1252.243, 8117.000
1253.316, 8236.000
1254.389, 8261.000
1255.462, 8270.000
1256.534, 8235.000
1257.606, 8270.000
1258.679, 8249.000
1259.751, 8283.000
1260.823, 8338.000
1261.894, 8324.000
1262.966, 8204.000
1264.037, 8264.000
1265.109, 8244.000
1266.180, 8323.000
1267.251, 8297.847
1268.322, 8428.000
1269.392, 8294.000
1270.463, 8389.000
1271.533, 8456.000
1272.603, 8384.000
1273.673, 8363.000
1274.743, 8296.000
1275.812, 8285.000
1276.882, 8309.000
1277.951, 8289.002
1279.020, 8368.000
1280.089, 8334.000
1281.158, 8380.046
1282.227, 8457.000
1283.295, 8380.000
1284.364, 8392.000
1285.432, 8374.000
1286.500, 8318.000
1287.568, 8413.000
1288.635, 8426.000
1289.703, 8294.000
1290.770, 8383.000
1291.837, 8368.000
1292.904, 8377.000
1293.971, 8325.000
1295.038, 8338.000
1296.104, 8391.000
1297.171, 8356.000
1298.237, 8261.000
1299.303, 8276.000
1300.369, 8327.000
1301.435, 8290.000
1302.500, 8369.000
1303.565, 8307.000
1304.631, 8169.000
1305.696, 8277.000
1306.761, 8230.000
1307.825, 8372.000
1308.890, 8292.000
1309.954, 8231.000
1311.019, 8237.000
1312.083, 8283.000
1313.147, 8312.000
1314.210, 8266.000
1315.274, 8291.000
1316.337, 8203.000
1317.401, 8219.000
1318.464, 8248.000
1319.527, 8313.000
1320.590, 8296.000
1321.652, 8293.157
1322.715, 8303.905
1323.777, 8239.000
1324.839, 8275.000
1325.901, 8265.000
1326.963, 8222.000
1328.024, 8292.000
1329.086, 8259.000
1330.147, 8239.000
1331.208, 8111.000
1332.269, 8200.000
1333.330, 8175.000
1334.391, 8290.000
1335.451, 8140.000
1336.512, 8222.000
1337.572, 8189.000
1338.632, 8339.000
1339.692, 8377.000
1340.751, 8335.000
1341.811, 8212.000
1342.870, 8239.000
1343.929, 8208.000
1344.988, 8234.000
1346.047, 8316.000
1347.106, 8185.000
1348.165, 8294.000
1349.223, 8344.000
1350.281, 8204.000
1351.339, 8322.000
1352.397, 8381.000
1353.455, 8254.000
1354.512, 8243.000
1355.570, 8331.000
1356.627, 8226.000
1357.684, 8317.000
1358.741, 8322.000
1359.798, 8424.000
1360.854, 8346.000
1361.911, 8414.854
1362.967, 8347.000
1364.023, 8456.000
1365.079, 8397.000
1366.135, 8368.000
1367.191, 8419.000
1368.246, 8513.000
1369.301, 8457.000
1370.356, 8413.000
1371.411, 8317.000
1372.466, 8373.000
1373.521, 8477.000
1374.575, 8425.000
1375.630, 8482.000
1376.684, 8508.000
1377.738, 8591.000
1378.791, 8489.000
1379.845, 8517.000
1380.899, 8499.000
1381.952, 8527.000
1383.005, 8531.000
1384.058, 8446.000
1385.111, 8627.000
1386.164, 8538.000
1387.216, 8653.000
1388.268, 8662.765
1389.321, 8631.431
1390.373, 8646.000
1391.425, 8648.000
1392.476, 8570.000
1393.528, 8698.000
1394.579, 8600.000
1395.630, 8680.000
1396.681, 8599.000
1397.732, 8672.000
1398.783, 8744.000
1399.834, 8732.000
1400.884, 8752.000
1401.934, 8761.000
1402.984, 8717.000
1404.034, 8750.000
1405.084, 8753.683
1406.134, 8811.000
1407.183, 8791.000
1408.232, 8793.000
1409.281, 8802.000
1410.330, 8760.000
1411.379, 8782.503
1412.428, 8876.000
1413.476, 8809.000
1414.524, 8768.000
1415.572, 8801.000
1416.620, 8930.000
1417.668, 8835.000
1418.716, 8876.000
1419.763, 8768.000
1420.811, 8787.000
1421.858, 8901.000
1422.905, 8733.000
1423.951, 8803.000
1424.998, 8813.000
1426.045, 8849.000
1427.091, 8879.000
1428.137, 8807.825
1429.183, 8854.000
1430.229, 8715.000
1431.275, 8671.000
1432.320, 8764.000
1433.365, 8775.000
1434.411, 8891.000
1435.456, 8809.000
1436.501, 8808.000
1437.545, 8867.000
1438.590, 8716.000
1439.634, 8821.000
1440.678, 8770.000
1441.722, 8820.000
1442.766, 8766.000
1443.810, 8898.000
1444.854, 8846.000
1445.897, 8836.000
1446.940, 8752.000
1447.983, 8813.000
1449.026, 8820.000
1450.069, 8849.000
1451.112, 8821.000
1452.154, 8884.000
1453.196, 8829.000
1454.238, 8837.000
1455.280, 8819.000
1456.322, 8830.410
1457.364, 8817.507
1458.405, 8831.728
1459.446, 8806.000
1460.487, 8860.000
1461.528, 8878.000
1462.569, 8887.000
1463.610, 8933.000
1464.650, 8925.000
1465.691, 8994.000
1466.731, 8977.113
1467.771, 8945.000
1468.810, 8944.000
1469.850, 9011.000
1470.890, 8962.000
1471.929, 9032.000
1472.968, 8968.000
1474.007, 9016.000
1475.046, 9051.000
1476.085, 9156.000
1477.123, 9213.000
1478.162, 9148.430
1479.200, 9137.461
1480.238, 9053.000
1481.276, 9002.000
1482.313, 9097.000
1483.351, 9099.000
1484.388, 9122.000
1485.425, 9192.000
1486.462, 9170.000
1487.499, 9227.000
1488.536, 9130.000
1489.573, 9170.000
1490.609, 9213.000
1491.645, 9112.000
1492.681, 9147.000
1493.717, 9254.000
1494.753, 9160.000
1495.789, 9199.000
1496.824, 9285.000
1497.859, 9214.000
1498.894, 9230.000
1499.929, 9256.000
1500.964, 9197.000
1501.999, 9287.872
1503.033, 9281.281
1504.067, 9401.000
1505.102, 9343.000
1506.136, 9327.000
1507.169, 9370.000
1508.203, 9409.000
1509.236, 9376.000
1510.270, 9330.000
1511.303, 9325.000
1512.336, 9282.000
1513.369, 9269.000
1514.401, 9271.889
1515.434, 9345.000
1516.466, 9263.000
1517.498, 9318.000
1518.530, 9268.000
1519.562, 9346.000
1520.594, 9342.000
1521.625, 9088.000
1522.657, 9316.000
1523.688, 9326.000
1524.719, 9133.000
1525.750, 9304.000
1526.781, 9206.000
1527.811, 9242.000
1528.841, 9224.000
1529.872, 9026.000
1530.902, 9264.000
1531.932, 9088.000
1532.961, 9258.000
1533.991, 9306.000
1535.020, 9168.000
1536.050, 9121.000
1537.079, 9235.000
1538.108, 9149.000
1539.136, 9197.000
1540.165, 9220.000
1541.193, 9258.000
1542.222, 9267.396
1543.250, 9168.000
1544.278, 9266.000
1545.306, 9172.000
1546.333, 9139.000
1547.361, 9142.000
1548.388, 9132.000
1549.415, 9077.000
1550.442, 9115.000
1551.469, 9303.000
1552.495, 9175.000
1553.522, 9230.000
1554.548, 9280.000
1555.574, 9178.000
1556.600, 9109.000
1557.626, 9088.000
1558.652, 9075.364
1559.677, 9086.559
1560.703, 9133.000
1561.728, 9161.000
1562.753, 9214.000
1563.778, 9265.000
1564.803, 9201.000
1565.827, 9143.000
1566.851, 9227.000
1567.876, 9275.000
1568.900, 9186.000
1569.924, 9205.000
1570.947, 9116.000
1571.971, 9160.000
1572.994, 9197.000
1574.017, 9235.000
1575.041, 9193.000
1576.063, 9327.000
1577.086, 9222.000
1578.109, 9220.000
##END=



