##NAMES=Spessartine
##RRUFFID=R060451
##IDEAL CHEMISTRY=Mn^2+^_3_Al_2_(SiO_4_)_3_
##LOCALITY=unknown
##OWNER=RRUFF
##SOURCE=Gemological Institute of America
##DESCRIPTION=Reddish orange fragment
##STATUS=The identification of this mineral has been confirmed by X-ray diffraction and chemical analysis
##URL=rruff.info/R060451
##MEASURED CHEMISTRY=(Mn_1.26_Mg_0.98_Fe^2+^_0.39_Ca_0.37_)_Î£=3_Al_2.00_(Si_1.00_O_4_)_3_; trace amounts of Ti
##PIN_ID=L01336
##ORIENTATION=Laser parallel to c* (0 0 1). Fiducial mark perpendicular to laser is parallel to a [1 0 0]
62.89900, 99.00000
64.14700, 113.0000
65.39500, 98.00000
66.64300, 111.0000
67.89000, 108.0000
69.13800, 122.0000
70.38500, 136.0000
71.63200, 109.0000
72.87900, 117.0000
74.12500, 98.00000
75.37200, 131.0000
76.61800, 122.0000
77.86400, 132.0000
79.10900, 130.0000
80.35500, 137.8214
81.60000, 158.0000
82.84600, 168.0000
84.09100, 174.0000
85.33500, 213.0000
86.58000, 252.0000
87.82400, 258.0000
89.06900, 302.0000
90.31300, 367.0000
91.55600, 407.0000
92.80000, 510.0000
94.04300, 611.0000
95.28700, 688.0000
96.53000, 810.0000
97.77300, 920.4506
99.01500, 1010.000
100.2580, 1166.000
101.5000, 1285.000
102.7420, 1405.000
103.9840, 1576.000
105.2260, 1706.000
106.4670, 1904.000
107.7080, 2154.000
108.9490, 2293.000
110.1900, 2323.000
111.4310, 2336.000
112.6720, 2487.000
113.9120, 2578.000
115.1520, 2688.000
116.3920, 2849.000
117.6320, 2886.214
118.8710, 2995.000
120.1110, 2998.000
121.3500, 3011.000
122.5890, 3075.000
123.8270, 3132.000
125.0660, 3153.000
126.3040, 3097.000
127.5430, 3145.000
128.7810, 3150.000
130.0180, 3220.000
131.2560, 3272.000
132.4940, 3282.000
133.7310, 3239.000
134.9680, 3280.000
136.2050, 3268.000
137.4410, 3321.000
138.6780, 3375.000
139.9140, 3446.000
141.1500, 3424.000
142.3860, 3339.000
143.6220, 3402.000
144.8570, 3417.000
146.0920, 3393.000
147.3280, 3472.000
148.5620, 3468.000
149.7970, 3449.000
151.0320, 3418.000
152.2660, 3406.000
153.5000, 3478.000
154.7340, 3399.000
155.9680, 3472.000
157.2020, 3486.000
158.4350, 3386.000
159.6680, 3580.000
160.9010, 3526.000
162.1340, 3538.000
163.3670, 3516.000
164.5990, 3611.000
165.8310, 3643.000
167.0630, 3659.000
168.2950, 3629.000
169.5270, 3747.000
170.7580, 3712.000
171.9900, 3818.000
173.2210, 3853.000
174.4510, 3892.000
175.6820, 3979.000
176.9130, 3983.000
178.1430, 3850.000
179.3730, 3883.000
180.6030, 3775.000
181.8330, 3772.000
183.0620, 3729.000
184.2920, 3795.000
185.5210, 3837.000
186.7500, 3801.000
187.9790, 3889.000
189.2070, 3857.000
190.4360, 3949.000
191.6640, 4005.000
192.8920, 4047.000
194.1200, 4061.000
195.3480, 4128.000
196.5750, 4209.000
197.8020, 4273.000
199.0290, 4289.000
200.2560, 4309.000
201.4830, 4367.000
202.7090, 4409.000
203.9360, 4490.000
205.1620, 4470.000
206.3880, 4505.000
207.6140, 4578.000
208.8390, 4584.000
210.0650, 4640.000
211.2900, 4618.000
212.5150, 4659.000
213.7400, 4669.000
214.9640, 4653.000
216.1890, 4602.000
217.4130, 4557.000
218.6370, 4615.000
219.8610, 4623.000
221.0850, 4548.000
222.3080, 4445.000
223.5310, 4409.000
224.7540, 4493.000
225.9770, 4474.000
227.2000, 4443.000
228.4230, 4421.000
229.6450, 4386.000
230.8670, 4379.000
232.0890, 4341.000
233.3110, 4270.000
234.5320, 4297.000
235.7540, 4374.000
236.9750, 4330.000
238.1960, 4241.000
239.4170, 4314.000
240.6380, 4284.000
241.8580, 4282.000
243.0780, 4266.000
244.2990, 4265.360
245.5180, 4281.000
246.7380, 4257.000
247.9580, 4271.000
249.1770, 4234.000
250.3960, 4171.000
251.6150, 4163.000
252.8340, 4133.000
254.0530, 4203.000
255.2710, 4208.000
256.4890, 4150.000
257.7070, 4211.000
258.9250, 4137.000
260.1430, 4127.000
261.3600, 4148.000
262.5770, 4103.000
263.7950, 4169.000
265.0110, 4191.000
266.2280, 4114.000
267.4450, 4158.000
268.6610, 4102.000
269.8770, 4101.000
271.0930, 4044.000
272.3090, 4100.000
273.5250, 4120.000
274.7400, 4113.000
275.9550, 4145.000
277.1700, 4079.000
278.3850, 4162.000
279.6000, 4262.000
280.8140, 4195.000
282.0290, 4210.000
283.2430, 4153.000
284.4570, 4101.000
285.6700, 4211.000
286.8840, 4203.000
288.0970, 4148.000
289.3100, 4172.000
290.5230, 4162.000
291.7360, 4165.000
292.9490, 4251.000
294.1610, 4231.351
295.3740, 4261.633
296.5860, 4237.000
297.7970, 4294.000
299.0090, 4259.000
300.2210, 4290.000
301.4320, 4298.000
302.6430, 4317.000
303.8540, 4305.000
305.0650, 4332.000
306.2750, 4424.000
307.4860, 4339.000
308.6960, 4415.000
309.9060, 4454.000
311.1160, 4584.000
312.3260, 4625.000
313.5350, 4619.000
314.7440, 4687.000
315.9530, 4698.000
317.1620, 4709.000
318.3710, 4775.000
319.5800, 4828.000
320.7880, 4799.000
321.9960, 4897.000
323.2040, 4938.000
324.4120, 4982.000
325.6200, 4958.000
326.8270, 5075.000
328.0340, 5150.000
329.2410, 5249.000
330.4480, 5246.000
331.6550, 5357.000
332.8610, 5407.000
334.0680, 5524.000
335.2740, 5589.000
336.4800, 5822.000
337.6860, 6007.000
338.8910, 6163.000
340.0970, 6334.000
341.3020, 6606.000
342.5070, 6845.000
343.7120, 7142.000
344.9170, 7434.000
346.1210, 7927.000
347.3250, 8612.000
348.5290, 9182.000
349.7330, 9945.000
350.9370, 10748.00
352.1410, 11629.00
353.3440, 12365.00
354.5470, 13371.00
355.7500, 14228.00
356.9530, 14607.00
358.1560, 14902.00
359.3580, 14802.00
360.5610, 14455.00
361.7630, 13628.00
362.9650, 12619.00
364.1660, 11897.00
365.3680, 10928.00
366.5690, 10067.00
367.7710, 9339.000
368.9720, 8784.000
370.1720, 8288.000
371.3730, 7911.000
372.5740, 7539.000
373.7740, 7247.000
374.9740, 7010.000
376.1740, 6808.000
377.3740, 6560.000
378.5730, 6353.000
379.7730, 6174.275
380.9720, 6008.000
382.1710, 5856.000
383.3700, 5794.000
384.5680, 5691.000
385.7670, 5561.000
386.9650, 5389.000
388.1630, 5422.000
389.3610, 5087.000
390.5590, 5133.000
391.7560, 4988.000
392.9540, 4930.000
394.1510, 4976.000
395.3480, 4793.000
396.5450, 4737.000
397.7420, 4701.000
398.9380, 4694.000
400.1340, 4600.000
401.3300, 4568.000
402.5260, 4554.000
403.7220, 4538.000
404.9180, 4474.000
406.1130, 4494.000
407.3080, 4474.000
408.5030, 4487.000
409.6980, 4453.000
410.8930, 4458.000
412.0870, 4403.000
413.2820, 4368.000
414.4760, 4433.000
415.6700, 4338.000
416.8630, 4316.000
418.0570, 4468.000
419.2500, 4377.000
420.4440, 4427.000
421.6370, 4332.000
422.8290, 4389.000
424.0220, 4286.000
425.2150, 4357.000
426.4070, 4400.000
427.5990, 4428.000
428.7910, 4405.000
429.9830, 4421.925
431.1740, 4331.000
432.3660, 4365.000
433.5570, 4435.000
434.7480, 4327.000
435.9390, 4387.000
437.1300, 4403.000
438.3200, 4344.000
439.5110, 4426.000
440.7010, 4334.000
441.8910, 4396.000
443.0810, 4461.000
444.2700, 4447.000
445.4600, 4403.000
446.6490, 4374.000
447.8380, 4448.000
449.0270, 4407.000
450.2160, 4504.000
451.4040, 4439.000
452.5930, 4512.000
453.7810, 4514.000
454.9690, 4463.000
456.1570, 4522.000
457.3440, 4571.000
458.5320, 4612.000
459.7190, 4490.000
460.9060, 4655.000
462.0930, 4586.000
463.2800, 4704.000
464.4660, 4672.000
465.6530, 4713.000
466.8390, 4771.457
468.0250, 4770.000
469.2110, 4834.000
470.3970, 4878.000
471.5820, 4842.000
472.7680, 4933.000
473.9530, 4946.000
475.1380, 4940.000
476.3230, 5124.000
477.5070, 5131.352
478.6920, 5423.000
479.8760, 5301.000
481.0600, 5334.000
482.2440, 5466.000
483.4280, 5422.000
484.6110, 5455.000
485.7950, 5405.000
486.9780, 5207.000
488.1610, 5326.000
489.3440, 5099.000
490.5260, 5110.000
491.7090, 5099.000
492.8910, 5094.000
494.0730, 5150.115
495.2550, 5238.000
496.4370, 5272.000
497.6190, 5413.000
498.8000, 5487.000
499.9810, 5678.000
501.1620, 5825.000
502.3430, 6089.000
503.5240, 6350.000
504.7050, 6460.000
505.8850, 6542.000
507.0650, 6666.000
508.2450, 6561.000
509.4250, 6415.000
510.6050, 6143.000
511.7840, 6031.000
512.9630, 5846.000
514.1430, 5689.000
515.3220, 5665.000
516.5000, 5551.000
517.6790, 5590.000
518.8570, 5471.000
520.0360, 5584.000
521.2140, 5485.000
522.3920, 5457.000
523.5690, 5500.000
524.7470, 5582.000
525.9240, 5472.000
527.1010, 5560.000
528.2780, 5535.000
529.4550, 5484.000
530.6320, 5552.000
531.8080, 5492.000
532.9850, 5572.000
534.1610, 5598.000
535.3370, 5609.000
536.5130, 5615.000
537.6880, 5797.000
538.8640, 5846.000
540.0390, 6021.000
541.2140, 6085.000
542.3890, 6165.000
543.5640, 6314.000
544.7380, 6520.000
545.9130, 6804.000
547.0870, 7004.000
548.2610, 7327.000
549.4350, 7707.000
550.6090, 8263.000
551.7820, 8560.000
552.9550, 9058.000
554.1290, 9444.000
555.3020, 9903.000
556.4740, 10338.00
557.6470, 10407.00
558.8200, 10575.00
559.9920, 10467.00
561.1640, 9907.000
562.3360, 9344.000
563.5080, 8757.000
564.6790, 8120.000
565.8510, 7618.000
567.0220, 7096.000
568.1930, 6869.000
569.3640, 6528.000
570.5350, 6351.000
571.7050, 6098.000
572.8760, 5957.000
574.0460, 5856.000
575.2160, 5708.000
576.3860, 5689.000
577.5550, 5513.000
578.7250, 5605.000
579.8940, 5461.000
581.0630, 5451.000
582.2320, 5491.000
583.4010, 5411.000
584.5700, 5489.000
585.7380, 5312.000
586.9070, 5372.000
588.0750, 5402.000
589.2430, 5346.000
590.4110, 5350.000
591.5780, 5136.000
592.7460, 5237.000
593.9130, 5204.000
595.0800, 5280.000
596.2470, 5254.000
597.4140, 5250.000
598.5800, 5203.000
599.7470, 5227.000
600.9130, 5295.000
602.0790, 5286.000
603.2450, 5260.000
604.4100, 5308.000
605.5760, 5233.000
606.7410, 5320.000
607.9070, 5299.000
609.0720, 5339.000
610.2360, 5321.000
611.4010, 5237.000
612.5660, 5280.000
613.7300, 5253.000
614.8940, 5146.000
616.0580, 5292.000
617.2220, 5216.000
618.3860, 5282.000
619.5490, 5308.000
620.7120, 5347.000
621.8750, 5377.000
623.0380, 5330.000
624.2010, 5459.000
625.3640, 5435.000
626.5260, 5456.000
627.6880, 5644.000
628.8510, 5648.000
630.0120, 5654.000
631.1740, 5755.000
632.3360, 5950.000
633.4970, 5993.000
634.6580, 6219.000
635.8200, 6135.000
636.9800, 6274.000
638.1410, 6436.000
639.3020, 6364.000
640.4620, 6300.000
641.6220, 6253.000
642.7820, 6203.000
643.9420, 6006.000
645.1020, 6000.000
646.2610, 5891.000
647.4210, 5695.842
648.5800, 5773.058
649.7390, 5809.842
650.8980, 5808.368
652.0570, 5654.048
653.2150, 5697.110
654.3730, 5661.076
655.5320, 5518.000
656.6900, 5489.000
657.8470, 5506.000
659.0050, 5422.000
660.1620, 5460.000
661.3200, 5433.000
662.4770, 5460.000
663.6340, 5392.000
664.7910, 5396.000
665.9470, 5405.000
667.1040, 5390.000
668.2600, 5345.000
669.4160, 5374.000
670.5720, 5457.000
671.7280, 5357.000
672.8840, 5371.000
674.0390, 5279.000
675.1940, 5457.000
676.3490, 5375.000
677.5040, 5364.000
678.6590, 5394.000
679.8140, 5379.000
680.9680, 5425.000
682.1220, 5354.000
683.2760, 5403.000
684.4300, 5357.000
685.5840, 5368.000
686.7380, 5348.000
687.8910, 5346.158
689.0440, 5387.000
690.1970, 5386.000
691.3500, 5392.000
692.5030, 5411.067
693.6560, 5411.480
694.8080, 5423.000
695.9600, 5438.000
697.1120, 5426.000
698.2640, 5465.000
699.4160, 5431.000
700.5670, 5429.000
701.7190, 5471.000
702.8700, 5366.000
704.0210, 5447.000
705.1720, 5451.000
706.3230, 5519.000
707.4730, 5557.000
708.6240, 5527.000
709.7740, 5527.000
710.9240, 5567.000
712.0740, 5594.000
713.2230, 5554.000
714.3730, 5645.000
715.5220, 5606.000
716.6720, 5618.000
717.8210, 5597.000
718.9690, 5612.000
720.1180, 5647.000
721.2670, 5623.000
722.4150, 5604.000
723.5630, 5579.000
724.7110, 5621.000
725.8590, 5627.000
727.0070, 5651.150
728.1540, 5678.470
729.3020, 5697.000
730.4490, 5719.000
731.5960, 5707.000
732.7430, 5705.000
733.8890, 5680.000
735.0360, 5666.000
736.1820, 5791.000
737.3280, 5684.000
738.4740, 5753.000
739.6200, 5741.000
740.7660, 5726.000
741.9120, 5806.000
743.0570, 5711.000
744.2020, 5735.000
745.3470, 5798.000
746.4920, 5891.000
747.6370, 5866.000
748.7810, 5895.125
749.9250, 5768.000
751.0700, 5889.000
752.2140, 5783.000
753.3580, 5813.000
754.5010, 5772.000
755.6450, 5816.000
756.7880, 5824.000
757.9310, 5839.000
759.0740, 5903.000
760.2170, 5885.000
761.3600, 5980.000
762.5020, 5949.000
763.6450, 5900.000
764.7870, 5986.000
765.9290, 6043.000
767.0710, 5999.000
768.2120, 5994.000
769.3540, 6030.000
770.4950, 5950.000
771.6370, 6009.000
772.7780, 6024.000
773.9180, 6020.000
775.0590, 5994.000
776.2000, 6002.000
777.3400, 5917.000
778.4800, 6082.000
779.6200, 6000.000
780.7600, 6208.000
781.9000, 6046.000
783.0390, 6125.000
784.1790, 6068.000
785.3180, 6234.000
786.4570, 6131.000
787.5960, 6123.000
788.7350, 6161.000
789.8730, 6154.000
791.0120, 6134.000
792.1500, 6278.000
793.2880, 6219.000
794.4260, 6282.000
795.5630, 6292.000
796.7010, 6223.000
797.8380, 6309.000
798.9760, 6339.000
800.1130, 6343.000
801.2500, 6306.000
802.3860, 6382.000
803.5230, 6403.000
804.6590, 6399.000
805.7960, 6481.000
806.9320, 6501.000
808.0680, 6654.000
809.2030, 6694.000
810.3390, 6725.000
811.4740, 6725.000
812.6100, 6868.000
813.7450, 6884.000
814.8800, 6986.000
816.0140, 6900.000
817.1490, 6996.000
818.2830, 6906.000
819.4180, 7711.000
820.5520, 8280.000
821.6860, 8471.771
822.8200, 8898.670
823.9530, 8819.000
825.0870, 8829.000
826.2200, 8327.000
827.3530, 7268.000
828.4860, 7208.000
829.6190, 7396.000
830.7510, 7369.000
831.8840, 7356.000
833.0160, 7248.000
834.1480, 7434.000
835.2800, 7547.000
836.4120, 7740.000
837.5440, 7818.000
838.6750, 7808.000
839.8070, 8011.000
840.9380, 8163.000
842.0690, 8229.000
843.2000, 8504.000
844.3300, 8718.000
845.4610, 9010.000
846.5910, 9216.000
847.7220, 9683.000
848.8520, 10020.00
849.9810, 10264.00
851.1110, 10624.00
852.2410, 10717.00
853.3700, 10763.00
854.4990, 10970.00
855.6280, 10925.00
856.7570, 10978.00
857.8860, 10782.00
859.0150, 10362.00
860.1430, 10267.00
861.2710, 10083.00
862.3990, 9729.000
863.5270, 9568.000
864.6550, 9422.000
865.7830, 9211.000
866.9100, 9190.000
868.0370, 9134.000
869.1640, 9141.000
870.2910, 9174.000
871.4180, 9208.000
872.5450, 9270.000
873.6710, 9222.000
874.7980, 9235.000
875.9240, 9323.000
877.0500, 9364.000
878.1760, 9531.000
879.3010, 9749.000
880.4270, 9840.000
881.5520, 9957.000
882.6770, 10212.00
883.8020, 10513.00
884.9270, 10660.00
886.0520, 11100.00
887.1760, 11083.00
888.3010, 11523.00
889.4250, 11708.00
890.5490, 11943.00
891.6730, 12401.00
892.7970, 12637.00
893.9200, 13228.00
895.0440, 13831.00
896.1670, 14739.00
897.2900, 15534.00
898.4130, 16814.00
899.5360, 18197.00
900.6580, 20102.00
901.7810, 22196.00
902.9030, 24467.00
904.0250, 27339.00
905.1470, 30469.00
906.2690, 34320.00
907.3910, 37549.00
908.5120, 41493.00
909.6330, 44655.00
910.7540, 47214.00
911.8750, 48692.00
912.9960, 48731.00
914.1170, 47805.00
915.2380, 45609.00
916.3580, 42249.00
917.4780, 38617.00
918.5980, 34777.00
919.7180, 31368.00
920.8380, 27900.00
921.9570, 24782.00
923.0770, 22142.00
924.1960, 20068.00
925.3150, 18372.00
926.4340, 16756.00
927.5530, 15735.00
928.6710, 14576.00
929.7900, 13834.00
930.9080, 12872.00
932.0260, 12312.00
933.1440, 11707.00
934.2620, 11224.00
935.3800, 10707.00
936.4970, 10418.00
937.6140, 10268.00
938.7320, 9882.000
939.8490, 9699.000
940.9660, 9508.000
942.0820, 9339.000
943.1990, 9088.000
944.3150, 9037.000
945.4310, 9031.000
946.5470, 8751.000
947.6630, 8838.000
948.7790, 8531.000
949.8950, 8526.000
951.0100, 8348.000
952.1250, 8501.000
953.2400, 8431.000
954.3550, 8391.000
955.4700, 8371.000
956.5850, 8228.000
957.6990, 8192.000
958.8140, 8162.563
959.9280, 8178.000
961.0420, 8154.000
962.1560, 8127.000
963.2690, 8174.000
964.3830, 8123.000
965.4960, 8145.257
966.6090, 8155.000
967.7230, 8139.000
968.8350, 8061.000
969.9480, 8005.000
971.0610, 7983.524
972.1730, 7979.000
973.2850, 7946.000
974.3980, 7959.209
975.5100, 7973.213
976.6210, 8010.000
977.7330, 8022.000
978.8440, 8111.000
979.9560, 8127.000
981.0670, 8115.000
982.1780, 8035.000
983.2890, 8051.000
984.3990, 7964.000
985.5100, 8028.000
986.6200, 7940.000
987.7310, 7939.000
988.8410, 7916.000
989.9510, 7839.000
991.0600, 7957.000
992.1700, 7995.000
993.2790, 7939.000
994.3890, 7868.000
995.4980, 7950.000
996.6070, 7821.000
997.7160, 7938.000
998.8240, 8064.000
999.9330, 8001.000
1001.041, 8050.000
1002.149, 7970.000
1003.257, 8007.539
1004.365, 8047.000
1005.473, 8059.000
1006.580, 8145.000
1007.688, 8176.000
1008.795, 8338.000
1009.902, 8077.000
1011.009, 8377.000
1012.116, 8302.000
1013.222, 8375.000
1014.329, 8452.000
1015.435, 8463.000
1016.541, 8470.000
1017.647, 8581.000
1018.753, 8697.000
1019.859, 8720.000
1020.964, 8693.000
1022.070, 8870.000
1023.175, 8832.000
1024.280, 8863.000
1025.385, 8957.000
1026.490, 8990.000
1027.594, 8978.000
1028.699, 9141.000
1029.803, 9202.000
1030.907, 9232.000
1032.011, 9433.000
1033.115, 9445.000
1034.219, 9647.000
1035.322, 9623.000
1036.426, 9722.000
1037.529, 9804.000
1038.632, 9778.000
1039.735, 9714.000
1040.837, 10079.00
1041.940, 9974.000
1043.042, 9930.000
1044.145, 9709.000
1045.247, 9751.000
1046.349, 9575.000
1047.451, 9530.000
1048.552, 9315.000
1049.654, 9228.000
1050.755, 9012.000
1051.856, 8929.000
1052.957, 8839.000
1054.058, 8845.000
1055.159, 8579.000
1056.259, 8519.000
1057.360, 8676.000
1058.460, 8448.783
1059.560, 8368.000
1060.660, 8280.000
1061.760, 8217.000
1062.860, 8200.000
1063.959, 8130.000
1065.058, 8149.000
1066.158, 8209.000
1067.257, 8011.000
1068.355, 8166.000
1069.454, 8069.000
1070.553, 8082.000
1071.651, 8006.000
1072.749, 8072.000
1073.847, 8079.000
1074.945, 8052.000
1076.043, 8009.000
1077.141, 8095.000
1078.238, 8064.000
1079.336, 8176.000
1080.433, 8065.000
1081.530, 8072.000
1082.627, 8117.000
1083.723, 8110.000
1084.820, 8103.000
1085.916, 8030.000
1087.013, 8053.000
1088.109, 8041.000
1089.205, 8010.000
1090.301, 8105.000
1091.396, 8084.000
1092.492, 8050.000
1093.587, 8029.000
1094.682, 8004.000
1095.777, 8088.000
1096.872, 8127.000
1097.967, 8147.000
1099.061, 8028.000
1100.156, 8102.000
1101.250, 8052.000
1102.344, 8136.000
1103.438, 8221.000
1104.532, 8081.000
1105.626, 8254.000
1106.719, 8123.000
1107.813, 8160.000
1108.906, 8240.000
1109.999, 8106.000
1111.092, 8141.000
1112.184, 8143.000
1113.277, 8057.000
1114.370, 8070.000
1115.462, 8170.000
1116.554, 8016.000
1117.646, 8250.000
1118.738, 8216.000
1119.829, 8247.000
1120.921, 8195.000
1122.012, 8220.000
1123.104, 8258.000
1124.195, 8188.000
1125.286, 8139.000
1126.376, 8195.000
1127.467, 8149.000
1128.557, 8147.000
1129.648, 8177.000
1130.738, 8188.000
1131.828, 8268.000
1132.918, 8346.000
1134.008, 8162.000
1135.097, 8284.000
1136.186, 8243.000
1137.276, 8220.000
1138.365, 8262.000
1139.454, 8267.000
1140.543, 8297.000
1141.631, 8302.000
1142.720, 8317.000
1143.808, 8271.000
1144.896, 8397.000
1145.984, 8332.000
1147.072, 8411.000
1148.160, 8425.000
1149.248, 8387.000
1150.335, 8435.000
1151.422, 8320.000
1152.509, 8376.000
1153.596, 8366.000
1154.683, 8433.000
1155.770, 8456.000
1156.857, 8525.000
1157.943, 8475.000
1159.029, 8436.000
1160.115, 8484.000
1161.201, 8572.000
1162.287, 8451.000
1163.373, 8553.000
1164.458, 8571.000
1165.543, 8462.000
1166.629, 8631.000
1167.714, 8709.000
1168.799, 8582.000
1169.883, 8561.000
1170.968, 8622.000
1172.052, 8684.000
1173.137, 8693.000
1174.221, 8670.000
1175.305, 8615.000
1176.389, 8656.000
1177.472, 8507.000
1178.556, 8619.000
1179.639, 8652.000
1180.722, 8694.000
1181.805, 8619.000
1182.888, 8492.000
1183.971, 8838.000
1185.054, 8642.000
1186.136, 8752.000
1187.219, 8802.000
1188.301, 8709.000
1189.383, 8688.000
1190.465, 8758.000
1191.547, 8651.000
1192.628, 8741.000
1193.710, 8717.000
1194.791, 8639.000
1195.872, 8714.000
1196.953, 8715.000
1198.034, 8619.000
1199.115, 8740.000
1200.195, 8758.000
1201.276, 8748.000
1202.356, 8740.000
1203.436, 8743.000
1204.516, 8764.000
1205.596, 8715.000
1206.675, 8795.000
1207.755, 8758.000
1208.834, 8660.000
1209.913, 8663.000
1210.992, 8800.000
1212.071, 8693.000
1213.150, 8783.000
1214.229, 8835.000
1215.307, 8829.000
1216.386, 8779.000
1217.464, 8811.000
1218.542, 8717.000
1219.620, 8930.000
1220.697, 8779.000
1221.775, 8768.000
1222.852, 8888.000
1223.930, 8857.000
1225.007, 8742.000
1226.084, 8874.000
1227.161, 8785.000
1228.237, 8769.000
1229.314, 8921.000
1230.390, 8741.000
1231.466, 8773.000
1232.543, 8964.000
1233.619, 8928.000
1234.694, 8912.000
1235.770, 8959.000
1236.845, 8979.000
1237.921, 9001.000
1238.996, 8892.000
1240.071, 8881.000
1241.146, 8937.000
1242.221, 8943.447
1243.295, 8944.061
1244.370, 8970.715
1245.444, 8920.000
1246.518, 9004.000
1247.592, 8958.000
1248.666, 8996.000
1249.740, 9091.000
1250.814, 9122.000
1251.887, 8997.000
1252.960, 9013.000
1254.034, 9061.000
1255.107, 8897.000
1256.179, 9014.000
1257.252, 9096.000
1258.325, 9020.000
1259.397, 9084.000
1260.469, 9063.000
1261.542, 9040.000
1262.614, 9133.000
1263.685, 9113.000
1264.757, 9170.000
1265.829, 9162.519
1266.900, 9091.000
1267.971, 9171.000
1269.042, 9145.000
1270.113, 9231.000
1271.184, 9133.000
1272.255, 9181.000
1273.325, 9140.000
1274.396, 9163.000
1275.466, 9188.000
1276.536, 9204.000
1277.606, 9154.000
1278.676, 9274.000
1279.745, 9216.000
1280.815, 9288.000
1281.884, 9279.000
1282.953, 9293.000
1284.022, 9211.000
1285.091, 9220.000
1286.160, 9263.000
1287.229, 9298.000
1288.297, 9236.000
1289.366, 9275.000
1290.434, 9223.000
1291.502, 9301.000
1292.570, 9220.000
1293.637, 9219.000
1294.705, 9418.000
1295.773, 9305.000
1296.840, 9279.000
1297.907, 9383.000
1298.974, 9236.000
1300.041, 9418.000
1301.108, 9282.000
1302.174, 9257.000
1303.241, 9358.000
1304.307, 9347.000
1305.373, 9376.000
1306.439, 9392.876
1307.505, 9335.000
1308.571, 9396.000
1309.636, 9295.000
1310.702, 9304.000
1311.767, 9363.000
1312.832, 9247.000
1313.897, 9401.000
1314.962, 9290.000
1316.027, 9322.000
1317.091, 9493.000
1318.156, 9327.000
1319.220, 9340.000
1320.284, 9338.000
1321.348, 9458.000
1322.412, 9484.000
1323.475, 9390.000
1324.539, 9461.000
1325.602, 9389.000
1326.666, 9379.000
1327.729, 9447.000
1328.792, 9391.000
1329.855, 9440.856
1330.917, 9365.000
1331.980, 9463.000
1333.042, 9432.000
1334.104, 9367.000
1335.167, 9458.000
1336.229, 9534.000
1337.290, 9435.000
1338.352, 9468.000
1339.414, 9448.000
1340.475, 9594.000
1341.536, 9415.000
1342.597, 9615.000
1343.658, 9477.000
1344.719, 9520.000
1345.780, 9569.000
1346.840, 9566.000
1347.901, 9517.000
1348.961, 9624.000
1350.021, 9392.000
1351.081, 9528.000
1352.141, 9495.000
1353.200, 9506.000
1354.260, 9457.000
1355.319, 9473.000
1356.379, 9490.462
1357.438, 9621.000
1358.497, 9571.000
1359.555, 9559.000
1360.614, 9640.000
1361.673, 9589.000
1362.731, 9652.000
1363.789, 9680.000
1364.847, 9718.000
1365.905, 9655.000
1366.963, 9684.000
1368.021, 9692.000
1369.078, 9699.113
1370.136, 9742.921
1371.193, 9736.000
1372.250, 9778.000
1373.307, 9760.000
1374.364, 9672.000
1375.420, 9649.000
1376.477, 9800.000
1377.533, 9694.000
1378.589, 9770.000
1379.646, 9751.000
1380.702, 9738.000
1381.757, 9716.000
1382.813, 9736.000
1383.869, 9746.209
1384.924, 9727.000
1385.979, 9807.000
1387.034, 9755.000
1388.089, 9794.000
1389.144, 9877.000
1390.199, 9908.000
1391.253, 9850.000
1392.308, 9807.000
1393.362, 9762.000
1394.416, 9872.000
1395.470, 9892.000
1396.524, 9981.000
1397.577, 9986.305
1398.631, 9895.000
1399.684, 9954.000
1400.738, 10000.00
1401.791, 9923.000
1402.844, 9935.000
1403.897, 9995.000
1404.949, 9842.000
1406.002, 10121.00
1407.054, 9863.000
1408.107, 10112.00
1409.159, 10004.00
1410.211, 10024.00
1411.263, 10115.00
1412.314, 10043.00
1413.366, 9890.000
1414.417, 9989.000
1415.468, 9894.000
1416.520, 9930.000
1417.571, 10014.00
1418.621, 9924.000
1419.672, 10144.00
1420.723, 9949.000
1421.773, 9926.000
1422.824, 9907.000
1423.874, 10019.00
1424.924, 10037.00
1425.974, 10052.00
1427.023, 10161.00
1428.073, 10110.00
1429.122, 10082.00
1430.172, 10131.00
1431.221, 10026.00
1432.270, 10076.00
1433.319, 10155.00
1434.367, 10206.00
1435.416, 10202.30
1436.465, 10222.55
1437.513, 10158.00
1438.561, 10183.00
1439.609, 10133.00
1440.657, 10082.00
1441.705, 10100.00
1442.752, 10230.00
1443.800, 10179.00
1444.847, 10388.00
1445.894, 10275.00
1446.942, 10243.00
1447.988, 10125.00
1449.035, 10205.00
1450.082, 10168.00
1451.128, 10302.00
1452.175, 10275.00
1453.221, 10223.00
1454.267, 10431.00
1455.313, 10311.00
1456.359, 10321.00
1457.405, 10290.00
1458.450, 10291.00
1459.496, 10294.00
1460.541, 10397.00
1461.586, 10352.00
1462.631, 10345.00
1463.676, 10290.00
1464.720, 10316.00
1465.765, 10313.00
1466.809, 10370.00
1467.854, 10375.47
1468.898, 10415.04
1469.942, 10441.00
1470.986, 10432.00
1472.029, 10521.00
1473.073, 10406.00
1474.116, 10448.00
1475.160, 10293.00
1476.203, 10395.00
1477.246, 10353.00
1478.289, 10465.00
1479.332, 10507.00
1480.374, 10441.00
1481.417, 10398.00
1482.459, 10551.00
1483.501, 10435.00
1484.543, 10612.00
1485.585, 10544.00
1486.627, 10470.00
1487.669, 10505.00
1488.710, 10516.00
1489.752, 10559.00
1490.793, 10627.00
1491.834, 10565.00
1492.875, 10626.00
1493.916, 10747.00
1494.956, 10576.00
1495.997, 10504.00
1497.037, 10623.00
1498.077, 10532.00
1499.118, 10703.00
1500.158, 10600.00
1501.197, 10646.00
1502.237, 10700.05
1503.277, 11121.00
1504.316, 10711.00
1505.355, 10816.00
1506.395, 10689.00
1507.434, 10419.00
1508.473, 10777.00
1509.511, 10672.00
1510.550, 10734.00
1511.588, 10750.00
1512.627, 10820.00
1513.665, 10794.00
1514.703, 10674.00
1515.741, 10724.00
1516.779, 10695.00
1517.816, 10727.00
1518.854, 10725.00
1519.891, 10748.00
1520.928, 10826.00
1521.966, 10647.00
1523.003, 10653.00
1524.039, 10743.00
1525.076, 10651.00
1526.113, 10761.00
1527.149, 10789.00
1528.185, 10808.00
1529.221, 10852.00
1530.257, 10936.00
1531.293, 10800.00
1532.329, 10909.00
1533.365, 10766.00
1534.400, 10712.00
1535.435, 10665.00
1536.471, 10817.00
1537.506, 10774.00
1538.541, 10769.00
1539.575, 10774.00
1540.610, 10811.00
1541.644, 10792.00
1542.679, 10820.75
1543.713, 10901.00
1544.747, 10826.00
1545.781, 10841.00
1546.815, 10779.00
1547.849, 10967.00
1548.882, 10985.00
1549.916, 10835.00
1550.949, 10930.00
1551.982, 10868.00
1553.015, 10915.00
1554.048, 11050.00
1555.081, 10925.00
1556.113, 11038.00
1557.146, 10914.00
1558.178, 10916.00
1559.210, 10951.00
1560.242, 10891.00
1561.274, 10902.00
1562.306, 10953.00
1563.338, 10871.00
1564.369, 10989.00
1565.400, 10827.00
1566.432, 10884.00
1567.463, 10828.00
1568.494, 10887.00
1569.525, 10927.00
1570.555, 10972.00
1571.586, 11013.00
1572.616, 10986.00
1573.647, 11097.00
1574.677, 10948.00
1575.707, 10904.00
1576.737, 10988.00
1577.766, 10970.00
1578.796, 11069.00
##END=



