##NAMES=Sphalerite
##RRUFFID=R060005
##IDEAL CHEMISTRY=Zn^2+^S^2-^
##LOCALITY=Trinacria mine, Lake Poopo, Oruro, Bolivia
##OWNER=RRUFF
##SOURCE=University of Arizona Mineral Museum
##DESCRIPTION=Steel gray crystal associated with franckeite R050431
##STATUS=The identification of this mineral has been confirmed by X-ray diffraction and chemical analysis
##URL=rruff.info/R060005
##MEASURED CHEMISTRY=Zn_0.82_Fe_0.18_S
##PIN_ID=M01404
##ORIENTATION=Laser parallel to c* (0 0 1). Fiducial mark perpendicular to laser is parallel to a [1 0 0]
98.13500, 22034.00
99.37300, 22697.00
100.6100, 22795.00
101.8480, 23623.00
103.0850, 25129.00
104.3220, 26756.00
105.5590, 27067.00
106.7950, 26540.00
108.0320, 24971.00
109.2680, 23282.00
110.5040, 22809.00
111.7400, 22906.00
112.9760, 22712.00
114.2120, 23461.00
115.4470, 24083.00
116.6820, 23776.00
117.9170, 23954.00
119.1520, 22982.00
120.3870, 22546.00
121.6220, 21916.00
122.8560, 21662.00
124.0900, 21579.00
125.3240, 21146.00
126.5580, 20987.00
127.7920, 21020.00
129.0260, 20984.79
130.2590, 21115.92
131.4920, 21201.30
132.7250, 21243.40
133.9580, 21277.17
135.1910, 21144.36
136.4230, 21214.31
137.6560, 21240.98
138.8880, 21094.72
140.1200, 21171.76
141.3520, 21075.08
142.5830, 21173.44
143.8150, 21226.04
145.0460, 21235.37
146.2770, 21071.76
147.5080, 21131.46
148.7390, 21101.67
149.9700, 21068.20
151.2000, 21159.34
152.4310, 21020.88
153.6610, 21110.04
154.8910, 21199.00
156.1210, 21183.00
157.3500, 21144.00
158.5800, 21011.00
159.8090, 21127.00
161.0380, 20988.00
162.2670, 21039.00
163.4960, 21165.00
164.7240, 21006.00
165.9530, 20835.00
167.1810, 21024.00
168.4090, 20949.00
169.6370, 20949.00
170.8650, 20983.00
172.0920, 20938.00
173.3200, 20667.00
174.5470, 20617.00
175.7740, 20330.00
177.0010, 20271.00
178.2280, 20240.00
179.4540, 20089.34
180.6810, 20046.09
181.9070, 19883.00
183.1330, 19890.00
184.3590, 19677.00
185.5850, 19595.00
186.8100, 19530.00
188.0350, 19386.00
189.2610, 19223.00
190.4860, 19298.00
191.7110, 19126.00
192.9350, 19111.00
194.1600, 18995.00
195.3840, 19008.00
196.6080, 18944.00
197.8320, 18740.00
199.0560, 18748.00
200.2800, 18525.00
201.5030, 18553.00
202.7270, 18302.00
203.9500, 18342.00
205.1730, 18192.00
206.3950, 18138.60
207.6180, 18076.92
208.8410, 17984.00
210.0630, 17962.00
211.2850, 17904.71
212.5070, 17851.08
213.7290, 17832.00
214.9500, 17697.58
216.1720, 17761.96
217.3930, 17784.83
218.6140, 17768.62
219.8350, 17583.68
221.0560, 17626.26
222.2770, 17583.55
223.4970, 17541.39
224.7170, 17628.02
225.9370, 17489.27
227.1570, 17582.32
228.3770, 17588.72
229.5970, 17640.89
230.8160, 17607.22
232.0350, 17605.54
233.2540, 17698.14
234.4730, 17745.05
235.6920, 17717.78
236.9110, 17797.75
238.1290, 17697.77
239.3470, 17763.54
240.5650, 17767.00
241.7830, 17852.00
243.0010, 17872.00
244.2180, 17992.00
245.4360, 18106.00
246.6530, 18206.00
247.8700, 18383.00
249.0870, 18439.00
250.3040, 18518.00
251.5200, 18576.00
252.7370, 19078.00
253.9530, 19681.00
255.1690, 20095.00
256.3850, 20518.00
257.6000, 20466.00
258.8160, 19942.00
260.0310, 19244.00
261.2460, 19699.00
262.4610, 19344.00
263.6760, 19347.00
264.8910, 19377.00
266.1050, 19428.00
267.3200, 19690.00
268.5340, 19818.00
269.7480, 19934.00
270.9620, 20161.00
272.1750, 20217.00
273.3890, 20472.00
274.6020, 20642.00
275.8150, 21084.00
277.0280, 21296.00
278.2410, 21675.00
279.4540, 21940.00
280.6660, 22548.00
281.8790, 22774.00
283.0910, 23644.00
284.3030, 24041.00
285.5140, 25089.00
286.7260, 25851.00
287.9380, 26512.00
289.1490, 27697.00
290.3600, 28687.00
291.5710, 29796.00
292.7820, 30619.00
293.9920, 31718.00
295.2030, 32685.00
296.4130, 33139.00
297.6230, 33651.00
298.8330, 34024.00
300.0430, 34205.00
301.2520, 33925.00
302.4620, 33709.00
303.6710, 33529.00
304.8800, 33652.00
306.0890, 33322.00
307.2980, 33571.00
308.5070, 33573.00
309.7150, 33908.00
310.9230, 33999.00
312.1310, 34544.00
313.3390, 35033.19
314.5470, 35528.00
315.7550, 36317.00
316.9620, 37099.00
318.1690, 37821.00
319.3760, 38515.00
320.5830, 38779.00
321.7900, 39000.00
322.9960, 38450.00
324.2030, 37934.00
325.4090, 37305.00
326.6150, 36175.00
327.8210, 34915.00
329.0270, 33939.00
330.2320, 32789.00
331.4380, 31854.00
332.6430, 30652.00
333.8480, 29929.00
335.0530, 28996.00
336.2580, 27766.00
337.4620, 27459.00
338.6670, 26568.00
339.8710, 25934.00
341.0750, 25404.00
342.2790, 24800.00
343.4820, 24544.00
344.6860, 24045.00
345.8890, 24101.00
347.0920, 23651.00
348.2960, 23455.00
349.4980, 23511.00
350.7010, 23294.00
351.9040, 22894.00
353.1060, 22869.00
354.3080, 22432.00
355.5100, 22221.00
356.7120, 21694.00
357.9140, 21487.00
359.1150, 20989.00
360.3170, 20690.00
361.5180, 20069.00
362.7190, 19711.00
363.9200, 19313.00
365.1200, 19011.00
366.3210, 18784.00
367.5210, 18740.00
368.7210, 18289.00
369.9210, 18187.00
371.1210, 18139.00
372.3210, 17865.00
373.5200, 17508.00
374.7200, 17544.00
375.9190, 17592.00
377.1180, 17289.86
378.3170, 17280.25
379.5150, 16898.00
380.7140, 16936.00
381.9120, 16819.00
383.1110, 16522.00
384.3090, 16448.00
385.5060, 16557.00
386.7040, 16341.00
387.9020, 16421.00
389.0990, 16111.00
390.2960, 16112.00
391.4930, 15998.00
392.6900, 16108.00
393.8860, 16042.00
395.0830, 15889.00
396.2790, 15990.00
397.4750, 15889.00
398.6710, 15750.00
399.8670, 15823.00
401.0630, 15743.12
402.2580, 15697.75
403.4540, 15675.00
404.6490, 15664.00
405.8440, 15512.00
407.0390, 15612.00
408.2330, 15450.00
409.4280, 15607.00
410.6220, 15370.00
411.8160, 15360.00
413.0100, 15467.00
414.2040, 15289.00
415.3980, 15301.00
416.5910, 15414.00
417.7850, 15409.00
418.9780, 15344.00
420.1710, 15392.00
421.3640, 15354.99
422.5560, 15229.25
423.7490, 15269.08
424.9410, 15265.63
426.1330, 15089.24
427.3250, 15136.17
428.5170, 15093.60
429.7090, 15047.36
430.9000, 15125.73
432.0910, 14974.52
433.2820, 15050.91
434.4730, 15050.00
435.6640, 14921.00
436.8550, 14992.00
438.0450, 15041.00
439.2360, 14900.00
440.4260, 14923.00
441.6160, 14789.00
442.8060, 14780.00
443.9950, 14931.00
445.1850, 14836.00
446.3740, 14966.00
447.5630, 14844.00
448.7520, 14620.00
449.9410, 14628.00
451.1300, 14536.17
452.3180, 14619.00
453.5060, 14552.00
454.6950, 14641.19
455.8830, 14634.32
457.0700, 14726.00
458.2580, 14631.00
459.4450, 14588.00
460.6330, 14538.00
461.8200, 14501.16
463.0070, 14475.00
464.1940, 14496.00
465.3800, 14479.00
466.5670, 14557.00
467.7530, 14487.00
468.9390, 14554.00
470.1250, 14466.03
471.3110, 14572.83
472.4970, 14633.89
473.6820, 14651.66
474.8680, 14496.49
476.0530, 14564.64
477.2380, 14543.29
478.4230, 14518.27
479.6070, 14617.84
480.7920, 14487.83
481.9760, 14585.42
483.1600, 14592.16
484.3440, 14640.48
485.5280, 14598.76
486.7120, 14584.84
487.8950, 14661.00
489.0780, 14687.29
490.2620, 14635.20
491.4450, 14686.16
492.6270, 14679.04
493.8100, 14581.41
494.9920, 14679.52
496.1750, 14631.96
497.3570, 14583.00
498.5390, 14616.00
499.7210, 14580.69
500.9020, 14618.54
502.0840, 14555.00
503.2650, 14598.00
504.4460, 14573.96
505.6270, 14593.00
506.8080, 14597.00
507.9890, 14699.00
509.1690, 14683.25
510.3500, 14530.00
511.5300, 14687.00
512.7100, 14638.00
513.8900, 14587.00
515.0690, 14616.00
516.2490, 14676.00
517.4280, 14716.00
518.6070, 14546.00
519.7860, 14611.00
520.9650, 14468.00
522.1440, 14748.00
523.3220, 14762.00
524.5010, 14739.00
525.6790, 14857.00
526.8570, 14567.00
528.0350, 14653.00
529.2130, 14725.00
530.3900, 14740.00
531.5670, 14838.00
532.7450, 14698.00
533.9220, 14694.00
535.0980, 14749.00
536.2750, 14826.00
537.4520, 14690.00
538.6280, 14714.00
539.8040, 14742.00
540.9800, 14629.00
542.1560, 14740.75
543.3320, 14924.00
544.5070, 14826.00
545.6830, 14745.00
546.8580, 14651.00
548.0330, 14790.00
549.2080, 14715.00
550.3830, 14852.00
551.5570, 14726.00
552.7310, 14767.00
553.9060, 14986.00
555.0800, 14944.00
556.2540, 14770.00
557.4270, 14933.00
558.6010, 14856.00
559.7740, 14864.00
560.9470, 14857.00
562.1210, 15019.00
563.2930, 14987.34
564.4660, 15183.00
565.6390, 15043.00
566.8110, 14929.00
567.9830, 14967.00
569.1550, 14902.00
570.3270, 14972.00
571.4990, 15145.00
572.6710, 15003.00
573.8420, 15002.00
575.0130, 15057.00
576.1840, 14927.00
577.3550, 14819.00
578.5260, 14944.00
579.6970, 14785.00
580.8670, 14803.00
582.0370, 14823.00
583.2070, 14788.00
584.3770, 14625.00
585.5470, 14647.00
586.7170, 14413.00
587.8860, 14693.00
589.0550, 14660.00
590.2240, 14484.00
591.3930, 14362.00
592.5620, 14388.85
593.7310, 14551.00
594.8990, 14493.00
596.0670, 14593.00
597.2350, 14768.00
598.4030, 14559.00
599.5710, 14705.00
600.7390, 14747.00
601.9060, 14499.00
603.0740, 14544.00
604.2410, 14628.00
605.4080, 14652.00
606.5740, 14750.00
607.7410, 14788.00
608.9080, 14789.00
610.0740, 14899.00
611.2400, 14859.00
612.4060, 14817.00
613.5720, 14751.00
614.7370, 14769.00
615.9030, 14929.00
617.0680, 14757.00
618.2330, 14860.00
619.3980, 14832.00
620.5630, 14807.00
621.7280, 14695.00
622.8920, 14839.00
624.0570, 14898.00
625.2210, 14688.00
626.3850, 14807.00
627.5490, 14856.00
628.7120, 14745.32
629.8760, 14839.21
631.0390, 14887.37
632.2020, 14892.24
633.3650, 14724.17
634.5280, 14779.42
635.6910, 14745.17
636.8530, 14707.26
638.0160, 14793.94
639.1780, 14651.04
640.3400, 14735.74
641.5020, 14729.59
642.6640, 14765.02
643.8250, 14710.42
644.9870, 14683.62
646.1480, 14746.90
647.3090, 14760.31
648.4700, 14656.00
649.6300, 14547.00
650.7910, 14669.00
651.9510, 14573.00
653.1120, 14588.00
654.2720, 14652.00
655.4320, 14568.00
656.5910, 14509.00
657.7510, 14470.00
658.9100, 14788.00
660.0690, 14668.00
661.2290, 14488.00
662.3880, 14756.00
663.5460, 14577.00
664.7050, 14539.00
665.8630, 14560.00
667.0220, 14588.00
668.1800, 14506.00
669.3380, 14617.00
670.4950, 14491.00
671.6530, 14549.00
672.8100, 14453.00
673.9680, 14447.00
675.1250, 14524.00
676.2820, 14348.00
677.4390, 14295.00
678.5950, 14308.00
679.7520, 14371.00
680.9080, 14341.00
682.0640, 14281.00
683.2200, 14114.00
684.3760, 14223.00
685.5320, 14139.20
686.6870, 14356.00
687.8420, 14090.00
688.9980, 14129.00
690.1530, 14032.00
691.3070, 14122.00
692.4620, 14200.00
693.6170, 14174.00
694.7710, 14192.83
695.9250, 14023.00
697.0790, 14102.00
698.2330, 13900.00
699.3870, 13779.00
700.5400, 14010.00
701.6940, 13843.00
702.8470, 13812.00
704.0000, 13816.00
705.1530, 13763.18
706.3050, 13740.00
707.4580, 13754.00
708.6100, 13802.00
709.7630, 13770.00
710.9150, 13782.00
712.0660, 13941.00
713.2180, 13671.00
714.3700, 13674.00
715.5210, 13788.00
716.6720, 13720.00
717.8240, 13801.00
718.9740, 13796.46
720.1250, 13755.00
721.2760, 13805.00
722.4260, 13658.00
723.5770, 13677.00
724.7270, 13746.00
725.8770, 13665.00
727.0260, 13722.00
728.1760, 13843.00
729.3250, 13667.00
730.4750, 13667.00
731.6240, 13590.00
732.7730, 13609.00
733.9220, 13721.00
735.0700, 13593.00
736.2190, 13748.00
737.3670, 13727.00
738.5150, 13647.00
739.6630, 13601.00
740.8110, 13530.00
741.9590, 13589.00
743.1060, 13639.00
744.2540, 13621.00
745.4010, 13716.00
746.5480, 13592.00
747.6950, 13567.00
748.8410, 13616.00
749.9880, 13681.00
751.1340, 13697.00
752.2800, 13692.73
753.4260, 13699.00
754.5720, 13637.00
755.7180, 13618.00
756.8640, 13581.98
758.0090, 13564.03
759.1540, 13574.00
760.2990, 13595.00
761.4440, 13636.00
762.5890, 13613.83
763.7340, 13669.00
764.8780, 13615.00
766.0220, 13575.00
767.1660, 13647.00
768.3100, 13613.00
769.4540, 13402.00
770.5980, 13565.00
771.7410, 13688.00
772.8840, 13483.00
774.0280, 13482.00
775.1700, 13597.00
776.3130, 13593.00
777.4560, 13668.00
778.5980, 13558.00
779.7410, 13739.00
780.8830, 13520.00
782.0250, 13649.00
783.1670, 13647.00
784.3080, 13654.00
785.4500, 13573.00
786.5910, 13615.00
787.7320, 13673.00
788.8730, 13704.00
790.0140, 13632.00
791.1550, 13632.00
792.2950, 13521.00
793.4360, 13605.00
794.5760, 13642.00
795.7160, 13574.00
796.8560, 13668.00
797.9960, 13617.54
799.1350, 13485.00
800.2750, 13590.00
801.4140, 13579.00
802.5530, 13607.00
803.6920, 13651.00
804.8310, 13616.00
805.9690, 13605.00
807.1080, 13624.00
808.2460, 13679.00
809.3840, 13613.00
810.5220, 13468.00
811.6600, 13690.00
812.7970, 13674.00
813.9350, 13500.00
815.0720, 13628.00
816.2090, 13615.00
817.3460, 13685.00
818.4830, 13701.99
819.6200, 13745.00
820.7560, 13698.00
821.8930, 13677.00
823.0290, 13645.00
824.1650, 13546.00
825.3010, 13709.00
826.4360, 13635.00
827.5720, 13527.00
828.7070, 13649.00
829.8420, 13697.00
830.9770, 13609.00
832.1120, 13580.00
833.2470, 13622.00
834.3820, 13516.00
835.5160, 13598.00
836.6500, 13595.00
837.7840, 13600.00
838.9180, 13522.00
840.0520, 13665.00
841.1860, 13644.75
842.3190, 13651.00
843.4520, 13742.00
844.5850, 13564.00
845.7180, 13626.00
846.8510, 13546.00
847.9840, 13531.00
849.1160, 13631.00
850.2490, 13634.00
851.3810, 13575.00
852.5130, 13732.00
853.6450, 13658.00
854.7760, 13520.00
855.9080, 13619.00
857.0390, 13667.00
858.1700, 13577.00
859.3010, 13638.00
860.4320, 13639.00
861.5630, 13643.40
862.6930, 13792.00
863.8240, 13628.00
864.9540, 13717.00
866.0840, 13573.00
867.2140, 13761.00
868.3440, 13640.00
869.4730, 13784.00
870.6030, 13775.00
871.7320, 13723.00
872.8610, 13759.00
873.9900, 13776.00
875.1190, 13749.00
876.2470, 13721.00
877.3760, 13738.00
878.5040, 13751.00
879.6320, 13878.00
880.7600, 13729.00
881.8880, 13661.00
883.0150, 13825.00
884.1430, 13925.00
885.2700, 13815.00
886.3970, 13861.00
887.5240, 13823.00
888.6510, 13905.00
889.7780, 13798.00
890.9040, 13845.00
892.0310, 13851.00
893.1570, 13936.00
894.2830, 13776.00
895.4090, 13696.00
896.5350, 13936.00
897.6600, 13617.00
898.7860, 13789.58
899.9110, 13898.97
901.0360, 13962.63
902.1610, 13983.00
903.2860, 13830.43
904.4100, 13901.17
905.5350, 13882.41
906.6590, 13859.99
907.7830, 13962.16
908.9070, 13834.74
910.0310, 13934.93
911.1540, 13944.26
912.2780, 13995.17
913.4010, 13956.04
914.5240, 13944.72
915.6470, 14023.47
916.7700, 14052.35
917.8930, 14002.85
919.0150, 14056.40
920.1380, 13925.84
921.2600, 13956.83
922.3820, 14057.54
923.5040, 13877.00
924.6260, 14019.00
925.7470, 13924.00
926.8690, 14073.00
927.9900, 14050.00
929.1110, 14069.00
930.2320, 14144.00
931.3530, 14012.00
932.4730, 13947.00
933.5940, 14071.00
934.7140, 14003.00
935.8340, 14072.00
936.9540, 14098.00
938.0740, 13997.00
939.1930, 13979.00
940.3130, 14009.00
941.4320, 14052.00
942.5510, 14187.00
943.6700, 14245.00
944.7890, 13955.00
945.9080, 14079.00
947.0260, 13847.00
948.1450, 14106.00
949.2630, 13943.00
950.3810, 14090.00
951.4990, 14233.00
952.6170, 14226.00
953.7340, 14108.00
954.8520, 14290.00
955.9690, 14070.00
957.0860, 13957.00
958.2030, 14061.00
959.3200, 14155.00
960.4360, 14155.00
961.5530, 14068.00
962.6690, 14194.00
963.7850, 14108.00
964.9010, 14061.00
966.0170, 14096.00
967.1330, 14183.00
968.2480, 14205.00
969.3630, 14276.00
970.4790, 14279.17
971.5940, 14233.00
972.7080, 14280.00
973.8230, 14232.00
974.9380, 14242.13
976.0520, 14166.00
977.1660, 14228.00
978.2800, 14195.00
979.3940, 14286.00
980.5080, 14165.00
981.6220, 14211.00
982.7350, 14100.00
983.8480, 14246.00
984.9610, 14102.00
986.0740, 14088.00
987.1870, 14201.00
988.3000, 14220.00
989.4120, 14300.00
990.5250, 14282.96
991.6370, 14204.00
992.7490, 14255.00
993.8610, 14294.00
994.9720, 14356.00
996.0840, 14108.00
997.1950, 14225.00
998.3060, 14285.00
999.4170, 14052.00
1000.528, 14344.00
1001.639, 14447.00
1002.750, 14240.00
1003.860, 14373.00
1004.970, 14263.00
1006.080, 14192.00
1007.190, 14231.00
1008.300, 14205.93
1009.410, 14203.91
1010.519, 14246.00
1011.628, 14218.00
1012.738, 14171.00
1013.846, 14179.14
1014.955, 14190.00
1016.064, 14233.00
1017.172, 14244.00
1018.281, 14259.00
1019.389, 14201.00
1020.497, 14209.70
1021.605, 14189.23
1022.713, 14176.00
1023.820, 14170.00
1024.928, 14158.10
1026.035, 14173.39
1027.142, 14252.00
1028.249, 14202.00
1029.356, 14419.00
1030.462, 14208.00
1031.569, 14395.00
1032.675, 14310.00
1033.781, 14072.00
1034.887, 14365.00
1035.993, 14473.00
1037.098, 14249.00
1038.204, 14277.00
1039.309, 14391.00
1040.415, 14288.00
1041.520, 14200.00
1042.624, 14364.00
1043.729, 14451.00
1044.834, 14308.00
1045.938, 14335.00
1047.042, 14384.00
1048.146, 14378.00
1049.250, 14404.00
1050.354, 14434.00
1051.458, 14422.00
1052.561, 14655.00
1053.664, 14528.00
1054.767, 14405.00
1055.870, 14365.00
1056.973, 14557.00
1058.076, 14537.00
1059.178, 14507.00
1060.281, 14506.00
1061.383, 14490.00
1062.485, 14444.11
1063.587, 14391.00
1064.688, 14378.00
1065.790, 14335.00
1066.891, 14364.00
1067.993, 14323.00
1069.094, 14534.00
1070.195, 14457.00
1071.295, 14418.00
1072.396, 14546.00
1073.496, 14504.00
1074.597, 14516.00
1075.697, 14598.00
1076.797, 14421.00
1077.897, 14566.00
1078.996, 14375.00
1080.096, 14343.00
1081.195, 14497.00
1082.294, 14568.00
1083.393, 14549.00
1084.492, 14514.00
1085.591, 14531.00
1086.689, 14491.00
1087.788, 14489.37
1088.886, 14511.00
1089.984, 14465.00
1091.082, 14460.00
1092.180, 14429.00
1093.277, 14533.00
1094.375, 14512.00
1095.472, 14336.00
1096.569, 14524.00
1097.666, 14456.00
1098.763, 14511.00
1099.860, 14577.00
1100.956, 14548.00
1102.053, 14376.00
1103.149, 14465.00
1104.245, 14574.00
1105.341, 14354.00
1106.436, 14527.00
1107.532, 14429.00
1108.627, 14439.00
1109.723, 14403.00
1110.818, 14522.00
1111.913, 14607.00
1113.007, 14468.00
1114.102, 14325.00
1115.197, 14359.00
1116.291, 14333.00
1117.385, 14279.38
1118.479, 14416.00
1119.573, 14287.00
1120.666, 14323.00
1121.760, 14468.00
1122.853, 14518.00
1123.947, 14430.00
1125.040, 14386.00
1126.132, 14414.00
1127.225, 14355.00
1128.318, 14426.00
1129.410, 14364.00
1130.502, 14310.00
1131.595, 14353.00
1132.687, 14498.00
1133.778, 14271.00
1134.870, 14306.00
1135.961, 14472.00
1137.053, 14281.00
1138.144, 14186.00
1139.235, 14205.00
1140.326, 14257.00
1141.416, 14176.00
1142.507, 14258.00
1143.597, 14200.98
1144.688, 14279.00
1145.778, 14136.00
1146.868, 14180.00
1147.957, 14178.00
1149.047, 14312.00
1150.136, 14312.00
1151.226, 14303.00
1152.315, 14160.00
1153.404, 14262.00
1154.493, 14227.00
1155.581, 14142.00
1156.670, 14219.00
1157.758, 14247.00
1158.846, 14248.00
1159.934, 14125.00
1161.022, 14236.00
1162.110, 14041.00
1163.198, 14274.00
1164.285, 14227.00
1165.372, 14223.00
1166.459, 14198.00
1167.546, 14087.00
1168.633, 14153.00
1169.720, 14161.00
1170.806, 14097.00
1171.892, 14258.00
1172.979, 14060.00
1174.065, 14199.00
1175.150, 14164.00
1176.236, 14135.00
1177.322, 14309.00
1178.407, 14301.00
1179.492, 14258.00
1180.577, 14091.00
1181.662, 14178.00
1182.747, 14142.00
1183.832, 14108.00
1184.916, 14253.00
1186.000, 14105.00
1187.084, 14177.00
1188.168, 14188.00
1189.252, 14281.00
1190.336, 14283.00
1191.419, 14184.00
1192.503, 14158.00
1193.586, 13947.00
1194.669, 14114.00
1195.752, 14106.00
1196.835, 14313.00
1197.917, 14236.58
1199.000, 14164.00
1200.082, 14206.00
1201.164, 14146.00
1202.246, 14169.45
1203.328, 14184.00
1204.409, 14219.00
1205.491, 14163.00
1206.572, 14195.00
1207.653, 14189.65
1208.734, 14120.00
1209.815, 14207.00
1210.896, 14166.00
1211.976, 14194.00
1213.057, 14287.00
1214.137, 14174.00
1215.217, 14218.00
1216.297, 14257.00
1217.377, 14282.00
1218.456, 14186.00
1219.536, 14101.00
1220.615, 14130.00
1221.694, 14126.00
1222.773, 14137.00
1223.852, 14185.00
1224.931, 14098.00
1226.009, 14277.00
1227.088, 14243.00
1228.166, 14294.00
1229.244, 14051.00
1230.322, 14319.00
1231.400, 14092.00
1232.477, 14209.00
1233.555, 14245.00
1234.632, 14085.00
1235.709, 14228.00
1236.786, 14114.44
1237.863, 14221.06
1238.939, 14281.93
1240.016, 14299.52
1241.092, 14144.17
1242.168, 14212.13
1243.245, 14190.60
1244.320, 14165.40
1245.396, 14264.79
1246.472, 14134.60
1247.547, 14232.01
1248.622, 14238.56
1249.697, 14286.70
1250.772, 14295.76
1251.847, 14219.00
1252.922, 14301.00
1253.996, 14266.00
1255.071, 14301.00
1256.145, 14375.00
1257.219, 14219.00
1258.293, 14207.00
1259.366, 14124.00
1260.440, 14113.69
1261.513, 14138.80
1262.587, 14140.00
1263.660, 14203.00
1264.733, 14227.00
1265.805, 14215.00
1266.878, 14354.00
1267.951, 14227.00
1269.023, 14176.00
1270.095, 14323.00
1271.167, 14204.00
1272.239, 14306.00
1273.311, 14265.00
1274.382, 14157.00
1275.454, 14146.00
1276.525, 14141.40
1277.596, 14119.77
1278.667, 14198.00
1279.738, 14172.00
1280.808, 14223.00
1281.879, 14314.00
1282.949, 14279.00
1284.019, 14231.00
1285.089, 14191.00
1286.159, 14230.00
1287.229, 14322.00
1288.298, 14286.00
1289.368, 14343.73
1290.437, 14337.00
1291.506, 14360.00
1292.575, 14354.00
1293.644, 14293.00
1294.712, 14321.99
1295.781, 14322.26
1296.849, 14317.62
1297.917, 14240.00
1298.985, 14207.00
1300.053, 14297.00
1301.121, 14256.00
1302.188, 14337.00
1303.255, 14285.00
1304.323, 14342.00
1305.390, 14359.00
1306.457, 14347.00
1307.523, 14421.00
1308.590, 14268.00
1309.656, 14264.00
1310.723, 14335.00
1311.789, 14211.95
1312.855, 14353.09
1313.921, 14433.24
1314.986, 14455.67
1316.052, 14247.53
1317.117, 14337.12
1318.182, 14307.40
1319.248, 14272.78
1320.312, 14404.29
1321.377, 14229.68
1322.442, 14358.54
1323.506, 14366.27
1324.571, 14429.44
1325.635, 14372.55
1326.699, 14352.74
1327.762, 14453.03
1328.826, 14486.82
1329.890, 14416.11
1330.953, 14482.80
1332.016, 14303.99
1333.079, 14340.61
1334.142, 14470.18
1335.205, 14405.50
1336.268, 14474.39
1337.330, 14492.41
1338.392, 14279.25
1339.454, 14468.12
1340.516, 14483.13
1341.578, 14319.62
1342.640, 14494.72
1343.701, 14355.82
1344.763, 14329.00
1345.824, 14386.52
1346.885, 14356.12
1347.946, 14464.34
1349.007, 14439.01
1350.067, 14401.75
1351.128, 14416.57
1352.188, 14283.82
1353.248, 14424.82
1354.308, 14378.83
1355.368, 14425.79
1356.428, 14493.82
1357.487, 14400.53
1358.547, 14478.02
1359.606, 14290.66
1360.665, 14324.91
1361.724, 14335.30
1362.783, 14487.34
1363.841, 14301.27
1364.900, 14329.37
1365.958, 14448.65
1367.016, 14440.34
1368.074, 14485.37
1369.132, 14372.48
1370.190, 14407.95
1371.247, 14402.52
1372.304, 14538.41
1373.362, 14562.74
1374.419, 14452.52
1375.476, 14342.87
1376.532, 14488.93
1377.589, 14392.63
1378.645, 14427.07
1379.702, 14326.49
1380.758, 14342.49
1381.814, 14356.64
1382.870, 14430.57
1383.925, 14323.25
1384.981, 14451.03
1386.036, 14442.94
1387.092, 14474.86
1388.147, 14502.34
1389.202, 14347.48
1390.256, 14342.09
1391.311, 14550.57
1392.365, 14432.88
1393.420, 14381.03
1394.474, 14375.98
1395.528, 14591.79
1396.582, 14602.30
1397.636, 14367.43
1398.689, 14573.51
1399.742, 14508.30
1400.796, 14523.72
1401.849, 14509.72
1402.902, 14504.42
1403.955, 14388.39
1405.007, 14418.29
1406.060, 14566.85
1407.112, 14513.11
1408.164, 14596.84
1409.216, 14430.04
1410.268, 14411.95
1411.320, 14433.33
1412.371, 14469.10
1413.423, 14389.85
1414.474, 14540.63
1415.525, 14538.25
1416.576, 14403.15
1417.627, 14412.02
1418.678, 14396.99
1419.728, 14630.83
1420.778, 14495.00
1421.829, 14466.00
1422.879, 14503.00
1423.928, 14449.00
1424.978, 14508.00
1426.028, 14425.00
1427.077, 14436.00
1428.126, 14564.00
1429.176, 14501.00
1430.225, 14564.00
1431.273, 14581.00
1432.322, 14663.00
1433.371, 14665.19
1434.419, 14719.00
1435.467, 14620.00
1436.515, 14689.00
1437.563, 14536.00
1438.611, 14523.00
1439.658, 14577.00
1440.706, 14447.00
1441.753, 14402.00
1442.800, 14615.00
1443.847, 14617.00
1444.894, 14538.00
1445.941, 14538.00
1446.987, 14485.00
1448.034, 14455.82
1449.080, 14562.00
1450.126, 14443.00
1451.172, 14534.00
1452.218, 14622.00
1453.263, 14529.00
1454.309, 14520.00
1455.354, 14706.00
1456.399, 14457.00
1457.444, 14610.00
1458.489, 14633.00
1459.534, 14708.00
1460.579, 14677.00
1461.623, 14585.00
1462.667, 14541.00
1463.711, 14624.00
1464.755, 14501.00
1465.799, 14691.00
1466.843, 14552.00
1467.886, 14630.00
1468.930, 14685.00
1469.973, 14526.00
1471.016, 14604.00
1472.059, 14600.02
1473.101, 14547.17
1474.144, 14746.00
1475.186, 14417.00
1476.229, 14635.00
1477.271, 14400.16
1478.313, 14652.00
1479.355, 14586.00
1480.396, 14500.00
1481.438, 14667.00
1482.479, 14462.00
1483.520, 14646.00
1484.561, 14566.00
1485.602, 14488.00
1486.643, 14576.00
1487.684, 14575.00
1488.724, 14578.00
1489.765, 14608.00
1490.805, 14611.69
1491.845, 14659.00
1492.885, 14606.00
1493.924, 14701.00
1494.964, 14628.00
1496.003, 14583.00
1497.042, 14707.00
1498.082, 14452.00
1499.120, 14683.00
1500.159, 14798.00
1501.198, 14693.00
1502.236, 14544.00
1503.275, 14552.00
1504.313, 14489.00
1505.351, 14719.00
1506.389, 14718.00
1507.427, 14697.00
1508.464, 14572.00
1509.502, 14595.00
1510.539, 14581.00
1511.576, 14496.00
1512.613, 14691.00
1513.650, 14737.00
1514.687, 14495.00
1515.723, 14768.00
1516.759, 14815.00
1517.796, 14638.00
1518.832, 14735.00
1519.868, 14589.00
1520.903, 14645.00
1521.939, 14712.00
1522.975, 14604.00
1524.010, 14772.00
1525.045, 14611.00
1526.080, 14582.00
1527.115, 14559.00
1528.150, 14760.00
1529.184, 14868.00
1530.219, 14846.00
1531.253, 14513.00
1532.287, 14603.00
1533.321, 14649.00
1534.355, 14714.00
1535.388, 14668.00
1536.422, 14751.00
1537.455, 14668.00
1538.488, 14771.00
1539.522, 14633.51
1540.554, 14739.12
1541.587, 14798.98
1542.620, 14815.56
1543.652, 14659.20
1544.685, 14726.16
1545.717, 14703.61
1546.749, 14677.40
1547.781, 14775.78
1548.812, 14644.58
1549.844, 14740.98
1550.875, 14746.53
1551.906, 14793.66
1552.938, 14750.75
1553.968, 14735.64
1554.999, 14810.61
1556.030, 14835.71
1557.060, 14782.43
1558.091, 14832.20
1559.121, 14697.85
1560.151, 14725.07
1561.181, 14822.00
1562.211, 14773.24
1563.240, 14844.00
1564.270, 14735.00
1565.299, 14786.00
1566.328, 14728.00
1567.357, 14562.00
1568.386, 14798.00
1569.415, 14771.00
1570.443, 14695.00
1571.472, 14785.00
1572.500, 14840.00
1573.528, 14745.00
1574.556, 14708.00
1575.584, 14748.00
1576.611, 14835.00
1577.639, 14647.00
1578.666, 14743.00
##END=



