##NAMES=Sphalerite
##RRUFFID=R060005
##IDEAL CHEMISTRY=Zn^2+^S^2-^
##LOCALITY=Trinacria mine, Lake Poopo, Oruro, Bolivia
##OWNER=RRUFF
##SOURCE=University of Arizona Mineral Museum
##DESCRIPTION=Steel gray crystal associated with franckeite R050431
##STATUS=The identification of this mineral has been confirmed by X-ray diffraction and chemical analysis
##URL=rruff.info/R060005
##MEASURED CHEMISTRY=Zn_0.82_Fe_0.18_S
##PIN_ID=M01404
##ORIENTATION=Laser parallel to c* (0 0 1). Fiducial mark perpendicular to laser is parallel to a [1 0 0]
97.44100, 21551.00
98.68000, 22332.00
99.91800, 22686.00
101.1560, 23268.00
102.3940, 24948.00
103.6320, 26195.00
104.8700, 26686.00
106.1070, 26115.00
107.3450, 24197.00
108.5820, 23126.00
109.8190, 22407.00
111.0550, 22522.00
112.2920, 22328.00
113.5290, 23017.00
114.7650, 23221.00
116.0010, 23077.00
117.2370, 22748.00
118.4730, 22519.00
119.7080, 22213.74
120.9440, 21867.90
122.1790, 21500.00
123.4140, 21270.00
124.6490, 20793.00
125.8830, 20726.00
127.1180, 20701.00
128.3520, 20815.00
129.5870, 20856.00
130.8210, 20845.89
132.0540, 20833.00
133.2880, 20830.00
134.5220, 20766.47
135.7550, 20972.74
136.9880, 21087.51
138.2210, 21115.72
139.4540, 20798.06
140.6860, 20927.01
141.9190, 20876.98
143.1510, 20819.62
144.3830, 20998.27
145.6150, 21188.16
146.8470, 21286.55
148.0790, 21298.38
149.3100, 20964.34
150.5410, 21131.00
151.7720, 21057.52
153.0030, 21045.00
154.2340, 21171.00
155.4640, 21214.00
156.6950, 21311.00
157.9250, 21087.00
159.1550, 20991.25
160.3850, 21182.08
161.6150, 21281.42
162.8440, 21294.21
164.0730, 20961.12
165.3030, 21010.85
166.5320, 21046.78
167.7600, 21046.16
168.9890, 21010.86
170.2180, 20837.22
171.4460, 20842.26
172.6740, 20775.71
173.9020, 20706.23
175.1300, 20722.00
176.3570, 20543.28
177.5850, 20259.08
178.8120, 20185.65
180.0390, 20077.60
181.2660, 19831.19
182.4930, 19763.43
183.7190, 19624.18
184.9460, 19481.89
186.1720, 19439.37
187.3980, 19213.19
188.6240, 19319.00
189.8500, 19229.00
191.0750, 19110.00
192.3010, 19094.00
193.5260, 19005.00
194.7510, 18991.00
195.9760, 18809.00
197.2000, 18739.72
198.4250, 18527.00
199.6490, 18525.00
200.8730, 18399.00
202.0970, 18316.63
203.3210, 18184.00
204.5450, 18052.00
205.7680, 17916.00
206.9920, 17746.00
208.2150, 17859.00
209.4380, 17842.00
210.6610, 17740.00
211.8830, 17669.00
213.1060, 17635.00
214.3280, 17644.93
215.5500, 17721.00
216.7720, 17792.00
217.9940, 17645.00
219.2150, 17828.00
220.4370, 17759.00
221.6580, 17777.00
222.8790, 17630.00
224.1000, 17865.00
225.3210, 17673.00
226.5410, 17740.00
227.7620, 17623.00
228.9820, 17456.00
230.2020, 17601.00
231.4220, 17532.00
232.6410, 17276.00
233.8610, 17494.00
235.0800, 17349.00
236.2990, 17344.00
237.5180, 17544.00
238.7370, 17614.00
239.9560, 17540.00
241.1750, 17632.00
242.3930, 17655.00
243.6110, 17628.00
244.8290, 17775.00
246.0470, 17828.00
247.2640, 17971.00
248.4820, 18278.07
249.6990, 18289.00
250.9160, 18996.00
252.1330, 19515.00
253.3500, 19965.00
254.5670, 19886.00
255.7830, 20134.00
256.9990, 20043.00
258.2160, 19250.00
259.4310, 18906.00
260.6470, 18841.10
261.8630, 19020.00
263.0780, 18880.00
264.2930, 18868.00
265.5090, 19147.00
266.7230, 19137.00
267.9380, 19238.00
269.1530, 19582.00
270.3670, 19631.00
271.5810, 19855.00
272.7950, 19993.00
274.0090, 20389.00
275.2230, 20686.00
276.4370, 20933.21
277.6500, 21382.21
278.8630, 21635.00
280.0760, 22231.00
281.2890, 22922.00
282.5020, 23402.00
283.7140, 24314.00
284.9270, 25084.00
286.1390, 26166.00
287.3510, 27322.00
288.5630, 28101.00
289.7740, 29626.00
290.9860, 30716.00
292.1970, 31797.00
293.4080, 32857.00
294.6190, 33941.00
295.8300, 34577.00
297.0410, 34863.00
298.2510, 35186.00
299.4610, 35080.00
300.6710, 34790.00
301.8810, 34627.00
303.0910, 34721.00
304.3010, 34241.00
305.5100, 34158.00
306.7200, 34176.00
307.9290, 33956.00
309.1380, 33933.00
310.3460, 33835.00
311.5550, 34343.00
312.7630, 34628.00
313.9720, 35280.00
315.1800, 36162.00
316.3880, 37135.00
317.5950, 37689.00
318.8030, 38500.00
320.0100, 39012.00
321.2180, 39005.00
322.4250, 38938.00
323.6320, 38423.00
324.8380, 37443.00
326.0450, 36412.00
327.2510, 35344.00
328.4570, 34244.00
329.6640, 33378.00
330.8690, 32031.00
332.0750, 31003.00
333.2810, 29777.00
334.4860, 28992.00
335.6910, 28128.00
336.8960, 27358.00
338.1010, 26318.00
339.3060, 25973.00
340.5100, 25314.00
341.7150, 24816.00
342.9190, 24563.00
344.1230, 24137.00
345.3270, 23694.00
346.5300, 23616.00
347.7340, 23519.00
348.9370, 23125.00
350.1400, 23216.00
351.3430, 22968.00
352.5460, 22671.00
353.7490, 22472.00
354.9510, 22016.00
356.1540, 21575.00
357.3560, 21127.00
358.5580, 20759.00
359.7600, 20226.00
360.9610, 19958.00
362.1630, 19415.00
363.3640, 19128.00
364.5650, 18754.00
365.7660, 18460.00
366.9670, 18294.00
368.1680, 17932.00
369.3680, 17875.00
370.5680, 17654.00
371.7680, 17435.00
372.9680, 17364.00
374.1680, 17393.00
375.3680, 16989.00
376.5670, 16728.00
377.7660, 16798.00
378.9660, 16586.00
380.1640, 16474.00
381.3630, 16558.00
382.5620, 16508.00
383.7600, 16459.00
384.9590, 16434.00
386.1570, 16261.00
387.3550, 16148.00
388.5520, 16088.00
389.7500, 16078.00
390.9470, 15872.00
392.1450, 15879.00
393.3420, 15778.00
394.5390, 15738.00
395.7350, 15730.00
396.9320, 15682.00
398.1280, 15647.00
399.3250, 15538.00
400.5210, 15461.00
401.7160, 15592.00
402.9120, 15572.00
404.1080, 15371.00
405.3030, 15491.00
406.4980, 15398.59
407.6930, 15629.00
408.8880, 15400.00
410.0830, 15223.00
411.2780, 15300.00
412.4720, 15307.00
413.6660, 15228.00
414.8600, 15179.00
416.0540, 15279.00
417.2480, 15296.00
418.4410, 15206.00
419.6350, 15138.00
420.8280, 15144.00
422.0210, 15002.00
423.2140, 14963.00
424.4070, 15051.00
425.5990, 14974.00
426.7920, 15114.00
427.9840, 14932.00
429.1760, 14909.00
430.3680, 14691.00
431.5590, 14816.00
432.7510, 14905.00
433.9420, 14767.00
435.1330, 14695.00
436.3240, 14842.00
437.5150, 14833.00
438.7060, 14924.00
439.8960, 14768.00
441.0870, 14778.00
442.2770, 14652.00
443.4670, 14552.00
444.6570, 14565.00
445.8470, 14516.00
447.0360, 14618.00
448.2250, 14582.00
449.4150, 14580.53
450.6040, 14467.00
451.7920, 14557.00
452.9810, 14568.00
454.1700, 14573.59
455.3580, 14452.00
456.5460, 14478.00
457.7340, 14400.00
458.9220, 14269.00
460.1100, 14253.00
461.2970, 14421.00
462.4850, 14371.00
463.6720, 14446.00
464.8590, 14430.94
466.0460, 14335.00
467.2320, 14340.00
468.4190, 14310.00
469.6050, 14229.00
470.7910, 14213.00
471.9770, 14191.00
473.1630, 14287.00
474.3490, 14233.00
475.5340, 14249.00
476.7200, 14351.00
477.9050, 14345.00
479.0900, 14412.00
480.2750, 14199.00
481.4590, 14196.00
482.6440, 14145.00
483.8280, 14202.00
485.0120, 14252.00
486.1960, 14219.00
487.3800, 14455.00
488.5640, 14346.00
489.7470, 14384.00
490.9310, 14143.00
492.1140, 14286.00
493.2970, 14437.00
494.4800, 14241.00
495.6620, 14333.00
496.8450, 14169.00
498.0270, 14229.00
499.2090, 14367.00
500.3910, 14396.00
501.5730, 14238.00
502.7550, 14377.00
503.9360, 14427.00
505.1170, 14284.00
506.2990, 14430.00
507.4800, 14331.00
508.6600, 14428.00
509.8410, 14331.00
511.0220, 14335.00
512.2020, 14321.00
513.3820, 14399.00
514.5620, 14454.00
515.7420, 14364.00
516.9220, 14471.00
518.1010, 14419.00
519.2800, 14532.00
520.4600, 14470.00
521.6390, 14421.00
522.8170, 14511.00
523.9960, 14380.00
525.1750, 14452.00
526.3530, 14270.00
527.5310, 14600.00
528.7090, 14439.00
529.8870, 14579.00
531.0650, 14474.00
532.2420, 14400.00
533.4190, 14520.00
534.5970, 14252.00
535.7740, 14313.00
536.9500, 14372.00
538.1270, 14237.00
539.3040, 14167.00
540.4800, 14322.00
541.6560, 14324.35
542.8320, 14529.00
544.0080, 14535.00
545.1840, 14465.00
546.3590, 14507.00
547.5340, 14509.00
548.7100, 14515.00
549.8850, 14498.00
551.0600, 14520.00
552.2340, 14583.00
553.4090, 14578.00
554.5830, 14589.55
555.7570, 14645.00
556.9310, 14585.00
558.1050, 14571.00
559.2790, 14586.00
560.4520, 14529.40
561.6260, 14632.01
562.7990, 14688.88
563.9720, 14702.46
565.1450, 14543.11
566.3170, 14607.07
567.4900, 14581.53
568.6620, 14552.33
569.8350, 14647.71
571.0070, 14513.52
572.1780, 14606.93
573.3500, 14609.48
574.5220, 14653.62
575.6930, 14607.72
576.8640, 14589.62
578.0350, 14661.60
579.2060, 14683.71
580.3770, 14648.00
581.5470, 14620.03
582.7180, 14571.64
583.8880, 14491.00
585.0580, 14468.00
586.2280, 14441.11
587.3980, 14455.00
588.5670, 14364.00
589.7370, 14382.00
590.9060, 14351.00
592.0750, 14266.00
593.2440, 14272.00
594.4130, 14365.00
595.5810, 14270.00
596.7500, 14396.00
597.9180, 14518.00
599.0860, 14364.00
600.2540, 14490.00
601.4220, 14459.00
602.5890, 14455.00
603.7570, 14461.00
604.9240, 14468.71
606.0910, 14493.00
607.2580, 14508.00
608.4250, 14576.00
609.5910, 14589.90
610.7580, 14623.00
611.9240, 14601.00
613.0900, 14582.00
614.2560, 14560.00
615.4220, 14587.00
616.5870, 14545.00
617.7530, 14677.00
618.9180, 14734.00
620.0830, 14685.74
621.2480, 14709.00
622.4130, 14667.00
623.5770, 14646.18
624.7420, 14657.00
625.9060, 14607.00
627.0700, 14638.55
628.2340, 14654.35
629.3980, 14728.00
630.5620, 14614.00
631.7250, 14664.00
632.8880, 14569.00
634.0510, 14756.00
635.2140, 14635.00
636.3770, 14540.00
637.5400, 14638.00
638.7020, 14585.00
639.8650, 14653.00
641.0270, 14626.00
642.1890, 14511.00
643.3510, 14602.00
644.5120, 14481.00
645.6740, 14605.00
646.8350, 14503.00
647.9960, 14385.00
649.1570, 14558.00
650.3180, 14494.03
651.4790, 14503.14
652.6390, 14504.00
653.8000, 14518.00
654.9600, 14348.00
656.1200, 14383.00
657.2800, 14383.00
658.4390, 14407.00
659.5990, 14407.52
660.7580, 14444.00
661.9170, 14411.00
663.0770, 14402.00
664.2350, 14420.00
665.3940, 14481.00
666.5530, 14401.00
667.7110, 14418.00
668.8690, 14349.00
670.0270, 14262.00
671.1850, 14139.58
672.3430, 14321.67
673.5000, 14412.29
674.6580, 14416.32
675.8150, 14074.51
676.9720, 14179.31
678.1290, 14105.12
679.2860, 14023.60
680.4420, 14191.29
681.5990, 13899.78
682.7550, 14063.51
683.9110, 14045.53
685.0670, 14110.71
686.2230, 13995.80
687.3790, 13936.52
688.5340, 14057.41
689.6890, 14078.55
690.8440, 13942.93
691.9990, 13832.00
693.1540, 13944.00
694.3090, 13858.00
695.4630, 13887.00
696.6170, 13677.00
697.7720, 13577.00
698.9260, 13551.00
700.0790, 13671.00
701.2330, 13691.00
702.3870, 13578.00
703.5400, 13621.00
704.6930, 13619.00
705.8460, 13492.00
706.9990, 13558.00
708.1510, 13519.06
709.3040, 13653.00
710.4560, 13507.00
711.6090, 13619.00
712.7610, 13588.00
713.9120, 13411.00
715.0640, 13377.00
716.2160, 13548.00
717.3670, 13410.00
718.5180, 13593.00
719.6690, 13456.00
720.8200, 13344.00
721.9710, 13370.00
723.1210, 13361.00
724.2720, 13571.00
725.4220, 13401.00
726.5720, 13327.00
727.7220, 13495.00
728.8720, 13281.00
730.0210, 13415.00
731.1710, 13414.00
732.3200, 13370.00
733.4690, 13359.00
734.6180, 13399.00
735.7670, 13228.00
736.9150, 13517.00
738.0640, 13441.00
739.2120, 13151.00
740.3600, 13419.00
741.5080, 13490.00
742.6560, 13254.00
743.8040, 13370.00
744.9510, 13496.00
746.0980, 13454.00
747.2450, 13484.30
748.3920, 13388.00
749.5390, 13386.00
750.6860, 13435.00
751.8320, 13357.00
752.9790, 13426.00
754.1250, 13378.00
755.2710, 13264.00
756.4170, 13258.00
757.5620, 13450.00
758.7080, 13319.00
759.8530, 13435.00
760.9990, 13293.00
762.1440, 13520.00
763.2880, 13437.00
764.4330, 13539.00
765.5780, 13403.00
766.7220, 13307.00
767.8660, 13369.00
769.0100, 13242.00
770.1540, 13254.00
771.2980, 13315.00
772.4420, 13282.00
773.5850, 13363.00
774.7280, 13285.00
775.8710, 13279.00
777.0140, 13277.00
778.1570, 13206.00
779.3000, 13252.00
780.4420, 13428.00
781.5840, 13179.00
782.7270, 13389.00
783.8690, 13338.00
785.0100, 13362.00
786.1520, 13384.95
787.2940, 13366.00
788.4350, 13324.00
789.5760, 13352.00
790.7170, 13311.00
791.8580, 13303.00
792.9980, 13358.00
794.1390, 13369.00
795.2790, 13317.00
796.4200, 13358.00
797.5600, 13284.00
798.6990, 13250.00
799.8390, 13259.44
800.9790, 13158.00
802.1180, 13272.00
803.2570, 13230.00
804.3960, 13275.00
805.5350, 13214.00
806.6740, 13306.00
807.8130, 13206.00
808.9510, 13326.00
810.0890, 13314.00
811.2270, 13369.00
812.3650, 13337.00
813.5030, 13436.00
814.6410, 13321.00
815.7780, 13243.00
816.9150, 13412.00
818.0530, 13409.00
819.1900, 13296.00
820.3260, 13266.00
821.4630, 13442.00
822.5990, 13372.00
823.7360, 13264.00
824.8720, 13376.00
826.0080, 13238.00
827.1440, 13354.00
828.2790, 13383.00
829.4150, 13275.00
830.5500, 13296.00
831.6860, 13192.00
832.8210, 13225.85
833.9560, 13408.00
835.0900, 13273.00
836.2250, 13335.00
837.3590, 13324.00
838.4930, 13213.00
839.6280, 13411.00
840.7610, 13350.00
841.8950, 13260.00
843.0290, 13376.00
844.1620, 13396.00
845.2950, 13232.00
846.4290, 13355.00
847.5620, 13248.00
848.6940, 13306.00
849.8270, 13466.00
850.9590, 13370.00
852.0920, 13226.00
853.2240, 13462.00
854.3560, 13427.00
855.4880, 13249.00
856.6190, 13377.00
857.7510, 13286.00
858.8820, 13351.00
860.0130, 13235.00
861.1450, 13214.00
862.2750, 13588.00
863.4060, 13413.00
864.5370, 13555.00
865.6670, 13325.00
866.7970, 13557.00
867.9270, 13256.00
869.0570, 13281.00
870.1870, 13429.00
871.3170, 13252.00
872.4460, 13408.00
873.5750, 13416.00
874.7040, 13338.00
875.8330, 13310.00
876.9620, 13445.00
878.0910, 13486.00
879.2190, 13513.00
880.3480, 13515.75
881.4760, 13493.85
882.6040, 13468.00
883.7320, 13404.00
884.8590, 13441.00
885.9870, 13389.00
887.1140, 13492.00
888.2410, 13428.00
889.3680, 13360.00
890.4950, 13511.00
891.6220, 13571.00
892.7490, 13465.00
893.8750, 13445.00
895.0010, 13465.00
896.1270, 13390.00
897.2530, 13469.00
898.3790, 13534.00
899.5050, 13557.00
900.6300, 13535.00
901.7550, 13592.00
902.8800, 13626.00
904.0050, 13520.00
905.1300, 13612.44
906.2550, 13565.00
907.3790, 13703.00
908.5040, 13562.00
909.6280, 13613.00
910.7520, 13623.00
911.8760, 13552.00
912.9990, 13772.00
914.1230, 13676.00
915.2460, 13495.00
916.3690, 13665.00
917.4930, 13633.00
918.6150, 13575.00
919.7380, 13643.00
920.8610, 13790.00
921.9830, 13665.00
923.1050, 13600.00
924.2280, 13810.00
925.3490, 13714.86
926.4710, 13548.00
927.5930, 13757.00
928.7140, 13761.00
929.8360, 13773.00
930.9570, 13582.00
932.0780, 13717.00
933.1990, 13741.00
934.3190, 13864.00
935.4400, 13760.00
936.5600, 13846.00
937.6800, 13786.00
938.8000, 13710.00
939.9200, 13725.00
941.0400, 13768.00
942.1600, 13790.00
943.2790, 13778.00
944.3980, 13854.00
945.5170, 13839.66
946.6360, 13800.00
947.7550, 13819.00
948.8740, 13824.00
949.9920, 13741.00
951.1100, 13878.00
952.2280, 13792.00
953.3460, 13723.00
954.4640, 13800.00
955.5820, 13725.00
956.6990, 13779.00
957.8170, 13707.00
958.9340, 13708.00
960.0510, 13854.00
961.1680, 13939.00
962.2850, 13755.00
963.4010, 13613.00
964.5170, 13719.00
965.6340, 13850.00
966.7500, 13870.00
967.8660, 13821.00
968.9810, 13750.00
970.0970, 13697.00
971.2130, 13968.00
972.3280, 13850.00
973.4430, 13893.00
974.5580, 13939.00
975.6730, 13763.00
976.7870, 13721.00
977.9020, 13754.25
979.0160, 13812.00
980.1300, 13850.00
981.2440, 13819.00
982.3580, 13915.00
983.4720, 13739.00
984.5860, 13875.00
985.6990, 13917.00
986.8120, 13791.00
987.9250, 13914.00
989.0380, 13804.00
990.1510, 13930.00
991.2630, 14050.00
992.3760, 13908.00
993.4880, 13898.00
994.6000, 13902.00
995.7120, 13824.00
996.8240, 13877.00
997.9360, 14079.00
999.0470, 13991.00
1000.159, 13878.00
1001.270, 14067.00
1002.381, 13930.00
1003.492, 13912.00
1004.602, 13958.00
1005.713, 13955.00
1006.823, 14007.00
1007.934, 13845.00
1009.044, 13943.00
1010.154, 13966.00
1011.263, 13825.00
1012.373, 13925.00
1013.482, 13909.00
1014.592, 14013.00
1015.701, 14092.00
1016.810, 13830.00
1017.919, 13742.00
1019.027, 13921.00
1020.136, 13928.00
1021.244, 14081.00
1022.352, 13972.00
1023.460, 13962.00
1024.568, 13924.00
1025.676, 13925.00
1026.784, 14067.00
1027.891, 13984.00
1028.998, 14048.00
1030.105, 14057.00
1031.212, 13948.00
1032.319, 14016.00
1033.426, 13944.00
1034.532, 13918.00
1035.638, 14005.00
1036.745, 13953.00
1037.851, 13992.00
1038.956, 13922.00
1040.062, 14006.00
1041.168, 14033.00
1042.273, 14001.00
1043.378, 13994.00
1044.483, 14056.00
1045.588, 13975.00
1046.693, 14003.00
1047.798, 14016.00
1048.902, 13977.00
1050.006, 13893.00
1051.110, 13978.74
1052.214, 14012.49
1053.318, 14147.00
1054.422, 14106.00
1055.525, 14252.00
1056.629, 14090.00
1057.732, 14121.00
1058.835, 14038.00
1059.938, 14218.00
1061.040, 14112.00
1062.143, 14152.00
1063.245, 14157.00
1064.348, 14207.00
1065.450, 14195.00
1066.552, 14148.00
1067.653, 14173.48
1068.755, 14160.00
1069.856, 14150.00
1070.958, 14117.36
1072.059, 14221.87
1073.160, 14280.64
1074.261, 14296.12
1075.361, 14138.67
1076.462, 14204.52
1077.562, 14180.89
1078.662, 14153.58
1079.762, 14250.87
1080.862, 14118.57
1081.962, 14213.88
1083.062, 14218.33
1084.161, 14264.37
1085.260, 14220.36
1086.359, 14204.16
1087.458, 14278.04
1088.557, 14068.00
1089.656, 13943.00
1090.754, 14226.00
1091.853, 14035.00
1092.951, 14048.00
1094.049, 14050.00
1095.147, 13980.00
1096.244, 14194.00
1097.342, 14143.00
1098.439, 14174.00
1099.537, 14130.00
1100.634, 14122.00
1101.731, 14114.00
1102.827, 14101.00
1103.924, 14046.00
1105.021, 14103.00
1106.117, 14094.00
1107.213, 14066.00
1108.309, 14150.63
1109.405, 14060.64
1110.501, 14257.00
1111.596, 14039.00
1112.691, 14007.00
1113.787, 14220.00
1114.882, 14125.00
1115.977, 14155.00
1117.071, 14206.00
1118.166, 14071.00
1119.260, 14026.00
1120.355, 14039.00
1121.449, 14003.00
1122.543, 14052.00
1123.637, 14069.00
1124.730, 13906.00
1125.824, 13885.00
1126.917, 13948.00
1128.010, 14038.00
1129.103, 14048.00
1130.196, 13979.00
1131.289, 13955.00
1132.382, 13896.00
1133.474, 13842.00
1134.566, 13968.00
1135.659, 13918.00
1136.750, 13933.00
1137.842, 13947.00
1138.934, 13868.00
1140.025, 13959.00
1141.117, 13933.22
1142.208, 13825.00
1143.299, 13937.00
1144.390, 13987.00
1145.481, 13945.00
1146.571, 13932.00
1147.662, 14026.00
1148.752, 13949.00
1149.842, 13970.00
1150.932, 13984.00
1152.022, 13945.00
1153.111, 14059.00
1154.201, 13886.00
1155.290, 13969.00
1156.379, 13940.00
1157.468, 13789.00
1158.557, 13902.00
1159.646, 13887.00
1160.734, 13817.00
1161.823, 13738.00
1162.911, 13772.90
1163.999, 13833.00
1165.087, 13819.00
1166.175, 13831.00
1167.262, 13838.00
1168.350, 13880.00
1169.437, 13955.28
1170.524, 13948.00
1171.611, 13933.84
1172.698, 13957.00
1173.785, 13850.00
1174.872, 13819.00
1175.958, 13791.16
1177.044, 13827.00
1178.130, 13793.00
1179.216, 13824.00
1180.302, 13769.00
1181.388, 14053.00
1182.473, 13852.00
1183.558, 14007.00
1184.644, 13875.00
1185.729, 13866.00
1186.813, 13959.00
1187.898, 13789.00
1188.983, 13867.00
1190.067, 13785.00
1191.151, 13906.00
1192.235, 13645.00
1193.319, 13758.00
1194.403, 13832.00
1195.487, 13733.00
1196.570, 13871.00
1197.653, 13757.00
1198.737, 13754.00
1199.820, 13886.00
1200.902, 13805.00
1201.985, 13755.00
1203.068, 13832.00
1204.150, 13967.00
1205.232, 13755.00
1206.314, 13906.00
1207.396, 13916.00
1208.478, 13757.00
1209.560, 13911.00
1210.641, 13871.00
1211.722, 13745.00
1212.804, 13816.00
1213.885, 13849.00
1214.965, 13801.00
1216.046, 13921.00
1217.127, 14050.00
1218.207, 13816.00
1219.287, 13817.00
1220.367, 13829.00
1221.447, 13892.00
1222.527, 13870.24
1223.607, 13866.00
1224.686, 13903.00
1225.765, 13835.00
1226.845, 13931.00
1227.924, 13908.00
1229.002, 13720.00
1230.081, 13853.00
1231.160, 13713.00
1232.238, 13933.00
1233.316, 13692.00
1234.394, 13898.00
1235.472, 13971.00
1236.550, 13844.00
1237.628, 13906.00
1238.705, 13839.00
1239.783, 13854.00
1240.860, 13851.09
1241.937, 13867.00
1243.014, 13849.00
1244.090, 13908.00
1245.167, 13940.00
1246.243, 13862.00
1247.319, 13922.00
1248.396, 13890.25
1249.471, 13990.00
1250.547, 13879.00
1251.623, 13885.00
1252.698, 13906.00
1253.774, 13917.00
1254.849, 13902.05
1255.924, 13816.00
1256.999, 13885.00
1258.074, 13833.00
1259.148, 13863.00
1260.222, 13682.00
1261.297, 13724.00
1262.371, 13823.00
1263.445, 13811.00
1264.519, 13950.00
1265.592, 13941.00
1266.666, 14013.00
1267.739, 14011.32
1268.812, 13970.00
1269.885, 13937.00
1270.958, 13943.00
1272.031, 13835.00
1273.104, 13942.00
1274.176, 13962.00
1275.248, 14017.00
1276.320, 13948.00
1277.392, 13956.00
1278.464, 14057.00
1279.536, 13945.00
1280.607, 13937.00
1281.679, 13943.00
1282.750, 13972.00
1283.821, 13933.00
1284.892, 13895.00
1285.963, 13941.93
1287.033, 14045.62
1288.104, 14103.57
1289.174, 14118.23
1290.244, 13959.95
1291.314, 14024.99
1292.384, 14000.53
1293.454, 13972.41
1294.523, 14068.87
1295.592, 13935.75
1296.662, 14030.24
1297.731, 14033.87
1298.800, 14079.09
1299.868, 14034.26
1300.937, 14017.24
1302.006, 14090.30
1303.074, 14113.48
1304.142, 14058.29
1305.210, 14083.00
1306.278, 14063.00
1307.346, 14053.00
1308.413, 13978.00
1309.481, 14063.00
1310.548, 13954.00
1311.615, 14032.00
1312.682, 13856.00
1313.749, 13985.00
1314.815, 13958.00
1315.882, 14058.00
1316.948, 14062.00
1318.014, 14060.00
1319.080, 14062.00
1320.146, 14033.69
1321.212, 14058.00
1322.278, 13992.00
1323.343, 14024.00
1324.408, 14057.00
1325.473, 13901.00
1326.538, 13938.00
1327.603, 13960.00
1328.668, 14062.00
1329.732, 13841.00
1330.797, 14122.00
1331.861, 14124.00
1332.925, 13997.00
1333.989, 13810.00
1335.053, 14122.00
1336.116, 14031.00
1337.180, 14143.00
1338.243, 13843.00
1339.306, 14189.00
1340.369, 13997.00
1341.432, 13999.00
1342.495, 14139.00
1343.557, 14076.00
1344.620, 14051.00
1345.682, 14039.00
1346.744, 13824.00
1347.806, 13989.00
1348.868, 14036.00
1349.930, 13867.00
1350.991, 14028.00
1352.052, 13978.00
1353.114, 14101.00
1354.175, 14136.00
1355.235, 13922.00
1356.296, 14161.00
1357.357, 14168.00
1358.417, 13908.00
1359.478, 14099.00
1360.538, 14238.00
1361.598, 14144.00
1362.657, 14079.00
1363.717, 14063.00
1364.777, 14075.00
1365.836, 14195.00
1366.895, 14155.00
1367.954, 14020.00
1369.013, 13875.00
1370.072, 14037.00
1371.131, 14065.00
1372.189, 14134.00
1373.247, 14177.51
1374.306, 14170.49
1375.364, 14220.00
1376.422, 14156.00
1377.479, 14193.00
1378.537, 14212.00
1379.594, 14145.00
1380.651, 14171.00
1381.709, 14124.00
1382.766, 14056.00
1383.822, 14223.00
1384.879, 14255.00
1385.936, 14022.00
1386.992, 14144.00
1388.048, 14147.00
1389.104, 14027.00
1390.160, 14129.00
1391.216, 14139.00
1392.272, 14141.00
1393.327, 14203.00
1394.382, 14202.00
1395.437, 14206.00
1396.492, 14151.00
1397.547, 14134.00
1398.602, 14252.00
1399.657, 14003.00
1400.711, 14043.00
1401.765, 14178.00
1402.819, 14059.00
1403.873, 14282.00
1404.927, 14108.00
1405.981, 14032.00
1407.034, 14106.00
1408.088, 14159.00
1409.141, 14169.00
1410.194, 14230.00
1411.247, 14170.00
1412.300, 14200.00
1413.352, 14062.00
1414.405, 14033.00
1415.457, 14125.43
1416.509, 14126.03
1417.561, 14295.00
1418.613, 14233.00
1419.665, 14213.00
1420.716, 14120.00
1421.768, 14075.00
1422.819, 14163.00
1423.870, 14295.00
1424.921, 14132.00
1425.972, 14027.00
1427.022, 14162.00
1428.073, 14252.00
1429.123, 14251.00
1430.173, 14173.00
1431.224, 14064.00
1432.273, 14311.00
1433.323, 14149.00
1434.373, 14284.00
1435.422, 14199.00
1436.472, 14214.00
1437.521, 14095.00
1438.570, 14073.00
1439.619, 14289.00
1440.667, 14128.00
1441.716, 14233.00
1442.764, 14230.00
1443.813, 14256.00
1444.861, 14272.00
1445.909, 14303.98
1446.956, 14269.85
1448.004, 14370.68
1449.052, 14425.76
1450.099, 14437.57
1451.146, 14276.44
1452.193, 14338.61
1453.240, 14311.30
1454.287, 14280.31
1455.334, 14373.92
1456.380, 14237.95
1457.426, 14329.58
1458.473, 14330.35
1459.519, 14372.71
1460.565, 14325.03
1461.610, 14305.16
1462.656, 14375.36
1463.701, 14395.69
1464.747, 14337.64
1465.792, 14382.65
1466.837, 14243.53
1467.881, 14223.00
1468.926, 14421.00
1469.971, 14252.00
1471.015, 14308.00
1472.059, 14130.00
1473.103, 14286.00
1474.147, 14234.00
1475.191, 14343.00
1476.235, 14276.00
1477.278, 14270.00
1478.322, 14198.00
1479.365, 14283.00
1480.408, 14174.00
1481.451, 14137.00
1482.493, 14390.00
1483.536, 14312.00
1484.578, 14214.00
1485.621, 14398.67
1486.663, 14468.76
1487.705, 14508.35
1488.747, 14519.08
1489.788, 14414.52
1490.830, 14458.84
1491.871, 14443.49
1492.913, 14425.70
1493.954, 14490.97
1494.995, 14403.18
1496.036, 14467.13
1497.076, 14470.51
1498.117, 14501.61
1499.157, 14472.68
1500.197, 14241.00
1501.237, 14473.00
1502.277, 14177.00
1503.317, 14339.00
1504.357, 14317.00
1505.396, 14348.00
1506.436, 14377.00
1507.475, 14383.00
1508.514, 14496.00
1509.553, 14552.03
1510.591, 14514.00
1511.630, 14686.00
1512.668, 14425.00
1513.707, 14345.00
1514.745, 14289.00
1515.783, 14346.00
1516.821, 14399.00
1517.858, 14377.00
1518.896, 14424.00
1519.933, 14449.00
1520.971, 14379.00
1522.008, 14390.00
1523.045, 14319.00
1524.081, 14269.00
1525.118, 14351.72
1526.155, 14424.00
1527.191, 14416.00
1528.227, 14440.00
1529.263, 14474.97
1530.299, 14487.00
1531.335, 14482.00
1532.371, 14361.00
1533.406, 14258.00
1534.441, 14348.00
1535.477, 14291.00
1536.512, 14301.00
1537.547, 14399.00
1538.581, 14413.00
1539.616, 14356.00
1540.650, 14298.00
1541.685, 14548.00
1542.719, 14307.00
1543.753, 14310.41
1544.787, 14539.97
1545.820, 14668.89
1546.854, 14702.58
1547.887, 14355.82
1548.921, 14500.34
1549.954, 14447.97
1550.987, 14387.54
1552.019, 14601.20
1553.052, 14309.77
1554.085, 14519.09
1555.117, 14528.51
1556.149, 14629.43
1557.181, 14532.24
1558.213, 14496.24
1559.245, 14658.40
1560.277, 14710.84
1561.308, 14590.85
1562.340, 14357.00
1563.371, 14467.00
1564.402, 14334.00
1565.433, 14590.00
1566.463, 14686.00
1567.494, 14614.59
1568.524, 14454.00
1569.555, 14547.00
1570.585, 14517.00
1571.615, 14521.00
1572.645, 14436.00
1573.675, 14336.00
1574.704, 14539.00
1575.734, 14477.00
1576.763, 14531.00
1577.792, 14318.00
1578.821, 14415.00
##END=



