##NAMES=Spodumene
##RRUFFID=R040050
##IDEAL CHEMISTRY=LiAlSi_2_O_6_
##LOCALITY=Minas Gerais, Brazil
##OWNER=RRUFF
##SOURCE=University of Arizona Mineral Museum
##DESCRIPTION=Pale pink fragment of a single crystal, variety kunzite
##STATUS=The identification of this mineral has been confirmed by X-ray diffraction and chemical analysis
##URL=rruff.info/R040050
##MEASURED CHEMISTRY=(Li_0.99_Na_0.01_)Al_1.00_Si_2.00_O_6_
##PIN_ID=L00199
##ORIENTATION=Laser parallel to b* (0 1 0). Fiducial mark perpendicular to laser is parallel to c [0 0 1]
106.7660, 4373.000
108.0020, 4491.000
109.2390, 4475.000
110.4750, 4473.000
111.7110, 4649.000
112.9460, 4733.000
114.1820, 4716.000
115.4170, 4803.000
116.6530, 4896.000
117.8880, 5060.000
119.1230, 5246.000
120.3580, 5342.000
121.5920, 5410.000
122.8270, 5649.000
124.0610, 6011.000
125.2950, 6356.000
126.5290, 6728.000
127.7630, 7219.000
128.9970, 7519.000
130.2300, 7825.000
131.4640, 7429.000
132.6970, 6906.000
133.9300, 6543.000
135.1630, 5958.000
136.3950, 5604.000
137.6280, 5446.000
138.8600, 5403.000
140.0920, 5299.000
141.3240, 5187.000
142.5560, 5228.000
143.7880, 5142.000
145.0190, 5116.000
146.2510, 5134.000
147.4820, 5092.000
148.7130, 5061.000
149.9440, 5151.000
151.1750, 5215.000
152.4050, 5180.000
153.6360, 5146.000
154.8660, 5183.000
156.0960, 5151.000
157.3260, 5133.000
158.5560, 5106.000
159.7850, 5153.000
161.0150, 5184.000
162.2440, 5168.000
163.4730, 5187.000
164.7020, 5255.000
165.9310, 5283.000
167.1590, 5223.000
168.3880, 5296.000
169.6160, 5238.000
170.8440, 5349.000
172.0720, 5347.000
173.3000, 5391.000
174.5280, 5283.000
175.7550, 5378.000
176.9820, 5356.000
178.2100, 5429.000
179.4370, 5503.000
180.6630, 5556.000
181.8900, 5641.000
183.1170, 5700.000
184.3430, 5898.000
185.5690, 6044.000
186.7950, 6169.000
188.0210, 6379.000
189.2470, 6185.000
190.4720, 6219.000
191.6970, 5928.000
192.9230, 5809.000
194.1480, 5778.000
195.3730, 5652.000
196.5970, 5668.000
197.8220, 5603.000
199.0460, 5571.000
200.2700, 5582.000
201.4940, 5512.000
202.7180, 5558.000
203.9420, 5541.000
205.1660, 5541.000
206.3890, 5630.000
207.6120, 5542.000
208.8350, 5636.000
210.0580, 5610.000
211.2810, 5618.000
212.5040, 5642.000
213.7260, 5648.000
214.9480, 5581.000
216.1700, 5641.000
217.3920, 5669.000
218.6140, 5680.000
219.8360, 5660.000
221.0570, 5743.000
222.2790, 5799.000
223.5000, 5816.000
224.7210, 5712.000
225.9410, 5711.000
227.1620, 5752.000
228.3820, 5887.000
229.6030, 5852.000
230.8230, 5785.000
232.0430, 5855.000
233.2630, 5844.000
234.4820, 6008.000
235.7020, 5905.000
236.9210, 5822.000
238.1400, 5868.000
239.3590, 5999.000
240.5780, 6009.000
241.7970, 6041.000
243.0150, 6023.000
244.2340, 6159.000
245.4520, 6233.000
246.6700, 6468.000
247.8880, 6621.000
249.1060, 6634.000
250.3230, 6555.000
251.5400, 6482.000
252.7580, 6500.000
253.9750, 6285.000
255.1920, 6333.000
256.4080, 6252.000
257.6250, 6264.000
258.8410, 6268.000
260.0580, 6136.000
261.2740, 6210.000
262.4900, 6182.000
263.7050, 6122.000
264.9210, 6160.000
266.1360, 6076.000
267.3520, 6179.000
268.5670, 6100.000
269.7820, 6204.000
270.9960, 6170.000
272.2110, 6172.000
273.4250, 6152.000
274.6400, 6154.000
275.8540, 6215.000
277.0680, 6262.000
278.2810, 6265.000
279.4950, 6322.000
280.7090, 6387.000
281.9220, 6385.000
283.1350, 6488.000
284.3480, 6522.000
285.5610, 6660.000
286.7730, 6835.000
287.9860, 6962.000
289.1980, 7081.000
290.4100, 7285.000
291.6220, 7337.000
292.8340, 7572.000
294.0460, 7672.000
295.2570, 7776.000
296.4690, 7766.000
297.6800, 7602.000
298.8910, 7371.000
300.1020, 7101.000
301.3120, 6954.000
302.5230, 6760.000
303.7330, 6683.000
304.9440, 6589.000
306.1540, 6544.000
307.3630, 6449.000
308.5730, 6373.000
309.7830, 6368.000
310.9920, 6461.000
312.2010, 6392.000
313.4100, 6374.000
314.6190, 6420.000
315.8280, 6372.000
317.0370, 6415.000
318.2450, 6392.000
319.4530, 6439.000
320.6610, 6544.000
321.8690, 6491.000
323.0770, 6577.000
324.2850, 6543.000
325.4920, 6740.000
326.6990, 6684.000
327.9060, 6753.000
329.1130, 6757.000
330.3200, 6881.000
331.5270, 6818.000
332.7330, 6843.000
333.9390, 6766.000
335.1450, 6889.000
336.3510, 6771.000
337.5570, 6731.000
338.7630, 6879.000
339.9680, 6950.000
341.1740, 6959.000
342.3790, 7086.000
343.5840, 7414.000
344.7890, 7506.000
345.9930, 7800.000
347.1980, 8222.000
348.4020, 8605.000
349.6060, 9057.000
350.8100, 9737.000
352.0140, 10473.00
353.2180, 11131.00
354.4210, 11684.00
355.6250, 11797.00
356.8280, 11087.00
358.0310, 10329.00
359.2340, 9429.000
360.4360, 8619.000
361.6390, 8077.000
362.8410, 7868.000
364.0430, 7448.000
365.2450, 7423.000
366.4470, 7133.000
367.6490, 7199.000
368.8510, 7141.000
370.0520, 7081.000
371.2530, 7045.000
372.4540, 7071.000
373.6550, 7109.000
374.8560, 7029.000
376.0560, 7050.000
377.2570, 7095.000
378.4570, 6992.000
379.6570, 7108.000
380.8570, 7109.000
382.0570, 7179.000
383.2560, 7190.000
384.4560, 7243.000
385.6550, 7205.000
386.8540, 7165.000
388.0530, 7292.000
389.2520, 7337.000
390.4510, 7274.000
391.6490, 7343.000
392.8470, 7400.000
394.0450, 7339.000
395.2430, 7429.000
396.4410, 7336.000
397.6390, 7289.000
398.8360, 7351.000
400.0340, 7188.000
401.2310, 7204.000
402.4280, 7153.000
403.6250, 7144.000
404.8210, 7238.000
406.0180, 7233.000
407.2140, 7268.000
408.4100, 7267.000
409.6060, 7291.000
410.8020, 7276.000
411.9980, 7357.000
413.1930, 7323.000
414.3890, 7338.000
415.5840, 7453.000
416.7790, 7376.000
417.9740, 7459.000
419.1680, 7421.000
420.3630, 7404.000
421.5570, 7487.000
422.7510, 7479.000
423.9450, 7419.000
425.1390, 7278.000
426.3330, 7503.000
427.5270, 7495.000
428.7200, 7542.000
429.9130, 7580.000
431.1060, 7634.000
432.2990, 7685.000
433.4920, 7728.000
434.6840, 7935.000
435.8770, 7997.000
437.0690, 8036.000
438.2610, 8205.000
439.4530, 8290.000
440.6450, 8412.000
441.8360, 8489.000
443.0280, 8625.000
444.2190, 8515.000
445.4100, 8350.000
446.6010, 8245.000
447.7920, 8192.000
448.9820, 8025.000
450.1730, 7969.000
451.3630, 7827.000
452.5530, 7802.000
453.7430, 7853.000
454.9330, 7691.000
456.1230, 7832.000
457.3120, 7844.000
458.5010, 7767.000
459.6910, 7727.000
460.8800, 7790.000
462.0680, 7701.000
463.2570, 7695.000
464.4460, 7793.000
465.6340, 7758.000
466.8220, 7850.000
468.0100, 7735.000
469.1980, 7749.000
470.3860, 7791.000
471.5730, 7783.000
472.7600, 7910.000
473.9480, 7777.000
475.1350, 7811.000
476.3210, 7813.000
477.5080, 7942.000
478.6950, 7810.000
479.8810, 7891.000
481.0670, 7879.000
482.2530, 7906.000
483.4390, 7952.000
484.6250, 7935.000
485.8100, 8004.000
486.9960, 7898.000
488.1810, 7977.000
489.3660, 7948.000
490.5510, 7966.000
491.7360, 7932.000
492.9200, 7998.000
494.1050, 8025.000
495.2890, 8082.000
496.4730, 8051.000
497.6570, 8119.000
498.8400, 8036.000
500.0240, 8241.000
501.2070, 8097.000
502.3910, 8137.000
503.5740, 8177.000
504.7570, 8283.000
505.9400, 8297.000
507.1220, 8344.000
508.3050, 8316.000
509.4870, 8368.000
510.6690, 8423.000
511.8510, 8358.000
513.0330, 8498.000
514.2140, 8631.000
515.3960, 8650.000
516.5770, 8789.000
517.7580, 8931.000
518.9390, 8920.000
520.1200, 9124.000
521.3010, 9205.000
522.4810, 9272.000
523.6610, 9156.000
524.8420, 9069.000
526.0220, 8897.000
527.2010, 8688.000
528.3810, 8817.000
529.5610, 8677.000
530.7400, 8517.000
531.9190, 8524.000
533.0980, 8622.000
534.2770, 8550.000
535.4560, 8570.000
536.6340, 8544.000
537.8120, 8686.000
538.9910, 8541.000
540.1690, 8621.000
541.3460, 8545.000
542.5240, 8637.000
543.7020, 8449.000
544.8790, 8733.000
546.0560, 8592.000
547.2330, 8677.000
548.4100, 8710.000
549.5870, 8666.000
550.7630, 8749.000
551.9400, 8797.000
553.1160, 8812.000
554.2920, 8630.000
555.4680, 8816.000
556.6440, 8792.000
557.8190, 8680.000
558.9950, 8862.000
560.1700, 8951.000
561.3450, 8819.000
562.5200, 8879.000
563.6950, 8957.000
564.8690, 9023.000
566.0440, 9069.000
567.2180, 9081.000
568.3920, 9116.000
569.5660, 9153.000
570.7400, 9112.000
571.9130, 9224.000
573.0870, 9239.000
574.2600, 9434.000
575.4330, 9441.000
576.6060, 9730.000
577.7790, 9727.000
578.9520, 9763.000
580.1240, 10021.00
581.2960, 10066.00
582.4690, 10149.00
583.6410, 10293.00
584.8120, 10423.00
585.9840, 10536.00
587.1560, 10510.00
588.3270, 10361.00
589.4980, 10188.00
590.6690, 10149.00
591.8400, 10135.00
593.0110, 10010.00
594.1810, 9915.000
595.3510, 9648.000
596.5220, 9676.000
597.6920, 9590.000
598.8610, 9549.000
600.0310, 9510.000
601.2010, 9534.000
602.3700, 9473.000
603.5390, 9588.000
604.7080, 9443.000
605.8770, 9459.000
607.0460, 9474.000
608.2140, 9483.000
609.3830, 9515.000
610.5510, 9536.000
611.7190, 9512.000
612.8870, 9431.000
614.0550, 9514.000
615.2220, 9540.000
616.3900, 9576.000
617.5570, 9527.000
618.7240, 9629.000
619.8910, 9653.000
621.0580, 9662.000
622.2240, 9741.000
623.3910, 9815.000
624.5570, 9641.000
625.7230, 9717.000
626.8890, 9738.000
628.0550, 9824.000
629.2200, 9673.000
630.3860, 9695.000
631.5510, 9780.000
632.7160, 9720.000
633.8810, 9809.000
635.0460, 9742.000
636.2100, 9852.000
637.3750, 9744.000
638.5390, 9874.000
639.7030, 9882.000
640.8670, 9965.000
642.0310, 10038.00
643.1950, 9995.000
644.3580, 10060.00
645.5210, 10122.00
646.6850, 9987.000
647.8480, 10066.00
649.0100, 10015.00
650.1730, 10071.00
651.3350, 10184.00
652.4980, 10184.00
653.6600, 10068.00
654.8220, 10158.00
655.9840, 10110.00
657.1450, 10079.00
658.3070, 10211.00
659.4680, 10240.00
660.6300, 10109.00
661.7910, 10169.00
662.9510, 10344.00
664.1120, 10245.00
665.2730, 10268.00
666.4330, 10209.00
667.5930, 10428.00
668.7530, 10282.00
669.9130, 10295.00
671.0730, 10347.00
672.2320, 10344.00
673.3920, 10466.00
674.5510, 10436.00
675.7100, 10526.00
676.8690, 10555.00
678.0280, 10381.00
679.1860, 10492.00
680.3450, 10605.00
681.5030, 10546.00
682.6610, 10583.00
683.8190, 10756.00
684.9770, 10889.00
686.1340, 10840.00
687.2920, 10879.00
688.4490, 10923.00
689.6060, 11031.00
690.7630, 11077.00
691.9200, 11295.00
693.0760, 11390.00
694.2330, 11643.00
695.3890, 11971.00
696.5450, 12421.00
697.7010, 12564.00
698.8570, 13357.00
700.0130, 13805.00
701.1680, 14699.00
702.3230, 15545.00
703.4780, 16596.00
704.6330, 17752.00
705.7880, 18479.00
706.9430, 19029.00
708.0970, 18671.00
709.2520, 17786.00
710.4060, 16329.00
711.5600, 15033.00
712.7140, 14067.00
713.8670, 13337.00
715.0210, 12713.00
716.1740, 12441.00
717.3270, 12114.00
718.4800, 12050.00
719.6330, 11829.00
720.7860, 11744.00
721.9380, 11587.00
723.0910, 11674.00
724.2430, 11566.00
725.3950, 11612.00
726.5470, 11429.00
727.6980, 11627.00
728.8500, 11476.00
730.0010, 11537.00
731.1530, 11567.00
732.3040, 11553.00
733.4550, 11434.00
734.6050, 11655.00
735.7560, 11565.00
736.9060, 11560.00
738.0560, 11505.00
739.2060, 11623.00
740.3560, 11580.00
741.5060, 11610.00
742.6560, 11651.00
743.8050, 11565.00
744.9540, 11625.00
746.1030, 11654.00
747.2520, 11699.00
748.4010, 11784.00
749.5500, 11685.00
750.6980, 11755.00
751.8460, 11816.00
752.9950, 11815.00
754.1420, 11950.00
755.2900, 11906.00
756.4380, 11892.00
757.5850, 11824.00
758.7330, 11829.00
759.8800, 12019.00
761.0270, 11882.00
762.1730, 11879.00
763.3200, 12065.00
764.4670, 11918.00
765.6130, 12048.00
766.7590, 12114.00
767.9050, 12089.00
769.0510, 12146.00
770.1960, 12059.00
771.3420, 12091.00
772.4870, 12208.00
773.6320, 12265.00
774.7770, 12392.00
775.9220, 12305.00
777.0670, 12339.00
778.2110, 12379.00
779.3560, 12268.00
780.5000, 12279.00
781.6440, 12353.00
782.7880, 12225.00
783.9320, 12501.00
785.0750, 12467.00
786.2180, 12498.00
787.3620, 12408.00
788.5050, 12439.00
789.6480, 12746.00
790.7900, 12507.00
791.9330, 12708.00
793.0750, 12566.00
794.2170, 12478.00
795.3590, 12772.00
796.5010, 12820.00
797.6430, 12733.00
798.7850, 12724.00
799.9260, 12855.00
801.0670, 12840.00
802.2080, 12827.00
803.3490, 12887.00
804.4900, 12903.00
805.6310, 12799.00
806.7710, 13037.00
807.9110, 13103.00
809.0510, 12997.00
810.1910, 13084.00
811.3310, 13135.00
812.4710, 13119.00
813.6100, 13108.00
814.7490, 13250.00
815.8880, 13108.00
817.0270, 13121.00
818.1660, 13286.00
819.3050, 13179.00
820.4430, 13422.00
821.5820, 13373.00
822.7200, 13437.00
823.8580, 13530.00
824.9950, 13313.00
826.1330, 13514.00
827.2710, 13415.00
828.4080, 13485.00
829.5450, 13503.00
830.6820, 13424.00
831.8190, 13546.00
832.9560, 13623.00
834.0920, 13491.00
835.2280, 13673.00
836.3650, 13665.00
837.5010, 13703.00
838.6360, 13731.00
839.7720, 13788.00
840.9080, 13749.00
842.0430, 13967.00
843.1780, 13913.00
844.3130, 13827.00
845.4480, 14171.00
846.5830, 14041.00
847.7170, 13984.00
848.8520, 14057.00
849.9860, 14094.00
851.1200, 14219.00
852.2540, 14223.00
853.3870, 14262.00
854.5210, 14119.00
855.6540, 14311.00
856.7880, 14194.00
857.9210, 14363.00
859.0540, 14270.00
860.1860, 14484.00
861.3190, 14440.00
862.4510, 14287.00
863.5840, 14412.00
864.7160, 14593.00
865.8480, 14605.00
866.9790, 14608.00
868.1110, 14517.00
869.2420, 14673.00
870.3740, 14743.00
871.5050, 14811.00
872.6360, 14852.00
873.7660, 14833.00
874.8970, 14574.00
876.0280, 14848.00
877.1580, 14897.00
878.2880, 14741.00
879.4180, 14886.00
880.5480, 14963.00
881.6770, 15058.00
882.8070, 15136.00
883.9360, 15114.00
885.0650, 15054.00
886.1940, 14968.00
887.3230, 15168.00
888.4520, 15157.00
889.5800, 15191.00
890.7090, 15193.00
891.8370, 15289.00
892.9650, 15164.00
894.0930, 15137.00
895.2200, 15358.00
896.3480, 15431.00
897.4750, 15444.00
898.6020, 15329.00
899.7290, 15542.00
900.8560, 15594.00
901.9830, 15682.00
903.1090, 15493.00
904.2360, 15722.00
905.3620, 15536.00
906.4880, 15742.00
907.6140, 15622.00
908.7400, 15885.00
909.8650, 15716.00
910.9900, 15902.00
912.1160, 15807.00
913.2410, 16047.00
914.3660, 16022.00
915.4900, 15996.00
916.6150, 15979.00
917.7390, 16081.00
918.8640, 15871.00
919.9880, 16071.00
921.1120, 16111.00
922.2350, 16050.00
923.3590, 16268.00
924.4820, 16251.00
925.6060, 16252.00
926.7290, 16249.00
927.8520, 16446.00
928.9740, 16408.00
930.0970, 16445.00
931.2190, 16470.00
932.3420, 16456.00
933.4640, 16531.00
934.5860, 16684.00
935.7080, 16649.00
936.8290, 16740.00
937.9510, 16784.00
939.0720, 16679.00
940.1930, 16754.00
941.3140, 16688.00
942.4350, 16908.00
943.5560, 17091.00
944.6760, 16932.00
945.7960, 17017.00
946.9170, 17193.00
948.0370, 17192.00
949.1560, 17070.00
950.2760, 17303.00
951.3960, 17090.00
952.5150, 17382.00
953.6340, 17253.00
954.7530, 17481.00
955.8720, 17430.00
956.9910, 17457.00
958.1090, 17696.00
959.2280, 17672.00
960.3460, 17570.00
961.4640, 17908.00
962.5820, 18012.00
963.6990, 17976.00
964.8170, 18110.00
965.9340, 18132.00
967.0510, 18148.00
968.1690, 18326.00
969.2850, 18808.00
970.4020, 18934.00
971.5190, 18935.00
972.6350, 19510.00
973.7510, 19580.00
974.8670, 19984.00
975.9830, 20360.00
977.0990, 20333.00
978.2150, 20404.00
979.3300, 20461.00
980.4450, 20346.00
981.5600, 19993.00
982.6750, 19692.00
983.7900, 19480.00
984.9050, 19356.00
986.0190, 19267.00
987.1340, 19269.00
988.2480, 19054.00
989.3620, 18983.00
990.4750, 18926.00
991.5890, 18948.00
992.7020, 19204.00
993.8160, 18886.00
994.9290, 18971.00
996.0420, 18875.00
997.1550, 18980.00
998.2670, 19233.00
999.3800, 19216.00
1000.492, 19189.00
1001.604, 19353.00
1002.716, 19407.00
1003.828, 19394.00
1004.940, 19362.00
1006.051, 19524.00
1007.163, 19524.00
1008.274, 19586.00
1009.385, 19786.00
1010.496, 19858.00
1011.606, 19737.00
1012.717, 19933.00
1013.827, 20092.00
1014.937, 20471.00
1016.047, 20629.00
1017.157, 20825.00
1018.267, 21062.00
1019.377, 21347.00
1020.486, 21218.00
1021.595, 21357.00
1022.704, 21054.00
1023.813, 20931.00
1024.922, 20794.00
1026.030, 20759.00
1027.139, 20474.00
1028.247, 20658.00
1029.355, 20606.00
1030.463, 20437.00
1031.571, 20516.00
1032.678, 20685.00
1033.786, 20527.00
1034.893, 20686.00
1036.000, 20695.00
1037.107, 20581.00
1038.214, 20716.00
1039.321, 20863.00
1040.427, 20832.00
1041.533, 21041.00
1042.639, 21038.00
1043.745, 21140.00
1044.851, 21155.00
1045.957, 21086.00
1047.062, 21120.00
1048.168, 21302.00
1049.273, 21380.00
1050.378, 21303.00
1051.482, 21468.00
1052.587, 21347.00
1053.692, 21717.00
1054.796, 21518.00
1055.900, 21752.00
1057.004, 21632.00
1058.108, 21769.00
1059.212, 21887.00
1060.315, 22007.00
1061.418, 22141.00
1062.522, 22016.00
1063.625, 22501.00
1064.728, 22514.00
1065.830, 22503.00
1066.933, 22890.00
1068.035, 23165.00
1069.137, 23448.00
1070.239, 23867.00
1071.341, 24039.00
1072.443, 24285.00
1073.545, 24454.00
1074.646, 24324.00
1075.747, 24045.00
1076.848, 23646.00
1077.949, 23697.00
1079.050, 23342.00
1080.150, 23223.00
1081.251, 23236.00
1082.351, 23214.00
1083.451, 23264.00
1084.551, 23089.00
1085.651, 23140.00
1086.750, 23358.00
1087.850, 23283.00
1088.949, 23106.00
1090.048, 23537.00
1091.147, 23374.00
1092.246, 23462.00
1093.345, 23420.00
1094.443, 23397.00
1095.541, 23656.00
1096.639, 23674.00
1097.737, 23920.00
1098.835, 23580.00
1099.933, 23812.00
1101.030, 23809.00
1102.128, 23778.00
1103.225, 23988.00
1104.322, 24308.00
1105.419, 24263.00
1106.515, 24056.00
1107.612, 24233.00
1108.708, 24159.00
1109.804, 24301.00
1110.900, 24319.00
1111.996, 24375.00
1113.092, 24337.00
1114.187, 24362.00
1115.283, 24553.00
1116.378, 24575.00
1117.473, 24619.00
1118.568, 24831.00
1119.662, 24913.00
1120.757, 24705.00
1121.851, 25050.00
1122.946, 25022.00
1124.040, 25059.00
1125.134, 24862.00
1126.227, 25254.00
1127.321, 25321.00
1128.414, 25198.00
1129.508, 25383.00
1130.601, 25503.00
1131.693, 25587.00
1132.786, 25437.00
1133.879, 25429.00
1134.971, 25732.00
1136.064, 25695.00
1137.156, 25807.00
1138.248, 25694.00
1139.339, 26065.00
1140.431, 25740.00
1141.522, 25904.00
1142.614, 26004.00
1143.705, 26128.00
1144.796, 26195.00
1145.887, 26246.00
1146.977, 26194.00
1148.068, 26299.00
1149.158, 26319.00
##END=



