##NAMES=Spodumene
##RRUFFID=R040050
##IDEAL CHEMISTRY=LiAlSi_2_O_6_
##LOCALITY=Minas Gerais, Brazil
##OWNER=RRUFF
##SOURCE=University of Arizona Mineral Museum
##DESCRIPTION=Pale pink fragment of a single crystal, variety kunzite
##STATUS=The identification of this mineral has been confirmed by X-ray diffraction and chemical analysis
##URL=rruff.info/R040050
##MEASURED CHEMISTRY=(Li_0.99_Na_0.01_)Al_1.00_Si_2.00_O_6_
##PIN_ID=L00199
##ORIENTATION=Laser parallel to b* (0 1 0). Fiducial mark perpendicular to laser is parallel to c [0 0 1]
106.7660, 2172.000
108.0020, 2235.000
109.2390, 2207.000
110.4750, 2249.000
111.7110, 2351.000
112.9460, 2346.000
114.1820, 2342.000
115.4170, 2340.000
116.6530, 2385.000
117.8880, 2517.000
119.1230, 2539.000
120.3580, 2554.000
121.5920, 2706.000
122.8270, 2698.000
124.0610, 2882.000
125.2950, 3000.000
126.5290, 3168.000
127.7630, 3340.000
128.9970, 3602.000
130.2300, 3590.000
131.4640, 3607.000
132.6970, 3423.000
133.9300, 3141.000
135.1630, 3045.000
136.3950, 2798.000
137.6280, 2742.000
138.8600, 2655.000
140.0920, 2692.000
141.3240, 2652.000
142.5560, 2603.000
143.7880, 2583.000
145.0190, 2569.000
146.2510, 2573.000
147.4820, 2549.000
148.7130, 2586.000
149.9440, 2582.000
151.1750, 2601.000
152.4050, 2581.000
153.6360, 2580.000
154.8660, 2628.000
156.0960, 2621.000
157.3260, 2632.000
158.5560, 2625.000
159.7850, 2655.000
161.0150, 2596.000
162.2440, 2682.000
163.4730, 2556.000
164.7020, 2608.000
165.9310, 2710.000
167.1590, 2699.000
168.3880, 2672.000
169.6160, 2705.000
170.8440, 2648.000
172.0720, 2671.000
173.3000, 2700.000
174.5280, 2625.000
175.7550, 2684.000
176.9820, 2732.000
178.2100, 2781.000
179.4370, 2769.000
180.6630, 2762.000
181.8900, 2843.000
183.1170, 2868.000
184.3430, 2943.000
185.5690, 3040.000
186.7950, 3040.000
188.0210, 3123.000
189.2470, 3094.000
190.4720, 3075.000
191.6970, 3030.000
192.9230, 2940.000
194.1480, 2942.000
195.3730, 2881.000
196.5970, 2818.000
197.8220, 2845.000
199.0460, 2820.000
200.2700, 2783.000
201.4940, 2826.000
202.7180, 2854.000
203.9420, 2790.000
205.1660, 2809.000
206.3890, 2850.000
207.6120, 2869.000
208.8350, 2841.000
210.0580, 2853.000
211.2810, 2844.000
212.5040, 2837.037
213.7260, 2853.000
214.9480, 2831.000
216.1700, 2847.000
217.3920, 2849.000
218.6140, 2837.000
219.8360, 2835.000
221.0570, 2791.000
222.2790, 2879.000
223.5000, 2967.000
224.7210, 2933.000
225.9410, 2916.000
227.1620, 3012.000
228.3820, 3049.000
229.6030, 2950.000
230.8230, 3049.000
232.0430, 3047.000
233.2630, 2987.000
234.4820, 2967.000
235.7020, 3024.000
236.9210, 2977.000
238.1400, 3000.000
239.3590, 3033.000
240.5780, 3057.000
241.7970, 3109.000
243.0150, 3087.000
244.2340, 3185.000
245.4520, 3268.000
246.6700, 3394.000
247.8880, 3396.000
249.1060, 3459.000
250.3230, 3514.000
251.5400, 3340.000
252.7580, 3418.000
253.9750, 3309.000
255.1920, 3235.000
256.4080, 3236.000
257.6250, 3196.000
258.8410, 3249.000
260.0580, 3133.000
261.2740, 3221.000
262.4900, 3157.000
263.7050, 3145.000
264.9210, 3192.000
266.1360, 3176.000
267.3520, 3081.000
268.5670, 3222.000
269.7820, 3182.000
270.9960, 3139.000
272.2110, 3218.000
273.4250, 3159.000
274.6400, 3202.000
275.8540, 3159.000
277.0680, 3221.000
278.2810, 3215.000
279.4950, 3251.000
280.7090, 3355.000
281.9220, 3234.000
283.1350, 3389.000
284.3480, 3324.000
285.5610, 3409.000
286.7730, 3399.000
287.9860, 3444.000
289.1980, 3542.000
290.4100, 3578.000
291.6220, 3696.000
292.8340, 3862.000
294.0460, 3853.000
295.2570, 3914.000
296.4690, 3896.000
297.6800, 3895.000
298.8910, 3843.000
300.1020, 3710.000
301.3120, 3552.000
302.5230, 3552.000
303.7330, 3370.000
304.9440, 3450.000
306.1540, 3405.000
307.3630, 3290.000
308.5730, 3398.000
309.7830, 3405.000
310.9920, 3413.000
312.2010, 3405.000
313.4100, 3400.022
314.6190, 3355.000
315.8280, 3386.000
317.0370, 3371.000
318.2450, 3386.000
319.4530, 3423.000
320.6610, 3421.000
321.8690, 3389.000
323.0770, 3505.000
324.2850, 3448.000
325.4920, 3489.000
326.6990, 3575.000
327.9060, 3526.000
329.1130, 3544.000
330.3200, 3572.000
331.5270, 3566.000
332.7330, 3526.000
333.9390, 3578.000
335.1450, 3522.000
336.3510, 3602.000
337.5570, 3477.000
338.7630, 3610.000
339.9680, 3670.000
341.1740, 3624.000
342.3790, 3768.000
343.5840, 3749.000
344.7890, 3833.000
345.9930, 3949.000
347.1980, 4094.000
348.4020, 4264.000
349.6060, 4512.408
350.8100, 4761.000
352.0140, 5116.000
353.2180, 5404.000
354.4210, 5798.000
355.6250, 5850.000
356.8280, 5700.000
358.0310, 5253.000
359.2340, 4838.000
360.4360, 4442.000
361.6390, 4196.000
362.8410, 4069.000
364.0430, 3976.000
365.2450, 3864.000
366.4470, 3806.000
367.6490, 3770.000
368.8510, 3789.000
370.0520, 3737.000
371.2530, 3752.000
372.4540, 3670.000
373.6550, 3682.699
374.8560, 3725.000
376.0560, 3707.000
377.2570, 3740.000
378.4570, 3812.000
379.6570, 3783.000
380.8570, 3833.000
382.0570, 3854.607
383.2560, 3778.000
384.4560, 3879.000
385.6550, 3850.000
386.8540, 3809.000
388.0530, 3871.000
389.2520, 3920.000
390.4510, 3937.000
391.6490, 3932.000
392.8470, 3994.000
394.0450, 3982.000
395.2430, 3954.000
396.4410, 3973.000
397.6390, 3903.000
398.8360, 3933.000
400.0340, 3975.000
401.2310, 3881.000
402.4280, 3868.000
403.6250, 3916.000
404.8210, 3851.000
406.0180, 3848.000
407.2140, 3989.000
408.4100, 3976.000
409.6060, 3951.000
410.8020, 3936.000
411.9980, 3925.000
413.1930, 3918.000
414.3890, 4037.000
415.5840, 3972.000
416.7790, 4022.000
417.9740, 4097.000
419.1680, 4067.000
420.3630, 4050.000
421.5570, 4006.000
422.7510, 4054.000
423.9450, 4075.000
425.1390, 4060.000
426.3330, 4056.000
427.5270, 4116.000
428.7200, 4075.000
429.9130, 4098.000
431.1060, 4116.000
432.2990, 4169.000
433.4920, 4176.000
434.6840, 4248.000
435.8770, 4337.000
437.0690, 4370.000
438.2610, 4514.000
439.4530, 4518.000
440.6450, 4504.000
441.8360, 4576.000
443.0280, 4509.000
444.2190, 4590.000
445.4100, 4485.000
446.6010, 4485.000
447.7920, 4414.000
448.9820, 4458.000
450.1730, 4434.000
451.3630, 4343.000
452.5530, 4234.000
453.7430, 4171.000
454.9330, 4256.000
456.1230, 4284.000
457.3120, 4218.000
458.5010, 4293.000
459.6910, 4249.000
460.8800, 4332.000
462.0680, 4299.000
463.2570, 4218.000
464.4460, 4299.000
465.6340, 4366.000
466.8220, 4272.000
468.0100, 4305.000
469.1980, 4302.000
470.3860, 4313.000
471.5730, 4270.000
472.7600, 4373.000
473.9480, 4394.000
475.1350, 4339.000
476.3210, 4293.000
477.5080, 4324.000
478.6950, 4336.000
479.8810, 4433.000
481.0670, 4387.000
482.2530, 4422.000
483.4390, 4358.000
484.6250, 4472.000
485.8100, 4436.000
486.9960, 4486.000
488.1810, 4492.000
489.3660, 4490.000
490.5510, 4433.000
491.7360, 4405.000
492.9200, 4513.000
494.1050, 4491.000
495.2890, 4557.000
496.4730, 4546.000
497.6570, 4494.000
498.8400, 4537.000
500.0240, 4531.746
501.2070, 4608.000
502.3910, 4573.000
503.5740, 4594.000
504.7570, 4608.000
505.9400, 4554.000
507.1220, 4638.000
508.3050, 4723.000
509.4870, 4613.000
510.6690, 4808.000
511.8510, 4691.000
513.0330, 4777.000
514.2140, 4789.000
515.3960, 4954.000
516.5770, 4887.000
517.7580, 5000.000
518.9390, 5055.000
520.1200, 5093.000
521.3010, 5222.000
522.4810, 5200.000
523.6610, 5081.000
524.8420, 5077.000
526.0220, 5106.000
527.2010, 5084.000
528.3810, 4988.000
529.5610, 4992.000
530.7400, 4903.000
531.9190, 4847.000
533.0980, 4859.000
534.2770, 4897.000
535.4560, 4915.000
536.6340, 4905.000
537.8120, 4916.000
538.9910, 4899.000
540.1690, 4950.000
541.3460, 4948.000
542.5240, 4905.000
543.7020, 4945.000
544.8790, 4867.000
546.0560, 4918.000
547.2330, 5043.000
548.4100, 4940.000
549.5870, 4993.000
550.7630, 4990.000
551.9400, 5096.000
553.1160, 4998.000
554.2920, 5045.000
555.4680, 5034.000
556.6440, 5056.000
557.8190, 5149.000
558.9950, 5162.000
560.1700, 5055.000
561.3450, 5148.000
562.5200, 5150.000
563.6950, 5209.000
564.8690, 5231.000
566.0440, 5266.000
567.2180, 5224.000
568.3920, 5282.000
569.5660, 5292.000
570.7400, 5312.000
571.9130, 5403.000
573.0870, 5309.000
574.2600, 5417.000
575.4330, 5464.000
576.6060, 5387.000
577.7790, 5624.000
578.9520, 5690.000
580.1240, 5662.000
581.2960, 5762.000
582.4690, 5792.000
583.6410, 5722.000
584.8120, 5800.000
585.9840, 5934.000
587.1560, 5985.000
588.3270, 5907.000
589.4980, 5945.000
590.6690, 5853.000
591.8400, 5930.000
593.0110, 5773.000
594.1810, 5744.000
595.3510, 5646.000
596.5220, 5640.000
597.6920, 5668.000
598.8610, 5634.000
600.0310, 5561.000
601.2010, 5578.000
602.3700, 5569.000
603.5390, 5648.000
604.7080, 5689.000
605.8770, 5632.000
607.0460, 5628.000
608.2140, 5564.000
609.3830, 5701.000
610.5510, 5704.000
611.7190, 5710.000
612.8870, 5717.000
614.0550, 5697.000
615.2220, 5719.000
616.3900, 5700.000
617.5570, 5754.000
618.7240, 5763.000
619.8910, 5764.000
621.0580, 5850.000
622.2240, 5861.000
623.3910, 5887.000
624.5570, 5911.902
625.7230, 5874.000
626.8890, 5922.000
628.0550, 5849.000
629.2200, 5838.000
630.3860, 5954.000
631.5510, 5886.000
632.7160, 5940.000
633.8810, 5884.000
635.0460, 5985.000
636.2100, 5907.000
637.3750, 6010.000
638.5390, 6062.000
639.7030, 5973.000
640.8670, 5989.000
642.0310, 6142.000
643.1950, 6032.000
644.3580, 6108.000
645.5210, 6119.000
646.6850, 6098.000
647.8480, 6046.000
649.0100, 6091.000
650.1730, 6188.000
651.3350, 6094.000
652.4980, 6183.000
653.6600, 6265.000
654.8220, 6196.000
655.9840, 6299.000
657.1450, 6230.000
658.3070, 6269.000
659.4680, 6251.000
660.6300, 6260.000
661.7910, 6316.000
662.9510, 6280.000
664.1120, 6275.000
665.2730, 6303.000
666.4330, 6318.000
667.5930, 6380.000
668.7530, 6367.000
669.9130, 6415.000
671.0730, 6435.000
672.2320, 6468.000
673.3920, 6476.032
674.5510, 6464.000
675.7100, 6507.000
676.8690, 6518.000
678.0280, 6592.000
679.1860, 6533.000
680.3450, 6460.000
681.5030, 6671.000
682.6610, 6701.000
683.8190, 6609.000
684.9770, 6639.000
686.1340, 6762.000
687.2920, 6777.000
688.4490, 6802.000
689.6060, 6840.000
690.7630, 6944.000
691.9200, 6913.000
693.0760, 7143.000
694.2330, 7109.000
695.3890, 7326.000
696.5450, 7438.000
697.7010, 7569.000
698.8570, 7745.000
700.0130, 8097.000
701.1680, 8467.000
702.3230, 8789.000
703.4780, 9383.000
704.6330, 9891.000
705.7880, 10383.00
706.9430, 10704.00
708.0970, 10636.00
709.2520, 10271.00
710.4060, 9686.000
711.5600, 9075.000
712.7140, 8630.000
713.8670, 8125.000
715.0210, 7894.000
716.1740, 7687.000
717.3270, 7634.000
718.4800, 7466.000
719.6330, 7423.000
720.7860, 7365.057
721.9380, 7540.000
723.0910, 7331.000
724.2430, 7359.000
725.3950, 7429.000
726.5470, 7357.000
727.6980, 7421.000
728.8500, 7449.000
730.0010, 7389.000
731.1530, 7388.000
732.3040, 7385.000
733.4550, 7381.000
734.6050, 7412.000
735.7560, 7399.000
736.9060, 7430.000
738.0560, 7489.000
739.2060, 7479.000
740.3560, 7442.000
741.5060, 7352.000
742.6560, 7579.000
743.8050, 7534.000
744.9540, 7472.000
746.1030, 7683.000
747.2520, 7613.000
748.4010, 7630.000
749.5500, 7637.000
750.6980, 7703.000
751.8460, 7695.000
752.9950, 7730.000
754.1420, 7808.000
755.2900, 7778.000
756.4380, 7845.000
757.5850, 7854.222
758.7330, 7878.564
759.8800, 7856.000
761.0270, 7913.000
762.1730, 7861.000
763.3200, 7817.000
764.4670, 7914.000
765.6130, 7879.979
766.7590, 7899.000
767.9050, 7936.000
769.0510, 8013.000
770.1960, 8071.000
771.3420, 8100.000
772.4870, 8112.000
773.6320, 8047.000
774.7770, 8194.000
775.9220, 8180.000
777.0670, 8039.000
778.2110, 8161.000
779.3560, 8226.000
780.5000, 8249.000
781.6440, 8244.000
782.7880, 8294.000
783.9320, 8279.000
785.0750, 8200.000
786.2180, 8441.000
787.3620, 8234.000
788.5050, 8445.000
789.6480, 8443.000
790.7900, 8447.000
791.9330, 8305.000
793.0750, 8478.000
794.2170, 8427.000
795.3590, 8442.000
796.5010, 8552.000
797.6430, 8435.000
798.7850, 8563.000
799.9260, 8618.000
801.0670, 8614.000
802.2080, 8591.000
803.3490, 8630.119
804.4900, 8638.076
805.6310, 8656.000
806.7710, 8724.000
807.9110, 8720.000
809.0510, 8822.000
810.1910, 8750.000
811.3310, 8745.000
812.4710, 8911.000
813.6100, 8898.000
814.7490, 8898.000
815.8880, 8949.000
817.0270, 9093.000
818.1660, 9007.000
819.3050, 8978.000
820.4430, 9088.000
821.5820, 8985.000
822.7200, 8997.000
823.8580, 9116.000
824.9950, 9157.000
826.1330, 9184.000
827.2710, 9191.000
828.4080, 9226.000
829.5450, 9268.000
830.6820, 9213.000
831.8190, 9232.000
832.9560, 9309.000
834.0920, 9359.000
835.2280, 9412.000
836.3650, 9313.000
837.5010, 9462.000
838.6360, 9406.000
839.7720, 9505.000
840.9080, 9497.000
842.0430, 9547.000
843.1780, 9678.000
844.3130, 9461.000
845.4480, 9621.000
846.5830, 9620.000
847.7170, 9712.000
848.8520, 9707.000
849.9860, 9812.000
851.1200, 9773.000
852.2540, 9972.000
853.3870, 9822.000
854.5210, 10006.00
855.6540, 9870.000
856.7880, 9908.000
857.9210, 10093.00
859.0540, 10024.00
860.1860, 10062.00
861.3190, 10136.00
862.4510, 10038.00
863.5840, 10179.00
864.7160, 10049.00
865.8480, 10207.00
866.9790, 10187.00
868.1110, 10210.00
869.2420, 10280.00
870.3740, 10254.00
871.5050, 10318.00
872.6360, 10356.88
873.7660, 10330.00
874.8970, 10447.00
876.0280, 10480.00
877.1580, 10509.41
878.2880, 10436.00
879.4180, 10483.00
880.5480, 10534.00
881.6770, 10466.00
882.8070, 10733.00
883.9360, 10627.00
885.0650, 10705.00
886.1940, 10769.00
887.3230, 10714.00
888.4520, 10848.00
889.5800, 10724.00
890.7090, 10822.00
891.8370, 10958.00
892.9650, 10808.00
894.0930, 10976.00
895.2200, 10901.00
896.3480, 11009.00
897.4750, 11106.00
898.6020, 11093.00
899.7290, 11034.00
900.8560, 11150.00
901.9830, 11172.00
903.1090, 11030.00
904.2360, 11229.00
905.3620, 11165.00
906.4880, 11209.00
907.6140, 11290.00
908.7400, 11353.00
909.8650, 11349.00
910.9900, 11388.00
912.1160, 11366.00
913.2410, 11285.00
914.3660, 11445.00
915.4900, 11411.00
916.6150, 11548.00
917.7390, 11498.00
918.8640, 11712.00
919.9880, 11638.00
921.1120, 11651.00
922.2350, 11591.00
923.3590, 11761.00
924.4820, 11695.00
925.6060, 11607.00
926.7290, 11832.00
927.8520, 11780.00
928.9740, 11935.00
930.0970, 12015.00
931.2190, 12131.00
932.3420, 12123.00
933.4640, 12029.00
934.5860, 11997.00
935.7080, 12074.00
936.8290, 12114.00
937.9510, 12188.00
939.0720, 12239.00
940.1930, 12282.00
941.3140, 12342.00
942.4350, 12373.00
943.5560, 12397.00
944.6760, 12367.00
945.7960, 12462.00
946.9170, 12577.00
948.0370, 12583.00
949.1560, 12518.00
950.2760, 12785.00
951.3960, 12730.00
952.5150, 12810.00
953.6340, 12692.00
954.7530, 12726.00
955.8720, 12734.46
956.9910, 12859.00
958.1090, 12838.00
959.2280, 12907.00
960.3460, 13122.00
961.4640, 13158.00
962.5820, 13198.00
963.6990, 13181.00
964.8170, 13263.00
965.9340, 13321.00
967.0510, 13427.00
968.1690, 13556.00
969.2850, 13611.38
970.4020, 13572.00
971.5190, 13800.00
972.6350, 13880.00
973.7510, 14064.00
974.8670, 14425.00
975.9830, 14394.00
977.0990, 14488.00
978.2150, 14424.00
979.3300, 14625.00
980.4450, 14564.00
981.5600, 14519.00
982.6750, 14303.00
983.7900, 14348.00
984.9050, 14150.00
986.0190, 14202.00
987.1340, 14069.00
988.2480, 14151.00
989.3620, 14246.00
990.4750, 14171.00
991.5890, 14205.00
992.7020, 14097.00
993.8160, 14222.00
994.9290, 14309.00
996.0420, 14304.00
997.1550, 14216.00
998.2670, 14256.00
999.3800, 14390.00
1000.492, 14361.00
1001.604, 14543.00
1002.716, 14425.00
1003.828, 14605.00
1004.940, 14524.00
1006.051, 14650.00
1007.163, 14652.00
1008.274, 14737.00
1009.385, 14866.00
1010.496, 14833.00
1011.606, 15060.00
1012.717, 15090.00
1013.827, 14957.00
1014.937, 15065.00
1016.047, 15296.00
1017.157, 15518.00
1018.267, 15563.00
1019.377, 15607.00
1020.486, 15714.00
1021.595, 15794.00
1022.704, 15685.00
1023.813, 15715.00
1024.922, 15647.00
1026.030, 15597.00
1027.139, 15548.00
1028.247, 15538.00
1029.355, 15559.00
1030.463, 15609.00
1031.571, 15640.00
1032.678, 15808.00
1033.786, 15770.00
1034.893, 15725.00
1036.000, 15777.00
1037.107, 15656.00
1038.214, 15901.00
1039.321, 16004.00
1040.427, 16053.00
1041.533, 16094.00
1042.639, 16185.00
1043.745, 16212.00
1044.851, 16178.00
1045.957, 16154.00
1047.062, 16203.00
1048.168, 16311.00
1049.273, 16398.00
1050.378, 16303.00
1051.482, 16565.00
1052.587, 16687.00
1053.692, 16536.00
1054.796, 16707.00
1055.900, 16797.00
1057.004, 16836.00
1058.108, 16891.00
1059.212, 16969.00
1060.315, 17092.00
1061.418, 17035.00
1062.522, 17244.00
1063.625, 17051.00
1064.728, 17369.00
1065.830, 17448.00
1066.933, 17737.00
1068.035, 17681.00
1069.137, 17755.00
1070.239, 18077.00
1071.341, 18168.00
1072.443, 18317.00
1073.545, 18482.00
1074.646, 18238.00
1075.747, 18357.00
1076.848, 18308.00
1077.949, 18137.00
1079.050, 18059.00
1080.150, 18033.00
1081.251, 18034.21
1082.351, 18055.00
1083.451, 18141.00
1084.551, 18146.00
1085.651, 18160.00
1086.750, 18118.00
1087.850, 18202.95
1088.949, 18260.00
1090.048, 18358.00
1091.147, 18385.00
1092.246, 18464.00
1093.345, 18318.00
1094.443, 18535.00
1095.541, 18468.00
1096.639, 18625.00
1097.737, 18477.00
1098.835, 18817.00
1099.933, 18913.00
1101.030, 18791.00
1102.128, 18808.00
1103.225, 18817.00
1104.322, 18933.00
1105.419, 19001.00
1106.515, 19066.00
1107.612, 19009.00
1108.708, 19293.00
1109.804, 19121.00
1110.900, 19315.00
1111.996, 19285.00
1113.092, 19337.00
1114.187, 19322.00
1115.283, 19422.00
1116.378, 19509.00
1117.473, 19362.00
1118.568, 19591.00
1119.662, 19733.00
1120.757, 19691.00
1121.851, 19957.00
1122.946, 19812.00
1124.040, 19906.00
1125.134, 19877.00
1126.227, 19985.00
1127.321, 20022.00
##END=



