##NAMES=Stellerite
##RRUFFID=R040174
##IDEAL CHEMISTRY=Ca_4_(Si_28_Al_8_)O_72_&#183;28H_2_O
##LOCALITY=unknown
##OWNER=RRUFF
##SOURCE=University of Arizona Mineral Museum
##DESCRIPTION=Parallel aggregates of thin tabular brown crystals
##STATUS=The identification of this mineral has been confirmed by X-ray diffraction and chemical analysis
##URL=rruff.info/R040174
##MEASURED CHEMISTRY=(Ca_3.89_Na_0.06_K_0.05_)_Σ=4_(Si_28.11_Al_7.89_)O_72_·15.18H_2_O; H_2_O estimated by difference
##PIN_ID=M00319
##ORIENTATION=Laser parallel to c* (0 0 1). Fiducial mark perpendicular to laser is parallel to -b [0 -1 0]
83.453, 23150.000
84.865, 23400.000
86.276, 23640.000
87.687, 23980.000
89.098, 24130.000
90.508, 24570.000
91.918, 25110.000
93.328, 25680.000
94.738, 26220.000
96.147, 26470.000
97.556, 26920.000
98.964, 26720.000
100.373, 27020.000
101.781, 27150.000
103.188, 27440.000
104.596, 27420.000
106.003, 27460.000
107.410, 27970.000
108.817, 28210.000
110.223, 28810.000
111.629, 28850.000
113.035, 29760.000
114.440, 30470.000
115.845, 30920.000
117.250, 31110.000
118.655, 31780.000
120.059, 33150.000
121.463, 32733.834
122.867, 32901.516
124.270, 32330.000
125.673, 31960.000
127.076, 31450.000
128.479, 30720.000
129.881, 30940.000
131.283, 30000.000
132.685, 29860.000
134.086, 29220.000
135.487, 28800.000
136.888, 28300.000
138.288, 27650.000
139.689, 27360.000
141.089, 26780.000
142.488, 26730.000
143.888, 26040.000
145.287, 25640.000
146.686, 25460.000
148.084, 25080.000
149.482, 25060.000
150.880, 24560.000
152.278, 24600.000
153.675, 24050.000
155.072, 24120.000
156.469, 23940.000
157.866, 23430.000
159.262, 23460.000
160.658, 22660.000
162.054, 22650.000
163.449, 22210.000
164.844, 21930.000
166.239, 21630.000
167.633, 21060.000
169.028, 21030.000
170.422, 20430.000
171.815, 20350.000
173.209, 20010.000
174.602, 19662.180
175.994, 19580.000
177.387, 19010.000
178.779, 18920.000
180.171, 18520.000
181.563, 18540.000
182.954, 18140.000
184.345, 17900.000
185.736, 17640.000
187.127, 17420.000
188.517, 17380.000
189.907, 17070.000
191.296, 17050.000
192.686, 16630.000
194.075, 16550.000
195.464, 16540.000
196.852, 16060.000
198.240, 16070.000
199.628, 15810.000
201.016, 15950.000
202.403, 15550.000
203.790, 15520.000
205.177, 15570.000
206.564, 15200.000
207.950, 15330.000
209.336, 15020.000
210.722, 15020.000
212.107, 15130.000
213.492, 14912.084
214.877, 14890.000
216.262, 14690.000
217.646, 14850.000
219.030, 14720.000
220.414, 14900.000
221.797, 14840.000
223.180, 14740.000
224.563, 14880.000
225.946, 14640.000
227.328, 14760.000
228.710, 14650.000
230.092, 14590.000
231.473, 14790.000
232.854, 14710.000
234.235, 14860.000
235.616, 14720.000
236.996, 14770.000
238.376, 14830.000
239.756, 14760.000
241.135, 14940.000
242.514, 14960.000
243.893, 15130.000
245.272, 15080.000
246.650, 15130.000
248.028, 15400.000
249.406, 15370.000
250.783, 15690.000
252.161, 15500.000
253.538, 15830.000
254.914, 15900.000
256.291, 15990.000
257.667, 16120.000
259.043, 15930.000
260.418, 16320.000
261.793, 16190.000
263.168, 16610.000
264.543, 16640.000
265.917, 16830.000
267.291, 17160.000
268.665, 17030.000
270.039, 17490.000
271.412, 17550.000
272.785, 17860.000
274.158, 18210.000
275.530, 18440.000
276.902, 18950.000
278.274, 18730.000
279.646, 19200.000
281.017, 19040.000
282.388, 19400.000
283.759, 19470.000
285.130, 19370.000
286.500, 19470.000
287.870, 19030.000
289.239, 19020.000
290.609, 18930.000
291.978, 18530.000
293.347, 18530.000
294.715, 17900.000
296.083, 18000.000
297.451, 17530.000
298.819, 17350.000
300.186, 17140.000
301.554, 16780.000
302.920, 16780.000
304.287, 16400.000
305.653, 16230.000
307.019, 16060.000
308.385, 15860.000
309.751, 15980.000
311.116, 15590.000
312.481, 15750.000
313.845, 15450.000
315.210, 15520.000
316.574, 15470.000
317.937, 15330.000
319.301, 15510.000
320.664, 15200.000
322.027, 15410.000
323.390, 15220.000
324.752, 15410.000
326.114, 15340.000
327.476, 15150.000
328.838, 15310.000
330.199, 15150.000
331.560, 15350.000
332.921, 15080.000
334.281, 15110.000
335.642, 15130.000
337.002, 14840.000
338.361, 14960.000
339.721, 14890.000
341.080, 14850.000
342.438, 14740.000
343.797, 14770.000
345.155, 14900.000
346.513, 14530.000
347.871, 14670.000
349.228, 14820.000
350.586, 14640.000
351.942, 14990.000
353.299, 14770.000
354.655, 15050.000
356.011, 14950.000
357.367, 15140.000
358.723, 15420.000
360.078, 15340.000
361.433, 15740.000
362.788, 15710.000
364.142, 16020.000
365.496, 16230.000
366.850, 16360.000
368.204, 16890.000
369.557, 16870.000
370.910, 17410.000
372.263, 17580.000
373.615, 18140.000
374.967, 18610.000
376.319, 18970.000
377.671, 19820.000
379.022, 19980.000
380.374, 20750.000
381.724, 21350.000
383.075, 22150.000
384.425, 22840.000
385.775, 23490.000
387.125, 24640.000
388.474, 25190.000
389.824, 26540.000
391.173, 27810.000
392.521, 28510.000
393.870, 30690.000
395.218, 31850.000
396.566, 34030.000
397.913, 35660.000
399.260, 37720.000
400.607, 40840.000
401.954, 42530.000
403.301, 46130.000
404.647, 48500.000
405.993, 51030.000
407.338, 53920.000
408.684, 55450.000
410.029, 58290.000
411.374, 57890.000
412.718, 58690.000
414.063, 58120.000
415.407, 55630.000
416.750, 54960.000
418.094, 51750.000
419.437, 50120.000
420.780, 46700.000
422.123, 44460.000
423.465, 42590.000
424.807, 39150.000
426.149, 38270.000
427.491, 35420.000
428.832, 33970.000
430.173, 32440.000
431.514, 30400.000
432.854, 29790.000
434.194, 28060.000
435.534, 27420.000
436.874, 26300.000
438.213, 25220.000
439.552, 24990.000
440.891, 23910.000
442.230, 23600.000
443.568, 23160.000
444.906, 22680.000
446.244, 22640.000
447.582, 22100.000
448.919, 22400.000
450.256, 21930.000
451.592, 22180.000
452.929, 22500.000
454.265, 22250.000
455.601, 23180.000
456.937, 23070.000
458.272, 23700.000
459.607, 23980.000
460.942, 23720.000
462.276, 24620.000
463.611, 24060.000
464.945, 24360.000
466.278, 23770.000
467.612, 23170.000
468.945, 22640.000
470.278, 21550.000
471.611, 21070.000
472.943, 20290.000
474.275, 19680.000
475.607, 19350.000
476.939, 18470.000
478.270, 18230.000
479.601, 17710.000
480.932, 17940.000
482.262, 17980.000
483.592, 18430.000
484.922, 18840.000
486.252, 18740.000
487.582, 19880.000
488.911, 20580.000
490.240, 21600.000
491.568, 23850.000
492.897, 24860.000
494.225, 27740.000
495.553, 30080.000
496.880, 32460.000
498.207, 34600.000
499.534, 35360.000
500.861, 35469.402
502.188, 34860.000
503.514, 33030.000
504.840, 30650.000
506.166, 27230.000
507.491, 25180.000
508.816, 22260.000
510.141, 20380.000
511.466, 18680.000
512.790, 17120.000
514.114, 16220.000
515.438, 14950.000
516.761, 14510.000
518.085, 13780.000
519.408, 13280.000
520.731, 12990.000
522.053, 12470.000
523.375, 12290.000
524.697, 11990.000
526.019, 11880.000
527.340, 11730.000
528.662, 11440.000
529.982, 11490.000
531.303, 11250.000
532.623, 11200.000
533.944, 11090.000
535.263, 10920.000
536.583, 11050.000
537.902, 10730.000
539.221, 10760.000
540.540, 10640.000
541.859, 10500.000
543.177, 10630.000
544.495, 10430.000
545.812, 10420.000
547.130, 10350.000
548.447, 10310.000
549.764, 10320.214
551.081, 10280.000
552.397, 10330.000
553.713, 10380.000
555.029, 10360.000
556.345, 10450.000
557.660, 10420.000
558.975, 10490.000
560.290, 10450.000
561.604, 10510.000
562.919, 10500.000
564.233, 10290.000
565.546, 10360.000
566.860, 10230.000
568.173, 10170.000
569.486, 10190.000
570.799, 10030.000
572.111, 10080.000
573.423, 10110.000
574.735, 10050.000
576.047, 9968.000
577.358, 9920.000
578.669, 9969.000
579.980, 9901.000
581.291, 9866.000
582.601, 9945.000
583.911, 9788.000
585.221, 9917.000
586.531, 9849.000
587.840, 9905.000
589.149, 9879.000
590.458, 9832.000
591.766, 10070.000
593.074, 9839.000
594.382, 10050.000
595.690, 10060.000
596.998, 9969.000
598.305, 10100.000
599.612, 10080.000
600.918, 10290.000
602.225, 10370.000
603.531, 10360.000
604.837, 10590.000
606.142, 10500.000
607.448, 10810.000
608.753, 10940.000
610.058, 10920.000
611.362, 11330.000
612.666, 11230.000
613.970, 11560.000
615.274, 11560.000
616.578, 11580.000
617.881, 11690.000
619.184, 11780.000
620.487, 12070.000
621.789, 11980.000
623.091, 12000.000
624.393, 12150.000
625.695, 11740.000
626.997, 12020.000
628.298, 11720.000
629.599, 11740.000
630.899, 11700.000
632.200, 11520.000
633.500, 11490.000
634.800, 11180.000
636.099, 11110.000
637.399, 10920.000
638.698, 10760.000
639.997, 10740.000
641.295, 10510.000
642.593, 10380.000
643.892, 10310.000
645.189, 10060.000
646.487, 10060.000
647.784, 9954.000
649.081, 9898.000
650.378, 9845.000
651.674, 9577.000
652.971, 9687.000
654.267, 9494.000
655.562, 9408.000
656.858, 9382.000
658.153, 9210.000
659.448, 9362.000
660.743, 9102.000
662.037, 9094.000
663.331, 9117.000
664.625, 8984.000
665.919, 9046.000
667.212, 8894.000
668.505, 8870.000
669.798, 8889.000
671.091, 8854.000
672.383, 8865.000
673.675, 8835.000
674.967, 8750.000
676.259, 8725.000
677.550, 8722.000
678.841, 8754.000
680.132, 8659.000
681.423, 8677.000
682.713, 8619.000
684.003, 8585.000
685.293, 8572.000
686.582, 8561.000
687.871, 8486.000
689.161, 8530.000
690.449, 8517.000
691.738, 8562.000
693.026, 8531.793
694.314, 8578.000
695.602, 8508.000
696.889, 8427.000
698.176, 8488.000
699.463, 8399.000
700.750, 8445.000
702.037, 8509.000
703.323, 8404.000
704.609, 8574.000
705.894, 8426.000
707.180, 8527.000
708.465, 8484.000
709.750, 8369.000
711.035, 8498.000
712.319, 8478.000
713.603, 8526.000
714.887, 8448.000
716.171, 8558.000
717.454, 8566.000
718.737, 8516.000
720.020, 8586.000
721.303, 8493.000
722.585, 8493.000
723.867, 8640.000
725.149, 8512.000
726.431, 8509.000
727.712, 8586.000
728.993, 8459.000
730.274, 8500.000
731.554, 8461.000
732.835, 8530.000
734.115, 8425.000
735.395, 8470.000
736.674, 8390.000
737.953, 8460.000
739.232, 8407.000
740.511, 8360.000
741.790, 8399.000
743.068, 8401.000
744.346, 8294.000
745.624, 8307.000
746.901, 8345.000
748.179, 8291.148
749.456, 8322.000
750.732, 8274.000
752.009, 8265.000
753.285, 8276.000
754.561, 8258.000
755.837, 8317.000
757.112, 8224.000
758.388, 8204.000
759.663, 8200.000
760.937, 8108.000
762.212, 8170.000
763.486, 8196.000
764.760, 8167.000
766.034, 8228.000
767.307, 8147.000
768.580, 8251.000
769.853, 8192.000
771.126, 8200.000
772.399, 8194.000
773.671, 8210.000
774.943, 8256.000
776.214, 8268.000
777.486, 8188.000
778.757, 8215.000
780.028, 8252.000
781.299, 8300.000
782.569, 8224.000
783.839, 8182.000
785.109, 8306.000
786.379, 8224.000
787.648, 8248.000
788.918, 8274.000
790.187, 8219.000
791.455, 8216.000
792.724, 8186.000
793.992, 8202.000
795.260, 8167.000
796.527, 8093.000
797.795, 8210.000
799.062, 8116.000
800.329, 8143.000
801.596, 8100.000
802.862, 8031.000
804.128, 8140.000
805.394, 8066.000
806.660, 8023.000
807.925, 8082.000
809.190, 7901.000
810.455, 7891.000
811.720, 7902.000
812.984, 7785.000
814.248, 7684.000
815.512, 7638.000
816.776, 7632.000
818.039, 7571.000
819.303, 7443.000
820.566, 7481.000
821.828, 7375.000
823.091, 7373.000
824.353, 7343.000
825.615, 7271.000
826.876, 7312.000
828.138, 7292.000
829.399, 7244.000
830.660, 7327.000
831.920, 7250.000
833.181, 7252.000
834.441, 7230.000
835.701, 7156.000
836.961, 7168.000
838.220, 7146.000
839.479, 7097.000
840.738, 7112.000
841.997, 7091.000
843.255, 7086.000
844.513, 7074.000
845.771, 7109.000
847.029, 7057.000
848.286, 7105.000
849.544, 7145.000
850.801, 7097.000
852.057, 7040.000
853.314, 7107.000
854.570, 7110.000
855.826, 7032.000
857.081, 7108.000
858.337, 7062.000
859.592, 7011.000
860.847, 7089.000
862.102, 7109.000
863.356, 7033.000
864.610, 6974.000
865.864, 6987.000
867.118, 7025.000
868.371, 6953.000
869.625, 6997.000
870.878, 7163.000
872.130, 7033.000
873.383, 7050.000
874.635, 7006.000
875.887, 6951.000
877.139, 6960.000
878.390, 7044.000
879.641, 6991.000
880.892, 7020.000
882.143, 7009.000
883.394, 6987.000
884.644, 7007.000
885.894, 6995.000
887.144, 7017.000
888.393, 7045.000
889.642, 6990.000
890.891, 7018.000
892.140, 6932.000
893.389, 7007.000
894.637, 7063.000
895.885, 7006.000
897.133, 7066.000
898.380, 7113.000
899.628, 7087.634
900.875, 7115.324
902.122, 7077.000
903.368, 7082.000
904.614, 7063.000
905.860, 7058.626
907.106, 7055.000
908.352, 7046.000
909.597, 7037.932
910.842, 7017.000
912.087, 7020.000
913.332, 7009.000
914.576, 7006.000
915.820, 6952.000
917.064, 7015.000
918.308, 7093.000
919.551, 7033.000
920.794, 7066.000
922.037, 7004.000
923.280, 7072.000
924.522, 6976.000
925.764, 7139.000
927.006, 7033.000
928.248, 7057.000
929.489, 6977.000
930.730, 7045.000
931.971, 7009.000
933.212, 7086.000
934.452, 7020.000
935.693, 6934.000
936.932, 7018.000
938.172, 6978.000
939.412, 7079.000
940.651, 7008.000
941.890, 6991.000
943.129, 7014.000
944.367, 6968.000
945.605, 6961.000
946.843, 6988.000
948.081, 7100.000
949.319, 7028.000
950.556, 7018.000
951.793, 7070.000
953.030, 6998.000
954.266, 7036.000
955.502, 7033.000
956.739, 7051.000
957.974, 7029.000
959.210, 7049.000
960.445, 7115.000
961.680, 7040.000
962.915, 7097.000
964.150, 7113.000
965.384, 7076.000
966.618, 7047.000
967.852, 7147.000
969.086, 7164.000
970.319, 7104.000
971.552, 7141.000
972.785, 7086.000
974.018, 7188.000
975.250, 7137.000
976.482, 7273.000
977.714, 7209.000
978.946, 7258.000
980.177, 7230.000
981.409, 7358.000
982.640, 7363.000
983.870, 7330.000
985.101, 7414.000
986.331, 7389.000
987.561, 7466.000
988.791, 7518.000
990.020, 7488.000
991.250, 7647.000
992.479, 7664.000
993.707, 7680.000
994.936, 7737.000
996.164, 7679.000
997.392, 7797.000
998.620, 7686.000
999.848, 7784.000
1001.075, 7779.000
1002.302, 7913.000
1003.529, 7964.000
1004.756, 7973.000
1005.982, 7978.000
1007.208, 8028.000
1008.434, 8076.000
1009.660, 8082.000
1010.885, 8048.000
1012.111, 8071.000
1013.336, 8116.000
1014.560, 8142.000
1015.785, 8213.000
1017.009, 8178.000
1018.233, 8179.000
1019.457, 8157.000
1020.680, 8216.000
1021.903, 8252.000
1023.127, 8247.000
1024.349, 8282.000
1025.572, 8369.000
1026.794, 8275.000
1028.016, 8503.000
1029.238, 8380.000
1030.460, 8434.000
1031.681, 8461.000
1032.902, 8503.000
1034.123, 8478.000
1035.344, 8468.000
1036.564, 8377.000
1037.784, 8557.000
1039.004, 8439.000
1040.224, 8550.000
1041.443, 8585.000
1042.663, 8469.000
1043.881, 8570.000
1045.100, 8481.000
1046.319, 8614.000
1047.537, 8540.000
1048.755, 8470.000
1049.973, 8532.000
1051.190, 8574.000
1052.408, 8536.000
1053.625, 8524.000
1054.842, 8509.000
1056.058, 8522.000
1057.274, 8520.000
1058.491, 8446.000
1059.706, 8562.000
1060.922, 8427.000
1062.138, 8546.000
1063.353, 8612.000
1064.568, 8537.000
1065.782, 8521.000
1066.997, 8526.000
1068.211, 8608.000
1069.425, 8666.000
1070.639, 8730.000
1071.852, 8792.847
1073.065, 8765.000
1074.279, 8900.000
1075.491, 8922.000
1076.704, 8955.000
1077.916, 9179.000
1079.128, 9292.000
1080.340, 9364.000
1081.552, 9432.000
1082.763, 9619.000
1083.974, 9710.000
1085.185, 9922.000
1086.396, 9950.000
1087.606, 10310.000
1088.816, 10370.000
1090.026, 10400.000
1091.236, 10650.000
1092.446, 10620.000
1093.655, 10860.000
1094.864, 10880.000
1096.073, 11030.000
1097.281, 11170.000
1098.490, 11340.000
1099.698, 11453.055
1100.905, 11534.076
1102.113, 11650.000
1103.320, 11680.000
1104.528, 11690.000
1105.734, 11820.000
1106.941, 11850.000
1108.148, 12000.000
1109.354, 12026.905
1110.560, 12000.000
1111.765, 12090.000
1112.971, 12060.000
1114.176, 12060.000
1115.381, 12160.000
1116.586, 12170.000
1117.791, 12130.000
1118.995, 12210.000
1120.199, 12260.000
1121.403, 12150.000
1122.606, 12130.000
1123.810, 12150.000
1125.013, 12140.000
1126.216, 12140.000
1127.419, 12040.000
1128.621, 12060.000
1129.823, 11920.000
1131.025, 11980.000
1132.227, 11970.000
1133.428, 11820.000
1134.630, 11710.000
1135.831, 11870.000
1137.031, 11900.000
1138.232, 11800.000
1139.432, 11770.000
1140.633, 11680.000
1141.832, 11650.000
1143.032, 11740.000
1144.231, 11570.000
1145.431, 11650.000
1146.630, 11730.000
1147.828, 11620.000
1149.027, 11590.000
1150.225, 11650.000
1151.423, 11600.000
1152.621, 11460.000
1153.818, 11470.000
1155.016, 11580.000
1156.213, 11300.000
1157.410, 11350.000
1158.606, 11210.000
1159.802, 11160.000
1160.999, 11050.000
1162.195, 10889.466
1163.390, 10780.990
1164.586, 10540.000
1165.781, 10480.000
1166.976, 10280.000
1168.171, 10110.000
1169.365, 10000.000
1170.559, 9864.000
1171.753, 9627.000
1172.947, 9660.000
1174.141, 9460.000
1175.334, 9231.000
1176.527, 9344.000
1177.720, 9047.000
1178.913, 8971.000
1180.105, 8924.000
1181.298, 8706.000
1182.490, 8689.000
1183.681, 8506.000
1184.873, 8437.000
1186.064, 8473.000
1187.255, 8316.000
1188.446, 8346.000
1189.637, 8184.000
1190.827, 8121.000
1192.017, 7975.000
1193.207, 8036.000
1194.397, 7863.000
1195.586, 7830.000
1196.775, 7646.000
1197.964, 7634.000
1199.153, 7583.000
1200.341, 7494.000
1201.530, 7478.000
1202.718, 7433.000
1203.906, 7356.000
1205.093, 7330.000
1206.281, 7335.000
1207.468, 7282.000
1208.655, 7252.000
1209.841, 7174.000
1211.028, 7175.000
1212.214, 7189.000
1213.400, 7072.000
1214.586, 7061.000
1215.771, 7114.000
1216.956, 7074.000
1218.142, 7022.000
1219.326, 6978.000
1220.511, 6937.000
1221.695, 6968.000
1222.879, 6937.000
1224.063, 6898.000
1225.247, 6958.000
1226.431, 6900.000
1227.614, 6958.000
1228.797, 6896.000
1229.980, 6900.000
1231.162, 6837.000
1232.344, 6852.000
1233.526, 6855.000
1234.708, 6850.000
1235.890, 6827.000
1237.071, 6831.000
1238.253, 6827.000
1239.433, 6786.000
1240.614, 6850.000
1241.795, 6772.000
1242.975, 6704.000
1244.155, 6817.000
1245.335, 6731.000
1246.514, 6793.000
1247.694, 6737.000
1248.873, 6750.000
1250.052, 6853.000
1251.230, 6751.000
1252.409, 6779.000
1253.587, 6789.000
1254.765, 6788.000
1255.943, 6770.000
1257.120, 6729.000
1258.297, 6700.000
1259.475, 6743.000
1260.651, 6706.000
1261.828, 6749.000
1263.004, 6748.128
1264.181, 6711.000
1265.356, 6747.000
1266.532, 6711.000
1267.708, 6676.000
1268.883, 6700.000
1270.058, 6653.000
1271.233, 6720.000
1272.407, 6636.000
1273.582, 6651.000
1274.756, 6686.000
1275.930, 6689.000
1277.103, 6697.920
1278.277, 6702.599
1279.450, 6683.000
1280.623, 6687.000
1281.796, 6646.000
1282.968, 6617.000
1284.140, 6644.000
1285.313, 6675.000
1286.484, 6548.000
1287.656, 6643.000
1288.827, 6673.000
1289.999, 6636.000
1291.170, 6719.000
1292.340, 6567.000
1293.511, 6629.000
1294.681, 6610.000
1295.851, 6618.000
1297.021, 6578.000
1298.191, 6608.000
1299.360, 6602.000
1300.529, 6625.000
1301.698, 6578.000
1302.867, 6651.000
1304.035, 6620.000
1305.203, 6551.000
1306.371, 6647.000
1307.539, 6621.055
1308.707, 6628.793
1309.874, 6671.000
1311.041, 6646.000
1312.208, 6654.000
1313.375, 6672.000
1314.541, 6601.000
1315.707, 6656.000
1316.873, 6730.000
1318.039, 6642.033
1319.205, 6726.000
1320.370, 6596.000
1321.535, 6614.000
1322.700, 6743.000
1323.865, 6592.000
1325.029, 6577.000
1326.193, 6708.000
1327.357, 6697.000
1328.521, 6721.000
1329.685, 6724.000
1330.848, 6610.000
1332.011, 6716.000
1333.174, 6665.000
1334.336, 6640.000
1335.499, 6718.000
1336.661, 6665.000
1337.823, 6676.000
1338.985, 6740.000
1340.146, 6648.000
1341.307, 6743.000
1342.469, 6715.000
1343.629, 6698.000
1344.790, 6759.000
1345.950, 6696.000
1347.111, 6661.000
1348.271, 6751.000
1349.430, 6714.000
1350.590, 6760.000
1351.749, 6746.000
1352.908, 6739.000
1354.067, 6754.000
1355.226, 6680.000
1356.384, 6691.000
1357.542, 6774.000
1358.700, 6792.000
1359.858, 6718.000
1361.015, 6798.000
1362.173, 6673.000
1363.330, 6726.000
1364.486, 6688.000
1365.643, 6727.000
1366.799, 6797.000
1367.956, 6769.000
1369.112, 6772.000
1370.267, 6837.000
1371.423, 6706.000
1372.578, 6734.000
1373.733, 6770.000
1374.888, 6699.000
1376.043, 6915.000
1377.197, 6767.000
1378.351, 6718.000
1379.505, 6836.000
1380.659, 6799.000
1381.812, 6747.000
1382.966, 6820.000
1384.119, 6803.000
1385.272, 6797.815
1386.424, 6869.000
1387.577, 6805.000
1388.729, 6813.000
1389.881, 6862.000
1391.032, 6886.000
1392.184, 6813.000
1393.335, 6821.000
1394.486, 6826.000
1395.637, 6869.000
1396.788, 6861.000
1397.938, 6894.000
1399.088, 6856.000
1400.238, 6761.000
1401.388, 6949.000
1402.538, 6837.000
1403.687, 6850.000
1404.836, 6936.000
1405.985, 6884.000
1407.134, 6939.000
1408.282, 6896.000
1409.430, 6885.000
1410.578, 6898.000
1411.726, 6885.160
1412.874, 6908.000
1414.021, 6904.000
1415.168, 6910.000
1416.315, 6932.000
1417.462, 6918.000
1418.608, 6912.000
1419.754, 6867.000
1420.900, 6964.000
1422.046, 6897.000
1423.192, 6926.000
1424.337, 6993.000
1425.482, 6902.000
1426.627, 6954.000
1427.772, 6855.000
1428.916, 6900.000
1430.060, 7018.000
1431.205, 6935.000
1432.348, 6941.000
1433.492, 6951.000
1434.635, 6963.000
1435.779, 6994.000
1436.921, 7011.000
1438.064, 6949.000
1439.207, 7035.000
1440.349, 6988.000
1441.491, 6998.000
1442.633, 7020.000
1443.775, 7033.000
1444.916, 6945.000
1446.057, 7074.000
1447.198, 6988.000
1448.339, 6938.000
1449.479, 7047.000
1450.620, 7069.000
1451.760, 7093.000
1452.900, 7115.000
1454.039, 6956.000
1455.179, 7213.000
1456.318, 7097.000
1457.457, 6991.000
1458.596, 7092.000
1459.735, 7100.000
1460.873, 7065.000
1462.011, 7191.000
1463.149, 7025.000
1464.287, 7035.000
1465.424, 7154.000
1466.562, 7053.000
1467.699, 7108.000
1468.835, 7098.000
1469.972, 7058.000
1471.108, 7098.017
1472.245, 7139.000
1473.381, 7145.000
1474.516, 7171.000
1475.652, 7182.467
1476.787, 7176.966
1477.922, 7194.000
1479.057, 7147.000
1480.192, 7139.000
1481.326, 7095.000
1482.461, 7150.000
1483.595, 7199.000
1484.729, 7102.000
1485.862, 7163.000
1486.995, 7206.000
1488.129, 7196.000
1489.262, 7157.000
1490.394, 7290.000
1491.527, 7180.000
1492.659, 7194.000
1493.791, 7257.000
1494.923, 7242.000
1496.055, 7218.000
1497.186, 7255.000
1498.317, 7187.000
1499.448, 7269.000
1500.579, 7211.000
1501.710, 7300.000
1502.840, 7243.000
1503.970, 7198.000
##END=



