##NAMES=Sulphur
##RRUFFID=R040135
##IDEAL CHEMISTRY=S
##LOCALITY=Sicily, Italy
##OWNER=RRUFF
##SOURCE=University of Arizona Mineral Museum
##DESCRIPTION=Yellow fragments
##STATUS=The identification of this mineral has been confirmed by X-ray diffraction and chemical analysis
##URL=rruff.info/R040135
##MEASURED CHEMISTRY=S_1.00_
##PIN_ID=L00492
##ORIENTATION=Laser parallel to b* (0 1 0). Fiducial mark perpendicular to laser is parallel to -c [0 0 -1]
55.323, 216.000
56.716, 250.000
58.108, 260.000
59.501, 275.000
60.893, 279.000
62.285, 289.000
63.677, 302.000
65.069, 299.000
66.460, 308.000
67.851, 307.000
69.242, 310.000
70.633, 325.000
72.024, 321.000
73.414, 338.000
74.805, 337.000
76.195, 363.000
77.585, 396.000
78.974, 406.000
80.364, 449.000
81.753, 479.000
83.142, 550.000
84.531, 627.000
85.920, 851.000
87.308, 1150.000
88.697, 1635.000
90.085, 1914.000
91.473, 1871.000
92.860, 1605.000
94.248, 1328.000
95.635, 1136.000
97.022, 1000.000
98.409, 937.000
99.796, 914.000
101.183, 886.000
102.569, 889.000
103.955, 885.000
105.341, 882.000
106.727, 901.000
108.113, 913.000
109.498, 926.000
110.883, 920.000
112.268, 927.000
113.653, 930.000
115.038, 970.000
116.422, 951.000
117.806, 960.000
119.190, 946.000
120.574, 953.000
121.958, 949.212
123.341, 960.000
124.725, 947.000
126.108, 928.000
127.491, 931.000
128.873, 909.122
130.256, 911.000
131.638, 889.000
133.020, 887.000
134.402, 904.000
135.784, 887.000
137.165, 897.000
138.547, 921.000
139.928, 945.000
141.309, 1032.000
142.690, 1233.000
144.070, 1476.000
145.450, 1781.000
146.831, 2297.000
148.211, 2801.926
149.590, 3627.000
150.970, 4171.000
152.349, 4972.000
153.729, 5909.000
155.108, 6212.000
156.487, 5406.000
157.865, 4043.000
159.244, 2766.000
160.622, 1888.000
162.000, 1431.000
163.378, 1143.000
164.755, 987.000
166.133, 889.000
167.510, 841.000
168.887, 807.000
170.264, 760.000
171.641, 744.000
173.017, 742.000
174.394, 741.000
175.770, 714.000
177.146, 734.000
178.522, 729.000
179.897, 791.000
181.272, 822.000
182.648, 876.000
184.023, 953.000
185.397, 1042.000
186.772, 1089.000
188.146, 1070.000
189.521, 1003.000
190.895, 1027.000
192.269, 1083.000
193.642, 1201.000
195.016, 1209.000
196.389, 1158.000
197.762, 1056.000
199.135, 961.000
200.507, 938.000
201.880, 905.000
203.252, 918.000
204.624, 956.000
205.996, 1084.000
207.368, 1209.000
208.740, 1602.000
210.111, 2226.000
211.482, 3237.000
212.853, 5419.000
214.224, 8966.000
215.594, 13010.000
216.965, 18220.000
218.335, 26990.000
219.705, 28960.000
221.075, 20500.000
222.444, 10110.000
223.814, 4508.000
225.183, 2522.000
226.552, 1705.000
227.921, 1364.000
229.290, 1184.000
230.658, 1078.000
232.026, 1041.000
233.394, 1028.000
234.762, 1040.000
236.130, 1051.000
237.498, 1132.000
238.865, 1253.000
240.232, 1506.000
241.599, 1906.000
242.966, 2432.000
244.332, 3257.000
245.699, 3616.000
247.065, 3078.000
248.431, 2134.000
249.797, 1377.000
251.162, 1042.000
252.528, 832.000
253.893, 735.000
255.258, 690.000
256.623, 667.000
257.988, 623.000
259.352, 605.000
260.717, 632.000
262.081, 620.000
263.445, 607.000
264.808, 599.000
266.172, 607.000
267.535, 604.464
268.898, 618.000
270.261, 619.000
271.624, 639.000
272.987, 654.000
274.349, 643.000
275.711, 639.000
277.073, 626.000
278.435, 633.000
279.797, 623.000
281.158, 614.000
282.519, 585.000
283.881, 593.000
285.241, 591.000
286.602, 601.000
287.963, 589.000
289.323, 583.000
290.683, 607.000
292.043, 604.000
293.403, 631.000
294.762, 613.000
296.122, 633.000
297.481, 634.000
298.840, 625.000
300.199, 634.000
301.557, 633.000
302.916, 639.000
304.274, 637.162
305.632, 630.000
306.990, 626.000
308.348, 623.000
309.705, 621.231
311.062, 613.000
312.420, 624.000
313.777, 617.000
315.133, 624.000
316.490, 620.000
317.846, 620.000
319.202, 626.000
320.558, 610.000
321.914, 611.000
323.270, 605.000
324.625, 607.000
325.980, 610.000
327.335, 587.000
328.690, 587.000
330.045, 579.000
331.400, 551.000
332.754, 568.000
334.108, 559.000
335.462, 578.000
336.816, 573.537
338.169, 562.000
339.522, 566.000
340.876, 558.000
342.229, 547.000
343.581, 530.000
344.934, 545.000
346.286, 562.000
347.639, 538.000
348.991, 570.000
350.343, 558.000
351.694, 549.000
353.046, 539.000
354.397, 522.000
355.748, 546.000
357.099, 556.000
358.450, 550.000
359.800, 569.000
361.151, 579.000
362.501, 589.000
363.851, 586.000
365.201, 613.000
366.550, 602.000
367.900, 622.000
369.249, 610.000
370.598, 610.000
371.947, 602.000
373.296, 609.435
374.644, 630.000
375.993, 635.000
377.341, 642.000
378.689, 669.000
380.036, 666.000
381.384, 679.357
382.731, 687.000
384.079, 694.000
385.426, 705.854
386.772, 698.000
388.119, 725.000
389.465, 727.000
390.812, 733.000
392.158, 755.000
393.504, 768.000
394.849, 806.000
396.195, 809.000
397.540, 862.000
398.885, 887.000
400.230, 930.000
401.575, 969.000
402.920, 1077.000
404.264, 1190.000
405.608, 1309.000
406.952, 1504.000
408.296, 1631.000
409.640, 1782.000
410.983, 1814.000
412.327, 1838.000
413.670, 1809.000
415.013, 1764.000
416.356, 1811.000
417.698, 1983.000
419.040, 2105.000
420.383, 2412.000
421.725, 2612.000
423.066, 2971.000
424.408, 3396.000
425.750, 3884.000
427.091, 4463.000
428.432, 5043.000
429.773, 5696.000
431.113, 6219.000
432.454, 6698.000
433.794, 7180.000
435.135, 7462.000
436.474, 7598.000
437.814, 7303.000
439.154, 6703.000
440.493, 5535.000
441.833, 4217.000
443.172, 3129.000
444.510, 2305.000
445.849, 1865.000
447.188, 1514.000
448.526, 1390.000
449.864, 1383.000
451.202, 1371.000
452.540, 1505.000
453.877, 1726.000
455.215, 2105.000
456.552, 2710.000
457.889, 3534.000
459.226, 4815.000
460.562, 6498.000
461.899, 9131.000
463.235, 12440.000
464.571, 17000.000
465.907, 24190.000
467.243, 29960.000
468.578, 34500.000
469.914, 37880.000
471.249, 44040.000
472.584, 47990.000
473.919, 42320.000
475.253, 30830.000
476.588, 19030.000
477.922, 11820.000
479.256, 7781.000
480.590, 5415.000
481.924, 4135.000
483.257, 3257.000
484.591, 2650.000
485.924, 2263.000
487.257, 1939.000
488.590, 1745.000
489.922, 1614.000
491.255, 1495.000
492.587, 1452.000
493.919, 1366.000
495.251, 1339.000
496.583, 1261.000
497.914, 1244.000
499.245, 1161.000
500.577, 1107.000
501.908, 1039.000
503.238, 1010.000
504.569, 960.000
505.899, 939.000
507.230, 935.000
508.560, 937.000
509.889, 913.255
511.219, 887.000
512.549, 877.000
513.878, 884.000
515.207, 869.000
516.536, 868.819
517.865, 859.148
519.193, 857.000
520.522, 841.000
521.850, 824.000
523.178, 822.000
524.506, 803.259
525.834, 793.607
527.161, 780.000
528.489, 773.000
529.816, 771.000
531.143, 768.000
532.469, 742.000
533.796, 725.000
535.122, 730.000
536.449, 719.000
537.775, 716.000
539.101, 699.000
540.426, 692.000
541.752, 705.000
543.077, 714.000
544.402, 719.000
545.727, 699.000
547.052, 729.000
548.376, 707.000
549.701, 715.000
551.025, 717.000
552.349, 698.000
553.673, 679.000
554.997, 673.000
556.320, 636.000
557.644, 629.000
558.967, 621.000
560.290, 594.000
561.612, 615.000
562.935, 596.000
564.257, 578.000
565.580, 595.000
566.902, 590.000
568.224, 590.000
569.545, 582.000
570.867, 585.000
572.188, 579.000
573.509, 583.000
574.830, 570.000
576.151, 599.000
577.472, 564.000
578.792, 588.000
580.112, 565.000
581.432, 554.000
582.752, 567.000
584.072, 559.000
585.392, 572.000
586.711, 589.000
588.030, 570.000
589.349, 574.000
590.668, 581.000
591.986, 565.000
593.305, 581.000
594.623, 570.000
595.941, 565.000
597.259, 556.000
598.577, 580.000
599.894, 571.000
601.212, 574.000
602.529, 561.000
603.846, 557.000
605.163, 575.000
606.479, 582.000
607.796, 572.000
609.112, 586.000
610.428, 587.000
611.744, 589.000
613.060, 619.000
614.376, 610.000
615.691, 622.000
617.006, 621.697
618.321, 625.000
619.636, 618.000
620.951, 611.000
622.265, 620.000
623.579, 596.000
624.894, 586.000
626.208, 588.000
627.521, 573.000
628.835, 574.729
630.148, 583.000
631.462, 574.000
632.775, 566.000
634.088, 566.000
635.400, 574.000
636.713, 567.000
638.025, 571.000
639.337, 581.000
640.649, 574.000
641.961, 593.000
643.273, 580.000
644.584, 582.000
645.895, 593.000
647.206, 600.000
648.517, 601.000
649.828, 611.000
651.139, 598.000
652.449, 620.000
653.759, 635.000
655.069, 628.000
656.379, 622.000
657.689, 631.000
658.998, 614.000
660.307, 615.000
661.617, 619.000
662.926, 604.000
664.234, 615.000
665.543, 596.000
666.851, 594.000
668.160, 591.000
669.468, 584.000
670.775, 572.000
672.083, 595.000
673.391, 587.000
674.698, 596.000
676.005, 586.000
677.312, 604.000
678.619, 572.000
679.926, 574.000
681.232, 587.000
682.538, 599.000
683.844, 594.000
685.150, 587.000
686.456, 570.000
687.762, 596.000
689.067, 609.000
690.372, 585.000
691.677, 595.000
692.982, 585.000
694.287, 580.000
695.591, 575.000
696.896, 590.000
698.200, 570.000
699.504, 584.000
700.808, 571.000
702.111, 587.000
703.415, 583.000
704.718, 594.000
706.021, 579.000
707.324, 576.000
708.627, 591.000
709.929, 575.000
711.232, 588.000
712.534, 582.000
713.836, 599.000
715.138, 592.000
716.439, 605.000
717.741, 576.000
719.042, 555.000
720.343, 588.000
721.644, 573.000
722.945, 571.000
724.246, 576.000
725.546, 568.000
726.846, 561.000
728.146, 567.000
729.446, 555.000
730.746, 586.000
732.045, 591.000
733.345, 589.000
734.644, 603.000
735.943, 586.000
737.242, 565.000
738.541, 603.000
739.839, 577.000
741.137, 579.000
742.436, 571.000
743.733, 567.000
745.031, 590.000
746.329, 589.000
747.626, 586.000
748.924, 588.000
750.221, 572.000
751.518, 571.000
752.814, 580.000
754.111, 564.000
755.407, 564.000
756.703, 612.000
757.999, 570.000
759.295, 594.000
760.591, 589.000
761.886, 586.000
763.182, 585.000
764.477, 586.000
765.772, 583.777
767.067, 584.986
768.361, 584.000
769.656, 586.000
770.950, 591.000
772.244, 591.000
773.538, 590.000
774.832, 586.000
776.125, 587.000
777.419, 587.000
778.712, 598.000
780.005, 603.000
781.298, 594.000
782.591, 594.000
783.883, 621.000
785.176, 599.000
786.468, 609.000
787.760, 615.000
789.052, 606.000
790.343, 608.000
791.635, 614.000
792.926, 615.000
794.217, 618.907
795.508, 615.000
796.799, 626.000
798.089, 625.000
799.380, 630.000
800.670, 626.000
801.960, 633.000
803.250, 611.000
804.540, 634.000
805.829, 631.000
807.119, 618.000
808.408, 655.000
809.697, 642.000
810.986, 657.000
812.274, 655.000
813.563, 657.000
814.851, 677.000
816.139, 678.000
817.427, 663.000
818.715, 686.000
820.003, 675.000
821.290, 689.000
822.578, 684.000
823.865, 709.000
825.152, 692.000
826.439, 689.000
827.725, 678.000
829.012, 687.000
830.298, 681.000
831.584, 685.000
832.870, 671.000
834.155, 698.000
835.441, 689.000
836.726, 657.000
838.012, 682.000
839.297, 660.000
840.582, 694.000
841.866, 681.000
843.151, 687.000
844.435, 707.000
845.719, 714.000
847.003, 687.000
848.287, 722.000
849.571, 694.000
850.854, 697.000
852.137, 715.000
853.421, 710.000
854.704, 734.000
855.986, 735.000
857.269, 760.000
858.551, 719.000
859.834, 744.000
861.116, 756.000
862.398, 763.000
863.679, 782.000
864.961, 791.000
866.242, 782.000
867.524, 765.000
868.805, 787.000
870.086, 777.000
871.366, 776.000
872.647, 783.000
873.927, 773.000
875.207, 789.000
876.487, 779.000
877.767, 788.000
879.047, 777.000
880.326, 755.000
881.606, 754.000
882.885, 724.000
884.164, 735.000
885.443, 744.000
886.721, 711.000
888.000, 711.000
889.278, 719.000
890.556, 695.000
891.834, 708.000
893.112, 678.000
894.390, 703.000
895.667, 674.000
896.944, 675.000
898.221, 710.000
899.498, 719.000
900.775, 701.000
902.052, 702.000
903.328, 702.000
904.604, 711.000
905.880, 705.857
907.156, 708.000
908.432, 702.000
909.707, 678.000
910.983, 678.000
912.258, 659.000
913.533, 684.000
914.808, 660.000
916.083, 671.000
917.357, 689.000
918.632, 692.000
919.906, 681.000
921.180, 704.000
922.454, 695.000
923.727, 711.000
925.001, 723.000
926.274, 726.000
927.547, 768.000
928.820, 768.000
930.093, 798.000
931.366, 798.000
932.638, 800.000
933.910, 801.000
935.183, 803.000
936.454, 780.000
937.726, 762.000
938.998, 751.000
940.269, 754.000
941.541, 730.000
942.812, 704.000
944.083, 762.000
945.353, 709.000
946.624, 719.000
947.894, 717.000
949.165, 695.000
950.435, 686.000
951.705, 694.000
952.974, 671.000
954.244, 669.000
955.513, 674.000
956.783, 683.000
958.052, 670.000
959.321, 674.000
960.589, 686.000
961.858, 675.000
963.126, 679.000
964.394, 674.000
965.662, 679.000
966.930, 682.000
968.198, 665.000
969.466, 671.000
970.733, 663.000
972.000, 661.000
973.267, 654.000
974.534, 653.431
975.801, 646.000
977.067, 659.231
978.333, 655.000
979.600, 671.000
980.866, 671.000
982.131, 677.000
983.397, 659.000
984.663, 671.000
985.928, 685.000
987.193, 679.000
988.458, 655.000
989.723, 674.000
990.988, 676.000
992.252, 667.000
993.516, 678.000
994.780, 659.000
996.044, 690.000
997.308, 681.000
998.572, 675.000
999.835, 694.000
1001.099, 682.000
1002.362, 670.000
1003.625, 678.000
1004.887, 671.000
1006.150, 702.000
1007.413, 690.000
1008.675, 695.000
1009.937, 687.000
1011.199, 687.000
1012.461, 691.000
1013.722, 688.898
1014.984, 686.000
1016.245, 695.000
1017.506, 679.000
1018.767, 686.000
1020.028, 687.000
1021.288, 683.000
1022.549, 687.000
1023.809, 681.000
1025.069, 674.000
1026.329, 683.000
1027.589, 677.456
1028.848, 679.000
1030.108, 678.000
1031.367, 678.000
1032.626, 678.439
1033.885, 673.000
1035.144, 692.000
1036.402, 695.000
1037.661, 702.000
1038.919, 686.000
1040.177, 691.000
1041.435, 700.000
1042.693, 718.000
1043.950, 687.000
1045.208, 704.000
1046.465, 689.000
1047.722, 703.000
1048.979, 726.000
1050.235, 701.000
1051.492, 703.000
1052.748, 695.000
1054.005, 695.000
1055.261, 704.000
1056.517, 695.000
1057.772, 699.000
1059.028, 701.000
1060.283, 685.000
1061.538, 697.000
1062.793, 709.000
1064.048, 700.000
1065.303, 726.000
1066.558, 700.000
1067.812, 711.000
1069.066, 706.000
1070.320, 706.000
1071.574, 724.000
1072.828, 705.000
1074.081, 719.000
1075.335, 719.000
1076.588, 706.000
1077.841, 683.000
1079.094, 710.000
1080.347, 687.000
1081.599, 705.000
1082.852, 726.000
1084.104, 726.000
1085.356, 733.000
1086.608, 734.000
1087.859, 713.000
1089.111, 700.000
1090.362, 706.000
1091.614, 697.000
1092.865, 714.000
1094.115, 702.000
1095.366, 723.000
1096.617, 694.000
1097.867, 697.000
1099.117, 713.000
1100.367, 718.000
1101.617, 729.000
1102.867, 718.000
1104.116, 722.678
1105.366, 734.000
1106.615, 719.000
1107.864, 717.000
1109.113, 717.000
1110.362, 708.000
1111.610, 737.000
1112.859, 711.000
1114.107, 707.000
1115.355, 724.000
1116.603, 707.000
1117.850, 727.000
1119.098, 714.000
1120.345, 702.000
1121.593, 717.000
1122.840, 713.000
1124.087, 719.000
1125.333, 716.000
1126.580, 708.000
1127.826, 715.000
1129.072, 708.000
1130.319, 719.000
1131.564, 752.000
1132.810, 727.000
1134.056, 732.000
1135.301, 745.000
1136.546, 724.000
1137.791, 743.000
1139.036, 714.000
1140.281, 719.000
1141.526, 752.000
1142.770, 717.000
1144.014, 727.000
1145.258, 743.000
1146.502, 737.000
1147.746, 760.000
1148.990, 730.000
1150.233, 727.000
1151.476, 761.000
1152.719, 716.000
1153.962, 753.000
1155.205, 761.000
1156.448, 743.000
1157.690, 763.000
1158.932, 734.000
1160.174, 735.000
1161.416, 764.000
1162.658, 714.000
1163.900, 739.000
1165.141, 723.000
1166.382, 740.000
1167.624, 743.000
1168.864, 726.000
1170.105, 743.000
1171.346, 763.000
1172.586, 747.000
1173.827, 756.000
1175.067, 746.000
1176.307, 739.000
1177.546, 781.000
1178.786, 738.000
1180.026, 738.000
1181.265, 774.000
1182.504, 733.000
1183.743, 739.000
1184.982, 747.000
1186.220, 740.000
1187.459, 750.000
1188.697, 768.000
1189.935, 749.000
1191.173, 757.000
1192.411, 743.000
1193.649, 762.000
1194.886, 776.000
1196.124, 741.000
1197.361, 757.000
1198.598, 754.000
1199.835, 722.000
1201.071, 766.000
1202.308, 719.000
1203.544, 758.000
1204.780, 779.000
1206.016, 763.000
1207.252, 789.000
1208.488, 760.000
1209.723, 765.000
1210.959, 759.000
1212.194, 756.000
1213.429, 786.000
1214.664, 762.000
1215.899, 750.000
1217.133, 781.000
1218.368, 752.000
1219.602, 747.000
1220.836, 795.000
1222.070, 754.000
1223.304, 776.000
1224.537, 775.000
1225.770, 753.000
1227.004, 792.000
1228.237, 747.000
1229.470, 756.000
1230.703, 801.000
1231.935, 769.000
1233.168, 787.000
1234.400, 774.000
1235.632, 760.000
1236.864, 775.000
1238.096, 781.000
1239.327, 769.000
1240.559, 778.000
1241.790, 756.000
1243.021, 785.000
1244.252, 781.000
1245.483, 760.000
1246.714, 779.000
1247.944, 777.000
1249.174, 775.000
1250.404, 806.000
1251.634, 791.000
1252.864, 769.000
1254.094, 806.000
1255.323, 770.000
1256.553, 773.000
1257.782, 779.000
1259.011, 801.000
1260.240, 817.000
1261.469, 799.000
1262.697, 787.000
1263.925, 798.000
1265.154, 798.000
1266.382, 791.000
1267.610, 787.000
1268.837, 777.000
1270.065, 826.000
1271.292, 794.000
1272.519, 795.000
1273.747, 815.000
1274.973, 777.000
1276.200, 793.000
1277.427, 812.000
1278.653, 764.000
1279.879, 803.000
1281.106, 779.000
1282.332, 797.000
1283.557, 828.000
1284.783, 774.000
1286.008, 806.000
1287.234, 796.000
1288.459, 805.000
1289.684, 817.000
1290.909, 807.000
1292.133, 783.000
1293.358, 822.000
1294.582, 807.000
1295.806, 782.000
1297.030, 832.000
1298.254, 788.000
1299.478, 797.000
1300.701, 802.000
1301.925, 799.000
1303.148, 804.000
1304.371, 822.000
1305.594, 815.000
1306.816, 818.000
1308.039, 775.000
1309.261, 809.000
1310.484, 828.000
1311.706, 799.000
1312.928, 832.000
1314.149, 818.000
1315.371, 809.000
1316.592, 847.000
1317.814, 806.000
1319.035, 804.000
1320.256, 826.000
1321.477, 803.000
1322.697, 809.000
1323.918, 828.000
1325.138, 803.000
1326.358, 834.000
1327.578, 840.000
1328.798, 820.000
1330.018, 815.000
1331.237, 822.000
1332.456, 825.000
1333.676, 822.000
1334.895, 812.000
1336.113, 817.000
1337.332, 854.000
1338.551, 811.000
1339.769, 868.000
1340.987, 815.000
1342.205, 839.000
1343.423, 834.000
1344.641, 819.000
1345.859, 852.000
1347.076, 832.000
1348.293, 822.000
1349.510, 837.000
1350.727, 860.000
1351.944, 822.000
1353.161, 862.000
1354.377, 829.000
1355.593, 832.000
1356.810, 862.000
1358.026, 848.000
1359.241, 861.000
1360.457, 849.000
1361.673, 815.000
1362.888, 887.000
1364.103, 837.000
1365.318, 860.000
1366.533, 868.000
1367.748, 835.000
1368.962, 865.000
1370.177, 876.000
1371.391, 838.000
1372.605, 881.000
1373.819, 830.000
1375.033, 835.000
1376.246, 880.000
1377.460, 859.000
1378.673, 861.000
1379.886, 886.000
1381.099, 846.000
1382.312, 832.000
1383.524, 847.000
1384.737, 834.000
1385.949, 868.000
1387.161, 871.000
1388.373, 863.000
1389.585, 870.000
1390.797, 856.000
1392.008, 860.000
1393.220, 867.000
1394.431, 848.000
1395.642, 881.000
1396.853, 867.000
1398.064, 850.000
1399.274, 876.000
1400.485, 871.000
1401.695, 858.000
1402.905, 915.000
1404.115, 867.000
1405.325, 868.000
1406.534, 920.000
1407.744, 847.000
1408.953, 903.000
1410.162, 878.000
1411.371, 852.000
1412.580, 916.000
1413.789, 875.000
1414.997, 861.000
1416.206, 924.000
1417.414, 862.000
1418.622, 864.000
1419.830, 934.000
1421.038, 884.000
1422.245, 909.000
1423.453, 896.000
1424.660, 892.000
1425.867, 926.000
1427.074, 890.000
1428.281, 899.000
1429.487, 944.000
1430.694, 874.000
1431.900, 928.000
1433.106, 917.000
1434.312, 892.000
1435.518, 922.000
1436.724, 901.000
1437.929, 906.000
1439.134, 937.000
1440.340, 904.000
1441.545, 884.000
1442.750, 939.000
1443.954, 896.000
1445.159, 935.000
1446.363, 951.000
1447.568, 888.000
1448.772, 936.000
1449.976, 917.000
1451.179, 876.000
1452.383, 962.000
1453.587, 923.000
1454.790, 905.000
1455.993, 949.000
1457.196, 911.000
1458.399, 923.000
1459.601, 942.000
1460.804, 933.000
1462.006, 942.000
1463.209, 934.000
1464.411, 919.000
1465.613, 934.000
1466.814, 960.000
1468.016, 918.000
1469.217, 960.000
1470.419, 935.000
1471.620, 960.000
1472.821, 958.000
1474.021, 911.000
1475.222, 960.000
1476.423, 943.000
1477.623, 914.000
1478.823, 960.000
1480.023, 942.000
1481.223, 904.000
1482.423, 997.000
1483.622, 943.000
1484.822, 932.000
1486.021, 990.000
1487.220, 920.000
1488.419, 967.000
1489.618, 996.000
1490.816, 918.000
1492.015, 976.000
1493.213, 972.000
1494.411, 940.000
1495.609, 1016.000
1496.807, 942.000
1498.005, 935.000
1499.202, 979.000
1500.400, 960.000
1501.597, 943.000
1502.794, 994.000
1503.991, 932.000
1505.187, 961.000
1506.384, 962.000
1507.580, 920.000
1508.777, 1000.000
1509.973, 978.000
1511.169, 927.000
1512.365, 1020.000
1513.560, 960.000
1514.756, 986.000
1515.951, 1006.000
1517.146, 944.000
1518.341, 996.000
1519.536, 1005.000
1520.731, 912.000
1521.926, 1004.000
1523.120, 963.000
1524.314, 937.000
1525.508, 994.000
1526.702, 998.000
1527.896, 948.000
1529.090, 1035.000
1530.283, 976.000
1531.476, 957.000
1532.670, 1002.000
1533.863, 933.000
1535.055, 971.000
1536.248, 1022.000
##END=



