##NAMES=Talc
##RRUFFID=R050087
##IDEAL CHEMISTRY=Mg_3_Si_4_O_10_(OH)_2_
##LOCALITY=St. Lawrence County, New York, USA
##OWNER=RRUFF
##SOURCE=University of Arizona Mineral Museum
##DESCRIPTION=An aggregate of colorless foliated coarse single crystals
##STATUS=The identification of this mineral has been confirmed by X-ray diffraction and chemical analysis
##URL=rruff.info/R050087
##MEASURED CHEMISTRY=(Mg_.998_Fe_.002_)_3_(Si_.997_Al_.003_)_4_O_10_(OH_.966_F_.034_)_2_
##PIN_ID=M00271
##ORIENTATION=Laser parallel to (0 -1 -1). Fiducial mark perpendicular to laser is parallel to a [1 0 0]
99.64900, 15083.00
100.8830, 15510.00
102.1160, 15780.00
103.3490, 16389.00
104.5820, 16531.00
105.8150, 16767.00
107.0470, 16839.00
108.2800, 16911.00
109.5120, 17025.97
110.7440, 17037.07
111.9760, 17118.00
113.2080, 17012.00
114.4400, 16959.00
115.6710, 16804.00
116.9030, 16745.00
118.1340, 16306.00
119.3650, 16619.00
120.5960, 16413.00
121.8270, 16552.00
123.0580, 16278.00
124.2880, 16385.00
125.5190, 16257.00
126.7490, 16416.00
127.9790, 16445.00
129.2090, 16561.00
130.4390, 16543.00
131.6680, 16813.00
132.8980, 16629.00
134.1270, 16653.00
135.3560, 16806.00
136.5850, 16584.00
137.8140, 16743.00
139.0430, 16888.00
140.2710, 16875.00
141.5000, 16996.00
142.7280, 16882.00
143.9560, 16959.00
145.1840, 17013.00
146.4120, 16961.00
147.6390, 17089.00
148.8670, 17207.00
150.0940, 17073.00
151.3210, 17227.00
152.5490, 17220.00
153.7750, 17258.00
155.0020, 17192.00
156.2290, 17234.29
157.4550, 17238.00
158.6810, 17305.00
159.9080, 17290.00
161.1340, 17391.00
162.3590, 17459.00
163.5850, 17396.00
164.8110, 17460.00
166.0360, 17381.00
167.2610, 17419.00
168.4860, 17622.00
169.7110, 17567.00
170.9360, 17709.00
172.1610, 17608.00
173.3850, 17526.00
174.6100, 17860.00
175.8340, 17865.00
177.0580, 17653.00
178.2820, 17792.00
179.5050, 17907.00
180.7290, 17975.00
181.9520, 18294.00
183.1760, 18282.00
184.3990, 18689.00
185.6220, 19175.00
186.8450, 19559.00
188.0670, 19729.00
189.2900, 20032.00
190.5120, 20671.00
191.7340, 21314.00
192.9560, 22070.00
194.1780, 22136.00
195.4000, 22274.00
196.6220, 21451.00
197.8430, 20623.00
199.0640, 19708.00
200.2860, 19371.00
201.5070, 18729.00
202.7270, 18791.00
203.9480, 18638.00
205.1690, 18459.00
206.3890, 18161.00
207.6090, 18499.00
208.8290, 18422.00
210.0490, 18547.00
211.2690, 18506.00
212.4890, 18522.00
213.7080, 18670.00
214.9280, 18607.00
216.1470, 18758.00
217.3660, 18669.00
218.5850, 18695.00
219.8030, 18768.00
221.0220, 18731.00
222.2400, 18831.00
223.4590, 18891.00
224.6770, 18915.00
225.8950, 18963.00
227.1120, 18969.00
228.3300, 18912.00
229.5480, 18859.00
230.7650, 19039.00
231.9820, 18981.00
233.1990, 19073.00
234.4160, 18944.00
235.6330, 19068.00
236.8490, 19011.00
238.0660, 19182.00
239.2820, 19063.00
240.4980, 19194.00
241.7140, 19271.00
242.9300, 19017.00
244.1460, 19123.00
245.3610, 19154.00
246.5770, 19264.00
247.7920, 19168.00
249.0070, 19147.00
250.2220, 19242.00
251.4370, 19264.00
252.6510, 19390.00
253.8660, 19407.00
255.0800, 19475.00
256.2940, 19480.28
257.5080, 19509.88
258.7220, 19441.00
259.9360, 19573.00
261.1490, 19540.00
262.3630, 19623.00
263.5760, 19594.00
264.7890, 19561.00
266.0020, 19661.00
267.2150, 19723.00
268.4270, 19732.22
269.6400, 19860.00
270.8520, 19782.00
272.0640, 19733.00
273.2760, 19738.00
274.4880, 19771.00
275.7000, 19717.00
276.9120, 19780.16
278.1230, 19943.00
279.3340, 19853.00
280.5450, 19963.00
281.7560, 19972.00
282.9670, 20041.00
284.1780, 20038.00
285.3880, 20012.00
286.5980, 20340.00
287.8090, 20365.00
289.0190, 20531.00
290.2290, 20383.00
291.4380, 20552.00
292.6480, 20374.00
293.8570, 20194.00
295.0670, 20341.00
296.2760, 20156.00
297.4850, 20242.00
298.6930, 20286.00
299.9020, 20331.00
301.1110, 20323.00
302.3190, 20254.00
303.5270, 20388.00
304.7350, 20260.00
305.9430, 20484.00
307.1510, 20547.00
308.3580, 20559.00
309.5660, 20218.00
310.7730, 20285.00
311.9800, 20324.00
313.1870, 20537.00
314.3940, 20479.00
315.6010, 20622.00
316.8070, 20557.00
318.0130, 20431.00
319.2200, 20782.00
320.4260, 20712.00
321.6310, 20548.00
322.8370, 20877.00
324.0430, 20859.00
325.2480, 20780.00
326.4540, 20874.00
327.6590, 21012.00
328.8640, 20984.00
330.0680, 20953.00
331.2730, 21258.00
332.4780, 21057.00
333.6820, 21008.00
334.8860, 21161.00
336.0900, 21233.00
337.2940, 21210.00
338.4980, 21156.00
339.7010, 21231.88
340.9050, 21164.00
342.1080, 21340.00
343.3110, 21365.00
344.5140, 21455.00
345.7170, 21403.00
346.9200, 21531.00
348.1220, 21628.00
349.3240, 21825.00
350.5270, 21862.00
351.7290, 22145.00
352.9310, 22459.00
354.1320, 22664.00
355.3340, 23093.00
356.5350, 23346.00
357.7370, 23797.00
358.9380, 24188.00
360.1390, 24391.00
361.3400, 24665.00
362.5400, 24745.00
363.7410, 24440.00
364.9410, 24062.00
366.1410, 23518.00
367.3410, 23054.00
368.5410, 22745.00
369.7410, 22376.00
370.9400, 22191.00
372.1400, 22036.00
373.3390, 21983.00
374.5380, 21946.00
375.7370, 22065.00
376.9360, 22128.00
378.1350, 22192.00
379.3330, 22209.00
380.5310, 22293.00
381.7300, 22229.86
382.9280, 22001.00
384.1260, 22097.00
385.3230, 22118.00
386.5210, 22049.00
387.7180, 22202.00
388.9160, 22126.00
390.1130, 22169.00
391.3100, 22082.00
392.5060, 22002.00
393.7030, 22058.00
394.9000, 22025.54
396.0960, 22075.00
397.2920, 22137.00
398.4880, 22103.00
399.6840, 22280.00
400.8800, 22357.00
402.0750, 22376.00
403.2710, 22150.00
404.4660, 22155.00
405.6610, 22301.00
406.8560, 22454.00
408.0510, 22296.00
409.2450, 22224.00
410.4400, 22330.00
411.6340, 22359.00
412.8280, 22407.00
414.0220, 22383.00
415.2160, 22371.00
416.4100, 22569.00
417.6030, 22691.00
418.7970, 22555.00
419.9900, 22624.00
421.1830, 22572.00
422.3760, 22734.00
423.5690, 22711.00
424.7610, 22812.00
425.9540, 22951.00
427.1460, 22978.78
428.3380, 23127.00
429.5300, 23153.00
430.7220, 23291.00
431.9140, 23440.00
433.1050, 23579.00
434.2970, 23543.00
435.4880, 23282.00
436.6790, 23363.00
437.8700, 23059.00
439.0610, 23027.00
440.2510, 23129.00
441.4420, 23072.00
442.6320, 22979.00
443.8220, 23131.00
445.0120, 23079.39
446.2020, 23163.00
447.3910, 23163.00
448.5810, 23201.00
449.7700, 23284.00
450.9600, 23204.00
452.1490, 23403.00
453.3370, 23192.00
454.5260, 23328.00
455.7150, 23394.00
456.9030, 23470.00
458.0910, 23479.00
459.2800, 23668.00
460.4670, 23665.86
461.6550, 23573.00
462.8430, 23746.00
464.0300, 23843.00
465.2180, 23885.00
466.4050, 24137.00
467.5920, 24175.00
468.7790, 23985.00
469.9650, 24105.00
471.1520, 24043.00
472.3380, 23871.00
473.5250, 23795.00
474.7110, 23794.00
475.8970, 23721.00
477.0820, 23773.00
478.2680, 23901.00
479.4540, 23896.00
480.6390, 23966.21
481.8240, 23935.00
483.0090, 23995.00
484.1940, 23940.00
485.3780, 23841.00
486.5630, 23921.00
487.7470, 23880.00
488.9320, 24011.00
490.1160, 23966.00
491.3000, 23838.00
492.4830, 24031.00
493.6670, 23803.00
494.8500, 23931.00
496.0340, 24148.00
497.2170, 24009.00
498.4000, 24136.00
499.5820, 24322.00
500.7650, 24060.00
501.9480, 24190.00
503.1300, 24063.00
504.3120, 24383.00
505.4940, 24348.00
506.6760, 24314.00
507.8580, 24420.00
509.0390, 24397.00
510.2210, 24244.00
511.4020, 24471.00
512.5830, 24419.00
513.7640, 24381.00
514.9450, 24633.00
516.1250, 24486.00
517.3060, 24658.00
518.4860, 24499.00
519.6660, 24552.00
520.8460, 24697.00
522.0260, 24683.00
523.2060, 24403.00
524.3850, 24710.00
525.5650, 24520.00
526.7440, 24903.00
527.9230, 24686.00
529.1020, 24522.00
530.2810, 24418.00
531.4590, 24652.00
532.6380, 24738.00
533.8160, 24860.00
534.9940, 24747.00
536.1720, 24877.00
537.3500, 24937.00
538.5270, 25055.00
539.7050, 25019.93
540.8820, 24912.00
542.0590, 25020.00
543.2360, 24842.00
544.4130, 25041.00
545.5900, 25168.00
546.7660, 25073.00
547.9430, 24978.00
549.1190, 25090.00
550.2950, 25065.00
551.4710, 25291.00
552.6470, 25147.00
553.8220, 25298.00
554.9980, 25064.00
556.1730, 25163.00
557.3480, 25551.00
558.5230, 25226.00
559.6980, 25244.00
560.8730, 25477.00
562.0470, 25351.00
563.2220, 25288.00
564.3960, 25383.00
565.5700, 25497.00
566.7440, 25405.00
567.9170, 25542.19
569.0910, 25566.59
570.2640, 25673.00
571.4380, 25664.00
572.6110, 25702.00
573.7840, 25721.00
574.9570, 25810.00
576.1290, 25824.00
577.3020, 25717.00
578.4740, 25879.00
579.6460, 25625.00
580.8180, 25814.00
581.9900, 25968.00
583.1620, 25873.00
584.3330, 25992.00
585.5040, 26115.00
586.6760, 25980.00
587.8470, 26113.00
589.0180, 26075.00
590.1880, 26160.00
591.3590, 26072.00
592.5290, 26194.00
593.7000, 26205.00
594.8700, 26311.00
596.0400, 26127.00
597.2090, 26137.00
598.3790, 26389.00
599.5490, 26433.00
600.7180, 26178.00
601.8870, 26552.00
603.0560, 26308.00
604.2250, 26374.00
605.3940, 26415.00
606.5620, 26449.00
607.7300, 26475.69
608.8990, 26505.67
610.0670, 26489.00
611.2350, 26546.00
612.4020, 26525.00
613.5700, 26523.00
614.7370, 26671.00
615.9050, 26559.00
617.0720, 26785.00
618.2390, 27076.00
619.4060, 26836.00
620.5720, 26765.00
621.7390, 26881.00
622.9050, 27069.00
624.0710, 27128.00
625.2370, 27329.00
626.4030, 27308.00
627.5690, 27191.00
628.7340, 27331.00
629.9000, 27339.00
631.0650, 27322.50
632.2300, 27279.00
633.3950, 27294.00
634.5600, 27301.00
635.7240, 27224.00
636.8890, 27132.00
638.0530, 27170.00
639.2170, 27413.00
640.3810, 27191.00
641.5450, 27459.00
642.7080, 27418.00
643.8720, 27456.00
645.0350, 27556.00
646.1980, 27576.11
647.3610, 27651.56
648.5240, 27721.00
649.6870, 27786.00
650.8490, 27881.00
652.0120, 27967.00
653.1740, 27881.00
654.3360, 28177.00
655.4980, 27880.00
656.6600, 27997.00
657.8210, 28108.00
658.9830, 27974.00
660.1440, 28183.00
661.3050, 28449.00
662.4660, 28631.00
663.6270, 28978.00
664.7870, 29145.00
665.9480, 29271.00
667.1080, 29816.00
668.2680, 30355.00
669.4280, 31137.00
670.5880, 31899.00
671.7480, 32384.00
672.9070, 33458.00
674.0670, 34325.00
675.2260, 34722.00
676.3850, 35057.00
677.5440, 34883.00
678.7030, 34416.00
679.8610, 33724.00
681.0200, 32544.00
682.1780, 31748.00
683.3360, 30931.00
684.4940, 30380.00
685.6520, 30081.00
686.8090, 29681.00
687.9670, 29482.00
689.1240, 29031.00
690.2810, 29086.00
691.4380, 28890.00
692.5950, 28659.00
693.7520, 28752.00
694.9080, 28669.00
696.0650, 28843.00
697.2210, 28543.00
698.3770, 28495.00
699.5330, 28828.00
700.6880, 28424.00
701.8440, 28644.00
702.9990, 28167.00
704.1550, 28706.00
705.3100, 28660.00
706.4650, 28565.00
707.6190, 28322.00
708.7740, 28595.00
709.9290, 28437.00
711.0830, 28622.00
712.2370, 28789.00
713.3910, 28591.00
714.5450, 28676.00
715.6980, 28690.00
716.8520, 28668.92
718.0050, 28914.00
719.1580, 28685.00
720.3110, 28876.00
721.4640, 28788.00
722.6170, 29045.00
723.7700, 29029.00
724.9220, 28967.00
726.0740, 28801.00
727.2260, 29172.00
728.3780, 28832.00
729.5300, 28956.00
730.6810, 29178.00
731.8330, 29127.00
732.9840, 29237.00
734.1350, 29179.00
735.2860, 29180.00
736.4370, 29290.00
737.5880, 29246.00
738.7380, 29391.00
739.8880, 29332.00
741.0390, 29377.00
742.1890, 29448.00
743.3380, 29318.00
744.4880, 29467.00
745.6380, 29445.00
746.7870, 29477.00
747.9360, 29533.00
749.0850, 29511.21
750.2340, 29651.00
751.3830, 29579.00
752.5310, 29502.00
753.6800, 29682.00
754.8280, 29692.00
755.9760, 29655.00
757.1240, 29664.00
758.2720, 29762.00
759.4190, 29771.00
760.5670, 29817.61
761.7140, 29758.00
762.8610, 29877.00
764.0080, 29759.00
765.1550, 29745.00
766.3020, 29814.00
767.4480, 29983.00
768.5950, 29916.00
769.7410, 30063.32
770.8870, 30019.00
772.0330, 30203.00
773.1780, 30152.00
774.3240, 30121.00
775.4690, 30168.00
776.6140, 30044.00
777.7590, 30122.42
778.9040, 30422.00
780.0490, 30276.00
781.1940, 30483.00
782.3380, 30709.00
783.4820, 30601.00
784.6260, 30597.00
785.7700, 30558.00
786.9140, 30579.00
788.0580, 30844.00
789.2010, 30955.00
790.3450, 30817.00
791.4880, 31301.00
792.6310, 30912.00
793.7730, 31215.00
794.9160, 31290.00
796.0590, 30808.00
797.2010, 30988.00
798.3430, 31119.00
799.4850, 30701.00
800.6270, 30862.00
801.7690, 30954.00
802.9100, 30937.00
804.0520, 30704.00
805.1930, 30733.00
806.3340, 30918.00
807.4750, 31053.00
808.6160, 31098.00
809.7560, 30864.00
810.8970, 31166.00
812.0370, 31130.00
813.1770, 31211.00
814.3170, 31298.00
815.4570, 31127.00
816.5960, 31245.00
817.7360, 31110.00
818.8750, 31133.00
820.0140, 31139.00
821.1530, 31512.00
822.2920, 31489.00
823.4310, 31276.00
824.5690, 31480.00
825.7070, 31320.00
826.8460, 31383.00
827.9840, 31547.00
829.1220, 31600.00
830.2590, 31669.00
831.3970, 31711.92
832.5340, 31681.84
833.6710, 31696.00
834.8080, 31616.00
835.9450, 31521.00
837.0820, 31544.00
838.2190, 31599.00
839.3550, 31759.00
840.4910, 31875.00
841.6270, 31748.00
842.7630, 32024.00
843.8990, 32274.00
845.0350, 31948.00
846.1700, 32254.00
847.3060, 32264.00
848.4410, 31982.00
849.5760, 32148.00
850.7100, 32055.00
851.8450, 32251.00
852.9800, 32057.00
854.1140, 32092.00
855.2480, 32176.00
856.3820, 32382.00
857.5160, 32358.00
858.6500, 32335.00
859.7830, 32760.00
860.9170, 32392.00
862.0500, 32418.00
863.1830, 32919.00
864.3160, 32696.00
865.4480, 32453.00
866.5810, 32745.00
867.7130, 32761.00
868.8460, 32665.00
869.9780, 32724.00
871.1100, 32859.00
872.2410, 32659.00
873.3730, 32725.00
874.5050, 32585.00
875.6360, 32693.00
876.7670, 32859.00
877.8980, 32737.00
879.0290, 32869.00
880.1590, 32993.00
881.2900, 32808.00
882.4200, 32832.00
883.5500, 33081.00
884.6800, 32874.00
885.8100, 32926.00
886.9400, 32942.00
888.0690, 32948.00
889.1990, 33322.00
890.3280, 32959.00
891.4570, 33139.00
892.5860, 33021.00
893.7140, 32830.00
894.8430, 33263.00
895.9710, 32965.00
897.1000, 33110.00
898.2280, 32995.00
899.3560, 33096.00
900.4830, 33442.00
901.6110, 33289.00
902.7380, 33335.00
903.8660, 33571.00
904.9930, 33529.00
906.1200, 33456.00
907.2460, 33336.00
908.3730, 33367.00
909.5000, 33327.00
910.6260, 33495.00
911.7520, 33399.00
912.8780, 33412.00
914.0040, 33692.00
915.1290, 33557.00
916.2550, 33345.00
917.3800, 33731.00
918.5050, 33511.00
919.6300, 33670.00
920.7550, 33818.00
921.8800, 33663.00
923.0040, 33787.00
924.1290, 33489.00
925.2530, 33740.00
926.3770, 33771.00
927.5010, 33816.00
928.6250, 33874.00
929.7480, 33960.00
930.8720, 34028.00
931.9950, 34059.00
933.1180, 33988.00
934.2410, 34008.91
935.3640, 33957.93
936.4860, 34005.00
937.6090, 33880.00
938.7310, 33992.00
939.8530, 34007.00
940.9750, 34095.00
942.0970, 34246.00
943.2180, 33814.00
944.3400, 34421.00
945.4610, 34226.00
946.5820, 34023.00
947.7030, 34376.00
948.8240, 34449.00
949.9450, 34115.00
951.0650, 34596.00
952.1860, 34378.00
953.3060, 34559.00
954.4260, 34484.00
955.5460, 34586.00
956.6650, 34545.00
957.7850, 34520.00
958.9040, 34576.00
960.0230, 34765.00
961.1420, 34589.00
962.2610, 34451.00
963.3800, 34891.00
964.4990, 34599.00
965.6170, 34875.00
966.7350, 34637.00
967.8530, 34893.00
968.9710, 34887.00
970.0890, 34830.00
971.2070, 34948.00
972.3240, 34743.00
973.4410, 35038.00
974.5580, 34989.00
975.6750, 34878.00
976.7920, 35111.00
977.9090, 35086.00
979.0250, 34920.00
980.1410, 35148.00
981.2580, 35015.00
982.3740, 35081.00
983.4890, 35194.00
984.6050, 35240.00
985.7200, 35286.45
986.8360, 35332.00
987.9510, 35313.00
989.0660, 35421.00
990.1810, 35374.00
991.2950, 35435.00
992.4100, 35441.00
993.5240, 35490.00
994.6390, 35683.00
995.7530, 35430.00
996.8660, 35595.00
997.9800, 35525.00
999.0940, 35785.00
1000.207, 35907.00
1001.320, 35879.00
1002.433, 36091.00
1003.546, 36180.00
1004.659, 36319.00
1005.772, 35993.00
1006.884, 35859.00
1007.996, 35817.00
1009.108, 35845.00
1010.220, 35984.00
1011.332, 36020.00
1012.444, 35990.00
1013.555, 36236.00
1014.666, 36057.00
1015.777, 36282.00
1016.888, 36221.00
1017.999, 36208.00
1019.110, 36273.00
1020.220, 36318.69
1021.331, 36430.00
1022.441, 36469.00
1023.551, 36551.00
1024.661, 36527.00
1025.770, 36598.00
1026.880, 36638.00
1027.989, 36502.00
1029.098, 36583.00
1030.207, 36401.00
1031.316, 36532.00
1032.425, 36620.00
1033.533, 36439.00
1034.642, 36730.00
1035.750, 36680.00
1036.858, 36891.00
1037.966, 36535.00
1039.073, 36746.00
1040.181, 36499.00
1041.288, 36638.00
1042.396, 36800.00
1043.503, 37174.00
1044.610, 37209.54
1045.716, 36814.00
1046.823, 37376.00
1047.929, 37113.00
1049.036, 37069.00
1050.142, 37325.00
1051.248, 37387.00
1052.353, 37329.00
1053.459, 37398.00
1054.564, 37211.00
1055.670, 37253.00
1056.775, 37148.00
1057.880, 37149.00
1058.985, 37289.00
1060.089, 37323.00
1061.194, 37470.00
1062.298, 37193.00
1063.402, 37262.00
1064.506, 37325.00
1065.610, 37536.00
1066.713, 37384.00
1067.817, 37547.00
1068.920, 37163.00
1070.023, 37377.00
1071.126, 37821.00
1072.229, 37543.00
1073.332, 37654.00
1074.435, 37442.00
1075.537, 37614.00
1076.639, 37738.00
1077.741, 37669.00
1078.843, 37701.00
1079.945, 37819.00
1081.046, 37854.00
1082.148, 37899.00
1083.249, 37874.00
1084.350, 38067.00
1085.451, 38232.00
1086.551, 37898.00
1087.652, 38128.00
1088.752, 37998.00
1089.853, 38036.00
1090.953, 38379.00
1092.053, 38185.00
1093.152, 38225.00
1094.252, 38260.00
1095.351, 38453.00
1096.451, 38300.00
1097.550, 38299.00
1098.649, 38497.00
1099.748, 38317.00
1100.846, 38267.00
1101.945, 38561.00
1103.043, 38547.00
1104.141, 38310.00
1105.239, 38604.00
1106.337, 38415.00
1107.434, 38482.00
1108.532, 38570.00
1109.629, 38504.00
1110.726, 38867.00
1111.823, 38807.00
1112.920, 38776.00
1114.017, 38782.00
1115.113, 38645.00
1116.210, 38545.00
1117.306, 38936.00
1118.402, 38894.00
1119.498, 38843.00
1120.593, 38938.00
1121.689, 38895.00
1122.784, 38983.00
1123.879, 39155.00
1124.974, 39200.00
1126.069, 39275.13
1127.164, 39138.00
1128.259, 39300.00
1129.353, 39193.00
1130.447, 39058.00
1131.541, 39167.00
1132.635, 39172.00
1133.729, 39295.00
1134.822, 39303.24
1135.916, 39392.00
1137.009, 39359.83
1138.102, 39391.00
1139.195, 39466.00
1140.288, 39575.00
1141.380, 39542.00
1142.473, 39553.31
1143.565, 39622.00
1144.657, 39469.00
1145.749, 39495.00
1146.841, 39459.00
1147.932, 39485.16
1149.024, 39576.55
1150.115, 39571.00
1151.206, 39820.00
1152.297, 39793.00
1153.388, 39954.00
1154.479, 39728.00
1155.569, 39838.00
1156.659, 39813.00
1157.750, 40042.00
1158.839, 39705.00
1159.929, 40152.00
1161.019, 39942.00
1162.108, 39879.00
1163.198, 40034.00
1164.287, 40077.00
1165.376, 40086.00
1166.465, 40251.00
1167.553, 40134.00
1168.642, 40214.00
1169.730, 40285.00
1170.818, 40410.00
1171.906, 40450.96
1172.994, 40564.00
1174.082, 40580.00
1175.170, 40434.00
1176.257, 40526.00
1177.344, 40747.00
1178.431, 40368.00
1179.518, 40631.00
1180.605, 40448.00
1181.691, 40338.00
1182.778, 40652.00
1183.864, 40496.00
1184.950, 40497.00
1186.036, 40833.00
1187.122, 40680.00
1188.207, 40773.00
1189.292, 40746.00
1190.378, 40798.00
1191.463, 40852.00
1192.548, 40895.00
1193.632, 40898.00
1194.717, 40887.00
1195.801, 40951.00
1196.886, 41098.00
1197.970, 40846.00
1199.054, 40956.00
1200.137, 41143.00
1201.221, 40999.00
1202.305, 41276.00
1203.388, 41273.00
1204.471, 41349.00
1205.554, 41365.00
1206.637, 41365.00
1207.719, 41342.00
1208.802, 41380.00
1209.884, 41226.00
1210.966, 41673.00
1212.048, 41700.00
1213.130, 41466.00
1214.212, 41413.00
1215.293, 41782.00
1216.374, 41754.00
1217.456, 41559.00
1218.536, 41833.00
1219.617, 41541.00
1220.698, 41763.00
1221.778, 41789.00
1222.859, 41871.00
1223.939, 41681.00
1225.019, 41811.00
1226.099, 41919.00
1227.178, 41806.00
1228.258, 42020.00
1229.337, 42115.00
1230.417, 42059.00
1231.496, 42058.00
1232.574, 42058.00
1233.653, 42204.00
1234.732, 42255.00
1235.810, 42240.00
1236.888, 42346.27
1237.966, 42347.00
1239.044, 42426.00
1240.122, 42464.00
1241.199, 42428.00
1242.277, 42366.00
1243.354, 42374.00
1244.431, 42590.00
1245.508, 42548.00
1246.585, 42591.00
1247.661, 42895.00
1248.738, 42476.00
1249.814, 42589.00
1250.890, 42789.00
1251.966, 42757.00
1253.042, 42676.00
1254.117, 43194.00
1255.193, 42936.00
1256.268, 43056.00
1257.343, 43059.00
1258.418, 43050.00
1259.493, 43007.00
1260.567, 43270.00
1261.642, 43320.00
1262.716, 43250.00
1263.790, 43056.00
1264.864, 43051.00
1265.938, 42866.00
1267.011, 43266.00
1268.085, 43555.00
1269.158, 43257.00
1270.231, 43498.00
1271.304, 43517.00
1272.377, 43647.00
1273.450, 43623.00
1274.522, 43756.00
1275.594, 43534.00
1276.666, 43501.00
1277.738, 43844.00
1278.810, 43667.00
1279.882, 43573.00
1280.953, 43593.00
1282.025, 43698.00
1283.096, 43793.00
1284.167, 43821.77
1285.238, 44006.00
1286.308, 43938.00
1287.379, 43928.00
1288.449, 44043.00
1289.519, 44047.00
1290.589, 43971.00
1291.659, 44107.52
1292.729, 44105.41
1293.798, 44240.00
1294.868, 44261.00
1295.937, 44234.00
1297.006, 44384.00
1298.075, 44139.00
1299.143, 44218.00
1300.212, 44198.00
1301.280, 44244.00
1302.348, 44309.00
1303.416, 44447.00
1304.484, 44412.00
1305.552, 44675.00
1306.620, 44603.00
1307.687, 44437.00
1308.754, 44435.00
1309.821, 44758.00
1310.888, 44768.00
1311.955, 44694.00
1313.021, 44772.00
1314.088, 44793.00
1315.154, 44891.00
1316.220, 44855.00
1317.286, 45044.00
1318.352, 44895.00
1319.417, 45102.00
1320.483, 44924.00
1321.548, 45015.00
1322.613, 45027.00
1323.678, 44986.00
1324.743, 45013.00
1325.807, 45098.00
1326.872, 45080.00
1327.936, 45127.56
1329.000, 45062.00
1330.064, 45182.00
1331.128, 45162.00
1332.191, 45199.00
1333.255, 45364.00
1334.318, 45046.00
1335.381, 45324.00
1336.444, 45416.00
1337.507, 45088.00
1338.569, 45118.00
1339.632, 45305.00
1340.694, 45432.00
1341.756, 45459.00
1342.818, 45124.00
1343.880, 45452.00
1344.941, 45247.00
1346.003, 45529.00
1347.064, 45502.00
1348.125, 45475.00
1349.186, 45503.00
1350.247, 45779.00
1351.308, 45740.00
1352.368, 45714.00
1353.428, 45652.00
1354.489, 45673.00
1355.549, 45670.00
1356.608, 45770.00
1357.668, 45780.00
1358.727, 45725.00
1359.787, 45725.00
1360.846, 45867.00
1361.905, 45862.00
1362.964, 45989.00
1364.022, 46132.00
1365.081, 46024.00
1366.139, 45879.00
1367.197, 46183.00
1368.255, 46101.00
1369.313, 45864.00
1370.371, 46101.00
1371.428, 46377.00
1372.486, 46277.00
1373.543, 46103.00
1374.600, 46302.00
1375.657, 46310.00
1376.713, 46199.00
1377.770, 46459.00
1378.826, 46179.00
1379.882, 46447.00
1380.938, 46447.00
1381.994, 46320.00
1383.050, 46531.00
1384.106, 46707.00
1385.161, 46561.00
1386.216, 46432.00
1387.271, 46377.00
1388.326, 46650.00
1389.381, 46393.00
1390.435, 46839.00
1391.490, 46832.00
1392.544, 46861.00
1393.598, 46769.00
1394.652, 46530.00
1395.705, 46755.00
1396.759, 46867.00
1397.812, 46621.00
1398.866, 46841.00
1399.919, 46931.00
1400.972, 46873.00
1402.024, 46894.00
1403.077, 46828.00
1404.129, 47026.00
1405.181, 46868.00
1406.233, 47055.00
1407.285, 47268.00
1408.337, 46878.00
1409.389, 47134.00
1410.440, 47339.00
1411.491, 47139.00
1412.542, 47065.00
1413.593, 47024.00
1414.644, 47289.00
1415.695, 47160.00
1416.745, 47347.00
1417.795, 47316.00
1418.845, 47430.00
1419.895, 47362.00
1420.945, 47394.00
1421.995, 47307.00
1423.044, 47459.00
1424.093, 47448.00
1425.142, 47522.00
1426.191, 47548.00
1427.240, 47400.00
1428.289, 47638.00
1429.337, 47596.00
1430.385, 47928.00
1431.433, 47677.00
1432.481, 47687.00
1433.529, 47833.00
1434.577, 47978.00
1435.624, 48134.00
1436.672, 48180.00
1437.719, 48339.00
1438.766, 48340.01
1439.812, 48390.00
1440.859, 48324.00
1441.905, 48424.00
1442.952, 48388.00
1443.998, 48663.00
1445.044, 48459.00
1446.090, 48833.00
1447.135, 48431.00
1448.181, 48539.00
1449.226, 48749.00
1450.271, 48724.00
1451.316, 48964.00
1452.361, 48860.00
1453.405, 48945.00
1454.450, 48817.00
1455.494, 49000.00
1456.538, 49228.00
1457.582, 49201.00
1458.626, 49163.00
1459.670, 49281.00
1460.713, 48993.00
1461.757, 48905.00
1462.800, 48909.00
1463.843, 49123.00
1464.886, 48950.00
1465.928, 49253.00
1466.971, 49168.00
1468.013, 49304.00
1469.055, 49017.00
1470.097, 49019.00
1471.139, 48913.00
1472.181, 49183.00
1473.222, 48871.00
1474.263, 49029.00
1475.305, 48959.00
1476.346, 49205.00
1477.386, 49114.00
1478.427, 49042.00
1479.468, 49119.00
1480.508, 49117.00
1481.548, 49187.00
1482.588, 49490.00
1483.628, 49243.00
1484.668, 49157.00
1485.707, 49421.00
1486.747, 49102.00
1487.786, 49357.00
1488.825, 49287.00
1489.864, 49526.00
1490.902, 49274.00
1491.941, 49509.00
1492.979, 49570.00
1494.017, 49445.00
1495.055, 49280.00
1496.093, 49500.00
1497.131, 49862.00
1498.168, 49533.00
1499.206, 49598.00
1500.243, 49323.00
1501.280, 49608.00
1502.317, 49642.00
1503.354, 49795.00
1504.390, 49835.00
1505.426, 49655.00
1506.463, 49989.00
1507.499, 50014.00
1508.535, 49625.00
1509.570, 49770.00
1510.606, 49879.00
1511.641, 50110.00
1512.676, 49801.00
1513.711, 49844.00
1514.746, 50286.00
1515.781, 49813.00
1516.816, 50306.00
1517.850, 50160.00
1518.884, 50361.00
1519.918, 50248.00
1520.952, 49885.00
1521.986, 50419.00
1523.019, 50540.00
1524.053, 50007.00
1525.086, 50353.00
1526.119, 50378.00
1527.152, 50354.00
1528.185, 50758.00
1529.217, 50208.00
1530.250, 50556.00
1531.282, 50594.00
1532.314, 50446.00
1533.346, 50656.00
1534.377, 50577.00
1535.409, 50655.00
1536.440, 50653.00
1537.472, 50701.25
1538.503, 50781.03
1539.534, 50838.00
1540.564, 50914.00
1541.595, 50988.00
1542.625, 50987.00
1543.656, 50917.00
1544.686, 50615.00
1545.716, 50923.00
1546.745, 51148.00
1547.775, 50771.00
1548.804, 50977.00
1549.834, 51054.00
1550.863, 51281.00
1551.892, 51324.00
1552.920, 51237.00
1553.949, 51245.00
1554.977, 51353.00
1556.006, 51128.00
1557.034, 51173.00
1558.062, 51370.00
1559.089, 51467.00
1560.117, 51489.42
1561.144, 51345.00
1562.172, 51456.00
1563.199, 51509.00
1564.226, 51364.00
1565.252, 51502.00
1566.279, 51519.00
1567.305, 51415.00
1568.332, 51432.00
1569.358, 51919.00
1570.384, 51691.00
1571.409, 51904.00
##END=



