##NAMES=Talc
##RRUFFID=R050087
##IDEAL CHEMISTRY=Mg_3_Si_4_O_10_(OH)_2_
##LOCALITY=St. Lawrence County, New York, USA
##OWNER=RRUFF
##SOURCE=University of Arizona Mineral Museum
##DESCRIPTION=An aggregate of colorless foliated coarse single crystals
##STATUS=The identification of this mineral has been confirmed by X-ray diffraction and chemical analysis
##URL=rruff.info/R050087
##MEASURED CHEMISTRY=(Mg_.998_Fe_.002_)_3_(Si_.997_Al_.003_)_4_O_10_(OH_.966_F_.034_)_2_
##PIN_ID=M00180
##ORIENTATION=Laser parallel to b* (0 1 0). Fiducial mark perpendicular to laser is parallel to c [0 0 1]
93.48000, 15421.00
94.71400, 16232.00
95.94800, 16485.00
97.18200, 16993.00
98.41600, 17616.00
99.64900, 18345.00
100.8830, 19281.00
102.1160, 20409.00
103.3490, 21425.00
104.5820, 21540.00
105.8150, 21615.00
107.0470, 22223.00
108.2800, 22681.00
109.5120, 23001.00
110.7440, 22047.00
111.9760, 20980.00
113.2080, 20418.00
114.4400, 20077.00
115.6710, 19469.00
116.9030, 18993.00
118.1340, 18566.00
119.3650, 18233.00
120.5960, 17993.00
121.8270, 17744.00
123.0580, 17617.00
124.2880, 17833.00
125.5190, 17770.00
126.7490, 17799.00
127.9790, 17737.00
129.2090, 17907.00
130.4390, 17798.00
131.6680, 18087.00
132.8980, 18104.00
134.1270, 18059.00
135.3560, 18231.19
136.5850, 18194.00
137.8140, 18410.00
139.0430, 18414.00
140.2710, 18545.00
141.5000, 18573.00
142.7280, 18481.00
143.9560, 18347.00
145.1840, 18561.00
146.4120, 18554.00
147.6390, 18469.00
148.8670, 18435.00
150.0940, 18671.00
151.3210, 18719.00
152.5490, 18853.00
153.7750, 18552.00
155.0020, 18701.00
156.2290, 18633.00
157.4550, 18735.00
158.6810, 18645.00
159.9080, 18897.00
161.1340, 18752.00
162.3590, 18765.00
163.5850, 18922.00
164.8110, 19084.00
166.0360, 19025.00
167.2610, 18901.00
168.4860, 19165.00
169.7110, 19239.00
170.9360, 19145.00
172.1610, 19228.00
173.3850, 19247.00
174.6100, 19386.00
175.8340, 19321.00
177.0580, 19436.00
178.2820, 19582.00
179.5050, 19788.00
180.7290, 19886.00
181.9520, 20108.00
183.1760, 20752.00
184.3990, 22003.00
185.6220, 23113.00
186.8450, 23650.00
188.0670, 23927.00
189.2900, 25487.00
190.5120, 28035.00
191.7340, 30715.00
192.9560, 32150.00
194.1780, 30785.00
195.4000, 28515.00
196.6220, 26242.00
197.8430, 24038.00
199.0640, 22467.00
200.2860, 21561.00
201.5070, 21080.00
202.7270, 20896.00
203.9480, 20778.00
205.1690, 20333.00
206.3890, 19994.00
207.6090, 20107.00
208.8290, 20001.00
210.0490, 20112.00
211.2690, 20102.00
212.4890, 20265.00
213.7080, 20038.00
214.9280, 20209.00
216.1470, 19958.00
217.3660, 20262.00
218.5850, 20250.00
219.8030, 20359.00
221.0220, 20350.00
222.2400, 20375.57
223.4590, 20408.00
224.6770, 20416.00
225.8950, 20395.00
227.1120, 20449.00
228.3300, 20585.00
229.5480, 20425.00
230.7650, 20697.00
231.9820, 20578.00
233.1990, 20532.00
234.4160, 20534.00
235.6330, 20553.00
236.8490, 20736.00
238.0660, 20698.00
239.2820, 20689.00
240.4980, 20535.00
241.7140, 20665.00
242.9300, 20646.00
244.1460, 20573.00
245.3610, 20835.00
246.5770, 20773.00
247.7920, 20882.00
249.0070, 20684.00
250.2220, 20917.00
251.4370, 20817.00
252.6510, 20806.00
253.8660, 20825.00
255.0800, 21012.00
256.2940, 20883.00
257.5080, 20923.00
258.7220, 21217.00
259.9360, 21335.00
261.1490, 21216.00
262.3630, 21042.00
263.5760, 21192.00
264.7890, 21236.00
266.0020, 21243.00
267.2150, 21286.22
268.4270, 21216.00
269.6400, 21290.00
270.8520, 21317.00
272.0640, 21355.00
273.2760, 21545.00
274.4880, 21433.00
275.7000, 21468.00
276.9120, 21758.00
278.1230, 21610.00
279.3340, 21476.00
280.5450, 21636.00
281.7560, 21858.00
282.9670, 22008.00
284.1780, 22039.00
285.3880, 22024.00
286.5980, 22230.00
287.8090, 22437.00
289.0190, 22513.00
290.2290, 22436.00
291.4380, 22314.00
292.6480, 22101.00
293.8570, 22137.00
295.0670, 21987.00
296.2760, 22030.00
297.4850, 22124.00
298.6930, 22035.00
299.9020, 22164.00
301.1110, 22087.00
302.3190, 22109.00
303.5270, 21960.00
304.7350, 22055.00
305.9430, 22045.00
307.1510, 22120.00
308.3580, 22049.00
309.5660, 21997.00
310.7730, 22257.00
311.9800, 22171.00
313.1870, 22410.00
314.3940, 22466.00
315.6010, 22429.00
316.8070, 22575.00
318.0130, 22653.00
319.2200, 22339.00
320.4260, 22711.00
321.6310, 22600.00
322.8370, 22667.00
324.0430, 22823.00
325.2480, 22809.00
326.4540, 23052.00
327.6590, 23249.00
328.8640, 23448.00
330.0680, 23596.00
331.2730, 23626.00
332.4780, 23731.00
333.6820, 23739.32
334.8860, 23591.00
336.0900, 23663.00
337.2940, 23609.00
338.4980, 23616.44
339.7010, 23547.00
340.9050, 23676.00
342.1080, 23684.00
343.3110, 23728.00
344.5140, 24142.00
345.7170, 24579.00
346.9200, 24587.00
348.1220, 24725.00
349.3240, 25398.00
350.5270, 26230.00
351.7290, 26939.00
352.9310, 27906.00
354.1320, 28832.00
355.3340, 30065.00
356.5350, 31295.00
357.7370, 32477.00
358.9380, 33706.00
360.1390, 34343.00
361.3400, 34594.00
362.5400, 33251.00
363.7410, 31760.00
364.9410, 30203.00
366.1410, 28533.00
367.3410, 27480.00
368.5410, 26531.00
369.7410, 25689.00
370.9400, 25558.00
372.1400, 25116.00
373.3390, 24976.00
374.5380, 25086.00
375.7370, 24911.00
376.9360, 25054.00
378.1350, 25198.00
379.3330, 24838.00
380.5310, 24776.00
381.7300, 24720.00
382.9280, 24578.00
384.1260, 24535.00
385.3230, 24354.00
386.5210, 24312.99
387.7180, 24268.00
388.9160, 24234.00
390.1130, 24196.00
391.3100, 24241.00
392.5060, 24102.00
393.7030, 24333.00
394.9000, 24159.00
396.0960, 24375.00
397.2920, 24279.00
398.4880, 24118.00
399.6840, 24315.00
400.8800, 24366.00
402.0750, 24285.00
403.2710, 24310.00
404.4660, 24434.00
405.6610, 24287.00
406.8560, 24296.00
408.0510, 24367.00
409.2450, 24462.00
410.4400, 24524.00
411.6340, 24295.00
412.8280, 24402.00
414.0220, 24588.00
415.2160, 24498.00
416.4100, 24696.00
417.6030, 24726.00
418.7970, 24859.00
419.9900, 24958.74
421.1830, 25072.00
422.3760, 25155.00
423.5690, 25317.00
424.7610, 25453.00
425.9540, 25814.00
427.1460, 26040.00
428.3380, 26314.00
429.5300, 26568.00
430.7220, 27052.00
431.9140, 26887.00
433.1050, 26986.00
434.2970, 26530.00
435.4880, 26074.00
436.6790, 25614.00
437.8700, 25515.00
439.0610, 25317.00
440.2510, 25211.00
441.4420, 25271.00
442.6320, 25272.00
443.8220, 25295.00
445.0120, 25466.00
446.2020, 25464.00
447.3910, 25445.00
448.5810, 25475.00
449.7700, 25351.00
450.9600, 25497.99
452.1490, 25477.00
453.3370, 25691.00
454.5260, 25730.00
455.7150, 25714.00
456.9030, 25905.00
458.0910, 26016.00
459.2800, 26076.00
460.4670, 26493.00
461.6550, 26697.00
462.8430, 26891.00
464.0300, 27150.00
465.2180, 27680.00
466.4050, 27891.00
467.5920, 27978.00
468.7790, 27819.00
469.9650, 27381.00
471.1520, 26769.00
472.3380, 26567.00
473.5250, 26245.00
474.7110, 26084.00
475.8970, 26141.00
477.0820, 26018.00
478.2680, 25992.35
479.4540, 25984.00
480.6390, 25917.00
481.8240, 26069.00
483.0090, 26014.00
484.1940, 26179.00
485.3780, 26143.00
486.5630, 26217.00
487.7470, 26020.00
488.9320, 26199.00
490.1160, 26291.00
491.3000, 26500.00
492.4830, 26490.00
493.6670, 26433.00
494.8500, 26666.00
496.0340, 26193.00
497.2170, 26485.00
498.4000, 26414.00
499.5820, 26554.00
500.7650, 26561.00
501.9480, 26564.00
503.1300, 26573.00
504.3120, 26703.00
505.4940, 26950.00
506.6760, 26920.00
507.8580, 26916.00
509.0390, 26863.00
510.2210, 26687.00
511.4020, 26827.00
512.5830, 26778.00
513.7640, 26795.00
514.9450, 26913.00
516.1250, 26949.00
517.3060, 27059.00
518.4860, 26990.00
519.6660, 27018.00
520.8460, 26881.00
522.0260, 27207.00
523.2060, 27025.00
524.3850, 27096.00
525.5650, 26954.00
526.7440, 26998.00
527.9230, 27055.00
529.1020, 27047.68
530.2810, 27001.00
531.4590, 27212.00
532.6380, 27265.00
533.8160, 27472.00
534.9940, 27178.00
536.1720, 27287.00
537.3500, 27223.00
538.5270, 27360.00
539.7050, 27231.00
540.8820, 27326.00
542.0590, 27409.00
543.2360, 27399.00
544.4130, 27373.00
545.5900, 27457.51
546.7660, 27495.00
547.9430, 27573.00
549.1190, 27621.00
550.2950, 27670.00
551.4710, 27742.00
552.6470, 27757.67
553.8220, 27819.00
554.9980, 27817.31
556.1730, 27783.08
557.3480, 27849.00
558.5230, 27846.00
559.6980, 27887.71
560.8730, 27849.00
562.0470, 28002.00
563.2220, 28066.00
564.3960, 28170.00
565.5700, 28066.00
566.7440, 28076.00
567.9170, 28170.00
569.0910, 28099.00
570.2640, 28183.00
571.4380, 28240.00
572.6110, 28021.00
573.7840, 28229.00
574.9570, 28176.00
576.1290, 28356.00
577.3020, 28304.00
578.4740, 28190.00
579.6460, 28446.00
580.8180, 28272.00
581.9900, 28238.00
583.1620, 28203.00
584.3330, 28462.00
585.5040, 28164.00
586.6760, 28498.00
587.8470, 28387.00
589.0180, 28490.00
590.1880, 28396.00
591.3590, 28588.00
592.5290, 28744.00
593.7000, 28512.00
594.8700, 28836.00
596.0400, 28453.00
597.2090, 28631.00
598.3790, 28868.00
599.5490, 28635.00
600.7180, 28779.00
601.8870, 28677.00
603.0560, 28749.00
604.2250, 28952.00
605.3940, 28948.00
606.5620, 28903.00
607.7300, 29157.00
608.8990, 28872.00
610.0670, 29114.00
611.2350, 28949.00
612.4020, 29133.00
613.5700, 29261.00
614.7370, 29213.00
615.9050, 29160.00
617.0720, 29307.00
618.2390, 29286.94
619.4060, 29380.00
620.5720, 29402.00
621.7390, 29398.00
622.9050, 29455.00
624.0710, 29556.00
625.2370, 29367.00
626.4030, 29564.00
627.5690, 29500.00
628.7340, 29535.00
629.9000, 29681.00
631.0650, 29706.00
632.2300, 29811.00
633.3950, 29897.00
634.5600, 29930.00
635.7240, 29935.00
636.8890, 30002.00
638.0530, 29954.00
639.2170, 30192.00
640.3810, 30161.00
641.5450, 30446.00
642.7080, 30136.00
643.8720, 30346.00
645.0350, 30361.00
646.1980, 30474.00
647.3610, 30635.00
648.5240, 30762.00
649.6870, 30696.00
650.8490, 30752.00
652.0120, 31030.00
653.1740, 30994.00
654.3360, 31275.00
655.4980, 31411.00
656.6600, 31552.00
657.8210, 32153.00
658.9830, 32299.00
660.1440, 32450.00
661.3050, 33274.00
662.4660, 33572.00
663.6270, 34693.00
664.7870, 35587.00
665.9480, 36831.00
667.1080, 38559.00
668.2680, 40418.00
669.4280, 43080.00
670.5880, 45595.00
671.7480, 48387.00
672.9070, 50886.00
674.0670, 52914.00
675.2260, 53652.00
676.3850, 53104.00
677.5440, 51608.00
678.7030, 48670.00
679.8610, 45995.00
681.0200, 42974.00
682.1780, 40452.00
683.3360, 38722.00
684.4940, 37134.00
685.6520, 35972.00
686.8090, 35215.00
687.9670, 34296.00
689.1240, 33915.00
690.2810, 33323.00
691.4380, 33050.00
692.5950, 32710.00
693.7520, 32657.00
694.9080, 32610.00
696.0650, 32488.00
697.2210, 32508.00
698.3770, 32126.00
699.5330, 32035.00
700.6880, 32135.00
701.8440, 31948.00
702.9990, 32002.00
704.1550, 31971.00
705.3100, 31685.00
706.4650, 32068.00
707.6190, 31939.00
708.7740, 31841.00
709.9290, 32147.00
711.0830, 32170.00
712.2370, 32000.00
713.3910, 31756.00
714.5450, 32012.00
715.6980, 31775.00
716.8520, 32125.00
718.0050, 32136.00
719.1580, 32218.00
720.3110, 32202.00
721.4640, 32208.81
722.6170, 32046.00
723.7700, 32175.00
724.9220, 32122.00
726.0740, 32095.00
727.2260, 32143.75
728.3780, 32160.00
729.5300, 32184.00
730.6810, 32209.37
731.8330, 32205.00
732.9840, 32242.00
734.1350, 32240.85
735.2860, 32245.83
736.4370, 32335.00
737.5880, 32291.00
738.7380, 32303.53
739.8880, 32274.23
741.0390, 32247.00
742.1890, 32260.00
743.3380, 32192.00
744.4880, 32371.00
745.6380, 32631.00
746.7870, 32736.00
747.9360, 32600.00
749.0850, 32748.00
750.2340, 32578.00
751.3830, 32782.00
752.5310, 32670.00
753.6800, 32604.00
754.8280, 32758.00
755.9760, 32695.00
757.1240, 32801.00
758.2720, 32805.00
759.4190, 32833.80
760.5670, 32755.00
761.7140, 32824.00
762.8610, 32886.00
764.0080, 32701.00
765.1550, 32823.70
766.3020, 32845.57
767.4480, 32898.00
768.5950, 33003.00
769.7410, 33048.00
770.8870, 33120.00
772.0330, 33207.00
773.1780, 33175.00
774.3240, 33227.00
775.4690, 33238.00
776.6140, 33184.00
777.7590, 33395.00
778.9040, 33618.00
780.0490, 33583.00
781.1940, 33817.00
782.3380, 33985.00
783.4820, 33937.00
784.6260, 34093.00
785.7700, 34106.00
786.9140, 34336.00
788.0580, 34398.00
789.2010, 34856.00
790.3450, 34896.00
791.4880, 34993.00
792.6310, 34875.00
793.7730, 34909.00
794.9160, 34611.00
796.0590, 34779.00
797.2010, 34519.00
798.3430, 34288.00
799.4850, 34247.00
800.6270, 34082.00
801.7690, 33975.00
802.9100, 34041.00
804.0520, 33824.00
805.1930, 34214.00
806.3340, 34300.00
807.4750, 34030.00
808.6160, 34078.00
809.7560, 34024.00
810.8970, 34029.00
812.0370, 34199.00
813.1770, 34215.00
814.3170, 34104.00
815.4570, 34107.00
816.5960, 34328.00
817.7360, 34309.00
818.8750, 34430.00
820.0140, 34255.00
821.1530, 34342.00
822.2920, 34397.00
823.4310, 34224.00
824.5690, 34286.00
825.7070, 34539.00
826.8460, 34493.00
827.9840, 34437.00
829.1220, 34620.00
830.2590, 34471.00
831.3970, 34732.00
832.5340, 34350.00
833.6710, 34613.00
834.8080, 34629.00
835.9450, 34493.00
837.0820, 34565.00
838.2190, 34582.00
839.3550, 34803.00
840.4910, 34891.00
841.6270, 34763.00
842.7630, 34755.00
843.8990, 34835.00
845.0350, 34946.00
846.1700, 34976.04
847.3060, 34877.00
848.4410, 35128.00
849.5760, 34920.00
850.7100, 35022.00
851.8450, 34978.00
852.9800, 35140.00
854.1140, 34969.00
855.2480, 35206.00
856.3820, 35226.00
857.5160, 35137.00
858.6500, 35184.00
859.7830, 35144.00
860.9170, 35468.00
862.0500, 35044.00
863.1830, 35333.00
864.3160, 35495.00
865.4480, 35154.00
866.5810, 35491.00
867.7130, 35509.00
868.8460, 35283.00
869.9780, 35581.00
871.1100, 35336.00
872.2410, 35471.00
873.3730, 35645.00
874.5050, 35688.00
875.6360, 35474.00
876.7670, 35512.00
877.8980, 35673.00
879.0290, 35702.00
880.1590, 35893.00
881.2900, 35580.00
882.4200, 35475.00
883.5500, 35637.00
884.6800, 35764.00
885.8100, 36039.00
886.9400, 35632.00
888.0690, 35884.00
889.1990, 35816.00
890.3280, 36004.00
891.4570, 35834.00
892.5860, 35978.00
893.7140, 35844.00
894.8430, 36063.00
895.9710, 36282.00
897.1000, 36012.00
898.2280, 36158.00
899.3560, 36211.00
900.4830, 36326.00
901.6110, 36370.97
902.7380, 36314.00
903.8660, 36353.00
904.9930, 36380.00
906.1200, 36178.00
907.2460, 36152.00
908.3730, 36235.00
909.5000, 36631.00
910.6260, 36586.00
911.7520, 36540.00
912.8780, 36535.00
914.0040, 36553.00
915.1290, 36515.00
916.2550, 36772.00
917.3800, 36645.00
918.5050, 36709.00
919.6300, 36850.00
920.7550, 36714.00
921.8800, 36718.00
923.0040, 36798.00
924.1290, 36775.57
925.2530, 36966.00
926.3770, 36934.00
927.5010, 36871.00
928.6250, 37070.00
929.7480, 36904.00
930.8720, 36831.00
931.9950, 37064.00
933.1180, 37253.00
934.2410, 37249.00
935.3640, 37066.00
936.4860, 37468.00
937.6090, 37137.00
938.7310, 37273.00
939.8530, 37383.00
940.9750, 37428.00
942.0970, 37466.00
943.2180, 37282.00
944.3400, 37602.00
945.4610, 37314.00
946.5820, 37346.00
947.7030, 37624.00
948.8240, 37618.00
949.9450, 37653.00
951.0650, 37870.00
952.1860, 37628.00
953.3060, 37673.00
954.4260, 37618.00
955.5460, 37673.00
956.6650, 37793.00
957.7850, 37912.00
958.9040, 37998.00
960.0230, 38041.18
961.1420, 38064.00
962.2610, 38069.00
963.3800, 38229.00
964.4990, 38224.00
965.6170, 38223.15
966.7350, 38264.91
967.8530, 38200.00
968.9710, 38231.00
970.0890, 38306.00
971.2070, 38248.00
972.3240, 38195.00
973.4410, 38398.00
974.5580, 38357.00
975.6750, 38620.00
976.7920, 38544.00
977.9090, 38437.00
979.0250, 38439.00
980.1410, 38657.00
981.2580, 38590.00
982.3740, 38382.00
983.4890, 38562.00
984.6050, 38870.00
985.7200, 38747.00
986.8360, 39105.00
987.9510, 38938.00
989.0660, 38925.00
990.1810, 38959.00
991.2950, 38957.00
992.4100, 39100.00
993.5240, 38815.00
994.6390, 39066.00
995.7530, 38951.00
996.8660, 39281.00
997.9800, 39020.00
999.0940, 39360.00
1000.207, 38948.00
1001.320, 39267.00
1002.433, 39331.00
1003.546, 39130.00
1004.659, 39430.00
1005.772, 39286.00
1006.884, 39458.00
1007.996, 39580.00
1009.108, 39594.00
1010.220, 39515.00
1011.332, 39568.00
1012.444, 39561.80
1013.555, 39829.00
1014.666, 39706.00
1015.777, 39852.00
1016.888, 40154.00
1017.999, 39842.00
1019.110, 39933.00
1020.220, 40401.00
1021.331, 40051.00
1022.441, 39773.00
1023.551, 40028.00
1024.661, 39974.00
1025.770, 40061.00
1026.880, 39917.00
1027.989, 39942.00
1029.098, 39937.00
1030.207, 40048.00
1031.316, 40049.00
1032.425, 40024.00
1033.533, 40047.00
1034.642, 40079.00
1035.750, 40071.03
1036.858, 40234.00
1037.966, 40125.00
1039.073, 40279.00
1040.181, 40402.00
1041.288, 40337.00
1042.396, 40217.00
1043.503, 40598.00
1044.610, 40688.00
1045.716, 40548.00
1046.823, 40834.00
1047.929, 40920.00
1049.036, 40978.00
1050.142, 41265.00
1051.248, 41228.00
1052.353, 41081.00
1053.459, 40845.00
1054.564, 41084.00
1055.670, 40991.00
1056.775, 40962.00
1057.880, 40532.00
1058.985, 40665.00
1060.089, 40662.00
1061.194, 40819.00
1062.298, 40694.00
1063.402, 40981.00
1064.506, 41252.00
1065.610, 41007.00
1066.713, 40843.00
1067.817, 40804.00
1068.920, 41211.00
1070.023, 41065.00
1071.126, 41197.00
1072.229, 40933.00
1073.332, 40784.00
1074.435, 41003.00
1075.537, 41166.00
1076.639, 41247.00
1077.741, 41035.00
1078.843, 41207.00
1079.945, 41338.00
1081.046, 41366.00
1082.148, 41532.00
1083.249, 41366.00
1084.350, 41308.00
1085.451, 41361.00
1086.551, 41400.00
1087.652, 41361.00
1088.752, 41195.00
1089.853, 41160.00
1090.953, 41656.00
1092.053, 41321.00
1093.152, 41443.00
1094.252, 41790.00
1095.351, 41546.00
1096.451, 41391.00
1097.550, 41586.00
1098.649, 41761.00
1099.748, 41539.00
1100.846, 41512.00
1101.945, 41813.00
1103.043, 41922.00
1104.141, 41719.00
1105.239, 41714.00
1106.337, 41758.00
1107.434, 41810.00
1108.532, 41939.00
1109.629, 42089.00
1110.726, 42066.00
1111.823, 42239.00
1112.920, 42239.00
1114.017, 42355.00
1115.113, 42240.00
1116.210, 42205.00
1117.306, 42068.00
1118.402, 42195.00
1119.498, 42218.00
1120.593, 42565.00
1121.689, 42542.00
1122.784, 42645.36
1123.879, 42920.00
1124.974, 42665.00
1126.069, 42815.00
1127.164, 42689.00
1128.259, 42576.00
1129.353, 42516.00
1130.447, 42538.29
1131.541, 42395.00
1132.635, 42623.00
1133.729, 42671.00
1134.822, 42622.00
1135.916, 42480.00
1137.009, 42650.00
1138.102, 42749.00
1139.195, 42809.00
1140.288, 42938.00
1141.380, 42959.33
1142.473, 42759.00
1143.565, 42990.00
1144.657, 42819.00
1145.749, 42759.00
1146.841, 42962.00
1147.932, 42975.00
1149.024, 42997.00
1150.115, 42826.00
1151.206, 42926.00
1152.297, 42833.00
1153.388, 42983.00
1154.479, 43123.00
1155.569, 43123.00
1156.659, 43200.00
1157.750, 43580.00
1158.839, 43437.00
1159.929, 43061.00
1161.019, 43471.00
1162.108, 42990.00
1163.198, 43338.00
1164.287, 43405.00
1165.376, 43483.00
1166.465, 43227.00
1167.553, 43227.00
1168.642, 43315.00
1169.730, 43712.00
1170.818, 43504.00
1171.906, 43329.00
1172.994, 43607.00
1174.082, 43430.00
1175.170, 43421.00
1176.257, 43990.00
1177.344, 43772.00
1178.431, 43662.00
1179.518, 43790.00
1180.605, 43725.00
1181.691, 43947.00
1182.778, 43979.00
1183.864, 43991.38
1184.950, 44018.00
1186.036, 43977.00
1187.122, 43989.00
1188.207, 43983.21
1189.292, 43967.00
1190.378, 43971.00
1191.463, 43992.00
1192.548, 43980.00
1193.632, 44014.50
1194.717, 44035.34
1195.801, 44129.00
1196.886, 44108.00
1197.970, 44116.16
1199.054, 44349.00
1200.137, 44099.00
1201.221, 44105.00
1202.305, 44151.00
1203.388, 44308.00
1204.471, 44556.00
1205.554, 44611.00
1206.637, 44531.00
1207.719, 44477.00
1208.802, 44750.00
1209.884, 44584.00
1210.966, 44644.00
1212.048, 44650.00
1213.130, 44352.00
1214.212, 44646.00
1215.293, 44442.88
1216.374, 44919.00
1217.456, 44217.00
1218.536, 44943.00
1219.617, 44728.00
1220.698, 45147.00
1221.778, 45120.00
1222.859, 44981.00
1223.939, 45088.00
1225.019, 44877.00
1226.099, 45130.00
1227.178, 45008.00
1228.258, 45051.00
1229.337, 45162.00
1230.417, 44973.00
1231.496, 45131.00
1232.574, 45305.00
1233.653, 45018.00
1234.732, 45449.00
1235.810, 45205.00
1236.888, 45327.00
1237.966, 44952.00
1239.044, 45522.00
1240.122, 45265.00
1241.199, 45246.00
1242.277, 45571.00
1243.354, 45727.00
1244.431, 45496.00
1245.508, 45310.00
1246.585, 45351.00
1247.661, 45644.00
1248.738, 45918.00
1249.814, 45621.00
1250.890, 46056.00
1251.966, 45796.00
1253.042, 45738.00
1254.117, 45862.00
1255.193, 45956.00
1256.268, 46052.00
1257.343, 45821.00
1258.418, 46099.00
1259.493, 46059.00
1260.567, 46081.00
1261.642, 46341.00
1262.716, 45774.00
1263.790, 46018.00
1264.864, 46088.00
1265.938, 46054.00
1267.011, 46317.00
1268.085, 46362.00
1269.158, 46134.00
1270.231, 46289.00
1271.304, 46126.00
1272.377, 46134.00
1273.450, 46318.00
1274.522, 46267.00
1275.594, 46669.00
1276.666, 46383.00
1277.738, 46640.00
1278.810, 46314.00
1279.882, 46479.00
1280.953, 46656.00
1282.025, 46522.00
1283.096, 46733.00
1284.167, 46951.00
1285.238, 46876.00
1286.308, 46991.48
1287.379, 47014.00
1288.449, 46980.00
1289.519, 46953.00
1290.589, 46936.00
1291.659, 46883.00
1292.729, 47159.00
1293.798, 47187.00
1294.868, 47198.00
1295.937, 47168.00
1297.006, 47205.00
1298.075, 47324.00
1299.143, 47019.00
1300.212, 47155.00
1301.280, 47231.00
1302.348, 47584.00
1303.416, 47355.00
1304.484, 47151.00
1305.552, 47012.00
1306.620, 47391.00
1307.687, 47355.00
1308.754, 47418.00
1309.821, 47428.00
1310.888, 47280.00
1311.955, 47844.00
1313.021, 47502.00
1314.088, 47679.00
1315.154, 47382.00
1316.220, 47805.00
1317.286, 47775.00
1318.352, 47938.00
1319.417, 47679.00
1320.483, 47924.00
1321.548, 47971.00
1322.613, 47735.00
1323.678, 48312.00
1324.743, 47717.00
1325.807, 48122.00
1326.872, 48053.00
1327.936, 47982.00
1329.000, 48025.00
1330.064, 47962.00
1331.128, 48010.00
1332.191, 47802.00
1333.255, 48188.00
1334.318, 47910.00
1335.381, 48376.00
1336.444, 48354.00
1337.507, 48407.00
1338.569, 48204.00
1339.632, 48260.00
1340.694, 48265.00
1341.756, 48271.44
1342.818, 48266.00
1343.880, 48426.00
1344.941, 48594.00
1346.003, 48721.00
1347.064, 48575.00
1348.125, 48711.59
1349.186, 48553.00
1350.247, 48790.00
1351.308, 48706.00
1352.368, 48805.00
1353.428, 48712.00
1354.489, 48638.00
1355.549, 48822.00
1356.608, 48622.00
1357.668, 48797.00
1358.727, 49111.00
1359.787, 48953.00
1360.846, 48918.00
1361.905, 48998.00
1362.964, 48995.00
1364.022, 48698.00
1365.081, 48753.00
1366.139, 48855.00
1367.197, 48918.00
1368.255, 49291.00
1369.313, 48965.00
1370.371, 49337.00
1371.428, 49435.00
1372.486, 49082.00
1373.543, 49390.00
1374.600, 49275.00
1375.657, 49497.00
1376.713, 49455.00
1377.770, 49456.00
1378.826, 49575.00
1379.882, 49352.00
1380.938, 49594.00
1381.994, 49273.00
1383.050, 49384.00
1384.106, 49663.00
1385.161, 49624.00
1386.216, 49652.00
1387.271, 49763.00
1388.326, 49840.00
1389.381, 49811.37
1390.435, 49831.00
1391.490, 49748.00
1392.544, 49596.00
1393.598, 49552.00
1394.652, 49990.00
1395.705, 49626.00
1396.759, 49801.00
1397.812, 50214.00
1398.866, 49750.00
1399.919, 50006.00
1400.972, 50048.00
1402.024, 49895.00
1403.077, 49985.00
1404.129, 49928.68
1405.181, 50082.00
1406.233, 49992.00
1407.285, 49982.00
1408.337, 50232.00
1409.389, 50290.00
1410.440, 50384.00
1411.491, 50260.00
1412.542, 50233.00
1413.593, 50434.00
1414.644, 50322.00
1415.695, 50371.00
1416.745, 50409.00
1417.795, 50340.00
1418.845, 50525.00
1419.895, 50053.00
1420.945, 50501.00
1421.995, 50482.00
1423.044, 50478.00
1424.093, 50785.00
1425.142, 50686.00
1426.191, 50662.00
1427.240, 50790.00
1428.289, 50431.00
1429.337, 50918.00
1430.385, 50926.00
1431.433, 51050.00
1432.481, 50796.00
1433.529, 50621.00
1434.577, 51092.00
1435.624, 50629.00
1436.672, 50883.00
1437.719, 50891.00
1438.766, 50937.00
1439.812, 51001.00
1440.859, 51055.00
1441.905, 50929.00
1442.952, 51302.00
1443.998, 51198.00
1445.044, 51146.00
1446.090, 51300.00
1447.135, 51290.00
1448.181, 51080.00
1449.226, 51147.30
1450.271, 51057.00
1451.316, 51163.00
1452.361, 51416.00
1453.405, 51704.00
1454.450, 51736.00
1455.494, 51745.77
1456.538, 51577.00
1457.582, 51473.00
1458.626, 51434.00
1459.670, 51394.31
1460.713, 51380.92
1461.757, 51443.00
1462.800, 51444.00
1463.843, 51511.00
1464.886, 51634.00
1465.928, 51688.00
1466.971, 52001.00
1468.013, 51768.00
1469.055, 51972.00
1470.097, 52073.00
1471.139, 51858.00
1472.181, 51818.00
1473.222, 51790.00
1474.263, 51739.00
1475.305, 51868.00
1476.346, 51984.00
1477.386, 52025.00
1478.427, 52068.00
1479.468, 52188.00
1480.508, 51901.00
1481.548, 52078.00
1482.588, 52114.00
1483.628, 52091.00
1484.668, 52414.00
1485.707, 52479.00
1486.747, 52412.00
1487.786, 52164.00
1488.825, 52040.00
1489.864, 52365.00
1490.902, 52279.00
1491.941, 52529.00
1492.979, 52582.43
1494.017, 52448.00
1495.055, 52628.00
1496.093, 52306.00
1497.131, 52144.00
1498.168, 52807.00
1499.206, 52505.00
1500.243, 52697.00
1501.280, 52690.00
1502.317, 52773.00
1503.354, 52845.30
1504.390, 52500.00
1505.426, 52803.00
1506.463, 52864.00
1507.499, 52542.00
1508.535, 53110.00
1509.570, 52785.00
1510.606, 52701.00
1511.641, 52849.00
1512.676, 52996.00
1513.711, 52889.00
1514.746, 53065.00
1515.781, 53114.88
1516.816, 53272.00
1517.850, 53273.00
1518.884, 53173.00
1519.918, 53190.00
1520.952, 53280.00
1521.986, 53257.00
1523.019, 53350.00
1524.053, 53427.00
1525.086, 53369.00
1526.119, 53503.08
1527.152, 53283.00
1528.185, 53616.00
1529.217, 53527.00
1530.250, 53442.00
1531.282, 53773.00
1532.314, 53433.00
1533.346, 53364.00
1534.377, 53707.00
1535.409, 53849.00
1536.440, 53612.00
1537.472, 54156.00
1538.503, 53881.00
1539.534, 53675.00
1540.564, 54393.00
1541.595, 53864.00
1542.625, 53874.00
1543.656, 53721.00
1544.686, 53834.00
1545.716, 54059.00
1546.745, 54013.00
1547.775, 54177.00
1548.804, 54123.00
1549.834, 54325.00
1550.863, 54350.00
1551.892, 54478.00
1552.920, 54425.00
1553.949, 54467.46
1554.977, 54526.00
1556.006, 54413.00
1557.034, 54455.00
1558.062, 54319.00
1559.089, 54126.00
1560.117, 54208.00
1561.144, 54303.00
1562.172, 54558.00
1563.199, 54429.00
1564.226, 54613.00
1565.252, 54824.00
1566.279, 54711.00
1567.305, 54714.00
1568.332, 54695.00
1569.358, 54738.00
1570.384, 55307.00
##END=



