##NAMES=Talc
##RRUFFID=R050087
##IDEAL CHEMISTRY=Mg_3_Si_4_O_10_(OH)_2_
##LOCALITY=St. Lawrence County, New York, USA
##OWNER=RRUFF
##SOURCE=University of Arizona Mineral Museum
##DESCRIPTION=An aggregate of colorless foliated coarse single crystals
##STATUS=The identification of this mineral has been confirmed by X-ray diffraction and chemical analysis
##URL=rruff.info/R050087
##MEASURED CHEMISTRY=(Mg_.998_Fe_.002_)_3_(Si_.997_Al_.003_)_4_O_10_(OH_.966_F_.034_)_2_
##PIN_ID=M00180
##ORIENTATION=Laser parallel to b* (0 1 0). Fiducial mark perpendicular to laser is parallel to c [0 0 1]
93.48000, 13417.00
94.71400, 13825.00
95.94800, 14118.88
97.18200, 14363.00
98.41600, 14801.00
99.64900, 15195.00
100.8830, 15591.00
102.1160, 16164.00
103.3490, 16695.00
104.5820, 16830.00
105.8150, 17002.00
107.0470, 17548.00
108.2800, 17893.00
109.5120, 18240.00
110.7440, 17891.00
111.9760, 17495.00
113.2080, 17451.00
114.4400, 17484.00
115.6710, 17635.00
116.9030, 17067.00
118.1340, 16737.00
119.3650, 16506.00
120.5960, 16312.00
121.8270, 16136.00
123.0580, 15910.00
124.2880, 15898.00
125.5190, 15859.00
126.7490, 15798.00
127.9790, 16103.00
129.2090, 15940.00
130.4390, 16137.00
131.6680, 16103.00
132.8980, 16275.00
134.1270, 16082.00
135.3560, 16149.00
136.5850, 16319.00
137.8140, 16346.00
139.0430, 16549.00
140.2710, 16618.00
141.5000, 16611.00
142.7280, 16725.00
143.9560, 16636.00
145.1840, 16615.00
146.4120, 16723.00
147.6390, 16873.00
148.8670, 16681.00
150.0940, 16906.00
151.3210, 16942.00
152.5490, 16804.00
153.7750, 16881.00
155.0020, 16829.00
156.2290, 16927.00
157.4550, 16905.00
158.6810, 16935.00
159.9080, 17006.18
161.1340, 16939.00
162.3590, 17159.00
163.5850, 17136.00
164.8110, 17266.00
166.0360, 17341.00
167.2610, 17408.00
168.4860, 17235.00
169.7110, 17244.00
170.9360, 17471.00
172.1610, 17418.00
173.3850, 17557.00
174.6100, 17644.00
175.8340, 17881.00
177.0580, 17927.00
178.2820, 17954.00
179.5050, 18317.00
180.7290, 18763.00
181.9520, 19674.00
183.1760, 21672.00
184.3990, 24814.00
185.6220, 28026.00
186.8450, 29439.00
188.0670, 29304.00
189.2900, 32820.00
190.5120, 38363.00
191.7340, 43789.00
192.9560, 46978.00
194.1780, 45323.00
195.4000, 42053.00
196.6220, 38075.00
197.8430, 32451.00
199.0640, 26468.00
200.2860, 22679.00
201.5070, 20670.00
202.7270, 19667.00
203.9480, 19164.00
205.1690, 18938.00
206.3890, 18593.00
207.6090, 18630.00
208.8290, 18485.00
210.0490, 18435.00
211.2690, 18379.00
212.4890, 18435.00
213.7080, 18485.00
214.9280, 18434.00
216.1470, 18319.00
217.3660, 18386.00
218.5850, 18502.00
219.8030, 18544.00
221.0220, 18697.00
222.2400, 18569.00
223.4590, 18689.00
224.6770, 18794.00
225.8950, 18759.00
227.1120, 18886.00
228.3300, 18902.00
229.5480, 18915.71
230.7650, 18881.00
231.9820, 18913.00
233.1990, 18829.00
234.4160, 18761.00
235.6330, 18921.00
236.8490, 18881.00
238.0660, 18805.00
239.2820, 18863.00
240.4980, 18811.00
241.7140, 19006.00
242.9300, 18927.00
244.1460, 19079.00
245.3610, 18762.00
246.5770, 18977.00
247.7920, 19087.00
249.0070, 19029.00
250.2220, 19247.00
251.4370, 19157.00
252.6510, 18944.00
253.8660, 19225.00
255.0800, 19157.00
256.2940, 19257.00
257.5080, 19146.00
258.7220, 19310.00
259.9360, 19417.00
261.1490, 19513.00
262.3630, 19438.00
263.5760, 19685.00
264.7890, 19436.00
266.0020, 19462.00
267.2150, 19360.00
268.4270, 19528.00
269.6400, 19657.00
270.8520, 19793.00
272.0640, 19744.00
273.2760, 19778.85
274.4880, 19492.00
275.7000, 19666.00
276.9120, 19839.00
278.1230, 19748.00
279.3340, 20065.00
280.5450, 20215.00
281.7560, 20320.00
282.9670, 20468.00
284.1780, 20649.00
285.3880, 20830.00
286.5980, 21343.00
287.8090, 21678.00
289.0190, 21724.00
290.2290, 21849.00
291.4380, 21204.00
292.6480, 21034.00
293.8570, 20890.00
295.0670, 20466.00
296.2760, 20449.00
297.4850, 20490.00
298.6930, 20380.00
299.9020, 20422.55
301.1110, 20322.00
302.3190, 20446.00
303.5270, 20472.00
304.7350, 20509.00
305.9430, 20547.00
307.1510, 20342.00
308.3580, 20467.00
309.5660, 20475.00
310.7730, 20461.00
311.9800, 20548.00
313.1870, 20598.00
314.3940, 20654.00
315.6010, 20672.00
316.8070, 20621.00
318.0130, 20619.00
319.2200, 20769.00
320.4260, 20704.00
321.6310, 20826.00
322.8370, 20949.00
324.0430, 20823.00
325.2480, 21043.00
326.4540, 20925.00
327.6590, 21177.00
328.8640, 21103.00
330.0680, 21152.00
331.2730, 21276.00
332.4780, 21323.96
333.6820, 21509.00
334.8860, 21540.00
336.0900, 21594.00
337.2940, 21660.00
338.4980, 21671.00
339.7010, 21716.15
340.9050, 21441.00
342.1080, 21711.00
343.3110, 21757.00
344.5140, 21633.00
345.7170, 21849.00
346.9200, 21949.00
348.1220, 22311.00
349.3240, 22636.00
350.5270, 22360.00
351.7290, 23005.00
352.9310, 23438.00
354.1320, 24105.00
355.3340, 24641.22
356.5350, 24944.00
357.7370, 25674.00
358.9380, 26438.00
360.1390, 26762.00
361.3400, 26718.00
362.5400, 26382.00
363.7410, 25856.00
364.9410, 24976.00
366.1410, 24426.00
367.3410, 23825.00
368.5410, 23208.00
369.7410, 23090.00
370.9400, 22786.00
372.1400, 22393.00
373.3390, 22626.00
374.5380, 22664.00
375.7370, 22494.00
376.9360, 22626.00
378.1350, 22637.00
379.3330, 22481.00
380.5310, 22344.00
381.7300, 22469.00
382.9280, 22434.00
384.1260, 22368.00
385.3230, 22561.00
386.5210, 22342.00
387.7180, 22376.00
388.9160, 22516.00
390.1130, 22416.00
391.3100, 22462.00
392.5060, 22595.00
393.7030, 22467.00
394.9000, 22684.00
396.0960, 22566.00
397.2920, 22576.00
398.4880, 22612.00
399.6840, 22650.00
400.8800, 22785.00
402.0750, 22791.00
403.2710, 22851.00
404.4660, 22864.00
405.6610, 22856.00
406.8560, 22763.00
408.0510, 22926.00
409.2450, 22820.00
410.4400, 23026.00
411.6340, 22973.00
412.8280, 22881.00
414.0220, 22978.00
415.2160, 22942.00
416.4100, 23001.00
417.6030, 22975.00
418.7970, 23013.00
419.9900, 23227.00
421.1830, 23178.00
422.3760, 23380.00
423.5690, 23378.00
424.7610, 23563.00
425.9540, 23694.00
427.1460, 23754.00
428.3380, 23916.00
429.5300, 24434.00
430.7220, 24656.00
431.9140, 24549.00
433.1050, 24428.00
434.2970, 24114.00
435.4880, 24245.00
436.6790, 23846.00
437.8700, 24120.00
439.0610, 23935.00
440.2510, 24058.00
441.4420, 23940.00
442.6320, 23776.00
443.8220, 23837.00
445.0120, 24091.00
446.2020, 24103.00
447.3910, 24180.00
448.5810, 24196.00
449.7700, 24292.00
450.9600, 24322.77
452.1490, 24410.00
453.3370, 24326.00
454.5260, 24368.00
455.7150, 24197.00
456.9030, 24245.00
458.0910, 24166.00
459.2800, 24252.00
460.4670, 24426.00
461.6550, 24383.00
462.8430, 24485.00
464.0300, 24759.00
465.2180, 24767.00
466.4050, 24594.00
467.5920, 24766.00
468.7790, 24754.00
469.9650, 24614.00
471.1520, 24665.00
472.3380, 24546.00
473.5250, 24573.00
474.7110, 24563.00
475.8970, 24513.00
477.0820, 24534.00
478.2680, 24631.00
479.4540, 24582.00
480.6390, 24517.00
481.8240, 24740.00
483.0090, 24833.00
484.1940, 24762.00
485.3780, 24831.00
486.5630, 24779.00
487.7470, 24764.00
488.9320, 24948.00
490.1160, 24964.00
491.3000, 25035.00
492.4830, 25010.00
493.6670, 25049.00
494.8500, 24974.00
496.0340, 25039.49
497.2170, 25132.00
498.4000, 25122.00
499.5820, 25213.00
500.7650, 25229.00
501.9480, 25168.00
503.1300, 25181.00
504.3120, 25423.00
505.4940, 25518.00
506.6760, 25295.00
507.8580, 25187.00
509.0390, 25389.00
510.2210, 25499.00
511.4020, 25578.00
512.5830, 25588.00
513.7640, 25434.00
514.9450, 25411.00
516.1250, 25641.00
517.3060, 25535.00
518.4860, 25647.00
519.6660, 25615.00
520.8460, 25533.00
522.0260, 25594.00
523.2060, 25786.00
524.3850, 25704.00
525.5650, 25707.00
526.7440, 25733.00
527.9230, 25686.00
529.1020, 25806.00
530.2810, 25870.00
531.4590, 26064.00
532.6380, 26091.00
533.8160, 25915.00
534.9940, 26111.00
536.1720, 25954.00
537.3500, 26170.00
538.5270, 26043.00
539.7050, 26042.00
540.8820, 26205.00
542.0590, 26253.00
543.2360, 26170.00
544.4130, 26400.00
545.5900, 26109.00
546.7660, 26231.00
547.9430, 26409.00
549.1190, 26254.00
550.2950, 26461.00
551.4710, 26581.00
552.6470, 26419.00
553.8220, 26712.00
554.9980, 26226.00
556.1730, 26651.00
557.3480, 26731.00
558.5230, 26575.00
559.6980, 26719.00
560.8730, 26815.00
562.0470, 26861.00
563.2220, 26887.67
564.3960, 26747.00
565.5700, 26837.00
566.7440, 26711.00
567.9170, 26639.00
569.0910, 27035.00
570.2640, 26908.00
571.4380, 27099.00
572.6110, 26873.00
573.7840, 27022.00
574.9570, 26977.00
576.1290, 27026.00
577.3020, 27002.00
578.4740, 27047.00
579.6460, 27213.00
580.8180, 27340.00
581.9900, 27277.00
583.1620, 27182.00
584.3330, 27254.00
585.5040, 27160.00
586.6760, 27336.00
587.8470, 27377.00
589.0180, 27388.00
590.1880, 27220.00
591.3590, 27656.00
592.5290, 27441.00
593.7000, 27464.00
594.8700, 27600.00
596.0400, 27452.00
597.2090, 27764.00
598.3790, 27695.00
599.5490, 27739.00
600.7180, 27698.00
601.8870, 27706.00
603.0560, 27741.00
604.2250, 27825.00
605.3940, 28085.00
606.5620, 27887.00
607.7300, 28114.00
608.8990, 27920.00
610.0670, 27975.00
611.2350, 28059.00
612.4020, 28166.00
613.5700, 28125.00
614.7370, 28219.00
615.9050, 28286.00
617.0720, 28294.86
618.2390, 28236.00
619.4060, 28407.00
620.5720, 28352.00
621.7390, 28499.00
622.9050, 28227.00
624.0710, 28348.00
625.2370, 28396.00
626.4030, 28655.00
627.5690, 28767.00
628.7340, 28600.00
629.9000, 28708.00
631.0650, 28701.00
632.2300, 28777.00
633.3950, 28807.47
634.5600, 28875.00
635.7240, 28880.00
636.8890, 28844.00
638.0530, 28912.00
639.2170, 29304.00
640.3810, 29045.00
641.5450, 29315.00
642.7080, 29544.00
643.8720, 29439.00
645.0350, 29427.00
646.1980, 29211.00
647.3610, 29579.00
648.5240, 29694.00
649.6870, 29349.00
650.8490, 29801.00
652.0120, 29861.00
653.1740, 30015.00
654.3360, 30223.00
655.4980, 29868.00
656.6600, 30407.00
657.8210, 30479.00
658.9830, 30659.00
660.1440, 31050.00
661.3050, 31313.00
662.4660, 32033.00
663.6270, 32431.00
664.7870, 32945.00
665.9480, 33733.00
667.1080, 34990.00
668.2680, 36582.00
669.4280, 37854.00
670.5880, 39672.00
671.7480, 41300.00
672.9070, 42957.00
674.0670, 43928.00
675.2260, 44745.00
676.3850, 44469.00
677.5440, 43570.00
678.7030, 41622.00
679.8610, 40205.00
681.0200, 38042.00
682.1780, 36427.00
683.3360, 35444.00
684.4940, 34270.00
685.6520, 33656.00
686.8090, 32850.00
687.9670, 32440.00
689.1240, 32049.00
690.2810, 32089.00
691.4380, 31531.00
692.5950, 31575.00
693.7520, 31438.00
694.9080, 31213.00
696.0650, 31145.00
697.2210, 31228.00
698.3770, 31134.00
699.5330, 31254.00
700.6880, 31074.00
701.8440, 30831.00
702.9990, 30897.00
704.1550, 30827.00
705.3100, 30999.00
706.4650, 30947.00
707.6190, 30884.00
708.7740, 31181.00
709.9290, 31212.00
711.0830, 31144.00
712.2370, 30932.00
713.3910, 31043.00
714.5450, 31082.00
715.6980, 30998.00
716.8520, 31060.00
718.0050, 31144.00
719.1580, 31346.00
720.3110, 31362.99
721.4640, 31158.00
722.6170, 31422.00
723.7700, 31399.00
724.9220, 31293.00
726.0740, 31461.00
727.2260, 31385.00
728.3780, 31383.00
729.5300, 31398.00
730.6810, 31451.00
731.8330, 31395.00
732.9840, 31557.00
734.1350, 31780.00
735.2860, 31772.00
736.4370, 31761.00
737.5880, 31768.00
738.7380, 31715.00
739.8880, 31718.85
741.0390, 31692.54
742.1890, 31710.00
743.3380, 31731.00
744.4880, 31765.00
745.6380, 31965.00
746.7870, 31934.00
747.9360, 31994.00
749.0850, 31913.00
750.2340, 32167.00
751.3830, 32103.00
752.5310, 32169.00
753.6800, 32068.00
754.8280, 32210.00
755.9760, 32271.00
757.1240, 32078.00
758.2720, 31960.00
759.4190, 32110.00
760.5670, 32235.00
761.7140, 32338.00
762.8610, 32404.53
764.0080, 32439.38
765.1550, 32484.00
766.3020, 32442.00
767.4480, 32462.00
768.5950, 32447.00
769.7410, 32489.00
770.8870, 32500.00
772.0330, 32608.00
773.1780, 32566.00
774.3240, 32730.00
775.4690, 32880.00
776.6140, 32885.00
777.7590, 32784.00
778.9040, 32689.00
780.0490, 32911.00
781.1940, 33135.00
782.3380, 33022.00
783.4820, 32992.00
784.6260, 33055.00
785.7700, 33189.00
786.9140, 33158.00
788.0580, 33497.00
789.2010, 33457.00
790.3450, 33490.00
791.4880, 33441.00
792.6310, 33617.00
793.7730, 33467.00
794.9160, 33713.00
796.0590, 33682.00
797.2010, 33612.00
798.3430, 33592.00
799.4850, 33616.91
800.6270, 33557.00
801.7690, 33724.00
802.9100, 33552.00
804.0520, 33635.00
805.1930, 33856.00
806.3340, 33759.00
807.4750, 33599.00
808.6160, 33726.00
809.7560, 33700.00
810.8970, 33988.00
812.0370, 33707.00
813.1770, 33766.00
814.3170, 34000.00
815.4570, 34138.00
816.5960, 33985.00
817.7360, 33910.00
818.8750, 33958.00
820.0140, 34088.00
821.1530, 34265.00
822.2920, 34084.00
823.4310, 34313.00
824.5690, 34279.00
825.7070, 34156.00
826.8460, 34279.00
827.9840, 34272.00
829.1220, 34471.00
830.2590, 34553.00
831.3970, 34553.00
832.5340, 34420.00
833.6710, 34330.00
834.8080, 34444.63
835.9450, 34390.01
837.0820, 34639.00
838.2190, 34580.00
839.3550, 34575.00
840.4910, 34902.00
841.6270, 34724.00
842.7630, 34913.00
843.8990, 34907.00
845.0350, 34924.00
846.1700, 34962.00
847.3060, 35099.00
848.4410, 35242.00
849.5760, 35180.00
850.7100, 35023.00
851.8450, 35122.00
852.9800, 35033.00
854.1140, 35027.00
855.2480, 35196.00
856.3820, 35397.00
857.5160, 35036.00
858.6500, 35290.00
859.7830, 35172.00
860.9170, 35523.00
862.0500, 35230.00
863.1830, 35434.00
864.3160, 35562.00
865.4480, 35497.00
866.5810, 35476.00
867.7130, 35511.00
868.8460, 35528.00
869.9780, 35600.00
871.1100, 35670.00
872.2410, 35790.00
873.3730, 35803.00
874.5050, 35863.00
875.6360, 36004.00
876.7670, 35869.00
877.8980, 35975.00
879.0290, 35949.00
880.1590, 36021.00
881.2900, 35929.00
882.4200, 35969.00
883.5500, 36097.00
884.6800, 36113.00
885.8100, 36369.00
886.9400, 36118.00
888.0690, 36165.00
889.1990, 36330.00
890.3280, 36409.00
891.4570, 36331.00
892.5860, 36373.00
893.7140, 36285.00
894.8430, 36494.00
895.9710, 36606.00
897.1000, 36156.00
898.2280, 36687.00
899.3560, 36354.00
900.4830, 36625.00
901.6110, 36530.00
902.7380, 36561.00
903.8660, 36710.00
904.9930, 36687.00
906.1200, 36764.00
907.2460, 36650.00
908.3730, 36886.00
909.5000, 36944.00
910.6260, 36861.00
911.7520, 36984.00
912.8780, 36810.00
914.0040, 36883.68
915.1290, 36906.00
916.2550, 36970.00
917.3800, 37177.00
918.5050, 37308.00
919.6300, 37315.00
920.7550, 37548.00
921.8800, 37279.00
923.0040, 37427.00
924.1290, 37446.00
925.2530, 37409.00
926.3770, 37301.00
927.5010, 37484.00
928.6250, 37681.00
929.7480, 37651.00
930.8720, 37591.00
931.9950, 37717.17
933.1180, 37835.00
934.2410, 37823.00
935.3640, 37787.00
936.4860, 37805.00
937.6090, 37698.00
938.7310, 38019.00
939.8530, 37821.00
940.9750, 37755.00
942.0970, 38056.00
943.2180, 38006.00
944.3400, 38029.00
945.4610, 38065.00
946.5820, 38042.00
947.7030, 38190.00
948.8240, 38057.00
949.9450, 38160.00
951.0650, 38056.00
952.1860, 38126.00
953.3060, 38186.13
954.4260, 38209.54
955.5460, 38294.00
956.6650, 38428.00
957.7850, 38391.00
958.9040, 38651.00
960.0230, 38632.00
961.1420, 38773.00
962.2610, 38642.00
963.3800, 38924.00
964.4990, 38933.00
965.6170, 38846.00
966.7350, 38697.00
967.8530, 38713.00
968.9710, 38694.00
970.0890, 38853.00
971.2070, 39143.00
972.3240, 38980.00
973.4410, 39022.00
974.5580, 39197.00
975.6750, 39039.00
976.7920, 39293.00
977.9090, 39308.00
979.0250, 39297.00
980.1410, 39392.00
981.2580, 39422.80
982.3740, 39417.00
983.4890, 39551.00
984.6050, 39498.00
985.7200, 39541.00
986.8360, 39624.00
987.9510, 39565.00
989.0660, 39849.00
990.1810, 39542.00
991.2950, 39546.00
992.4100, 39703.00
993.5240, 39785.00
994.6390, 39894.00
995.7530, 39796.00
996.8660, 40071.00
997.9800, 39914.00
999.0940, 39987.00
1000.207, 39976.00
1001.320, 39991.20
1002.433, 40014.00
1003.546, 40052.76
1004.659, 40060.00
1005.772, 40159.00
1006.884, 40256.00
1007.996, 40312.00
1009.108, 40448.07
1010.220, 40563.00
1011.332, 40651.00
1012.444, 40683.00
1013.555, 40675.00
1014.666, 41070.00
1015.777, 41028.00
1016.888, 40998.00
1017.999, 41112.00
1019.110, 41046.00
1020.220, 41024.00
1021.331, 40903.00
1022.441, 40948.64
1023.551, 41050.00
1024.661, 41033.00
1025.770, 41116.00
1026.880, 41205.00
1027.989, 41097.00
1029.098, 41240.00
1030.207, 41409.00
1031.316, 41390.00
1032.425, 41436.00
1033.533, 41087.00
1034.642, 41327.00
1035.750, 41594.00
1036.858, 41330.00
1037.966, 41521.00
1039.073, 41765.00
1040.181, 42109.00
1041.288, 42170.00
1042.396, 42101.00
1043.503, 42909.00
1044.610, 42948.00
1045.716, 43273.00
1046.823, 44070.00
1047.929, 44549.00
1049.036, 44885.00
1050.142, 45196.00
1051.248, 45168.00
1052.353, 45130.00
1053.459, 44620.00
1054.564, 44343.00
1055.670, 43708.00
1056.775, 43246.00
1057.880, 42961.00
1058.985, 42679.00
1060.089, 42732.00
1061.194, 42527.00
1062.298, 42617.00
1063.402, 42700.00
1064.506, 42323.00
1065.610, 42643.00
1066.713, 42611.00
1067.817, 42673.00
1068.920, 42386.00
1070.023, 42503.00
1071.126, 42458.00
1072.229, 42489.00
1073.332, 42530.00
1074.435, 42869.00
1075.537, 42873.00
1076.639, 42805.00
1077.741, 42568.00
1078.843, 42690.00
1079.945, 43014.00
1081.046, 42768.00
1082.148, 43038.00
1083.249, 42861.00
1084.350, 43145.00
1085.451, 43093.00
1086.551, 43012.00
1087.652, 43119.00
1088.752, 43160.00
1089.853, 43023.00
1090.953, 43186.00
1092.053, 43573.00
1093.152, 43127.00
1094.252, 43477.00
1095.351, 43539.00
1096.451, 43397.00
1097.550, 43456.00
1098.649, 43420.00
1099.748, 43554.00
1100.846, 43555.58
1101.945, 43686.00
1103.043, 43591.00
1104.141, 43646.00
1105.239, 43580.00
1106.337, 43715.00
1107.434, 43676.00
1108.532, 43996.00
1109.629, 43852.00
1110.726, 43895.00
1111.823, 43790.00
1112.920, 43908.00
1114.017, 44012.00
1115.113, 43847.00
1116.210, 44197.00
1117.306, 43944.00
1118.402, 44182.00
1119.498, 44079.00
1120.593, 44141.00
1121.689, 44485.00
1122.784, 44705.00
1123.879, 44790.00
1124.974, 44844.36
1126.069, 44815.04
1127.164, 44754.00
1128.259, 44635.00
1129.353, 44639.00
1130.447, 44601.00
1131.541, 44390.00
1132.635, 44702.00
1133.729, 44779.00
1134.822, 44816.00
1135.916, 44687.00
1137.009, 44700.00
1138.102, 44959.00
1139.195, 45117.00
1140.288, 45038.00
1141.380, 45111.00
1142.473, 44910.00
1143.565, 45084.00
1144.657, 45107.00
1145.749, 45285.00
1146.841, 45326.74
1147.932, 45393.00
1149.024, 45391.00
1150.115, 45304.00
1151.206, 45243.00
1152.297, 45454.00
1153.388, 45195.00
1154.479, 45671.00
1155.569, 45542.00
1156.659, 45515.00
1157.750, 45667.00
1158.839, 45717.00
1159.929, 45732.00
1161.019, 45682.00
1162.108, 45555.00
1163.198, 45720.00
1164.287, 45603.00
1165.376, 45719.00
1166.465, 45857.00
1167.553, 46038.00
1168.642, 46072.82
1169.730, 45906.00
1170.818, 46097.00
1171.906, 46130.00
1172.994, 46000.00
1174.082, 46347.00
1175.170, 46300.00
1176.257, 46444.00
1177.344, 46115.00
1178.431, 46385.00
1179.518, 46305.00
1180.605, 46222.00
1181.691, 46508.00
1182.778, 46555.00
1183.864, 46813.00
1184.950, 46783.58
1186.036, 46578.00
1187.122, 46703.00
1188.207, 46730.00
1189.292, 46697.00
1190.378, 47050.00
1191.463, 47012.00
1192.548, 46865.00
1193.632, 46685.00
1194.717, 46789.00
1195.801, 46714.00
1196.886, 47219.00
1197.970, 46853.00
1199.054, 47213.00
1200.137, 47144.00
1201.221, 47166.00
1202.305, 47363.00
1203.388, 47291.00
1204.471, 47362.00
1205.554, 47584.00
1206.637, 47376.00
1207.719, 47506.84
1208.802, 47518.00
1209.884, 47562.00
1210.966, 47495.00
1212.048, 47589.00
1213.130, 47695.00
1214.212, 47410.00
1215.293, 47647.00
1216.374, 47899.00
1217.456, 47732.00
1218.536, 47972.00
1219.617, 47779.00
1220.698, 48119.00
1221.778, 48076.00
1222.859, 47987.00
1223.939, 48251.00
1225.019, 47847.00
1226.099, 48221.00
1227.178, 48065.00
1228.258, 48226.00
1229.337, 47869.00
1230.417, 48376.00
1231.496, 48269.00
1232.574, 48202.00
1233.653, 48652.00
1234.732, 48351.00
1235.810, 48347.00
1236.888, 48354.00
1237.966, 48494.00
1239.044, 48526.11
1240.122, 48731.00
1241.199, 48667.00
1242.277, 48845.00
1243.354, 48847.00
1244.431, 48756.00
1245.508, 48907.00
1246.585, 48842.00
1247.661, 48929.00
1248.738, 49001.00
1249.814, 48851.00
1250.890, 48836.00
1251.966, 48930.97
1253.042, 48978.13
1254.117, 49134.00
1255.193, 49193.00
1256.268, 49289.00
1257.343, 49250.00
1258.418, 49178.00
1259.493, 49497.00
1260.567, 49544.00
1261.642, 49446.00
1262.716, 49725.00
1263.790, 49448.00
1264.864, 49688.00
1265.938, 49531.00
1267.011, 49812.00
1268.085, 49715.00
1269.158, 49564.00
1270.231, 49679.00
1271.304, 49832.00
1272.377, 49669.00
1273.450, 49802.00
1274.522, 50000.00
1275.594, 49571.00
1276.666, 49898.00
1277.738, 49986.00
1278.810, 50220.00
1279.882, 50065.00
1280.953, 50132.00
1282.025, 50185.00
1283.096, 50195.00
1284.167, 50377.00
1285.238, 50462.00
1286.308, 50300.00
1287.379, 50769.00
1288.449, 50458.00
1289.519, 50525.00
1290.589, 50706.00
1291.659, 50601.00
1292.729, 50686.00
1293.798, 50894.00
1294.868, 50608.00
1295.937, 51050.00
1297.006, 50884.00
1298.075, 51031.00
1299.143, 50726.00
1300.212, 51103.00
1301.280, 50916.00
1302.348, 51105.00
1303.416, 51080.00
1304.484, 51036.00
1305.552, 51159.00
1306.620, 51070.00
1307.687, 51190.00
1308.754, 51378.00
1309.821, 51238.00
1310.888, 51534.00
1311.955, 51342.00
1313.021, 51454.00
1314.088, 51110.00
1315.154, 51579.00
1316.220, 51596.00
1317.286, 51387.00
1318.352, 51292.00
1319.417, 51682.00
1320.483, 51611.00
1321.548, 51960.00
1322.613, 51869.00
1323.678, 51667.00
1324.743, 51760.00
1325.807, 51630.00
1326.872, 52246.00
1327.936, 51903.00
1329.000, 52124.00
1330.064, 52129.00
1331.128, 51995.00
1332.191, 52116.00
1333.255, 52215.00
1334.318, 52292.00
1335.381, 52413.00
1336.444, 52411.84
1337.507, 52483.69
1338.569, 52414.00
1339.632, 52476.00
1340.694, 52496.00
1341.756, 52324.00
1342.818, 52481.00
1343.880, 52675.00
1344.941, 52421.00
1346.003, 52663.00
1347.064, 52777.00
1348.125, 52497.00
1349.186, 52721.00
1350.247, 52677.00
1351.308, 52984.00
1352.368, 52792.00
1353.428, 52550.00
1354.489, 52682.00
1355.549, 52974.00
1356.608, 52899.00
1357.668, 52930.00
1358.727, 53205.00
1359.787, 53202.00
1360.846, 53213.00
1361.905, 53143.00
1362.964, 53326.00
1364.022, 53310.99
1365.081, 53537.00
1366.139, 53438.00
1367.197, 53428.00
1368.255, 53506.80
1369.313, 53743.00
1370.371, 53654.00
1371.428, 53697.00
1372.486, 53605.00
1373.543, 53773.00
1374.600, 53699.00
1375.657, 53570.00
1376.713, 53917.00
1377.770, 53626.00
1378.826, 54033.00
1379.882, 53987.00
1380.938, 53567.00
1381.994, 54177.00
1383.050, 53804.00
1384.106, 53845.00
1385.161, 54123.00
1386.216, 54065.00
1387.271, 54222.00
1388.326, 54619.00
1389.381, 54347.00
1390.435, 54219.00
1391.490, 54227.00
1392.544, 54422.00
1393.598, 54612.00
1394.652, 54329.00
1395.705, 54427.00
1396.759, 54162.00
1397.812, 54521.00
1398.866, 54362.00
1399.919, 54728.00
1400.972, 54892.00
1402.024, 54603.00
1403.077, 54842.00
1404.129, 54620.00
1405.181, 54765.00
1406.233, 55035.00
1407.285, 54573.00
1408.337, 54854.00
1409.389, 54974.00
1410.440, 54933.00
1411.491, 55215.00
1412.542, 55072.00
1413.593, 55302.00
1414.644, 55198.00
1415.695, 55193.73
1416.745, 55268.36
1417.795, 55043.00
1418.845, 55284.00
1419.895, 55051.00
1420.945, 54973.00
1421.995, 55522.00
1423.044, 55544.00
1424.093, 55433.00
1425.142, 55257.00
1426.191, 55470.00
1427.240, 55756.00
1428.289, 55500.00
1429.337, 55642.00
1430.385, 55600.00
1431.433, 55693.00
1432.481, 56088.00
1433.529, 55892.00
1434.577, 56215.00
1435.624, 56331.00
1436.672, 55973.00
1437.719, 56175.00
1438.766, 56013.00
1439.812, 56388.00
1440.859, 56136.00
1441.905, 56358.00
1442.952, 56327.00
1443.998, 56698.00
1445.044, 56231.00
1446.090, 56632.00
1447.135, 56794.00
1448.181, 56458.00
1449.226, 56660.00
1450.271, 56416.00
1451.316, 56346.00
1452.361, 56639.00
1453.405, 56924.00
1454.450, 56616.00
1455.494, 56596.00
1456.538, 56507.00
1457.582, 56938.00
1458.626, 56980.00
1459.670, 56752.00
1460.713, 57031.00
1461.757, 56869.00
1462.800, 56741.00
1463.843, 57216.00
1464.886, 57084.00
1465.928, 57505.00
1466.971, 57141.00
1468.013, 57075.00
1469.055, 57259.00
1470.097, 57172.00
1471.139, 57197.00
1472.181, 57381.00
1473.222, 57582.00
1474.263, 57570.88
1475.305, 57470.00
1476.346, 57565.00
1477.386, 57662.00
1478.427, 57552.00
1479.468, 57688.00
1480.508, 57873.00
1481.548, 57791.00
1482.588, 57697.00
1483.628, 57874.00
1484.668, 58006.00
1485.707, 58016.00
1486.747, 57838.00
1487.786, 58042.00
1488.825, 57863.00
1489.864, 57901.00
1490.902, 58011.00
1491.941, 58294.00
1492.979, 58244.00
1494.017, 57699.00
1495.055, 58413.00
1496.093, 58515.00
1497.131, 58143.00
1498.168, 58565.00
1499.206, 58426.00
1500.243, 58498.00
1501.280, 58203.00
1502.317, 58555.00
1503.354, 58426.00
1504.390, 58758.00
1505.426, 58740.00
1506.463, 58644.00
1507.499, 58598.00
1508.535, 58721.06
1509.570, 58781.00
1510.606, 58982.00
1511.641, 59096.00
1512.676, 59169.00
1513.711, 59275.29
1514.746, 59293.75
1515.781, 59305.00
1516.816, 59348.00
1517.850, 59163.00
1518.884, 59246.00
1519.918, 59441.00
1520.952, 59473.00
1521.986, 59219.00
1523.019, 59433.00
1524.053, 59658.00
1525.086, 59417.00
1526.119, 59591.00
1527.152, 59314.00
1528.185, 59425.12
1529.217, 59563.00
1530.250, 59599.00
1531.282, 59690.00
1532.314, 59831.00
1533.346, 59945.00
1534.377, 60003.00
1535.409, 60074.27
1536.440, 59922.00
1537.472, 60065.00
1538.503, 59916.00
1539.534, 59721.00
1540.564, 60050.00
1541.595, 60015.00
1542.625, 60005.00
1543.656, 60298.00
1544.686, 60464.00
1545.716, 60499.79
1546.745, 60656.26
1547.775, 60621.00
1548.804, 60632.00
1549.834, 60703.00
1550.863, 60684.54
1551.892, 60767.00
1552.920, 60760.00
1553.949, 60870.00
1554.977, 60885.82
1556.006, 60927.73
1557.034, 60954.00
1558.062, 61008.00
1559.089, 61052.00
1560.117, 61104.00
1561.144, 61049.00
1562.172, 61205.00
1563.199, 61001.00
1564.226, 61217.00
1565.252, 61103.00
1566.279, 61480.00
1567.305, 61649.00
1568.332, 61377.00
1569.358, 61481.00
1570.384, 61962.00
##END=



