##NAMES=Talc
##RRUFFID=R050087
##IDEAL CHEMISTRY=Mg_3_Si_4_O_10_(OH)_2_
##LOCALITY=St. Lawrence County, New York, USA
##OWNER=RRUFF
##SOURCE=University of Arizona Mineral Museum
##DESCRIPTION=An aggregate of colorless foliated coarse single crystals
##STATUS=The identification of this mineral has been confirmed by X-ray diffraction and chemical analysis
##URL=rruff.info/R050087
##MEASURED CHEMISTRY=(Mg_.998_Fe_.002_)_3_(Si_.997_Al_.003_)_4_O_10_(OH_.966_F_.034_)_2_
##PIN_ID=M00180
##ORIENTATION=Laser parallel to b* (0 1 0). Fiducial mark perpendicular to laser is parallel to c [0 0 1]
93.48000, 14021.00
94.71400, 14669.00
95.94800, 15251.00
97.18200, 15781.00
98.41600, 16365.00
99.64900, 17140.00
100.8830, 18029.00
102.1160, 19060.00
103.3490, 19975.00
104.5820, 20580.00
105.8150, 21070.00
107.0470, 22027.00
108.2800, 22642.00
109.5120, 22759.00
110.7440, 21927.00
111.9760, 20960.00
113.2080, 20730.00
114.4400, 20703.00
115.6710, 20424.00
116.9030, 19463.00
118.1340, 18740.00
119.3650, 18067.00
120.5960, 17409.00
121.8270, 16901.00
123.0580, 16720.00
124.2880, 16748.00
125.5190, 16454.00
126.7490, 16588.00
127.9790, 16612.00
129.2090, 16986.00
130.4390, 16966.85
131.6680, 17063.65
132.8980, 17094.00
134.1270, 17167.00
135.3560, 17211.00
136.5850, 17344.00
137.8140, 17346.00
139.0430, 17641.00
140.2710, 17650.00
141.5000, 17651.00
142.7280, 17806.00
143.9560, 17771.00
145.1840, 17728.79
146.4120, 17557.00
147.6390, 17568.00
148.8670, 17385.00
150.0940, 17321.00
151.3210, 17359.44
152.5490, 17554.00
153.7750, 17387.00
155.0020, 17439.00
156.2290, 17316.00
157.4550, 17709.00
158.6810, 17401.00
159.9080, 17582.00
161.1340, 17499.00
162.3590, 17487.00
163.5850, 17669.00
164.8110, 17655.00
166.0360, 17716.00
167.2610, 18068.00
168.4860, 17897.00
169.7110, 17900.00
170.9360, 18147.00
172.1610, 18162.00
173.3850, 18359.00
174.6100, 18298.00
175.8340, 18327.00
177.0580, 18525.00
178.2820, 18695.00
179.5050, 18999.00
180.7290, 19513.00
181.9520, 20547.00
183.1760, 22872.00
184.3990, 26475.00
185.6220, 30515.00
186.8450, 32341.00
188.0670, 31991.00
189.2900, 35666.00
190.5120, 42417.00
191.7340, 48807.00
192.9560, 52045.00
194.1780, 52577.00
195.4000, 49848.00
196.6220, 44507.00
197.8430, 36434.00
199.0640, 28999.00
200.2860, 24321.00
201.5070, 21932.00
202.7270, 21003.00
203.9480, 20033.00
205.1690, 19691.00
206.3890, 19206.00
207.6090, 19084.00
208.8290, 19164.00
210.0490, 18823.00
211.2690, 18978.00
212.4890, 18816.00
213.7080, 18877.00
214.9280, 18854.00
216.1470, 18930.00
217.3660, 19223.00
218.5850, 19134.00
219.8030, 19257.00
221.0220, 19313.00
222.2400, 19255.00
223.4590, 19270.00
224.6770, 19412.00
225.8950, 19509.00
227.1120, 19607.00
228.3300, 19687.00
229.5480, 19722.00
230.7650, 19547.00
231.9820, 19610.00
233.1990, 19449.00
234.4160, 19347.00
235.6330, 19332.00
236.8490, 19391.00
238.0660, 19182.00
239.2820, 19359.00
240.4980, 19255.00
241.7140, 19425.00
242.9300, 19430.00
244.1460, 19236.00
245.3610, 19425.00
246.5770, 19502.00
247.7920, 19416.00
249.0070, 19450.00
250.2220, 19533.00
251.4370, 19591.00
252.6510, 19569.00
253.8660, 19662.00
255.0800, 19732.00
256.2940, 19542.00
257.5080, 19843.00
258.7220, 19733.00
259.9360, 20018.00
261.1490, 19845.00
262.3630, 19836.00
263.5760, 19806.00
264.7890, 19878.00
266.0020, 19754.00
267.2150, 20035.00
268.4270, 19842.00
269.6400, 20017.00
270.8520, 20024.00
272.0640, 19995.00
273.2760, 20088.00
274.4880, 20218.00
275.7000, 20218.00
276.9120, 20318.00
278.1230, 20300.00
279.3340, 20528.00
280.5450, 20684.81
281.7560, 21124.00
282.9670, 21138.00
284.1780, 21295.00
285.3880, 21498.00
286.5980, 22089.00
287.8090, 22228.00
289.0190, 22472.00
290.2290, 22306.00
291.4380, 22071.00
292.6480, 21829.00
293.8570, 21251.00
295.0670, 21177.00
296.2760, 21081.00
297.4850, 20928.00
298.6930, 20940.00
299.9020, 20881.00
301.1110, 20943.00
302.3190, 21060.00
303.5270, 20869.00
304.7350, 20960.00
305.9430, 20924.00
307.1510, 20878.00
308.3580, 20722.00
309.5660, 21102.00
310.7730, 20856.00
311.9800, 20998.00
313.1870, 20948.00
314.3940, 20839.00
315.6010, 20969.00
316.8070, 20910.00
318.0130, 21059.00
319.2200, 21278.00
320.4260, 21271.00
321.6310, 21375.00
322.8370, 21327.00
324.0430, 21502.00
325.2480, 21630.00
326.4540, 21769.00
327.6590, 21915.00
328.8640, 21956.00
330.0680, 22069.00
331.2730, 21967.00
332.4780, 22257.00
333.6820, 21924.00
334.8860, 22240.00
336.0900, 22313.00
337.2940, 22008.00
338.4980, 22133.00
339.7010, 22102.00
340.9050, 22168.00
342.1080, 22248.00
343.3110, 22319.00
344.5140, 22604.00
345.7170, 22783.00
346.9200, 23240.00
348.1220, 23637.00
349.3240, 24109.00
350.5270, 24661.00
351.7290, 25518.00
352.9310, 26338.00
354.1320, 27510.00
355.3340, 28406.00
356.5350, 29327.00
357.7370, 30364.00
358.9380, 31452.00
360.1390, 32015.00
361.3400, 31910.00
362.5400, 31553.00
363.7410, 30162.00
364.9410, 28979.00
366.1410, 27348.00
367.3410, 26079.00
368.5410, 25274.00
369.7410, 24440.00
370.9400, 24019.00
372.1400, 23802.00
373.3390, 23614.00
374.5380, 23506.00
375.7370, 23558.00
376.9360, 23642.00
378.1350, 23542.00
379.3330, 23554.00
380.5310, 23228.00
381.7300, 23413.00
382.9280, 23294.00
384.1260, 23004.00
385.3230, 22967.00
386.5210, 23071.00
387.7180, 23061.00
388.9160, 22983.00
390.1130, 22950.00
391.3100, 22878.00
392.5060, 22858.00
393.7030, 22881.00
394.9000, 22881.00
396.0960, 22920.00
397.2920, 22859.00
398.4880, 22879.00
399.6840, 22994.00
400.8800, 23199.00
402.0750, 22832.00
403.2710, 22980.00
404.4660, 23114.00
405.6610, 22993.00
406.8560, 23133.00
408.0510, 23008.00
409.2450, 23207.00
410.4400, 23069.00
411.6340, 23392.00
412.8280, 23310.00
414.0220, 23168.00
415.2160, 23303.00
416.4100, 23439.00
417.6030, 23452.00
418.7970, 23371.00
419.9900, 23539.00
421.1830, 23682.00
422.3760, 23943.00
423.5690, 24129.18
424.7610, 24453.00
425.9540, 24616.00
427.1460, 24870.00
428.3380, 25186.00
429.5300, 25610.00
430.7220, 25718.00
431.9140, 25676.00
433.1050, 25751.00
434.2970, 25159.00
435.4880, 25033.00
436.6790, 24700.00
437.8700, 24270.00
439.0610, 24531.00
440.2510, 24276.00
441.4420, 24162.00
442.6320, 24346.00
443.8220, 24226.00
445.0120, 24448.00
446.2020, 24580.00
447.3910, 24603.00
448.5810, 24850.00
449.7700, 24978.00
450.9600, 24989.00
452.1490, 25054.00
453.3370, 24914.00
454.5260, 24780.00
455.7150, 24767.00
456.9030, 25176.00
458.0910, 25132.00
459.2800, 25221.00
460.4670, 25152.00
461.6550, 25449.00
462.8430, 25588.00
464.0300, 25751.00
465.2180, 26001.00
466.4050, 26212.00
467.5920, 26036.00
468.7790, 26225.00
469.9650, 25768.00
471.1520, 25520.00
472.3380, 25290.00
473.5250, 25082.71
474.7110, 24876.00
475.8970, 24909.00
477.0820, 24843.00
478.2680, 24928.00
479.4540, 24816.00
480.6390, 24976.00
481.8240, 24864.00
483.0090, 24801.00
484.1940, 24748.00
485.3780, 24791.41
486.5630, 25039.00
487.7470, 24975.00
488.9320, 24928.00
490.1160, 25073.00
491.3000, 24796.00
492.4830, 25029.00
493.6670, 24917.00
494.8500, 25201.00
496.0340, 24883.00
497.2170, 25203.00
498.4000, 25252.00
499.5820, 25228.00
500.7650, 25208.00
501.9480, 25469.00
503.1300, 25421.00
504.3120, 25506.00
505.4940, 25431.00
506.6760, 25309.00
507.8580, 25371.00
509.0390, 25470.00
510.2210, 25534.00
511.4020, 25705.00
512.5830, 25592.00
513.7640, 25580.00
514.9450, 25641.00
516.1250, 25526.00
517.3060, 25764.00
518.4860, 25672.00
519.6660, 25547.00
520.8460, 25774.00
522.0260, 25735.00
523.2060, 25889.00
524.3850, 25846.00
525.5650, 25842.00
526.7440, 25901.00
527.9230, 25745.00
529.1020, 25846.00
530.2810, 25850.00
531.4590, 25909.00
532.6380, 25845.00
533.8160, 25930.00
534.9940, 25977.00
536.1720, 26107.00
537.3500, 26040.00
538.5270, 26202.00
539.7050, 26104.00
540.8820, 26119.00
542.0590, 26104.00
543.2360, 26098.00
544.4130, 26162.00
545.5900, 26091.00
546.7660, 26193.00
547.9430, 26320.00
549.1190, 26266.00
550.2950, 26450.00
551.4710, 25968.00
552.6470, 26479.00
553.8220, 26413.00
554.9980, 26136.00
556.1730, 26288.00
557.3480, 26379.00
558.5230, 26675.00
559.6980, 26563.00
560.8730, 26549.00
562.0470, 26759.00
563.2220, 26716.00
564.3960, 27006.00
565.5700, 26494.00
566.7440, 26692.00
567.9170, 26760.00
569.0910, 26848.00
570.2640, 26878.00
571.4380, 26983.00
572.6110, 26859.00
573.7840, 27014.00
574.9570, 26869.00
576.1290, 26889.00
577.3020, 26918.00
578.4740, 26943.00
579.6460, 26949.00
580.8180, 27059.00
581.9900, 27167.00
583.1620, 27110.00
584.3330, 27191.33
585.5040, 27222.00
586.6760, 27230.00
587.8470, 27109.00
589.0180, 27130.00
590.1880, 27143.00
591.3590, 27327.00
592.5290, 27438.00
593.7000, 27479.00
594.8700, 27259.00
596.0400, 27420.00
597.2090, 27271.00
598.3790, 27386.00
599.5490, 27465.00
600.7180, 27414.00
601.8870, 27432.00
603.0560, 27645.00
604.2250, 27561.00
605.3940, 27785.00
606.5620, 27664.00
607.7300, 27698.00
608.8990, 27840.00
610.0670, 27772.00
611.2350, 27848.10
612.4020, 27858.00
613.5700, 27882.00
614.7370, 27968.00
615.9050, 27951.00
617.0720, 28084.00
618.2390, 28059.00
619.4060, 28148.00
620.5720, 28383.00
621.7390, 28126.00
622.9050, 28437.00
624.0710, 28220.00
625.2370, 28520.00
626.4030, 28313.00
627.5690, 28453.00
628.7340, 28543.00
629.9000, 28476.00
631.0650, 28573.00
632.2300, 28693.00
633.3950, 28760.00
634.5600, 28816.00
635.7240, 28709.00
636.8890, 28779.00
638.0530, 29078.00
639.2170, 28985.00
640.3810, 29158.00
641.5450, 29207.00
642.7080, 29213.00
643.8720, 29201.00
645.0350, 29143.00
646.1980, 29519.00
647.3610, 29389.00
648.5240, 29729.00
649.6870, 29623.00
650.8490, 29858.00
652.0120, 29953.00
653.1740, 30026.00
654.3360, 30182.00
655.4980, 30414.00
656.6600, 30605.00
657.8210, 31034.00
658.9830, 31322.00
660.1440, 32067.00
661.3050, 32659.00
662.4660, 33456.00
663.6270, 34365.00
664.7870, 35641.00
665.9480, 37498.00
667.1080, 39698.00
668.2680, 42057.00
669.4280, 44942.00
670.5880, 47800.00
671.7480, 50548.00
672.9070, 53187.00
674.0670, 55209.00
675.2260, 55823.00
676.3850, 55664.00
677.5440, 53706.00
678.7030, 50959.00
679.8610, 47731.00
681.0200, 44616.00
682.1780, 41630.00
683.3360, 39352.00
684.4940, 37441.00
685.6520, 36113.00
686.8090, 34965.00
687.9670, 34103.00
689.1240, 33141.00
690.2810, 32798.00
691.4380, 32258.00
692.5950, 32136.00
693.7520, 31788.00
694.9080, 31487.00
696.0650, 31192.00
697.2210, 31139.00
698.3770, 30848.00
699.5330, 31053.00
700.6880, 30933.00
701.8440, 31012.00
702.9990, 30895.00
704.1550, 30670.00
705.3100, 30732.00
706.4650, 30626.00
707.6190, 30538.00
708.7740, 30524.00
709.9290, 30689.00
711.0830, 30891.00
712.2370, 30627.00
713.3910, 30545.00
714.5450, 30690.00
715.6980, 30698.00
716.8520, 30671.00
718.0050, 30718.00
719.1580, 30552.00
720.3110, 30810.00
721.4640, 30686.00
722.6170, 30879.00
723.7700, 30832.00
724.9220, 30804.00
726.0740, 30983.00
727.2260, 30842.00
728.3780, 30770.00
729.5300, 30749.00
730.6810, 30795.00
731.8330, 30780.00
732.9840, 30953.00
734.1350, 30830.00
735.2860, 31114.00
736.4370, 31036.00
737.5880, 31010.00
738.7380, 30959.00
739.8880, 31036.00
741.0390, 31029.74
742.1890, 31101.00
743.3380, 31094.00
744.4880, 31179.00
745.6380, 31188.00
746.7870, 31300.00
747.9360, 31118.00
749.0850, 31374.00
750.2340, 31344.00
751.3830, 31245.00
752.5310, 31438.00
753.6800, 31107.00
754.8280, 31486.00
755.9760, 31314.00
757.1240, 31577.00
758.2720, 31389.00
759.4190, 31495.00
760.5670, 31331.00
761.7140, 31710.00
762.8610, 31554.00
764.0080, 31527.00
765.1550, 31755.00
766.3020, 31612.00
767.4480, 31631.00
768.5950, 31787.00
769.7410, 31800.00
770.8870, 31898.00
772.0330, 31716.00
773.1780, 32029.00
774.3240, 32012.00
775.4690, 31955.00
776.6140, 32309.00
777.7590, 32119.00
778.9040, 32067.00
780.0490, 32432.00
781.1940, 32557.00
782.3380, 32936.00
783.4820, 32710.00
784.6260, 32947.00
785.7700, 33046.00
786.9140, 33144.00
788.0580, 33261.00
789.2010, 33239.00
790.3450, 33013.00
791.4880, 33601.00
792.6310, 33566.00
793.7730, 33242.00
794.9160, 33161.00
796.0590, 33083.00
797.2010, 33068.00
798.3430, 32977.00
799.4850, 32907.79
800.6270, 32719.00
801.7690, 32756.00
802.9100, 32681.00
804.0520, 32637.00
805.1930, 32794.00
806.3340, 32641.00
807.4750, 32799.00
808.6160, 32761.00
809.7560, 32818.00
810.8970, 32712.00
812.0370, 32809.00
813.1770, 32866.00
814.3170, 32974.00
815.4570, 32903.00
816.5960, 33055.00
817.7360, 32943.00
818.8750, 32967.00
820.0140, 32858.00
821.1530, 32917.35
822.2920, 33120.00
823.4310, 33066.00
824.5690, 33270.00
825.7070, 33418.00
826.8460, 33278.00
827.9840, 33431.00
829.1220, 33283.00
830.2590, 33147.00
831.3970, 33349.00
832.5340, 33572.00
833.6710, 33379.00
834.8080, 33437.00
835.9450, 33275.00
837.0820, 33602.00
838.2190, 33565.00
839.3550, 33623.00
840.4910, 33474.00
841.6270, 33811.00
842.7630, 33593.00
843.8990, 33870.00
845.0350, 33877.00
846.1700, 33785.00
847.3060, 33700.00
848.4410, 33600.00
849.5760, 33696.00
850.7100, 33880.00
851.8450, 33686.00
852.9800, 33960.00
854.1140, 33906.00
855.2480, 33979.00
856.3820, 33977.00
857.5160, 34042.00
858.6500, 34113.00
859.7830, 34235.00
860.9170, 34240.76
862.0500, 34280.00
863.1830, 34296.00
864.3160, 34182.00
865.4480, 34238.00
866.5810, 34250.49
867.7130, 34153.00
868.8460, 34335.00
869.9780, 34404.00
871.1100, 34423.00
872.2410, 34480.08
873.3730, 34713.00
874.5050, 34504.00
875.6360, 34531.00
876.7670, 34599.00
877.8980, 34378.00
879.0290, 34396.00
880.1590, 34634.00
881.2900, 34674.00
882.4200, 34596.00
883.5500, 34626.00
884.6800, 34762.00
885.8100, 34688.00
886.9400, 34723.00
888.0690, 34844.00
889.1990, 34801.00
890.3280, 34934.06
891.4570, 34924.00
892.5860, 35094.00
893.7140, 35148.00
894.8430, 35127.00
895.9710, 34807.00
897.1000, 34693.00
898.2280, 35227.00
899.3560, 34976.00
900.4830, 35197.00
901.6110, 35181.64
902.7380, 35462.00
903.8660, 35030.00
904.9930, 35372.00
906.1200, 35317.00
907.2460, 35306.00
908.3730, 35397.00
909.5000, 35327.00
910.6260, 35365.00
911.7520, 35218.00
912.8780, 35496.00
914.0040, 35679.00
915.1290, 35382.00
916.2550, 35801.00
917.3800, 35630.00
918.5050, 35343.00
919.6300, 35552.00
920.7550, 35755.00
921.8800, 35906.00
923.0040, 35844.00
924.1290, 35656.00
925.2530, 35901.00
926.3770, 35898.00
927.5010, 35864.00
928.6250, 36069.00
929.7480, 36094.00
930.8720, 35940.00
931.9950, 35914.00
933.1180, 35986.00
934.2410, 35924.00
935.3640, 36182.00
936.4860, 36064.00
937.6090, 35968.00
938.7310, 36299.00
939.8530, 36372.00
940.9750, 36243.00
942.0970, 36362.00
943.2180, 36411.00
944.3400, 36535.00
945.4610, 36334.00
946.5820, 36304.00
947.7030, 36414.00
948.8240, 36696.00
949.9450, 36520.00
951.0650, 36591.00
952.1860, 36411.00
953.3060, 36828.00
954.4260, 36689.00
955.5460, 36883.00
956.6650, 36442.00
957.7850, 36570.00
958.9040, 36727.00
960.0230, 36890.00
961.1420, 37085.00
962.2610, 36715.00
963.3800, 37041.00
964.4990, 36896.00
965.6170, 37062.00
966.7350, 37047.00
967.8530, 36935.00
968.9710, 37065.00
970.0890, 37035.00
971.2070, 37252.00
972.3240, 37258.00
973.4410, 37299.00
974.5580, 37343.74
975.6750, 37313.00
976.7920, 37322.00
977.9090, 37307.00
979.0250, 37282.00
980.1410, 37349.70
981.2580, 37490.00
982.3740, 37531.00
983.4890, 37572.00
984.6050, 37764.00
985.7200, 37760.00
986.8360, 37797.00
987.9510, 37804.00
989.0660, 37672.00
990.1810, 37940.00
991.2950, 37771.00
992.4100, 37871.00
993.5240, 37949.00
994.6390, 37905.00
995.7530, 38170.00
996.8660, 38103.00
997.9800, 38079.00
999.0940, 38009.00
1000.207, 38010.49
1001.320, 38218.00
1002.433, 38075.00
1003.546, 38271.00
1004.659, 38449.00
1005.772, 38387.00
1006.884, 38377.00
1007.996, 38520.00
1009.108, 38849.00
1010.220, 38895.00
1011.332, 38985.00
1012.444, 39019.00
1013.555, 39285.00
1014.666, 39450.00
1015.777, 39749.00
1016.888, 39671.00
1017.999, 39894.00
1019.110, 39650.00
1020.220, 39832.00
1021.331, 39495.00
1022.441, 39442.00
1023.551, 39413.00
1024.661, 39131.00
1025.770, 39152.00
1026.880, 38976.00
1027.989, 39079.00
1029.098, 39309.00
1030.207, 39272.00
1031.316, 39124.00
1032.425, 39365.00
1033.533, 39261.00
1034.642, 39451.00
1035.750, 39284.00
1036.858, 39482.00
1037.966, 39528.00
1039.073, 39740.00
1040.181, 39912.00
1041.288, 40033.00
1042.396, 40135.00
1043.503, 40557.00
1044.610, 40952.00
1045.716, 41476.00
1046.823, 42083.00
1047.929, 42603.00
1049.036, 43180.00
1050.142, 43382.00
1051.248, 43370.12
1052.353, 43453.00
1053.459, 42813.00
1054.564, 42413.00
1055.670, 41808.00
1056.775, 41193.00
1057.880, 40779.00
1058.985, 40646.00
1060.089, 40308.00
1061.194, 40284.00
1062.298, 40383.00
1063.402, 40418.00
1064.506, 40175.00
1065.610, 40469.00
1066.713, 40060.00
1067.817, 40471.00
1068.920, 40307.00
1070.023, 40364.00
1071.126, 40093.00
1072.229, 39896.00
1073.332, 40313.00
1074.435, 40214.00
1075.537, 40327.00
1076.639, 40224.00
1077.741, 40478.00
1078.843, 40510.00
1079.945, 40707.00
1081.046, 40603.00
1082.148, 40744.00
1083.249, 40683.00
1084.350, 40313.00
1085.451, 40522.00
1086.551, 40816.00
1087.652, 40460.00
1088.752, 40648.00
1089.853, 40779.00
1090.953, 40893.00
1092.053, 40579.00
1093.152, 40600.00
1094.252, 40662.00
1095.351, 40902.00
1096.451, 40851.00
1097.550, 40890.00
1098.649, 40913.00
1099.748, 40931.00
1100.846, 41062.00
1101.945, 40832.00
1103.043, 40917.00
1104.141, 40881.00
1105.239, 40990.00
1106.337, 41070.00
1107.434, 41163.00
1108.532, 41196.00
1109.629, 41309.00
1110.726, 41086.00
1111.823, 41361.00
1112.920, 41258.00
1114.017, 41564.00
1115.113, 41650.00
1116.210, 41644.00
1117.306, 41425.00
1118.402, 41673.00
1119.498, 41983.00
1120.593, 41889.00
1121.689, 42217.00
1122.784, 42197.00
1123.879, 42237.00
1124.974, 42133.00
1126.069, 41999.00
1127.164, 42276.00
1128.259, 41962.00
1129.353, 42004.00
1130.447, 41831.00
1131.541, 41858.00
1132.635, 41922.00
1133.729, 41821.00
1134.822, 42006.00
1135.916, 41840.00
1137.009, 41976.00
1138.102, 41672.00
1139.195, 41730.00
1140.288, 41873.00
1141.380, 41989.00
1142.473, 42080.00
1143.565, 42351.00
1144.657, 42221.00
1145.749, 42314.95
1146.841, 42464.00
1147.932, 42318.00
1149.024, 42288.00
1150.115, 42367.00
1151.206, 42343.00
1152.297, 42483.00
1153.388, 42457.00
1154.479, 42349.00
1155.569, 42477.00
1156.659, 42424.00
1157.750, 42503.00
1158.839, 42479.00
1159.929, 42610.00
1161.019, 42437.00
1162.108, 42488.00
1163.198, 42959.00
1164.287, 42647.00
1165.376, 42783.00
1166.465, 42991.00
1167.553, 42859.00
1168.642, 42831.00
1169.730, 42920.00
1170.818, 42764.00
1171.906, 43070.00
1172.994, 42802.00
1174.082, 43017.00
1175.170, 42949.00
1176.257, 43019.00
1177.344, 42916.00
1178.431, 43041.00
1179.518, 43074.86
1180.605, 43388.00
1181.691, 43270.00
1182.778, 43208.00
1183.864, 43378.00
1184.950, 43247.00
1186.036, 43231.00
1187.122, 43181.00
1188.207, 43363.00
1189.292, 43395.00
1190.378, 43587.00
1191.463, 43443.00
1192.548, 43624.00
1193.632, 43673.00
1194.717, 43457.00
1195.801, 43808.00
1196.886, 43783.00
1197.970, 43764.00
1199.054, 43712.00
1200.137, 43658.00
1201.221, 43730.00
1202.305, 43584.00
1203.388, 43836.00
1204.471, 44017.00
1205.554, 44045.00
1206.637, 43925.00
1207.719, 44126.00
1208.802, 43855.00
1209.884, 43971.00
1210.966, 43905.00
1212.048, 44059.00
1213.130, 43969.00
1214.212, 44140.00
1215.293, 44130.00
1216.374, 44419.00
1217.456, 44350.00
1218.536, 44404.00
1219.617, 44231.00
1220.698, 44487.00
1221.778, 44366.00
1222.859, 44520.00
1223.939, 44489.00
1225.019, 44579.00
1226.099, 44580.00
1227.178, 44526.00
1228.258, 44688.00
1229.337, 44485.00
1230.417, 44705.00
1231.496, 44991.00
1232.574, 44927.00
1233.653, 45091.70
1234.732, 45027.00
1235.810, 45163.00
1236.888, 44860.00
1237.966, 44840.00
1239.044, 44946.00
1240.122, 44985.00
1241.199, 44988.00
1242.277, 45161.00
1243.354, 45164.73
1244.431, 45108.00
1245.508, 45227.00
1246.585, 45235.00
1247.661, 45161.00
1248.738, 45369.00
1249.814, 45148.00
1250.890, 45219.00
1251.966, 45210.00
1253.042, 45263.00
1254.117, 45398.00
1255.193, 45595.00
1256.268, 45290.00
1257.343, 45491.00
1258.418, 45526.00
1259.493, 45219.00
1260.567, 45690.00
1261.642, 45478.00
1262.716, 45454.00
1263.790, 45788.00
1264.864, 45909.00
1265.938, 45889.00
1267.011, 45796.00
1268.085, 46243.00
1269.158, 45743.00
1270.231, 46045.00
1271.304, 46066.00
1272.377, 45894.00
1273.450, 46046.00
1274.522, 46185.00
1275.594, 45926.00
1276.666, 45939.00
1277.738, 45931.98
1278.810, 45928.83
1279.882, 45900.00
1280.953, 46106.00
1282.025, 46070.00
1283.096, 46194.00
1284.167, 46471.00
1285.238, 46585.00
1286.308, 46517.00
1287.379, 46469.00
1288.449, 46256.00
1289.519, 46540.00
1290.589, 46671.00
1291.659, 46227.00
1292.729, 46534.00
1293.798, 46608.00
1294.868, 46612.00
1295.937, 46775.00
1297.006, 46814.00
1298.075, 47050.00
1299.143, 46989.23
1300.212, 47156.00
1301.280, 46912.00
1302.348, 46952.00
1303.416, 46934.00
1304.484, 47066.00
1305.552, 47069.43
1306.620, 47102.98
1307.687, 47157.00
1308.754, 47128.00
1309.821, 47172.00
1310.888, 47139.00
1311.955, 47143.00
1313.021, 47127.00
1314.088, 47208.00
1315.154, 47172.00
1316.220, 47398.00
1317.286, 47415.00
1318.352, 47455.58
1319.417, 47474.68
1320.483, 47429.00
1321.548, 47437.00
1322.613, 47249.00
1323.678, 47315.00
1324.743, 47401.00
1325.807, 47796.00
1326.872, 47551.00
1327.936, 47641.00
1329.000, 47565.00
1330.064, 47600.57
1331.128, 47796.00
1332.191, 47728.00
1333.255, 47837.00
1334.318, 47838.00
1335.381, 47611.00
1336.444, 47732.00
1337.507, 47598.00
1338.569, 48079.00
1339.632, 48186.00
1340.694, 47944.00
1341.756, 48152.00
1342.818, 48133.00
1343.880, 48148.00
1344.941, 48348.00
1346.003, 47970.00
1347.064, 48188.00
1348.125, 48012.00
1349.186, 48416.00
1350.247, 48209.00
1351.308, 48122.00
1352.368, 48751.00
1353.428, 48476.00
1354.489, 48515.00
1355.549, 48321.00
1356.608, 48329.00
1357.668, 48330.00
1358.727, 48550.00
1359.787, 48560.00
1360.846, 48565.00
1361.905, 48507.00
1362.964, 48662.00
1364.022, 48665.00
1365.081, 48755.00
1366.139, 48654.00
1367.197, 48701.00
1368.255, 48765.00
1369.313, 48686.00
1370.371, 48866.00
1371.428, 48842.00
1372.486, 49097.00
1373.543, 49013.00
1374.600, 48970.00
1375.657, 49000.00
1376.713, 48982.93
1377.770, 49074.00
1378.826, 49071.00
1379.882, 49148.41
1380.938, 49270.00
1381.994, 49181.00
1383.050, 49190.00
1384.106, 49238.33
1385.161, 49185.00
1386.216, 49335.00
1387.271, 49318.00
1388.326, 49433.00
1389.381, 49455.00
1390.435, 49330.00
1391.490, 49372.00
1392.544, 49386.00
1393.598, 49429.00
1394.652, 49678.00
1395.705, 49495.00
1396.759, 49739.00
1397.812, 49657.00
1398.866, 49516.00
1399.919, 49688.00
1400.972, 49559.00
1402.024, 49472.00
1403.077, 49945.00
1404.129, 49898.00
1405.181, 49782.00
1406.233, 49608.00
1407.285, 49749.00
1408.337, 49913.00
1409.389, 49904.00
1410.440, 49978.96
1411.491, 50034.00
1412.542, 49992.00
1413.593, 50143.00
1414.644, 50158.00
1415.695, 49970.00
1416.745, 50424.00
1417.795, 50104.00
1418.845, 49988.00
1419.895, 50091.00
1420.945, 50296.00
1421.995, 50078.00
1423.044, 50374.00
1424.093, 50461.00
1425.142, 50485.00
1426.191, 50471.00
1427.240, 50520.56
1428.289, 50443.00
1429.337, 50576.00
1430.385, 50530.00
1431.433, 50595.00
1432.481, 50816.00
1433.529, 50771.00
1434.577, 50615.00
1435.624, 50943.00
1436.672, 50821.00
1437.719, 51002.00
1438.766, 51055.00
1439.812, 51046.00
1440.859, 50968.00
1441.905, 51074.00
1442.952, 51001.49
1443.998, 50990.86
1445.044, 50965.00
1446.090, 51010.00
1447.135, 51034.00
1448.181, 51218.00
1449.226, 51209.57
1450.271, 51313.00
1451.316, 51322.00
1452.361, 51362.00
1453.405, 51489.00
1454.450, 51480.00
1455.494, 51394.00
1456.538, 51497.00
1457.582, 51299.00
1458.626, 51512.00
1459.670, 51477.69
1460.713, 51685.00
1461.757, 51620.00
1462.800, 51453.00
1463.843, 51648.00
1464.886, 51689.00
1465.928, 51685.00
1466.971, 51775.46
1468.013, 51795.55
1469.055, 51838.00
1470.097, 51807.00
1471.139, 51844.00
1472.181, 51689.00
1473.222, 51597.00
1474.263, 51989.00
1475.305, 52196.00
1476.346, 51868.00
1477.386, 52010.00
1478.427, 51989.00
1479.468, 52185.00
1480.508, 52400.00
1481.548, 51996.00
1482.588, 52124.00
1483.628, 52078.00
1484.668, 52229.00
1485.707, 52196.00
1486.747, 52114.00
1487.786, 52547.00
1488.825, 52625.00
1489.864, 52260.00
1490.902, 52372.00
1491.941, 52702.00
1492.979, 52449.00
1494.017, 52243.00
1495.055, 52485.00
1496.093, 52766.00
1497.131, 52533.00
1498.168, 52788.00
1499.206, 52624.00
1500.243, 52688.00
1501.280, 52975.00
1502.317, 52697.00
1503.354, 52667.00
1504.390, 53074.00
1505.426, 53029.00
1506.463, 52555.00
1507.499, 52863.00
1508.535, 53149.00
1509.570, 52717.00
1510.606, 53186.00
1511.641, 53088.00
1512.676, 53147.00
1513.711, 53136.00
1514.746, 53273.00
1515.781, 53029.00
1516.816, 53286.00
1517.850, 53148.00
1518.884, 53491.00
1519.918, 53691.00
1520.952, 53221.00
1521.986, 53424.00
1523.019, 53602.00
1524.053, 53536.00
1525.086, 53495.00
1526.119, 53437.00
1527.152, 53589.00
1528.185, 53765.00
1529.217, 53653.00
1530.250, 53810.00
1531.282, 53830.00
1532.314, 53770.00
1533.346, 53917.00
1534.377, 54065.00
1535.409, 53948.00
1536.440, 53991.00
1537.472, 54026.00
1538.503, 53884.00
1539.534, 53471.00
1540.564, 54109.00
1541.595, 54221.00
1542.625, 53965.00
1543.656, 54304.00
1544.686, 54164.00
1545.716, 54186.00
1546.745, 54407.00
1547.775, 54538.00
1548.804, 54421.00
1549.834, 54597.00
1550.863, 54430.00
1551.892, 54378.00
1552.920, 54899.00
1553.949, 54637.00
1554.977, 55179.00
1556.006, 54787.00
1557.034, 54697.00
1558.062, 54885.00
1559.089, 55035.00
1560.117, 55119.00
1561.144, 54838.00
1562.172, 55024.00
1563.199, 54952.00
1564.226, 55254.00
1565.252, 55225.00
1566.279, 55082.00
1567.305, 55185.00
1568.332, 55158.00
1569.358, 55362.00
1570.384, 55478.00
##END=



