##NAMES=Talc
##RRUFFID=R050087
##IDEAL CHEMISTRY=Mg_3_Si_4_O_10_(OH)_2_
##LOCALITY=St. Lawrence County, New York, USA
##OWNER=RRUFF
##SOURCE=University of Arizona Mineral Museum
##DESCRIPTION=An aggregate of colorless foliated coarse single crystals
##STATUS=The identification of this mineral has been confirmed by X-ray diffraction and chemical analysis
##URL=rruff.info/R050087
##MEASURED CHEMISTRY=(Mg_.998_Fe_.002_)_3_(Si_.997_Al_.003_)_4_O_10_(OH_.966_F_.034_)_2_
##PIN_ID=M00271
##ORIENTATION=Laser parallel to (0 -1 -1). Fiducial mark perpendicular to laser is parallel to a [1 0 0]
93.48000, 12606.87
94.71400, 12889.00
95.94800, 13702.00
97.18200, 14106.00
98.41600, 14730.00
99.64900, 15353.00
100.8830, 16446.00
102.1160, 17834.00
103.3490, 19484.00
104.5820, 20580.00
105.8150, 21248.00
107.0470, 21000.00
108.2800, 21215.00
109.5120, 21423.00
110.7440, 21448.00
111.9760, 21216.00
113.2080, 20368.00
114.4400, 19564.00
115.6710, 19021.00
116.9030, 18083.00
118.1340, 17132.00
119.3650, 16449.00
120.5960, 15311.00
121.8270, 14734.00
123.0580, 14321.00
124.2880, 14288.00
125.5190, 14162.00
126.7490, 13933.00
127.9790, 13951.00
129.2090, 14015.00
130.4390, 13952.00
131.6680, 14079.00
132.8980, 14065.00
134.1270, 14064.00
135.3560, 14050.00
136.5850, 14154.00
137.8140, 14148.00
139.0430, 14177.00
140.2710, 14332.00
141.5000, 14401.00
142.7280, 14279.00
143.9560, 14415.00
145.1840, 14416.00
146.4120, 14478.00
147.6390, 14330.00
148.8670, 14289.00
150.0940, 14167.00
151.3210, 14286.00
152.5490, 14310.00
153.7750, 14443.00
155.0020, 14246.00
156.2290, 14358.00
157.4550, 14295.00
158.6810, 14395.00
159.9080, 14404.00
161.1340, 14410.73
162.3590, 14451.00
163.5850, 14441.00
164.8110, 14440.00
166.0360, 14451.80
167.2610, 14552.00
168.4860, 14568.00
169.7110, 14609.00
170.9360, 14652.00
172.1610, 14657.00
173.3850, 14757.00
174.6100, 14912.00
175.8340, 14707.00
177.0580, 14878.00
178.2820, 14963.00
179.5050, 15132.00
180.7290, 15472.00
181.9520, 15787.00
183.1760, 16638.00
184.3990, 18231.00
185.6220, 20349.00
186.8450, 22196.00
188.0670, 22108.00
189.2900, 23206.00
190.5120, 27538.00
191.7340, 32829.00
192.9560, 38314.00
194.1780, 41487.00
195.4000, 39104.00
196.6220, 33113.00
197.8430, 26897.00
199.0640, 22211.00
200.2860, 19093.00
201.5070, 17446.00
202.7270, 16631.00
203.9480, 16085.00
205.1690, 15947.00
206.3890, 15702.00
207.6090, 15644.00
208.8290, 15466.00
210.0490, 15458.00
211.2690, 15585.00
212.4890, 15417.00
213.7080, 15486.00
214.9280, 15519.00
216.1470, 15554.00
217.3660, 15548.00
218.5850, 15712.00
219.8030, 15726.00
221.0220, 15679.00
222.2400, 15733.00
223.4590, 15699.00
224.6770, 15965.00
225.8950, 16092.00
227.1120, 16362.00
228.3300, 16441.00
229.5480, 16395.00
230.7650, 16345.00
231.9820, 16265.00
233.1990, 16009.00
234.4160, 15859.00
235.6330, 16001.00
236.8490, 15867.00
238.0660, 15917.00
239.2820, 15882.00
240.4980, 15909.00
241.7140, 15944.00
242.9300, 15728.00
244.1460, 15936.00
245.3610, 15968.00
246.5770, 16056.00
247.7920, 15785.00
249.0070, 15933.00
250.2220, 15912.00
251.4370, 16157.00
252.6510, 15934.00
253.8660, 15995.00
255.0800, 16175.00
256.2940, 16120.00
257.5080, 16059.00
258.7220, 16117.00
259.9360, 16367.00
261.1490, 16152.00
262.3630, 16185.00
263.5760, 16309.00
264.7890, 16153.00
266.0020, 16408.00
267.2150, 16264.00
268.4270, 16390.00
269.6400, 16262.00
270.8520, 16352.00
272.0640, 16389.00
273.2760, 16373.00
274.4880, 16444.00
275.7000, 16392.00
276.9120, 16427.00
278.1230, 16507.00
279.3340, 16610.00
280.5450, 16972.00
281.7560, 17095.00
282.9670, 17258.00
284.1780, 17591.00
285.3880, 17749.00
286.5980, 18352.00
287.8090, 18970.00
289.0190, 19637.00
290.2290, 19752.00
291.4380, 19265.00
292.6480, 18667.00
293.8570, 18060.00
295.0670, 17727.00
296.2760, 17271.00
297.4850, 17108.00
298.6930, 16998.00
299.9020, 17173.00
301.1110, 17078.00
302.3190, 17029.00
303.5270, 17046.00
304.7350, 17004.64
305.9430, 17098.00
307.1510, 17031.00
308.3580, 16920.00
309.5660, 16983.00
310.7730, 16884.00
311.9800, 16881.00
313.1870, 17015.00
314.3940, 17104.00
315.6010, 17057.00
316.8070, 17390.00
318.0130, 17230.00
319.2200, 17128.00
320.4260, 17296.00
321.6310, 17399.00
322.8370, 17477.00
324.0430, 17707.00
325.2480, 17529.00
326.4540, 17819.00
327.6590, 17999.00
328.8640, 18318.00
330.0680, 18598.00
331.2730, 18828.00
332.4780, 18735.00
333.6820, 18820.00
334.8860, 18653.00
336.0900, 18527.00
337.2940, 18428.00
338.4980, 18292.00
339.7010, 18320.78
340.9050, 18308.00
342.1080, 18433.00
343.3110, 18545.00
344.5140, 18675.00
345.7170, 18893.87
346.9200, 19261.00
348.1220, 19454.00
349.3240, 19710.00
350.5270, 20186.00
351.7290, 20923.00
352.9310, 21826.00
354.1320, 22866.00
355.3340, 24035.00
356.5350, 25386.00
357.7370, 26698.00
358.9380, 28444.00
360.1390, 30195.00
361.3400, 30963.00
362.5400, 31001.00
363.7410, 29978.00
364.9410, 28171.00
366.1410, 25985.00
367.3410, 24180.00
368.5410, 22468.00
369.7410, 21306.00
370.9400, 20593.00
372.1400, 19779.00
373.3390, 19576.00
374.5380, 19554.00
375.7370, 19620.00
376.9360, 19350.00
378.1350, 19705.00
379.3330, 19515.00
380.5310, 19526.00
381.7300, 19389.00
382.9280, 19186.00
384.1260, 19261.00
385.3230, 19052.00
386.5210, 18882.00
387.7180, 18966.00
388.9160, 18710.00
390.1130, 18591.00
391.3100, 18684.00
392.5060, 18574.00
393.7030, 18789.00
394.9000, 18728.00
396.0960, 18612.00
397.2920, 18487.00
398.4880, 18561.00
399.6840, 18646.00
400.8800, 18603.00
402.0750, 18579.00
403.2710, 18685.00
404.4660, 18558.00
405.6610, 18672.00
406.8560, 18583.00
408.0510, 18514.00
409.2450, 18619.00
410.4400, 18655.00
411.6340, 18610.00
412.8280, 18808.00
414.0220, 18830.00
415.2160, 18771.00
416.4100, 18935.00
417.6030, 18927.00
418.7970, 18982.00
419.9900, 19059.00
421.1830, 19040.00
422.3760, 19207.00
423.5690, 19348.00
424.7610, 19827.00
425.9540, 19963.00
427.1460, 20374.00
428.3380, 20704.00
429.5300, 21102.00
430.7220, 21835.00
431.9140, 22246.00
433.1050, 22479.00
434.2970, 21987.00
435.4880, 21414.00
436.6790, 20766.00
437.8700, 20358.00
439.0610, 19925.00
440.2510, 19935.00
441.4420, 19749.00
442.6320, 19717.00
443.8220, 19537.00
445.0120, 19767.00
446.2020, 19581.00
447.3910, 19929.00
448.5810, 20116.00
449.7700, 20233.00
450.9600, 20310.00
452.1490, 20382.00
453.3370, 20383.00
454.5260, 20344.00
455.7150, 20302.00
456.9030, 20304.00
458.0910, 20295.00
459.2800, 20396.00
460.4670, 20607.00
461.6550, 20711.00
462.8430, 20955.00
464.0300, 21376.00
465.2180, 21891.00
466.4050, 22326.00
467.5920, 22385.18
468.7790, 22396.42
469.9650, 22184.00
471.1520, 21893.00
472.3380, 21323.00
473.5250, 20854.00
474.7110, 20678.00
475.8970, 20395.00
477.0820, 20151.00
478.2680, 20183.00
479.4540, 20191.00
480.6390, 20089.00
481.8240, 20092.00
483.0090, 19988.00
484.1940, 20006.00
485.3780, 20101.00
486.5630, 19994.00
487.7470, 20080.00
488.9320, 20079.90
490.1160, 20125.00
491.3000, 20160.00
492.4830, 20195.00
493.6670, 20333.00
494.8500, 20241.00
496.0340, 20182.00
497.2170, 20214.00
498.4000, 20334.00
499.5820, 20436.00
500.7650, 20633.00
501.9480, 20712.00
503.1300, 20737.00
504.3120, 20769.00
505.4940, 20833.00
506.6760, 20882.39
507.8580, 20914.00
509.0390, 20981.00
510.2210, 20884.00
511.4020, 20849.00
512.5830, 20863.00
513.7640, 20942.00
514.9450, 21113.00
516.1250, 21059.00
517.3060, 21123.00
518.4860, 21082.00
519.6660, 21165.00
520.8460, 20888.00
522.0260, 21033.00
523.2060, 20918.00
524.3850, 20920.00
525.5650, 20823.00
526.7440, 20933.00
527.9230, 20813.00
529.1020, 21003.00
530.2810, 20944.00
531.4590, 20838.00
532.6380, 20935.00
533.8160, 20836.00
534.9940, 20875.00
536.1720, 20944.00
537.3500, 20888.00
538.5270, 20915.80
539.7050, 20940.63
540.8820, 20930.00
542.0590, 21011.00
543.2360, 21115.00
544.4130, 21203.00
545.5900, 21237.66
546.7660, 21230.00
547.9430, 21225.00
549.1190, 21250.00
550.2950, 21098.00
551.4710, 21015.00
552.6470, 21070.00
553.8220, 21263.00
554.9980, 21210.00
556.1730, 21460.00
557.3480, 21298.00
558.5230, 21364.00
559.6980, 21490.00
560.8730, 21328.00
562.0470, 21534.00
563.2220, 21372.00
564.3960, 21689.00
565.5700, 21504.00
566.7440, 21549.00
567.9170, 21510.00
569.0910, 21367.00
570.2640, 21777.00
571.4380, 21622.00
572.6110, 21755.00
573.7840, 21576.00
574.9570, 21527.00
576.1290, 21668.00
577.3020, 21719.00
578.4740, 21808.00
579.6460, 21781.00
580.8180, 21901.00
581.9900, 21890.00
583.1620, 21997.00
584.3330, 22003.00
585.5040, 21876.00
586.6760, 22057.00
587.8470, 21911.00
589.0180, 22007.00
590.1880, 22137.00
591.3590, 22093.00
592.5290, 22028.00
593.7000, 22233.00
594.8700, 22095.00
596.0400, 22077.00
597.2090, 22154.00
598.3790, 22233.00
599.5490, 22331.00
600.7180, 22404.46
601.8870, 22396.00
603.0560, 22528.00
604.2250, 22541.00
605.3940, 22517.00
606.5620, 22558.10
607.7300, 22527.00
608.8990, 22516.00
610.0670, 22637.00
611.2350, 22574.00
612.4020, 22586.00
613.5700, 22553.00
614.7370, 22818.00
615.9050, 22860.00
617.0720, 23071.00
618.2390, 22869.00
619.4060, 23040.00
620.5720, 23270.00
621.7390, 23168.00
622.9050, 23372.00
624.0710, 23368.00
625.2370, 23576.00
626.4030, 23683.00
627.5690, 23553.00
628.7340, 23525.00
629.9000, 23686.00
631.0650, 23691.00
632.2300, 23564.00
633.3950, 23532.00
634.5600, 23738.00
635.7240, 23455.00
636.8890, 23674.00
638.0530, 23835.00
639.2170, 23897.00
640.3810, 24004.00
641.5450, 23843.00
642.7080, 24099.00
643.8720, 24143.00
645.0350, 24500.00
646.1980, 24474.00
647.3610, 24460.00
648.5240, 24532.00
649.6870, 24736.00
650.8490, 24592.00
652.0120, 24992.00
653.1740, 25172.00
654.3360, 25255.00
655.4980, 25395.00
656.6600, 25459.00
657.8210, 25958.00
658.9830, 26072.00
660.1440, 26522.00
661.3050, 27216.00
662.4660, 27899.00
663.6270, 28697.00
664.7870, 29931.00
665.9480, 31408.00
667.1080, 33440.00
668.2680, 35742.00
669.4280, 38758.00
670.5880, 42399.00
671.7480, 45513.00
672.9070, 49467.00
674.0670, 53236.00
675.2260, 55669.00
676.3850, 57189.00
677.5440, 56628.00
678.7030, 53920.00
679.8610, 49988.00
681.0200, 45670.00
682.1780, 41593.00
683.3360, 38081.00
684.4940, 35146.00
685.6520, 33106.00
686.8090, 31129.00
687.9670, 30218.00
689.1240, 29155.00
690.2810, 28163.00
691.4380, 27387.00
692.5950, 26801.24
693.7520, 26542.00
694.9080, 26109.00
696.0650, 25948.00
697.2210, 25745.03
698.3770, 25810.00
699.5330, 25487.00
700.6880, 25427.00
701.8440, 25313.00
702.9990, 25331.00
704.1550, 25100.00
705.3100, 25215.00
706.4650, 24993.00
707.6190, 25060.00
708.7740, 24994.00
709.9290, 25036.00
711.0830, 25054.00
712.2370, 24804.00
713.3910, 24705.00
714.5450, 24958.00
715.6980, 24774.00
716.8520, 24796.00
718.0050, 25036.00
719.1580, 24751.00
720.3110, 25096.00
721.4640, 24799.00
722.6170, 25270.00
723.7700, 24994.00
724.9220, 24912.00
726.0740, 24937.00
727.2260, 24898.00
728.3780, 25042.00
729.5300, 25059.00
730.6810, 25134.00
731.8330, 25101.00
732.9840, 25069.00
734.1350, 25272.00
735.2860, 25090.00
736.4370, 25165.00
737.5880, 25235.00
738.7380, 25198.00
739.8880, 25215.00
741.0390, 25224.00
742.1890, 25202.00
743.3380, 25197.00
744.4880, 25405.00
745.6380, 25309.00
746.7870, 25621.00
747.9360, 25406.00
749.0850, 25471.00
750.2340, 25468.00
751.3830, 25536.00
752.5310, 25535.00
753.6800, 25550.00
754.8280, 25723.00
755.9760, 25497.00
757.1240, 25718.00
758.2720, 25655.00
759.4190, 25802.00
760.5670, 25735.00
761.7140, 25890.00
762.8610, 25783.00
764.0080, 25817.00
765.1550, 25863.00
766.3020, 25851.00
767.4480, 26076.00
768.5950, 25843.00
769.7410, 26087.00
770.8870, 25912.00
772.0330, 26141.00
773.1780, 26168.00
774.3240, 26180.00
775.4690, 26465.00
776.6140, 26348.00
777.7590, 26382.00
778.9040, 26659.00
780.0490, 27051.00
781.1940, 27041.00
782.3380, 27542.00
783.4820, 27734.00
784.6260, 28144.00
785.7700, 28447.00
786.9140, 28467.00
788.0580, 28387.00
789.2010, 28435.00
790.3450, 28545.00
791.4880, 28535.00
792.6310, 28420.00
793.7730, 28430.00
794.9160, 28318.00
796.0590, 28096.00
797.2010, 27940.00
798.3430, 27703.00
799.4850, 27640.00
800.6270, 27061.00
801.7690, 27128.00
802.9100, 26954.00
804.0520, 26887.00
805.1930, 26919.00
806.3340, 26905.00
807.4750, 27090.00
808.6160, 27184.00
809.7560, 27001.00
810.8970, 26901.00
812.0370, 26922.00
813.1770, 27032.00
814.3170, 26946.00
815.4570, 26973.00
816.5960, 26934.00
817.7360, 27084.00
818.8750, 27118.00
820.0140, 27089.00
821.1530, 27279.00
822.2920, 27234.00
823.4310, 27358.00
824.5690, 27203.00
825.7070, 27368.00
826.8460, 27383.00
827.9840, 27466.00
829.1220, 27443.00
830.2590, 27312.00
831.3970, 27442.00
832.5340, 27419.00
833.6710, 27424.00
834.8080, 27522.00
835.9450, 27728.00
837.0820, 27503.00
838.2190, 27688.00
839.3550, 27750.00
840.4910, 27665.00
841.6270, 27525.00
842.7630, 27759.00
843.8990, 27787.00
845.0350, 27678.00
846.1700, 27945.00
847.3060, 27817.00
848.4410, 27926.00
849.5760, 27830.00
850.7100, 28071.00
851.8450, 28061.00
852.9800, 28099.00
854.1140, 28217.00
855.2480, 28021.00
856.3820, 28271.00
857.5160, 28496.00
858.6500, 28353.00
859.7830, 28667.00
860.9170, 28574.00
862.0500, 28712.00
863.1830, 28718.00
864.3160, 28608.00
865.4480, 28737.00
866.5810, 28680.00
867.7130, 28485.00
868.8460, 28605.00
869.9780, 28495.00
871.1100, 28510.00
872.2410, 28620.00
873.3730, 28529.00
874.5050, 28586.00
875.6360, 28481.00
876.7670, 28639.00
877.8980, 28637.56
879.0290, 28462.00
880.1590, 28755.00
881.2900, 28589.00
882.4200, 28645.00
883.5500, 28578.00
884.6800, 28479.00
885.8100, 28527.82
886.9400, 28830.00
888.0690, 28631.00
889.1990, 28678.00
890.3280, 28908.00
891.4570, 28802.00
892.5860, 28760.00
893.7140, 28942.00
894.8430, 28969.00
895.9710, 29000.00
897.1000, 29037.00
898.2280, 28996.00
899.3560, 29003.00
900.4830, 29049.00
901.6110, 28998.00
902.7380, 29106.00
903.8660, 29291.00
904.9930, 29325.00
906.1200, 29151.00
907.2460, 29029.00
908.3730, 29140.00
909.5000, 29185.00
910.6260, 29199.00
911.7520, 29422.00
912.8780, 29460.00
914.0040, 29137.00
915.1290, 29321.00
916.2550, 29116.00
917.3800, 29423.00
918.5050, 29441.00
919.6300, 29291.00
920.7550, 29099.00
921.8800, 29563.00
923.0040, 29230.00
924.1290, 29409.00
925.2530, 29497.00
926.3770, 29584.00
927.5010, 29646.00
928.6250, 29446.00
929.7480, 29610.00
930.8720, 29615.00
931.9950, 29855.00
933.1180, 29548.00
934.2410, 29699.00
935.3640, 29611.00
936.4860, 29710.00
937.6090, 29857.00
938.7310, 29880.00
939.8530, 29845.00
940.9750, 29734.00
942.0970, 29933.00
943.2180, 29746.00
944.3400, 30071.00
945.4610, 29921.00
946.5820, 29909.00
947.7030, 29795.00
948.8240, 30062.00
949.9450, 30056.00
951.0650, 30054.00
952.1860, 30142.00
953.3060, 30070.00
954.4260, 30194.00
955.5460, 30137.00
956.6650, 30226.00
957.7850, 30318.00
958.9040, 30240.00
960.0230, 30230.00
961.1420, 30162.00
962.2610, 30326.00
963.3800, 30376.00
964.4990, 30306.00
965.6170, 30391.00
966.7350, 30318.00
967.8530, 30474.00
968.9710, 30281.00
970.0890, 30351.00
971.2070, 30519.00
972.3240, 30601.00
973.4410, 30628.70
974.5580, 30695.43
975.6750, 30626.00
976.7920, 30677.00
977.9090, 30627.00
979.0250, 30504.00
980.1410, 30861.00
981.2580, 30470.00
982.3740, 30584.00
983.4890, 30912.00
984.6050, 30942.00
985.7200, 31067.11
986.8360, 30893.00
987.9510, 31133.00
989.0660, 31064.00
990.1810, 30968.00
991.2950, 30967.00
992.4100, 30853.00
993.5240, 30944.00
994.6390, 31139.00
995.7530, 31172.00
996.8660, 31196.00
997.9800, 31473.00
999.0940, 31652.00
1000.207, 31563.00
1001.320, 31860.00
1002.433, 32048.00
1003.546, 32144.00
1004.659, 31968.00
1005.772, 31815.00
1006.884, 32009.00
1007.996, 31811.00
1009.108, 31792.00
1010.220, 31869.00
1011.332, 32019.00
1012.444, 32218.00
1013.555, 32349.00
1014.666, 32692.00
1015.777, 32734.00
1016.888, 32886.00
1017.999, 33177.00
1019.110, 33090.00
1020.220, 33094.00
1021.331, 32712.00
1022.441, 32666.00
1023.551, 32518.00
1024.661, 32202.00
1025.770, 32608.00
1026.880, 32114.00
1027.989, 32292.00
1029.098, 32290.00
1030.207, 32350.00
1031.316, 32127.00
1032.425, 32086.00
1033.533, 32163.00
1034.642, 32236.00
1035.750, 32275.00
1036.858, 32225.00
1037.966, 32401.00
1039.073, 32156.00
1040.181, 32666.00
1041.288, 32366.00
1042.396, 32774.00
1043.503, 32716.00
1044.610, 32790.00
1045.716, 33043.00
1046.823, 33589.00
1047.929, 33756.00
1049.036, 33898.00
1050.142, 34308.00
1051.248, 34400.00
1052.353, 34565.00
1053.459, 34369.00
1054.564, 34020.00
1055.670, 33600.00
1056.775, 33348.00
1057.880, 33325.00
1058.985, 32999.00
1060.089, 33012.00
1061.194, 32711.00
1062.298, 33040.00
1063.402, 32859.00
1064.506, 32988.00
1065.610, 32809.00
1066.713, 32873.00
1067.817, 32898.00
1068.920, 33113.00
1070.023, 33136.00
1071.126, 33104.00
1072.229, 33037.00
1073.332, 32968.00
1074.435, 33001.00
1075.537, 33210.00
1076.639, 33153.00
1077.741, 33422.00
1078.843, 33500.00
1079.945, 33179.00
1081.046, 33297.00
1082.148, 33616.00
1083.249, 33401.00
1084.350, 33586.00
1085.451, 33741.00
1086.551, 33656.00
1087.652, 33450.00
1088.752, 33618.00
1089.853, 33572.00
1090.953, 33791.00
1092.053, 33717.00
1093.152, 33810.00
1094.252, 33637.00
1095.351, 33593.00
1096.451, 33666.00
1097.550, 33606.00
1098.649, 33768.00
1099.748, 33750.00
1100.846, 33631.00
1101.945, 34063.00
1103.043, 34034.00
1104.141, 33954.00
1105.239, 33665.00
1106.337, 33886.00
1107.434, 33849.00
1108.532, 34091.00
1109.629, 34061.00
1110.726, 33710.00
1111.823, 34156.00
1112.920, 34082.00
1114.017, 34083.00
1115.113, 34324.00
1116.210, 34273.00
1117.306, 34378.00
1118.402, 34313.00
1119.498, 34208.00
1120.593, 34277.00
1121.689, 34375.00
1122.784, 34320.00
1123.879, 34405.63
1124.974, 34404.27
1126.069, 34460.00
1127.164, 34478.00
1128.259, 34461.00
1129.353, 34626.00
1130.447, 34590.00
1131.541, 34633.00
1132.635, 34707.00
1133.729, 34520.00
1134.822, 34734.00
1135.916, 34794.00
1137.009, 34523.00
1138.102, 34665.00
1139.195, 34863.00
1140.288, 34762.00
1141.380, 34767.00
1142.473, 34821.00
1143.565, 34781.00
1144.657, 34651.00
1145.749, 34876.00
1146.841, 34951.00
1147.932, 35149.00
1149.024, 34895.00
1150.115, 35073.23
1151.206, 34961.00
1152.297, 35151.00
1153.388, 35064.00
1154.479, 35046.00
1155.569, 35006.00
1156.659, 35041.39
1157.750, 35330.00
1158.839, 35166.00
1159.929, 35271.00
1161.019, 35360.00
1162.108, 35177.00
1163.198, 35280.00
1164.287, 35538.00
1165.376, 35617.00
1166.465, 35445.00
1167.553, 35590.00
1168.642, 35238.00
1169.730, 35661.00
1170.818, 35738.00
1171.906, 35815.00
1172.994, 35575.00
1174.082, 35577.00
1175.170, 35684.00
1176.257, 35648.00
1177.344, 35695.00
1178.431, 35638.00
1179.518, 35838.00
1180.605, 35952.00
1181.691, 35803.00
1182.778, 35657.00
1183.864, 35959.00
1184.950, 35762.00
1186.036, 36196.00
1187.122, 36008.00
1188.207, 36097.00
1189.292, 36136.00
1190.378, 36081.00
1191.463, 36062.00
1192.548, 36209.00
1193.632, 36082.00
1194.717, 36005.00
1195.801, 36058.00
1196.886, 36162.00
1197.970, 36287.00
1199.054, 36411.00
1200.137, 36291.00
1201.221, 36157.00
1202.305, 36347.00
1203.388, 36562.00
1204.471, 36491.00
1205.554, 36058.00
1206.637, 36478.00
1207.719, 36281.00
1208.802, 36744.00
1209.884, 36422.00
1210.966, 36394.00
1212.048, 36544.00
1213.130, 36601.00
1214.212, 36868.00
1215.293, 36849.00
1216.374, 37072.00
1217.456, 36933.00
1218.536, 37088.00
1219.617, 36740.00
1220.698, 36975.00
1221.778, 36998.00
1222.859, 37128.00
1223.939, 36918.00
1225.019, 37007.00
1226.099, 36985.00
1227.178, 37013.00
1228.258, 37022.00
1229.337, 37321.00
1230.417, 37075.00
1231.496, 37542.00
1232.574, 37211.00
1233.653, 37319.00
1234.732, 37571.00
1235.810, 37385.00
1236.888, 37614.00
1237.966, 37471.00
1239.044, 37756.00
1240.122, 37648.00
1241.199, 37317.00
1242.277, 37722.00
1243.354, 37611.00
1244.431, 37773.00
1245.508, 37939.00
1246.585, 37386.00
1247.661, 37750.00
1248.738, 37740.00
1249.814, 37776.00
1250.890, 38003.00
1251.966, 37745.00
1253.042, 38137.00
1254.117, 37867.00
1255.193, 37832.00
1256.268, 37781.00
1257.343, 37951.00
1258.418, 38162.00
1259.493, 37942.00
1260.567, 37960.00
1261.642, 38366.00
1262.716, 38238.00
1263.790, 38605.00
1264.864, 38617.00
1265.938, 38156.00
1267.011, 38265.00
1268.085, 38547.00
1269.158, 38471.00
1270.231, 38551.00
1271.304, 38656.00
1272.377, 38644.92
1273.450, 38717.29
1274.522, 38670.00
1275.594, 38831.00
1276.666, 38742.00
1277.738, 38888.00
1278.810, 38873.00
1279.882, 38858.00
1280.953, 39075.00
1282.025, 38805.00
1283.096, 38840.00
1284.167, 39016.00
1285.238, 39058.00
1286.308, 38996.00
1287.379, 38881.00
1288.449, 38973.00
1289.519, 38966.00
1290.589, 38982.00
1291.659, 39115.00
1292.729, 39209.73
1293.798, 39145.00
1294.868, 39452.00
1295.937, 39475.00
1297.006, 39437.00
1298.075, 39551.00
1299.143, 39662.00
1300.212, 39485.00
1301.280, 39231.00
1302.348, 39671.00
1303.416, 39605.00
1304.484, 39230.00
1305.552, 39604.00
1306.620, 39614.00
1307.687, 39597.00
1308.754, 39753.00
1309.821, 39697.00
1310.888, 40025.00
1311.955, 39702.00
1313.021, 39736.00
1314.088, 40043.00
1315.154, 39730.00
1316.220, 40043.00
1317.286, 39987.00
1318.352, 40365.00
1319.417, 39916.00
1320.483, 40043.00
1321.548, 40212.00
1322.613, 40097.00
1323.678, 40297.00
1324.743, 40421.00
1325.807, 40172.00
1326.872, 40204.00
1327.936, 39891.00
1329.000, 40051.00
1330.064, 40175.00
1331.128, 39673.00
1332.191, 40087.00
1333.255, 40058.00
1334.318, 39895.00
1335.381, 40139.00
1336.444, 40066.00
1337.507, 40070.00
1338.569, 40136.00
1339.632, 40162.00
1340.694, 40270.00
1341.756, 40228.00
1342.818, 40265.00
1343.880, 39978.00
1344.941, 40360.00
1346.003, 40407.00
1347.064, 40649.00
1348.125, 40124.00
1349.186, 40283.00
1350.247, 40207.00
1351.308, 40382.00
1352.368, 40492.00
1353.428, 40552.00
1354.489, 40412.00
1355.549, 40599.00
1356.608, 40461.00
1357.668, 40724.00
1358.727, 40742.00
1359.787, 40995.00
1360.846, 40851.00
1361.905, 40854.00
1362.964, 40665.00
1364.022, 40691.00
1365.081, 40749.00
1366.139, 40472.00
1367.197, 40513.00
1368.255, 40941.00
1369.313, 40813.00
1370.371, 40811.00
1371.428, 41116.00
1372.486, 41232.00
1373.543, 41119.00
1374.600, 41039.00
1375.657, 40867.00
1376.713, 41117.00
1377.770, 41178.00
1378.826, 41322.00
1379.882, 41656.00
1380.938, 41205.00
1381.994, 41234.00
1383.050, 41233.00
1384.106, 41479.00
1385.161, 41214.00
1386.216, 41526.00
1387.271, 41389.00
1388.326, 41499.00
1389.381, 41368.00
1390.435, 41576.00
1391.490, 41556.00
1392.544, 41614.00
1393.598, 41543.00
1394.652, 41575.04
1395.705, 41676.00
1396.759, 41592.00
1397.812, 41757.00
1398.866, 41785.00
1399.919, 41714.00
1400.972, 41735.00
1402.024, 41635.00
1403.077, 41793.00
1404.129, 41731.00
1405.181, 41816.00
1406.233, 41796.00
1407.285, 41780.00
1408.337, 41871.00
1409.389, 42122.00
1410.440, 41902.00
1411.491, 42135.00
1412.542, 41811.00
1413.593, 41978.00
1414.644, 41861.00
1415.695, 42115.00
1416.745, 42037.00
1417.795, 42234.00
1418.845, 42199.00
1419.895, 42059.00
1420.945, 42338.00
1421.995, 42085.00
1423.044, 41986.00
1424.093, 42303.00
1425.142, 42448.00
1426.191, 42142.00
1427.240, 42561.00
1428.289, 42528.00
1429.337, 42721.00
1430.385, 42657.00
1431.433, 42446.00
1432.481, 42411.00
1433.529, 42680.00
1434.577, 42854.00
1435.624, 43004.00
1436.672, 43047.00
1437.719, 43201.00
1438.766, 43226.00
1439.812, 43302.55
1440.859, 43510.00
1441.905, 43448.00
1442.952, 43549.00
1443.998, 43697.00
1445.044, 43867.00
1446.090, 43931.48
1447.135, 44075.94
1448.181, 44003.00
1449.226, 44223.00
1450.271, 44091.00
1451.316, 43990.00
1452.361, 44309.00
1453.405, 44121.00
1454.450, 44437.00
1455.494, 44180.00
1456.538, 44312.00
1457.582, 44386.00
1458.626, 44494.00
1459.670, 44443.25
1460.713, 44501.00
1461.757, 44337.00
1462.800, 44328.91
1463.843, 44076.00
1464.886, 44233.00
1465.928, 44272.00
1466.971, 44294.00
1468.013, 44127.00
1469.055, 43844.00
1470.097, 44011.00
1471.139, 43792.00
1472.181, 44154.00
1473.222, 44279.00
1474.263, 44047.00
1475.305, 44435.00
1476.346, 44111.00
1477.386, 43925.00
1478.427, 43900.00
1479.468, 44210.00
1480.508, 44267.00
1481.548, 44173.00
1482.588, 43991.00
1483.628, 44245.00
1484.668, 44377.00
1485.707, 44103.00
1486.747, 44279.00
1487.786, 44125.00
1488.825, 44051.00
1489.864, 44174.00
1490.902, 44056.26
1491.941, 44158.00
1492.979, 44081.00
1494.017, 44012.00
1495.055, 44175.00
1496.093, 44333.00
1497.131, 44220.00
1498.168, 44130.00
1499.206, 44088.00
1500.243, 44471.00
1501.280, 44471.00
1502.317, 44390.00
1503.354, 44391.00
1504.390, 44173.00
1505.426, 44456.00
1506.463, 44267.00
1507.499, 44384.00
1508.535, 44569.00
1509.570, 44607.00
1510.606, 44614.00
1511.641, 44600.00
1512.676, 44626.00
1513.711, 44825.00
1514.746, 44618.00
1515.781, 44769.00
1516.816, 44561.00
1517.850, 44854.00
1518.884, 44678.00
1519.918, 44704.00
1520.952, 44830.00
1521.986, 44852.00
1523.019, 45024.00
1524.053, 44886.00
1525.086, 44921.00
1526.119, 45160.00
1527.152, 45050.00
1528.185, 45075.00
1529.217, 45099.00
1530.250, 45415.00
1531.282, 45200.00
1532.314, 45270.00
1533.346, 44985.00
1534.377, 44909.00
1535.409, 45379.00
1536.440, 45453.00
1537.472, 45297.00
1538.503, 45275.00
1539.534, 45549.00
1540.564, 45308.00
1541.595, 45428.00
1542.625, 45524.00
1543.656, 45440.00
1544.686, 45467.00
1545.716, 45507.00
1546.745, 45370.00
1547.775, 45281.00
1548.804, 45634.00
1549.834, 45528.00
1550.863, 45543.00
1551.892, 45507.00
1552.920, 45468.00
1553.949, 45919.00
1554.977, 45779.00
1556.006, 45802.00
1557.034, 45972.00
1558.062, 45811.00
1559.089, 45817.00
1560.117, 45796.00
1561.144, 45858.00
1562.172, 46140.00
1563.199, 45929.00
1564.226, 45925.00
1565.252, 45832.00
1566.279, 46160.00
1567.305, 46092.00
1568.332, 45908.00
1569.358, 47062.00
1570.384, 45836.00
1571.409, 46532.00
##END=



