##NAMES=Talc
##RRUFFID=R050087
##IDEAL CHEMISTRY=Mg_3_Si_4_O_10_(OH)_2_
##LOCALITY=St. Lawrence County, New York, USA
##OWNER=RRUFF
##SOURCE=University of Arizona Mineral Museum
##DESCRIPTION=An aggregate of colorless foliated coarse single crystals
##STATUS=The identification of this mineral has been confirmed by X-ray diffraction and chemical analysis
##URL=rruff.info/R050087
##MEASURED CHEMISTRY=(Mg_.998_Fe_.002_)_3_(Si_.997_Al_.003_)_4_O_10_(OH_.966_F_.034_)_2_
##PIN_ID=M00178
##ORIENTATION=Laser parallel to (1 1 0). Fiducial mark perpendicular to laser is parallel to c [0 0 1]
99.64900, 13439.00
100.8830, 13731.00
102.1160, 14320.00
103.3490, 14930.00
104.5820, 15326.00
105.8150, 15876.00
107.0470, 16204.00
108.2800, 16542.00
109.5120, 16458.00
110.7440, 16166.00
111.9760, 15996.00
113.2080, 15867.90
114.4400, 15662.00
115.6710, 15595.00
116.9030, 15363.00
118.1340, 15197.00
119.3650, 15169.00
120.5960, 14746.00
121.8270, 14453.00
123.0580, 14432.00
124.2880, 14269.00
125.5190, 14236.00
126.7490, 14181.00
127.9790, 14354.00
129.2090, 14430.00
130.4390, 14490.00
131.6680, 14531.00
132.8980, 14541.00
134.1270, 14550.00
135.3560, 14574.00
136.5850, 14658.00
137.8140, 14659.00
139.0430, 14768.49
140.2710, 14738.00
141.5000, 14933.00
142.7280, 14992.00
143.9560, 14986.00
145.1840, 14995.00
146.4120, 14941.00
147.6390, 15066.00
148.8670, 15289.00
150.0940, 15248.00
151.3210, 15074.00
152.5490, 15388.00
153.7750, 15151.00
155.0020, 15305.00
156.2290, 15371.00
157.4550, 15257.00
158.6810, 15308.00
159.9080, 15469.00
161.1340, 15427.00
162.3590, 15283.00
163.5850, 15610.00
164.8110, 15504.00
166.0360, 15618.00
167.2610, 15592.00
168.4860, 15659.00
169.7110, 15718.00
170.9360, 15763.00
172.1610, 15816.00
173.3850, 15826.00
174.6100, 15855.00
175.8340, 15954.00
177.0580, 16001.00
178.2820, 16089.00
179.5050, 16114.00
180.7290, 16433.00
181.9520, 16655.00
183.1760, 17138.00
184.3990, 18288.00
185.6220, 19486.00
186.8450, 20870.00
188.0670, 20537.00
189.2900, 20795.00
190.5120, 22298.00
191.7340, 24253.00
192.9560, 26022.00
194.1780, 27151.00
195.4000, 27003.06
196.6220, 27670.00
197.8430, 25011.00
199.0640, 22322.00
200.2860, 19844.00
201.5070, 18302.00
202.7270, 17711.00
203.9480, 17280.00
205.1690, 17051.00
206.3890, 16856.00
207.6090, 16794.00
208.8290, 16806.00
210.0490, 16905.00
211.2690, 16762.00
212.4890, 17054.00
213.7080, 16856.00
214.9280, 17011.00
216.1470, 17050.00
217.3660, 16819.00
218.5850, 17058.00
219.8030, 17078.00
221.0220, 16938.00
222.2400, 17239.00
223.4590, 17239.00
224.6770, 17218.00
225.8950, 17331.00
227.1120, 17225.00
228.3300, 17190.00
229.5480, 17238.00
230.7650, 17191.63
231.9820, 17315.00
233.1990, 17269.00
234.4160, 17345.00
235.6330, 17372.02
236.8490, 17302.00
238.0660, 17426.00
239.2820, 17443.00
240.4980, 17478.00
241.7140, 17538.00
242.9300, 17443.00
244.1460, 17417.00
245.3610, 17510.00
246.5770, 17555.00
247.7920, 17537.00
249.0070, 17624.00
250.2220, 17464.00
251.4370, 17494.00
252.6510, 17758.00
253.8660, 17615.00
255.0800, 17731.00
256.2940, 17748.00
257.5080, 17624.00
258.7220, 17761.00
259.9360, 17821.00
261.1490, 18068.00
262.3630, 17896.00
263.5760, 17969.00
264.7890, 17993.00
266.0020, 18186.00
267.2150, 18065.00
268.4270, 18086.00
269.6400, 17951.00
270.8520, 17961.00
272.0640, 18104.00
273.2760, 18230.00
274.4880, 18153.00
275.7000, 18178.00
276.9120, 18264.00
278.1230, 18411.00
279.3340, 18519.00
280.5450, 18718.00
281.7560, 18831.00
282.9670, 18965.00
284.1780, 18962.00
285.3880, 19095.00
286.5980, 19145.00
287.8090, 19476.00
289.0190, 19796.00
290.2290, 19921.00
291.4380, 20020.00
292.6480, 19966.00
293.8570, 19746.00
295.0670, 19398.00
296.2760, 19174.00
297.4850, 18899.00
298.6930, 18673.00
299.9020, 18690.70
301.1110, 18828.00
302.3190, 18834.00
303.5270, 18900.00
304.7350, 19040.00
305.9430, 19189.00
307.1510, 18964.00
308.3580, 19089.00
309.5660, 19007.00
310.7730, 19014.00
311.9800, 18836.00
313.1870, 19118.00
314.3940, 18914.00
315.6010, 19173.00
316.8070, 19126.00
318.0130, 19183.00
319.2200, 19124.00
320.4260, 19224.00
321.6310, 19301.00
322.8370, 19411.00
324.0430, 19435.00
325.2480, 19369.00
326.4540, 19679.00
327.6590, 19609.00
328.8640, 19658.00
330.0680, 19859.00
331.2730, 19843.00
332.4780, 19987.00
333.6820, 20055.00
334.8860, 20029.00
336.0900, 19955.00
337.2940, 19982.00
338.4980, 19937.00
339.7010, 20047.00
340.9050, 20175.00
342.1080, 20143.00
343.3110, 20171.00
344.5140, 20153.00
345.7170, 20450.00
346.9200, 20538.00
348.1220, 20509.00
349.3240, 21039.00
350.5270, 21124.00
351.7290, 21362.00
352.9310, 21898.00
354.1320, 22360.00
355.3340, 22883.00
356.5350, 23460.00
357.7370, 23614.00
358.9380, 24214.00
360.1390, 24918.00
361.3400, 25119.00
362.5400, 25672.00
363.7410, 25404.00
364.9410, 25397.00
366.1410, 24267.00
367.3410, 23658.00
368.5410, 22835.00
369.7410, 22091.00
370.9400, 21524.00
372.1400, 21333.00
373.3390, 21287.00
374.5380, 21216.00
375.7370, 21095.00
376.9360, 21034.00
378.1350, 21191.00
379.3330, 21003.00
380.5310, 21120.00
381.7300, 20953.00
382.9280, 21135.00
384.1260, 21009.00
385.3230, 20948.00
386.5210, 20979.00
387.7180, 20987.00
388.9160, 20661.00
390.1130, 20872.00
391.3100, 20816.00
392.5060, 21000.00
393.7030, 20969.00
394.9000, 21076.00
396.0960, 20842.00
397.2920, 20887.00
398.4880, 20837.00
399.6840, 20939.00
400.8800, 20970.00
402.0750, 20996.51
403.2710, 20998.00
404.4660, 21053.00
405.6610, 21011.00
406.8560, 20976.09
408.0510, 21140.00
409.2450, 21057.00
410.4400, 21219.00
411.6340, 21354.00
412.8280, 21226.00
414.0220, 21110.00
415.2160, 21241.00
416.4100, 21183.00
417.6030, 21443.00
418.7970, 21596.00
419.9900, 21458.00
421.1830, 21661.00
422.3760, 21777.00
423.5690, 21940.00
424.7610, 22037.00
425.9540, 22056.00
427.1460, 22322.00
428.3380, 22375.00
429.5300, 22596.00
430.7220, 23017.00
431.9140, 23175.00
433.1050, 23232.00
434.2970, 23444.00
435.4880, 23416.00
436.6790, 22818.00
437.8700, 22592.00
439.0610, 22548.00
440.2510, 22126.00
441.4420, 22175.00
442.6320, 22153.00
443.8220, 22143.00
445.0120, 22093.00
446.2020, 22121.88
447.3910, 22285.00
448.5810, 22192.00
449.7700, 22408.00
450.9600, 22511.00
452.1490, 22563.00
453.3370, 22467.00
454.5260, 22606.00
455.7150, 22638.00
456.9030, 22635.00
458.0910, 22285.00
459.2800, 22568.00
460.4670, 22470.00
461.6550, 22748.00
462.8430, 22665.00
464.0300, 22604.00
465.2180, 22810.00
466.4050, 22983.00
467.5920, 22798.00
468.7790, 23035.00
469.9650, 23099.00
471.1520, 22886.00
472.3380, 22716.00
473.5250, 22825.00
474.7110, 22796.00
475.8970, 22612.00
477.0820, 22750.00
478.2680, 22677.00
479.4540, 22705.00
480.6390, 22842.00
481.8240, 23010.00
483.0090, 22946.00
484.1940, 22964.00
485.3780, 22890.00
486.5630, 22810.00
487.7470, 22825.00
488.9320, 23018.00
490.1160, 22863.00
491.3000, 23105.00
492.4830, 22979.00
493.6670, 23068.00
494.8500, 22999.00
496.0340, 23076.00
497.2170, 23264.00
498.4000, 23141.00
499.5820, 23258.00
500.7650, 23401.00
501.9480, 23327.00
503.1300, 23203.00
504.3120, 23462.00
505.4940, 23530.00
506.6760, 23762.00
507.8580, 23760.10
509.0390, 23578.00
510.2210, 23699.00
511.4020, 23669.00
512.5830, 23565.00
513.7640, 23741.00
514.9450, 23565.00
516.1250, 23543.00
517.3060, 23689.00
518.4860, 23660.00
519.6660, 23680.29
520.8460, 23822.00
522.0260, 23709.00
523.2060, 23674.00
524.3850, 23766.00
525.5650, 23959.00
526.7440, 23860.00
527.9230, 23905.00
529.1020, 23848.00
530.2810, 23778.00
531.4590, 24024.00
532.6380, 23838.00
533.8160, 24106.00
534.9940, 24184.00
536.1720, 24095.00
537.3500, 24132.00
538.5270, 23878.00
539.7050, 24109.00
540.8820, 24045.00
542.0590, 24240.00
543.2360, 24190.00
544.4130, 24309.00
545.5900, 24354.00
546.7660, 24386.00
547.9430, 24398.00
549.1190, 24422.00
550.2950, 24438.42
551.4710, 24557.00
552.6470, 24506.00
553.8220, 24387.00
554.9980, 24491.00
556.1730, 24710.00
557.3480, 24586.00
558.5230, 24624.00
559.6980, 24559.00
560.8730, 24526.00
562.0470, 24522.00
563.2220, 24726.00
564.3960, 24879.00
565.5700, 24856.00
566.7440, 24760.00
567.9170, 24853.00
569.0910, 24847.00
570.2640, 24998.00
571.4380, 24942.00
572.6110, 24869.00
573.7840, 24944.00
574.9570, 24913.09
576.1290, 25052.00
577.3020, 24963.00
578.4740, 25069.00
579.6460, 25107.00
580.8180, 25176.00
581.9900, 25368.00
583.1620, 25130.00
584.3330, 25135.00
585.5040, 25212.00
586.6760, 25346.00
587.8470, 25479.00
589.0180, 25348.00
590.1880, 25320.00
591.3590, 25388.00
592.5290, 25276.00
593.7000, 25382.00
594.8700, 25378.00
596.0400, 25502.00
597.2090, 25475.00
598.3790, 25624.00
599.5490, 25541.00
600.7180, 25549.00
601.8870, 25632.00
603.0560, 25600.00
604.2250, 25731.00
605.3940, 25827.00
606.5620, 25925.00
607.7300, 26060.00
608.8990, 25741.00
610.0670, 25722.00
611.2350, 25763.00
612.4020, 25826.00
613.5700, 25914.00
614.7370, 25956.00
615.9050, 25920.00
617.0720, 26048.00
618.2390, 25986.00
619.4060, 26107.00
620.5720, 26241.00
621.7390, 26058.00
622.9050, 26190.00
624.0710, 26170.00
625.2370, 26224.00
626.4030, 26364.00
627.5690, 26352.00
628.7340, 26249.00
629.9000, 26500.00
631.0650, 26532.00
632.2300, 26376.00
633.3950, 26477.00
634.5600, 26697.00
635.7240, 26730.00
636.8890, 26836.00
638.0530, 26910.96
639.2170, 26943.83
640.3810, 26967.00
641.5450, 26995.00
642.7080, 26949.00
643.8720, 26921.00
645.0350, 26975.61
646.1980, 27075.00
647.3610, 27136.00
648.5240, 27146.00
649.6870, 27355.00
650.8490, 27386.00
652.0120, 27312.00
653.1740, 27552.00
654.3360, 27639.00
655.4980, 27762.00
656.6600, 27986.00
657.8210, 28089.00
658.9830, 28345.03
660.1440, 28546.00
661.3050, 28923.00
662.4660, 29240.00
663.6270, 29706.00
664.7870, 30156.00
665.9480, 30883.00
667.1080, 31909.00
668.2680, 33070.00
669.4280, 33998.00
670.5880, 35582.00
671.7480, 36958.00
672.9070, 38453.00
674.0670, 39643.00
675.2260, 40829.00
676.3850, 41196.00
677.5440, 41079.00
678.7030, 40268.00
679.8610, 39222.00
681.0200, 37292.00
682.1780, 35421.00
683.3360, 33753.00
684.4940, 32688.00
685.6520, 31648.00
686.8090, 30791.00
687.9670, 30463.00
689.1240, 29944.00
690.2810, 29639.00
691.4380, 29315.00
692.5950, 29038.00
693.7520, 28951.00
694.9080, 28964.00
696.0650, 29019.00
697.2210, 28709.00
698.3770, 28656.00
699.5330, 28637.00
700.6880, 28637.00
701.8440, 28803.00
702.9990, 28731.00
704.1550, 28622.00
705.3100, 28241.00
706.4650, 28652.00
707.6190, 28369.00
708.7740, 28419.00
709.9290, 28587.00
711.0830, 28588.00
712.2370, 28684.00
713.3910, 28694.00
714.5450, 28624.00
715.6980, 28578.00
716.8520, 28582.00
718.0050, 28711.00
719.1580, 28659.00
720.3110, 28581.00
721.4640, 28680.00
722.6170, 28536.00
723.7700, 28839.00
724.9220, 28748.00
726.0740, 28803.00
727.2260, 28834.00
728.3780, 28909.00
729.5300, 29021.00
730.6810, 28980.00
731.8330, 28881.00
732.9840, 29196.00
734.1350, 28993.00
735.2860, 28999.00
736.4370, 29131.00
737.5880, 29192.00
738.7380, 29365.00
739.8880, 29338.00
741.0390, 28998.00
742.1890, 29337.00
743.3380, 29170.00
744.4880, 29076.00
745.6380, 29463.00
746.7870, 29534.00
747.9360, 29425.00
749.0850, 29483.00
750.2340, 29360.00
751.3830, 29242.00
752.5310, 29589.00
753.6800, 29338.00
754.8280, 29488.00
755.9760, 29266.00
757.1240, 29457.00
758.2720, 29601.00
759.4190, 29578.00
760.5670, 29655.00
761.7140, 29675.00
762.8610, 29666.00
764.0080, 29840.00
765.1550, 29777.00
766.3020, 29819.00
767.4480, 29819.00
768.5950, 29756.00
769.7410, 29972.00
770.8870, 29754.00
772.0330, 29944.00
773.1780, 30041.00
774.3240, 30097.00
775.4690, 30284.00
776.6140, 30169.00
777.7590, 30343.00
778.9040, 30342.00
780.0490, 30552.00
781.1940, 30424.00
782.3380, 30529.00
783.4820, 30788.00
784.6260, 30742.00
785.7700, 30749.00
786.9140, 30893.00
788.0580, 30916.80
789.2010, 31072.00
790.3450, 31085.00
791.4880, 31056.00
792.6310, 31086.00
793.7730, 31112.00
794.9160, 31047.00
796.0590, 31101.00
797.2010, 31099.00
798.3430, 31185.00
799.4850, 30791.00
800.6270, 30883.00
801.7690, 30787.00
802.9100, 30944.00
804.0520, 30741.00
805.1930, 30646.00
806.3340, 30862.00
807.4750, 30938.00
808.6160, 30993.00
809.7560, 30903.00
810.8970, 31079.00
812.0370, 31094.00
813.1770, 30953.00
814.3170, 31139.00
815.4570, 31138.00
816.5960, 31253.00
817.7360, 31190.00
818.8750, 31398.00
820.0140, 31221.00
821.1530, 31517.00
822.2920, 31376.00
823.4310, 31255.00
824.5690, 31390.00
825.7070, 31407.00
826.8460, 31525.00
827.9840, 31544.00
829.1220, 31529.00
830.2590, 31310.00
831.3970, 31572.00
832.5340, 31210.00
833.6710, 31589.00
834.8080, 31757.00
835.9450, 31683.00
837.0820, 31783.00
838.2190, 31581.00
839.3550, 31592.00
840.4910, 31990.00
841.6270, 31904.00
842.7630, 31797.00
843.8990, 31696.00
845.0350, 31856.00
846.1700, 31882.00
847.3060, 31869.00
848.4410, 31926.00
849.5760, 32124.00
850.7100, 32133.00
851.8450, 32334.00
852.9800, 31939.00
854.1140, 32145.00
855.2480, 32074.00
856.3820, 32078.00
857.5160, 32285.00
858.6500, 32428.00
859.7830, 32331.00
860.9170, 32288.00
862.0500, 32241.00
863.1830, 32356.00
864.3160, 32582.00
865.4480, 32575.00
866.5810, 32558.00
867.7130, 32799.00
868.8460, 32568.00
869.9780, 32584.00
871.1100, 32720.00
872.2410, 32613.00
873.3730, 32583.00
874.5050, 32569.00
875.6360, 32601.00
876.7670, 32747.00
877.8980, 32827.00
879.0290, 32905.00
880.1590, 32802.00
881.2900, 32906.00
882.4200, 32781.00
883.5500, 32907.00
884.6800, 32718.00
885.8100, 33097.00
886.9400, 32971.00
888.0690, 32866.00
889.1990, 32978.00
890.3280, 32928.70
891.4570, 33238.00
892.5860, 33002.00
893.7140, 33146.00
894.8430, 33155.00
895.9710, 33446.00
897.1000, 33299.00
898.2280, 33244.00
899.3560, 33272.00
900.4830, 33322.00
901.6110, 33470.00
902.7380, 33295.00
903.8660, 33492.00
904.9930, 33804.00
906.1200, 33354.00
907.2460, 33476.00
908.3730, 33701.00
909.5000, 33559.00
910.6260, 33663.00
911.7520, 33919.00
912.8780, 33813.00
914.0040, 33759.00
915.1290, 33713.00
916.2550, 33980.00
917.3800, 33975.00
918.5050, 34302.00
919.6300, 33932.00
920.7550, 33953.00
921.8800, 33876.00
923.0040, 33939.00
924.1290, 34165.00
925.2530, 34050.00
926.3770, 34220.00
927.5010, 34097.00
928.6250, 34111.00
929.7480, 34318.00
930.8720, 33966.00
931.9950, 34568.00
933.1180, 34366.00
934.2410, 34455.00
935.3640, 34432.00
936.4860, 34363.00
937.6090, 34330.00
938.7310, 34483.00
939.8530, 34691.00
940.9750, 34559.00
942.0970, 34580.00
943.2180, 34502.00
944.3400, 34461.04
945.4610, 34720.00
946.5820, 34451.00
947.7030, 34678.00
948.8240, 34821.00
949.9450, 34852.00
951.0650, 34965.00
952.1860, 35212.00
953.3060, 34882.00
954.4260, 34907.00
955.5460, 35150.00
956.6650, 35015.00
957.7850, 35037.00
958.9040, 35019.00
960.0230, 35135.00
961.1420, 35178.00
962.2610, 35282.00
963.3800, 35072.00
964.4990, 35181.00
965.6170, 35165.00
966.7350, 35211.98
967.8530, 35257.00
968.9710, 35410.00
970.0890, 35496.00
971.2070, 35593.00
972.3240, 35706.00
973.4410, 35707.69
974.5580, 35546.00
975.6750, 35721.00
976.7920, 35608.00
977.9090, 35637.00
979.0250, 35705.00
980.1410, 35662.24
981.2580, 35842.00
982.3740, 35690.00
983.4890, 35786.00
984.6050, 35824.00
985.7200, 36069.00
986.8360, 36229.00
987.9510, 36221.00
989.0660, 36092.00
990.1810, 36081.00
991.2950, 36108.00
992.4100, 36128.00
993.5240, 36301.00
994.6390, 36301.64
995.7530, 36263.00
996.8660, 36418.00
997.9800, 36346.00
999.0940, 36418.00
1000.207, 36416.00
1001.320, 36516.00
1002.433, 36390.00
1003.546, 36742.00
1004.659, 36733.00
1005.772, 36633.00
1006.884, 36631.00
1007.996, 36463.00
1009.108, 36786.00
1010.220, 36892.00
1011.332, 36870.00
1012.444, 37112.00
1013.555, 37178.00
1014.666, 37318.00
1015.777, 37305.00
1016.888, 37335.57
1017.999, 37491.00
1019.110, 37327.00
1020.220, 37436.00
1021.331, 37489.00
1022.441, 37473.00
1023.551, 37107.00
1024.661, 37457.00
1025.770, 37192.00
1026.880, 37316.00
1027.989, 37054.00
1029.098, 37416.00
1030.207, 37604.00
1031.316, 37475.00
1032.425, 37321.00
1033.533, 37450.00
1034.642, 37395.00
1035.750, 37673.00
1036.858, 37770.00
1037.966, 37384.00
1039.073, 37815.00
1040.181, 37825.00
1041.288, 37697.00
1042.396, 37847.00
1043.503, 37873.00
1044.610, 38189.00
1045.716, 38297.00
1046.823, 38522.00
1047.929, 38776.00
1049.036, 39107.00
1050.142, 39119.00
1051.248, 39219.58
1052.353, 39266.00
1053.459, 39162.00
1054.564, 38909.00
1055.670, 38827.00
1056.775, 38853.00
1057.880, 38514.00
1058.985, 38538.00
1060.089, 38492.00
1061.194, 38271.00
1062.298, 38468.00
1063.402, 38227.00
1064.506, 38372.00
1065.610, 38513.00
1066.713, 38241.00
1067.817, 38680.00
1068.920, 38579.00
1070.023, 38453.00
1071.126, 38448.00
1072.229, 38653.00
1073.332, 38699.00
1074.435, 38740.00
1075.537, 38653.00
1076.639, 38571.00
1077.741, 38599.57
1078.843, 38765.00
1079.945, 38638.00
1081.046, 38898.00
1082.148, 39011.00
1083.249, 39029.00
1084.350, 39050.00
1085.451, 39040.00
1086.551, 38812.00
1087.652, 39042.00
1088.752, 38925.00
1089.853, 39173.00
1090.953, 38852.00
1092.053, 39291.00
1093.152, 39194.00
1094.252, 39463.00
1095.351, 39290.00
1096.451, 39172.00
1097.550, 39270.00
1098.649, 39550.00
1099.748, 39148.00
1100.846, 39334.00
1101.945, 39340.00
1103.043, 39206.00
1104.141, 39295.14
1105.239, 39603.00
1106.337, 39336.00
1107.434, 39515.00
1108.532, 39691.00
1109.629, 39691.00
1110.726, 39425.00
1111.823, 39565.00
1112.920, 39852.00
1114.017, 39605.00
1115.113, 39877.00
1116.210, 39688.00
1117.306, 40119.00
1118.402, 40119.00
1119.498, 40007.00
1120.593, 40180.00
1121.689, 40128.00
1122.784, 40118.00
1123.879, 40354.00
1124.974, 40099.00
1126.069, 40304.00
1127.164, 40273.00
1128.259, 40528.00
1129.353, 40391.00
1130.447, 40304.00
1131.541, 40335.00
1132.635, 40442.00
1133.729, 40371.00
1134.822, 40547.00
1135.916, 40483.00
1137.009, 40580.00
1138.102, 40437.00
1139.195, 40548.00
1140.288, 40729.00
1141.380, 40654.00
1142.473, 40638.00
1143.565, 40784.00
1144.657, 40770.00
1145.749, 40904.00
1146.841, 41160.00
1147.932, 40746.00
1149.024, 41066.00
1150.115, 40947.00
1151.206, 41374.00
1152.297, 41107.00
1153.388, 41113.00
1154.479, 41216.00
1155.569, 41326.00
1156.659, 41367.00
1157.750, 41117.00
1158.839, 40961.00
1159.929, 41173.00
1161.019, 41299.00
1162.108, 41442.00
1163.198, 41498.81
1164.287, 41499.50
1165.376, 41564.00
1166.465, 41375.00
1167.553, 41419.00
1168.642, 41284.00
1169.730, 41373.00
1170.818, 41702.00
1171.906, 41579.00
1172.994, 41669.00
1174.082, 41825.00
1175.170, 41813.00
1176.257, 41847.00
1177.344, 41912.00
1178.431, 41866.00
1179.518, 42053.00
1180.605, 41907.00
1181.691, 41909.00
1182.778, 42137.00
1183.864, 42039.00
1184.950, 42040.00
1186.036, 42043.00
1187.122, 42249.00
1188.207, 42207.00
1189.292, 42267.81
1190.378, 42538.00
1191.463, 42321.00
1192.548, 42423.00
1193.632, 42492.00
1194.717, 42256.00
1195.801, 42541.00
1196.886, 42560.00
1197.970, 42502.00
1199.054, 42644.00
1200.137, 42609.00
1201.221, 42796.00
1202.305, 42726.00
1203.388, 42802.00
1204.471, 42682.00
1205.554, 42973.00
1206.637, 42699.00
1207.719, 42908.00
1208.802, 43067.00
1209.884, 42851.00
1210.966, 43007.00
1212.048, 42825.00
1213.130, 42927.00
1214.212, 42932.00
1215.293, 43059.00
1216.374, 43100.00
1217.456, 43152.66
1218.536, 43200.71
1219.617, 43270.00
1220.698, 43278.00
1221.778, 43361.00
1222.859, 43464.66
1223.939, 43342.00
1225.019, 43524.00
1226.099, 43673.00
1227.178, 43575.00
1228.258, 43715.55
1229.337, 43581.00
1230.417, 43765.00
1231.496, 43734.00
1232.574, 43700.00
1233.653, 43528.00
1234.732, 43674.00
1235.810, 43899.00
1236.888, 44067.00
1237.966, 43938.00
1239.044, 43791.00
1240.122, 43863.00
1241.199, 43719.00
1242.277, 43963.00
1243.354, 43902.00
1244.431, 44107.00
1245.508, 44043.00
1246.585, 44092.00
1247.661, 43947.00
1248.738, 44007.00
1249.814, 44335.00
1250.890, 44197.00
1251.966, 44186.00
1253.042, 44024.00
1254.117, 44264.00
1255.193, 44470.00
1256.268, 44295.00
1257.343, 44463.00
1258.418, 44635.00
1259.493, 44512.00
1260.567, 44474.00
1261.642, 44554.26
1262.716, 44491.00
1263.790, 44680.00
1264.864, 44653.00
1265.938, 44812.00
1267.011, 44944.00
1268.085, 44766.00
1269.158, 44886.00
1270.231, 44892.98
1271.304, 44805.00
1272.377, 45002.00
1273.450, 44957.00
1274.522, 45078.00
1275.594, 44935.00
1276.666, 45266.00
1277.738, 45124.00
1278.810, 45077.00
1279.882, 45222.00
1280.953, 45129.00
1282.025, 45288.00
1283.096, 45208.00
1284.167, 45310.00
1285.238, 45324.00
1286.308, 45338.00
1287.379, 45537.00
1288.449, 45616.00
1289.519, 45567.00
1290.589, 45604.00
1291.659, 45772.00
1292.729, 45677.00
1293.798, 45784.00
1294.868, 45621.00
1295.937, 45848.00
1297.006, 45645.00
1298.075, 45588.00
1299.143, 45918.00
1300.212, 46036.00
1301.280, 45852.00
1302.348, 45890.00
1303.416, 45953.00
1304.484, 46204.00
1305.552, 46051.00
1306.620, 46348.00
1307.687, 46413.00
1308.754, 46245.00
1309.821, 46226.00
1310.888, 46296.00
1311.955, 46270.00
1313.021, 46558.00
1314.088, 46405.00
1315.154, 46259.00
1316.220, 46580.00
1317.286, 46341.00
1318.352, 46251.00
1319.417, 46485.00
1320.483, 46650.00
1321.548, 46840.00
1322.613, 46627.00
1323.678, 46858.00
1324.743, 46672.00
1325.807, 46700.00
1326.872, 46722.00
1327.936, 46806.00
1329.000, 46627.00
1330.064, 46684.00
1331.128, 46773.00
1332.191, 46772.00
1333.255, 47120.00
1334.318, 46981.00
1335.381, 47094.00
1336.444, 46826.00
1337.507, 47116.00
1338.569, 46899.00
1339.632, 47086.00
1340.694, 46760.00
1341.756, 47089.00
1342.818, 47345.00
1343.880, 47372.00
1344.941, 47297.00
1346.003, 47079.00
1347.064, 47515.00
1348.125, 47485.00
1349.186, 47179.00
1350.247, 47598.00
1351.308, 47506.00
1352.368, 47519.00
1353.428, 47725.00
1354.489, 47655.00
1355.549, 47723.00
1356.608, 47529.00
1357.668, 47486.00
1358.727, 47588.00
1359.787, 47687.00
1360.846, 47556.00
1361.905, 47679.00
1362.964, 48003.00
1364.022, 47889.00
1365.081, 47875.00
1366.139, 48293.00
1367.197, 48168.00
1368.255, 48047.00
1369.313, 47886.00
1370.371, 48196.00
1371.428, 48183.00
1372.486, 48341.00
1373.543, 48106.00
1374.600, 48124.00
1375.657, 48170.00
1376.713, 48376.00
1377.770, 48334.00
1378.826, 48391.00
1379.882, 48482.50
1380.938, 48365.00
1381.994, 48578.00
1383.050, 48426.00
1384.106, 48393.00
1385.161, 48544.00
1386.216, 48575.00
1387.271, 48760.00
1388.326, 48661.00
1389.381, 48654.00
1390.435, 48933.00
1391.490, 48663.00
1392.544, 48670.00
1393.598, 48750.00
1394.652, 48836.00
1395.705, 48748.00
1396.759, 48708.00
1397.812, 48826.00
1398.866, 49216.00
1399.919, 49003.00
1400.972, 49130.00
1402.024, 49048.00
1403.077, 49165.00
1404.129, 49107.00
1405.181, 49021.00
1406.233, 49297.00
1407.285, 49152.00
1408.337, 49113.00
1409.389, 49140.00
1410.440, 49263.00
1411.491, 49205.00
1412.542, 49243.00
1413.593, 49405.00
1414.644, 49361.00
1415.695, 49396.00
1416.745, 49326.00
1417.795, 49487.00
1418.845, 49467.00
1419.895, 49638.00
1420.945, 49647.00
1421.995, 49779.00
1423.044, 49861.00
1424.093, 49837.00
1425.142, 49760.00
1426.191, 49780.00
1427.240, 49765.00
1428.289, 50092.00
1429.337, 49824.00
1430.385, 50095.00
1431.433, 50013.00
1432.481, 49956.00
1433.529, 49937.00
1434.577, 50161.00
1435.624, 50286.00
1436.672, 50309.00
1437.719, 50437.00
1438.766, 50483.81
1439.812, 50218.00
1440.859, 50526.00
1441.905, 50401.00
1442.952, 50263.00
1443.998, 50566.00
1445.044, 50546.00
1446.090, 50764.00
1447.135, 50629.00
1448.181, 50490.00
1449.226, 50425.00
1450.271, 50457.00
1451.316, 50717.00
1452.361, 50838.00
1453.405, 50498.00
1454.450, 50869.00
1455.494, 50774.00
1456.538, 51029.00
1457.582, 50841.00
1458.626, 50843.00
1459.670, 51126.00
1460.713, 50666.00
1461.757, 50925.00
1462.800, 51230.00
1463.843, 50995.00
1464.886, 50684.00
1465.928, 51175.00
1466.971, 51117.00
1468.013, 51145.00
1469.055, 51227.00
1470.097, 51441.00
1471.139, 51357.00
1472.181, 51207.00
1473.222, 51621.00
1474.263, 51657.00
1475.305, 51163.00
1476.346, 51344.00
1477.386, 51408.00
1478.427, 51502.00
1479.468, 51369.00
1480.508, 51463.00
1481.548, 51908.00
1482.588, 51412.00
1483.628, 51842.00
1484.668, 51374.00
1485.707, 51697.00
1486.747, 51740.00
1487.786, 52032.00
1488.825, 51817.00
1489.864, 52004.00
1490.902, 52008.00
1491.941, 52007.00
1492.979, 52148.00
1494.017, 51962.00
1495.055, 52182.00
1496.093, 52214.00
1497.131, 51895.00
1498.168, 52232.00
1499.206, 52423.00
1500.243, 52180.00
1501.280, 52303.00
1502.317, 52125.00
1503.354, 52066.00
1504.390, 52414.00
1505.426, 52218.00
1506.463, 52412.00
1507.499, 52305.00
1508.535, 52533.00
1509.570, 52647.00
1510.606, 52387.00
1511.641, 53083.00
1512.676, 52708.00
1513.711, 52525.00
1514.746, 52785.00
1515.781, 52541.00
1516.816, 52734.00
1517.850, 53182.00
1518.884, 53013.00
1519.918, 52803.00
1520.952, 52966.00
1521.986, 52994.00
1523.019, 52876.00
1524.053, 52905.00
1525.086, 53072.00
1526.119, 53017.00
1527.152, 52982.00
1528.185, 53120.00
1529.217, 53162.00
1530.250, 53330.00
1531.282, 53376.00
1532.314, 53404.00
1533.346, 53078.00
1534.377, 53470.00
1535.409, 53428.00
1536.440, 53600.00
1537.472, 53145.00
1538.503, 53498.00
1539.534, 53268.00
1540.564, 53314.00
1541.595, 53720.00
1542.625, 53597.00
1543.656, 53594.00
1544.686, 53633.00
1545.716, 53552.00
1546.745, 53421.00
1547.775, 53601.00
1548.804, 53679.00
1549.834, 53656.00
1550.863, 53837.00
1551.892, 53735.00
1552.920, 53684.00
1553.949, 53865.00
1554.977, 54001.00
1556.006, 53621.00
1557.034, 53972.00
1558.062, 54038.00
1559.089, 54288.00
1560.117, 54065.00
1561.144, 54237.00
1562.172, 54195.00
1563.199, 54415.00
1564.226, 54572.00
1565.252, 54209.00
1566.279, 54098.00
1567.305, 54131.00
1568.332, 54033.00
1569.358, 54052.00
1570.384, 54502.00
1571.409, 54583.00
##END=



