##NAMES=Talc
##RRUFFID=R050087
##IDEAL CHEMISTRY=Mg_3_Si_4_O_10_(OH)_2_
##LOCALITY=St. Lawrence County, New York, USA
##OWNER=RRUFF
##SOURCE=University of Arizona Mineral Museum
##DESCRIPTION=An aggregate of colorless foliated coarse single crystals
##STATUS=The identification of this mineral has been confirmed by X-ray diffraction and chemical analysis
##URL=rruff.info/R050087
##MEASURED CHEMISTRY=(Mg_.998_Fe_.002_)_3_(Si_.997_Al_.003_)_4_O_10_(OH_.966_F_.034_)_2_
##PIN_ID=M00178
##ORIENTATION=Laser parallel to (1 1 0). Fiducial mark perpendicular to laser is parallel to c [0 0 1]
99.64900, 13521.00
100.8830, 13910.00
102.1160, 14316.00
103.3490, 14914.00
104.5820, 15649.00
105.8150, 16033.00
107.0470, 16804.00
108.2800, 16923.00
109.5120, 17322.00
110.7440, 17263.00
111.9760, 17515.00
113.2080, 17837.00
114.4400, 17603.00
115.6710, 17139.00
116.9030, 16304.00
118.1340, 16033.00
119.3650, 15758.00
120.5960, 15338.00
121.8270, 15309.00
123.0580, 15237.00
124.2880, 15228.00
125.5190, 15153.00
126.7490, 15182.00
127.9790, 15436.00
129.2090, 15384.00
130.4390, 15537.00
131.6680, 15504.00
132.8980, 15460.00
134.1270, 15579.00
135.3560, 15523.00
136.5850, 15680.00
137.8140, 15685.00
139.0430, 15829.00
140.2710, 15915.00
141.5000, 15905.00
142.7280, 15989.00
143.9560, 15955.00
145.1840, 15965.00
146.4120, 16064.00
147.6390, 16194.00
148.8670, 16132.00
150.0940, 16226.00
151.3210, 16236.00
152.5490, 16226.77
153.7750, 16302.00
155.0020, 16241.00
156.2290, 16353.00
157.4550, 16406.00
158.6810, 16566.00
159.9080, 16491.00
161.1340, 16503.00
162.3590, 16609.00
163.5850, 16539.00
164.8110, 16604.00
166.0360, 16782.00
167.2610, 16688.00
168.4860, 16850.00
169.7110, 16943.00
170.9360, 16829.00
172.1610, 16965.00
173.3850, 17058.00
174.6100, 17165.00
175.8340, 17179.00
177.0580, 17105.00
178.2820, 17396.00
179.5050, 17305.00
180.7290, 17484.00
181.9520, 17793.00
183.1760, 18192.00
184.3990, 19010.00
185.6220, 19780.00
186.8450, 20391.00
188.0670, 20873.00
189.2900, 21622.00
190.5120, 23695.00
191.7340, 26161.00
192.9560, 29491.00
194.1780, 33927.00
195.4000, 38885.00
196.6220, 39085.00
197.8430, 33790.00
199.0640, 26929.00
200.2860, 22330.00
201.5070, 20287.00
202.7270, 19327.00
203.9480, 18598.00
205.1690, 18535.00
206.3890, 18304.00
207.6090, 18059.00
208.8290, 18009.00
210.0490, 17990.00
211.2690, 18020.00
212.4890, 18071.00
213.7080, 18257.00
214.9280, 18258.00
216.1470, 18345.58
217.3660, 18084.00
218.5850, 18443.00
219.8030, 18234.00
221.0220, 18248.00
222.2400, 18361.00
223.4590, 18268.00
224.6770, 18326.00
225.8950, 18373.78
227.1120, 18345.00
228.3300, 18475.00
229.5480, 18502.00
230.7650, 18541.00
231.9820, 18496.00
233.1990, 18568.00
234.4160, 18558.80
235.6330, 18680.00
236.8490, 18611.00
238.0660, 18594.00
239.2820, 18684.00
240.4980, 18735.00
241.7140, 18871.00
242.9300, 18763.00
244.1460, 18574.00
245.3610, 19034.00
246.5770, 18868.00
247.7920, 18713.00
249.0070, 18857.00
250.2220, 18736.00
251.4370, 18850.00
252.6510, 18876.00
253.8660, 18983.00
255.0800, 18914.00
256.2940, 19004.94
257.5080, 19085.00
258.7220, 19111.00
259.9360, 19225.00
261.1490, 19293.00
262.3630, 19241.00
263.5760, 19320.00
264.7890, 19147.00
266.0020, 19354.00
267.2150, 19256.00
268.4270, 19399.00
269.6400, 19299.00
270.8520, 19359.53
272.0640, 19585.00
273.2760, 19449.00
274.4880, 19456.00
275.7000, 19516.00
276.9120, 19522.66
278.1230, 19676.00
279.3340, 19702.00
280.5450, 19809.00
281.7560, 19969.00
282.9670, 20019.00
284.1780, 20176.00
285.3880, 20300.00
286.5980, 20592.00
287.8090, 20986.00
289.0190, 21509.00
290.2290, 21855.00
291.4380, 21908.37
292.6480, 22369.00
293.8570, 21677.00
295.0670, 21160.00
296.2760, 20630.00
297.4850, 20423.00
298.6930, 20234.00
299.9020, 20180.00
301.1110, 20256.00
302.3190, 20267.00
303.5270, 20331.00
304.7350, 20294.00
305.9430, 20313.21
307.1510, 20234.00
308.3580, 20311.00
309.5660, 20263.00
310.7730, 20280.00
311.9800, 20293.00
313.1870, 20472.00
314.3940, 20358.00
315.6010, 20690.00
316.8070, 20549.00
318.0130, 20482.00
319.2200, 20537.00
320.4260, 20615.00
321.6310, 20592.00
322.8370, 20670.00
324.0430, 20716.00
325.2480, 20830.00
326.4540, 21024.00
327.6590, 20902.00
328.8640, 20954.00
330.0680, 21296.00
331.2730, 21211.00
332.4780, 21535.00
333.6820, 21581.00
334.8860, 21570.00
336.0900, 21526.00
337.2940, 21366.00
338.4980, 21365.00
339.7010, 21314.00
340.9050, 21316.00
342.1080, 21580.00
343.3110, 21590.00
344.5140, 21623.00
345.7170, 21753.00
346.9200, 21815.00
348.1220, 21928.00
349.3240, 22217.00
350.5270, 22345.00
351.7290, 22501.00
352.9310, 22703.00
354.1320, 23210.00
355.3340, 23640.00
356.5350, 23901.00
357.7370, 24521.00
358.9380, 25360.00
360.1390, 26020.00
361.3400, 26951.00
362.5400, 27841.00
363.7410, 27898.00
364.9410, 27775.00
366.1410, 26704.00
367.3410, 25519.00
368.5410, 24842.00
369.7410, 23977.00
370.9400, 23458.00
372.1400, 22850.00
373.3390, 22688.00
374.5380, 22686.00
375.7370, 22591.00
376.9360, 22488.00
378.1350, 22420.00
379.3330, 22321.00
380.5310, 22579.00
381.7300, 22570.00
382.9280, 22402.00
384.1260, 22255.00
385.3230, 22319.00
386.5210, 22366.00
387.7180, 22353.00
388.9160, 22394.00
390.1130, 22492.00
391.3100, 22643.00
392.5060, 22632.00
393.7030, 22493.00
394.9000, 22393.00
396.0960, 22469.00
397.2920, 22387.00
398.4880, 22430.00
399.6840, 22545.00
400.8800, 22577.00
402.0750, 22542.00
403.2710, 22707.00
404.4660, 22657.00
405.6610, 22609.00
406.8560, 22736.00
408.0510, 22797.00
409.2450, 22969.00
410.4400, 22830.00
411.6340, 22799.00
412.8280, 23033.00
414.0220, 22866.00
415.2160, 23011.00
416.4100, 22865.00
417.6030, 23028.00
418.7970, 23069.00
419.9900, 23106.00
421.1830, 23162.00
422.3760, 23219.00
423.5690, 23482.00
424.7610, 23456.00
425.9540, 23536.00
427.1460, 23897.00
428.3380, 23917.00
429.5300, 24176.00
430.7220, 24444.00
431.9140, 24643.00
433.1050, 25130.00
434.2970, 25230.00
435.4880, 24941.00
436.6790, 24798.00
437.8700, 24362.00
439.0610, 24030.00
440.2510, 24015.00
441.4420, 23885.00
442.6320, 23933.00
443.8220, 23861.00
445.0120, 23770.00
446.2020, 23894.00
447.3910, 23876.00
448.5810, 23936.00
449.7700, 23882.00
450.9600, 24015.00
452.1490, 24031.00
453.3370, 23923.00
454.5260, 24051.00
455.7150, 24058.00
456.9030, 24360.00
458.0910, 24172.00
459.2800, 24438.00
460.4670, 24187.00
461.6550, 24312.00
462.8430, 24435.00
464.0300, 24522.00
465.2180, 24659.33
466.4050, 24739.84
467.5920, 24881.00
468.7790, 24930.00
469.9650, 24973.00
471.1520, 25102.00
472.3380, 24884.00
473.5250, 24838.00
474.7110, 24405.00
475.8970, 24762.00
477.0820, 24461.00
478.2680, 24554.00
479.4540, 24587.00
480.6390, 24610.00
481.8240, 24725.00
483.0090, 24701.56
484.1940, 24743.99
485.3780, 24710.00
486.5630, 24756.00
487.7470, 24776.00
488.9320, 24754.00
490.1160, 24814.00
491.3000, 24779.00
492.4830, 24823.00
493.6670, 24712.00
494.8500, 24947.00
496.0340, 25054.00
497.2170, 24841.00
498.4000, 25006.00
499.5820, 24894.00
500.7650, 24931.00
501.9480, 25302.00
503.1300, 25171.00
504.3120, 25323.00
505.4940, 25270.00
506.6760, 25527.00
507.8580, 25476.00
509.0390, 25253.00
510.2210, 25651.00
511.4020, 25294.00
512.5830, 25624.00
513.7640, 25539.00
514.9450, 25593.00
516.1250, 25673.00
517.3060, 25852.00
518.4860, 25652.00
519.6660, 25858.00
520.8460, 25821.00
522.0260, 25990.00
523.2060, 25951.00
524.3850, 25912.00
525.5650, 25881.00
526.7440, 25870.00
527.9230, 25913.99
529.1020, 25935.00
530.2810, 25963.00
531.4590, 26012.00
532.6380, 25868.00
533.8160, 25938.00
534.9940, 26000.00
536.1720, 26048.00
537.3500, 26228.00
538.5270, 26132.00
539.7050, 26053.00
540.8820, 26259.00
542.0590, 26060.00
543.2360, 25996.00
544.4130, 26081.00
545.5900, 26046.86
546.7660, 26139.00
547.9430, 26221.00
549.1190, 26290.00
550.2950, 26451.00
551.4710, 26258.00
552.6470, 26232.00
553.8220, 26536.00
554.9980, 26316.00
556.1730, 26513.00
557.3480, 26606.00
558.5230, 26336.00
559.6980, 26475.00
560.8730, 26690.00
562.0470, 26674.00
563.2220, 26691.00
564.3960, 26682.00
565.5700, 26462.00
566.7440, 26752.00
567.9170, 26736.00
569.0910, 26940.00
570.2640, 26773.00
571.4380, 26857.00
572.6110, 26985.00
573.7840, 27037.00
574.9570, 27071.37
576.1290, 27131.00
577.3020, 27053.00
578.4740, 27138.00
579.6460, 27057.00
580.8180, 26990.00
581.9900, 27329.00
583.1620, 27304.00
584.3330, 27263.00
585.5040, 27248.00
586.6760, 27296.00
587.8470, 27177.00
589.0180, 27308.00
590.1880, 27571.00
591.3590, 27181.00
592.5290, 27429.00
593.7000, 27310.00
594.8700, 27247.00
596.0400, 27310.00
597.2090, 27659.00
598.3790, 27585.00
599.5490, 27708.00
600.7180, 27743.00
601.8870, 27821.00
603.0560, 27816.02
604.2250, 27601.00
605.3940, 27762.00
606.5620, 27777.00
607.7300, 27738.00
608.8990, 27859.00
610.0670, 27816.00
611.2350, 27873.00
612.4020, 27982.00
613.5700, 28092.00
614.7370, 28136.00
615.9050, 28102.00
617.0720, 28164.00
618.2390, 28004.00
619.4060, 28150.00
620.5720, 28204.00
621.7390, 28410.00
622.9050, 28337.00
624.0710, 28362.00
625.2370, 28368.00
626.4030, 28142.00
627.5690, 28362.00
628.7340, 28637.00
629.9000, 28375.00
631.0650, 28661.00
632.2300, 28609.00
633.3950, 28574.00
634.5600, 28838.00
635.7240, 28798.00
636.8890, 28648.00
638.0530, 28745.00
639.2170, 28996.00
640.3810, 28957.00
641.5450, 29008.00
642.7080, 28954.00
643.8720, 28968.00
645.0350, 28997.00
646.1980, 29064.00
647.3610, 29142.82
648.5240, 29393.00
649.6870, 29379.00
650.8490, 29488.00
652.0120, 29666.00
653.1740, 29526.00
654.3360, 29668.00
655.4980, 29728.00
656.6600, 29812.00
657.8210, 29837.00
658.9830, 30177.00
660.1440, 30333.00
661.3050, 30666.00
662.4660, 30954.00
663.6270, 31173.00
664.7870, 31602.00
665.9480, 32271.00
667.1080, 33135.00
668.2680, 33904.00
669.4280, 35013.00
670.5880, 36452.00
671.7480, 38090.00
672.9070, 39709.00
674.0670, 41745.00
675.2260, 43551.00
676.3850, 45469.00
677.5440, 45916.00
678.7030, 45447.00
679.8610, 43959.00
681.0200, 41827.00
682.1780, 39761.00
683.3360, 37842.00
684.4940, 36156.00
685.6520, 34839.00
686.8090, 33713.00
687.9670, 33181.00
689.1240, 32455.00
690.2810, 32260.00
691.4380, 31703.00
692.5950, 31811.00
693.7520, 31318.00
694.9080, 31348.00
696.0650, 31359.00
697.2210, 30888.00
698.3770, 31011.00
699.5330, 30967.00
700.6880, 30702.00
701.8440, 30870.00
702.9990, 30787.00
704.1550, 30733.00
705.3100, 30732.00
706.4650, 30726.00
707.6190, 30701.00
708.7740, 30837.00
709.9290, 30862.00
711.0830, 30883.00
712.2370, 30763.00
713.3910, 30732.00
714.5450, 30745.15
715.6980, 30926.00
716.8520, 30868.00
718.0050, 30728.00
719.1580, 30971.00
720.3110, 30807.00
721.4640, 31027.00
722.6170, 31076.00
723.7700, 31083.00
724.9220, 31174.00
726.0740, 31244.00
727.2260, 31110.00
728.3780, 31179.00
729.5300, 31184.00
730.6810, 31277.00
731.8330, 31289.00
732.9840, 31251.00
734.1350, 31175.00
735.2860, 31148.00
736.4370, 31223.39
737.5880, 31294.00
738.7380, 31383.00
739.8880, 31505.00
741.0390, 31500.00
742.1890, 31483.00
743.3380, 31530.00
744.4880, 31634.00
745.6380, 31819.00
746.7870, 31652.00
747.9360, 31566.00
749.0850, 31788.00
750.2340, 31647.00
751.3830, 31679.00
752.5310, 31940.00
753.6800, 31642.00
754.8280, 31555.00
755.9760, 31900.00
757.1240, 31922.00
758.2720, 31957.00
759.4190, 32137.00
760.5670, 32239.00
761.7140, 31844.00
762.8610, 31969.00
764.0080, 32093.00
765.1550, 32195.00
766.3020, 32239.25
767.4480, 32306.65
768.5950, 32325.00
769.7410, 32334.00
770.8870, 32449.00
772.0330, 32381.00
773.1780, 32322.00
774.3240, 32344.00
775.4690, 32469.00
776.6140, 32515.00
777.7590, 32703.00
778.9040, 32603.00
780.0490, 32564.00
781.1940, 32939.00
782.3380, 32977.00
783.4820, 32753.00
784.6260, 32950.00
785.7700, 33240.00
786.9140, 33281.00
788.0580, 33519.00
789.2010, 33468.00
790.3450, 33371.00
791.4880, 33546.00
792.6310, 33230.00
793.7730, 33353.00
794.9160, 33361.00
796.0590, 33085.00
797.2010, 33254.00
798.3430, 33169.00
799.4850, 33334.00
800.6270, 33342.00
801.7690, 33372.68
802.9100, 33455.10
804.0520, 33419.00
805.1930, 33474.00
806.3340, 33431.00
807.4750, 33477.16
808.6160, 33504.68
809.7560, 33530.00
810.8970, 33523.00
812.0370, 33491.00
813.1770, 33376.00
814.3170, 33439.79
815.4570, 33677.00
816.5960, 33496.00
817.7360, 33740.00
818.8750, 33748.00
820.0140, 33827.00
821.1530, 33694.00
822.2920, 33711.00
823.4310, 33671.00
824.5690, 33729.07
825.7070, 33893.00
826.8460, 33830.00
827.9840, 34067.00
829.1220, 33951.00
830.2590, 34001.00
831.3970, 33959.00
832.5340, 34020.00
833.6710, 33970.00
834.8080, 34022.00
835.9450, 34040.86
837.0820, 34148.00
838.2190, 34069.00
839.3550, 34240.00
840.4910, 34205.00
841.6270, 34220.00
842.7630, 34199.00
843.8990, 34232.22
845.0350, 34195.00
846.1700, 34331.00
847.3060, 34472.00
848.4410, 34575.00
849.5760, 34513.00
850.7100, 34447.00
851.8450, 34513.00
852.9800, 34707.00
854.1140, 34654.00
855.2480, 34760.00
856.3820, 34820.00
857.5160, 34924.00
858.6500, 34883.00
859.7830, 34893.00
860.9170, 34745.00
862.0500, 34932.00
863.1830, 34778.00
864.3160, 35209.00
865.4480, 35278.00
866.5810, 35346.00
867.7130, 35107.00
868.8460, 34977.00
869.9780, 35154.00
871.1100, 35334.00
872.2410, 35453.00
873.3730, 35415.00
874.5050, 35375.00
875.6360, 35442.84
876.7670, 35404.45
877.8980, 35460.00
879.0290, 35409.00
880.1590, 35327.00
881.2900, 35327.41
882.4200, 35379.95
883.5500, 35415.00
884.6800, 35557.00
885.8100, 35596.00
886.9400, 35675.00
888.0690, 35736.75
889.1990, 35773.00
890.3280, 35772.00
891.4570, 35759.00
892.5860, 35654.00
893.7140, 35889.00
894.8430, 35824.99
895.9710, 36003.00
897.1000, 35893.00
898.2280, 35989.00
899.3560, 36018.00
900.4830, 35908.00
901.6110, 36077.00
902.7380, 35943.00
903.8660, 35895.00
904.9930, 36230.00
906.1200, 36293.00
907.2460, 36266.00
908.3730, 36307.00
909.5000, 36283.00
910.6260, 36323.10
911.7520, 36367.27
912.8780, 36374.00
914.0040, 36483.00
915.1290, 36458.00
916.2550, 36522.00
917.3800, 36675.00
918.5050, 36571.00
919.6300, 36676.47
920.7550, 36640.00
921.8800, 36732.00
923.0040, 36755.00
924.1290, 36755.00
925.2530, 36916.00
926.3770, 36675.00
927.5010, 36837.00
928.6250, 37011.00
929.7480, 36880.00
930.8720, 37024.00
931.9950, 37176.00
933.1180, 36981.00
934.2410, 37033.00
935.3640, 37134.00
936.4860, 37175.00
937.6090, 37374.00
938.7310, 37211.00
939.8530, 37115.00
940.9750, 37244.00
942.0970, 37378.00
943.2180, 37285.00
944.3400, 37573.00
945.4610, 37619.00
946.5820, 37525.00
947.7030, 37644.00
948.8240, 37723.00
949.9450, 37638.00
951.0650, 37739.77
952.1860, 37787.00
953.3060, 37758.00
954.4260, 37766.00
955.5460, 37681.00
956.6650, 37932.00
957.7850, 38005.00
958.9040, 37946.00
960.0230, 37698.00
961.1420, 38154.00
962.2610, 38066.00
963.3800, 37916.00
964.4990, 38141.00
965.6170, 38044.00
966.7350, 38135.00
967.8530, 38012.00
968.9710, 38179.00
970.0890, 38214.00
971.2070, 38386.00
972.3240, 38267.00
973.4410, 38401.00
974.5580, 38585.00
975.6750, 38437.00
976.7920, 38526.00
977.9090, 38526.00
979.0250, 38323.00
980.1410, 38388.00
981.2580, 38820.00
982.3740, 38754.00
983.4890, 38980.00
984.6050, 38839.00
985.7200, 38754.00
986.8360, 38894.00
987.9510, 38593.00
989.0660, 38756.00
990.1810, 38816.00
991.2950, 39090.00
992.4100, 38900.00
993.5240, 39008.00
994.6390, 39107.00
995.7530, 39211.00
996.8660, 39195.00
997.9800, 39190.00
999.0940, 39281.13
1000.207, 39145.00
1001.320, 39376.00
1002.433, 39243.00
1003.546, 39182.00
1004.659, 39437.00
1005.772, 39372.00
1006.884, 39733.00
1007.996, 39397.00
1009.108, 39455.00
1010.220, 39578.00
1011.332, 39588.00
1012.444, 39619.00
1013.555, 39886.00
1014.666, 39941.00
1015.777, 40156.00
1016.888, 40215.00
1017.999, 40151.00
1019.110, 40204.00
1020.220, 39937.00
1021.331, 40057.00
1022.441, 40195.00
1023.551, 40218.00
1024.661, 39951.00
1025.770, 39822.00
1026.880, 40126.00
1027.989, 39911.00
1029.098, 39954.00
1030.207, 40135.00
1031.316, 40350.00
1032.425, 40382.00
1033.533, 40423.00
1034.642, 40606.00
1035.750, 40284.00
1036.858, 40349.00
1037.966, 40381.00
1039.073, 40655.00
1040.181, 40923.00
1041.288, 40947.00
1042.396, 40942.00
1043.503, 41045.00
1044.610, 40994.00
1045.716, 41103.00
1046.823, 41499.00
1047.929, 41704.00
1049.036, 42174.00
1050.142, 42390.00
1051.248, 42679.00
1052.353, 42754.00
1053.459, 42516.00
1054.564, 42370.00
1055.670, 42529.00
1056.775, 41820.00
1057.880, 41406.00
1058.985, 41669.00
1060.089, 41458.00
1061.194, 41302.00
1062.298, 41294.00
1063.402, 41417.00
1064.506, 41282.00
1065.610, 41354.00
1066.713, 41357.00
1067.817, 41373.00
1068.920, 41414.61
1070.023, 41429.79
1071.126, 41458.00
1072.229, 41471.00
1073.332, 41463.00
1074.435, 41445.00
1075.537, 41559.00
1076.639, 41534.72
1077.741, 41583.49
1078.843, 41609.00
1079.945, 41682.00
1081.046, 41795.00
1082.148, 41919.00
1083.249, 41823.00
1084.350, 41665.00
1085.451, 41814.00
1086.551, 41844.00
1087.652, 41965.00
1088.752, 41980.00
1089.853, 41778.00
1090.953, 42047.00
1092.053, 42077.00
1093.152, 42060.00
1094.252, 42363.00
1095.351, 42270.00
1096.451, 41930.00
1097.550, 42391.00
1098.649, 42374.00
1099.748, 42105.00
1100.846, 42292.00
1101.945, 42266.00
1103.043, 42445.00
1104.141, 42383.00
1105.239, 42478.00
1106.337, 42496.00
1107.434, 42345.00
1108.532, 42647.00
1109.629, 42367.00
1110.726, 42731.00
1111.823, 42725.00
1112.920, 42860.00
1114.017, 42671.00
1115.113, 42735.00
1116.210, 42675.00
1117.306, 42904.00
1118.402, 43089.00
1119.498, 42811.00
1120.593, 42922.00
1121.689, 43265.00
1122.784, 43312.00
1123.879, 43337.00
1124.974, 43439.20
1126.069, 43674.00
1127.164, 43360.00
1128.259, 43403.00
1129.353, 43187.00
1130.447, 43387.00
1131.541, 43519.00
1132.635, 43336.00
1133.729, 43571.00
1134.822, 43320.00
1135.916, 43322.00
1137.009, 43863.00
1138.102, 43684.00
1139.195, 43635.00
1140.288, 43574.00
1141.380, 43585.00
1142.473, 43660.00
1143.565, 43796.00
1144.657, 43850.00
1145.749, 43642.00
1146.841, 44098.00
1147.932, 43782.00
1149.024, 43842.00
1150.115, 44210.00
1151.206, 44023.00
1152.297, 44039.00
1153.388, 44299.00
1154.479, 44136.00
1155.569, 44198.00
1156.659, 44480.00
1157.750, 44249.00
1158.839, 44210.00
1159.929, 44349.00
1161.019, 44502.00
1162.108, 44529.81
1163.198, 44586.00
1164.287, 44662.00
1165.376, 44657.13
1166.465, 44408.00
1167.553, 44676.00
1168.642, 44505.00
1169.730, 44522.00
1170.818, 44612.00
1171.906, 44921.00
1172.994, 44444.00
1174.082, 45019.00
1175.170, 44868.00
1176.257, 45060.00
1177.344, 44805.00
1178.431, 44803.00
1179.518, 44950.00
1180.605, 44937.00
1181.691, 44943.00
1182.778, 45231.00
1183.864, 44943.00
1184.950, 45256.00
1186.036, 44983.00
1187.122, 44970.00
1188.207, 45176.00
1189.292, 45286.00
1190.378, 45222.00
1191.463, 45319.00
1192.548, 45346.00
1193.632, 45363.00
1194.717, 45464.00
1195.801, 45448.56
1196.886, 45396.00
1197.970, 45445.00
1199.054, 45579.00
1200.137, 45545.00
1201.221, 45864.00
1202.305, 45640.00
1203.388, 45672.00
1204.471, 45950.00
1205.554, 45728.00
1206.637, 45782.00
1207.719, 45785.00
1208.802, 45927.00
1209.884, 46190.00
1210.966, 46007.00
1212.048, 46199.00
1213.130, 46320.00
1214.212, 46314.00
1215.293, 46360.43
1216.374, 46303.74
1217.456, 46317.00
1218.536, 46136.00
1219.617, 46153.00
1220.698, 46087.00
1221.778, 46315.00
1222.859, 46427.00
1223.939, 46331.00
1225.019, 46541.00
1226.099, 46514.00
1227.178, 46745.00
1228.258, 46470.00
1229.337, 46796.00
1230.417, 46622.00
1231.496, 47021.00
1232.574, 46547.00
1233.653, 46708.00
1234.732, 46963.00
1235.810, 47028.00
1236.888, 46979.00
1237.966, 46997.00
1239.044, 46897.00
1240.122, 47030.00
1241.199, 46964.00
1242.277, 46818.00
1243.354, 47169.00
1244.431, 47081.00
1245.508, 47374.00
1246.585, 47331.00
1247.661, 47127.00
1248.738, 47271.00
1249.814, 47388.00
1250.890, 47333.00
1251.966, 47433.00
1253.042, 47626.00
1254.117, 47394.00
1255.193, 47855.00
1256.268, 47654.00
1257.343, 47338.00
1258.418, 47505.00
1259.493, 47717.00
1260.567, 47641.00
1261.642, 47926.00
1262.716, 47989.00
1263.790, 48008.00
1264.864, 48032.00
1265.938, 48081.66
1267.011, 48010.00
1268.085, 48111.00
1269.158, 48057.00
1270.231, 47952.00
1271.304, 48169.00
1272.377, 48252.00
1273.450, 48167.00
1274.522, 48591.00
1275.594, 48461.00
1276.666, 48508.00
1277.738, 48062.00
1278.810, 48329.00
1279.882, 48424.00
1280.953, 48422.00
1282.025, 48508.00
1283.096, 48516.00
1284.167, 48704.00
1285.238, 48669.00
1286.308, 48482.00
1287.379, 48651.00
1288.449, 48619.00
1289.519, 49018.00
1290.589, 48917.00
1291.659, 48822.00
1292.729, 49182.00
1293.798, 48872.00
1294.868, 48948.00
1295.937, 48888.00
1297.006, 48965.00
1298.075, 48939.00
1299.143, 48973.00
1300.212, 49050.00
1301.280, 49215.00
1302.348, 49075.00
1303.416, 49336.00
1304.484, 49036.00
1305.552, 49266.00
1306.620, 49350.00
1307.687, 49399.00
1308.754, 49140.00
1309.821, 49714.00
1310.888, 49453.00
1311.955, 49586.00
1313.021, 49679.00
1314.088, 49290.00
1315.154, 49614.00
1316.220, 49641.00
1317.286, 49842.00
1318.352, 49758.00
1319.417, 49884.00
1320.483, 49700.00
1321.548, 49910.00
1322.613, 49732.00
1323.678, 49872.00
1324.743, 50007.00
1325.807, 49689.00
1326.872, 49732.00
1327.936, 50211.00
1329.000, 49777.00
1330.064, 50189.00
1331.128, 49827.00
1332.191, 50175.00
1333.255, 50251.00
1334.318, 50049.00
1335.381, 50365.00
1336.444, 50385.00
1337.507, 50354.00
1338.569, 50235.00
1339.632, 50353.00
1340.694, 50275.00
1341.756, 50437.00
1342.818, 50660.00
1343.880, 50679.00
1344.941, 50613.00
1346.003, 50635.00
1347.064, 50930.00
1348.125, 50558.00
1349.186, 50472.00
1350.247, 50653.00
1351.308, 50933.00
1352.368, 50673.00
1353.428, 50914.00
1354.489, 51003.00
1355.549, 50851.00
1356.608, 50967.00
1357.668, 51153.00
1358.727, 51053.00
1359.787, 50966.00
1360.846, 51126.00
1361.905, 51102.00
1362.964, 51096.00
1364.022, 51216.00
1365.081, 51404.00
1366.139, 51380.00
1367.197, 50953.00
1368.255, 51369.00
1369.313, 51143.00
1370.371, 51253.00
1371.428, 51632.00
1372.486, 51541.00
1373.543, 51822.00
1374.600, 51407.00
1375.657, 51393.00
1376.713, 51278.00
1377.770, 51764.00
1378.826, 51377.00
1379.882, 51711.00
1380.938, 51837.00
1381.994, 51765.00
1383.050, 51663.00
1384.106, 51712.00
1385.161, 51682.00
1386.216, 51717.35
1387.271, 51773.21
1388.326, 51850.00
1389.381, 51870.00
1390.435, 51983.00
1391.490, 51966.00
1392.544, 52102.00
1393.598, 52170.00
1394.652, 52266.00
1395.705, 52140.00
1396.759, 51949.00
1397.812, 52132.00
1398.866, 52240.00
1399.919, 52090.00
1400.972, 52364.00
1402.024, 52089.00
1403.077, 52338.00
1404.129, 52497.00
1405.181, 52520.00
1406.233, 52556.00
1407.285, 52319.00
1408.337, 52667.00
1409.389, 52474.00
1410.440, 52478.00
1411.491, 52603.00
1412.542, 52754.00
1413.593, 52702.00
1414.644, 52656.00
1415.695, 53144.00
1416.745, 52916.00
1417.795, 53265.00
1418.845, 52968.00
1419.895, 52726.00
1420.945, 52758.00
1421.995, 53054.00
1423.044, 52962.00
1424.093, 53193.00
1425.142, 52871.00
1426.191, 53068.00
1427.240, 52953.00
1428.289, 53212.00
1429.337, 53207.00
1430.385, 53584.00
1431.433, 53306.00
1432.481, 53426.00
1433.529, 53530.00
1434.577, 53319.00
1435.624, 53585.00
1436.672, 53607.00
1437.719, 53694.00
1438.766, 53762.35
1439.812, 53632.00
1440.859, 53780.00
1441.905, 53791.48
1442.952, 53765.00
1443.998, 53930.00
1445.044, 53815.00
1446.090, 53728.00
1447.135, 53739.00
1448.181, 53938.00
1449.226, 53986.00
1450.271, 54002.00
1451.316, 54007.00
1452.361, 54069.00
1453.405, 54085.00
1454.450, 53840.00
1455.494, 54020.00
1456.538, 54381.00
1457.582, 54028.00
1458.626, 54290.00
1459.670, 54276.00
1460.713, 54300.00
1461.757, 54169.00
1462.800, 54435.00
1463.843, 54111.00
1464.886, 54352.00
1465.928, 54303.00
1466.971, 54290.00
1468.013, 54560.00
1469.055, 54656.00
1470.097, 54682.00
1471.139, 54706.00
1472.181, 54523.00
1473.222, 54830.00
1474.263, 54742.00
1475.305, 54563.00
1476.346, 54654.00
1477.386, 54962.00
1478.427, 54726.00
1479.468, 54884.00
1480.508, 54882.00
1481.548, 54802.00
1482.588, 54932.00
1483.628, 55005.00
1484.668, 55010.00
1485.707, 55075.23
1486.747, 55070.00
1487.786, 55067.00
1488.825, 55133.00
1489.864, 55029.00
1490.902, 55278.00
1491.941, 55313.00
1492.979, 55298.00
1494.017, 55227.00
1495.055, 55207.00
1496.093, 55283.37
1497.131, 55419.00
1498.168, 55411.00
1499.206, 55492.00
1500.243, 55420.00
1501.280, 55622.00
1502.317, 55626.01
1503.354, 55466.00
1504.390, 55755.00
1505.426, 55814.00
1506.463, 55880.00
1507.499, 55782.00
1508.535, 55753.00
1509.570, 55676.00
1510.606, 55946.00
1511.641, 55949.00
1512.676, 56076.00
1513.711, 55931.00
1514.746, 56167.00
1515.781, 55950.00
1516.816, 56079.00
1517.850, 56082.00
1518.884, 56205.00
1519.918, 56030.00
1520.952, 55976.00
1521.986, 56276.00
1523.019, 56117.00
1524.053, 56244.00
1525.086, 56258.00
1526.119, 56392.00
1527.152, 56484.00
1528.185, 56432.00
1529.217, 56527.59
1530.250, 56562.00
1531.282, 56512.00
1532.314, 56546.00
1533.346, 56382.00
1534.377, 56595.00
1535.409, 56829.00
1536.440, 56771.00
1537.472, 56583.00
1538.503, 56712.00
1539.534, 56593.00
1540.564, 56587.00
1541.595, 56806.00
1542.625, 56750.00
1543.656, 56877.00
1544.686, 56853.00
1545.716, 56972.00
1546.745, 56864.00
1547.775, 56657.00
1548.804, 56758.00
1549.834, 57068.00
1550.863, 56832.00
1551.892, 56951.00
1552.920, 57306.00
1553.949, 57262.00
1554.977, 57397.08
1556.006, 57476.00
1557.034, 57397.00
1558.062, 57295.00
1559.089, 57119.00
1560.117, 57240.00
1561.144, 57369.00
1562.172, 57491.00
1563.199, 57284.00
1564.226, 57517.00
1565.252, 57433.00
1566.279, 57283.00
1567.305, 57777.00
1568.332, 57539.00
1569.358, 57474.00
1570.384, 57682.00
1571.409, 57913.00
##END=



