##NAMES=Talc
##RRUFFID=R050087
##IDEAL CHEMISTRY=Mg_3_Si_4_O_10_(OH)_2_
##LOCALITY=St. Lawrence County, New York, USA
##OWNER=RRUFF
##SOURCE=University of Arizona Mineral Museum
##DESCRIPTION=An aggregate of colorless foliated coarse single crystals
##STATUS=The identification of this mineral has been confirmed by X-ray diffraction and chemical analysis
##URL=rruff.info/R050087
##MEASURED CHEMISTRY=(Mg_.998_Fe_.002_)_3_(Si_.997_Al_.003_)_4_O_10_(OH_.966_F_.034_)_2_
##PIN_ID=M00418
##ORIENTATION=Laser parallel to (1 0 1). Fiducial mark perpendicular to laser is parallel to b [0 1 0]
91.01200, 4551.000
92.24600, 4822.000
93.48000, 5242.074
94.71400, 5505.000
95.94800, 6092.000
97.18200, 6476.000
98.41600, 6856.000
99.64900, 7304.000
100.8830, 8212.000
102.1160, 9507.000
103.3490, 10656.00
104.5820, 11208.00
105.8150, 11496.00
107.0470, 11831.00
108.2800, 12451.00
109.5120, 12880.00
110.7440, 12564.00
111.9760, 11679.00
113.2080, 11672.00
114.4400, 11974.00
115.6710, 12340.00
116.9030, 11516.00
118.1340, 10210.00
119.3650, 8968.000
120.5960, 7951.000
121.8270, 7187.000
123.0580, 6517.000
124.2880, 6183.000
125.5190, 6066.000
126.7490, 5967.000
127.9790, 6005.000
129.2090, 5944.000
130.4390, 5866.000
131.6680, 5988.000
132.8980, 5894.000
134.1270, 5965.000
135.3560, 5991.000
136.5850, 5955.000
137.8140, 5916.000
139.0430, 6047.000
140.2710, 6016.602
141.5000, 6101.000
142.7280, 6048.000
143.9560, 6148.000
145.1840, 6097.000
146.4120, 6059.000
147.6390, 6099.000
148.8670, 6106.000
150.0940, 6124.000
151.3210, 6164.000
152.5490, 6260.000
153.7750, 6244.000
155.0020, 6263.000
156.2290, 6210.000
157.4550, 6199.000
158.6810, 6229.000
159.9080, 6342.000
161.1340, 6208.000
162.3590, 6351.000
163.5850, 6366.000
164.8110, 6416.000
166.0360, 6551.000
167.2610, 6515.000
168.4860, 6452.000
169.7110, 6619.000
170.9360, 6615.000
172.1610, 6698.000
173.3850, 6715.000
174.6100, 6743.000
175.8340, 6921.000
177.0580, 7096.000
178.2820, 7169.000
179.5050, 7463.000
180.7290, 8003.000
181.9520, 9149.000
183.1760, 11375.00
184.3990, 15640.00
185.6220, 20962.00
186.8450, 24983.00
188.0670, 24823.00
189.2900, 27878.00
190.5120, 38172.00
191.7340, 50184.00
192.9560, 58388.00
194.1780, 57941.00
195.4000, 49506.00
196.6220, 40484.00
197.8430, 31403.00
199.0640, 22485.00
200.2860, 15593.00
201.5070, 12564.00
202.7270, 9451.000
203.9480, 8565.000
205.1690, 7969.000
206.3890, 7663.000
207.6090, 7286.000
208.8290, 7167.000
210.0490, 7147.000
211.2690, 7031.000
212.4890, 7010.000
213.7080, 7011.000
214.9280, 7064.000
216.1470, 6971.000
217.3660, 7038.000
218.5850, 7081.000
219.8030, 7114.000
221.0220, 7084.000
222.2400, 7222.000
223.4590, 7094.000
224.6770, 7220.000
225.8950, 7292.000
227.1120, 7326.000
228.3300, 7426.000
229.5480, 7415.000
230.7650, 7406.000
231.9820, 7392.000
233.1990, 7176.000
234.4160, 7081.000
235.6330, 6971.000
236.8490, 6973.000
238.0660, 6939.000
239.2820, 6908.208
240.4980, 6957.000
241.7140, 6912.000
242.9300, 6927.000
244.1460, 6986.000
245.3610, 6875.000
246.5770, 6907.000
247.7920, 6991.000
249.0070, 6967.000
250.2220, 7068.000
251.4370, 6983.000
252.6510, 7024.000
253.8660, 6972.000
255.0800, 7010.000
256.2940, 7027.000
257.5080, 7022.000
258.7220, 7078.000
259.9360, 7162.000
261.1490, 7172.000
262.3630, 7023.000
263.5760, 7141.000
264.7890, 7143.000
266.0020, 6995.000
267.2150, 7046.000
268.4270, 7128.000
269.6400, 7180.000
270.8520, 7160.000
272.0640, 7166.000
273.2760, 7199.000
274.4880, 7363.000
275.7000, 7311.000
276.9120, 7316.000
278.1230, 7508.000
279.3340, 7536.000
280.5450, 7810.000
281.7560, 8152.000
282.9670, 8363.000
284.1780, 8637.000
285.3880, 8968.000
286.5980, 9468.000
287.8090, 10437.00
289.0190, 10631.00
290.2290, 10421.00
291.4380, 9945.000
292.6480, 9327.000
293.8570, 8805.000
295.0670, 8434.000
296.2760, 8012.000
297.4850, 7803.000
298.6930, 7824.000
299.9020, 7961.000
301.1110, 8021.000
302.3190, 8238.000
303.5270, 8006.000
304.7350, 8036.000
305.9430, 7805.000
307.1510, 7803.000
308.3580, 7680.000
309.5660, 7496.000
310.7730, 7593.000
311.9800, 7466.000
313.1870, 7423.000
314.3940, 7537.000
315.6010, 7590.000
316.8070, 7564.000
318.0130, 7585.000
319.2200, 7650.000
320.4260, 7731.000
321.6310, 7741.000
322.8370, 7885.000
324.0430, 7828.000
325.2480, 7985.000
326.4540, 8078.000
327.6590, 8171.000
328.8640, 8356.000
330.0680, 8572.000
331.2730, 8522.000
332.4780, 8730.000
333.6820, 8711.000
334.8860, 8778.000
336.0900, 8729.000
337.2940, 8655.000
338.4980, 8574.000
339.7010, 8646.000
340.9050, 8576.000
342.1080, 8531.000
343.3110, 8744.000
344.5140, 8951.000
345.7170, 9202.000
346.9200, 9505.000
348.1220, 9792.000
349.3240, 10209.00
350.5270, 10864.37
351.7290, 11525.00
352.9310, 12484.00
354.1320, 13639.00
355.3340, 14762.00
356.5350, 15942.00
357.7370, 17409.00
358.9380, 18771.00
360.1390, 20150.00
361.3400, 20565.00
362.5400, 20185.00
363.7410, 18910.00
364.9410, 17046.00
366.1410, 15342.00
367.3410, 13511.00
368.5410, 12218.00
369.7410, 11237.00
370.9400, 10372.00
372.1400, 9852.000
373.3390, 9380.000
374.5380, 9458.000
375.7370, 9510.000
376.9360, 9363.000
378.1350, 9443.000
379.3330, 9232.000
380.5310, 9171.000
381.7300, 9110.000
382.9280, 9053.000
384.1260, 8776.000
385.3230, 8940.000
386.5210, 8689.000
387.7180, 8549.000
388.9160, 8528.000
390.1130, 8366.000
391.3100, 8362.000
392.5060, 8243.000
393.7030, 8375.000
394.9000, 8285.000
396.0960, 8302.000
397.2920, 8360.000
398.4880, 8242.000
399.6840, 8188.000
400.8800, 8336.000
402.0750, 8342.000
403.2710, 8188.000
404.4660, 8352.000
405.6610, 8266.000
406.8560, 8253.000
408.0510, 8279.000
409.2450, 8312.000
410.4400, 8264.000
411.6340, 8323.000
412.8280, 8347.000
414.0220, 8288.000
415.2160, 8335.000
416.4100, 8421.000
417.6030, 8411.000
418.7970, 8508.000
419.9900, 8554.000
421.1830, 8704.000
422.3760, 8885.000
423.5690, 9068.000
424.7610, 9285.000
425.9540, 9692.000
427.1460, 9917.000
428.3380, 10322.00
429.5300, 10919.00
430.7220, 11402.00
431.9140, 11587.00
433.1050, 11506.00
434.2970, 11077.00
435.4880, 10658.00
436.6790, 10078.00
437.8700, 9588.000
439.0610, 9347.000
440.2510, 9261.000
441.4420, 9044.000
442.6320, 9109.000
443.8220, 9071.000
445.0120, 9159.000
446.2020, 9418.000
447.3910, 9427.000
448.5810, 9672.000
449.7700, 9757.000
450.9600, 9983.000
452.1490, 10057.00
453.3370, 10079.00
454.5260, 9832.000
455.7150, 9661.000
456.9030, 9536.000
458.0910, 9383.000
459.2800, 9441.000
460.4670, 9293.000
461.6550, 9445.000
462.8430, 9556.000
464.0300, 9625.000
465.2180, 9797.000
466.4050, 9830.785
467.5920, 10044.00
468.7790, 9875.000
469.9650, 9752.000
471.1520, 9625.000
472.3380, 9236.000
473.5250, 9114.000
474.7110, 9072.000
475.8970, 8954.000
477.0820, 8932.000
478.2680, 8992.000
479.4540, 9005.000
480.6390, 8883.000
481.8240, 8840.000
483.0090, 8787.000
484.1940, 8738.000
485.3780, 8837.000
486.5630, 8785.000
487.7470, 8872.000
488.9320, 8751.000
490.1160, 8929.000
491.3000, 8792.000
492.4830, 8921.000
493.6670, 8800.000
494.8500, 8988.000
496.0340, 8914.000
497.2170, 9029.000
498.4000, 9013.000
499.5820, 9021.000
500.7650, 9035.000
501.9480, 9119.000
503.1300, 9083.000
504.3120, 9154.583
505.4940, 9138.000
506.6760, 9271.000
507.8580, 9262.000
509.0390, 9355.000
510.2210, 9222.000
511.4020, 9226.000
512.5830, 9264.000
513.7640, 9221.000
514.9450, 9158.000
516.1250, 9142.000
517.3060, 9183.000
518.4860, 9319.000
519.6660, 9232.000
520.8460, 9201.000
522.0260, 9062.000
523.2060, 9051.000
524.3850, 9241.000
525.5650, 9114.000
526.7440, 9209.000
527.9230, 9154.000
529.1020, 9169.000
530.2810, 9228.000
531.4590, 9082.000
532.6380, 9186.000
533.8160, 9167.000
534.9940, 9237.000
536.1720, 9189.000
537.3500, 9295.000
538.5270, 9155.000
539.7050, 9238.000
540.8820, 9246.000
542.0590, 9150.000
543.2360, 9252.000
544.4130, 9322.000
545.5900, 9121.000
546.7660, 9395.000
547.9430, 9290.000
549.1190, 9244.000
550.2950, 9412.000
551.4710, 9414.000
552.6470, 9269.000
553.8220, 9442.000
554.9980, 9369.000
556.1730, 9272.000
557.3480, 9441.000
558.5230, 9428.000
559.6980, 9400.000
560.8730, 9376.000
562.0470, 9389.707
563.2220, 9379.207
564.3960, 9431.000
565.5700, 9425.000
566.7440, 9466.000
567.9170, 9562.000
569.0910, 9475.000
570.2640, 9406.000
571.4380, 9486.000
572.6110, 9456.172
573.7840, 9456.689
574.9570, 9517.000
576.1290, 9502.000
577.3020, 9503.000
578.4740, 9625.000
579.6460, 9500.000
580.8180, 9493.000
581.9900, 9575.000
583.1620, 9666.000
584.3330, 9593.000
585.5040, 9526.000
586.6760, 9617.000
587.8470, 9642.000
589.0180, 9595.000
590.1880, 9516.000
591.3590, 9557.000
592.5290, 9527.000
593.7000, 9517.000
594.8700, 9549.673
596.0400, 9720.000
597.2090, 9641.000
598.3790, 9761.864
599.5490, 9907.000
600.7180, 9851.000
601.8870, 9731.000
603.0560, 9793.000
604.2250, 9761.000
605.3940, 9843.000
606.5620, 9919.000
607.7300, 9894.000
608.8990, 9956.000
610.0670, 9828.000
611.2350, 9869.000
612.4020, 9915.000
613.5700, 9992.000
614.7370, 10075.00
615.9050, 9884.000
617.0720, 9872.000
618.2390, 9969.000
619.4060, 10103.00
620.5720, 10038.00
621.7390, 10178.00
622.9050, 10027.00
624.0710, 10138.00
625.2370, 10067.00
626.4030, 10144.00
627.5690, 10199.00
628.7340, 10290.00
629.9000, 10263.00
631.0650, 10335.00
632.2300, 10424.00
633.3950, 10414.57
634.5600, 10372.00
635.7240, 10476.00
636.8890, 10504.00
638.0530, 10583.19
639.2170, 10657.00
640.3810, 10701.00
641.5450, 10688.00
642.7080, 10831.00
643.8720, 10807.00
645.0350, 10986.00
646.1980, 11037.00
647.3610, 11158.00
648.5240, 11178.00
649.6870, 11362.00
650.8490, 11453.00
652.0120, 11533.00
653.1740, 11621.00
654.3360, 11996.00
655.4980, 12233.00
656.6600, 12481.00
657.8210, 12758.00
658.9830, 13204.00
660.1440, 13793.00
661.3050, 14518.00
662.4660, 15379.00
663.6270, 16383.00
664.7870, 17754.00
665.9480, 19727.00
667.1080, 22029.00
668.2680, 24833.00
669.4280, 28380.00
670.5880, 32194.00
671.7480, 36166.00
672.9070, 39617.00
674.0670, 42742.00
675.2260, 44864.00
676.3850, 44863.00
677.5440, 43295.00
678.7030, 39874.00
679.8610, 35545.00
681.0200, 31335.00
682.1780, 27268.00
683.3360, 23970.00
684.4940, 21324.00
685.6520, 19258.00
686.8090, 17679.00
687.9670, 16345.00
689.1240, 15392.00
690.2810, 14653.00
691.4380, 13951.00
692.5950, 13623.00
693.7520, 13042.00
694.9080, 12829.00
696.0650, 12530.00
697.2210, 12237.00
698.3770, 12022.00
699.5330, 11967.00
700.6880, 11881.00
701.8440, 11651.00
702.9990, 11640.00
704.1550, 11515.00
705.3100, 11435.00
706.4650, 11367.00
707.6190, 11377.00
708.7740, 11395.00
709.9290, 11396.00
711.0830, 11363.36
712.2370, 11361.00
713.3910, 11238.00
714.5450, 11129.00
715.6980, 10975.00
716.8520, 10999.00
718.0050, 11074.00
719.1580, 10941.00
720.3110, 11084.00
721.4640, 11015.00
722.6170, 11153.00
723.7700, 11023.00
724.9220, 10995.00
726.0740, 10999.00
727.2260, 11017.00
728.3780, 10951.00
729.5300, 11086.00
730.6810, 10952.00
731.8330, 11143.00
732.9840, 11147.00
734.1350, 11094.00
735.2860, 11187.00
736.4370, 11105.00
737.5880, 10937.00
738.7380, 11063.00
739.8880, 11196.00
741.0390, 11039.00
742.1890, 11189.00
743.3380, 11056.00
744.4880, 11081.00
745.6380, 11223.00
746.7870, 11096.00
747.9360, 11051.00
749.0850, 11255.00
750.2340, 11080.00
751.3830, 11183.00
752.5310, 11249.00
753.6800, 11249.00
754.8280, 11284.00
755.9760, 11136.00
757.1240, 11285.00
758.2720, 11207.00
759.4190, 11124.00
760.5670, 11198.00
761.7140, 11269.00
762.8610, 11238.00
764.0080, 11263.00
765.1550, 11256.17
766.3020, 11210.00
767.4480, 11256.00
768.5950, 11209.00
769.7410, 11279.00
770.8870, 11249.00
772.0330, 11396.00
773.1780, 11384.00
774.3240, 11465.00
775.4690, 11423.00
776.6140, 11383.00
777.7590, 11420.00
778.9040, 11537.00
780.0490, 11572.00
781.1940, 11534.00
782.3380, 11924.00
783.4820, 12025.00
784.6260, 12204.00
785.7700, 12053.00
786.9140, 12291.00
788.0580, 12318.00
789.2010, 12321.00
790.3450, 12627.00
791.4880, 12476.00
792.6310, 12547.00
793.7730, 12470.00
794.9160, 12385.00
796.0590, 12401.00
797.2010, 12116.00
798.3430, 12021.00
799.4850, 11954.00
800.6270, 11886.00
801.7690, 11830.00
802.9100, 11794.06
804.0520, 11854.00
805.1930, 11755.00
806.3340, 11730.00
807.4750, 11746.00
808.6160, 11637.00
809.7560, 11603.00
810.8970, 11581.00
812.0370, 11782.00
813.1770, 11523.00
814.3170, 11762.00
815.4570, 11690.00
816.5960, 11660.00
817.7360, 11606.00
818.8750, 11756.00
820.0140, 11756.00
821.1530, 11879.00
822.2920, 11779.00
823.4310, 11788.00
824.5690, 11628.00
825.7070, 11760.00
826.8460, 11594.00
827.9840, 11634.31
829.1220, 11764.00
830.2590, 11696.00
831.3970, 11825.00
832.5340, 11930.00
833.6710, 11811.00
834.8080, 11674.00
835.9450, 11864.00
837.0820, 11829.00
838.2190, 11759.00
839.3550, 11724.00
840.4910, 11886.00
841.6270, 11753.00
842.7630, 11933.00
843.8990, 11854.00
845.0350, 11852.00
846.1700, 11802.00
847.3060, 11886.00
848.4410, 11871.00
849.5760, 11961.00
850.7100, 11897.00
851.8450, 11842.00
852.9800, 11907.00
854.1140, 11887.29
855.2480, 12015.00
856.3820, 11957.00
857.5160, 12068.00
858.6500, 12121.00
859.7830, 12091.25
860.9170, 12121.28
862.0500, 12043.00
863.1830, 12091.00
864.3160, 12023.00
865.4480, 12037.00
866.5810, 12094.00
867.7130, 12049.02
868.8460, 12065.00
869.9780, 12070.00
871.1100, 12063.00
872.2410, 12066.66
873.3730, 12162.00
874.5050, 12079.00
875.6360, 12094.00
876.7670, 12148.00
877.8980, 12099.00
879.0290, 12160.00
880.1590, 12101.00
881.2900, 12182.00
882.4200, 12323.00
883.5500, 12135.00
884.6800, 12187.00
885.8100, 12130.00
886.9400, 12325.00
888.0690, 12357.00
889.1990, 12333.00
890.3280, 12288.00
891.4570, 12332.00
892.5860, 12184.00
893.7140, 12304.00
894.8430, 12186.00
895.9710, 12191.00
897.1000, 12281.00
898.2280, 12376.00
899.3560, 12320.00
900.4830, 12405.00
901.6110, 12328.00
902.7380, 12406.00
903.8660, 12249.00
904.9930, 12394.00
906.1200, 12425.00
907.2460, 12505.00
908.3730, 12402.00
909.5000, 12298.00
910.6260, 12348.00
911.7520, 12305.56
912.8780, 12420.00
914.0040, 12351.00
915.1290, 12400.00
916.2550, 12428.00
917.3800, 12488.00
918.5050, 12511.88
919.6300, 12596.00
920.7550, 12596.00
921.8800, 12477.00
923.0040, 12566.00
924.1290, 12634.00
925.2530, 12415.00
926.3770, 12478.00
927.5010, 12638.00
928.6250, 12631.00
929.7480, 12602.00
930.8720, 12587.00
931.9950, 12637.00
933.1180, 12571.00
934.2410, 12653.00
935.3640, 12674.00
936.4860, 12648.00
937.6090, 12662.00
938.7310, 12674.58
939.8530, 12671.00
940.9750, 12728.00
942.0970, 12721.00
943.2180, 12789.00
944.3400, 12796.00
945.4610, 12686.00
946.5820, 12775.00
947.7030, 12927.00
948.8240, 12751.00
949.9450, 12824.00
951.0650, 12810.00
952.1860, 12843.00
953.3060, 12823.00
954.4260, 12855.00
955.5460, 12932.00
956.6650, 12895.00
957.7850, 12942.00
958.9040, 12948.00
960.0230, 12889.00
961.1420, 12935.00
962.2610, 12899.00
963.3800, 12869.00
964.4990, 12859.00
965.6170, 13058.00
966.7350, 13066.00
967.8530, 12999.00
968.9710, 12912.00
970.0890, 12980.00
971.2070, 13017.00
972.3240, 13132.00
973.4410, 13048.00
974.5580, 13080.00
975.6750, 13153.00
976.7920, 13068.00
977.9090, 13192.00
979.0250, 13223.00
980.1410, 13088.00
981.2580, 13157.00
982.3740, 13230.00
983.4890, 13183.00
984.6050, 13144.00
985.7200, 13261.00
986.8360, 13191.00
987.9510, 13293.00
989.0660, 13186.00
990.1810, 13219.00
991.2950, 13235.00
992.4100, 13439.00
993.5240, 13248.00
994.6390, 13375.00
995.7530, 13308.00
996.8660, 13489.00
997.9800, 13470.00
999.0940, 13572.00
1000.207, 13300.00
1001.320, 13418.00
1002.433, 13481.00
1003.546, 13585.00
1004.659, 13604.58
1005.772, 13638.00
1006.884, 13652.00
1007.996, 13622.00
1009.108, 13697.00
1010.220, 13870.00
1011.332, 14035.00
1012.444, 14197.20
1013.555, 14470.00
1014.666, 14602.00
1015.777, 14838.00
1016.888, 15095.00
1017.999, 14906.00
1019.110, 15045.00
1020.220, 14887.00
1021.331, 14656.00
1022.441, 14809.00
1023.551, 14347.00
1024.661, 14246.00
1025.770, 14198.00
1026.880, 14088.00
1027.989, 14036.00
1029.098, 14002.00
1030.207, 14075.00
1031.316, 14030.00
1032.425, 14040.00
1033.533, 13987.00
1034.642, 13938.00
1035.750, 14097.00
1036.858, 14304.00
1037.966, 14224.00
1039.073, 14415.00
1040.181, 14489.00
1041.288, 14764.00
1042.396, 14863.00
1043.503, 15239.00
1044.610, 15790.00
1045.716, 16528.00
1046.823, 17343.00
1047.929, 17866.00
1049.036, 18912.00
1050.142, 19533.00
1051.248, 19835.00
1052.353, 19416.00
1053.459, 18604.00
1054.564, 17801.00
1055.670, 16997.00
1056.775, 16002.00
1057.880, 15367.00
1058.985, 15232.00
1060.089, 14964.00
1061.194, 14968.00
1062.298, 14560.00
1063.402, 14612.00
1064.506, 14446.00
1065.610, 14400.00
1066.713, 14351.00
1067.817, 14295.00
1068.920, 14173.00
1070.023, 14219.00
1071.126, 14295.00
1072.229, 14255.00
1073.332, 14175.00
1074.435, 14204.00
1075.537, 14174.00
1076.639, 14144.00
1077.741, 14105.00
1078.843, 13943.00
1079.945, 14265.00
1081.046, 14278.00
1082.148, 14170.00
1083.249, 14076.00
1084.350, 14352.00
1085.451, 14238.00
1086.551, 14273.00
1087.652, 14203.00
1088.752, 14187.00
1089.853, 14273.00
1090.953, 14179.00
1092.053, 14234.00
1093.152, 14180.00
1094.252, 14290.00
1095.351, 14537.00
1096.451, 14259.00
1097.550, 14513.00
1098.649, 14359.00
1099.748, 14494.00
1100.846, 14300.00
1101.945, 14236.00
1103.043, 14301.00
1104.141, 14361.00
1105.239, 14470.00
1106.337, 14496.97
1107.434, 14526.60
1108.532, 14543.00
1109.629, 14494.00
1110.726, 14440.00
1111.823, 14325.00
1112.920, 14469.00
1114.017, 14311.00
1115.113, 14367.00
1116.210, 14522.00
1117.306, 14488.00
1118.402, 14617.00
1119.498, 14663.00
1120.593, 14732.00
1121.689, 14898.00
1122.784, 14712.00
1123.879, 14717.00
1124.974, 14796.00
1126.069, 14683.00
1127.164, 14849.00
1128.259, 14856.00
1129.353, 14822.48
1130.447, 14588.00
1131.541, 14746.00
1132.635, 14658.00
1133.729, 14556.00
1134.822, 14587.00
1135.916, 14722.00
1137.009, 14664.00
1138.102, 14806.00
1139.195, 14594.00
1140.288, 14601.00
1141.380, 14652.00
1142.473, 14742.00
1143.565, 14730.00
1144.657, 14849.00
1145.749, 14704.00
1146.841, 14654.00
1147.932, 14754.00
1149.024, 14751.00
1150.115, 14854.00
1151.206, 14782.00
1152.297, 14789.00
1153.388, 14869.00
1154.479, 14917.00
1155.569, 14749.00
1156.659, 14767.00
1157.750, 14856.00
1158.839, 14904.00
1159.929, 14952.00
1161.019, 14915.00
1162.108, 14880.00
1163.198, 14941.00
1164.287, 14822.00
1165.376, 15039.00
1166.465, 15128.00
1167.553, 14875.00
1168.642, 15022.00
1169.730, 15010.00
1170.818, 15100.00
1171.906, 15026.00
1172.994, 14918.00
1174.082, 15079.00
1175.170, 15044.00
1176.257, 15024.00
1177.344, 14893.00
1178.431, 15109.00
1179.518, 14977.00
1180.605, 15213.00
1181.691, 14914.00
1182.778, 15024.00
1183.864, 15062.00
1184.950, 15154.00
1186.036, 15039.00
1187.122, 15249.00
1188.207, 15097.00
1189.292, 15271.00
1190.378, 15145.00
1191.463, 15186.00
1192.548, 15087.00
1193.632, 15228.00
1194.717, 15157.00
1195.801, 15229.00
1196.886, 15148.00
1197.970, 15172.00
1199.054, 15219.00
1200.137, 15296.00
1201.221, 15269.00
1202.305, 15382.00
1203.388, 15240.00
1204.471, 15249.00
1205.554, 15277.00
1206.637, 15480.00
1207.719, 15363.00
1208.802, 15396.00
1209.884, 15354.00
1210.966, 15303.00
1212.048, 15373.00
1213.130, 15524.00
1214.212, 15243.00
1215.293, 15405.00
1216.374, 15330.00
1217.456, 15553.00
1218.536, 15469.00
1219.617, 15633.00
1220.698, 15517.00
1221.778, 15599.00
1222.859, 15426.00
1223.939, 15477.00
1225.019, 15405.00
1226.099, 15524.00
1227.178, 15673.00
1228.258, 15672.00
1229.337, 15495.00
1230.417, 15544.00
1231.496, 15682.00
1232.574, 15517.00
1233.653, 15655.00
1234.732, 15464.00
1235.810, 15781.00
1236.888, 15696.00
1237.966, 15568.00
1239.044, 15679.00
1240.122, 15727.00
1241.199, 15661.00
1242.277, 15810.00
1243.354, 15710.00
1244.431, 15683.00
1245.508, 15784.00
1246.585, 15712.00
1247.661, 15846.00
1248.738, 15797.00
1249.814, 15806.00
1250.890, 15838.00
1251.966, 15826.17
1253.042, 15854.77
1254.117, 15851.00
1255.193, 15885.00
1256.268, 15895.00
1257.343, 15890.00
1258.418, 15892.00
1259.493, 15855.00
1260.567, 15996.00
1261.642, 15991.00
1262.716, 15908.00
1263.790, 16077.00
1264.864, 16093.00
1265.938, 16027.00
1267.011, 16139.00
1268.085, 15984.00
1269.158, 15986.00
1270.231, 16185.00
1271.304, 16098.00
1272.377, 16025.00
1273.450, 16137.00
1274.522, 16039.00
1275.594, 16115.00
1276.666, 16001.00
1277.738, 16165.00
1278.810, 16213.00
1279.882, 16261.00
1280.953, 16149.00
1282.025, 16066.00
1283.096, 16262.00
1284.167, 16208.00
1285.238, 16250.00
1286.308, 16329.00
1287.379, 16259.00
1288.449, 16253.00
1289.519, 16241.00
1290.589, 16228.00
1291.659, 16284.00
1292.729, 16367.00
1293.798, 16487.00
1294.868, 16312.00
1295.937, 16477.00
1297.006, 16370.00
1298.075, 16385.00
1299.143, 16397.00
1300.212, 16537.00
1301.280, 16428.00
1302.348, 16448.00
1303.416, 16506.00
1304.484, 16371.00
1305.552, 16423.00
1306.620, 16391.00
1307.687, 16563.00
1308.754, 16442.00
1309.821, 16672.00
1310.888, 16555.00
1311.955, 16691.00
1313.021, 16588.00
1314.088, 16531.00
1315.154, 16521.00
1316.220, 16615.00
1317.286, 16742.00
1318.352, 16718.00
1319.417, 16719.00
1320.483, 16652.00
1321.548, 16775.00
1322.613, 16735.00
1323.678, 16641.00
1324.743, 16620.00
1325.807, 16727.00
1326.872, 16758.00
1327.936, 16769.00
1329.000, 16859.00
1330.064, 16829.37
1331.128, 16772.00
1332.191, 16774.00
1333.255, 16821.00
1334.318, 16732.00
1335.381, 16768.00
1336.444, 16790.00
1337.507, 16772.00
1338.569, 16788.00
1339.632, 16803.00
1340.694, 16786.00
1341.756, 16923.00
1342.818, 16873.00
1343.880, 16958.00
1344.941, 16844.00
1346.003, 16872.00
1347.064, 16957.00
1348.125, 16966.10
1349.186, 17050.00
1350.247, 17090.00
1351.308, 17053.00
1352.368, 17049.00
1353.428, 17056.58
1354.489, 17039.06
1355.549, 17036.00
1356.608, 17052.00
1357.668, 17000.00
1358.727, 17047.00
1359.787, 16904.00
1360.846, 17144.00
1361.905, 16967.00
1362.964, 17022.00
1364.022, 17039.00
1365.081, 17006.00
1366.139, 17080.00
1367.197, 17061.00
1368.255, 17081.16
1369.313, 17010.00
1370.371, 17088.00
1371.428, 17227.00
1372.486, 17193.00
1373.543, 17274.00
1374.600, 17210.00
1375.657, 17304.00
1376.713, 17194.00
1377.770, 17120.00
1378.826, 17280.00
1379.882, 17296.00
1380.938, 17176.00
1381.994, 17306.00
1383.050, 17205.00
1384.106, 17324.00
1385.161, 17312.00
1386.216, 17217.00
1387.271, 17354.00
1388.326, 17254.00
1389.381, 17465.00
1390.435, 17368.00
1391.490, 17465.00
1392.544, 17340.00
1393.598, 17362.00
1394.652, 17345.00
1395.705, 17342.00
1396.759, 17437.00
1397.812, 17466.00
1398.866, 17497.00
1399.919, 17467.00
1400.972, 17430.00
1402.024, 17393.00
1403.077, 17627.00
1404.129, 17661.00
1405.181, 17444.00
1406.233, 17547.00
1407.285, 17404.00
1408.337, 17459.00
1409.389, 17448.00
1410.440, 17389.00
1411.491, 17625.00
1412.542, 17661.00
1413.593, 17627.00
1414.644, 17587.00
1415.695, 17552.00
1416.745, 17755.00
1417.795, 17639.00
1418.845, 17713.00
1419.895, 17602.00
1420.945, 17595.00
1421.995, 17635.00
1423.044, 17545.00
1424.093, 17598.00
1425.142, 17624.00
1426.191, 17652.00
1427.240, 17745.00
1428.289, 17763.06
1429.337, 17772.29
1430.385, 17825.00
1431.433, 17763.00
1432.481, 17740.00
1433.529, 17746.00
1434.577, 17917.00
1435.624, 17869.00
1436.672, 17958.00
1437.719, 18064.00
1438.766, 17918.00
1439.812, 17893.00
1440.859, 17997.00
1441.905, 17921.00
1442.952, 17943.00
1443.998, 17871.00
1445.044, 17916.30
1446.090, 18092.00
1447.135, 17979.00
1448.181, 17978.00
1449.226, 17942.00
1450.271, 18167.00
1451.316, 18137.00
1452.361, 18096.00
1453.405, 17929.00
1454.450, 17808.00
1455.494, 18015.00
1456.538, 18093.00
1457.582, 18245.00
1458.626, 18261.27
1459.670, 18141.00
1460.713, 18241.00
1461.757, 18209.00
1462.800, 18184.00
1463.843, 18135.00
1464.886, 18141.59
1465.928, 18109.00
1466.971, 18185.00
1468.013, 18185.00
1469.055, 18282.00
1470.097, 18327.00
1471.139, 18137.00
1472.181, 18095.00
1473.222, 18133.00
1474.263, 18323.00
1475.305, 18247.00
1476.346, 18360.00
1477.386, 18223.00
1478.427, 18290.00
1479.468, 18296.31
1480.508, 18270.00
1481.548, 18328.00
1482.588, 18303.00
1483.628, 18312.00
1484.668, 18351.00
1485.707, 18478.00
1486.747, 18436.00
1487.786, 18434.00
1488.825, 18516.00
1489.864, 18346.00
1490.902, 18375.00
1491.941, 18510.00
1492.979, 18497.00
1494.017, 18332.00
1495.055, 18164.00
1496.093, 18456.00
1497.131, 18575.00
1498.168, 18439.00
1499.206, 18471.00
1500.243, 18488.00
1501.280, 18592.00
1502.317, 18507.00
1503.354, 18401.00
1504.390, 18475.00
1505.426, 18670.00
1506.463, 18535.00
1507.499, 18580.00
1508.535, 18474.00
1509.570, 18608.00
1510.606, 18643.00
1511.641, 18593.00
1512.676, 18850.00
1513.711, 18826.00
1514.746, 18405.00
1515.781, 18666.00
1516.816, 18691.00
1517.850, 18650.00
1518.884, 18766.00
1519.918, 18719.00
1520.952, 18644.00
1521.986, 18832.00
1523.019, 18849.00
1524.053, 18766.00
1525.086, 18831.00
1526.119, 18891.00
1527.152, 18668.00
1528.185, 18767.00
1529.217, 18831.00
1530.250, 18884.00
1531.282, 18969.00
1532.314, 18947.46
1533.346, 18980.72
1534.377, 18937.00
1535.409, 18974.00
1536.440, 19049.00
1537.472, 19046.50
1538.503, 18846.00
1539.534, 18948.00
1540.564, 18936.00
1541.595, 18815.00
1542.625, 18974.00
1543.656, 18792.00
1544.686, 19015.00
1545.716, 19048.00
1546.745, 19020.00
1547.775, 18831.00
1548.804, 18982.00
1549.834, 18970.00
1550.863, 19149.00
1551.892, 19036.00
1552.920, 18957.00
1553.949, 19211.00
1554.977, 19243.00
1556.006, 19075.00
1557.034, 19143.00
1558.062, 19139.00
1559.089, 18977.00
1560.117, 19076.00
1561.144, 19105.00
1562.172, 19082.00
1563.199, 19187.00
1564.226, 18979.00
1565.252, 18932.00
1566.279, 19271.00
1567.305, 19062.00
1568.332, 19096.00
1569.358, 19245.00
1570.384, 19200.00
1571.409, 19174.00
##END=



