##NAMES=Talc
##RRUFFID=R050087
##IDEAL CHEMISTRY=Mg_3_Si_4_O_10_(OH)_2_
##LOCALITY=St. Lawrence County, New York, USA
##OWNER=RRUFF
##SOURCE=University of Arizona Mineral Museum
##DESCRIPTION=An aggregate of colorless foliated coarse single crystals
##STATUS=The identification of this mineral has been confirmed by X-ray diffraction and chemical analysis
##URL=rruff.info/R050087
##MEASURED CHEMISTRY=(Mg_.998_Fe_.002_)_3_(Si_.997_Al_.003_)_4_O_10_(OH_.966_F_.034_)_2_
##PIN_ID=M00196
##ORIENTATION=Laser parallel to a* (1 0 0). Fiducial mark perpendicular to laser is parallel to -b [0 -1 0]
95.94800, 13787.00
97.18200, 14262.00
98.41600, 14670.00
99.64900, 15333.00
100.8830, 16235.00
102.1160, 17028.00
103.3490, 17872.00
104.5820, 18248.00
105.8150, 18545.00
107.0470, 18995.00
108.2800, 19542.00
109.5120, 19820.00
110.7440, 19494.00
111.9760, 19186.00
113.2080, 19206.00
114.4400, 18730.00
115.6710, 18129.00
116.9030, 17576.00
118.1340, 17058.00
119.3650, 16613.00
120.5960, 16275.00
121.8270, 15781.00
123.0580, 15436.00
124.2880, 15341.00
125.5190, 15222.00
126.7490, 15250.00
127.9790, 15262.00
129.2090, 15281.12
130.4390, 15535.00
131.6680, 15415.00
132.8980, 15559.00
134.1270, 15658.00
135.3560, 15576.00
136.5850, 15859.00
137.8140, 15971.00
139.0430, 16079.00
140.2710, 16156.00
141.5000, 16184.00
142.7280, 16111.00
143.9560, 16126.00
145.1840, 16193.00
146.4120, 16141.00
147.6390, 16176.00
148.8670, 16268.00
150.0940, 16250.42
151.3210, 16246.02
152.5490, 16304.00
153.7750, 16202.00
155.0020, 16222.00
156.2290, 16274.00
157.4550, 16229.00
158.6810, 16295.00
159.9080, 16336.00
161.1340, 16389.00
162.3590, 16423.00
163.5850, 16566.00
164.8110, 16402.00
166.0360, 16594.00
167.2610, 16529.00
168.4860, 16545.00
169.7110, 16617.00
170.9360, 16623.89
172.1610, 16838.00
173.3850, 16776.00
174.6100, 16879.00
175.8340, 17056.00
177.0580, 17049.00
178.2820, 17449.00
179.5050, 17788.00
180.7290, 18316.00
181.9520, 19193.00
183.1760, 21373.00
184.3990, 25532.00
185.6220, 31039.00
186.8450, 34912.00
188.0670, 33606.00
189.2900, 32675.00
190.5120, 36723.00
191.7340, 40576.00
192.9560, 42240.00
194.1780, 42059.00
195.4000, 41899.00
196.6220, 39565.00
197.8430, 34774.00
199.0640, 29481.00
200.2860, 24480.00
201.5070, 21085.00
202.7270, 19458.00
203.9480, 18647.00
205.1690, 18412.00
206.3890, 17920.00
207.6090, 17869.00
208.8290, 17675.00
210.0490, 17728.00
211.2690, 17668.00
212.4890, 17561.00
213.7080, 17725.00
214.9280, 17807.00
216.1470, 17828.00
217.3660, 17937.00
218.5850, 17972.06
219.8030, 17907.00
221.0220, 18078.00
222.2400, 18226.00
223.4590, 18304.00
224.6770, 18139.00
225.8950, 18371.00
227.1120, 18301.00
228.3300, 18507.00
229.5480, 18442.00
230.7650, 18540.00
231.9820, 18229.00
233.1990, 18197.00
234.4160, 18101.00
235.6330, 18095.00
236.8490, 18029.00
238.0660, 17978.00
239.2820, 18069.00
240.4980, 17913.00
241.7140, 18154.00
242.9300, 18178.00
244.1460, 18313.00
245.3610, 18178.00
246.5770, 18233.00
247.7920, 18334.00
249.0070, 18075.00
250.2220, 18207.00
251.4370, 18141.00
252.6510, 18267.00
253.8660, 18248.64
255.0800, 18258.00
256.2940, 18262.00
257.5080, 18309.00
258.7220, 18380.00
259.9360, 18433.00
261.1490, 18475.00
262.3630, 18527.00
263.5760, 18443.00
264.7890, 18673.00
266.0020, 18476.00
267.2150, 18541.00
268.4270, 18673.00
269.6400, 18583.00
270.8520, 18606.00
272.0640, 18483.00
273.2760, 18660.00
274.4880, 18646.00
275.7000, 18672.00
276.9120, 18896.00
278.1230, 18865.00
279.3340, 18965.00
280.5450, 19302.00
281.7560, 19682.00
282.9670, 19759.00
284.1780, 19885.00
285.3880, 20075.00
286.5980, 19983.00
287.8090, 20309.00
289.0190, 20414.00
290.2290, 20313.00
291.4380, 20101.00
292.6480, 20167.00
293.8570, 20073.00
295.0670, 19755.00
296.2760, 19506.00
297.4850, 19425.00
298.6930, 19429.00
299.9020, 19439.00
301.1110, 19409.68
302.3190, 19441.00
303.5270, 19412.00
304.7350, 19434.00
305.9430, 19455.00
307.1510, 19493.00
308.3580, 19461.01
309.5660, 19402.00
310.7730, 19417.00
311.9800, 19444.00
313.1870, 19473.00
314.3940, 19492.52
315.6010, 19486.00
316.8070, 19525.00
318.0130, 19562.00
319.2200, 19549.07
320.4260, 19640.00
321.6310, 19635.00
322.8370, 19687.00
324.0430, 19816.00
325.2480, 19867.00
326.4540, 19993.00
327.6590, 20151.00
328.8640, 20084.00
330.0680, 20437.00
331.2730, 20264.00
332.4780, 20386.00
333.6820, 20370.00
334.8860, 20458.00
336.0900, 20453.00
337.2940, 20265.00
338.4980, 20285.00
339.7010, 20389.00
340.9050, 20424.00
342.1080, 20685.00
343.3110, 20568.00
344.5140, 20737.00
345.7170, 20977.00
346.9200, 21004.00
348.1220, 21268.00
349.3240, 21891.00
350.5270, 22111.00
351.7290, 22588.00
352.9310, 23430.00
354.1320, 24135.00
355.3340, 24784.00
356.5350, 25374.00
357.7370, 25625.00
358.9380, 25835.00
360.1390, 26187.00
361.3400, 26253.00
362.5400, 26197.00
363.7410, 25542.00
364.9410, 24889.00
366.1410, 24178.00
367.3410, 23302.00
368.5410, 22720.00
369.7410, 22362.00
370.9400, 21894.00
372.1400, 21670.00
373.3390, 21520.00
374.5380, 21473.00
375.7370, 21372.00
376.9360, 21445.00
378.1350, 21444.00
379.3330, 21487.00
380.5310, 21377.00
381.7300, 21447.00
382.9280, 21465.00
384.1260, 21295.00
385.3230, 21265.00
386.5210, 21361.00
387.7180, 21182.00
388.9160, 21362.00
390.1130, 21251.00
391.3100, 21376.00
392.5060, 21205.00
393.7030, 21272.00
394.9000, 21295.00
396.0960, 21295.00
397.2920, 21405.00
398.4880, 21221.00
399.6840, 21240.00
400.8800, 21397.00
402.0750, 21502.00
403.2710, 21325.00
404.4660, 21577.00
405.6610, 21470.00
406.8560, 21474.00
408.0510, 21436.00
409.2450, 21473.68
410.4400, 21468.00
411.6340, 21603.00
412.8280, 21548.00
414.0220, 21608.00
415.2160, 21786.00
416.4100, 21751.00
417.6030, 21820.00
418.7970, 21643.00
419.9900, 21889.00
421.1830, 21837.00
422.3760, 22139.00
423.5690, 22456.00
424.7610, 22505.00
425.9540, 22609.00
427.1460, 22853.00
428.3380, 22837.00
429.5300, 23202.00
430.7220, 23127.00
431.9140, 23079.00
433.1050, 23206.00
434.2970, 23102.00
435.4880, 22871.00
436.6790, 22687.00
437.8700, 22689.00
439.0610, 22466.00
440.2510, 22628.00
441.4420, 22605.00
442.6320, 22409.00
443.8220, 22651.00
445.0120, 22572.00
446.2020, 23038.00
447.3910, 22947.00
448.5810, 23003.00
449.7700, 23036.00
450.9600, 23091.00
452.1490, 23126.00
453.3370, 23188.00
454.5260, 23133.00
455.7150, 23164.00
456.9030, 23213.00
458.0910, 23136.00
459.2800, 23486.00
460.4670, 23383.00
461.6550, 23662.00
462.8430, 23928.00
464.0300, 23746.00
465.2180, 23969.00
466.4050, 24204.00
467.5920, 24120.00
468.7790, 24304.00
469.9650, 24019.00
471.1520, 23996.00
472.3380, 23696.00
473.5250, 23582.00
474.7110, 23358.00
475.8970, 23057.00
477.0820, 23012.00
478.2680, 23222.00
479.4540, 22983.00
480.6390, 22982.00
481.8240, 23223.00
483.0090, 23151.00
484.1940, 23111.00
485.3780, 23001.00
486.5630, 23265.00
487.7470, 23478.00
488.9320, 23337.00
490.1160, 23367.00
491.3000, 23232.00
492.4830, 23406.00
493.6670, 23431.00
494.8500, 23519.00
496.0340, 23408.00
497.2170, 23651.00
498.4000, 23411.00
499.5820, 23174.00
500.7650, 23592.00
501.9480, 23743.00
503.1300, 23656.00
504.3120, 23761.00
505.4940, 23701.00
506.6760, 23788.00
507.8580, 23874.00
509.0390, 23703.00
510.2210, 23781.00
511.4020, 24075.00
512.5830, 24045.00
513.7640, 23716.00
514.9450, 24042.00
516.1250, 23878.00
517.3060, 23940.00
518.4860, 24112.00
519.6660, 23982.00
520.8460, 23947.00
522.0260, 23915.00
523.2060, 24077.00
524.3850, 24179.00
525.5650, 23969.00
526.7440, 24197.00
527.9230, 23918.00
529.1020, 24130.00
530.2810, 23992.00
531.4590, 24056.00
532.6380, 24322.00
533.8160, 24269.00
534.9940, 24209.00
536.1720, 24146.00
537.3500, 24364.00
538.5270, 24233.00
539.7050, 24360.00
540.8820, 24347.00
542.0590, 24473.00
543.2360, 24377.00
544.4130, 24345.00
545.5900, 24526.00
546.7660, 24617.00
547.9430, 24669.00
549.1190, 24640.00
550.2950, 24687.85
551.4710, 24703.99
552.6470, 24701.00
553.8220, 24717.00
554.9980, 24734.00
556.1730, 24668.00
557.3480, 24602.00
558.5230, 24685.00
559.6980, 24615.00
560.8730, 24724.00
562.0470, 24874.00
563.2220, 24865.00
564.3960, 24914.00
565.5700, 24794.00
566.7440, 24990.00
567.9170, 24994.00
569.0910, 24915.00
570.2640, 25025.00
571.4380, 25211.00
572.6110, 25261.00
573.7840, 25136.00
574.9570, 25006.00
576.1290, 25058.00
577.3020, 25165.00
578.4740, 25210.00
579.6460, 25278.00
580.8180, 25322.00
581.9900, 25172.00
583.1620, 25376.00
584.3330, 25505.00
585.5040, 25314.00
586.6760, 25297.00
587.8470, 25422.00
589.0180, 25377.00
590.1880, 25472.00
591.3590, 25424.00
592.5290, 25562.00
593.7000, 25544.85
594.8700, 25575.00
596.0400, 25605.00
597.2090, 25709.00
598.3790, 25842.00
599.5490, 25873.65
600.7180, 25870.00
601.8870, 26003.00
603.0560, 25965.00
604.2250, 26050.63
605.3940, 26019.00
606.5620, 25995.00
607.7300, 25963.00
608.8990, 25819.00
610.0670, 25910.00
611.2350, 26025.00
612.4020, 25981.00
613.5700, 26186.00
614.7370, 26417.00
615.9050, 26202.00
617.0720, 26274.00
618.2390, 26521.00
619.4060, 26444.00
620.5720, 26285.00
621.7390, 26385.00
622.9050, 26641.00
624.0710, 26494.00
625.2370, 26770.00
626.4030, 26738.00
627.5690, 26852.00
628.7340, 26837.00
629.9000, 26949.00
631.0650, 26870.00
632.2300, 26829.00
633.3950, 26938.00
634.5600, 26771.00
635.7240, 26937.00
636.8890, 26957.00
638.0530, 27117.00
639.2170, 27135.00
640.3810, 27197.00
641.5450, 27210.00
642.7080, 27158.00
643.8720, 27481.00
645.0350, 27554.00
646.1980, 27583.00
647.3610, 27565.00
648.5240, 27537.00
649.6870, 27824.00
650.8490, 27949.00
652.0120, 28047.00
653.1740, 27948.00
654.3360, 28452.00
655.4980, 28378.00
656.6600, 28726.00
657.8210, 29074.00
658.9830, 29370.00
660.1440, 29732.00
661.3050, 30114.00
662.4660, 30873.00
663.6270, 31658.00
664.7870, 32888.00
665.9480, 34094.00
667.1080, 35668.00
668.2680, 37613.00
669.4280, 39756.00
670.5880, 41775.00
671.7480, 43694.00
672.9070, 45182.00
674.0670, 46348.00
675.2260, 47000.00
676.3850, 46874.00
677.5440, 46153.00
678.7030, 44704.00
679.8610, 42475.00
681.0200, 40465.00
682.1780, 38415.00
683.3360, 36320.00
684.4940, 34688.00
685.6520, 33707.00
686.8090, 32584.00
687.9670, 31936.00
689.1240, 31129.00
690.2810, 30741.00
691.4380, 30267.00
692.5950, 29949.00
693.7520, 29785.00
694.9080, 29625.00
696.0650, 29406.00
697.2210, 29274.00
698.3770, 29061.00
699.5330, 29098.00
700.6880, 29080.00
701.8440, 28969.00
702.9990, 28899.00
704.1550, 28931.00
705.3100, 28865.00
706.4650, 28856.00
707.6190, 28768.00
708.7740, 28779.00
709.9290, 28925.00
711.0830, 28730.00
712.2370, 28681.00
713.3910, 28957.00
714.5450, 28725.00
715.6980, 28652.00
716.8520, 28788.00
718.0050, 28875.00
719.1580, 28934.00
720.3110, 28967.00
721.4640, 28813.00
722.6170, 28991.00
723.7700, 29234.00
724.9220, 28978.00
726.0740, 29192.00
727.2260, 28992.00
728.3780, 29211.00
729.5300, 29160.00
730.6810, 29316.00
731.8330, 29356.00
732.9840, 29248.00
734.1350, 29264.00
735.2860, 29240.00
736.4370, 29326.00
737.5880, 29266.00
738.7380, 29320.00
739.8880, 29496.00
741.0390, 29199.00
742.1890, 29377.00
743.3380, 29401.00
744.4880, 29571.00
745.6380, 29699.00
746.7870, 29467.00
747.9360, 29817.00
749.0850, 29601.00
750.2340, 29805.00
751.3830, 29664.00
752.5310, 29586.00
753.6800, 29753.00
754.8280, 29604.00
755.9760, 29863.00
757.1240, 29982.00
758.2720, 29699.00
759.4190, 29851.00
760.5670, 29834.00
761.7140, 29888.00
762.8610, 29882.00
764.0080, 29859.00
765.1550, 30050.00
766.3020, 29908.00
767.4480, 30083.00
768.5950, 29964.00
769.7410, 30220.00
770.8870, 29949.00
772.0330, 30118.00
773.1780, 30315.00
774.3240, 30264.00
775.4690, 30595.00
776.6140, 30311.00
777.7590, 30568.00
778.9040, 30527.00
780.0490, 30751.00
781.1940, 30733.00
782.3380, 31008.00
783.4820, 31077.00
784.6260, 30966.00
785.7700, 30991.00
786.9140, 31326.00
788.0580, 31142.00
789.2010, 31379.00
790.3450, 31042.00
791.4880, 31253.00
792.6310, 31113.00
793.7730, 31034.00
794.9160, 31129.00
796.0590, 30986.50
797.2010, 30948.00
798.3430, 30907.00
799.4850, 31116.00
800.6270, 31211.00
801.7690, 31139.00
802.9100, 31198.00
804.0520, 31151.00
805.1930, 31316.00
806.3340, 31118.00
807.4750, 31112.00
808.6160, 31172.00
809.7560, 31317.00
810.8970, 31354.92
812.0370, 31401.89
813.1770, 31510.00
814.3170, 31478.00
815.4570, 31498.00
816.5960, 31599.00
817.7360, 31491.00
818.8750, 31316.00
820.0140, 31401.80
821.1530, 31689.00
822.2920, 31517.00
823.4310, 31613.00
824.5690, 31856.00
825.7070, 31671.00
826.8460, 31855.00
827.9840, 31857.00
829.1220, 31764.00
830.2590, 31952.00
831.3970, 31870.00
832.5340, 31849.00
833.6710, 31902.00
834.8080, 31998.00
835.9450, 32002.00
837.0820, 31994.00
838.2190, 31998.00
839.3550, 32049.37
840.4910, 31837.00
841.6270, 32131.00
842.7630, 32125.00
843.8990, 32081.00
845.0350, 32475.00
846.1700, 32364.00
847.3060, 32408.00
848.4410, 32488.00
849.5760, 32393.00
850.7100, 32298.00
851.8450, 32460.00
852.9800, 32634.00
854.1140, 32512.00
855.2480, 32432.00
856.3820, 32765.00
857.5160, 32501.00
858.6500, 32567.00
859.7830, 32648.00
860.9170, 32647.00
862.0500, 32686.00
863.1830, 32911.00
864.3160, 32898.00
865.4480, 32930.00
866.5810, 32874.00
867.7130, 32827.00
868.8460, 32936.00
869.9780, 32962.00
871.1100, 32850.00
872.2410, 32995.00
873.3730, 32923.00
874.5050, 32915.00
875.6360, 33042.00
876.7670, 33307.00
877.8980, 33119.00
879.0290, 33136.00
880.1590, 33291.00
881.2900, 33225.00
882.4200, 33377.00
883.5500, 33195.00
884.6800, 33305.00
885.8100, 33283.00
886.9400, 33456.00
888.0690, 33475.00
889.1990, 33454.00
890.3280, 33237.00
891.4570, 33387.00
892.5860, 33636.00
893.7140, 33502.00
894.8430, 33734.00
895.9710, 33661.00
897.1000, 33805.00
898.2280, 33558.00
899.3560, 33550.00
900.4830, 33636.00
901.6110, 33602.25
902.7380, 33826.00
903.8660, 33742.00
904.9930, 33767.00
906.1200, 33800.00
907.2460, 33769.00
908.3730, 33712.00
909.5000, 34110.00
910.6260, 34134.00
911.7520, 33834.00
912.8780, 34200.00
914.0040, 34087.00
915.1290, 33971.00
916.2550, 34203.00
917.3800, 34282.00
918.5050, 34320.00
919.6300, 34385.00
920.7550, 34337.00
921.8800, 34339.00
923.0040, 34145.00
924.1290, 34359.00
925.2530, 34530.00
926.3770, 34364.00
927.5010, 34498.00
928.6250, 34381.00
929.7480, 34679.00
930.8720, 34750.00
931.9950, 34690.00
933.1180, 34672.00
934.2410, 34566.00
935.3640, 34929.00
936.4860, 34424.00
937.6090, 34766.00
938.7310, 34939.00
939.8530, 34683.00
940.9750, 34896.00
942.0970, 35175.00
943.2180, 35169.00
944.3400, 35054.00
945.4610, 35062.00
946.5820, 35046.00
947.7030, 34981.17
948.8240, 35007.00
949.9450, 34968.00
951.0650, 35143.00
952.1860, 35306.00
953.3060, 35278.00
954.4260, 35190.00
955.5460, 35335.00
956.6650, 35335.00
957.7850, 35328.00
958.9040, 35422.00
960.0230, 35379.00
961.1420, 35517.00
962.2610, 35673.00
963.3800, 35392.00
964.4990, 35651.00
965.6170, 35839.00
966.7350, 35764.00
967.8530, 35593.00
968.9710, 35714.00
970.0890, 35612.00
971.2070, 35848.00
972.3240, 35886.00
973.4410, 35866.00
974.5580, 35816.00
975.6750, 35958.00
976.7920, 35845.00
977.9090, 35923.00
979.0250, 36205.00
980.1410, 36034.00
981.2580, 36213.00
982.3740, 36125.00
983.4890, 36191.00
984.6050, 36204.00
985.7200, 36459.00
986.8360, 36467.00
987.9510, 36269.00
989.0660, 36403.00
990.1810, 36218.00
991.2950, 36271.28
992.4100, 36659.00
993.5240, 36309.00
994.6390, 36597.00
995.7530, 36565.00
996.8660, 36614.00
997.9800, 36652.00
999.0940, 36805.00
1000.207, 36957.00
1001.320, 37072.00
1002.433, 37138.91
1003.546, 37180.00
1004.659, 37147.00
1005.772, 37204.73
1006.884, 37239.01
1007.996, 37327.00
1009.108, 37370.00
1010.220, 37450.00
1011.332, 37577.00
1012.444, 37907.00
1013.555, 37921.00
1014.666, 38225.00
1015.777, 38087.00
1016.888, 38557.00
1017.999, 38418.00
1019.110, 38281.00
1020.220, 38367.00
1021.331, 38254.00
1022.441, 38054.00
1023.551, 37836.00
1024.661, 38081.00
1025.770, 37890.00
1026.880, 37849.00
1027.989, 37776.00
1029.098, 37660.00
1030.207, 37867.00
1031.316, 37788.00
1032.425, 37989.00
1033.533, 37935.00
1034.642, 38107.00
1035.750, 37985.00
1036.858, 38202.00
1037.966, 38029.00
1039.073, 38460.00
1040.181, 38611.00
1041.288, 38526.00
1042.396, 38607.00
1043.503, 39267.00
1044.610, 39506.00
1045.716, 39879.00
1046.823, 40507.00
1047.929, 41145.00
1049.036, 41315.00
1050.142, 41497.00
1051.248, 41718.00
1052.353, 41718.00
1053.459, 40975.00
1054.564, 40652.00
1055.670, 40195.00
1056.775, 39716.00
1057.880, 39487.00
1058.985, 39545.00
1060.089, 39163.00
1061.194, 39234.00
1062.298, 39070.00
1063.402, 39039.00
1064.506, 39115.00
1065.610, 39062.00
1066.713, 38955.00
1067.817, 39111.00
1068.920, 39104.00
1070.023, 39014.00
1071.126, 39185.00
1072.229, 39004.00
1073.332, 39208.00
1074.435, 39208.00
1075.537, 39168.00
1076.639, 39209.00
1077.741, 39417.00
1078.843, 39140.00
1079.945, 39094.00
1081.046, 39220.00
1082.148, 39410.00
1083.249, 39542.00
1084.350, 39805.00
1085.451, 39440.00
1086.551, 39546.00
1087.652, 39317.00
1088.752, 39518.00
1089.853, 39648.00
1090.953, 39765.00
1092.053, 39700.00
1093.152, 39589.00
1094.252, 39659.00
1095.351, 39722.00
1096.451, 39641.18
1097.550, 39727.00
1098.649, 39577.00
1099.748, 39642.00
1100.846, 39662.00
1101.945, 39850.00
1103.043, 40049.00
1104.141, 39833.00
1105.239, 40192.00
1106.337, 39770.00
1107.434, 40166.00
1108.532, 40200.00
1109.629, 39897.00
1110.726, 39961.00
1111.823, 40420.00
1112.920, 39915.00
1114.017, 40100.00
1115.113, 40384.00
1116.210, 40309.00
1117.306, 40474.00
1118.402, 40231.00
1119.498, 40340.00
1120.593, 40420.00
1121.689, 40733.00
1122.784, 40624.00
1123.879, 40666.00
1124.974, 40721.00
1126.069, 40645.00
1127.164, 40700.61
1128.259, 40672.00
1129.353, 40743.00
1130.447, 40797.00
1131.541, 40863.00
1132.635, 40871.42
1133.729, 40800.00
1134.822, 40911.00
1135.916, 40908.00
1137.009, 41006.00
1138.102, 41231.00
1139.195, 40758.00
1140.288, 41037.00
1141.380, 41060.00
1142.473, 40891.00
1143.565, 41405.00
1144.657, 41328.00
1145.749, 41155.00
1146.841, 41288.00
1147.932, 41477.00
1149.024, 41221.00
1150.115, 41557.00
1151.206, 41655.00
1152.297, 41480.00
1153.388, 41554.00
1154.479, 41576.00
1155.569, 41732.00
1156.659, 41753.00
1157.750, 41920.00
1158.839, 41623.00
1159.929, 42010.00
1161.019, 41724.00
1162.108, 41711.00
1163.198, 41799.00
1164.287, 41756.00
1165.376, 41882.00
1166.465, 41930.00
1167.553, 42281.00
1168.642, 42082.00
1169.730, 41773.00
1170.818, 42141.00
1171.906, 41984.00
1172.994, 42148.00
1174.082, 42118.00
1175.170, 42085.00
1176.257, 42300.00
1177.344, 42179.00
1178.431, 42262.00
1179.518, 42325.00
1180.605, 42627.00
1181.691, 42825.00
1182.778, 42658.00
1183.864, 42357.00
1184.950, 42600.00
1186.036, 42324.00
1187.122, 42585.00
1188.207, 42658.00
1189.292, 42773.00
1190.378, 42950.00
1191.463, 42780.00
1192.548, 43004.00
1193.632, 42751.00
1194.717, 42594.00
1195.801, 43023.00
1196.886, 42984.00
1197.970, 42828.00
1199.054, 43206.00
1200.137, 43069.00
1201.221, 43121.00
1202.305, 42969.00
1203.388, 43010.00
1204.471, 42912.00
1205.554, 43124.00
1206.637, 43311.00
1207.719, 43479.00
1208.802, 43330.00
1209.884, 43177.00
1210.966, 43475.00
1212.048, 43183.00
1213.130, 43205.00
1214.212, 43301.00
1215.293, 43479.00
1216.374, 43542.00
1217.456, 43405.00
1218.536, 43615.00
1219.617, 43864.00
1220.698, 43643.00
1221.778, 43634.00
1222.859, 43851.00
1223.939, 43571.00
1225.019, 43999.00
1226.099, 43756.00
1227.178, 43963.00
1228.258, 44109.00
1229.337, 44050.00
1230.417, 44044.00
1231.496, 44113.00
1232.574, 44008.00
1233.653, 44044.00
1234.732, 44014.00
1235.810, 44114.00
1236.888, 44434.00
1237.966, 44125.00
1239.044, 43982.00
1240.122, 44285.00
1241.199, 44313.00
1242.277, 44276.00
1243.354, 44291.00
1244.431, 44327.40
1245.508, 44392.31
1246.585, 44422.00
1247.661, 44519.00
1248.738, 44588.00
1249.814, 44507.00
1250.890, 44785.00
1251.966, 44782.00
1253.042, 45035.00
1254.117, 44939.00
1255.193, 44896.00
1256.268, 44495.00
1257.343, 44939.00
1258.418, 45080.00
1259.493, 44895.00
1260.567, 45151.00
1261.642, 45077.00
1262.716, 45053.00
1263.790, 45189.00
1264.864, 45208.00
1265.938, 45367.00
1267.011, 45106.00
1268.085, 45085.00
1269.158, 45357.00
1270.231, 45674.00
1271.304, 45515.00
1272.377, 45561.00
1273.450, 45507.00
1274.522, 45613.00
1275.594, 45725.00
1276.666, 45827.00
1277.738, 45633.00
1278.810, 45509.00
1279.882, 45607.81
1280.953, 45561.96
1282.025, 45756.00
1283.096, 45771.00
1284.167, 45888.00
1285.238, 46145.00
1286.308, 46149.00
1287.379, 45901.00
1288.449, 46317.00
1289.519, 46146.00
1290.589, 46251.00
1291.659, 46554.00
1292.729, 46340.00
1293.798, 46451.00
1294.868, 46537.00
1295.937, 46542.00
1297.006, 46470.00
1298.075, 46710.00
1299.143, 46584.00
1300.212, 46756.00
1301.280, 46763.00
1302.348, 46737.74
1303.416, 46839.66
1304.484, 46722.00
1305.552, 46929.00
1306.620, 46957.00
1307.687, 46990.00
1308.754, 47107.00
1309.821, 46927.00
1310.888, 46976.00
1311.955, 46883.00
1313.021, 47190.00
1314.088, 46990.00
1315.154, 46919.00
1316.220, 47167.00
1317.286, 46777.00
1318.352, 47146.00
1319.417, 47200.00
1320.483, 47218.00
1321.548, 46977.00
1322.613, 47339.00
1323.678, 47419.00
1324.743, 47496.00
1325.807, 47650.00
1326.872, 47343.00
1327.936, 47384.00
1329.000, 47216.00
1330.064, 47535.00
1331.128, 47483.00
1332.191, 47276.00
1333.255, 47717.00
1334.318, 47419.00
1335.381, 47871.00
1336.444, 47624.00
1337.507, 47408.00
1338.569, 47774.00
1339.632, 47936.00
1340.694, 48006.00
1341.756, 47778.00
1342.818, 47951.00
1343.880, 47904.00
1344.941, 48016.00
1346.003, 47905.00
1347.064, 47914.00
1348.125, 48332.00
1349.186, 48358.00
1350.247, 48135.00
1351.308, 48319.00
1352.368, 48206.00
1353.428, 48293.00
1354.489, 48400.00
1355.549, 48349.00
1356.608, 48402.00
1357.668, 48260.00
1358.727, 48513.00
1359.787, 48250.00
1360.846, 48282.00
1361.905, 48625.00
1362.964, 48780.00
1364.022, 48766.00
1365.081, 48899.15
1366.139, 48776.00
1367.197, 48929.00
1368.255, 48892.00
1369.313, 48945.00
1370.371, 48792.00
1371.428, 49062.00
1372.486, 48716.00
1373.543, 49045.00
1374.600, 48832.00
1375.657, 49053.00
1376.713, 49018.00
1377.770, 48939.00
1378.826, 49205.00
1379.882, 49059.00
1380.938, 48878.00
1381.994, 48976.00
1383.050, 49073.00
1384.106, 49024.96
1385.161, 49216.00
1386.216, 49096.00
1387.271, 49149.00
1388.326, 49227.00
1389.381, 49399.00
1390.435, 49430.00
1391.490, 49428.00
1392.544, 49169.00
1393.598, 49266.00
1394.652, 49281.00
1395.705, 49396.00
1396.759, 49624.00
1397.812, 49482.00
1398.866, 49629.00
1399.919, 49563.00
1400.972, 49676.00
1402.024, 49796.00
1403.077, 49732.00
1404.129, 50012.00
1405.181, 49862.00
1406.233, 49720.00
1407.285, 49749.00
1408.337, 50161.00
1409.389, 49841.00
1410.440, 49865.00
1411.491, 50380.00
1412.542, 50075.00
1413.593, 50115.00
1414.644, 50397.00
1415.695, 50054.00
1416.745, 50451.00
1417.795, 50248.00
1418.845, 50330.00
1419.895, 50203.00
1420.945, 50350.00
1421.995, 50258.00
1423.044, 50331.00
1424.093, 50513.00
1425.142, 50725.00
1426.191, 50546.00
1427.240, 50780.00
1428.289, 50743.00
1429.337, 50953.00
1430.385, 50742.00
1431.433, 50873.00
1432.481, 51373.00
1433.529, 51247.00
1434.577, 51361.00
1435.624, 51566.00
1436.672, 51538.00
1437.719, 51633.00
1438.766, 51823.00
1439.812, 51772.00
1440.859, 51750.00
1441.905, 51994.00
1442.952, 51675.00
1443.998, 51962.00
1445.044, 51839.00
1446.090, 51724.00
1447.135, 52175.00
1448.181, 51835.00
1449.226, 52231.00
1450.271, 52038.00
1451.316, 51833.00
1452.361, 52015.00
1453.405, 52136.00
1454.450, 52281.00
1455.494, 52197.00
1456.538, 52029.00
1457.582, 52381.00
1458.626, 52060.00
1459.670, 52127.00
1460.713, 52115.00
1461.757, 52061.00
1462.800, 52412.00
1463.843, 52277.00
1464.886, 52138.00
1465.928, 52218.00
1466.971, 51931.00
1468.013, 52094.00
1469.055, 51894.00
1470.097, 52305.00
1471.139, 52225.00
1472.181, 52471.00
1473.222, 52136.00
1474.263, 52530.00
1475.305, 52353.00
1476.346, 52148.00
1477.386, 52359.00
1478.427, 52337.00
1479.468, 52408.00
1480.508, 52600.00
1481.548, 52270.00
1482.588, 52376.00
1483.628, 52369.00
1484.668, 52413.00
1485.707, 52754.00
1486.747, 52434.00
1487.786, 52693.00
1488.825, 52832.00
1489.864, 52689.00
1490.902, 52572.00
1491.941, 52644.00
1492.979, 52944.00
1494.017, 52518.00
1495.055, 52840.00
1496.093, 52847.00
1497.131, 52730.00
1498.168, 53089.00
1499.206, 52972.00
1500.243, 52948.00
1501.280, 52896.00
1502.317, 52928.00
1503.354, 53205.00
1504.390, 53043.00
1505.426, 53333.00
1506.463, 53263.00
1507.499, 53223.00
1508.535, 53258.00
1509.570, 53249.65
1510.606, 53370.00
1511.641, 53312.00
1512.676, 53446.00
1513.711, 53476.00
1514.746, 53251.00
1515.781, 53496.00
1516.816, 53414.00
1517.850, 53731.00
1518.884, 53978.00
1519.918, 53609.00
1520.952, 53677.00
1521.986, 53669.00
1523.019, 53509.00
1524.053, 53618.00
1525.086, 53882.00
1526.119, 53779.00
1527.152, 53784.00
1528.185, 54055.00
1529.217, 53898.00
1530.250, 53926.00
1531.282, 54006.00
1532.314, 54117.00
1533.346, 54154.00
1534.377, 54065.00
1535.409, 54241.00
1536.440, 54070.00
1537.472, 54297.00
1538.503, 54051.00
1539.534, 54268.00
1540.564, 54391.00
1541.595, 54173.00
1542.625, 54519.00
1543.656, 54256.00
1544.686, 54177.00
1545.716, 54629.00
1546.745, 54662.00
1547.775, 54323.00
1548.804, 54394.00
1549.834, 54596.00
1550.863, 54843.00
1551.892, 54749.00
1552.920, 54586.00
1553.949, 55109.00
1554.977, 54731.00
1556.006, 55021.00
1557.034, 54959.00
1558.062, 54686.00
1559.089, 54716.00
1560.117, 54952.00
1561.144, 54692.00
1562.172, 54983.00
1563.199, 54810.00
1564.226, 55020.00
1565.252, 54951.00
1566.279, 55057.00
1567.305, 55146.00
1568.332, 55088.00
1569.358, 55158.00
1570.384, 55340.00
1571.409, 55789.00
##END=



