##NAMES=Talc
##RRUFFID=R050087
##IDEAL CHEMISTRY=Mg_3_Si_4_O_10_(OH)_2_
##LOCALITY=St. Lawrence County, New York, USA
##OWNER=RRUFF
##SOURCE=University of Arizona Mineral Museum
##DESCRIPTION=An aggregate of colorless foliated coarse single crystals
##STATUS=The identification of this mineral has been confirmed by X-ray diffraction and chemical analysis
##URL=rruff.info/R050087
##MEASURED CHEMISTRY=(Mg_.998_Fe_.002_)_3_(Si_.997_Al_.003_)_4_O_10_(OH_.966_F_.034_)_2_
##PIN_ID=M00418
##ORIENTATION=Laser parallel to (1 0 1). Fiducial mark perpendicular to laser is parallel to b [0 1 0]
91.01200, 8573.000
92.24600, 9252.000
93.48000, 9519.000
94.71400, 10144.00
95.94800, 11117.00
97.18200, 11858.00
98.41600, 12313.00
99.64900, 13060.00
100.8830, 14274.00
102.1160, 15866.00
103.3490, 16940.00
104.5820, 17061.00
105.8150, 17149.00
107.0470, 17678.00
108.2800, 18354.00
109.5120, 18124.00
110.7440, 16961.00
111.9760, 16103.00
113.2080, 15976.00
114.4400, 15445.00
115.6710, 15105.00
116.9030, 14151.00
118.1340, 13092.00
119.3650, 12463.00
120.5960, 11498.00
121.8270, 10884.00
123.0580, 10387.00
124.2880, 10120.00
125.5190, 9925.000
126.7490, 9971.000
127.9790, 9721.000
129.2090, 9885.000
130.4390, 9806.000
131.6680, 9812.000
132.8980, 9862.000
134.1270, 9827.000
135.3560, 9904.000
136.5850, 9917.000
137.8140, 9903.000
139.0430, 9896.000
140.2710, 9884.798
141.5000, 9868.000
142.7280, 9836.000
143.9560, 9961.000
145.1840, 9918.000
146.4120, 9947.000
147.6390, 10119.00
148.8670, 9951.000
150.0940, 10018.00
151.3210, 10159.00
152.5490, 10090.00
153.7750, 10219.00
155.0020, 10141.00
156.2290, 10141.00
157.4550, 10180.00
158.6810, 10231.00
159.9080, 10307.00
161.1340, 10331.66
162.3590, 10276.00
163.5850, 10409.00
164.8110, 10465.00
166.0360, 10523.00
167.2610, 10412.00
168.4860, 10432.00
169.7110, 10599.00
170.9360, 10855.00
172.1610, 10620.00
173.3850, 10752.00
174.6100, 10826.00
175.8340, 10881.00
177.0580, 11127.00
178.2820, 11316.00
179.5050, 11708.00
180.7290, 12536.00
181.9520, 13904.00
183.1760, 16824.00
184.3990, 22687.00
185.6220, 30210.00
186.8450, 35479.00
188.0670, 33917.00
189.2900, 34907.00
190.5120, 42480.00
191.7340, 48377.00
192.9560, 50440.00
194.1780, 48931.00
195.4000, 46317.00
196.6220, 41669.00
197.8430, 34458.00
199.0640, 26523.00
200.2860, 19925.00
201.5070, 15588.00
202.7270, 13871.00
203.9480, 12814.00
205.1690, 12031.00
206.3890, 11654.00
207.6090, 11397.00
208.8290, 11294.00
210.0490, 11164.00
211.2690, 11328.00
212.4890, 11128.00
213.7080, 11196.00
214.9280, 11168.00
216.1470, 11246.00
217.3660, 11180.00
218.5850, 11320.00
219.8030, 11609.00
221.0220, 11738.00
222.2400, 11738.00
223.4590, 11798.00
224.6770, 11900.38
225.8950, 11924.00
227.1120, 12090.00
228.3300, 12126.00
229.5480, 12217.00
230.7650, 11910.00
231.9820, 11608.00
233.1990, 11502.00
234.4160, 11383.00
235.6330, 11315.00
236.8490, 11231.00
238.0660, 11221.35
239.2820, 11215.00
240.4980, 11266.00
241.7140, 11214.00
242.9300, 11289.00
244.1460, 11163.00
245.3610, 11133.00
246.5770, 11221.00
247.7920, 11306.00
249.0070, 11281.00
250.2220, 11170.00
251.4370, 11213.00
252.6510, 11208.00
253.8660, 11293.00
255.0800, 11329.00
256.2940, 11279.00
257.5080, 11360.00
258.7220, 11403.00
259.9360, 11398.54
261.1490, 11387.60
262.3630, 11420.00
263.5760, 11348.00
264.7890, 11336.00
266.0020, 11440.00
267.2150, 11397.00
268.4270, 11485.00
269.6400, 11472.00
270.8520, 11432.00
272.0640, 11467.00
273.2760, 11505.65
274.4880, 11574.00
275.7000, 11708.00
276.9120, 11835.00
278.1230, 12086.00
279.3340, 12189.00
280.5450, 12600.00
281.7560, 12994.00
282.9670, 13491.00
284.1780, 13611.00
285.3880, 13736.00
286.5980, 14275.00
287.8090, 14556.00
289.0190, 14579.00
290.2290, 14378.00
291.4380, 14277.00
292.6480, 13658.00
293.8570, 13359.00
295.0670, 12832.00
296.2760, 12557.00
297.4850, 12277.00
298.6930, 12313.00
299.9020, 12175.00
301.1110, 12292.00
302.3190, 12209.00
303.5270, 12363.00
304.7350, 12180.00
305.9430, 12252.00
307.1510, 12286.00
308.3580, 12153.00
309.5660, 11959.00
310.7730, 12111.00
311.9800, 12106.00
313.1870, 12036.00
314.3940, 12054.00
315.6010, 12039.00
316.8070, 12032.00
318.0130, 12138.00
319.2200, 12223.00
320.4260, 12328.00
321.6310, 12339.00
322.8370, 12334.00
324.0430, 12440.73
325.2480, 12516.81
326.4540, 12641.00
327.6590, 12764.00
328.8640, 12833.16
330.0680, 12901.38
331.2730, 12987.00
332.4780, 13015.00
333.6820, 13084.00
334.8860, 13211.00
336.0900, 13065.00
337.2940, 13133.00
338.4980, 12981.00
339.7010, 13048.00
340.9050, 12992.00
342.1080, 13269.00
343.3110, 13337.00
344.5140, 13487.00
345.7170, 13640.00
346.9200, 13936.00
348.1220, 14251.00
349.3240, 14741.00
350.5270, 15416.00
351.7290, 15866.00
352.9310, 16897.00
354.1320, 18037.00
355.3340, 18915.00
356.5350, 19726.00
357.7370, 20302.00
358.9380, 21086.00
360.1390, 21372.00
361.3400, 21298.00
362.5400, 20849.00
363.7410, 20069.00
364.9410, 18961.00
366.1410, 17827.00
367.3410, 16692.00
368.5410, 15816.00
369.7410, 15095.47
370.9400, 14486.59
372.1400, 14147.00
373.3390, 13802.00
374.5380, 13768.00
375.7370, 13840.00
376.9360, 13710.00
378.1350, 13802.00
379.3330, 13622.00
380.5310, 13724.00
381.7300, 13634.00
382.9280, 13571.00
384.1260, 13520.00
385.3230, 13457.00
386.5210, 13441.00
387.7180, 13432.00
388.9160, 13300.00
390.1130, 13165.00
391.3100, 13096.00
392.5060, 13090.00
393.7030, 13092.00
394.9000, 13050.30
396.0960, 13063.00
397.2920, 13036.00
398.4880, 13055.00
399.6840, 13116.00
400.8800, 13076.00
402.0750, 13229.00
403.2710, 13075.00
404.4660, 13140.00
405.6610, 13185.00
406.8560, 13146.00
408.0510, 13242.00
409.2450, 13101.00
410.4400, 13228.00
411.6340, 13239.00
412.8280, 13310.00
414.0220, 13346.75
415.2160, 13373.52
416.4100, 13380.00
417.6030, 13475.00
418.7970, 13468.00
419.9900, 13611.00
421.1830, 13836.00
422.3760, 13861.00
423.5690, 14273.00
424.7610, 14488.00
425.9540, 14848.00
427.1460, 15174.00
428.3380, 15440.00
429.5300, 15823.00
430.7220, 15892.00
431.9140, 15976.00
433.1050, 15961.00
434.2970, 15792.00
435.4880, 15321.00
436.6790, 14961.00
437.8700, 14660.00
439.0610, 14500.85
440.2510, 14432.00
441.4420, 14402.00
442.6320, 14438.00
443.8220, 14507.00
445.0120, 14669.00
446.2020, 14709.00
447.3910, 15008.00
448.5810, 15157.00
449.7700, 15316.00
450.9600, 15378.00
452.1490, 15435.00
453.3370, 15295.00
454.5260, 15160.00
455.7150, 14979.00
456.9030, 15016.00
458.0910, 14808.00
459.2800, 14829.00
460.4670, 14772.00
461.6550, 14919.00
462.8430, 15099.00
464.0300, 15143.00
465.2180, 15174.00
466.4050, 15418.00
467.5920, 15115.00
468.7790, 15180.00
469.9650, 14937.00
471.1520, 14783.00
472.3380, 14506.00
473.5250, 14442.00
474.7110, 14234.00
475.8970, 14119.00
477.0820, 14094.00
478.2680, 14112.00
479.4540, 14146.00
480.6390, 14106.00
481.8240, 14083.00
483.0090, 14156.00
484.1940, 14041.00
485.3780, 14312.00
486.5630, 14303.00
487.7470, 14177.00
488.9320, 14171.00
490.1160, 14046.00
491.3000, 14303.00
492.4830, 14149.00
493.6670, 14200.00
494.8500, 14284.00
496.0340, 14227.00
497.2170, 14169.00
498.4000, 14398.00
499.5820, 14406.00
500.7650, 14381.00
501.9480, 14585.00
503.1300, 14425.00
504.3120, 14576.00
505.4940, 14683.00
506.6760, 14622.00
507.8580, 14574.00
509.0390, 14579.00
510.2210, 14645.00
511.4020, 14689.00
512.5830, 14722.00
513.7640, 14638.00
514.9450, 14759.00
516.1250, 14679.00
517.3060, 14741.00
518.4860, 14722.00
519.6660, 14742.00
520.8460, 14784.00
522.0260, 14712.00
523.2060, 14659.00
524.3850, 14683.00
525.5650, 14547.00
526.7440, 14723.00
527.9230, 14619.00
529.1020, 14771.00
530.2810, 14739.00
531.4590, 14862.00
532.6380, 14714.00
533.8160, 14776.00
534.9940, 14790.00
536.1720, 14915.00
537.3500, 14876.99
538.5270, 14914.43
539.7050, 14844.00
540.8820, 14891.00
542.0590, 14893.00
543.2360, 14818.00
544.4130, 14649.00
545.5900, 14920.00
546.7660, 14787.00
547.9430, 14851.00
549.1190, 15042.00
550.2950, 15002.00
551.4710, 14851.00
552.6470, 14885.00
553.8220, 14981.00
554.9980, 14996.00
556.1730, 14978.00
557.3480, 14979.00
558.5230, 14985.29
559.6980, 15116.00
560.8730, 15034.00
562.0470, 15116.00
563.2220, 15228.00
564.3960, 15141.00
565.5700, 15148.00
566.7440, 15097.00
567.9170, 15261.00
569.0910, 15161.00
570.2640, 15274.00
571.4380, 15224.00
572.6110, 15379.00
573.7840, 15098.00
574.9570, 15183.00
576.1290, 15116.00
577.3020, 15250.00
578.4740, 15334.00
579.6460, 15284.00
580.8180, 15211.00
581.9900, 15149.00
583.1620, 15325.00
584.3330, 15349.00
585.5040, 15366.00
586.6760, 15490.00
587.8470, 15500.00
589.0180, 15433.00
590.1880, 15577.00
591.3590, 15346.00
592.5290, 15563.00
593.7000, 15558.00
594.8700, 15498.00
596.0400, 15508.00
597.2090, 15510.67
598.3790, 15546.00
599.5490, 15547.00
600.7180, 15623.00
601.8870, 15646.00
603.0560, 15765.00
604.2250, 15597.00
605.3940, 15730.00
606.5620, 15624.00
607.7300, 15697.00
608.8990, 15799.00
610.0670, 15708.00
611.2350, 15817.00
612.4020, 15925.00
613.5700, 15929.00
614.7370, 15850.00
615.9050, 16112.00
617.0720, 16016.00
618.2390, 15933.00
619.4060, 16216.00
620.5720, 16182.00
621.7390, 16048.00
622.9050, 16160.00
624.0710, 16354.00
625.2370, 16340.00
626.4030, 16431.00
627.5690, 16333.00
628.7340, 16499.00
629.9000, 16430.00
631.0650, 16634.00
632.2300, 16349.00
633.3950, 16390.00
634.5600, 16462.00
635.7240, 16428.00
636.8890, 16565.00
638.0530, 16676.00
639.2170, 16804.00
640.3810, 16789.00
641.5450, 16753.00
642.7080, 16891.00
643.8720, 16956.00
645.0350, 17161.00
646.1980, 17404.00
647.3610, 17310.00
648.5240, 17394.00
649.6870, 17617.00
650.8490, 17629.00
652.0120, 17758.00
653.1740, 18025.00
654.3360, 18173.64
655.4980, 18332.00
656.6600, 18734.00
657.8210, 19092.00
658.9830, 19549.00
660.1440, 20147.00
661.3050, 20919.00
662.4660, 21755.00
663.6270, 23212.00
664.7870, 24752.00
665.9480, 26770.00
667.1080, 29302.00
668.2680, 32378.00
669.4280, 35508.00
670.5880, 38841.00
671.7480, 41729.00
672.9070, 44079.00
674.0670, 45428.00
675.2260, 46589.00
676.3850, 45873.00
677.5440, 44384.00
678.7030, 41708.00
679.8610, 38428.00
681.0200, 34941.00
682.1780, 32039.00
683.3360, 28989.00
684.4940, 26666.00
685.6520, 25007.00
686.8090, 23509.00
687.9670, 22263.00
689.1240, 21320.00
690.2810, 20678.00
691.4380, 20052.00
692.5950, 19723.00
693.7520, 19348.00
694.9080, 18932.00
696.0650, 18630.00
697.2210, 18475.00
698.3770, 18302.00
699.5330, 18141.66
700.6880, 18069.00
701.8440, 17900.00
702.9990, 17925.00
704.1550, 17807.00
705.3100, 17827.00
706.4650, 17663.00
707.6190, 17738.00
708.7740, 17502.00
709.9290, 17552.00
711.0830, 17671.00
712.2370, 17577.00
713.3910, 17642.00
714.5450, 17539.00
715.6980, 17697.00
716.8520, 17533.00
718.0050, 17422.00
719.1580, 17445.00
720.3110, 17560.00
721.4640, 17621.00
722.6170, 17452.00
723.7700, 17427.00
724.9220, 17584.00
726.0740, 17463.00
727.2260, 17679.00
728.3780, 17446.00
729.5300, 17470.00
730.6810, 17622.00
731.8330, 17596.00
732.9840, 17552.00
734.1350, 17378.00
735.2860, 17638.00
736.4370, 17598.00
737.5880, 17473.00
738.7380, 17637.00
739.8880, 17703.00
741.0390, 17827.00
742.1890, 17731.00
743.3380, 17694.00
744.4880, 17752.00
745.6380, 17606.00
746.7870, 17805.00
747.9360, 17755.00
749.0850, 17753.00
750.2340, 17799.00
751.3830, 17838.00
752.5310, 17649.00
753.6800, 17978.00
754.8280, 17786.00
755.9760, 17879.00
757.1240, 17928.00
758.2720, 17942.00
759.4190, 17816.00
760.5670, 18105.00
761.7140, 17904.00
762.8610, 17826.00
764.0080, 17991.00
765.1550, 17919.00
766.3020, 18073.00
767.4480, 18110.00
768.5950, 18174.00
769.7410, 17956.00
770.8870, 18098.00
772.0330, 18282.00
773.1780, 18160.00
774.3240, 18397.00
775.4690, 18283.00
776.6140, 18203.00
777.7590, 18598.00
778.9040, 18707.00
780.0490, 18716.00
781.1940, 18825.00
782.3380, 18969.00
783.4820, 18923.00
784.6260, 19044.00
785.7700, 19029.00
786.9140, 19335.00
788.0580, 19256.00
789.2010, 19185.00
790.3450, 18994.00
791.4880, 19057.00
792.6310, 19081.00
793.7730, 19129.00
794.9160, 18960.00
796.0590, 18945.00
797.2010, 18910.00
798.3430, 18783.00
799.4850, 18896.00
800.6270, 18572.00
801.7690, 18560.00
802.9100, 18709.00
804.0520, 18665.00
805.1930, 18519.00
806.3340, 18534.00
807.4750, 18637.00
808.6160, 18701.00
809.7560, 18608.00
810.8970, 18734.00
812.0370, 18672.00
813.1770, 18719.00
814.3170, 18747.00
815.4570, 18765.00
816.5960, 18701.00
817.7360, 18787.00
818.8750, 18863.00
820.0140, 18690.00
821.1530, 18862.00
822.2920, 18787.00
823.4310, 19080.00
824.5690, 18897.00
825.7070, 18905.00
826.8460, 18876.00
827.9840, 18888.00
829.1220, 18806.00
830.2590, 18997.00
831.3970, 19035.00
832.5340, 18976.00
833.6710, 19033.00
834.8080, 19099.00
835.9450, 19068.00
837.0820, 19071.00
838.2190, 19094.00
839.3550, 19093.23
840.4910, 19115.58
841.6270, 19135.00
842.7630, 19124.00
843.8990, 19157.00
845.0350, 19094.00
846.1700, 19213.00
847.3060, 19183.00
848.4410, 19243.00
849.5760, 19141.00
850.7100, 19154.00
851.8450, 19413.00
852.9800, 19262.00
854.1140, 19446.00
855.2480, 19341.00
856.3820, 19222.00
857.5160, 19513.00
858.6500, 19576.00
859.7830, 19409.00
860.9170, 19445.00
862.0500, 19678.00
863.1830, 19506.00
864.3160, 19523.00
865.4480, 19597.00
866.5810, 19565.00
867.7130, 19531.00
868.8460, 19567.00
869.9780, 19513.00
871.1100, 19589.00
872.2410, 19417.00
873.3730, 19694.00
874.5050, 19701.00
875.6360, 19631.00
876.7670, 19557.00
877.8980, 19745.00
879.0290, 19800.00
880.1590, 19508.00
881.2900, 19893.00
882.4200, 19764.00
883.5500, 19949.00
884.6800, 19827.00
885.8100, 19918.00
886.9400, 19966.00
888.0690, 19826.00
889.1990, 19823.00
890.3280, 19876.00
891.4570, 19786.00
892.5860, 19828.00
893.7140, 19905.00
894.8430, 19857.00
895.9710, 19922.30
897.1000, 19924.00
898.2280, 19993.00
899.3560, 19921.00
900.4830, 19974.00
901.6110, 20139.00
902.7380, 20244.00
903.8660, 20050.00
904.9930, 20190.00
906.1200, 20121.00
907.2460, 19924.00
908.3730, 20151.00
909.5000, 20005.00
910.6260, 20077.00
911.7520, 19985.00
912.8780, 20195.00
914.0040, 20078.00
915.1290, 20213.00
916.2550, 20096.00
917.3800, 20271.00
918.5050, 20327.00
919.6300, 20290.66
920.7550, 20143.00
921.8800, 20249.00
923.0040, 20229.00
924.1290, 20160.00
925.2530, 20314.00
926.3770, 20270.00
927.5010, 20360.00
928.6250, 20430.00
929.7480, 20314.00
930.8720, 20405.00
931.9950, 20376.00
933.1180, 20451.00
934.2410, 20381.00
935.3640, 20434.00
936.4860, 20330.00
937.6090, 20577.00
938.7310, 20531.00
939.8530, 20622.00
940.9750, 20730.00
942.0970, 20790.00
943.2180, 20814.18
944.3400, 20668.00
945.4610, 20738.00
946.5820, 20699.00
947.7030, 20488.00
948.8240, 20828.00
949.9450, 20720.00
951.0650, 20859.00
952.1860, 20694.00
953.3060, 20862.00
954.4260, 20900.00
955.5460, 20965.00
956.6650, 20906.00
957.7850, 20884.00
958.9040, 20952.00
960.0230, 20787.00
961.1420, 21095.00
962.2610, 20807.00
963.3800, 21081.00
964.4990, 21123.00
965.6170, 20875.00
966.7350, 20978.00
967.8530, 21054.00
968.9710, 21058.00
970.0890, 21079.00
971.2070, 21117.00
972.3240, 21062.00
973.4410, 21162.00
974.5580, 20985.00
975.6750, 21316.00
976.7920, 21126.00
977.9090, 21075.00
979.0250, 21212.00
980.1410, 21251.00
981.2580, 21301.00
982.3740, 21261.00
983.4890, 21379.00
984.6050, 21352.00
985.7200, 21330.00
986.8360, 21321.00
987.9510, 21617.00
989.0660, 21416.00
990.1810, 21277.00
991.2950, 21677.00
992.4100, 21530.00
993.5240, 21506.00
994.6390, 21575.00
995.7530, 21573.00
996.8660, 21744.00
997.9800, 21542.00
999.0940, 21655.00
1000.207, 21960.00
1001.320, 21925.00
1002.433, 22546.00
1003.546, 22321.72
1004.659, 22847.00
1005.772, 22128.00
1006.884, 22197.00
1007.996, 22210.00
1009.108, 22050.00
1010.220, 22617.00
1011.332, 22707.00
1012.444, 22788.00
1013.555, 23111.00
1014.666, 23311.00
1015.777, 23646.00
1016.888, 23652.00
1017.999, 23708.00
1019.110, 23594.00
1020.220, 23578.00
1021.331, 23346.00
1022.441, 23160.00
1023.551, 22951.00
1024.661, 22824.00
1025.770, 22666.43
1026.880, 22447.00
1027.989, 22477.00
1029.098, 22474.00
1030.207, 22534.00
1031.316, 22383.00
1032.425, 22330.00
1033.533, 22505.00
1034.642, 22454.00
1035.750, 22618.00
1036.858, 22779.00
1037.966, 22657.00
1039.073, 23052.00
1040.181, 23219.00
1041.288, 23320.00
1042.396, 23603.00
1043.503, 24015.00
1044.610, 24559.00
1045.716, 25370.00
1046.823, 26120.00
1047.929, 26907.21
1049.036, 27627.00
1050.142, 28082.00
1051.248, 28222.00
1052.353, 27622.00
1053.459, 27154.00
1054.564, 26190.00
1055.670, 25335.00
1056.775, 24619.00
1057.880, 24165.00
1058.985, 24578.00
1060.089, 24912.00
1061.194, 25589.00
1062.298, 24634.54
1063.402, 23279.00
1064.506, 22929.00
1065.610, 22987.00
1066.713, 22928.00
1067.817, 22831.00
1068.920, 23045.00
1070.023, 22882.00
1071.126, 22698.00
1072.229, 22829.00
1073.332, 22834.00
1074.435, 22696.00
1075.537, 23016.00
1076.639, 22779.00
1077.741, 22975.00
1078.843, 22903.00
1079.945, 22934.36
1081.046, 23180.00
1082.148, 23020.00
1083.249, 23044.00
1084.350, 23029.00
1085.451, 22893.00
1086.551, 22982.00
1087.652, 23089.00
1088.752, 23012.00
1089.853, 23178.00
1090.953, 22973.00
1092.053, 23194.00
1093.152, 23110.00
1094.252, 23189.00
1095.351, 23054.00
1096.451, 22907.00
1097.550, 23090.00
1098.649, 23024.00
1099.748, 23210.00
1100.846, 23197.00
1101.945, 23185.00
1103.043, 23257.00
1104.141, 23070.00
1105.239, 23258.00
1106.337, 23327.00
1107.434, 23277.00
1108.532, 23158.00
1109.629, 23358.00
1110.726, 23264.00
1111.823, 23370.00
1112.920, 23376.00
1114.017, 23349.00
1115.113, 23309.00
1116.210, 23369.75
1117.306, 23631.00
1118.402, 23505.00
1119.498, 23689.00
1120.593, 23817.00
1121.689, 23755.00
1122.784, 23875.31
1123.879, 23884.00
1124.974, 23948.00
1126.069, 23719.00
1127.164, 23759.00
1128.259, 23607.00
1129.353, 23680.00
1130.447, 23481.00
1131.541, 23477.00
1132.635, 23591.00
1133.729, 23737.00
1134.822, 23729.00
1135.916, 23839.00
1137.009, 23737.00
1138.102, 23584.00
1139.195, 23676.00
1140.288, 23693.00
1141.380, 23809.00
1142.473, 23846.00
1143.565, 23889.00
1144.657, 23905.00
1145.749, 23734.00
1146.841, 23806.00
1147.932, 23908.00
1149.024, 23770.00
1150.115, 23897.00
1151.206, 23894.00
1152.297, 23704.00
1153.388, 23994.00
1154.479, 24082.00
1155.569, 23996.00
1156.659, 23960.00
1157.750, 23907.00
1158.839, 23927.00
1159.929, 24163.00
1161.019, 24045.00
1162.108, 24131.00
1163.198, 24238.00
1164.287, 24178.00
1165.376, 24206.00
1166.465, 24057.00
1167.553, 24167.00
1168.642, 24088.00
1169.730, 24061.00
1170.818, 24251.00
1171.906, 24213.00
1172.994, 24402.00
1174.082, 24125.00
1175.170, 24399.00
1176.257, 24386.00
1177.344, 24231.00
1178.431, 24394.00
1179.518, 24288.03
1180.605, 24461.00
1181.691, 24255.00
1182.778, 24347.00
1183.864, 24396.00
1184.950, 24403.00
1186.036, 24554.00
1187.122, 24455.00
1188.207, 24404.00
1189.292, 24438.00
1190.378, 24558.00
1191.463, 24380.00
1192.548, 24805.00
1193.632, 24551.00
1194.717, 24451.00
1195.801, 24735.00
1196.886, 24802.00
1197.970, 24718.00
1199.054, 24529.00
1200.137, 24693.00
1201.221, 24660.00
1202.305, 24783.00
1203.388, 24832.00
1204.471, 24923.00
1205.554, 24776.00
1206.637, 24873.00
1207.719, 24856.00
1208.802, 24708.00
1209.884, 24793.00
1210.966, 24749.00
1212.048, 24799.00
1213.130, 24722.00
1214.212, 24962.00
1215.293, 24832.00
1216.374, 25022.00
1217.456, 25033.00
1218.536, 25075.00
1219.617, 25137.71
1220.698, 25123.12
1221.778, 25144.00
1222.859, 25113.00
1223.939, 25035.00
1225.019, 25018.00
1226.099, 24967.00
1227.178, 24996.00
1228.258, 25013.17
1229.337, 25057.53
1230.417, 25080.00
1231.496, 25175.00
1232.574, 25167.00
1233.653, 25177.00
1234.732, 25440.00
1235.810, 25264.00
1236.888, 25395.00
1237.966, 25227.00
1239.044, 25374.00
1240.122, 25406.00
1241.199, 25371.00
1242.277, 25411.00
1243.354, 25472.69
1244.431, 25480.00
1245.508, 25591.00
1246.585, 25509.00
1247.661, 25468.00
1248.738, 25676.00
1249.814, 25408.00
1250.890, 25397.00
1251.966, 25646.00
1253.042, 25285.00
1254.117, 25526.00
1255.193, 25641.00
1256.268, 25711.00
1257.343, 25658.00
1258.418, 25678.00
1259.493, 25783.00
1260.567, 25522.00
1261.642, 25824.00
1262.716, 25917.00
1263.790, 25830.00
1264.864, 25704.00
1265.938, 25984.00
1267.011, 25861.00
1268.085, 26244.00
1269.158, 25796.00
1270.231, 25981.00
1271.304, 26118.00
1272.377, 26098.00
1273.450, 26072.00
1274.522, 26016.00
1275.594, 25993.00
1276.666, 25930.00
1277.738, 26079.00
1278.810, 26118.00
1279.882, 26050.00
1280.953, 26027.00
1282.025, 26112.00
1283.096, 26137.00
1284.167, 26246.00
1285.238, 26237.00
1286.308, 26234.00
1287.379, 26156.00
1288.449, 26085.00
1289.519, 26197.00
1290.589, 26388.00
1291.659, 26031.00
1292.729, 26216.00
1293.798, 26417.00
1294.868, 26275.00
1295.937, 26416.00
1297.006, 26248.00
1298.075, 26438.00
1299.143, 26448.00
1300.212, 26525.00
1301.280, 26459.00
1302.348, 26443.00
1303.416, 26363.00
1304.484, 26600.00
1305.552, 26828.00
1306.620, 26721.00
1307.687, 26556.00
1308.754, 26455.00
1309.821, 26443.67
1310.888, 26654.00
1311.955, 26501.00
1313.021, 26585.00
1314.088, 26689.00
1315.154, 26646.00
1316.220, 26707.00
1317.286, 26698.00
1318.352, 26883.00
1319.417, 26904.00
1320.483, 26872.00
1321.548, 26837.00
1322.613, 26854.00
1323.678, 26833.00
1324.743, 26872.00
1325.807, 26872.00
1326.872, 26950.00
1327.936, 26867.00
1329.000, 26963.00
1330.064, 26944.00
1331.128, 26859.00
1332.191, 26867.00
1333.255, 26807.00
1334.318, 26818.00
1335.381, 26851.00
1336.444, 26919.00
1337.507, 26978.00
1338.569, 27069.00
1339.632, 26923.00
1340.694, 26896.00
1341.756, 26844.00
1342.818, 26896.00
1343.880, 27009.00
1344.941, 26995.00
1346.003, 27222.00
1347.064, 27269.00
1348.125, 27082.00
1349.186, 27275.00
1350.247, 27177.00
1351.308, 27241.00
1352.368, 27207.00
1353.428, 27035.00
1354.489, 27310.00
1355.549, 27303.00
1356.608, 27164.00
1357.668, 27194.00
1358.727, 27164.00
1359.787, 27191.00
1360.846, 27156.00
1361.905, 27168.00
1362.964, 27368.00
1364.022, 27253.00
1365.081, 27376.00
1366.139, 27478.00
1367.197, 27384.00
1368.255, 27307.00
1369.313, 27403.00
1370.371, 27472.00
1371.428, 27456.00
1372.486, 27522.00
1373.543, 27586.00
1374.600, 27429.00
1375.657, 27467.00
1376.713, 27462.00
1377.770, 27508.00
1378.826, 27608.00
1379.882, 27686.00
1380.938, 27609.00
1381.994, 27747.00
1383.050, 27610.00
1384.106, 27751.00
1385.161, 27786.00
1386.216, 27792.00
1387.271, 27733.00
1388.326, 27672.00
1389.381, 27731.00
1390.435, 27878.00
1391.490, 27594.00
1392.544, 27961.00
1393.598, 27866.00
1394.652, 27905.00
1395.705, 27628.00
1396.759, 27931.00
1397.812, 27754.00
1398.866, 27921.00
1399.919, 27873.00
1400.972, 28022.00
1402.024, 27916.00
1403.077, 27870.00
1404.129, 27885.00
1405.181, 27765.00
1406.233, 27855.00
1407.285, 28135.00
1408.337, 27908.00
1409.389, 28077.00
1410.440, 27975.00
1411.491, 28061.00
1412.542, 28278.00
1413.593, 27948.00
1414.644, 28273.00
1415.695, 28219.00
1416.745, 28017.00
1417.795, 28171.00
1418.845, 28085.28
1419.895, 28122.00
1420.945, 28140.00
1421.995, 28096.00
1423.044, 28187.00
1424.093, 28057.00
1425.142, 28060.00
1426.191, 28337.00
1427.240, 28189.00
1428.289, 28608.00
1429.337, 28472.00
1430.385, 28339.00
1431.433, 28235.00
1432.481, 28327.00
1433.529, 28570.00
1434.577, 28704.00
1435.624, 28541.00
1436.672, 28326.00
1437.719, 28539.00
1438.766, 28756.00
1439.812, 28655.00
1440.859, 28663.00
1441.905, 28627.00
1442.952, 28877.00
1443.998, 29027.00
1445.044, 29027.00
1446.090, 29104.75
1447.135, 29008.00
1448.181, 29032.00
1449.226, 29066.00
1450.271, 28965.00
1451.316, 28936.00
1452.361, 28919.00
1453.405, 29052.00
1454.450, 28825.00
1455.494, 28952.00
1456.538, 29150.00
1457.582, 29299.00
1458.626, 29055.00
1459.670, 29254.00
1460.713, 29073.00
1461.757, 28885.00
1462.800, 29082.00
1463.843, 29120.00
1464.886, 29109.00
1465.928, 29303.00
1466.971, 29010.00
1468.013, 29130.00
1469.055, 29007.00
1470.097, 29232.00
1471.139, 29161.00
1472.181, 29070.00
1473.222, 29296.00
1474.263, 29132.00
1475.305, 29157.00
1476.346, 29280.00
1477.386, 29015.00
1478.427, 29138.00
1479.468, 29343.00
1480.508, 29312.00
1481.548, 29252.00
1482.588, 29213.00
1483.628, 29166.00
1484.668, 29314.00
1485.707, 29435.00
1486.747, 29409.00
1487.786, 29411.00
1488.825, 29365.00
1489.864, 29288.00
1490.902, 29367.00
1491.941, 29344.05
1492.979, 29230.00
1494.017, 29386.00
1495.055, 29349.00
1496.093, 29320.00
1497.131, 29483.00
1498.168, 29394.24
1499.206, 29304.00
1500.243, 29359.00
1501.280, 29435.00
1502.317, 29447.00
1503.354, 29552.00
1504.390, 29669.00
1505.426, 29439.00
1506.463, 29343.00
1507.499, 29587.00
1508.535, 29735.00
1509.570, 29719.00
1510.606, 29814.95
1511.641, 29539.00
1512.676, 29803.00
1513.711, 29555.00
1514.746, 29517.00
1515.781, 29572.00
1516.816, 29429.00
1517.850, 29655.00
1518.884, 29568.00
1519.918, 29779.00
1520.952, 29690.00
1521.986, 29672.00
1523.019, 29584.00
1524.053, 29595.87
1525.086, 29602.68
1526.119, 29608.00
1527.152, 29745.00
1528.185, 29730.00
1529.217, 29963.00
1530.250, 29834.00
1531.282, 29910.00
1532.314, 29846.00
1533.346, 29797.00
1534.377, 29991.00
1535.409, 30012.00
1536.440, 29887.00
1537.472, 29863.00
1538.503, 30101.00
1539.534, 29786.00
1540.564, 30009.00
1541.595, 30130.00
1542.625, 29893.00
1543.656, 30183.00
1544.686, 30326.00
1545.716, 30067.00
1546.745, 29995.00
1547.775, 29971.00
1548.804, 29955.01
1549.834, 30164.00
1550.863, 30109.00
1551.892, 30313.00
1552.920, 30426.00
1553.949, 30217.00
1554.977, 30391.00
1556.006, 30120.00
1557.034, 30568.00
1558.062, 30163.00
1559.089, 30279.00
1560.117, 30297.00
1561.144, 30425.00
1562.172, 30274.00
1563.199, 30204.00
1564.226, 30568.00
1565.252, 30271.00
1566.279, 30403.00
1567.305, 30199.00
1568.332, 30498.00
1569.358, 30485.00
1570.384, 30551.00
1571.409, 30549.00
##END=



