##NAMES=Tilleyite
##RRUFFID=R050227
##IDEAL CHEMISTRY=Ca_5_Si_2_O_7_(CO_3_)_2_
##LOCALITY=Crestmore Quarry, Riverside County, California, USA
##OWNER=RRUFF
##SOURCE=Marcus Origlieri
##DESCRIPTION=Aggregate of colorless subhedral crystals
##STATUS=The identification of this mineral has been confirmed by X-ray diffraction.
##URL=rruff.info/R050227
##PIN_ID=L00225
##ORIENTATION=Laser parallel to c* (0 0 1). Fiducial mark perpendicular to laser is parallel to a [1 0 0]
79.89500, 4030.000
81.13100, 4031.000
82.36700, 4403.000
83.60200, 4732.000
84.83700, 5081.000
86.07200, 5370.000
87.30800, 5766.000
88.54200, 6212.000
89.77700, 6762.000
91.01200, 7328.000
92.24600, 7732.000
93.48000, 7949.000
94.71400, 8040.000
95.94800, 8083.000
97.18200, 7986.000
98.41600, 7961.000
99.64900, 8009.000
100.8830, 8059.000
102.1160, 8118.000
103.3490, 8411.000
104.5820, 8905.000
105.8150, 9405.000
107.0470, 10082.00
108.2800, 10648.00
109.5120, 10548.00
110.7440, 10027.00
111.9760, 10280.00
113.2080, 10449.00
114.4400, 10658.00
115.6710, 11076.00
116.9030, 11322.00
118.1340, 11788.00
119.3650, 11980.00
120.5960, 11703.00
121.8270, 11166.00
123.0580, 10758.00
124.2880, 10236.00
125.5190, 9669.000
126.7490, 9219.000
127.9790, 8908.000
129.2090, 8751.000
130.4390, 8627.000
131.6680, 8665.000
132.8980, 8748.000
134.1270, 8868.000
135.3560, 9335.000
136.5850, 9692.000
137.8140, 10186.00
139.0430, 10527.00
140.2710, 11007.00
141.5000, 11116.00
142.7280, 11254.00
143.9560, 11464.00
145.1840, 11498.00
146.4120, 11573.00
147.6390, 11663.00
148.8670, 11759.03
150.0940, 11941.00
151.3210, 12039.00
152.5490, 12352.00
153.7750, 12603.00
155.0020, 12811.00
156.2290, 12715.00
157.4550, 12555.00
158.6810, 11909.00
159.9080, 11068.00
161.1340, 10524.00
162.3590, 9694.000
163.5850, 9009.000
164.8110, 8526.000
166.0360, 7987.000
167.2610, 7672.000
168.4860, 7633.000
169.7110, 7568.000
170.9360, 7508.000
172.1610, 7605.721
173.3850, 7704.000
174.6100, 7887.000
175.8340, 8112.000
177.0580, 8387.000
178.2820, 8433.000
179.5050, 8585.000
180.7290, 8544.000
181.9520, 8428.000
183.1760, 8361.000
184.3990, 8239.000
185.6220, 8294.000
186.8450, 8156.000
188.0670, 8211.000
189.2900, 8389.000
190.5120, 8697.000
191.7340, 8765.000
192.9560, 8805.000
194.1780, 9132.000
195.4000, 9151.000
196.6220, 9070.000
197.8430, 8792.000
199.0640, 8862.000
200.2860, 8637.000
201.5070, 8417.000
202.7270, 8262.000
203.9480, 7853.000
205.1690, 7470.000
206.3890, 7325.000
207.6090, 7134.000
208.8290, 6926.000
210.0490, 6800.000
211.2690, 6787.000
212.4890, 6885.000
213.7080, 6788.000
214.9280, 6780.000
216.1470, 6852.000
217.3660, 6883.000
218.5850, 6916.000
219.8030, 6967.000
221.0220, 7030.000
222.2400, 7288.000
223.4590, 7325.000
224.6770, 7465.000
225.8950, 7641.000
227.1120, 7651.000
228.3300, 7877.000
229.5480, 7980.000
230.7650, 7994.000
231.9820, 8034.000
233.1990, 8202.000
234.4160, 8239.000
235.6330, 8404.000
236.8490, 8274.000
238.0660, 8377.000
239.2820, 8414.000
240.4980, 8320.000
241.7140, 8311.000
242.9300, 8253.000
244.1460, 8224.000
245.3610, 8233.000
246.5770, 8272.000
247.7920, 8319.000
249.0070, 8403.000
250.2220, 8357.000
251.4370, 8619.000
252.6510, 8696.000
253.8660, 8708.000
255.0800, 8970.000
256.2940, 9016.000
257.5080, 9241.000
258.7220, 9495.000
259.9360, 9571.000
261.1490, 9463.000
262.3630, 9524.000
263.5760, 9706.000
264.7890, 9750.000
266.0020, 9832.000
267.2150, 10091.00
268.4270, 10506.00
269.6400, 10800.00
270.8520, 11326.00
272.0640, 11579.00
273.2760, 12180.00
274.4880, 12591.00
275.7000, 13077.00
276.9120, 13368.00
278.1230, 13812.00
279.3340, 13900.00
280.5450, 13930.00
281.7560, 14080.00
282.9670, 13952.00
284.1780, 13865.00
285.3880, 13658.00
286.5980, 13527.00
287.8090, 13337.00
289.0190, 13020.00
290.2290, 13016.00
291.4380, 12777.00
292.6480, 12692.00
293.8570, 12688.00
295.0670, 12837.00
296.2760, 12820.00
297.4850, 13054.00
298.6930, 13031.00
299.9020, 13294.00
301.1110, 13049.00
302.3190, 12791.00
303.5270, 12441.00
304.7350, 12089.00
305.9430, 11583.00
307.1510, 11271.00
308.3580, 10897.00
309.5660, 10542.00
310.7730, 10529.00
311.9800, 10370.00
313.1870, 10269.00
314.3940, 10180.00
315.6010, 10068.00
316.8070, 9969.000
318.0130, 9834.000
319.2200, 9685.000
320.4260, 9567.000
321.6310, 9390.000
322.8370, 9185.000
324.0430, 9144.000
325.2480, 8912.000
326.4540, 8680.000
327.6590, 8633.000
328.8640, 8410.000
330.0680, 8178.000
331.2730, 8326.000
332.4780, 8215.000
333.6820, 8227.000
334.8860, 8207.000
336.0900, 8285.000
337.2940, 8290.000
338.4980, 8429.000
339.7010, 8352.000
340.9050, 8577.000
342.1080, 8596.000
343.3110, 8679.000
344.5140, 8835.000
345.7170, 9064.000
346.9200, 9360.000
348.1220, 9487.581
349.3240, 9831.000
350.5270, 9801.000
351.7290, 10012.00
352.9310, 10142.00
354.1320, 10095.00
355.3340, 10229.00
356.5350, 10201.00
357.7370, 10036.00
358.9380, 9895.000
360.1390, 10006.00
361.3400, 9883.000
362.5400, 9733.000
363.7410, 9603.000
364.9410, 9613.000
366.1410, 9643.000
367.3410, 9415.000
368.5410, 9432.000
369.7410, 9039.000
370.9400, 9121.000
372.1400, 8857.000
373.3390, 8556.000
374.5380, 8332.000
375.7370, 8194.000
376.9360, 8107.000
378.1350, 7808.000
379.3330, 7907.000
380.5310, 7646.000
381.7300, 7655.000
382.9280, 7634.000
384.1260, 7609.000
385.3230, 7663.000
386.5210, 7713.000
387.7180, 7799.000
388.9160, 7880.000
390.1130, 7972.000
391.3100, 8071.000
392.5060, 8167.000
393.7030, 8184.000
394.9000, 8268.000
396.0960, 8214.000
397.2920, 8168.000
398.4880, 8199.000
399.6840, 8032.000
400.8800, 8016.000
402.0750, 7801.000
403.2710, 7767.000
404.4660, 7853.000
405.6610, 7796.000
406.8560, 7683.000
408.0510, 7672.000
409.2450, 7621.000
410.4400, 7514.000
411.6340, 7608.000
412.8280, 7534.000
414.0220, 7707.000
415.2160, 7525.000
416.4100, 7699.000
417.6030, 7682.000
418.7970, 7828.000
419.9900, 7749.000
421.1830, 7784.000
422.3760, 7847.000
423.5690, 7754.000
424.7610, 7728.000
425.9540, 7826.000
427.1460, 7673.000
428.3380, 7630.000
429.5300, 7554.000
430.7220, 7478.000
431.9140, 7440.000
433.1050, 7436.000
434.2970, 7416.000
435.4880, 7380.000
436.6790, 7294.000
437.8700, 7289.000
439.0610, 7253.000
440.2510, 7254.000
441.4420, 7262.000
442.6320, 7261.000
443.8220, 7261.000
445.0120, 7266.912
446.2020, 7245.000
447.3910, 7257.000
448.5810, 7273.000
449.7700, 7230.000
450.9600, 7301.000
452.1490, 7220.000
453.3370, 7265.000
454.5260, 7222.000
455.7150, 7254.000
456.9030, 7251.000
458.0910, 7246.000
459.2800, 7255.000
460.4670, 7260.000
461.6550, 7249.381
462.8430, 7257.432
464.0300, 7226.000
465.2180, 7279.000
466.4050, 7265.000
467.5920, 7315.000
468.7790, 7246.000
469.9650, 7369.000
471.1520, 7381.000
472.3380, 7334.000
473.5250, 7511.000
474.7110, 7512.000
475.8970, 7652.000
477.0820, 7498.000
478.2680, 7474.000
479.4540, 7605.000
480.6390, 7598.000
481.8240, 7712.000
483.0090, 7664.000
484.1940, 7706.000
485.3780, 7654.000
486.5630, 7522.000
487.7470, 7616.000
488.9320, 7543.000
490.1160, 7595.000
491.3000, 7513.000
492.4830, 7611.000
493.6670, 7546.000
494.8500, 7579.000
496.0340, 7629.000
497.2170, 7678.000
498.4000, 7739.000
499.5820, 7671.000
500.7650, 7701.000
501.9480, 7823.000
503.1300, 7760.000
504.3120, 7815.000
505.4940, 7923.000
506.6760, 7841.000
507.8580, 7844.000
509.0390, 7833.000
510.2210, 7775.000
511.4020, 7788.000
512.5830, 7787.000
513.7640, 7900.000
514.9450, 7833.000
516.1250, 7844.000
517.3060, 8031.000
518.4860, 8091.000
519.6660, 8203.000
520.8460, 8292.000
522.0260, 8373.918
523.2060, 8456.426
524.3850, 8531.000
525.5650, 8611.000
526.7440, 8653.000
527.9230, 8753.000
529.1020, 8646.000
530.2810, 8555.000
531.4590, 8573.000
532.6380, 8479.000
533.8160, 8385.000
534.9940, 8439.000
536.1720, 8554.000
537.3500, 8472.000
538.5270, 8751.000
539.7050, 8734.000
540.8820, 8894.000
542.0590, 9049.000
543.2360, 9209.000
544.4130, 9092.000
545.5900, 9227.000
546.7660, 9097.000
547.9430, 9131.000
549.1190, 9039.000
550.2950, 8950.000
551.4710, 8785.000
552.6470, 8624.000
553.8220, 8648.000
554.9980, 8501.771
556.1730, 8377.000
557.3480, 8367.000
558.5230, 8229.000
559.6980, 8187.000
560.8730, 8118.000
562.0470, 8100.000
563.2220, 8063.000
564.3960, 8257.000
565.5700, 8121.170
566.7440, 8072.084
567.9170, 8006.000
569.0910, 7900.000
570.2640, 7889.000
571.4380, 7979.000
572.6110, 7950.000
573.7840, 7894.000
574.9570, 8046.000
576.1290, 7936.000
577.3020, 8141.000
578.4740, 7859.000
579.6460, 7961.000
580.8180, 7953.000
581.9900, 7960.000
583.1620, 7941.000
584.3330, 7941.975
585.5040, 8030.000
586.6760, 7947.000
587.8470, 7957.000
589.0180, 7990.356
590.1880, 8099.000
591.3590, 8035.000
592.5290, 8031.000
593.7000, 8110.000
594.8700, 8071.000
596.0400, 8144.000
597.2090, 8158.000
598.3790, 8069.000
599.5490, 8120.000
600.7180, 8085.000
601.8870, 8197.000
603.0560, 8144.000
604.2250, 8099.000
605.3940, 8259.000
606.5620, 8208.000
607.7300, 8188.000
608.8990, 8215.000
610.0670, 8204.830
611.2350, 8242.000
612.4020, 8293.000
613.5700, 8272.000
614.7370, 8421.000
615.9050, 8341.000
617.0720, 8395.000
618.2390, 8481.000
619.4060, 8473.000
620.5720, 8543.182
621.7390, 8430.000
622.9050, 8629.000
624.0710, 8638.000
625.2370, 8673.000
626.4030, 8824.000
627.5690, 8860.000
628.7340, 8907.000
629.9000, 9004.000
631.0650, 9187.000
632.2300, 9497.000
633.3950, 9659.000
634.5600, 10135.00
635.7240, 10633.00
636.8890, 11287.00
638.0530, 11922.00
639.2170, 12889.00
640.3810, 13751.00
641.5450, 14740.00
642.7080, 15634.00
643.8720, 16409.00
645.0350, 17066.00
646.1980, 16906.00
647.3610, 16619.00
648.5240, 15796.00
649.6870, 15038.00
650.8490, 14050.00
652.0120, 12932.00
653.1740, 12214.00
654.3360, 11461.00
655.4980, 11223.00
656.6600, 10681.00
657.8210, 10391.00
658.9830, 10384.00
660.1440, 10154.00
661.3050, 10029.00
662.4660, 9985.000
663.6270, 9959.000
664.7870, 9760.000
665.9480, 9873.000
667.1080, 9917.000
668.2680, 9669.000
669.4280, 9763.000
670.5880, 9585.000
671.7480, 9539.000
672.9070, 9411.000
674.0670, 9395.000
675.2260, 9373.000
676.3850, 9376.000
677.5440, 9242.000
678.7030, 9366.000
679.8610, 9292.000
681.0200, 9252.000
682.1780, 9080.000
683.3360, 9220.000
684.4940, 9249.000
685.6520, 9266.000
686.8090, 9334.000
687.9670, 9486.000
689.1240, 9614.000
690.2810, 9791.000
691.4380, 9875.000
692.5950, 10313.00
693.7520, 10599.00
694.9080, 10864.00
696.0650, 10991.00
697.2210, 11040.00
698.3770, 11014.00
699.5330, 10910.00
700.6880, 10887.00
701.8440, 10465.00
702.9990, 10410.00
704.1550, 10190.00
705.3100, 10252.00
706.4650, 10194.00
707.6190, 10215.00
708.7740, 10519.00
709.9290, 10900.00
711.0830, 11018.00
712.2370, 11370.00
713.3910, 11861.00
714.5450, 12123.00
715.6980, 11817.00
716.8520, 11784.00
718.0050, 11551.00
719.1580, 11356.00
720.3110, 11039.00
721.4640, 10593.00
722.6170, 10293.00
723.7700, 10038.00
724.9220, 9712.000
726.0740, 9643.000
727.2260, 9467.000
728.3780, 10211.00
729.5300, 9905.000
730.6810, 9952.000
731.8330, 9308.000
732.9840, 9214.000
734.1350, 9284.000
735.2860, 9077.000
736.4370, 9132.000
737.5880, 9219.000
738.7380, 9099.000
739.8880, 9175.000
741.0390, 9229.000
742.1890, 9045.000
743.3380, 9202.000
744.4880, 9130.000
745.6380, 9158.000
746.7870, 9221.000
747.9360, 9307.000
749.0850, 9285.000
750.2340, 9314.000
751.3830, 9210.000
752.5310, 9322.000
753.6800, 9245.000
754.8280, 9234.000
755.9760, 9347.000
757.1240, 9310.000
758.2720, 9367.000
759.4190, 9343.000
760.5670, 9385.000
761.7140, 9359.215
762.8610, 9480.000
764.0080, 9356.000
765.1550, 9352.000
766.3020, 9468.000
767.4480, 9471.000
768.5950, 9385.000
769.7410, 9499.000
770.8870, 9439.000
772.0330, 9412.000
773.1780, 9439.000
774.3240, 9500.000
775.4690, 9519.000
776.6140, 9364.000
777.7590, 9517.000
778.9040, 9548.000
780.0490, 9480.000
781.1940, 9608.000
782.3380, 9531.000
783.4820, 9562.000
784.6260, 9542.000
785.7700, 9576.000
786.9140, 9587.000
788.0580, 9651.000
789.2010, 9574.000
790.3450, 9486.000
791.4880, 9662.000
792.6310, 9620.000
793.7730, 9506.000
794.9160, 9629.000
796.0590, 9603.000
797.2010, 9676.000
798.3430, 9551.000
799.4850, 9730.000
800.6270, 9680.000
801.7690, 9797.000
802.9100, 9780.000
804.0520, 9724.000
805.1930, 9778.000
806.3340, 9783.000
807.4750, 9778.000
808.6160, 9764.000
809.7560, 9843.000
810.8970, 9751.000
812.0370, 9909.000
813.1770, 9876.000
814.3170, 9922.000
815.4570, 9927.000
816.5960, 9944.000
817.7360, 9874.000
818.8750, 9978.000
820.0140, 9931.000
821.1530, 10079.00
822.2920, 10040.00
823.4310, 10006.00
824.5690, 10085.00
825.7070, 10202.00
826.8460, 10325.00
827.9840, 10394.00
829.1220, 10527.99
830.2590, 10535.00
831.3970, 10771.00
832.5340, 10923.00
833.6710, 11065.00
834.8080, 11049.00
835.9450, 11415.00
837.0820, 11418.00
838.2190, 11381.00
839.3550, 11148.00
840.4910, 11043.00
841.6270, 10856.00
842.7630, 10827.00
843.8990, 10764.00
845.0350, 10628.00
846.1700, 10600.12
847.3060, 10541.51
848.4410, 10493.00
849.5760, 10483.00
850.7100, 10469.00
851.8450, 10458.00
852.9800, 10485.00
854.1140, 10456.00
855.2480, 10487.81
856.3820, 10527.00
857.5160, 10535.00
858.6500, 10544.00
859.7830, 10563.00
860.9170, 10479.00
862.0500, 10754.00
863.1830, 10692.00
864.3160, 10824.00
865.4480, 11003.00
866.5810, 11145.00
867.7130, 11160.00
868.8460, 11001.00
869.9780, 11017.00
871.1100, 10830.00
872.2410, 10795.00
873.3730, 10801.00
874.5050, 10842.00
875.6360, 10832.10
876.7670, 10858.00
877.8980, 10869.00
879.0290, 10883.54
880.1590, 10918.00
881.2900, 10975.00
882.4200, 11105.00
883.5500, 11215.00
884.6800, 11250.00
885.8100, 11373.00
886.9400, 11455.00
888.0690, 11759.00
889.1990, 11925.00
890.3280, 12116.00
891.4570, 12409.00
892.5860, 12946.00
893.7140, 13331.00
894.8430, 14056.00
895.9710, 14823.00
897.1000, 16510.00
898.2280, 18302.00
899.3560, 21192.00
900.4830, 24848.00
901.6110, 29251.00
902.7380, 33773.00
903.8660, 38029.00
904.9930, 42186.00
906.1200, 43066.00
907.2460, 41178.00
908.3730, 37166.00
909.5000, 32069.00
910.6260, 27097.00
911.7520, 22749.00
912.8780, 19206.00
914.0040, 16630.00
915.1290, 15113.00
916.2550, 14071.00
917.3800, 13533.00
918.5050, 12875.00
919.6300, 12894.00
920.7550, 12667.00
921.8800, 12538.00
923.0040, 12625.00
924.1290, 12536.00
925.2530, 12757.00
926.3770, 12851.00
927.5010, 12577.00
928.6250, 12727.00
929.7480, 12548.00
930.8720, 12541.00
931.9950, 12533.00
933.1180, 12455.00
934.2410, 12252.00
935.3640, 12242.00
936.4860, 12141.00
937.6090, 12150.00
938.7310, 12006.00
939.8530, 12065.00
940.9750, 11999.00
942.0970, 12092.00
943.2180, 12089.00
944.3400, 12068.00
945.4610, 12331.00
946.5820, 12455.00
947.7030, 12860.00
948.8240, 13012.00
949.9450, 12931.00
951.0650, 13010.00
952.1860, 13046.00
953.3060, 12770.00
954.4260, 12646.00
955.5460, 12566.00
956.6650, 12314.00
957.7850, 12172.00
958.9040, 12063.00
960.0230, 12083.00
961.1420, 12034.00
962.2610, 11935.00
963.3800, 11942.00
964.4990, 11927.00
965.6170, 11950.00
966.7350, 12000.29
967.8530, 12009.00
968.9710, 12142.00
970.0890, 12152.00
971.2070, 12242.00
972.3240, 12172.00
973.4410, 12373.00
974.5580, 12406.00
975.6750, 12492.00
976.7920, 12728.00
977.9090, 12873.00
979.0250, 12881.00
980.1410, 12997.00
981.2580, 12930.00
982.3740, 13043.00
983.4890, 13054.00
984.6050, 12849.00
985.7200, 12814.00
986.8360, 12655.00
987.9510, 12616.23
989.0660, 12759.00
990.1810, 12586.00
991.2950, 12699.00
992.4100, 12753.00
993.5240, 12594.00
994.6390, 12798.00
995.7530, 12745.00
996.8660, 12820.00
997.9800, 12920.00
999.0940, 13161.00
1000.207, 13119.00
1001.320, 13413.00
1002.433, 13727.00
1003.546, 13921.00
1004.659, 14438.00
1005.772, 14557.00
1006.884, 14939.00
1007.996, 15554.00
1009.108, 16001.00
1010.220, 16405.00
1011.332, 16569.00
1012.444, 16204.00
1013.555, 16039.00
1014.666, 15427.00
1015.777, 14857.00
1016.888, 14318.00
1017.999, 13984.00
1019.110, 13530.00
1020.220, 13511.00
1021.331, 13406.00
1022.441, 13221.00
1023.551, 13090.00
1024.661, 13214.00
1025.770, 13032.00
1026.880, 13235.00
1027.989, 13231.00
1029.098, 13215.00
1030.207, 13348.00
1031.316, 13435.00
1032.425, 13416.00
1033.533, 13427.00
1034.642, 13240.00
1035.750, 13198.00
1036.858, 13100.00
1037.966, 13014.37
1039.073, 12970.93
1040.181, 12891.00
1041.288, 12919.00
1042.396, 12873.00
1043.503, 12953.00
1044.610, 12972.00
1045.716, 13004.00
1046.823, 13034.00
1047.929, 13121.00
1049.036, 13015.00
1050.142, 12977.00
1051.248, 13053.00
1052.353, 13058.00
1053.459, 13191.00
1054.564, 13108.00
1055.670, 13114.00
1056.775, 13309.00
1057.880, 13316.00
1058.985, 13362.00
1060.089, 13451.00
1061.194, 13481.56
1062.298, 13602.00
1063.402, 13605.00
1064.506, 13728.00
1065.610, 13813.24
1066.713, 14040.00
1067.817, 14120.00
1068.920, 14454.00
1070.023, 14723.00
1071.126, 15127.00
1072.229, 16325.00
1073.332, 18310.00
1074.435, 22060.00
1075.537, 28515.00
1076.639, 35072.00
1077.741, 44531.00
1078.843, 53996.00
1079.945, 54421.00
1081.046, 49479.00
1082.148, 44686.00
1083.249, 40767.00
1084.350, 37959.00
1085.451, 35923.00
1086.551, 35373.00
1087.652, 36702.00
1088.752, 40439.00
1089.853, 44681.00
1090.953, 52743.00
1092.053, 61529.00
1093.152, 60088.00
1094.252, 50470.00
1095.351, 40577.00
1096.451, 32018.00
1097.550, 24692.00
1098.649, 19283.00
1099.748, 16650.00
1100.846, 15423.00
1101.945, 14778.00
1103.043, 14458.00
1104.141, 14274.00
1105.239, 13988.00
1106.337, 14011.00
1107.434, 13856.00
1108.532, 13579.00
1109.629, 13919.00
1110.726, 13760.00
1111.823, 13772.00
1112.920, 13613.00
1114.017, 13686.00
1115.113, 13586.00
1116.210, 13686.00
1117.306, 13810.00
1118.402, 13508.00
1119.498, 13657.00
1120.593, 13718.00
1121.689, 13719.00
1122.784, 13752.00
1123.879, 13706.00
1124.974, 13737.00
1126.069, 13618.00
1127.164, 13632.00
1128.259, 13729.00
1129.353, 13671.00
1130.447, 13756.00
1131.541, 13598.00
1132.635, 13509.00
1133.729, 13757.00
1134.822, 13682.00
1135.916, 13700.00
1137.009, 13707.00
1138.102, 13611.00
1139.195, 13658.00
1140.288, 13708.00
1141.380, 13814.00
1142.473, 13810.00
1143.565, 13770.00
1144.657, 13792.00
1145.749, 13737.00
1146.841, 13671.00
1147.932, 13738.42
1149.024, 13762.00
1150.115, 13842.00
1151.206, 13814.00
1152.297, 13853.00
1153.388, 13921.00
1154.479, 13825.00
1155.569, 13853.00
1156.659, 13875.00
1157.750, 13872.00
1158.839, 13958.00
1159.929, 13962.00
1161.019, 14049.00
1162.108, 14050.76
1163.198, 13978.00
1164.287, 14027.00
1165.376, 14015.00
1166.465, 13930.00
1167.553, 14165.00
1168.642, 14116.00
1169.730, 13998.00
1170.818, 14185.00
1171.906, 14215.00
1172.994, 14134.00
1174.082, 14225.00
1175.170, 14155.00
1176.257, 14252.00
1177.344, 14231.00
1178.431, 14166.00
1179.518, 14311.00
1180.605, 14281.00
1181.691, 14147.00
1182.778, 14271.00
1183.864, 14203.58
1184.950, 14361.00
1186.036, 14225.00
1187.122, 14360.00
1188.207, 14420.00
1189.292, 14316.00
1190.378, 14427.00
1191.463, 14496.00
1192.548, 14448.00
1193.632, 14437.00
1194.717, 14419.00
1195.801, 14534.00
1196.886, 14603.00
1197.970, 14669.00
1199.054, 14554.00
1200.137, 14635.00
1201.221, 14672.00
1202.305, 14773.00
1203.388, 14697.00
1204.471, 14731.00
1205.554, 14700.00
1206.637, 14612.00
1207.719, 14726.00
1208.802, 14680.00
1209.884, 14664.00
1210.966, 14718.00
1212.048, 14703.00
1213.130, 14730.00
1214.212, 14682.00
1215.293, 14827.00
1216.374, 14740.00
1217.456, 14952.00
1218.536, 14905.00
1219.617, 14842.00
1220.698, 14827.00
1221.778, 14868.00
1222.859, 14901.00
1223.939, 14866.00
1225.019, 14913.00
1226.099, 14911.00
1227.178, 14952.00
1228.258, 15011.00
1229.337, 14880.00
1230.417, 15021.00
1231.496, 15032.00
1232.574, 15168.00
1233.653, 14939.00
1234.732, 15036.00
1235.810, 15226.00
1236.888, 15072.00
1237.966, 15156.00
1239.044, 15169.00
1240.122, 15193.00
1241.199, 15164.00
1242.277, 15352.00
1243.354, 15232.00
1244.431, 15335.00
1245.508, 15352.00
1246.585, 15343.37
1247.661, 15262.00
1248.738, 15380.00
1249.814, 15482.00
1250.890, 15501.09
1251.966, 15371.00
1253.042, 15426.00
1254.117, 15398.00
1255.193, 15225.00
1256.268, 15327.00
1257.343, 15395.00
1258.418, 15423.00
1259.493, 15574.00
1260.567, 15443.00
1261.642, 15662.00
1262.716, 15591.00
1263.790, 15633.00
1264.864, 15705.00
1265.938, 15715.00
1267.011, 15615.00
1268.085, 15896.00
1269.158, 15657.00
1270.231, 15785.00
1271.304, 15892.00
1272.377, 15724.00
1273.450, 15904.00
1274.522, 15858.00
1275.594, 15911.00
1276.666, 15808.00
1277.738, 15969.00
1278.810, 15985.00
1279.882, 16003.00
1280.953, 15898.00
1282.025, 15902.00
1283.096, 16010.00
1284.167, 15904.00
1285.238, 16119.00
1286.308, 16015.00
1287.379, 15969.00
1288.449, 16073.00
1289.519, 16085.00
1290.589, 16084.00
1291.659, 16124.00
1292.729, 16211.00
1293.798, 16216.00
1294.868, 16227.00
1295.937, 16220.00
1297.006, 16262.40
1298.075, 16283.00
1299.143, 16309.00
1300.212, 16310.00
1301.280, 16305.13
1302.348, 16349.00
1303.416, 16266.00
1304.484, 16272.00
1305.552, 16240.00
1306.620, 16486.00
1307.687, 16315.00
1308.754, 16527.00
1309.821, 16434.00
1310.888, 16411.00
1311.955, 16575.00
1313.021, 16483.00
1314.088, 16468.00
1315.154, 16617.00
1316.220, 16504.00
1317.286, 16502.00
1318.352, 16570.00
1319.417, 16710.00
1320.483, 16591.00
1321.548, 16702.00
1322.613, 16527.00
1323.678, 16602.00
1324.743, 16756.00
1325.807, 16744.00
1326.872, 16786.00
1327.936, 16821.00
1329.000, 16858.00
1330.064, 16900.00
1331.128, 16990.00
1332.191, 16886.00
1333.255, 17005.00
1334.318, 16864.00
1335.381, 16931.00
1336.444, 16962.00
1337.507, 16896.00
1338.569, 17043.00
1339.632, 16947.00
1340.694, 17360.00
1341.756, 17173.00
1342.818, 17184.00
1343.880, 17075.00
1344.941, 17063.00
1346.003, 17152.00
1347.064, 17228.00
1348.125, 17223.00
1349.186, 17085.00
1350.247, 17296.00
1351.308, 17335.00
1352.368, 17277.00
1353.428, 17468.00
1354.489, 17360.00
1355.549, 17353.00
1356.608, 17451.00
1357.668, 17478.00
1358.727, 17400.00
1359.787, 17534.00
1360.846, 17593.00
1361.905, 17522.00
1362.964, 17633.00
1364.022, 17721.00
1365.081, 17598.00
1366.139, 17624.00
1367.197, 17775.00
1368.255, 17664.00
1369.313, 17830.00
1370.371, 17626.00
1371.428, 17682.00
1372.486, 17736.00
1373.543, 17668.00
1374.600, 17801.00
1375.657, 17771.00
1376.713, 17792.00
1377.770, 17868.00
1378.826, 17904.00
1379.882, 18030.00
1380.938, 17971.00
1381.994, 17867.00
1383.050, 18146.00
1384.106, 17805.00
1385.161, 18140.00
1386.216, 17926.00
1387.271, 18099.00
1388.326, 18090.00
1389.381, 18109.00
1390.435, 18128.00
1391.490, 18273.00
1392.544, 18237.00
1393.598, 18322.00
1394.652, 18366.00
1395.705, 18307.00
1396.759, 18313.00
1397.812, 18380.00
1398.866, 18442.00
1399.919, 18466.00
1400.972, 18550.00
1402.024, 18621.00
1403.077, 18763.00
1404.129, 18557.00
1405.181, 18725.00
1406.233, 18910.00
1407.285, 18965.00
1408.337, 19308.00
1409.389, 19207.00
1410.440, 19465.00
1411.491, 19568.00
1412.542, 19663.00
1413.593, 19561.00
1414.644, 19354.00
1415.695, 19247.00
1416.745, 19258.00
1417.795, 19282.00
1418.845, 19286.00
1419.895, 19223.00
1420.945, 19440.00
1421.995, 19471.00
1423.044, 19674.00
1424.093, 19778.00
1425.142, 20235.00
1426.191, 19912.00
1427.240, 20180.00
1428.289, 20302.00
1429.337, 20167.00
1430.385, 20222.00
1431.433, 20114.00
1432.481, 20167.00
1433.529, 20100.90
1434.577, 20023.00
1435.624, 19966.00
1436.672, 19868.00
1437.719, 19746.00
1438.766, 19667.00
1439.812, 19577.00
1440.859, 19555.00
1441.905, 19537.00
1442.952, 19470.00
1443.998, 19622.00
1445.044, 19732.00
1446.090, 19324.00
1447.135, 19712.00
1448.181, 19423.00
1449.226, 19671.00
1450.271, 19770.00
1451.316, 19640.00
1452.361, 19795.00
1453.405, 19725.00
1454.450, 19894.00
1455.494, 19752.00
1456.538, 19900.00
1457.582, 19921.00
1458.626, 19647.00
1459.670, 19854.00
1460.713, 19736.00
1461.757, 19858.00
1462.800, 19972.00
1463.843, 20188.00
1464.886, 20053.00
1465.928, 20051.00
1466.971, 20108.00
1468.013, 20037.00
1469.055, 20222.00
1470.097, 20106.00
1471.139, 20264.00
1472.181, 20145.00
1473.222, 20210.00
1474.263, 20355.00
1475.305, 20320.00
1476.346, 20325.00
1477.386, 20409.00
1478.427, 20377.00
1479.468, 20397.00
1480.508, 20309.00
1481.548, 20481.00
1482.588, 20647.00
1483.628, 20582.00
1484.668, 20724.00
1485.707, 20734.00
1486.747, 20815.00
1487.786, 20921.98
1488.825, 21047.00
1489.864, 21116.00
1490.902, 21092.00
1491.941, 21159.00
1492.979, 21389.00
1494.017, 21577.00
1495.055, 21836.00
1496.093, 22363.00
1497.131, 23102.00
1498.168, 24248.00
1499.206, 25042.00
1500.243, 25478.00
1501.280, 25517.00
1502.317, 24747.00
1503.354, 23831.00
1504.390, 22903.00
1505.426, 22588.00
1506.463, 22328.00
1507.499, 21982.00
1508.535, 21939.00
1509.570, 21934.00
1510.606, 22023.00
1511.641, 21820.00
1512.676, 21937.00
1513.711, 21899.00
1514.746, 22104.00
1515.781, 22202.00
1516.816, 22287.00
1517.850, 22282.18
1518.884, 22221.00
1519.918, 22160.00
1520.952, 22007.00
1521.986, 21926.00
1523.019, 21794.00
1524.053, 21760.00
1525.086, 21911.00
1526.119, 21943.00
1527.152, 21999.00
1528.185, 21840.00
1529.217, 21848.00
1530.250, 22029.00
1531.282, 22084.00
1532.314, 22144.35
1533.346, 22088.00
1534.377, 22227.00
1535.409, 22154.00
1536.440, 22121.00
1537.472, 22145.00
1538.503, 22092.23
1539.534, 22323.00
1540.564, 22142.00
1541.595, 22220.00
1542.625, 22449.00
1543.656, 22432.00
1544.686, 22295.00
1545.716, 22447.00
1546.745, 22465.00
1547.775, 22500.00
1548.804, 22578.00
1549.834, 22456.00
1550.863, 22571.00
1551.892, 22704.00
1552.920, 22748.00
1553.949, 23024.00
1554.977, 22819.00
1556.006, 22718.00
1557.034, 22597.00
1558.062, 22757.00
1559.089, 22889.00
1560.117, 22705.00
1561.144, 22939.00
1562.172, 22983.00
1563.199, 23112.00
1564.226, 23081.00
1565.252, 22962.00
1566.279, 23359.00
1567.305, 23195.00
1568.332, 23136.00
1569.358, 23344.00
1570.384, 23299.00
1571.409, 23356.00
##END=



