##NAMES=Tilleyite
##RRUFFID=R050227
##IDEAL CHEMISTRY=Ca_5_Si_2_O_7_(CO_3_)_2_
##LOCALITY=Crestmore Quarry, Riverside County, California, USA
##OWNER=RRUFF
##SOURCE=Marcus Origlieri
##DESCRIPTION=Aggregate of colorless subhedral crystals
##STATUS=The identification of this mineral has been confirmed by X-ray diffraction.
##URL=rruff.info/R050227
##PIN_ID=L00359
##ORIENTATION=Laser parallel to (1 0 1). Fiducial mark perpendicular to laser is parallel to b [0 1 0]
95.94800, 7766.000
97.18200, 7506.000
98.41600, 7189.000
99.64900, 7041.000
100.8830, 6926.000
102.1160, 6938.246
103.3490, 7055.580
104.5820, 7247.000
105.8150, 7613.000
107.0470, 8018.000
108.2800, 8630.000
109.5120, 8880.000
110.7440, 8577.000
111.9760, 8254.000
113.2080, 8028.000
114.4400, 7864.000
115.6710, 7729.000
116.9030, 7746.000
118.1340, 7704.000
119.3650, 7960.000
120.5960, 8160.000
121.8270, 8384.000
123.0580, 8413.000
124.2880, 8161.000
125.5190, 8063.000
126.7490, 7808.000
127.9790, 7869.000
129.2090, 7755.000
130.4390, 7874.000
131.6680, 8005.000
132.8980, 7978.000
134.1270, 7976.000
135.3560, 8209.000
136.5850, 8514.000
137.8140, 8843.000
139.0430, 9181.000
140.2710, 9845.000
141.5000, 10220.00
142.7280, 10605.00
143.9560, 10885.00
145.1840, 11180.00
146.4120, 11271.00
147.6390, 10974.00
148.8670, 10421.00
150.0940, 10042.00
151.3210, 9643.000
152.5490, 9506.000
153.7750, 9455.000
155.0020, 9463.000
156.2290, 9601.000
157.4550, 9540.000
158.6810, 9421.000
159.9080, 9165.000
161.1340, 8871.000
162.3590, 8583.000
163.5850, 8411.182
164.8110, 8082.000
166.0360, 8086.000
167.2610, 8009.000
168.4860, 7872.000
169.7110, 7752.000
170.9360, 7860.000
172.1610, 7913.000
173.3850, 8076.000
174.6100, 8097.000
175.8340, 8098.000
177.0580, 8249.000
178.2820, 8341.000
179.5050, 8344.000
180.7290, 8293.000
181.9520, 8417.000
183.1760, 8290.000
184.3990, 8334.000
185.6220, 8383.000
186.8450, 8341.000
188.0670, 8413.000
189.2900, 8534.000
190.5120, 8755.000
191.7340, 8961.000
192.9560, 9219.000
194.1780, 9451.000
195.4000, 9780.000
196.6220, 10040.00
197.8430, 9948.000
199.0640, 9908.000
200.2860, 9620.000
201.5070, 9368.000
202.7270, 9205.000
203.9480, 9066.000
205.1690, 8925.000
206.3890, 8764.000
207.6090, 8684.000
208.8290, 8493.000
210.0490, 8466.054
211.2690, 8399.000
212.4890, 8415.000
213.7080, 8380.000
214.9280, 8392.000
216.1470, 8551.000
217.3660, 8580.000
218.5850, 8474.000
219.8030, 8542.000
221.0220, 8411.000
222.2400, 8555.000
223.4590, 8536.000
224.6770, 8677.000
225.8950, 8647.000
227.1120, 8826.000
228.3300, 8817.000
229.5480, 8811.000
230.7650, 8809.000
231.9820, 8859.000
233.1990, 8877.000
234.4160, 8873.000
235.6330, 8977.000
236.8490, 9095.000
238.0660, 9097.000
239.2820, 9013.000
240.4980, 9237.000
241.7140, 9298.000
242.9300, 9274.000
244.1460, 9429.000
245.3610, 9499.000
246.5770, 9534.000
247.7920, 9588.000
249.0070, 9557.000
250.2220, 9551.000
251.4370, 9441.000
252.6510, 9465.017
253.8660, 9423.000
255.0800, 9468.000
256.2940, 9491.000
257.5080, 9511.000
258.7220, 9584.000
259.9360, 9492.000
261.1490, 9483.000
262.3630, 9389.000
263.5760, 9472.000
264.7890, 9505.000
266.0020, 9458.000
267.2150, 9663.000
268.4270, 9879.000
269.6400, 9910.000
270.8520, 9998.000
272.0640, 10377.00
273.2760, 10494.00
274.4880, 10678.00
275.7000, 10752.00
276.9120, 10667.00
278.1230, 10639.00
279.3340, 10577.00
280.5450, 10680.00
281.7560, 10582.00
282.9670, 10628.00
284.1780, 10671.00
285.3880, 10863.00
286.5980, 10944.00
287.8090, 10899.00
289.0190, 10779.00
290.2290, 10849.11
291.4380, 10909.00
292.6480, 10888.00
293.8570, 10941.00
295.0670, 10983.00
296.2760, 11168.00
297.4850, 11325.00
298.6930, 11607.00
299.9020, 11856.00
301.1110, 12236.00
302.3190, 12206.00
303.5270, 11882.00
304.7350, 11577.00
305.9430, 11322.00
307.1510, 10996.00
308.3580, 10799.00
309.5660, 10626.00
310.7730, 10490.00
311.9800, 10419.00
313.1870, 10388.00
314.3940, 10302.00
315.6010, 10324.00
316.8070, 10235.00
318.0130, 10179.00
319.2200, 10255.00
320.4260, 10127.00
321.6310, 10197.00
322.8370, 9981.000
324.0430, 10016.00
325.2480, 10099.00
326.4540, 9997.000
327.6590, 9952.000
328.8640, 9973.000
330.0680, 9895.000
331.2730, 10071.00
332.4780, 9960.000
333.6820, 9985.000
334.8860, 10011.00
336.0900, 9952.000
337.2940, 9962.000
338.4980, 9883.000
339.7010, 10066.00
340.9050, 10188.00
342.1080, 10179.00
343.3110, 10093.00
344.5140, 10158.00
345.7170, 10163.00
346.9200, 10207.34
348.1220, 10263.18
349.3240, 10333.00
350.5270, 10394.00
351.7290, 10426.00
352.9310, 10526.00
354.1320, 10446.00
355.3340, 10541.00
356.5350, 10495.00
357.7370, 10599.00
358.9380, 10558.00
360.1390, 10586.00
361.3400, 10578.00
362.5400, 10457.00
363.7410, 10743.00
364.9410, 10637.00
366.1410, 10573.00
367.3410, 10745.00
368.5410, 10803.00
369.7410, 10579.00
370.9400, 10592.00
372.1400, 10633.00
373.3390, 10608.00
374.5380, 10618.00
375.7370, 10541.00
376.9360, 10417.00
378.1350, 10433.00
379.3330, 10405.00
380.5310, 10416.00
381.7300, 10430.38
382.9280, 10315.00
384.1260, 10464.00
385.3230, 10445.00
386.5210, 10447.00
387.7180, 10548.00
388.9160, 10632.00
390.1130, 10778.00
391.3100, 10922.00
392.5060, 11002.00
393.7030, 11178.00
394.9000, 11219.00
396.0960, 11300.00
397.2920, 11361.00
398.4880, 11254.00
399.6840, 11118.00
400.8800, 11074.00
402.0750, 11115.00
403.2710, 10936.00
404.4660, 10944.00
405.6610, 10771.00
406.8560, 10891.00
408.0510, 10793.00
409.2450, 10696.00
410.4400, 10821.00
411.6340, 10698.00
412.8280, 10635.00
414.0220, 10613.00
415.2160, 10750.00
416.4100, 10710.00
417.6030, 10737.00
418.7970, 10784.29
419.9900, 10712.00
421.1830, 10832.00
422.3760, 10671.00
423.5690, 10678.00
424.7610, 10889.00
425.9540, 10706.00
427.1460, 10692.00
428.3380, 10703.00
429.5300, 10754.00
430.7220, 10799.00
431.9140, 10741.00
433.1050, 10587.00
434.2970, 10757.00
435.4880, 10761.00
436.6790, 10624.00
437.8700, 10771.00
439.0610, 10708.00
440.2510, 10762.00
441.4420, 10783.00
442.6320, 10763.00
443.8220, 10794.00
445.0120, 10790.00
446.2020, 10810.87
447.3910, 10937.00
448.5810, 10902.00
449.7700, 10837.00
450.9600, 10969.00
452.1490, 10906.00
453.3370, 10997.00
454.5260, 11028.00
455.7150, 11019.00
456.9030, 11107.00
458.0910, 11090.29
459.2800, 11028.00
460.4670, 11097.00
461.6550, 11068.00
462.8430, 11062.00
464.0300, 11205.00
465.2180, 11226.00
466.4050, 11173.00
467.5920, 11159.00
468.7790, 11075.00
469.9650, 11102.00
471.1520, 11286.00
472.3380, 11268.00
473.5250, 11245.00
474.7110, 11360.00
475.8970, 11252.00
477.0820, 11460.00
478.2680, 11430.00
479.4540, 11441.00
480.6390, 11367.00
481.8240, 11479.00
483.0090, 11420.00
484.1940, 11595.00
485.3780, 11685.00
486.5630, 11569.00
487.7470, 11511.00
488.9320, 11594.00
490.1160, 11632.00
491.3000, 11529.00
492.4830, 11570.00
493.6670, 11425.00
494.8500, 11712.00
496.0340, 11616.00
497.2170, 11593.00
498.4000, 11560.00
499.5820, 11624.00
500.7650, 11620.00
501.9480, 11826.00
503.1300, 11566.00
504.3120, 11874.00
505.4940, 11859.00
506.6760, 11805.00
507.8580, 11550.00
509.0390, 11847.00
510.2210, 11901.00
511.4020, 11857.00
512.5830, 11990.00
513.7640, 11971.00
514.9450, 11928.00
516.1250, 11913.00
517.3060, 12011.00
518.4860, 11967.00
519.6660, 12052.00
520.8460, 11860.00
522.0260, 12149.00
523.2060, 12034.00
524.3850, 12156.00
525.5650, 12247.00
526.7440, 12362.00
527.9230, 12322.00
529.1020, 12235.00
530.2810, 12350.00
531.4590, 12398.00
532.6380, 12313.00
533.8160, 12396.00
534.9940, 12323.00
536.1720, 12399.00
537.3500, 12601.00
538.5270, 12720.00
539.7050, 12614.00
540.8820, 12796.00
542.0590, 12815.00
543.2360, 13176.00
544.4130, 13042.00
545.5900, 13162.00
546.7660, 13232.00
547.9430, 13165.00
549.1190, 13212.08
550.2950, 13183.00
551.4710, 13193.00
552.6470, 13053.00
553.8220, 13092.00
554.9980, 13043.00
556.1730, 13085.00
557.3480, 12898.00
558.5230, 12930.00
559.6980, 12864.66
560.8730, 12929.00
562.0470, 12800.00
563.2220, 12744.00
564.3960, 12766.00
565.5700, 12741.00
566.7440, 12768.00
567.9170, 12743.00
569.0910, 12707.00
570.2640, 12824.00
571.4380, 12767.00
572.6110, 12920.00
573.7840, 12789.00
574.9570, 12910.00
576.1290, 12804.00
577.3020, 12733.00
578.4740, 12912.00
579.6460, 12867.00
580.8180, 12704.00
581.9900, 12968.00
583.1620, 12927.00
584.3330, 12966.00
585.5040, 12933.00
586.6760, 13026.00
587.8470, 12992.00
589.0180, 13040.00
590.1880, 13069.24
591.3590, 13037.00
592.5290, 13100.00
593.7000, 13077.00
594.8700, 13046.00
596.0400, 13180.00
597.2090, 13016.00
598.3790, 13314.00
599.5490, 13186.00
600.7180, 13279.00
601.8870, 13226.00
603.0560, 13289.00
604.2250, 13241.00
605.3940, 13298.00
606.5620, 13419.00
607.7300, 13342.00
608.8990, 13415.00
610.0670, 13471.00
611.2350, 13449.00
612.4020, 13620.00
613.5700, 13488.00
614.7370, 13468.00
615.9050, 13558.00
617.0720, 13452.00
618.2390, 13521.00
619.4060, 13595.00
620.5720, 13580.38
621.7390, 13679.00
622.9050, 13663.00
624.0710, 13764.00
625.2370, 13838.00
626.4030, 13749.00
627.5690, 13993.00
628.7340, 14060.00
629.9000, 14028.00
631.0650, 14038.00
632.2300, 14137.00
633.3950, 14279.00
634.5600, 14425.00
635.7240, 14676.00
636.8890, 14921.00
638.0530, 15231.14
639.2170, 15539.00
640.3810, 16000.00
641.5450, 16539.00
642.7080, 17085.00
643.8720, 17885.00
645.0350, 18833.00
646.1980, 19611.00
647.3610, 19943.00
648.5240, 19652.00
649.6870, 18844.00
650.8490, 17846.00
652.0120, 17197.00
653.1740, 16334.00
654.3360, 15750.00
655.4980, 15407.00
656.6600, 15140.00
657.8210, 14897.00
658.9830, 14909.00
660.1440, 14849.00
661.3050, 14739.00
662.4660, 14713.00
663.6270, 14528.00
664.7870, 14637.00
665.9480, 14717.00
667.1080, 14351.00
668.2680, 14692.00
669.4280, 14738.00
670.5880, 14380.00
671.7480, 14709.00
672.9070, 14701.00
674.0670, 14507.00
675.2260, 14443.00
676.3850, 14571.00
677.5440, 14678.00
678.7030, 14636.00
679.8610, 14771.00
681.0200, 14693.00
682.1780, 14803.00
683.3360, 14776.72
684.4940, 14760.00
685.6520, 14751.00
686.8090, 14769.44
687.9670, 14718.00
689.1240, 14837.00
690.2810, 14931.00
691.4380, 14991.00
692.5950, 15163.00
693.7520, 15345.00
694.9080, 15873.00
696.0650, 16273.00
697.2210, 15983.00
698.3770, 15901.00
699.5330, 15636.00
700.6880, 15900.00
701.8440, 16034.00
702.9990, 15934.00
704.1550, 15747.00
705.3100, 15442.00
706.4650, 15322.00
707.6190, 15286.00
708.7740, 15181.00
709.9290, 15208.00
711.0830, 15418.00
712.2370, 15515.00
713.3910, 15752.00
714.5450, 15810.00
715.6980, 15976.00
716.8520, 16086.00
718.0050, 15810.00
719.1580, 15944.00
720.3110, 16046.00
721.4640, 16211.00
722.6170, 16031.00
723.7700, 15795.00
724.9220, 15616.00
726.0740, 15452.00
727.2260, 15532.00
728.3780, 15422.00
729.5300, 15509.00
730.6810, 15444.00
731.8330, 15472.00
732.9840, 15471.61
734.1350, 15416.00
735.2860, 15495.00
736.4370, 15510.00
737.5880, 15610.00
738.7380, 15651.00
739.8880, 15658.00
741.0390, 15734.17
742.1890, 15835.00
743.3380, 15775.00
744.4880, 15733.00
745.6380, 15626.00
746.7870, 15632.00
747.9360, 15682.00
749.0850, 15831.00
750.2340, 15610.00
751.3830, 15847.00
752.5310, 15889.00
753.6800, 15771.00
754.8280, 15930.00
755.9760, 15898.00
757.1240, 16000.00
758.2720, 16012.00
759.4190, 16005.00
760.5670, 15957.00
761.7140, 16058.00
762.8610, 15971.00
764.0080, 16013.00
765.1550, 15956.00
766.3020, 15987.11
767.4480, 16281.00
768.5950, 16085.00
769.7410, 16181.00
770.8870, 16290.00
772.0330, 16126.00
773.1780, 16226.00
774.3240, 16113.00
775.4690, 16325.00
776.6140, 16278.00
777.7590, 16438.00
778.9040, 16283.00
780.0490, 16386.00
781.1940, 16325.00
782.3380, 16418.00
783.4820, 16553.00
784.6260, 16339.00
785.7700, 16525.00
786.9140, 16467.00
788.0580, 16399.00
789.2010, 16356.00
790.3450, 16496.00
791.4880, 16597.00
792.6310, 16647.00
793.7730, 16700.19
794.9160, 16753.21
796.0590, 16739.00
797.2010, 16777.00
798.3430, 16816.00
799.4850, 16718.00
800.6270, 16882.00
801.7690, 16902.00
802.9100, 16750.00
804.0520, 16685.00
805.1930, 16899.00
806.3340, 17013.00
807.4750, 16954.00
808.6160, 16917.00
809.7560, 16921.00
810.8970, 16935.00
812.0370, 17113.00
813.1770, 17046.00
814.3170, 17096.00
815.4570, 17068.00
816.5960, 17109.00
817.7360, 17109.00
818.8750, 17156.00
820.0140, 17208.44
821.1530, 17246.00
822.2920, 17353.00
823.4310, 17394.00
824.5690, 17505.00
825.7070, 17368.00
826.8460, 17446.00
827.9840, 17506.00
829.1220, 17533.00
830.2590, 17672.00
831.3970, 17694.00
832.5340, 17858.00
833.6710, 17807.00
834.8080, 18060.00
835.9450, 18277.00
837.0820, 18323.00
838.2190, 18549.00
839.3550, 18468.00
840.4910, 18395.00
841.6270, 18205.00
842.7630, 18022.00
843.8990, 18113.00
845.0350, 17877.00
846.1700, 17932.00
847.3060, 17947.00
848.4410, 17818.00
849.5760, 17807.00
850.7100, 17936.00
851.8450, 17890.00
852.9800, 17904.00
854.1140, 17920.00
855.2480, 17986.00
856.3820, 18006.00
857.5160, 18042.00
858.6500, 18070.46
859.7830, 18103.24
860.9170, 18117.00
862.0500, 18176.00
863.1830, 18216.00
864.3160, 18259.00
865.4480, 18358.00
866.5810, 18421.00
867.7130, 18396.63
868.8460, 18693.00
869.9780, 18447.00
871.1100, 18325.00
872.2410, 18599.00
873.3730, 18367.00
874.5050, 18286.00
875.6360, 18447.00
876.7670, 18491.00
877.8980, 18448.00
879.0290, 18599.00
880.1590, 18726.00
881.2900, 18713.00
882.4200, 18574.00
883.5500, 18561.00
884.6800, 18723.00
885.8100, 18836.00
886.9400, 18859.00
888.0690, 18972.00
889.1990, 19028.00
890.3280, 19239.00
891.4570, 19378.00
892.5860, 19534.00
893.7140, 19692.00
894.8430, 20005.00
895.9710, 20358.00
897.1000, 20760.00
898.2280, 21743.00
899.3560, 22481.00
900.4830, 23803.00
901.6110, 25628.00
902.7380, 27877.00
903.8660, 31036.00
904.9930, 34897.00
906.1200, 39518.00
907.2460, 43449.00
908.3730, 41654.00
909.5000, 36722.00
910.6260, 31415.00
911.7520, 27496.00
912.8780, 24834.00
914.0040, 23103.00
915.1290, 22136.00
916.2550, 21412.00
917.3800, 20863.00
918.5050, 20515.00
919.6300, 20331.00
920.7550, 20263.00
921.8800, 20053.00
923.0040, 19968.00
924.1290, 19816.00
925.2530, 19749.00
926.3770, 19750.30
927.5010, 19800.00
928.6250, 19803.00
929.7480, 19946.00
930.8720, 19967.00
931.9950, 19924.00
933.1180, 20091.00
934.2410, 19999.00
935.3640, 19964.00
936.4860, 19963.00
937.6090, 19980.00
938.7310, 19899.00
939.8530, 19940.00
940.9750, 19897.00
942.0970, 19767.00
943.2180, 19990.00
944.3400, 19992.00
945.4610, 20007.00
946.5820, 20166.00
947.7030, 20138.00
948.8240, 20203.00
949.9450, 20373.00
951.0650, 20316.00
952.1860, 20517.00
953.3060, 20260.00
954.4260, 20430.00
955.5460, 20279.00
956.6650, 20337.00
957.7850, 20427.00
958.9040, 20188.00
960.0230, 20165.00
961.1420, 20164.00
962.2610, 20350.00
963.3800, 20265.00
964.4990, 20319.00
965.6170, 20345.00
966.7350, 20389.00
967.8530, 20231.00
968.9710, 20187.00
970.0890, 20291.00
971.2070, 20384.00
972.3240, 20439.00
973.4410, 20397.00
974.5580, 20513.00
975.6750, 20631.00
976.7920, 20548.00
977.9090, 20551.00
979.0250, 20677.00
980.1410, 20873.00
981.2580, 20771.00
982.3740, 20797.00
983.4890, 20936.00
984.6050, 20798.00
985.7200, 20885.00
986.8360, 20697.00
987.9510, 20725.00
989.0660, 20848.00
990.1810, 20815.00
991.2950, 20802.00
992.4100, 20699.00
993.5240, 20900.00
994.6390, 20938.00
995.7530, 21005.00
996.8660, 20952.00
997.9800, 21133.00
999.0940, 21018.00
1000.207, 21227.00
1001.320, 21175.00
1002.433, 21455.00
1003.546, 21426.00
1004.659, 21678.00
1005.772, 21753.00
1006.884, 22061.00
1007.996, 22105.00
1009.108, 22282.00
1010.220, 22325.00
1011.332, 22443.00
1012.444, 22423.89
1013.555, 22535.00
1014.666, 22316.00
1015.777, 22048.00
1016.888, 21932.05
1017.999, 21758.00
1019.110, 21704.00
1020.220, 21623.00
1021.331, 21602.00
1022.441, 21696.00
1023.551, 21725.00
1024.661, 21809.00
1025.770, 21694.00
1026.880, 21631.00
1027.989, 21748.00
1029.098, 21863.00
1030.207, 21840.00
1031.316, 21842.00
1032.425, 22038.00
1033.533, 22214.00
1034.642, 22059.00
1035.750, 22184.00
1036.858, 22072.00
1037.966, 21985.00
1039.073, 21968.00
1040.181, 21906.81
1041.288, 21878.00
1042.396, 21839.00
1043.503, 21788.00
1044.610, 21813.19
1045.716, 21766.35
1046.823, 21874.00
1047.929, 21914.00
1049.036, 21966.69
1050.142, 22014.00
1051.248, 22036.00
1052.353, 22085.00
1053.459, 22110.00
1054.564, 22236.00
1055.670, 22051.00
1056.775, 22066.00
1057.880, 22183.00
1058.985, 22180.00
1060.089, 22424.00
1061.194, 22475.00
1062.298, 22419.00
1063.402, 22520.94
1064.506, 22457.00
1065.610, 22465.00
1066.713, 22563.00
1067.817, 22607.67
1068.920, 22761.00
1070.023, 22904.00
1071.126, 23139.00
1072.229, 23476.00
1073.332, 23813.00
1074.435, 25179.00
1075.537, 26910.00
1076.639, 29007.00
1077.741, 31734.00
1078.843, 38778.00
1079.945, 39184.47
1081.046, 38286.89
1082.148, 41033.00
1083.249, 33015.00
1084.350, 28835.00
1085.451, 27309.00
1086.551, 26906.00
1087.652, 27208.00
1088.752, 29080.00
1089.853, 31265.00
1090.953, 35138.00
1092.053, 43551.00
1093.152, 58406.00
1094.252, 59960.00
1095.351, 45478.00
1096.451, 34721.00
1097.550, 28898.00
1098.649, 26112.00
1099.748, 24877.00
1100.846, 24307.00
1101.945, 23744.00
1103.043, 23916.00
1104.141, 23419.00
1105.239, 23343.00
1106.337, 23246.00
1107.434, 23424.00
1108.532, 23334.00
1109.629, 23308.00
1110.726, 23409.00
1111.823, 23061.00
1112.920, 23236.00
1114.017, 23017.00
1115.113, 23414.00
1116.210, 23442.00
1117.306, 23212.00
1118.402, 23463.00
1119.498, 23472.00
1120.593, 23470.00
1121.689, 23595.00
1122.784, 23624.00
1123.879, 23659.00
1124.974, 23531.00
1126.069, 23426.00
1127.164, 23392.00
1128.259, 23385.00
1129.353, 23577.00
1130.447, 23428.00
1131.541, 23498.00
1132.635, 23418.00
1133.729, 23606.00
1134.822, 23519.00
1135.916, 23440.00
1137.009, 23566.00
1138.102, 23606.00
1139.195, 23465.00
1140.288, 23445.00
1141.380, 23505.00
1142.473, 23553.00
1143.565, 23539.00
1144.657, 23705.00
1145.749, 23596.00
1146.841, 23549.00
1147.932, 23534.00
1149.024, 23644.00
1150.115, 23659.00
1151.206, 23864.00
1152.297, 23843.00
1153.388, 23701.00
1154.479, 23953.00
1155.569, 23830.00
1156.659, 23782.00
1157.750, 24034.00
1158.839, 24018.00
1159.929, 23911.00
1161.019, 23948.00
1162.108, 24022.00
1163.198, 23997.00
1164.287, 23916.00
1165.376, 24004.00
1166.465, 24065.00
1167.553, 24188.00
1168.642, 24061.00
1169.730, 24149.00
1170.818, 24104.69
1171.906, 24088.00
1172.994, 24073.00
1174.082, 24197.00
1175.170, 24288.00
1176.257, 24417.00
1177.344, 24434.00
1178.431, 24308.00
1179.518, 24394.32
1180.605, 24281.00
1181.691, 24419.00
1182.778, 24407.00
1183.864, 24450.00
1184.950, 24466.00
1186.036, 24321.00
1187.122, 24573.00
1188.207, 24407.00
1189.292, 24435.00
1190.378, 24688.00
1191.463, 24430.00
1192.548, 24508.00
1193.632, 24574.00
1194.717, 24544.00
1195.801, 24407.00
1196.886, 24737.00
1197.970, 24542.00
1199.054, 24573.00
1200.137, 24668.00
1201.221, 24515.00
1202.305, 24948.00
1203.388, 24915.00
1204.471, 24820.00
1205.554, 24774.00
1206.637, 24841.00
1207.719, 24772.00
1208.802, 24852.00
1209.884, 24918.00
1210.966, 25006.00
1212.048, 24828.00
1213.130, 25102.00
1214.212, 24824.00
1215.293, 24985.00
1216.374, 24775.00
1217.456, 25015.00
1218.536, 24819.00
1219.617, 25097.00
1220.698, 24961.00
1221.778, 25141.00
1222.859, 25185.00
1223.939, 24963.00
1225.019, 25215.00
1226.099, 25193.00
1227.178, 25112.00
1228.258, 25151.00
1229.337, 25225.00
1230.417, 25186.00
1231.496, 25064.00
1232.574, 25162.88
1233.653, 25181.00
1234.732, 25226.00
1235.810, 25247.00
1236.888, 25206.00
1237.966, 25450.00
1239.044, 25623.00
1240.122, 25214.00
1241.199, 25561.00
1242.277, 25542.00
1243.354, 25442.00
1244.431, 25450.00
1245.508, 25652.00
1246.585, 25516.00
1247.661, 25573.00
1248.738, 25683.00
1249.814, 25606.00
1250.890, 25529.00
1251.966, 25678.00
1253.042, 25614.00
1254.117, 25595.00
1255.193, 25752.00
1256.268, 25637.00
1257.343, 25471.00
1258.418, 25768.00
1259.493, 25669.00
1260.567, 25628.00
1261.642, 25955.00
1262.716, 25800.00
1263.790, 25840.00
1264.864, 25750.00
1265.938, 25925.00
1267.011, 25985.00
1268.085, 25877.00
1269.158, 25803.00
1270.231, 25833.00
1271.304, 25920.00
1272.377, 25957.00
1273.450, 25987.00
1274.522, 26037.00
1275.594, 25971.00
1276.666, 26052.00
1277.738, 25999.00
1278.810, 25887.00
1279.882, 26114.00
1280.953, 26247.00
1282.025, 26243.00
1283.096, 26092.00
1284.167, 26345.00
1285.238, 26250.00
1286.308, 26511.00
1287.379, 26343.00
1288.449, 26231.00
1289.519, 26229.00
1290.589, 26289.00
1291.659, 26166.00
1292.729, 26373.00
1293.798, 26427.00
1294.868, 26319.00
1295.937, 26453.00
1297.006, 26414.00
1298.075, 26376.00
1299.143, 26367.00
1300.212, 26597.00
1301.280, 26476.00
1302.348, 26308.00
1303.416, 26591.00
1304.484, 26395.00
1305.552, 26304.00
1306.620, 26754.00
1307.687, 26564.00
1308.754, 26534.00
1309.821, 26766.00
1310.888, 26643.00
1311.955, 26594.00
1313.021, 26657.00
1314.088, 26811.00
1315.154, 26728.00
1316.220, 26841.00
1317.286, 26793.00
1318.352, 26783.00
1319.417, 26684.00
1320.483, 26971.00
1321.548, 26923.00
1322.613, 26943.00
1323.678, 27058.00
1324.743, 26933.00
1325.807, 26925.00
1326.872, 27001.00
1327.936, 27040.00
1329.000, 26922.00
1330.064, 27116.00
1331.128, 27008.00
1332.191, 27256.00
1333.255, 26974.00
1334.318, 26950.00
1335.381, 27240.00
1336.444, 26976.00
1337.507, 27145.00
1338.569, 27303.00
1339.632, 27297.00
1340.694, 27332.00
1341.756, 27236.00
1342.818, 27123.00
1343.880, 27107.00
1344.941, 27059.00
1346.003, 27149.00
1347.064, 27283.00
1348.125, 27181.00
1349.186, 27406.00
1350.247, 27405.00
1351.308, 27716.00
1352.368, 27408.00
1353.428, 27379.00
1354.489, 27552.00
1355.549, 27408.00
1356.608, 27587.00
1357.668, 27342.00
1358.727, 27247.00
1359.787, 27626.00
1360.846, 27563.00
1361.905, 27382.00
1362.964, 27600.00
1364.022, 27466.00
1365.081, 27529.00
1366.139, 27428.00
1367.197, 27697.00
1368.255, 27872.00
1369.313, 27732.00
1370.371, 27752.00
1371.428, 27723.00
1372.486, 27764.00
1373.543, 27758.35
1374.600, 27785.30
1375.657, 27781.00
1376.713, 27837.00
1377.770, 27871.52
1378.826, 27874.43
1379.882, 27883.00
1380.938, 27897.00
1381.994, 27808.00
1383.050, 27958.00
1384.106, 27911.00
1385.161, 27873.00
1386.216, 28122.00
1387.271, 27891.00
1388.326, 27998.00
1389.381, 27891.00
1390.435, 28126.00
1391.490, 28212.00
1392.544, 28059.00
1393.598, 28017.00
1394.652, 28085.00
1395.705, 28062.00
1396.759, 28201.00
1397.812, 28071.00
1398.866, 28121.00
1399.919, 28235.00
1400.972, 28185.00
1402.024, 28210.00
1403.077, 28339.00
1404.129, 28496.00
1405.181, 28330.00
1406.233, 28380.00
1407.285, 28305.00
1408.337, 28651.00
1409.389, 28584.00
1410.440, 28725.00
1411.491, 28886.00
1412.542, 28969.00
1413.593, 28730.00
1414.644, 28814.00
1415.695, 28938.00
1416.745, 28682.00
1417.795, 28793.00
1418.845, 28689.00
1419.895, 28690.00
1420.945, 28720.00
1421.995, 28844.00
1423.044, 28671.00
1424.093, 28836.00
1425.142, 29197.00
1426.191, 29467.00
1427.240, 29231.00
1428.289, 29379.00
1429.337, 29102.00
1430.385, 29096.00
1431.433, 29378.00
1432.481, 29584.00
1433.529, 29469.00
1434.577, 29328.00
1435.624, 29193.00
1436.672, 29093.18
1437.719, 28975.00
1438.766, 28990.00
1439.812, 28946.00
1440.859, 29111.00
1441.905, 28964.00
1442.952, 29008.00
1443.998, 28871.00
1445.044, 28982.00
1446.090, 28969.00
1447.135, 29082.00
1448.181, 29032.00
1449.226, 29236.00
1450.271, 29039.00
1451.316, 29327.00
1452.361, 28992.00
1453.405, 28888.00
1454.450, 29248.00
1455.494, 29208.00
1456.538, 29066.00
1457.582, 29258.00
1458.626, 29287.00
1459.670, 29203.00
1460.713, 29227.00
1461.757, 29357.00
1462.800, 29068.00
1463.843, 29480.00
1464.886, 29260.00
1465.928, 29443.00
1466.971, 29517.00
1468.013, 29296.00
1469.055, 29480.00
1470.097, 29398.00
1471.139, 29365.00
1472.181, 29449.00
1473.222, 29637.00
1474.263, 29416.00
1475.305, 29266.00
1476.346, 29479.00
1477.386, 29391.00
1478.427, 29477.13
1479.468, 29380.00
1480.508, 29590.00
1481.548, 29589.00
1482.588, 29539.00
1483.628, 29687.00
1484.668, 29726.00
1485.707, 29737.00
1486.747, 29708.00
1487.786, 29867.00
1488.825, 29814.00
1489.864, 29775.00
1490.902, 29967.00
1491.941, 29986.00
1492.979, 29990.00
1494.017, 30059.00
1495.055, 30151.59
1496.093, 30221.00
1497.131, 30471.00
1498.168, 30802.00
1499.206, 31137.00
1500.243, 31594.00
1501.280, 31827.00
1502.317, 31396.00
1503.354, 31209.00
1504.390, 30738.00
1505.426, 30647.00
1506.463, 30365.00
1507.499, 30218.00
1508.535, 30308.00
1509.570, 30128.00
1510.606, 30334.00
1511.641, 30547.00
1512.676, 30351.00
1513.711, 30438.00
1514.746, 30434.00
1515.781, 30501.00
1516.816, 30503.76
1517.850, 30753.00
1518.884, 30536.00
1519.918, 30547.00
1520.952, 30635.00
1521.986, 30326.00
1523.019, 30548.00
1524.053, 30218.00
1525.086, 30478.00
1526.119, 30376.00
1527.152, 30682.00
1528.185, 30380.00
1529.217, 30576.00
1530.250, 30611.00
1531.282, 30572.00
1532.314, 30419.00
1533.346, 30800.00
1534.377, 30916.00
1535.409, 30473.00
1536.440, 30864.00
1537.472, 30619.00
1538.503, 30663.00
1539.534, 30844.00
1540.564, 30753.00
1541.595, 30683.00
1542.625, 30824.00
1543.656, 30711.00
1544.686, 30881.00
1545.716, 30876.00
1546.745, 30911.00
1547.775, 30769.00
1548.804, 30845.37
1549.834, 30877.00
1550.863, 30969.00
1551.892, 30982.00
1552.920, 31181.00
1553.949, 30931.00
1554.977, 31230.00
1556.006, 30979.00
1557.034, 31092.00
1558.062, 31087.00
1559.089, 31310.00
1560.117, 30883.00
1561.144, 31140.00
1562.172, 31220.00
1563.199, 30986.00
1564.226, 31321.00
1565.252, 31198.00
1566.279, 31081.00
1567.305, 31326.00
1568.332, 31502.00
1569.358, 31110.00
1570.384, 31359.00
1571.409, 31461.00
##END=



