##NAMES=Tilleyite
##RRUFFID=R050227
##IDEAL CHEMISTRY=Ca_5_Si_2_O_7_(CO_3_)_2_
##LOCALITY=Crestmore Quarry, Riverside County, California, USA
##OWNER=RRUFF
##SOURCE=Marcus Origlieri
##DESCRIPTION=Aggregate of colorless subhedral crystals
##STATUS=The identification of this mineral has been confirmed by X-ray diffraction.
##URL=rruff.info/R050227
##PIN_ID=L00383
##ORIENTATION=Laser parallel to a* (1 0 0). Fiducial mark perpendicular to laser is parallel to b [0 1 0]
95.94800, 16591.00
97.18200, 16808.00
98.41600, 17225.00
99.64900, 17504.00
100.8830, 17492.00
102.1160, 17677.00
103.3490, 17622.00
104.5820, 17927.00
105.8150, 18193.00
107.0470, 18598.00
108.2800, 18731.61
109.5120, 18992.06
110.7440, 19052.00
111.9760, 19300.00
113.2080, 19489.00
114.4400, 19497.00
115.6710, 19667.00
116.9030, 19469.00
118.1340, 19355.00
119.3650, 19381.00
120.5960, 19488.00
121.8270, 19576.00
123.0580, 19754.00
124.2880, 19578.00
125.5190, 19499.00
126.7490, 19190.00
127.9790, 19056.00
129.2090, 18848.00
130.4390, 18736.00
131.6680, 18801.00
132.8980, 18773.00
134.1270, 18852.00
135.3560, 18778.00
136.5850, 19063.00
137.8140, 19137.00
139.0430, 19227.00
140.2710, 19247.00
141.5000, 19566.00
142.7280, 19490.00
143.9560, 19429.00
145.1840, 19763.00
146.4120, 19927.00
147.6390, 19861.00
148.8670, 20199.00
150.0940, 20312.00
151.3210, 20289.00
152.5490, 20258.00
153.7750, 20261.00
155.0020, 20323.00
156.2290, 20325.00
157.4550, 20302.00
158.6810, 20457.00
159.9080, 20142.00
161.1340, 20238.00
162.3590, 19878.00
163.5850, 19900.00
164.8110, 19419.00
166.0360, 19216.00
167.2610, 19110.00
168.4860, 19118.00
169.7110, 18937.00
170.9360, 19106.00
172.1610, 19082.00
173.3850, 19085.00
174.6100, 19125.00
175.8340, 19174.00
177.0580, 19389.00
178.2820, 19355.00
179.5050, 19485.00
180.7290, 19399.00
181.9520, 19511.78
183.1760, 19414.00
184.3990, 19663.00
185.6220, 19560.00
186.8450, 19578.00
188.0670, 19679.00
189.2900, 19769.00
190.5120, 19801.00
191.7340, 19863.53
192.9560, 19853.00
194.1780, 19974.00
195.4000, 20180.00
196.6220, 20341.00
197.8430, 20284.00
199.0640, 20400.00
200.2860, 20188.00
201.5070, 20271.00
202.7270, 20238.00
203.9480, 20149.00
205.1690, 19797.00
206.3890, 19889.00
207.6090, 19796.00
208.8290, 19706.00
210.0490, 19785.00
211.2690, 19811.00
212.4890, 19780.38
213.7080, 19636.00
214.9280, 19799.00
216.1470, 19810.00
217.3660, 19894.00
218.5850, 19990.00
219.8030, 19861.00
221.0220, 19978.00
222.2400, 20068.00
223.4590, 19918.00
224.6770, 20075.00
225.8950, 20271.00
227.1120, 20321.00
228.3300, 20177.00
229.5480, 20206.00
230.7650, 20180.00
231.9820, 20409.00
233.1990, 20432.00
234.4160, 20432.00
235.6330, 20552.00
236.8490, 20536.00
238.0660, 20494.00
239.2820, 20544.00
240.4980, 20534.00
241.7140, 20691.00
242.9300, 20556.00
244.1460, 20763.00
245.3610, 20831.75
246.5770, 21128.00
247.7920, 21167.00
249.0070, 21262.00
250.2220, 21615.00
251.4370, 21396.00
252.6510, 21734.00
253.8660, 21779.00
255.0800, 21750.00
256.2940, 21946.00
257.5080, 21955.00
258.7220, 22184.00
259.9360, 22400.00
261.1490, 22067.00
262.3630, 22128.00
263.5760, 22064.00
264.7890, 22208.00
266.0020, 22239.00
267.2150, 22330.00
268.4270, 22361.00
269.6400, 22331.00
270.8520, 22350.00
272.0640, 22850.00
273.2760, 22932.00
274.4880, 22635.00
275.7000, 23204.00
276.9120, 23280.00
278.1230, 23521.00
279.3340, 23672.00
280.5450, 23803.00
281.7560, 24058.00
282.9670, 23725.00
284.1780, 24008.00
285.3880, 23990.00
286.5980, 24199.00
287.8090, 24384.00
289.0190, 24276.00
290.2290, 24382.00
291.4380, 24562.00
292.6480, 24542.00
293.8570, 24655.00
295.0670, 24674.00
296.2760, 24571.00
297.4850, 24734.00
298.6930, 24681.00
299.9020, 24852.00
301.1110, 24930.00
302.3190, 24918.00
303.5270, 25017.00
304.7350, 24595.00
305.9430, 24824.00
307.1510, 24387.00
308.3580, 23992.00
309.5660, 23933.00
310.7730, 23764.00
311.9800, 23495.00
313.1870, 23378.00
314.3940, 23517.00
315.6010, 23636.00
316.8070, 23363.00
318.0130, 23328.00
319.2200, 23191.00
320.4260, 23087.00
321.6310, 23077.00
322.8370, 23068.00
324.0430, 23001.00
325.2480, 22867.00
326.4540, 23023.00
327.6590, 22696.00
328.8640, 22619.00
330.0680, 22486.00
331.2730, 22652.00
332.4780, 22367.00
333.6820, 22563.00
334.8860, 22644.00
336.0900, 22732.00
337.2940, 22767.00
338.4980, 22894.00
339.7010, 22833.00
340.9050, 22972.00
342.1080, 22837.00
343.3110, 23138.00
344.5140, 23182.00
345.7170, 23320.00
346.9200, 23454.00
348.1220, 23824.00
349.3240, 23622.00
350.5270, 23580.00
351.7290, 24051.00
352.9310, 23950.00
354.1320, 23870.00
355.3340, 23910.00
356.5350, 23993.00
357.7370, 23793.00
358.9380, 23755.00
360.1390, 23845.00
361.3400, 23697.00
362.5400, 23541.00
363.7410, 23457.00
364.9410, 23403.76
366.1410, 23284.00
367.3410, 23436.00
368.5410, 23328.00
369.7410, 23475.00
370.9400, 23216.00
372.1400, 23136.00
373.3390, 23468.00
374.5380, 23219.00
375.7370, 23287.00
376.9360, 23353.00
378.1350, 23221.00
379.3330, 23311.00
380.5310, 23365.00
381.7300, 23236.00
382.9280, 23244.00
384.1260, 23399.00
385.3230, 23485.00
386.5210, 23565.00
387.7180, 23627.00
388.9160, 23698.00
390.1130, 23765.22
391.3100, 23864.00
392.5060, 23898.00
393.7030, 24024.00
394.9000, 24100.48
396.0960, 24126.59
397.2920, 24165.00
398.4880, 24106.00
399.6840, 24084.00
400.8800, 23915.00
402.0750, 23948.00
403.2710, 23843.00
404.4660, 23959.00
405.6610, 23750.00
406.8560, 23918.00
408.0510, 23689.00
409.2450, 23646.00
410.4400, 23855.00
411.6340, 23833.00
412.8280, 24008.00
414.0220, 24032.00
415.2160, 24178.00
416.4100, 24033.00
417.6030, 24213.00
418.7970, 24267.00
419.9900, 24188.00
421.1830, 24309.00
422.3760, 24291.00
423.5690, 24317.00
424.7610, 24283.00
425.9540, 24310.21
427.1460, 24328.00
428.3380, 24385.00
429.5300, 24362.00
430.7220, 24471.00
431.9140, 24400.10
433.1050, 24307.00
434.2970, 24353.00
435.4880, 24379.00
436.6790, 24345.80
437.8700, 24296.00
439.0610, 24348.00
440.2510, 24379.00
441.4420, 24406.00
442.6320, 24638.00
443.8220, 24478.00
445.0120, 24559.00
446.2020, 24460.00
447.3910, 24440.00
448.5810, 24524.00
449.7700, 24518.23
450.9600, 24696.00
452.1490, 24671.00
453.3370, 24662.00
454.5260, 24799.00
455.7150, 24822.55
456.9030, 24804.00
458.0910, 24958.00
459.2800, 24974.00
460.4670, 24953.00
461.6550, 25108.00
462.8430, 25148.00
464.0300, 25246.00
465.2180, 25247.51
466.4050, 25166.00
467.5920, 25232.00
468.7790, 25228.00
469.9650, 25275.00
471.1520, 25362.00
472.3380, 25301.00
473.5250, 25399.00
474.7110, 25403.00
475.8970, 25357.95
477.0820, 25568.00
478.2680, 25291.00
479.4540, 25559.00
480.6390, 25601.00
481.8240, 25800.00
483.0090, 25787.00
484.1940, 25689.00
485.3780, 25767.00
486.5630, 25787.00
487.7470, 25772.00
488.9320, 25710.00
490.1160, 25875.00
491.3000, 25652.00
492.4830, 25705.00
493.6670, 25918.00
494.8500, 25783.00
496.0340, 25872.00
497.2170, 26045.00
498.4000, 26121.00
499.5820, 26226.00
500.7650, 26271.85
501.9480, 26361.00
503.1300, 26360.00
504.3120, 26330.00
505.4940, 26471.00
506.6760, 26406.00
507.8580, 26466.00
509.0390, 26455.00
510.2210, 26504.00
511.4020, 26536.00
512.5830, 26435.00
513.7640, 26703.00
514.9450, 26451.00
516.1250, 26657.00
517.3060, 26698.00
518.4860, 26692.00
519.6660, 27099.00
520.8460, 26965.00
522.0260, 27097.00
523.2060, 27195.00
524.3850, 27464.00
525.5650, 27363.00
526.7440, 27445.00
527.9230, 27514.00
529.1020, 27729.00
530.2810, 27346.00
531.4590, 27298.00
532.6380, 27425.00
533.8160, 27460.00
534.9940, 27577.00
536.1720, 27527.00
537.3500, 27677.00
538.5270, 27650.00
539.7050, 27680.00
540.8820, 27852.37
542.0590, 28010.00
543.2360, 28113.00
544.4130, 28268.00
545.5900, 28272.00
546.7660, 28128.00
547.9430, 28293.00
549.1190, 28389.00
550.2950, 28080.00
551.4710, 28210.00
552.6470, 28042.00
553.8220, 28124.00
554.9980, 27905.00
556.1730, 27884.00
557.3480, 28063.00
558.5230, 28021.00
559.6980, 27807.00
560.8730, 27812.00
562.0470, 27692.00
563.2220, 27799.00
564.3960, 27794.00
565.5700, 27810.00
566.7440, 27897.00
567.9170, 27896.00
569.0910, 28028.00
570.2640, 27991.00
571.4380, 28089.00
572.6110, 27954.00
573.7840, 28088.00
574.9570, 28000.00
576.1290, 28065.00
577.3020, 28208.00
578.4740, 28448.00
579.6460, 28251.00
580.8180, 28570.00
581.9900, 28344.00
583.1620, 28467.00
584.3330, 28454.00
585.5040, 28644.00
586.6760, 28541.00
587.8470, 28695.00
589.0180, 28698.00
590.1880, 28639.00
591.3590, 28801.00
592.5290, 28813.00
593.7000, 28740.00
594.8700, 28711.00
596.0400, 28903.00
597.2090, 28868.00
598.3790, 28986.00
599.5490, 28981.00
600.7180, 28733.00
601.8870, 29082.00
603.0560, 28974.00
604.2250, 29217.00
605.3940, 28970.00
606.5620, 29143.00
607.7300, 29068.00
608.8990, 29325.00
610.0670, 29247.00
611.2350, 29283.00
612.4020, 29449.00
613.5700, 29572.00
614.7370, 29828.00
615.9050, 30079.00
617.0720, 30175.00
618.2390, 30488.00
619.4060, 30694.00
620.5720, 30639.00
621.7390, 30541.00
622.9050, 30570.00
624.0710, 30479.00
625.2370, 30497.00
626.4030, 30632.00
627.5690, 30229.00
628.7340, 30241.00
629.9000, 30356.00
631.0650, 30612.00
632.2300, 30480.00
633.3950, 30973.00
634.5600, 30934.00
635.7240, 31245.00
636.8890, 31816.00
638.0530, 32036.00
639.2170, 32611.00
640.3810, 33075.00
641.5450, 33331.00
642.7080, 33627.00
643.8720, 33907.41
645.0350, 34308.00
646.1980, 34328.00
647.3610, 34151.00
648.5240, 34247.00
649.6870, 33920.00
650.8490, 33617.00
652.0120, 33244.00
653.1740, 32490.00
654.3360, 31995.00
655.4980, 31823.00
656.6600, 31478.00
657.8210, 31222.00
658.9830, 31125.00
660.1440, 30940.19
661.3050, 30724.00
662.4660, 30837.00
663.6270, 30830.00
664.7870, 30938.00
665.9480, 30916.26
667.1080, 30917.62
668.2680, 30884.00
669.4280, 30864.00
670.5880, 30869.00
671.7480, 30823.00
672.9070, 30945.00
674.0670, 31245.00
675.2260, 30617.00
676.3850, 30707.00
677.5440, 30951.00
678.7030, 31010.00
679.8610, 30773.00
681.0200, 30973.00
682.1780, 30920.00
683.3360, 30964.00
684.4940, 31107.00
685.6520, 31007.00
686.8090, 31108.00
687.9670, 31183.19
689.1240, 31388.00
690.2810, 31387.00
691.4380, 31553.00
692.5950, 31709.00
693.7520, 31827.54
694.9080, 31943.00
696.0650, 32134.00
697.2210, 32193.00
698.3770, 32289.00
699.5330, 32194.00
700.6880, 31870.00
701.8440, 32023.00
702.9990, 32188.00
704.1550, 31859.00
705.3100, 32003.00
706.4650, 32012.00
707.6190, 31776.00
708.7740, 32059.00
709.9290, 32076.00
711.0830, 32405.00
712.2370, 32452.00
713.3910, 32428.00
714.5450, 32591.00
715.6980, 32651.00
716.8520, 32687.64
718.0050, 32736.00
719.1580, 32738.00
720.3110, 32785.00
721.4640, 32726.00
722.6170, 32636.00
723.7700, 32612.20
724.9220, 32512.00
726.0740, 32473.00
727.2260, 32412.00
728.3780, 32328.00
729.5300, 32343.00
730.6810, 32442.00
731.8330, 32499.00
732.9840, 32386.00
734.1350, 32576.00
735.2860, 32528.00
736.4370, 32611.00
737.5880, 32679.00
738.7380, 32780.00
739.8880, 32737.69
741.0390, 32781.00
742.1890, 32795.41
743.3380, 32788.00
744.4880, 32818.00
745.6380, 32858.00
746.7870, 32896.94
747.9360, 32999.00
749.0850, 32958.00
750.2340, 32971.00
751.3830, 33079.00
752.5310, 33042.00
753.6800, 33018.00
754.8280, 33196.00
755.9760, 33139.00
757.1240, 33187.00
758.2720, 33105.00
759.4190, 33492.00
760.5670, 33248.00
761.7140, 33377.00
762.8610, 33621.00
764.0080, 33317.00
765.1550, 33531.00
766.3020, 33421.00
767.4480, 33472.00
768.5950, 33623.00
769.7410, 33587.00
770.8870, 33482.00
772.0330, 33727.00
773.1780, 33601.00
774.3240, 33891.00
775.4690, 33981.00
776.6140, 33653.00
777.7590, 33815.00
778.9040, 33938.00
780.0490, 34029.00
781.1940, 33921.00
782.3380, 33977.00
783.4820, 34199.00
784.6260, 34324.00
785.7700, 34154.00
786.9140, 34337.00
788.0580, 34248.00
789.2010, 34194.00
790.3450, 34285.00
791.4880, 34371.00
792.6310, 34336.00
793.7730, 34512.00
794.9160, 34667.00
796.0590, 34575.00
797.2010, 34586.00
798.3430, 34530.00
799.4850, 34647.00
800.6270, 34633.00
801.7690, 34579.00
802.9100, 34732.00
804.0520, 35057.00
805.1930, 34966.00
806.3340, 35018.00
807.4750, 34777.00
808.6160, 35117.00
809.7560, 34979.00
810.8970, 35040.00
812.0370, 35192.00
813.1770, 34958.00
814.3170, 35404.00
815.4570, 35250.00
816.5960, 35341.00
817.7360, 35237.00
818.8750, 35437.00
820.0140, 35399.00
821.1530, 35663.00
822.2920, 35629.00
823.4310, 35385.00
824.5690, 35640.00
825.7070, 35641.00
826.8460, 35643.00
827.9840, 35981.00
829.1220, 35753.00
830.2590, 35928.00
831.3970, 36021.00
832.5340, 36287.00
833.6710, 36340.00
834.8080, 36392.00
835.9450, 36480.00
837.0820, 36510.00
838.2190, 36454.00
839.3550, 36695.00
840.4910, 36891.00
841.6270, 36905.21
842.7630, 36590.00
843.8990, 36925.00
845.0350, 36879.00
846.1700, 36631.00
847.3060, 36727.00
848.4410, 36687.00
849.5760, 37118.00
850.7100, 37132.00
851.8450, 36931.00
852.9800, 37215.00
854.1140, 37222.00
855.2480, 37540.00
856.3820, 37787.00
857.5160, 37700.00
858.6500, 37762.00
859.7830, 37527.00
860.9170, 37673.00
862.0500, 37482.00
863.1830, 37369.00
864.3160, 37502.00
865.4480, 37698.00
866.5810, 37598.00
867.7130, 37583.00
868.8460, 37398.00
869.9780, 37448.13
871.1100, 37551.00
872.2410, 37491.00
873.3730, 37619.00
874.5050, 37639.00
875.6360, 37668.00
876.7670, 37427.00
877.8980, 37293.00
879.0290, 37730.00
880.1590, 37636.00
881.2900, 37821.00
882.4200, 37961.00
883.5500, 37762.00
884.6800, 37817.00
885.8100, 37799.00
886.9400, 38105.00
888.0690, 38442.00
889.1990, 38376.00
890.3280, 38620.00
891.4570, 38516.00
892.5860, 38733.00
893.7140, 39055.00
894.8430, 39540.00
895.9710, 39861.00
897.1000, 40267.00
898.2280, 41377.00
899.3560, 42244.00
900.4830, 44011.00
901.6110, 46185.00
902.7380, 47623.00
903.8660, 48899.00
904.9930, 50016.00
906.1200, 50757.00
907.2460, 51138.00
908.3730, 51291.00
909.5000, 50223.00
910.6260, 48719.00
911.7520, 46088.00
912.8780, 43811.00
914.0040, 42385.00
915.1290, 40867.00
916.2550, 40152.00
917.3800, 39864.00
918.5050, 39689.00
919.6300, 39329.00
920.7550, 39367.00
921.8800, 39354.00
923.0040, 39490.00
924.1290, 39427.00
925.2530, 39303.00
926.3770, 39452.00
927.5010, 39129.00
928.6250, 39360.00
929.7480, 39594.00
930.8720, 39456.00
931.9950, 39635.00
933.1180, 39507.00
934.2410, 39440.00
935.3640, 39422.00
936.4860, 39233.00
937.6090, 39266.00
938.7310, 39548.00
939.8530, 39390.00
940.9750, 39495.00
942.0970, 39336.00
943.2180, 39708.00
944.3400, 39832.00
945.4610, 39529.00
946.5820, 39598.00
947.7030, 40053.00
948.8240, 40081.00
949.9450, 39981.00
951.0650, 40253.00
952.1860, 40386.00
953.3060, 40291.00
954.4260, 40231.00
955.5460, 40479.00
956.6650, 40225.00
957.7850, 40123.00
958.9040, 40198.00
960.0230, 40054.91
961.1420, 40003.00
962.2610, 40001.00
963.3800, 39944.00
964.4990, 39937.00
965.6170, 39988.00
966.7350, 39973.00
967.8530, 40000.00
968.9710, 40103.00
970.0890, 39772.00
971.2070, 39957.00
972.3240, 39958.00
973.4410, 40254.00
974.5580, 40226.00
975.6750, 40400.40
976.7920, 40510.00
977.9090, 40720.00
979.0250, 40639.00
980.1410, 40876.00
981.2580, 40743.00
982.3740, 40727.00
983.4890, 40759.00
984.6050, 41025.00
985.7200, 40720.00
986.8360, 40963.00
987.9510, 40736.00
989.0660, 40947.00
990.1810, 40584.00
991.2950, 40992.00
992.4100, 41104.00
993.5240, 41230.00
994.6390, 41085.00
995.7530, 41433.00
996.8660, 41429.00
997.9800, 41596.00
999.0940, 41732.00
1000.207, 41662.00
1001.320, 41760.00
1002.433, 41695.00
1003.546, 41848.00
1004.659, 41743.00
1005.772, 42330.00
1006.884, 42410.00
1007.996, 42441.00
1009.108, 42493.00
1010.220, 42500.00
1011.332, 42629.52
1012.444, 42815.00
1013.555, 42775.00
1014.666, 42789.00
1015.777, 42608.00
1016.888, 42528.00
1017.999, 42558.00
1019.110, 42536.00
1020.220, 42043.00
1021.331, 42191.00
1022.441, 41974.00
1023.551, 42117.00
1024.661, 42089.00
1025.770, 41896.00
1026.880, 41954.00
1027.989, 42034.00
1029.098, 42000.00
1030.207, 42322.00
1031.316, 42272.00
1032.425, 42307.00
1033.533, 42382.00
1034.642, 42121.00
1035.750, 42175.00
1036.858, 42029.00
1037.966, 42168.00
1039.073, 42260.00
1040.181, 42265.00
1041.288, 42333.64
1042.396, 42345.40
1043.503, 42354.00
1044.610, 42332.00
1045.716, 42306.00
1046.823, 42237.00
1047.929, 42369.00
1049.036, 42447.00
1050.142, 42417.00
1051.248, 42609.00
1052.353, 42496.00
1053.459, 42405.00
1054.564, 42354.00
1055.670, 42590.00
1056.775, 42869.00
1057.880, 42614.00
1058.985, 42892.00
1060.089, 42819.00
1061.194, 42797.00
1062.298, 42995.00
1063.402, 42999.00
1064.506, 43066.00
1065.610, 43027.00
1066.713, 43227.00
1067.817, 43069.00
1068.920, 43594.00
1070.023, 43681.00
1071.126, 44293.00
1072.229, 44697.00
1073.332, 45756.00
1074.435, 47401.00
1075.537, 50106.00
1076.639, 51757.00
1077.741, 52819.00
1078.843, 53893.00
1079.945, 55681.00
1081.046, 56451.00
1082.148, 56266.00
1083.249, 54118.00
1084.350, 51357.00
1085.451, 49368.00
1086.551, 49485.00
1087.652, 50469.00
1088.752, 53334.00
1089.853, 54968.00
1090.953, 55804.00
1092.053, 56838.00
1093.152, 57970.00
1094.252, 58963.00
1095.351, 58331.00
1096.451, 55237.00
1097.550, 51234.00
1098.649, 48064.00
1099.748, 45777.00
1100.846, 44869.00
1101.945, 44797.00
1103.043, 44534.00
1104.141, 44695.00
1105.239, 44445.00
1106.337, 44460.00
1107.434, 44248.00
1108.532, 44416.00
1109.629, 44335.00
1110.726, 44772.00
1111.823, 44161.00
1112.920, 44262.00
1114.017, 44594.00
1115.113, 44594.00
1116.210, 44562.00
1117.306, 44379.00
1118.402, 44548.00
1119.498, 44834.00
1120.593, 44678.00
1121.689, 44676.00
1122.784, 44870.00
1123.879, 44693.00
1124.974, 44894.00
1126.069, 44743.00
1127.164, 44823.00
1128.259, 44939.00
1129.353, 45159.00
1130.447, 45054.00
1131.541, 44676.00
1132.635, 45155.00
1133.729, 44729.00
1134.822, 45031.00
1135.916, 44986.00
1137.009, 44944.00
1138.102, 45090.00
1139.195, 44882.00
1140.288, 45268.00
1141.380, 45088.00
1142.473, 44958.00
1143.565, 44891.00
1144.657, 45066.00
1145.749, 45429.00
1146.841, 45052.00
1147.932, 45288.00
1149.024, 44907.00
1150.115, 45383.00
1151.206, 45418.00
1152.297, 45666.00
1153.388, 45572.00
1154.479, 45515.00
1155.569, 45490.00
1156.659, 45483.61
1157.750, 45758.00
1158.839, 45584.00
1159.929, 45709.00
1161.019, 45879.00
1162.108, 45661.00
1163.198, 45723.00
1164.287, 45833.00
1165.376, 45977.00
1166.465, 46035.00
1167.553, 46085.24
1168.642, 46269.00
1169.730, 46094.00
1170.818, 46071.00
1171.906, 46014.00
1172.994, 46431.00
1174.082, 46215.00
1175.170, 46414.00
1176.257, 46035.00
1177.344, 46575.00
1178.431, 46293.00
1179.518, 46168.00
1180.605, 46350.00
1181.691, 46245.18
1182.778, 46324.00
1183.864, 46414.00
1184.950, 46322.00
1186.036, 46482.00
1187.122, 46497.00
1188.207, 46442.00
1189.292, 46487.00
1190.378, 46519.94
1191.463, 46850.00
1192.548, 46635.00
1193.632, 46599.00
1194.717, 46647.60
1195.801, 46461.00
1196.886, 46800.00
1197.970, 46883.00
1199.054, 47031.00
1200.137, 47052.00
1201.221, 47029.00
1202.305, 46950.00
1203.388, 47014.19
1204.471, 46871.00
1205.554, 47121.00
1206.637, 47156.00
1207.719, 47267.00
1208.802, 47067.00
1209.884, 47088.00
1210.966, 47540.00
1212.048, 47614.00
1213.130, 47345.00
1214.212, 47329.00
1215.293, 47153.00
1216.374, 47174.88
1217.456, 47383.00
1218.536, 47353.00
1219.617, 47588.00
1220.698, 47852.00
1221.778, 47804.00
1222.859, 47710.00
1223.939, 47724.00
1225.019, 47674.00
1226.099, 48014.00
1227.178, 47935.00
1228.258, 47640.00
1229.337, 47933.00
1230.417, 48215.00
1231.496, 48178.00
1232.574, 47900.00
1233.653, 48235.00
1234.732, 48435.00
1235.810, 48330.00
1236.888, 48561.00
1237.966, 48257.00
1239.044, 48407.00
1240.122, 48346.00
1241.199, 48324.00
1242.277, 48308.00
1243.354, 48403.00
1244.431, 48407.76
1245.508, 48454.28
1246.585, 48500.00
1247.661, 48581.00
1248.738, 48611.00
1249.814, 48756.00
1250.890, 48607.00
1251.966, 48740.00
1253.042, 48692.00
1254.117, 48574.00
1255.193, 48781.00
1256.268, 48747.00
1257.343, 48706.00
1258.418, 48911.00
1259.493, 48485.00
1260.567, 49247.00
1261.642, 48945.00
1262.716, 49411.00
1263.790, 49236.00
1264.864, 49491.00
1265.938, 49301.00
1267.011, 49591.00
1268.085, 49460.00
1269.158, 49520.00
1270.231, 49808.00
1271.304, 49591.00
1272.377, 49689.00
1273.450, 49872.00
1274.522, 49610.00
1275.594, 49657.00
1276.666, 49525.00
1277.738, 49822.00
1278.810, 49940.00
1279.882, 49564.00
1280.953, 49794.00
1282.025, 49625.00
1283.096, 49874.00
1284.167, 49705.00
1285.238, 50031.00
1286.308, 49886.00
1287.379, 49761.00
1288.449, 50054.00
1289.519, 49966.00
1290.589, 50072.00
1291.659, 50155.00
1292.729, 50334.00
1293.798, 50079.00
1294.868, 50614.00
1295.937, 50516.00
1297.006, 50208.00
1298.075, 50225.00
1299.143, 50245.00
1300.212, 50537.00
1301.280, 50386.00
1302.348, 50467.00
1303.416, 50596.00
1304.484, 50504.00
1305.552, 50526.00
1306.620, 50832.00
1307.687, 50807.00
1308.754, 50824.00
1309.821, 50886.00
1310.888, 51016.00
1311.955, 51037.75
1313.021, 50943.00
1314.088, 51115.00
1315.154, 51259.00
1316.220, 51227.00
1317.286, 51054.00
1318.352, 51293.00
1319.417, 51288.00
1320.483, 51633.00
1321.548, 51351.00
1322.613, 51169.00
1323.678, 51202.00
1324.743, 51285.00
1325.807, 50974.00
1326.872, 51043.00
1327.936, 51194.00
1329.000, 51211.00
1330.064, 51230.00
1331.128, 51227.00
1332.191, 51094.00
1333.255, 51251.00
1334.318, 50973.00
1335.381, 51173.00
1336.444, 51495.00
1337.507, 51239.00
1338.569, 51462.00
1339.632, 51176.00
1340.694, 51311.00
1341.756, 51181.00
1342.818, 51320.00
1343.880, 51295.00
1344.941, 51448.00
1346.003, 51359.00
1347.064, 51474.00
1348.125, 51516.00
1349.186, 51456.00
1350.247, 51606.00
1351.308, 51409.00
1352.368, 51483.00
1353.428, 51390.00
1354.489, 51677.00
1355.549, 51606.00
1356.608, 51432.00
1357.668, 51695.00
1358.727, 51774.00
1359.787, 51684.00
1360.846, 51661.00
1361.905, 51987.00
1362.964, 52050.00
1364.022, 51919.00
1365.081, 51898.00
1366.139, 51933.00
1367.197, 51914.40
1368.255, 51978.00
1369.313, 52013.00
1370.371, 52006.00
1371.428, 52095.00
1372.486, 52103.71
1373.543, 52210.00
1374.600, 52114.00
1375.657, 52264.00
1376.713, 52163.00
1377.770, 52301.00
1378.826, 52344.00
1379.882, 52485.00
1380.938, 52622.00
1381.994, 52334.00
1383.050, 52559.00
1384.106, 52501.00
1385.161, 52836.00
1386.216, 52774.00
1387.271, 52638.00
1388.326, 52651.00
1389.381, 52534.00
1390.435, 52894.00
1391.490, 52715.00
1392.544, 52646.00
1393.598, 52574.00
1394.652, 52994.00
1395.705, 53021.00
1396.759, 52849.00
1397.812, 52936.00
1398.866, 52829.00
1399.919, 53277.00
1400.972, 53711.00
1402.024, 52980.00
1403.077, 52724.00
1404.129, 52986.00
1405.181, 53224.00
1406.233, 53393.00
1407.285, 53134.00
1408.337, 53304.00
1409.389, 53293.00
1410.440, 53433.00
1411.491, 53333.00
1412.542, 53873.00
1413.593, 53386.00
1414.644, 53635.00
1415.695, 53556.00
1416.745, 53214.00
1417.795, 53508.00
1418.845, 53478.00
1419.895, 53525.00
1420.945, 53606.00
1421.995, 53643.01
1423.044, 53736.59
1424.093, 53811.00
1425.142, 53912.00
1426.191, 54041.00
1427.240, 54121.00
1428.289, 54372.00
1429.337, 54476.02
1430.385, 54331.00
1431.433, 54717.00
1432.481, 54671.00
1433.529, 54631.00
1434.577, 54751.00
1435.624, 54985.00
1436.672, 54732.00
1437.719, 55181.00
1438.766, 55282.00
1439.812, 55353.00
1440.859, 55279.00
1441.905, 55434.00
1442.952, 55476.85
1443.998, 55623.00
1445.044, 55596.00
1446.090, 55751.00
1447.135, 55668.00
1448.181, 55819.10
1449.226, 55852.00
1450.271, 56014.00
1451.316, 56030.00
1452.361, 56008.00
1453.405, 56049.37
1454.450, 56031.50
1455.494, 56002.00
1456.538, 56061.00
1457.582, 56020.00
1458.626, 56123.00
1459.670, 55931.00
1460.713, 56140.00
1461.757, 55940.00
1462.800, 55870.00
1463.843, 55818.00
1464.886, 56087.00
1465.928, 55660.00
1466.971, 55809.00
1468.013, 55694.00
1469.055, 55611.00
1470.097, 55866.00
1471.139, 55773.00
1472.181, 55570.00
1473.222, 55688.00
1474.263, 55828.00
1475.305, 55544.00
1476.346, 55933.00
1477.386, 55672.00
1478.427, 55763.00
1479.468, 55992.00
1480.508, 55867.00
1481.548, 55669.00
1482.588, 55809.00
1483.628, 55927.00
1484.668, 55695.00
1485.707, 55604.00
1486.747, 55820.00
1487.786, 55618.00
1488.825, 55705.00
1489.864, 55980.00
1490.902, 55691.00
1491.941, 55770.00
1492.979, 55648.00
1494.017, 55702.00
1495.055, 55849.00
1496.093, 56064.00
1497.131, 56214.00
1498.168, 56364.98
1499.206, 56403.00
1500.243, 56554.00
1501.280, 56634.00
1502.317, 56522.00
1503.354, 56473.00
1504.390, 56337.00
1505.426, 56224.00
1506.463, 56273.00
1507.499, 56401.00
1508.535, 56340.00
1509.570, 56409.00
1510.606, 56443.00
1511.641, 56482.55
1512.676, 56308.00
1513.711, 56607.00
1514.746, 56590.00
1515.781, 56628.00
1516.816, 56365.00
1517.850, 56841.00
1518.884, 56701.00
1519.918, 56583.00
1520.952, 56767.00
1521.986, 56696.00
1523.019, 56652.00
1524.053, 57000.00
1525.086, 56899.00
1526.119, 56805.00
1527.152, 56824.00
1528.185, 56914.00
1529.217, 57284.00
1530.250, 56709.00
1531.282, 57364.00
1532.314, 57135.00
1533.346, 56934.00
1534.377, 57288.00
1535.409, 57345.00
1536.440, 57230.00
1537.472, 57068.00
1538.503, 57356.00
1539.534, 57267.00
1540.564, 57345.00
1541.595, 57301.00
1542.625, 57456.00
1543.656, 57220.00
1544.686, 57643.00
1545.716, 57673.00
1546.745, 57509.00
1547.775, 57656.00
1548.804, 57598.00
1549.834, 57589.00
1550.863, 57818.00
1551.892, 57948.00
1552.920, 57730.00
1553.949, 57734.00
1554.977, 58009.00
1556.006, 57846.00
1557.034, 57864.00
1558.062, 57855.00
1559.089, 58090.00
1560.117, 57948.00
1561.144, 57943.00
1562.172, 58424.00
1563.199, 58169.00
1564.226, 58183.00
1565.252, 58057.00
1566.279, 58383.00
1567.305, 58168.00
1568.332, 58857.00
1569.358, 58402.00
1570.384, 58412.00
1571.409, 58909.00
##END=



