##NAMES=Tilleyite
##RRUFFID=R050227
##IDEAL CHEMISTRY=Ca_5_Si_2_O_7_(CO_3_)_2_
##LOCALITY=Crestmore Quarry, Riverside County, California, USA
##OWNER=RRUFF
##SOURCE=Marcus Origlieri
##DESCRIPTION=Aggregate of colorless subhedral crystals
##STATUS=The identification of this mineral has been confirmed by X-ray diffraction.
##URL=rruff.info/R050227
##PIN_ID=L00383
##ORIENTATION=Laser parallel to a* (1 0 0). Fiducial mark perpendicular to laser is parallel to b [0 1 0]
95.94800, 17969.00
97.18200, 18137.00
98.41600, 18609.00
99.64900, 18601.00
100.8830, 19009.00
102.1160, 18919.00
103.3490, 18858.00
104.5820, 18981.00
105.8150, 19314.00
107.0470, 19820.00
108.2800, 20066.00
109.5120, 20628.00
110.7440, 20370.00
111.9760, 20572.00
113.2080, 20557.00
114.4400, 20799.00
115.6710, 20639.00
116.9030, 20692.00
118.1340, 20406.00
119.3650, 20590.00
120.5960, 20547.00
121.8270, 20591.00
123.0580, 20584.00
124.2880, 20540.00
125.5190, 20438.00
126.7490, 20209.00
127.9790, 19777.00
129.2090, 19601.00
130.4390, 19437.00
131.6680, 19271.00
132.8980, 19274.00
134.1270, 19543.00
135.3560, 19478.00
136.5850, 19748.00
137.8140, 19887.00
139.0430, 20097.00
140.2710, 20071.00
141.5000, 20240.00
142.7280, 20131.00
143.9560, 20323.00
145.1840, 20688.00
146.4120, 20558.00
147.6390, 20659.00
148.8670, 21191.00
150.0940, 21186.00
151.3210, 21271.00
152.5490, 20979.00
153.7750, 20878.00
155.0020, 20942.00
156.2290, 21084.00
157.4550, 21035.00
158.6810, 21018.00
159.9080, 21002.00
161.1340, 20757.00
162.3590, 20570.00
163.5850, 20008.00
164.8110, 19732.00
166.0360, 19363.00
167.2610, 19129.00
168.4860, 19197.00
169.7110, 19012.00
170.9360, 19132.00
172.1610, 19102.32
173.3850, 19201.00
174.6100, 19180.00
175.8340, 19283.00
177.0580, 19416.00
178.2820, 19503.00
179.5050, 19479.00
180.7290, 19494.00
181.9520, 19564.00
183.1760, 19653.00
184.3990, 19616.00
185.6220, 19727.00
186.8450, 19710.00
188.0670, 19888.00
189.2900, 19867.00
190.5120, 19876.00
191.7340, 20124.00
192.9560, 20107.00
194.1780, 20322.00
195.4000, 20268.00
196.6220, 20557.00
197.8430, 20691.00
199.0640, 20669.00
200.2860, 20467.00
201.5070, 20583.00
202.7270, 20411.00
203.9480, 20247.00
205.1690, 20107.00
206.3890, 19851.00
207.6090, 19886.00
208.8290, 19758.00
210.0490, 19656.00
211.2690, 19747.00
212.4890, 19721.00
213.7080, 19800.00
214.9280, 19798.00
216.1470, 19811.41
217.3660, 19822.00
218.5850, 19884.00
219.8030, 19760.00
221.0220, 19897.00
222.2400, 19894.00
223.4590, 20008.00
224.6770, 20108.00
225.8950, 20165.00
227.1120, 20322.00
228.3300, 20296.51
229.5480, 20345.15
230.7650, 20258.00
231.9820, 20363.00
233.1990, 20328.00
234.4160, 20369.00
235.6330, 20311.00
236.8490, 20398.00
238.0660, 20261.00
239.2820, 20347.00
240.4980, 20480.00
241.7140, 20483.00
242.9300, 20690.00
244.1460, 20988.00
245.3610, 21033.00
246.5770, 21125.00
247.7920, 21171.00
249.0070, 21624.00
250.2220, 21650.00
251.4370, 21749.00
252.6510, 22125.00
253.8660, 22060.00
255.0800, 22255.00
256.2940, 22259.00
257.5080, 22136.00
258.7220, 22502.00
259.9360, 22697.00
261.1490, 22330.00
262.3630, 22450.00
263.5760, 22313.00
264.7890, 22508.00
266.0020, 22459.00
267.2150, 22460.00
268.4270, 22385.00
269.6400, 22389.00
270.8520, 22643.00
272.0640, 22985.00
273.2760, 22984.00
274.4880, 23380.00
275.7000, 23511.00
276.9120, 23807.00
278.1230, 24036.00
279.3340, 24045.00
280.5450, 24355.00
281.7560, 24492.00
282.9670, 24589.00
284.1780, 24831.00
285.3880, 24832.00
286.5980, 24804.00
287.8090, 25062.00
289.0190, 25078.00
290.2290, 25089.00
291.4380, 25337.00
292.6480, 25193.00
293.8570, 25349.00
295.0670, 25500.00
296.2760, 25526.00
297.4850, 25605.30
298.6930, 25659.50
299.9020, 25600.00
301.1110, 25688.00
302.3190, 25584.00
303.5270, 25494.00
304.7350, 25496.00
305.9430, 25347.00
307.1510, 24721.00
308.3580, 24542.00
309.5660, 24172.00
310.7730, 24073.00
311.9800, 23877.00
313.1870, 23638.00
314.3940, 23558.00
315.6010, 23495.00
316.8070, 23571.00
318.0130, 23373.00
319.2200, 23063.00
320.4260, 23115.00
321.6310, 23087.00
322.8370, 22966.00
324.0430, 22913.00
325.2480, 22639.00
326.4540, 22516.00
327.6590, 22446.00
328.8640, 22371.00
330.0680, 22124.00
331.2730, 22230.00
332.4780, 22123.00
333.6820, 22348.00
334.8860, 22241.00
336.0900, 22302.00
337.2940, 22529.00
338.4980, 22482.00
339.7010, 22486.00
340.9050, 22413.00
342.1080, 22758.00
343.3110, 22977.00
344.5140, 23010.00
345.7170, 23216.00
346.9200, 23151.00
348.1220, 23376.00
349.3240, 23593.00
350.5270, 23728.00
351.7290, 23973.00
352.9310, 23952.00
354.1320, 24023.00
355.3340, 23991.00
356.5350, 23872.18
357.7370, 23838.98
358.9380, 23645.00
360.1390, 23583.00
361.3400, 23634.00
362.5400, 23398.00
363.7410, 23302.00
364.9410, 23088.00
366.1410, 23099.00
367.3410, 22947.00
368.5410, 22828.00
369.7410, 22891.00
370.9400, 22795.00
372.1400, 22823.00
373.3390, 22747.00
374.5380, 22705.10
375.7370, 22773.00
376.9360, 22628.00
378.1350, 22579.00
379.3330, 22580.33
380.5310, 22576.60
381.7300, 22684.00
382.9280, 22706.00
384.1260, 22766.00
385.3230, 22883.00
386.5210, 22857.00
387.7180, 23259.00
388.9160, 23038.00
390.1130, 23248.00
391.3100, 23329.00
392.5060, 23268.00
393.7030, 23393.00
394.9000, 23297.00
396.0960, 23568.00
397.2920, 23471.00
398.4880, 23637.43
399.6840, 23563.34
400.8800, 23789.00
402.0750, 23460.00
403.2710, 23224.00
404.4660, 23352.00
405.6610, 23209.00
406.8560, 23233.00
408.0510, 23300.00
409.2450, 23172.00
410.4400, 23235.00
411.6340, 23175.00
412.8280, 23309.00
414.0220, 23313.00
415.2160, 23193.00
416.4100, 23392.00
417.6030, 23411.00
418.7970, 23543.00
419.9900, 23574.00
421.1830, 23488.00
422.3760, 23524.00
423.5690, 23652.00
424.7610, 23766.00
425.9540, 23658.00
427.1460, 23587.00
428.3380, 23516.00
429.5300, 23563.00
430.7220, 23465.00
431.9140, 23523.00
433.1050, 23582.00
434.2970, 23411.00
435.4880, 23642.00
436.6790, 23457.00
437.8700, 23516.00
439.0610, 23277.00
440.2510, 23444.00
441.4420, 23554.00
442.6320, 23721.00
443.8220, 23603.00
445.0120, 23609.00
446.2020, 23436.00
447.3910, 23676.00
448.5810, 23788.00
449.7700, 23658.00
450.9600, 23804.00
452.1490, 23568.00
453.3370, 23679.00
454.5260, 23861.00
455.7150, 23900.00
456.9030, 24063.00
458.0910, 24054.69
459.2800, 23982.00
460.4670, 24055.00
461.6550, 24008.00
462.8430, 24075.00
464.0300, 24153.00
465.2180, 24171.00
466.4050, 24226.00
467.5920, 24225.00
468.7790, 24155.00
469.9650, 24207.00
471.1520, 24387.00
472.3380, 24520.00
473.5250, 24357.00
474.7110, 24523.00
475.8970, 24417.00
477.0820, 24689.00
478.2680, 24454.00
479.4540, 24697.00
480.6390, 24587.00
481.8240, 24754.00
483.0090, 24745.00
484.1940, 24654.00
485.3780, 24889.00
486.5630, 24739.00
487.7470, 24633.00
488.9320, 24707.00
490.1160, 24650.00
491.3000, 24717.00
492.4830, 25065.00
493.6670, 24739.00
494.8500, 24930.00
496.0340, 25000.00
497.2170, 24665.00
498.4000, 25087.00
499.5820, 25108.00
500.7650, 25185.00
501.9480, 25028.00
503.1300, 25122.39
504.3120, 25417.00
505.4940, 25243.00
506.6760, 25381.00
507.8580, 25586.00
509.0390, 25562.00
510.2210, 25411.00
511.4020, 25589.00
512.5830, 25539.00
513.7640, 25570.00
514.9450, 25378.00
516.1250, 25738.00
517.3060, 25750.00
518.4860, 25799.00
519.6660, 26030.00
520.8460, 26259.00
522.0260, 26391.00
523.2060, 26481.04
524.3850, 26558.00
525.5650, 26488.00
526.7440, 26599.00
527.9230, 26470.00
529.1020, 26576.00
530.2810, 26791.00
531.4590, 26593.00
532.6380, 26555.00
533.8160, 26799.00
534.9940, 26525.00
536.1720, 26730.00
537.3500, 26633.00
538.5270, 26736.00
539.7050, 27062.00
540.8820, 27082.00
542.0590, 27230.00
543.2360, 27232.00
544.4130, 27320.00
545.5900, 27602.00
546.7660, 27176.00
547.9430, 27465.00
549.1190, 27437.00
550.2950, 27235.00
551.4710, 27221.00
552.6470, 27276.00
553.8220, 27029.00
554.9980, 26724.00
556.1730, 26957.00
557.3480, 26703.00
558.5230, 26830.00
559.6980, 26748.00
560.8730, 26715.00
562.0470, 26519.00
563.2220, 26485.00
564.3960, 26727.00
565.5700, 26685.00
566.7440, 26819.00
567.9170, 26744.00
569.0910, 26713.00
570.2640, 26895.00
571.4380, 26876.00
572.6110, 26733.00
573.7840, 26709.00
574.9570, 27022.00
576.1290, 26928.00
577.3020, 26936.00
578.4740, 26849.00
579.6460, 27120.00
580.8180, 27020.00
581.9900, 27103.00
583.1620, 27265.00
584.3330, 27279.00
585.5040, 27065.00
586.6760, 27273.00
587.8470, 27347.00
589.0180, 27082.00
590.1880, 27562.00
591.3590, 27403.00
592.5290, 27590.00
593.7000, 27406.00
594.8700, 27531.00
596.0400, 27421.00
597.2090, 27750.00
598.3790, 27738.00
599.5490, 27665.00
600.7180, 27634.00
601.8870, 27714.00
603.0560, 27631.00
604.2250, 27722.00
605.3940, 27733.00
606.5620, 28070.00
607.7300, 27757.00
608.8990, 27877.00
610.0670, 28131.00
611.2350, 28054.00
612.4020, 28285.55
613.5700, 28452.00
614.7370, 28561.00
615.9050, 28649.00
617.0720, 28725.00
618.2390, 29177.00
619.4060, 29246.00
620.5720, 29405.00
621.7390, 29344.00
622.9050, 29585.00
624.0710, 29468.00
625.2370, 29136.00
626.4030, 29236.00
627.5690, 29314.00
628.7340, 29318.00
629.9000, 29304.00
631.0650, 29400.00
632.2300, 29661.00
633.3950, 29849.00
634.5600, 30301.00
635.7240, 30719.98
636.8890, 31128.36
638.0530, 31816.00
639.2170, 32146.00
640.3810, 32791.00
641.5450, 33443.00
642.7080, 33957.00
643.8720, 34643.00
645.0350, 34772.00
646.1980, 34999.00
647.3610, 34978.00
648.5240, 34572.00
649.6870, 34518.00
650.8490, 33602.00
652.0120, 33110.00
653.1740, 32410.00
654.3360, 31496.00
655.4980, 31107.00
656.6600, 30572.00
657.8210, 30271.00
658.9830, 29982.00
660.1440, 29708.00
661.3050, 29684.00
662.4660, 29637.00
663.6270, 29536.00
664.7870, 29320.00
665.9480, 29373.00
667.1080, 29505.00
668.2680, 29289.00
669.4280, 29080.00
670.5880, 29275.00
671.7480, 29314.00
672.9070, 29082.00
674.0670, 29182.00
675.2260, 29188.00
676.3850, 29437.00
677.5440, 29492.00
678.7030, 29362.00
679.8610, 29187.00
681.0200, 29317.00
682.1780, 29431.00
683.3360, 29436.00
684.4940, 29522.18
685.6520, 29599.00
686.8090, 29543.00
687.9670, 29692.00
689.1240, 29598.00
690.2810, 29920.00
691.4380, 30181.00
692.5950, 30085.00
693.7520, 30244.00
694.9080, 30460.00
696.0650, 30830.00
697.2210, 30805.00
698.3770, 30742.00
699.5330, 30789.00
700.6880, 30693.00
701.8440, 30877.00
702.9990, 30512.00
704.1550, 30721.00
705.3100, 30625.00
706.4650, 30460.00
707.6190, 30290.00
708.7740, 30423.00
709.9290, 30710.00
711.0830, 30669.00
712.2370, 30882.00
713.3910, 30886.00
714.5450, 31084.00
715.6980, 31223.00
716.8520, 31411.00
718.0050, 31469.00
719.1580, 31563.00
720.3110, 31269.00
721.4640, 31270.00
722.6170, 31057.00
723.7700, 31159.00
724.9220, 31025.00
726.0740, 30902.00
727.2260, 30906.00
728.3780, 30710.00
729.5300, 30763.00
730.6810, 30832.00
731.8330, 30735.00
732.9840, 30775.00
734.1350, 30841.00
735.2860, 30855.00
736.4370, 30806.00
737.5880, 30937.00
738.7380, 30926.00
739.8880, 31058.00
741.0390, 30928.00
742.1890, 31003.00
743.3380, 30996.00
744.4880, 31206.00
745.6380, 31132.00
746.7870, 31280.00
747.9360, 31006.00
749.0850, 31299.00
750.2340, 31465.00
751.3830, 31188.00
752.5310, 31532.00
753.6800, 31437.00
754.8280, 31256.00
755.9760, 31446.00
757.1240, 31381.00
758.2720, 31551.00
759.4190, 31450.00
760.5670, 31568.00
761.7140, 31709.00
762.8610, 31806.00
764.0080, 31648.00
765.1550, 31934.00
766.3020, 31756.00
767.4480, 31826.00
768.5950, 31866.00
769.7410, 31822.00
770.8870, 31850.00
772.0330, 31978.00
773.1780, 32281.00
774.3240, 32170.00
775.4690, 32270.00
776.6140, 32107.00
777.7590, 32228.00
778.9040, 32121.00
780.0490, 32271.00
781.1940, 32293.00
782.3380, 32335.00
783.4820, 32414.72
784.6260, 32269.00
785.7700, 32561.00
786.9140, 32507.00
788.0580, 32662.71
789.2010, 32546.00
790.3450, 32826.00
791.4880, 32682.00
792.6310, 32827.00
793.7730, 32568.00
794.9160, 32807.00
796.0590, 32847.00
797.2010, 32675.00
798.3430, 32713.00
799.4850, 32907.00
800.6270, 32698.00
801.7690, 32947.00
802.9100, 33076.00
804.0520, 32990.00
805.1930, 33147.04
806.3340, 32925.00
807.4750, 33155.00
808.6160, 33205.00
809.7560, 33051.00
810.8970, 33325.00
812.0370, 33258.00
813.1770, 33337.00
814.3170, 33293.00
815.4570, 33436.00
816.5960, 33514.00
817.7360, 33650.00
818.8750, 33494.00
820.0140, 33845.00
821.1530, 33706.00
822.2920, 33657.00
823.4310, 33770.00
824.5690, 33607.00
825.7070, 34064.00
826.8460, 33911.00
827.9840, 34199.00
829.1220, 33951.00
830.2590, 34317.00
831.3970, 34341.00
832.5340, 34453.00
833.6710, 34470.00
834.8080, 34780.00
835.9450, 34672.00
837.0820, 34973.00
838.2190, 35121.00
839.3550, 34964.00
840.4910, 34922.00
841.6270, 34938.00
842.7630, 34860.00
843.8990, 34966.00
845.0350, 34830.00
846.1700, 34846.00
847.3060, 35110.00
848.4410, 35145.00
849.5760, 35080.00
850.7100, 35112.00
851.8450, 35528.00
852.9800, 35228.00
854.1140, 35586.00
855.2480, 35635.00
856.3820, 35724.00
857.5160, 35996.00
858.6500, 35677.00
859.7830, 35783.00
860.9170, 35970.00
862.0500, 35797.00
863.1830, 35556.00
864.3160, 35671.00
865.4480, 35810.00
866.5810, 36045.00
867.7130, 35822.00
868.8460, 35964.00
869.9780, 35938.00
871.1100, 35602.00
872.2410, 35738.00
873.3730, 35342.00
874.5050, 35638.00
875.6360, 35633.00
876.7670, 35521.00
877.8980, 35913.00
879.0290, 35816.00
880.1590, 35955.00
881.2900, 35895.00
882.4200, 36192.00
883.5500, 35958.00
884.6800, 36044.00
885.8100, 36282.00
886.9400, 36351.00
888.0690, 36452.00
889.1990, 36318.00
890.3280, 36801.00
891.4570, 37038.00
892.5860, 37066.00
893.7140, 37727.00
894.8430, 38010.00
895.9710, 38839.00
897.1000, 39727.00
898.2280, 41262.58
899.3560, 42678.00
900.4830, 45260.00
901.6110, 47953.00
902.7380, 50752.00
903.8660, 52615.00
904.9930, 54280.00
906.1200, 55050.00
907.2460, 56045.00
908.3730, 55574.00
909.5000, 53930.00
910.6260, 51554.00
911.7520, 48038.00
912.8780, 44686.00
914.0040, 42102.00
915.1290, 40301.00
916.2550, 39294.00
917.3800, 38486.00
918.5050, 38327.00
919.6300, 38026.00
920.7550, 37613.00
921.8800, 37610.00
923.0040, 37658.00
924.1290, 37814.00
925.2530, 37680.00
926.3770, 37783.00
927.5010, 37891.00
928.6250, 37959.00
929.7480, 37926.18
930.8720, 37896.59
931.9950, 37791.00
933.1180, 37668.00
934.2410, 37579.00
935.3640, 37372.00
936.4860, 37357.00
937.6090, 37254.00
938.7310, 37249.00
939.8530, 37327.29
940.9750, 37621.00
942.0970, 37559.00
943.2180, 37694.00
944.3400, 37845.00
945.4610, 37875.00
946.5820, 38177.00
947.7030, 38224.00
948.8240, 38346.00
949.9450, 38423.00
951.0650, 38405.07
952.1860, 38611.00
953.3060, 38382.00
954.4260, 38332.00
955.5460, 38386.00
956.6650, 38174.00
957.7850, 37929.00
958.9040, 37957.00
960.0230, 37797.00
961.1420, 37855.00
962.2610, 37858.00
963.3800, 37826.00
964.4990, 37889.00
965.6170, 37830.00
966.7350, 37894.00
967.8530, 37918.00
968.9710, 37957.00
970.0890, 38004.00
971.2070, 37941.00
972.3240, 38100.00
973.4410, 38272.00
974.5580, 38277.00
975.6750, 38241.00
976.7920, 38487.00
977.9090, 38571.00
979.0250, 38535.00
980.1410, 38652.00
981.2580, 38948.00
982.3740, 38985.00
983.4890, 38871.00
984.6050, 38854.00
985.7200, 38819.00
986.8360, 38909.00
987.9510, 38591.00
989.0660, 38517.00
990.1810, 38624.00
991.2950, 38776.00
992.4100, 38994.00
993.5240, 38496.00
994.6390, 38981.00
995.7530, 39072.00
996.8660, 39542.00
997.9800, 39308.00
999.0940, 39580.00
1000.207, 39756.00
1001.320, 39727.00
1002.433, 39768.00
1003.546, 39922.00
1004.659, 40248.00
1005.772, 40318.00
1006.884, 40517.00
1007.996, 40316.00
1009.108, 40919.00
1010.220, 40610.00
1011.332, 41032.00
1012.444, 40826.00
1013.555, 41009.00
1014.666, 41170.00
1015.777, 40396.00
1016.888, 40588.00
1017.999, 40287.00
1019.110, 40181.00
1020.220, 40217.00
1021.331, 40392.00
1022.441, 39962.00
1023.551, 39741.00
1024.661, 39929.00
1025.770, 40009.00
1026.880, 39844.00
1027.989, 40004.00
1029.098, 39896.00
1030.207, 40030.00
1031.316, 40062.00
1032.425, 39941.00
1033.533, 40011.00
1034.642, 39915.00
1035.750, 39962.00
1036.858, 39920.00
1037.966, 39856.00
1039.073, 39838.00
1040.181, 39980.00
1041.288, 39942.00
1042.396, 39985.47
1043.503, 40004.86
1044.610, 40045.00
1045.716, 39953.00
1046.823, 40025.00
1047.929, 39908.00
1049.036, 40247.00
1050.142, 40096.00
1051.248, 40126.00
1052.353, 40338.00
1053.459, 40052.00
1054.564, 40002.00
1055.670, 40323.00
1056.775, 40340.00
1057.880, 40292.00
1058.985, 40268.00
1060.089, 40288.00
1061.194, 40773.00
1062.298, 40703.00
1063.402, 40969.00
1064.506, 40798.00
1065.610, 40721.00
1066.713, 40985.00
1067.817, 41179.00
1068.920, 41089.00
1070.023, 41642.00
1071.126, 41795.00
1072.229, 42595.00
1073.332, 43995.00
1074.435, 46036.00
1075.537, 50311.00
1076.639, 53594.00
1077.741, 54676.00
1078.843, 56532.00
1079.945, 58551.00
1081.046, 59057.00
1082.148, 58383.00
1083.249, 55779.00
1084.350, 52178.00
1085.451, 49338.00
1086.551, 48717.00
1087.652, 50534.00
1088.752, 54836.00
1089.853, 58378.00
1090.953, 59533.00
1092.053, 61240.00
1093.152, 62930.00
1094.252, 62902.00
1095.351, 61386.00
1096.451, 57739.00
1097.550, 52328.00
1098.649, 47270.00
1099.748, 44773.00
1100.846, 43256.00
1101.945, 42481.00
1103.043, 42245.00
1104.141, 42221.00
1105.239, 41961.00
1106.337, 42066.00
1107.434, 42252.00
1108.532, 42243.00
1109.629, 42278.00
1110.726, 41830.00
1111.823, 42009.00
1112.920, 41928.00
1114.017, 41880.00
1115.113, 41909.00
1116.210, 42040.00
1117.306, 42001.12
1118.402, 42114.00
1119.498, 42090.00
1120.593, 42137.00
1121.689, 42306.00
1122.784, 42214.00
1123.879, 42322.00
1124.974, 42430.00
1126.069, 42190.00
1127.164, 42138.00
1128.259, 42287.00
1129.353, 42226.00
1130.447, 42191.00
1131.541, 42511.00
1132.635, 42301.00
1133.729, 42462.00
1134.822, 42786.00
1135.916, 42636.00
1137.009, 42549.00
1138.102, 42625.00
1139.195, 42544.00
1140.288, 42321.00
1141.380, 42491.00
1142.473, 42778.00
1143.565, 42406.00
1144.657, 42617.00
1145.749, 42583.00
1146.841, 42456.00
1147.932, 42535.00
1149.024, 42987.00
1150.115, 42819.00
1151.206, 42898.00
1152.297, 42871.00
1153.388, 42636.00
1154.479, 42851.00
1155.569, 42767.00
1156.659, 42953.00
1157.750, 43071.81
1158.839, 42983.00
1159.929, 43323.00
1161.019, 43354.00
1162.108, 43388.00
1163.198, 43406.00
1164.287, 43467.09
1165.376, 43444.00
1166.465, 43533.00
1167.553, 43546.84
1168.642, 43283.00
1169.730, 43657.00
1170.818, 43640.00
1171.906, 43790.00
1172.994, 43523.00
1174.082, 43762.00
1175.170, 43377.00
1176.257, 43626.00
1177.344, 43890.00
1178.431, 43390.00
1179.518, 43898.00
1180.605, 43855.00
1181.691, 43541.00
1182.778, 43757.00
1183.864, 43854.00
1184.950, 43787.00
1186.036, 44024.00
1187.122, 43989.00
1188.207, 43844.00
1189.292, 43921.00
1190.378, 43896.00
1191.463, 43861.00
1192.548, 43868.00
1193.632, 43973.00
1194.717, 44016.84
1195.801, 43952.00
1196.886, 44164.00
1197.970, 44267.00
1199.054, 44233.00
1200.137, 44334.00
1201.221, 44509.00
1202.305, 44197.00
1203.388, 44402.00
1204.471, 44433.00
1205.554, 44114.00
1206.637, 44385.00
1207.719, 44536.00
1208.802, 44450.00
1209.884, 44566.00
1210.966, 44496.00
1212.048, 44722.00
1213.130, 44613.00
1214.212, 44735.00
1215.293, 44839.00
1216.374, 44946.00
1217.456, 44443.00
1218.536, 45149.00
1219.617, 44747.00
1220.698, 44893.00
1221.778, 45008.00
1222.859, 45031.00
1223.939, 44943.00
1225.019, 45087.18
1226.099, 45095.00
1227.178, 45202.00
1228.258, 45215.00
1229.337, 45136.00
1230.417, 45205.00
1231.496, 45245.00
1232.574, 45388.00
1233.653, 45422.00
1234.732, 45831.00
1235.810, 45421.00
1236.888, 45255.00
1237.966, 45540.00
1239.044, 45698.00
1240.122, 45650.00
1241.199, 45819.98
1242.277, 45809.27
1243.354, 45877.00
1244.431, 45885.00
1245.508, 45805.00
1246.585, 45972.00
1247.661, 45805.00
1248.738, 45947.00
1249.814, 46120.00
1250.890, 45847.00
1251.966, 46007.00
1253.042, 45935.00
1254.117, 46071.00
1255.193, 46070.00
1256.268, 45953.00
1257.343, 45878.00
1258.418, 46267.00
1259.493, 46239.00
1260.567, 46413.00
1261.642, 46404.00
1262.716, 46490.00
1263.790, 46701.00
1264.864, 46707.00
1265.938, 47001.00
1267.011, 46923.00
1268.085, 46692.00
1269.158, 47056.00
1270.231, 46802.00
1271.304, 46741.00
1272.377, 46822.00
1273.450, 47176.00
1274.522, 47082.00
1275.594, 47106.00
1276.666, 47141.00
1277.738, 47143.00
1278.810, 47266.00
1279.882, 46963.00
1280.953, 47142.00
1282.025, 46941.00
1283.096, 46971.00
1284.167, 47200.00
1285.238, 47170.00
1286.308, 47164.00
1287.379, 47332.00
1288.449, 47202.00
1289.519, 47081.00
1290.589, 47303.00
1291.659, 47594.00
1292.729, 47473.00
1293.798, 47282.00
1294.868, 47641.00
1295.937, 47456.00
1297.006, 47372.00
1298.075, 47473.00
1299.143, 47406.52
1300.212, 47641.00
1301.280, 47536.00
1302.348, 47743.00
1303.416, 47937.00
1304.484, 47727.00
1305.552, 48066.00
1306.620, 48326.00
1307.687, 48133.00
1308.754, 48116.00
1309.821, 47949.00
1310.888, 48343.00
1311.955, 48091.00
1313.021, 47778.00
1314.088, 48454.00
1315.154, 48360.00
1316.220, 48539.00
1317.286, 48479.00
1318.352, 48494.00
1319.417, 48351.00
1320.483, 48247.00
1321.548, 48269.19
1322.613, 48401.00
1323.678, 48244.00
1324.743, 48257.00
1325.807, 48170.21
1326.872, 48389.00
1327.936, 48151.00
1329.000, 48258.00
1330.064, 48353.00
1331.128, 48095.00
1332.191, 48240.00
1333.255, 48250.00
1334.318, 48056.00
1335.381, 48174.00
1336.444, 48096.00
1337.507, 47937.00
1338.569, 48603.00
1339.632, 48123.00
1340.694, 47946.00
1341.756, 48481.00
1342.818, 48164.00
1343.880, 48331.00
1344.941, 48563.00
1346.003, 48672.00
1347.064, 48594.00
1348.125, 48614.00
1349.186, 48439.00
1350.247, 48646.00
1351.308, 48387.00
1352.368, 48251.00
1353.428, 48552.00
1354.489, 48674.00
1355.549, 48436.00
1356.608, 48623.00
1357.668, 48714.00
1358.727, 48631.00
1359.787, 48556.00
1360.846, 48631.00
1361.905, 48702.95
1362.964, 48961.00
1364.022, 48935.00
1365.081, 48974.00
1366.139, 48940.54
1367.197, 49149.00
1368.255, 49028.00
1369.313, 49110.00
1370.371, 49246.00
1371.428, 48968.00
1372.486, 49229.00
1373.543, 49441.00
1374.600, 49163.00
1375.657, 49441.00
1376.713, 49465.00
1377.770, 49299.00
1378.826, 49858.00
1379.882, 49539.00
1380.938, 49533.00
1381.994, 49744.00
1383.050, 49703.00
1384.106, 49746.00
1385.161, 49612.00
1386.216, 49531.00
1387.271, 49875.00
1388.326, 49850.00
1389.381, 49806.00
1390.435, 49732.00
1391.490, 49736.00
1392.544, 49743.00
1393.598, 49725.00
1394.652, 49850.00
1395.705, 49837.00
1396.759, 49501.00
1397.812, 49917.00
1398.866, 49821.00
1399.919, 49690.00
1400.972, 50175.00
1402.024, 50304.00
1403.077, 50170.00
1404.129, 50143.00
1405.181, 50185.00
1406.233, 50321.00
1407.285, 50265.00
1408.337, 50528.00
1409.389, 50386.00
1410.440, 50379.00
1411.491, 50529.00
1412.542, 50635.00
1413.593, 50462.00
1414.644, 50684.00
1415.695, 50861.00
1416.745, 50654.00
1417.795, 50819.00
1418.845, 50665.00
1419.895, 50575.00
1420.945, 50418.00
1421.995, 50576.00
1423.044, 50785.00
1424.093, 50827.00
1425.142, 50863.00
1426.191, 51111.00
1427.240, 50906.00
1428.289, 51561.00
1429.337, 51379.00
1430.385, 51767.00
1431.433, 51890.00
1432.481, 51792.00
1433.529, 52056.00
1434.577, 52207.00
1435.624, 51935.00
1436.672, 52110.00
1437.719, 52228.00
1438.766, 52327.00
1439.812, 52337.00
1440.859, 52624.00
1441.905, 52872.00
1442.952, 52846.00
1443.998, 52758.00
1445.044, 53001.00
1446.090, 52737.00
1447.135, 52803.00
1448.181, 53094.00
1449.226, 53464.00
1450.271, 53344.00
1451.316, 53625.00
1452.361, 53292.00
1453.405, 53330.00
1454.450, 53412.00
1455.494, 53629.00
1456.538, 53437.00
1457.582, 53182.00
1458.626, 53049.00
1459.670, 53178.00
1460.713, 53332.00
1461.757, 52986.00
1462.800, 52813.00
1463.843, 53090.00
1464.886, 52773.00
1465.928, 52952.00
1466.971, 53027.00
1468.013, 52773.00
1469.055, 52604.00
1470.097, 52891.00
1471.139, 52615.00
1472.181, 52832.00
1473.222, 52683.00
1474.263, 52858.00
1475.305, 52637.00
1476.346, 52734.00
1477.386, 52944.00
1478.427, 52554.00
1479.468, 52494.00
1480.508, 52909.00
1481.548, 52879.00
1482.588, 52990.00
1483.628, 53163.00
1484.668, 52820.00
1485.707, 52780.00
1486.747, 52820.00
1487.786, 52722.00
1488.825, 52732.00
1489.864, 52791.00
1490.902, 52864.00
1491.941, 52663.00
1492.979, 52970.00
1494.017, 52679.00
1495.055, 52837.00
1496.093, 52890.00
1497.131, 53157.00
1498.168, 53135.00
1499.206, 53349.00
1500.243, 53696.00
1501.280, 53459.00
1502.317, 53610.00
1503.354, 53413.00
1504.390, 53301.00
1505.426, 53251.00
1506.463, 53427.00
1507.499, 53235.00
1508.535, 53294.00
1509.570, 53309.00
1510.606, 53184.00
1511.641, 53525.00
1512.676, 53284.00
1513.711, 53868.00
1514.746, 53496.00
1515.781, 53889.00
1516.816, 53607.00
1517.850, 53421.00
1518.884, 53670.00
1519.918, 53535.00
1520.952, 53632.00
1521.986, 53887.00
1523.019, 53876.00
1524.053, 53675.00
1525.086, 53711.00
1526.119, 53804.00
1527.152, 53595.00
1528.185, 53795.00
1529.217, 54161.00
1530.250, 54248.00
1531.282, 54094.00
1532.314, 54207.00
1533.346, 54253.00
1534.377, 54357.00
1535.409, 54123.00
1536.440, 54689.00
1537.472, 54077.00
1538.503, 54244.00
1539.534, 54531.00
1540.564, 54592.00
1541.595, 54559.00
1542.625, 54737.00
1543.656, 54447.00
1544.686, 54584.00
1545.716, 54734.00
1546.745, 54567.00
1547.775, 54372.00
1548.804, 54784.00
1549.834, 54728.00
1550.863, 54885.00
1551.892, 55016.00
1552.920, 54853.00
1553.949, 55074.00
1554.977, 55011.00
1556.006, 54954.00
1557.034, 54758.00
1558.062, 55098.00
1559.089, 54998.00
1560.117, 55180.00
1561.144, 55071.00
1562.172, 55173.00
1563.199, 55157.00
1564.226, 55144.00
1565.252, 55189.00
1566.279, 55288.00
1567.305, 55467.00
1568.332, 55476.00
1569.358, 55536.00
1570.384, 55422.00
1571.409, 55837.00
##END=



