##NAMES=Tilleyite
##RRUFFID=R050227
##IDEAL CHEMISTRY=Ca_5_Si_2_O_7_(CO_3_)_2_
##LOCALITY=Crestmore Quarry, Riverside County, California, USA
##OWNER=RRUFF
##SOURCE=Marcus Origlieri
##DESCRIPTION=Aggregate of colorless subhedral crystals
##STATUS=The identification of this mineral has been confirmed by X-ray diffraction.
##URL=rruff.info/R050227
##PIN_ID=L00225
##ORIENTATION=Laser parallel to c* (0 0 1). Fiducial mark perpendicular to laser is parallel to a [1 0 0]
79.89500, 4120.000
81.13100, 4056.000
82.36700, 4280.000
83.60200, 4669.000
84.83700, 4986.000
86.07200, 5279.000
87.30800, 5635.000
88.54200, 6238.000
89.77700, 6932.000
91.01200, 7814.000
92.24600, 8180.000
93.48000, 8478.000
94.71400, 8550.000
95.94800, 8381.000
97.18200, 8213.000
98.41600, 8119.000
99.64900, 8034.000
100.8830, 8141.000
102.1160, 8190.000
103.3490, 8448.000
104.5820, 9016.000
105.8150, 9973.000
107.0470, 10810.00
108.2800, 11420.00
109.5120, 11180.00
110.7440, 10506.00
111.9760, 10444.00
113.2080, 10495.00
114.4400, 10672.00
115.6710, 10993.00
116.9030, 11201.00
118.1340, 11945.00
119.3650, 12090.00
120.5960, 11890.00
121.8270, 11560.00
123.0580, 10882.00
124.2880, 10170.00
125.5190, 9602.000
126.7490, 9018.000
127.9790, 8729.000
129.2090, 8395.000
130.4390, 8210.000
131.6680, 8041.000
132.8980, 8137.000
134.1270, 8367.000
135.3560, 8629.000
136.5850, 9029.000
137.8140, 9464.000
139.0430, 9905.000
140.2710, 10245.00
141.5000, 10545.00
142.7280, 10736.00
143.9560, 10962.00
145.1840, 10976.00
146.4120, 11123.00
147.6390, 11035.00
148.8670, 11146.00
150.0940, 11323.00
151.3210, 11796.00
152.5490, 12216.00
153.7750, 12525.00
155.0020, 12893.00
156.2290, 12944.00
157.4550, 12397.00
158.6810, 11748.00
159.9080, 10784.00
161.1340, 9885.000
162.3590, 9082.000
163.5850, 8303.000
164.8110, 7782.000
166.0360, 7226.000
167.2610, 7069.000
168.4860, 6860.000
169.7110, 6842.000
170.9360, 6795.000
172.1610, 6906.000
173.3850, 7034.000
174.6100, 7265.000
175.8340, 7394.000
177.0580, 7593.000
178.2820, 7718.000
179.5050, 7879.000
180.7290, 7639.000
181.9520, 7611.000
183.1760, 7473.000
184.3990, 7399.000
185.6220, 7314.000
186.8450, 7475.000
188.0670, 7593.000
189.2900, 7753.000
190.5120, 7960.000
191.7340, 8295.000
192.9560, 8480.000
194.1780, 8696.000
195.4000, 8749.000
196.6220, 8701.149
197.8430, 8641.000
199.0640, 8395.000
200.2860, 8224.000
201.5070, 7974.000
202.7270, 7788.000
203.9480, 7369.000
205.1690, 6961.000
206.3890, 6727.000
207.6090, 6492.000
208.8290, 6319.000
210.0490, 6405.000
211.2690, 6217.000
212.4890, 6286.000
213.7080, 6308.000
214.9280, 6277.000
216.1470, 6189.000
217.3660, 6212.000
218.5850, 6392.000
219.8030, 6425.000
221.0220, 6558.000
222.2400, 6649.000
223.4590, 6871.000
224.6770, 6947.000
225.8950, 7180.000
227.1120, 7132.000
228.3300, 7275.000
229.5480, 7356.000
230.7650, 7379.000
231.9820, 7427.000
233.1990, 7478.000
234.4160, 7380.000
235.6330, 7357.000
236.8490, 7401.000
238.0660, 7459.000
239.2820, 7389.000
240.4980, 7395.000
241.7140, 7443.000
242.9300, 7514.000
244.1460, 7498.000
245.3610, 7626.000
246.5770, 7848.000
247.7920, 7947.000
249.0070, 8206.000
250.2220, 8363.000
251.4370, 8566.000
252.6510, 8815.000
253.8660, 8987.000
255.0800, 9210.000
256.2940, 9406.000
257.5080, 9754.000
258.7220, 9782.594
259.9360, 9987.000
261.1490, 9853.000
262.3630, 9672.000
263.5760, 9604.000
264.7890, 9734.000
266.0020, 9587.000
267.2150, 9791.000
268.4270, 10253.00
269.6400, 10384.00
270.8520, 10983.00
272.0640, 11500.00
273.2760, 12129.00
274.4880, 12508.00
275.7000, 13051.00
276.9120, 13487.00
278.1230, 13901.00
279.3340, 14205.00
280.5450, 14397.68
281.7560, 14505.00
282.9670, 14503.00
284.1780, 14422.00
285.3880, 14184.00
286.5980, 13980.00
287.8090, 13835.00
289.0190, 13456.00
290.2290, 13398.00
291.4380, 13232.00
292.6480, 13110.00
293.8570, 13209.00
295.0670, 13395.00
296.2760, 13766.00
297.4850, 14074.00
298.6930, 14543.00
299.9020, 14695.00
301.1110, 14608.00
302.3190, 14016.00
303.5270, 13271.00
304.7350, 12625.00
305.9430, 12103.00
307.1510, 11504.00
308.3580, 11101.00
309.5660, 10611.00
310.7730, 10466.00
311.9800, 10329.00
313.1870, 10046.00
314.3940, 9987.000
315.6010, 9770.000
316.8070, 9518.000
318.0130, 9474.000
319.2200, 9291.000
320.4260, 9094.000
321.6310, 8876.000
322.8370, 8639.453
324.0430, 8403.121
325.2480, 8137.000
326.4540, 7959.000
327.6590, 7726.000
328.8640, 7636.000
330.0680, 7456.000
331.2730, 7397.000
332.4780, 7341.000
333.6820, 7148.000
334.8860, 7300.000
336.0900, 7418.000
337.2940, 7338.000
338.4980, 7530.000
339.7010, 7742.000
340.9050, 7835.000
342.1080, 7963.000
343.3110, 8229.000
344.5140, 8406.000
345.7170, 8586.000
346.9200, 8925.000
348.1220, 9251.000
349.3240, 9554.000
350.5270, 10091.00
351.7290, 10277.00
352.9310, 10323.00
354.1320, 10241.00
355.3340, 10262.00
356.5350, 9995.000
357.7370, 9775.000
358.9380, 9543.000
360.1390, 9336.000
361.3400, 9092.000
362.5400, 8880.000
363.7410, 8790.000
364.9410, 8681.000
366.1410, 8495.000
367.3410, 8354.000
368.5410, 8047.000
369.7410, 7853.000
370.9400, 7715.000
372.1400, 7455.000
373.3390, 7319.000
374.5380, 7116.000
375.7370, 6992.000
376.9360, 6845.926
378.1350, 6635.000
379.3330, 6609.000
380.5310, 6449.000
381.7300, 6386.000
382.9280, 6446.000
384.1260, 6514.000
385.3230, 6526.000
386.5210, 6638.000
387.7180, 6650.000
388.9160, 6709.000
390.1130, 6840.000
391.3100, 6873.000
392.5060, 7165.000
393.7030, 7183.000
394.9000, 7176.000
396.0960, 7087.000
397.2920, 7161.000
398.4880, 7041.000
399.6840, 6958.000
400.8800, 6914.000
402.0750, 6757.000
403.2710, 6713.000
404.4660, 6572.000
405.6610, 6505.000
406.8560, 6470.000
408.0510, 6367.000
409.2450, 6403.000
410.4400, 6378.000
411.6340, 6366.000
412.8280, 6343.000
414.0220, 6343.000
415.2160, 6293.000
416.4100, 6400.000
417.6030, 6451.000
418.7970, 6572.000
419.9900, 6515.000
421.1830, 6600.000
422.3760, 6586.000
423.5690, 6644.000
424.7610, 6494.000
425.9540, 6498.000
427.1460, 6357.000
428.3380, 6305.000
429.5300, 6250.000
430.7220, 6154.000
431.9140, 6187.000
433.1050, 6079.000
434.2970, 6038.000
435.4880, 6108.000
436.6790, 6039.000
437.8700, 5964.000
439.0610, 6008.000
440.2510, 6041.000
441.4420, 5960.000
442.6320, 5939.000
443.8220, 5911.000
445.0120, 5979.000
446.2020, 5946.000
447.3910, 5935.000
448.5810, 5993.000
449.7700, 5895.000
450.9600, 5902.000
452.1490, 5826.000
453.3370, 5861.000
454.5260, 5834.000
455.7150, 5952.000
456.9030, 6021.000
458.0910, 5874.000
459.2800, 5930.000
460.4670, 5899.000
461.6550, 5896.000
462.8430, 6037.000
464.0300, 5952.000
465.2180, 5903.000
466.4050, 5940.000
467.5920, 6085.000
468.7790, 6018.000
469.9650, 6059.000
471.1520, 6085.000
472.3380, 6018.000
473.5250, 6051.000
474.7110, 6255.000
475.8970, 6255.000
477.0820, 6273.000
478.2680, 6362.000
479.4540, 6386.000
480.6390, 6339.000
481.8240, 6404.000
483.0090, 6416.000
484.1940, 6432.000
485.3780, 6280.000
486.5630, 6358.000
487.7470, 6229.000
488.9320, 6298.000
490.1160, 6294.000
491.3000, 6292.000
492.4830, 6192.000
493.6670, 6241.000
494.8500, 6137.000
496.0340, 6313.000
497.2170, 6370.000
498.4000, 6317.000
499.5820, 6406.000
500.7650, 6375.000
501.9480, 6460.896
503.1300, 6534.261
504.3120, 6613.000
505.4940, 6630.000
506.6760, 6647.000
507.8580, 6509.000
509.0390, 6463.000
510.2210, 6453.000
511.4020, 6437.000
512.5830, 6416.000
513.7640, 6377.000
514.9450, 6421.489
516.1250, 6465.199
517.3060, 6544.000
518.4860, 6657.000
519.6660, 6796.000
520.8460, 6969.000
522.0260, 7093.000
523.2060, 7264.000
524.3850, 7349.000
525.5650, 7427.000
526.7440, 7458.000
527.9230, 7408.000
529.1020, 7347.000
530.2810, 7407.000
531.4590, 7194.000
532.6380, 7160.000
533.8160, 7085.000
534.9940, 7150.000
536.1720, 7124.000
537.3500, 7274.000
538.5270, 7384.000
539.7050, 7434.000
540.8820, 7699.000
542.0590, 7809.000
543.2360, 8048.000
544.4130, 8132.000
545.5900, 8099.000
546.7660, 8004.000
547.9430, 7891.000
549.1190, 7825.000
550.2950, 7632.000
551.4710, 7454.000
552.6470, 7340.000
553.8220, 7202.575
554.9980, 7076.000
556.1730, 6989.000
557.3480, 6926.000
558.5230, 6809.000
559.6980, 6732.000
560.8730, 6629.000
562.0470, 6598.000
563.2220, 6581.000
564.3960, 6485.000
565.5700, 6483.000
566.7440, 6448.000
567.9170, 6407.194
569.0910, 6448.000
570.2640, 6361.000
571.4380, 6407.000
572.6110, 6405.000
573.7840, 6263.000
574.9570, 6450.000
576.1290, 6470.000
577.3020, 6331.000
578.4740, 6374.000
579.6460, 6374.000
580.8180, 6364.000
581.9900, 6370.000
583.1620, 6399.000
584.3330, 6387.000
585.5040, 6353.000
586.6760, 6406.000
587.8470, 6440.000
589.0180, 6342.000
590.1880, 6373.000
591.3590, 6430.000
592.5290, 6475.000
593.7000, 6441.000
594.8700, 6391.000
596.0400, 6433.000
597.2090, 6444.000
598.3790, 6347.000
599.5490, 6492.000
600.7180, 6451.000
601.8870, 6464.000
603.0560, 6518.000
604.2250, 6500.522
605.3940, 6603.000
606.5620, 6560.000
607.7300, 6579.000
608.8990, 6686.000
610.0670, 6643.000
611.2350, 6629.000
612.4020, 6642.000
613.5700, 6702.000
614.7370, 6727.000
615.9050, 6701.000
617.0720, 6804.000
618.2390, 6793.000
619.4060, 6759.000
620.5720, 6894.000
621.7390, 6915.000
622.9050, 6972.000
624.0710, 6967.000
625.2370, 7052.000
626.4030, 7140.808
627.5690, 7288.000
628.7340, 7395.000
629.9000, 7614.000
631.0650, 7809.000
632.2300, 7903.000
633.3950, 8246.000
634.5600, 8577.000
635.7240, 9125.000
636.8890, 9799.000
638.0530, 10713.00
639.2170, 11673.00
640.3810, 12686.00
641.5450, 14001.00
642.7080, 15046.00
643.8720, 16011.00
645.0350, 16946.00
646.1980, 16925.00
647.3610, 16417.00
648.5240, 15389.00
649.6870, 14323.00
650.8490, 12829.00
652.0120, 11767.00
653.1740, 10854.00
654.3360, 10168.00
655.4980, 9751.000
656.6600, 9197.000
657.8210, 8899.000
658.9830, 8848.000
660.1440, 8703.000
661.3050, 8491.000
662.4660, 8530.000
663.6270, 8428.000
664.7870, 8357.000
665.9480, 8383.000
667.1080, 8285.000
668.2680, 8270.000
669.4280, 8197.365
670.5880, 8053.000
671.7480, 7996.000
672.9070, 7917.000
674.0670, 7728.000
675.2260, 7764.000
676.3850, 7784.000
677.5440, 7571.000
678.7030, 7565.000
679.8610, 7686.000
681.0200, 7621.000
682.1780, 7581.000
683.3360, 7507.000
684.4940, 7618.000
685.6520, 7599.000
686.8090, 7551.000
687.9670, 7828.000
689.1240, 7861.000
690.2810, 8100.000
691.4380, 8221.000
692.5950, 8541.000
693.7520, 9108.000
694.9080, 9356.000
696.0650, 9285.000
697.2210, 9167.000
698.3770, 9221.000
699.5330, 9357.000
700.6880, 9282.000
701.8440, 9061.000
702.9990, 8733.000
704.1550, 8467.000
705.3100, 8401.000
706.4650, 8299.000
707.6190, 8401.000
708.7740, 8698.000
709.9290, 8991.000
711.0830, 9363.000
712.2370, 9525.000
713.3910, 9853.000
714.5450, 10120.00
715.6980, 9771.000
716.8520, 9598.000
718.0050, 9462.000
719.1580, 9464.000
720.3110, 9155.000
721.4640, 8764.000
722.6170, 8440.000
723.7700, 8109.000
724.9220, 7864.671
726.0740, 7622.000
727.2260, 7487.000
728.3780, 7402.000
729.5300, 7334.000
730.6810, 7301.889
731.8330, 7408.000
732.9840, 7294.000
734.1350, 7319.000
735.2860, 7311.000
736.4370, 7228.000
737.5880, 7272.000
738.7380, 7306.000
739.8880, 7391.000
741.0390, 7339.000
742.1890, 7300.000
743.3380, 7336.000
744.4880, 7314.000
745.6380, 7370.000
746.7870, 7397.000
747.9360, 7375.000
749.0850, 7390.000
750.2340, 7375.000
751.3830, 7395.000
752.5310, 7426.000
753.6800, 7306.000
754.8280, 7335.000
755.9760, 7439.000
757.1240, 7367.000
758.2720, 7447.000
759.4190, 7424.000
760.5670, 7474.000
761.7140, 7483.000
762.8610, 7416.000
764.0080, 7496.000
765.1550, 7470.000
766.3020, 7480.000
767.4480, 7482.000
768.5950, 7513.000
769.7410, 7560.000
770.8870, 7447.000
772.0330, 7451.000
773.1780, 7477.000
774.3240, 7565.000
775.4690, 7552.000
776.6140, 7534.000
777.7590, 7574.000
778.9040, 7559.503
780.0490, 7627.000
781.1940, 7576.000
782.3380, 7594.000
783.4820, 7614.000
784.6260, 7650.000
785.7700, 7664.000
786.9140, 7591.000
788.0580, 7604.000
789.2010, 7610.000
790.3450, 7580.000
791.4880, 7630.000
792.6310, 7642.000
793.7730, 7640.996
794.9160, 7656.000
796.0590, 7676.000
797.2010, 7700.000
798.3430, 7696.079
799.4850, 7740.000
800.6270, 7700.000
801.7690, 7671.000
802.9100, 7695.510
804.0520, 7756.000
805.1930, 7749.000
806.3340, 7803.000
807.4750, 7800.000
808.6160, 7964.000
809.7560, 7888.000
810.8970, 7933.000
812.0370, 7846.000
813.1770, 7805.000
814.3170, 7887.000
815.4570, 7865.000
816.5960, 7836.000
817.7360, 7878.000
818.8750, 7882.198
820.0140, 7894.000
821.1530, 7992.000
822.2920, 8042.000
823.4310, 8073.257
824.5690, 8116.000
825.7070, 8150.000
826.8460, 8231.000
827.9840, 8293.000
829.1220, 8470.000
830.2590, 8454.000
831.3970, 8646.000
832.5340, 8698.000
833.6710, 8940.000
834.8080, 9086.000
835.9450, 9224.000
837.0820, 9244.000
838.2190, 9208.000
839.3550, 9061.000
840.4910, 8991.361
841.6270, 8782.000
842.7630, 8735.000
843.8990, 8623.000
845.0350, 8520.000
846.1700, 8396.000
847.3060, 8330.545
848.4410, 8345.000
849.5760, 8234.000
850.7100, 8401.000
851.8450, 8446.000
852.9800, 8365.000
854.1140, 8366.000
855.2480, 8295.000
856.3820, 8313.000
857.5160, 8463.000
858.6500, 8392.000
859.7830, 8581.000
860.9170, 8642.000
862.0500, 8665.000
863.1830, 8674.000
864.3160, 8891.000
865.4480, 8963.000
866.5810, 8992.076
867.7130, 9105.000
868.8460, 8981.000
869.9780, 8908.000
871.1100, 8781.000
872.2410, 8679.000
873.3730, 8806.000
874.5050, 8719.000
875.6360, 8706.000
876.7670, 8809.000
877.8980, 8821.000
879.0290, 8956.000
880.1590, 8934.000
881.2900, 8905.000
882.4200, 8991.000
883.5500, 9212.000
884.6800, 9274.000
885.8100, 9353.000
886.9400, 9509.000
888.0690, 9648.000
889.1990, 9854.000
890.3280, 10097.00
891.4570, 10445.00
892.5860, 10843.00
893.7140, 11575.00
894.8430, 12043.00
895.9710, 12994.00
897.1000, 14581.00
898.2280, 16442.00
899.3560, 19493.00
900.4830, 23664.00
901.6110, 28430.00
902.7380, 33817.00
903.8660, 39156.00
904.9930, 44469.00
906.1200, 46896.00
907.2460, 44168.00
908.3730, 38967.00
909.5000, 32568.00
910.6260, 26297.00
911.7520, 21574.00
912.8780, 17583.00
914.0040, 15229.00
915.1290, 13446.00
916.2550, 12219.00
917.3800, 11640.00
918.5050, 11160.00
919.6300, 10917.00
920.7550, 10791.00
921.8800, 10530.00
923.0040, 10586.00
924.1290, 10624.00
925.2530, 10960.00
926.3770, 10949.00
927.5010, 10862.00
928.6250, 10756.00
929.7480, 10692.50
930.8720, 10644.00
931.9950, 10520.00
933.1180, 10449.33
934.2410, 10316.00
935.3640, 10244.00
936.4860, 10153.00
937.6090, 10024.00
938.7310, 9923.000
939.8530, 9927.000
940.9750, 9973.000
942.0970, 9915.000
943.2180, 9986.000
944.3400, 10137.00
945.4610, 10321.00
946.5820, 10431.00
947.7030, 10731.00
948.8240, 10988.00
949.9450, 11246.00
951.0650, 11326.00
952.1860, 11235.00
953.3060, 10975.00
954.4260, 10866.00
955.5460, 10533.00
956.6650, 10230.00
957.7850, 10154.00
958.9040, 10005.00
960.0230, 9834.000
961.1420, 9713.000
962.2610, 9889.000
963.3800, 9887.000
964.4990, 9864.000
965.6170, 9849.000
966.7350, 9936.000
967.8530, 9938.000
968.9710, 9962.000
970.0890, 9934.000
971.2070, 10200.00
972.3240, 10083.00
973.4410, 10167.00
974.5580, 10370.00
975.6750, 10373.00
976.7920, 10478.00
977.9090, 10635.00
979.0250, 10933.00
980.1410, 11052.00
981.2580, 11063.00
982.3740, 11180.00
983.4890, 10909.00
984.6050, 10827.00
985.7200, 10753.00
986.8360, 10777.00
987.9510, 10896.00
989.0660, 10883.00
990.1810, 10886.00
991.2950, 10893.00
992.4100, 10655.00
993.5240, 10455.00
994.6390, 10517.00
995.7530, 10629.00
996.8660, 10481.00
997.9800, 10728.00
999.0940, 10972.00
1000.207, 11073.00
1001.320, 11159.00
1002.433, 11546.00
1003.546, 11801.00
1004.659, 12227.00
1005.772, 12571.00
1006.884, 13071.00
1007.996, 13252.00
1009.108, 13658.00
1010.220, 13959.00
1011.332, 13946.00
1012.444, 13762.00
1013.555, 13458.00
1014.666, 12866.00
1015.777, 12334.00
1016.888, 11981.00
1017.999, 11555.00
1019.110, 11343.00
1020.220, 11101.00
1021.331, 11002.00
1022.441, 10901.00
1023.551, 10828.00
1024.661, 10879.00
1025.770, 10774.00
1026.880, 10782.00
1027.989, 10858.00
1029.098, 10990.00
1030.207, 11112.00
1031.316, 11022.00
1032.425, 11028.00
1033.533, 11124.00
1034.642, 11043.00
1035.750, 10920.00
1036.858, 10808.00
1037.966, 10812.00
1039.073, 10743.00
1040.181, 10788.00
1041.288, 10544.00
1042.396, 10468.00
1043.503, 10542.00
1044.610, 10646.00
1045.716, 10685.00
1046.823, 10721.38
1047.929, 10729.20
1049.036, 10697.00
1050.142, 10715.00
1051.248, 10709.36
1052.353, 10626.00
1053.459, 10694.00
1054.564, 10771.00
1055.670, 10724.00
1056.775, 10929.00
1057.880, 11086.00
1058.985, 11045.00
1060.089, 11248.00
1061.194, 11243.00
1062.298, 11156.00
1063.402, 11271.00
1064.506, 11291.00
1065.610, 11517.00
1066.713, 11543.00
1067.817, 11885.00
1068.920, 12003.00
1070.023, 12548.00
1071.126, 13083.00
1072.229, 14047.00
1073.332, 16112.00
1074.435, 19878.00
1075.537, 26193.00
1076.639, 31984.00
1077.741, 42180.00
1078.843, 44052.64
1079.945, 44979.73
1081.046, 47565.00
1082.148, 41292.00
1083.249, 37672.00
1084.350, 35739.00
1085.451, 34427.00
1086.551, 33195.00
1087.652, 33873.00
1088.752, 37449.00
1089.853, 41380.00
1090.953, 50823.00
1092.053, 63510.00
1093.152, 62840.00
1094.252, 49973.00
1095.351, 38230.00
1096.451, 29066.00
1097.550, 21509.00
1098.649, 16835.00
1099.748, 14137.00
1100.846, 12794.00
1101.945, 12217.00
1103.043, 11988.00
1104.141, 11724.00
1105.239, 11489.00
1106.337, 11347.00
1107.434, 11273.00
1108.532, 11285.00
1109.629, 11191.00
1110.726, 11132.00
1111.823, 11080.00
1112.920, 11129.00
1114.017, 11048.00
1115.113, 11148.00
1116.210, 11088.00
1117.306, 11146.00
1118.402, 11217.00
1119.498, 11053.00
1120.593, 11056.00
1121.689, 11232.00
1122.784, 11112.00
1123.879, 11016.00
1124.974, 11061.00
1126.069, 11015.00
1127.164, 11077.00
1128.259, 11156.00
1129.353, 11011.00
1130.447, 11055.00
1131.541, 11022.00
1132.635, 11016.00
1133.729, 11040.00
1134.822, 11204.00
1135.916, 11214.00
1137.009, 11070.00
1138.102, 11241.00
1139.195, 10959.00
1140.288, 11191.00
1141.380, 11112.00
1142.473, 11255.00
1143.565, 11162.00
1144.657, 11180.00
1145.749, 11033.00
1146.841, 11173.00
1147.932, 11070.00
1149.024, 11044.00
1150.115, 11221.00
1151.206, 11186.00
1152.297, 11098.00
1153.388, 11124.00
1154.479, 11158.00
1155.569, 11293.00
1156.659, 11257.00
1157.750, 11364.00
1158.839, 11389.00
1159.929, 11416.30
1161.019, 11416.38
1162.108, 11406.02
1163.198, 11358.00
1164.287, 11360.00
1165.376, 11335.00
1166.465, 11318.00
1167.553, 11371.00
1168.642, 11361.00
1169.730, 11335.00
1170.818, 11537.00
1171.906, 11250.00
1172.994, 11479.00
1174.082, 11540.00
1175.170, 11427.00
1176.257, 11377.00
1177.344, 11538.00
1178.431, 11409.00
1179.518, 11572.00
1180.605, 11530.00
1181.691, 11635.00
1182.778, 11683.00
1183.864, 11653.00
1184.950, 11625.00
1186.036, 11634.00
1187.122, 11568.00
1188.207, 11654.00
1189.292, 11724.00
1190.378, 11621.00
1191.463, 11543.00
1192.548, 11744.00
1193.632, 11688.00
1194.717, 11825.00
1195.801, 11722.00
1196.886, 11827.00
1197.970, 11733.00
1199.054, 11803.00
1200.137, 11753.00
1201.221, 11764.97
1202.305, 11884.00
1203.388, 11818.00
1204.471, 11912.00
1205.554, 11995.00
1206.637, 11899.00
1207.719, 11874.00
1208.802, 11850.00
1209.884, 11829.24
1210.966, 11922.00
1212.048, 11873.00
1213.130, 12016.00
1214.212, 12127.00
1215.293, 12004.00
1216.374, 12136.00
1217.456, 12001.00
1218.536, 12055.00
1219.617, 11993.00
1220.698, 12125.00
1221.778, 12163.00
1222.859, 12298.00
1223.939, 12244.18
1225.019, 12201.00
1226.099, 12149.00
1227.178, 12179.00
1228.258, 12196.00
1229.337, 12266.00
1230.417, 12275.00
1231.496, 12279.00
1232.574, 12259.00
1233.653, 12269.00
1234.732, 12223.00
1235.810, 12303.00
1236.888, 12374.00
1237.966, 12369.00
1239.044, 12563.00
1240.122, 12401.00
1241.199, 12385.00
1242.277, 12259.00
1243.354, 12417.00
1244.431, 12439.00
1245.508, 12545.00
1246.585, 12732.00
1247.661, 12879.00
1248.738, 12399.00
1249.814, 12586.00
1250.890, 12513.00
1251.966, 12509.00
1253.042, 12554.00
1254.117, 12688.00
1255.193, 12784.00
1256.268, 12604.00
1257.343, 12573.00
1258.418, 12491.00
1259.493, 12669.00
1260.567, 12616.00
1261.642, 12744.00
1262.716, 12725.00
1263.790, 12765.00
1264.864, 12665.00
1265.938, 12829.00
1267.011, 12947.00
1268.085, 12817.00
1269.158, 12791.00
1270.231, 12889.00
1271.304, 12935.00
1272.377, 12865.00
1273.450, 12945.00
1274.522, 12895.00
1275.594, 12969.00
1276.666, 12917.00
1277.738, 13075.00
1278.810, 13010.00
1279.882, 13070.00
1280.953, 12941.00
1282.025, 13002.00
1283.096, 13015.00
1284.167, 13071.00
1285.238, 13057.00
1286.308, 12984.00
1287.379, 13071.00
1288.449, 13176.00
1289.519, 13051.00
1290.589, 13158.00
1291.659, 13239.00
1292.729, 13271.00
1293.798, 13254.00
1294.868, 13252.00
1295.937, 13182.00
1297.006, 13357.00
1298.075, 13453.00
1299.143, 13334.00
1300.212, 13271.00
1301.280, 13359.00
1302.348, 13327.00
1303.416, 13414.00
1304.484, 13380.00
1305.552, 13372.00
1306.620, 13347.00
1307.687, 13382.00
1308.754, 13425.00
1309.821, 13529.00
1310.888, 13437.00
1311.955, 13583.00
1313.021, 13586.00
1314.088, 13653.00
1315.154, 13576.00
1316.220, 13576.00
1317.286, 13694.00
1318.352, 13821.00
1319.417, 13669.00
1320.483, 13713.00
1321.548, 13773.00
1322.613, 13873.00
1323.678, 13753.00
1324.743, 13676.00
1325.807, 13720.00
1326.872, 13914.00
1327.936, 13784.00
1329.000, 13808.00
1330.064, 13948.00
1331.128, 13825.00
1332.191, 13941.00
1333.255, 13981.00
1334.318, 14021.00
1335.381, 13771.00
1336.444, 13968.00
1337.507, 13931.00
1338.569, 14052.00
1339.632, 14102.00
1340.694, 13995.00
1341.756, 14094.00
1342.818, 14105.00
1343.880, 14080.00
1344.941, 14084.00
1346.003, 14195.00
1347.064, 14102.00
1348.125, 14044.00
1349.186, 14223.00
1350.247, 14273.00
1351.308, 14312.00
1352.368, 14351.00
1353.428, 14235.00
1354.489, 14286.00
1355.549, 14230.00
1356.608, 14272.00
1357.668, 14306.00
1358.727, 14283.00
1359.787, 14361.00
1360.846, 14328.00
1361.905, 14424.00
1362.964, 14390.00
1364.022, 14457.92
1365.081, 14430.00
1366.139, 14571.00
1367.197, 14608.00
1368.255, 14651.00
1369.313, 14599.00
1370.371, 14482.00
1371.428, 14596.00
1372.486, 14738.00
1373.543, 14518.00
1374.600, 14759.00
1375.657, 14699.00
1376.713, 14659.00
1377.770, 14892.00
1378.826, 14772.00
1379.882, 14803.00
1380.938, 14760.00
1381.994, 14813.00
1383.050, 14835.00
1384.106, 14846.00
1385.161, 14898.00
1386.216, 14978.00
1387.271, 14988.00
1388.326, 15035.94
1389.381, 15070.00
1390.435, 15099.00
1391.490, 15106.92
1392.544, 15154.86
1393.598, 15117.00
1394.652, 15149.00
1395.705, 15119.00
1396.759, 15055.00
1397.812, 15047.00
1398.866, 15072.00
1399.919, 15097.67
1400.972, 15236.00
1402.024, 15241.00
1403.077, 15217.00
1404.129, 15328.00
1405.181, 15514.00
1406.233, 15644.00
1407.285, 15794.00
1408.337, 15862.00
1409.389, 16046.00
1410.440, 16221.00
1411.491, 16285.00
1412.542, 16222.00
1413.593, 16187.00
1414.644, 16001.00
1415.695, 16037.00
1416.745, 16033.00
1417.795, 15841.00
1418.845, 15974.00
1419.895, 16061.00
1420.945, 16078.00
1421.995, 16295.00
1423.044, 16349.00
1424.093, 16428.00
1425.142, 16700.00
1426.191, 16737.00
1427.240, 16742.00
1428.289, 16683.00
1429.337, 16900.00
1430.385, 16895.00
1431.433, 17061.00
1432.481, 17200.00
1433.529, 17048.00
1434.577, 16905.00
1435.624, 16856.00
1436.672, 16668.00
1437.719, 16529.00
1438.766, 16447.00
1439.812, 16353.00
1440.859, 16321.00
1441.905, 16078.00
1442.952, 16429.00
1443.998, 16290.00
1445.044, 16403.00
1446.090, 16264.00
1447.135, 16307.00
1448.181, 16207.00
1449.226, 16366.00
1450.271, 16325.00
1451.316, 16365.00
1452.361, 16299.00
1453.405, 16463.00
1454.450, 16504.00
1455.494, 16561.00
1456.538, 16453.00
1457.582, 16654.00
1458.626, 16664.00
1459.670, 16472.00
1460.713, 16509.00
1461.757, 16587.00
1462.800, 16617.00
1463.843, 16694.00
1464.886, 16696.00
1465.928, 16918.00
1466.971, 16615.00
1468.013, 16867.00
1469.055, 16757.00
1470.097, 16889.00
1471.139, 16862.00
1472.181, 16816.00
1473.222, 16888.00
1474.263, 16867.78
1475.305, 16987.00
1476.346, 16892.00
1477.386, 17023.00
1478.427, 17009.00
1479.468, 17039.00
1480.508, 17023.00
1481.548, 17068.00
1482.588, 17184.00
1483.628, 17220.00
1484.668, 17334.00
1485.707, 17227.00
1486.747, 17303.00
1487.786, 17361.32
1488.825, 17523.00
1489.864, 17539.00
1490.902, 17584.00
1491.941, 17737.00
1492.979, 17698.00
1494.017, 17776.00
1495.055, 17924.00
1496.093, 18512.00
1497.131, 18981.00
1498.168, 19585.00
1499.206, 20497.00
1500.243, 20946.00
1501.280, 20666.00
1502.317, 20001.00
1503.354, 19423.00
1504.390, 18883.00
1505.426, 18591.00
1506.463, 18545.00
1507.499, 18505.00
1508.535, 18390.00
1509.570, 18376.00
1510.606, 18290.00
1511.641, 18249.00
1512.676, 18524.00
1513.711, 18355.00
1514.746, 18565.00
1515.781, 18479.00
1516.816, 18655.00
1517.850, 18697.00
1518.884, 18676.00
1519.918, 18507.00
1520.952, 18438.00
1521.986, 18473.00
1523.019, 18342.00
1524.053, 18386.00
1525.086, 18544.00
1526.119, 18418.01
1527.152, 18185.00
1528.185, 18361.00
1529.217, 18390.00
1530.250, 18447.00
1531.282, 18451.00
1532.314, 18497.00
1533.346, 18515.14
1534.377, 18507.00
1535.409, 18562.00
1536.440, 18539.00
1537.472, 18583.00
1538.503, 18758.00
1539.534, 18525.00
1540.564, 18578.00
1541.595, 18851.00
1542.625, 18708.00
1543.656, 18704.00
1544.686, 18994.00
1545.716, 18888.00
1546.745, 18880.00
1547.775, 18768.00
1548.804, 18888.00
1549.834, 18914.00
1550.863, 19187.00
1551.892, 19110.00
1552.920, 19112.00
1553.949, 19119.00
1554.977, 19378.00
1556.006, 19400.00
1557.034, 19255.00
1558.062, 19341.00
1559.089, 19207.00
1560.117, 19178.00
1561.144, 19227.00
1562.172, 19249.00
1563.199, 19459.00
1564.226, 19559.00
1565.252, 19449.00
1566.279, 19596.00
1567.305, 19544.00
1568.332, 19630.00
1569.358, 19630.00
1570.384, 19827.00
1571.409, 19574.00
##END=



