##NAMES=Tilleyite
##RRUFFID=R050227
##IDEAL CHEMISTRY=Ca_5_Si_2_O_7_(CO_3_)_2_
##LOCALITY=Crestmore Quarry, Riverside County, California, USA
##OWNER=RRUFF
##SOURCE=Marcus Origlieri
##DESCRIPTION=Aggregate of colorless subhedral crystals
##STATUS=The identification of this mineral has been confirmed by X-ray diffraction.
##URL=rruff.info/R050227
##PIN_ID=L00528
##ORIENTATION=Laser parallel to b* (0 1 0). Fiducial mark perpendicular to laser is parallel to -c [0 0 -1]
127.9790, 16729.00
129.2090, 16823.00
130.4390, 16779.00
131.6680, 17022.00
132.8980, 16741.00
134.1270, 16879.00
135.3560, 17128.00
136.5850, 17399.00
137.8140, 17463.00
139.0430, 17682.43
140.2710, 17709.00
141.5000, 17949.00
142.7280, 18070.00
143.9560, 18157.00
145.1840, 18426.00
146.4120, 18530.00
147.6390, 18856.00
148.8670, 18785.00
150.0940, 19016.00
151.3210, 19162.00
152.5490, 19324.00
153.7750, 19308.00
155.0020, 19428.00
156.2290, 19188.00
157.4550, 19110.00
158.6810, 19170.00
159.9080, 18874.00
161.1340, 18575.00
162.3590, 18458.00
163.5850, 18296.00
164.8110, 18232.00
166.0360, 18162.00
167.2610, 18028.00
168.4860, 17987.00
169.7110, 18221.00
170.9360, 18151.00
172.1610, 18265.00
173.3850, 18286.00
174.6100, 18328.00
175.8340, 18388.00
177.0580, 18658.00
178.2820, 18483.00
179.5050, 18531.00
180.7290, 18746.00
181.9520, 18673.00
183.1760, 18503.00
184.3990, 18733.00
185.6220, 18765.00
186.8450, 18742.00
188.0670, 18834.00
189.2900, 18786.00
190.5120, 18816.00
191.7340, 18719.00
192.9560, 19108.00
194.1780, 18949.00
195.4000, 19192.00
196.6220, 19265.00
197.8430, 19436.00
199.0640, 19307.00
200.2860, 19261.00
201.5070, 19323.00
202.7270, 19323.00
203.9480, 19323.00
205.1690, 19180.00
206.3890, 19253.00
207.6090, 19199.00
208.8290, 19080.00
210.0490, 19166.00
211.2690, 19303.00
212.4890, 19167.00
213.7080, 19179.00
214.9280, 18990.00
216.1470, 19271.00
217.3660, 19114.00
218.5850, 19204.00
219.8030, 19122.00
221.0220, 19242.00
222.2400, 19063.00
223.4590, 19319.00
224.6770, 19341.00
225.8950, 19503.00
227.1120, 19473.00
228.3300, 19485.00
229.5480, 19672.00
230.7650, 19653.00
231.9820, 19639.00
233.1990, 19835.00
234.4160, 19772.00
235.6330, 19962.00
236.8490, 20083.00
238.0660, 19868.00
239.2820, 19997.00
240.4980, 19816.00
241.7140, 19965.00
242.9300, 20175.00
244.1460, 19940.00
245.3610, 20010.00
246.5770, 20077.00
247.7920, 20028.52
249.0070, 20273.00
250.2220, 20181.00
251.4370, 20278.00
252.6510, 20527.00
253.8660, 20316.00
255.0800, 20826.00
256.2940, 20606.00
257.5080, 20885.00
258.7220, 21008.00
259.9360, 21070.00
261.1490, 21245.48
262.3630, 21214.00
263.5760, 21412.00
264.7890, 21411.00
266.0020, 21381.00
267.2150, 21763.00
268.4270, 21838.00
269.6400, 22133.00
270.8520, 22520.00
272.0640, 22879.00
273.2760, 23274.00
274.4880, 23857.00
275.7000, 24142.00
276.9120, 24509.00
278.1230, 24704.00
279.3340, 24915.00
280.5450, 24964.00
281.7560, 24834.00
282.9670, 24771.00
284.1780, 24290.00
285.3880, 24007.00
286.5980, 23784.00
287.8090, 23539.00
289.0190, 23499.00
290.2290, 23252.00
291.4380, 23111.00
292.6480, 23020.00
293.8570, 22878.00
295.0670, 22921.00
296.2760, 22980.00
297.4850, 22798.00
298.6930, 22828.00
299.9020, 22731.00
301.1110, 22848.00
302.3190, 22750.00
303.5270, 22620.00
304.7350, 22498.00
305.9430, 22217.00
307.1510, 22031.00
308.3580, 22238.00
309.5660, 21895.00
310.7730, 21957.00
311.9800, 21802.00
313.1870, 21901.00
314.3940, 22012.00
315.6010, 21845.00
316.8070, 21820.00
318.0130, 21883.00
319.2200, 21989.00
320.4260, 21822.00
321.6310, 21923.00
322.8370, 21951.00
324.0430, 21950.00
325.2480, 21950.00
326.4540, 21797.00
327.6590, 22055.00
328.8640, 21849.00
330.0680, 22021.00
331.2730, 21822.00
332.4780, 21833.00
333.6820, 22037.00
334.8860, 21835.00
336.0900, 21908.00
337.2940, 21896.00
338.4980, 21869.00
339.7010, 22020.00
340.9050, 22030.00
342.1080, 22005.00
343.3110, 22241.00
344.5140, 22179.00
345.7170, 22394.00
346.9200, 22489.00
348.1220, 22648.00
349.3240, 22420.00
350.5270, 22533.00
351.7290, 22594.00
352.9310, 22806.00
354.1320, 23016.00
355.3340, 22932.00
356.5350, 23022.00
357.7370, 22838.00
358.9380, 22919.00
360.1390, 22973.00
361.3400, 23080.00
362.5400, 22941.00
363.7410, 22959.00
364.9410, 22878.00
366.1410, 22913.00
367.3410, 22917.00
368.5410, 22876.31
369.7410, 22845.00
370.9400, 22850.00
372.1400, 22788.00
373.3390, 22814.00
374.5380, 22654.00
375.7370, 22714.00
376.9360, 22715.00
378.1350, 22499.00
379.3330, 22655.00
380.5310, 22637.00
381.7300, 22670.00
382.9280, 22704.00
384.1260, 22684.00
385.3230, 22889.00
386.5210, 22881.00
387.7180, 23052.00
388.9160, 22970.00
390.1130, 23011.00
391.3100, 23244.00
392.5060, 23102.00
393.7030, 23227.00
394.9000, 23277.00
396.0960, 23375.00
397.2920, 23367.00
398.4880, 23464.00
399.6840, 23530.00
400.8800, 23425.00
402.0750, 23541.00
403.2710, 23385.00
404.4660, 23332.00
405.6610, 23412.00
406.8560, 23500.00
408.0510, 23507.00
409.2450, 23483.00
410.4400, 23484.00
411.6340, 23580.70
412.8280, 23441.00
414.0220, 23736.00
415.2160, 23856.00
416.4100, 23792.00
417.6030, 23656.00
418.7970, 23781.00
419.9900, 23849.00
421.1830, 23789.00
422.3760, 23863.00
423.5690, 23866.00
424.7610, 23892.00
425.9540, 23948.00
427.1460, 23901.00
428.3380, 24008.00
429.5300, 23833.00
430.7220, 23713.00
431.9140, 23921.00
433.1050, 24097.00
434.2970, 24143.00
435.4880, 24169.52
436.6790, 24056.00
437.8700, 24061.00
439.0610, 24182.00
440.2510, 24129.00
441.4420, 24227.00
442.6320, 24240.54
443.8220, 24354.00
445.0120, 24276.00
446.2020, 24300.00
447.3910, 24309.00
448.5810, 24322.00
449.7700, 24504.00
450.9600, 24313.00
452.1490, 24432.00
453.3370, 24296.00
454.5260, 24509.00
455.7150, 24413.00
456.9030, 24307.00
458.0910, 24396.00
459.2800, 24396.00
460.4670, 24561.00
461.6550, 24593.00
462.8430, 24626.65
464.0300, 24622.00
465.2180, 24686.00
466.4050, 24614.00
467.5920, 24665.00
468.7790, 24655.00
469.9650, 24635.00
471.1520, 24660.08
472.3380, 24735.00
473.5250, 24765.00
474.7110, 24811.00
475.8970, 25068.00
477.0820, 24859.00
478.2680, 24915.00
479.4540, 25255.00
480.6390, 25321.00
481.8240, 25160.00
483.0090, 25159.00
484.1940, 25234.00
485.3780, 25342.00
486.5630, 25267.00
487.7470, 25096.00
488.9320, 25282.00
490.1160, 25234.00
491.3000, 25258.00
492.4830, 25525.00
493.6670, 25211.00
494.8500, 25573.00
496.0340, 25331.00
497.2170, 25136.00
498.4000, 25390.00
499.5820, 25646.00
500.7650, 25388.00
501.9480, 25618.00
503.1300, 25633.00
504.3120, 25594.00
505.4940, 25532.00
506.6760, 25815.00
507.8580, 25808.00
509.0390, 25867.00
510.2210, 25865.00
511.4020, 25816.00
512.5830, 25732.00
513.7640, 25813.00
514.9450, 25752.00
516.1250, 26069.00
517.3060, 25844.00
518.4860, 26093.00
519.6660, 26186.00
520.8460, 26074.00
522.0260, 26026.00
523.2060, 26132.00
524.3850, 26223.00
525.5650, 26261.00
526.7440, 26473.00
527.9230, 26546.00
529.1020, 26518.00
530.2810, 26489.00
531.4590, 26638.00
532.6380, 26352.00
533.8160, 26833.00
534.9940, 26869.00
536.1720, 26624.00
537.3500, 26684.00
538.5270, 26758.00
539.7050, 26712.00
540.8820, 26978.00
542.0590, 26767.00
543.2360, 27065.00
544.4130, 26949.00
545.5900, 27082.00
546.7660, 26995.00
547.9430, 27166.00
549.1190, 27302.00
550.2950, 27117.00
551.4710, 26916.00
552.6470, 27021.00
553.8220, 26854.00
554.9980, 26966.00
556.1730, 26960.00
557.3480, 26935.00
558.5230, 26761.00
559.6980, 26993.00
560.8730, 26931.00
562.0470, 27284.00
563.2220, 26739.00
564.3960, 27087.00
565.5700, 26923.00
566.7440, 27032.00
567.9170, 26980.00
569.0910, 27086.00
570.2640, 27077.00
571.4380, 27213.00
572.6110, 27113.00
573.7840, 27221.00
574.9570, 27158.00
576.1290, 27422.00
577.3020, 27450.00
578.4740, 27242.00
579.6460, 27505.00
580.8180, 27540.00
581.9900, 27615.00
583.1620, 27624.00
584.3330, 27414.00
585.5040, 27462.00
586.6760, 27398.00
587.8470, 27664.00
589.0180, 27496.00
590.1880, 27687.00
591.3590, 27669.00
592.5290, 27634.00
593.7000, 27683.00
594.8700, 27674.00
596.0400, 27737.00
597.2090, 27821.00
598.3790, 27940.00
599.5490, 27854.00
600.7180, 27669.00
601.8870, 27909.00
603.0560, 28142.00
604.2250, 27950.00
605.3940, 28156.00
606.5620, 27957.00
607.7300, 28010.00
608.8990, 28171.00
610.0670, 28243.00
611.2350, 28302.00
612.4020, 28218.00
613.5700, 28212.00
614.7370, 28247.00
615.9050, 28353.00
617.0720, 28388.00
618.2390, 28596.00
619.4060, 28440.00
620.5720, 28615.00
621.7390, 28616.00
622.9050, 28834.00
624.0710, 28747.00
625.2370, 28650.00
626.4030, 28962.00
627.5690, 28934.00
628.7340, 28975.00
629.9000, 29188.00
631.0650, 29092.00
632.2300, 29260.00
633.3950, 29385.00
634.5600, 29476.93
635.7240, 29736.00
636.8890, 29842.00
638.0530, 30044.00
639.2170, 30351.00
640.3810, 30763.00
641.5450, 30718.00
642.7080, 31054.00
643.8720, 31312.00
645.0350, 31322.00
646.1980, 31261.00
647.3610, 31282.00
648.5240, 31540.00
649.6870, 31433.00
650.8490, 31385.00
652.0120, 30998.00
653.1740, 31327.00
654.3360, 31078.00
655.4980, 31084.00
656.6600, 30914.00
657.8210, 31043.00
658.9830, 30915.00
660.1440, 31091.00
661.3050, 31070.00
662.4660, 30849.00
663.6270, 30893.00
664.7870, 30890.00
665.9480, 30746.00
667.1080, 30754.00
668.2680, 30716.00
669.4280, 30412.00
670.5880, 30494.00
671.7480, 30416.00
672.9070, 30343.13
674.0670, 30351.37
675.2260, 30243.00
676.3850, 30362.00
677.5440, 30208.00
678.7030, 30364.00
679.8610, 30287.00
681.0200, 30442.00
682.1780, 30205.00
683.3360, 30442.00
684.4940, 30377.00
685.6520, 30421.00
686.8090, 30461.00
687.9670, 30447.00
689.1240, 30567.00
690.2810, 30591.83
691.4380, 30667.33
692.5950, 30704.00
693.7520, 30806.00
694.9080, 30843.00
696.0650, 30866.00
697.2210, 30844.00
698.3770, 31100.00
699.5330, 30961.00
700.6880, 31041.00
701.8440, 31073.00
702.9990, 30806.00
704.1550, 31154.00
705.3100, 31509.00
706.4650, 31324.00
707.6190, 31675.00
708.7740, 31848.00
709.9290, 31945.39
711.0830, 32422.00
712.2370, 32198.00
713.3910, 32359.00
714.5450, 32262.00
715.6980, 32182.00
716.8520, 32091.00
718.0050, 31876.00
719.1580, 31767.00
720.3110, 31600.00
721.4640, 31520.00
722.6170, 31506.00
723.7700, 31431.00
724.9220, 31196.00
726.0740, 31266.00
727.2260, 31153.00
728.3780, 31287.00
729.5300, 31246.00
730.6810, 31204.00
731.8330, 31270.00
732.9840, 31276.00
734.1350, 31449.00
735.2860, 31484.00
736.4370, 31337.00
737.5880, 31392.00
738.7380, 31320.00
739.8880, 31561.00
741.0390, 31488.00
742.1890, 31736.00
743.3380, 31445.00
744.4880, 31501.00
745.6380, 31617.00
746.7870, 31678.00
747.9360, 31562.00
749.0850, 31751.00
750.2340, 31697.00
751.3830, 31573.00
752.5310, 31697.00
753.6800, 31779.00
754.8280, 31663.00
755.9760, 31877.00
757.1240, 31938.00
758.2720, 31865.00
759.4190, 31830.00
760.5670, 31969.00
761.7140, 31770.00
762.8610, 32120.00
764.0080, 32114.00
765.1550, 32044.00
766.3020, 32273.00
767.4480, 32108.00
768.5950, 32229.00
769.7410, 32244.00
770.8870, 32185.00
772.0330, 32235.00
773.1780, 32324.00
774.3240, 32305.64
775.4690, 32397.00
776.6140, 32358.00
777.7590, 32506.00
778.9040, 32553.00
780.0490, 32574.21
781.1940, 32639.66
782.3380, 32608.00
783.4820, 32683.00
784.6260, 32647.00
785.7700, 32651.00
786.9140, 32539.00
788.0580, 32660.00
789.2010, 33017.00
790.3450, 32786.00
791.4880, 32654.00
792.6310, 32882.00
793.7730, 32666.00
794.9160, 32747.00
796.0590, 32909.00
797.2010, 32849.00
798.3430, 32973.00
799.4850, 32851.00
800.6270, 33110.00
801.7690, 32939.00
802.9100, 32961.00
804.0520, 33330.00
805.1930, 32958.00
806.3340, 33032.00
807.4750, 33082.00
808.6160, 32994.19
809.7560, 33223.00
810.8970, 33146.00
812.0370, 33094.00
813.1770, 33353.00
814.3170, 33554.00
815.4570, 33500.00
816.5960, 33458.00
817.7360, 33415.00
818.8750, 33378.00
820.0140, 33553.00
821.1530, 33558.00
822.2920, 33688.00
823.4310, 33391.00
824.5690, 33727.00
825.7070, 33637.00
826.8460, 33860.00
827.9840, 33886.00
829.1220, 33838.76
830.2590, 33791.00
831.3970, 33856.00
832.5340, 33822.00
833.6710, 33909.09
834.8080, 33909.00
835.9450, 34076.00
837.0820, 34264.00
838.2190, 34324.00
839.3550, 34438.19
840.4910, 34432.16
841.6270, 34531.00
842.7630, 34336.00
843.8990, 34283.00
845.0350, 34186.00
846.1700, 34273.00
847.3060, 34100.00
848.4410, 34195.55
849.5760, 34485.00
850.7100, 34376.00
851.8450, 34437.00
852.9800, 34649.00
854.1140, 34650.00
855.2480, 34435.00
856.3820, 34621.00
857.5160, 34589.00
858.6500, 34557.00
859.7830, 34621.00
860.9170, 34676.00
862.0500, 34673.00
863.1830, 34750.00
864.3160, 34954.00
865.4480, 34931.00
866.5810, 34907.00
867.7130, 35127.00
868.8460, 34922.00
869.9780, 34989.00
871.1100, 34953.00
872.2410, 34943.00
873.3730, 35139.00
874.5050, 35083.00
875.6360, 35195.00
876.7670, 35038.00
877.8980, 34925.00
879.0290, 35176.00
880.1590, 35293.00
881.2900, 35272.00
882.4200, 35397.00
883.5500, 35443.00
884.6800, 35479.00
885.8100, 35594.00
886.9400, 35585.00
888.0690, 35678.00
889.1990, 35697.00
890.3280, 35916.00
891.4570, 35687.00
892.5860, 36096.00
893.7140, 36478.00
894.8430, 36259.00
895.9710, 37055.00
897.1000, 37171.00
898.2280, 37955.00
899.3560, 38743.00
900.4830, 39437.00
901.6110, 40543.00
902.7380, 41315.00
903.8660, 41994.00
904.9930, 42620.00
906.1200, 42918.00
907.2460, 42759.00
908.3730, 41834.00
909.5000, 41031.00
910.6260, 39999.00
911.7520, 38693.00
912.8780, 38241.00
914.0040, 37334.00
915.1290, 37025.00
916.2550, 36652.00
917.3800, 36770.00
918.5050, 36720.00
919.6300, 36783.00
920.7550, 36738.00
921.8800, 36705.00
923.0040, 36833.00
924.1290, 36850.00
925.2530, 36702.00
926.3770, 36842.00
927.5010, 36846.00
928.6250, 37207.00
929.7480, 36807.00
930.8720, 37189.00
931.9950, 36975.00
933.1180, 37036.00
934.2410, 37315.00
935.3640, 36887.00
936.4860, 36907.00
937.6090, 37005.00
938.7310, 37191.00
939.8530, 37041.00
940.9750, 37241.00
942.0970, 37244.00
943.2180, 37325.00
944.3400, 37290.00
945.4610, 37378.98
946.5820, 37251.00
947.7030, 37457.00
948.8240, 37434.00
949.9450, 37319.00
951.0650, 37469.00
952.1860, 37656.00
953.3060, 37587.00
954.4260, 37460.00
955.5460, 37589.00
956.6650, 37608.00
957.7850, 37361.00
958.9040, 37655.00
960.0230, 37429.00
961.1420, 37556.00
962.2610, 37645.00
963.3800, 37778.00
964.4990, 37808.00
965.6170, 37932.28
966.7350, 38016.00
967.8530, 38102.00
968.9710, 38129.00
970.0890, 38144.00
971.2070, 38321.00
972.3240, 38215.00
973.4410, 38338.00
974.5580, 38007.00
975.6750, 38319.00
976.7920, 38277.00
977.9090, 38728.00
979.0250, 38646.00
980.1410, 38700.00
981.2580, 39146.00
982.3740, 39087.00
983.4890, 39368.00
984.6050, 39688.00
985.7200, 40076.00
986.8360, 40587.00
987.9510, 41164.00
989.0660, 41212.72
990.1810, 41187.14
991.2950, 41078.00
992.4100, 40650.00
993.5240, 40015.00
994.6390, 39745.00
995.7530, 39507.00
996.8660, 39520.00
997.9800, 39593.00
999.0940, 39501.00
1000.207, 39520.00
1001.320, 39382.00
1002.433, 39375.00
1003.546, 39225.00
1004.659, 39703.00
1005.772, 39757.00
1006.884, 39741.00
1007.996, 39674.00
1009.108, 39654.00
1010.220, 39819.00
1011.332, 39688.00
1012.444, 39951.00
1013.555, 39961.00
1014.666, 39635.00
1015.777, 39760.00
1016.888, 39518.00
1017.999, 39519.00
1019.110, 39298.00
1020.220, 39684.00
1021.331, 39417.00
1022.441, 39612.00
1023.551, 39791.00
1024.661, 39869.00
1025.770, 39541.00
1026.880, 39614.00
1027.989, 39643.00
1029.098, 39832.00
1030.207, 39829.88
1031.316, 39960.00
1032.425, 39942.00
1033.533, 40096.00
1034.642, 40237.00
1035.750, 40113.00
1036.858, 40040.00
1037.966, 39935.00
1039.073, 39768.00
1040.181, 40070.00
1041.288, 40263.00
1042.396, 40170.00
1043.503, 40351.00
1044.610, 40231.00
1045.716, 40191.00
1046.823, 40383.00
1047.929, 40041.00
1049.036, 40188.00
1050.142, 40259.00
1051.248, 40208.00
1052.353, 40052.00
1053.459, 40559.00
1054.564, 40452.00
1055.670, 40639.00
1056.775, 40350.00
1057.880, 40515.00
1058.985, 40688.00
1060.089, 40655.00
1061.194, 40853.00
1062.298, 40795.00
1063.402, 41005.00
1064.506, 41059.00
1065.610, 41085.00
1066.713, 41136.00
1067.817, 41404.67
1068.920, 41489.00
1070.023, 41986.00
1071.126, 42278.00
1072.229, 42531.00
1073.332, 42498.00
1074.435, 43494.00
1075.537, 44127.00
1076.639, 45408.00
1077.741, 46322.00
1078.843, 48044.00
1079.945, 50184.00
1081.046, 51641.00
1082.148, 53917.00
1083.249, 56620.00
1084.350, 61430.00
1085.451, 63901.00
1086.551, 60635.00
1087.652, 57102.00
1088.752, 54449.00
1089.853, 52101.00
1090.953, 50556.00
1092.053, 50210.00
1093.152, 50057.00
1094.252, 49108.00
1095.351, 47633.00
1096.451, 45580.00
1097.550, 44182.00
1098.649, 43079.00
1099.748, 42329.00
1100.846, 42005.00
1101.945, 42048.00
1103.043, 41699.00
1104.141, 41926.00
1105.239, 41533.00
1106.337, 41823.00
1107.434, 41729.00
1108.532, 41503.00
1109.629, 41465.00
1110.726, 41576.00
1111.823, 41453.64
1112.920, 41754.00
1114.017, 41581.00
1115.113, 41713.00
1116.210, 42127.00
1117.306, 42300.00
1118.402, 42305.00
1119.498, 42483.00
1120.593, 42451.00
1121.689, 42539.00
1122.784, 42379.00
1123.879, 42735.00
1124.974, 42483.00
1126.069, 42379.00
1127.164, 42475.00
1128.259, 42268.00
1129.353, 42288.00
1130.447, 42153.00
1131.541, 42239.00
1132.635, 42469.00
1133.729, 42067.00
1134.822, 42442.00
1135.916, 42436.00
1137.009, 42221.00
1138.102, 42373.00
1139.195, 42677.00
1140.288, 42538.00
1141.380, 42550.00
1142.473, 42325.00
1143.565, 42315.00
1144.657, 42806.00
1145.749, 42687.00
1146.841, 42743.00
1147.932, 42757.00
1149.024, 42652.00
1150.115, 42562.00
1151.206, 42839.00
1152.297, 42761.00
1153.388, 42743.00
1154.479, 42658.00
1155.569, 42815.00
1156.659, 42621.00
1157.750, 42753.00
1158.839, 42535.00
1159.929, 42984.00
1161.019, 43071.00
1162.108, 42810.00
1163.198, 42930.00
1164.287, 42932.00
1165.376, 43179.00
1166.465, 43075.00
1167.553, 43174.00
1168.642, 42939.00
1169.730, 43195.00
1170.818, 42873.00
1171.906, 43295.00
1172.994, 43182.00
1174.082, 43287.00
1175.170, 43467.00
1176.257, 43520.00
1177.344, 43308.00
1178.431, 43250.00
1179.518, 43344.00
1180.605, 43432.00
1181.691, 43295.00
1182.778, 43655.00
1183.864, 43346.00
1184.950, 43646.00
1186.036, 43437.00
1187.122, 43532.00
1188.207, 43577.00
1189.292, 43448.00
1190.378, 43631.00
1191.463, 43613.00
1192.548, 43828.00
1193.632, 44014.00
1194.717, 44016.37
1195.801, 44118.90
1196.886, 44090.00
1197.970, 44146.00
1199.054, 44160.00
1200.137, 44170.00
1201.221, 44263.00
1202.305, 43963.00
1203.388, 44305.00
1204.471, 44098.00
1205.554, 43927.00
1206.637, 44040.00
1207.719, 44237.00
1208.802, 44314.00
1209.884, 44273.00
1210.966, 44362.00
1212.048, 44202.00
1213.130, 44465.00
1214.212, 44379.00
1215.293, 44158.00
1216.374, 44403.00
1217.456, 44337.00
1218.536, 44415.00
1219.617, 44366.00
1220.698, 44435.84
1221.778, 44492.33
1222.859, 44564.00
1223.939, 44700.00
1225.019, 44745.00
1226.099, 44985.00
1227.178, 44573.00
1228.258, 44567.00
1229.337, 44694.00
1230.417, 44853.00
1231.496, 44897.00
1232.574, 44937.00
1233.653, 45142.00
1234.732, 44840.00
1235.810, 44814.00
1236.888, 44843.00
1237.966, 44956.00
1239.044, 44945.00
1240.122, 44988.41
1241.199, 44946.00
1242.277, 45033.00
1243.354, 45060.00
1244.431, 45107.00
1245.508, 45266.00
1246.585, 45423.00
1247.661, 45347.00
1248.738, 45530.00
1249.814, 45164.00
1250.890, 45373.00
1251.966, 45060.00
1253.042, 45264.00
1254.117, 45308.00
1255.193, 45455.00
1256.268, 45349.00
1257.343, 45158.00
1258.418, 45344.00
1259.493, 45542.00
1260.567, 45350.00
1261.642, 45773.00
1262.716, 45750.00
1263.790, 45543.00
1264.864, 45814.00
1265.938, 45788.00
1267.011, 45552.00
1268.085, 45765.00
1269.158, 45555.00
1270.231, 45653.00
1271.304, 45681.00
1272.377, 45683.00
1273.450, 45559.00
1274.522, 45855.00
1275.594, 45953.00
1276.666, 45897.00
1277.738, 45731.00
1278.810, 45952.00
1279.882, 46063.00
1280.953, 46152.00
1282.025, 46242.30
1283.096, 46259.00
1284.167, 46336.00
1285.238, 46227.00
1286.308, 46278.00
1287.379, 46420.00
1288.449, 46295.00
1289.519, 46603.00
1290.589, 46266.00
1291.659, 46196.00
1292.729, 46365.00
1293.798, 46503.00
1294.868, 46353.00
1295.937, 46824.00
1297.006, 46588.00
1298.075, 46463.00
1299.143, 46650.00
1300.212, 46870.00
1301.280, 46831.00
1302.348, 47060.00
1303.416, 46935.00
1304.484, 46767.00
1305.552, 46668.00
1306.620, 46596.00
1307.687, 47064.00
1308.754, 46894.00
1309.821, 46954.00
1310.888, 47216.00
1311.955, 46876.00
1313.021, 47126.00
1314.088, 47087.00
1315.154, 47098.00
1316.220, 46918.00
1317.286, 47005.00
1318.352, 47107.00
1319.417, 47182.00
1320.483, 47187.52
1321.548, 47221.00
1322.613, 47229.00
1323.678, 47271.00
1324.743, 47435.00
1325.807, 47234.00
1326.872, 47428.00
1327.936, 47827.00
1329.000, 47639.00
1330.064, 47654.00
1331.128, 47830.00
1332.191, 47629.00
1333.255, 47755.00
1334.318, 47561.00
1335.381, 47647.00
1336.444, 47651.61
1337.507, 47851.00
1338.569, 47665.00
1339.632, 47834.00
1340.694, 47767.00
1341.756, 48058.00
1342.818, 47727.00
1343.880, 48041.00
1344.941, 47914.00
1346.003, 48019.00
1347.064, 48055.00
1348.125, 48070.00
1349.186, 48142.00
1350.247, 48057.00
1351.308, 48051.00
1352.368, 48130.00
1353.428, 48184.28
1354.489, 48393.00
1355.549, 48385.00
1356.608, 48511.00
1357.668, 48529.00
1358.727, 48332.00
1359.787, 48191.00
1360.846, 48435.00
1361.905, 48495.00
1362.964, 48457.00
1364.022, 48421.00
1365.081, 48284.00
1366.139, 48525.00
1367.197, 48623.00
1368.255, 48595.00
1369.313, 48477.00
1370.371, 48669.00
1371.428, 48731.00
1372.486, 48552.00
1373.543, 48738.00
1374.600, 48587.00
1375.657, 48749.00
1376.713, 48901.00
1377.770, 48862.00
1378.826, 48611.00
1379.882, 48948.00
1380.938, 48835.00
1381.994, 49045.00
1383.050, 49025.00
1384.106, 49060.39
1385.161, 48914.00
1386.216, 49135.00
1387.271, 49166.00
1388.326, 49209.00
1389.381, 49487.00
1390.435, 49193.00
1391.490, 48989.00
1392.544, 49370.00
1393.598, 49197.00
1394.652, 49374.00
1395.705, 49476.00
1396.759, 49393.00
1397.812, 49421.00
1398.866, 49619.00
1399.919, 49473.00
1400.972, 49457.00
1402.024, 49268.00
1403.077, 49809.00
1404.129, 49607.00
1405.181, 49715.00
1406.233, 49700.00
1407.285, 49869.00
1408.337, 49820.00
1409.389, 49887.65
1410.440, 49746.00
1411.491, 50057.00
1412.542, 49817.00
1413.593, 50089.00
1414.644, 49994.00
1415.695, 50094.00
1416.745, 50061.00
1417.795, 50186.00
1418.845, 50210.00
1419.895, 50130.00
1420.945, 50061.00
1421.995, 49915.00
1423.044, 50247.00
1424.093, 50392.00
1425.142, 50354.00
1426.191, 50526.00
1427.240, 50470.00
1428.289, 50735.00
1429.337, 50591.00
1430.385, 50716.00
1431.433, 50754.00
1432.481, 51026.00
1433.529, 51018.00
1434.577, 51057.00
1435.624, 51150.00
1436.672, 51047.00
1437.719, 51039.00
1438.766, 51095.00
1439.812, 50721.00
1440.859, 50662.00
1441.905, 50742.00
1442.952, 51018.00
1443.998, 50829.00
1445.044, 50856.00
1446.090, 50825.00
1447.135, 50919.00
1448.181, 50774.00
1449.226, 50920.00
1450.271, 51109.00
1451.316, 51021.00
1452.361, 50879.00
1453.405, 50893.00
1454.450, 51077.00
1455.494, 51121.00
1456.538, 51185.41
1457.582, 51232.00
1458.626, 51291.00
1459.670, 51085.00
1460.713, 51110.00
1461.757, 51646.00
1462.800, 51394.00
1463.843, 51448.00
1464.886, 51281.00
1465.928, 51682.00
1466.971, 51413.00
1468.013, 51728.00
1469.055, 51559.00
1470.097, 51586.00
1471.139, 51415.00
1472.181, 51623.00
1473.222, 51676.00
1474.263, 51650.00
1475.305, 51665.00
1476.346, 51482.00
1477.386, 51747.00
1478.427, 51599.00
1479.468, 51510.00
1480.508, 51931.00
1481.548, 51831.00
1482.588, 51833.00
1483.628, 51680.00
1484.668, 51793.00
1485.707, 51837.00
1486.747, 52283.00
1487.786, 52130.00
1488.825, 52381.00
1489.864, 52103.00
1490.902, 52074.00
1491.941, 52288.00
1492.979, 52159.00
1494.017, 52244.00
1495.055, 52225.00
1496.093, 52302.00
1497.131, 52607.00
1498.168, 52380.00
1499.206, 52983.00
1500.243, 52859.00
1501.280, 52846.00
1502.317, 52496.00
1503.354, 52663.00
1504.390, 52560.00
1505.426, 52824.00
1506.463, 52846.00
1507.499, 52864.00
1508.535, 53000.00
1509.570, 52903.00
1510.606, 52666.00
1511.641, 52665.00
1512.676, 52767.00
1513.711, 52478.00
1514.746, 52768.00
1515.781, 52893.00
1516.816, 53030.00
1517.850, 53014.00
1518.884, 53060.00
1519.918, 52967.00
1520.952, 53152.00
1521.986, 53142.00
1523.019, 53204.00
1524.053, 53176.00
1525.086, 53105.00
1526.119, 53182.00
1527.152, 52984.00
1528.185, 53081.00
1529.217, 53328.00
1530.250, 53353.00
1531.282, 53146.00
1532.314, 53417.00
1533.346, 53152.00
1534.377, 53469.00
1535.409, 53599.00
1536.440, 53452.00
1537.472, 53613.00
1538.503, 53452.00
1539.534, 53649.00
1540.564, 53687.00
1541.595, 53498.00
1542.625, 53635.00
1543.656, 53541.00
1544.686, 53662.00
1545.716, 53719.00
1546.745, 53715.00
1547.775, 53875.00
1548.804, 53698.00
1549.834, 53781.00
1550.863, 53737.00
1551.892, 53935.00
1552.920, 54015.00
1553.949, 54048.00
1554.977, 53957.00
1556.006, 54075.00
1557.034, 54185.00
1558.062, 54125.00
1559.089, 54281.00
1560.117, 54015.00
1561.144, 54123.00
1562.172, 54461.00
1563.199, 54561.00
1564.226, 54293.00
1565.252, 54479.00
1566.279, 54467.00
1567.305, 54514.00
1568.332, 54390.00
1569.358, 54465.00
1570.384, 54263.00
1571.409, 54843.00
##END=



