##NAMES=Tilleyite
##RRUFFID=R050227
##IDEAL CHEMISTRY=Ca_5_Si_2_O_7_(CO_3_)_2_
##LOCALITY=Crestmore Quarry, Riverside County, California, USA
##OWNER=RRUFF
##SOURCE=Marcus Origlieri
##DESCRIPTION=Aggregate of colorless subhedral crystals
##STATUS=The identification of this mineral has been confirmed by X-ray diffraction.
##URL=rruff.info/R050227
##PIN_ID=L00383
##ORIENTATION=Laser parallel to a* (1 0 0). Fiducial mark perpendicular to laser is parallel to b [0 1 0]
95.94800, 17979.00
97.18200, 18193.00
98.41600, 18511.00
99.64900, 18750.00
100.8830, 18803.00
102.1160, 18878.00
103.3490, 18810.00
104.5820, 19201.00
105.8150, 19471.00
107.0470, 19554.00
108.2800, 19993.00
109.5120, 20368.00
110.7440, 20190.00
111.9760, 20186.00
113.2080, 20566.00
114.4400, 20487.00
115.6710, 20671.00
116.9030, 20519.00
118.1340, 20464.00
119.3650, 20362.00
120.5960, 20428.00
121.8270, 20317.84
123.0580, 20533.00
124.2880, 20264.00
125.5190, 20178.00
126.7490, 20311.00
127.9790, 19964.00
129.2090, 19792.00
130.4390, 19751.00
131.6680, 19825.00
132.8980, 19724.00
134.1270, 19940.00
135.3560, 19742.00
136.5850, 19745.00
137.8140, 19943.00
139.0430, 20165.00
140.2710, 20227.00
141.5000, 20210.00
142.7280, 20328.00
143.9560, 20466.00
145.1840, 20521.00
146.4120, 20693.00
147.6390, 20919.00
148.8670, 20891.00
150.0940, 20893.00
151.3210, 21270.00
152.5490, 21281.00
153.7750, 20918.00
155.0020, 21180.00
156.2290, 20962.00
157.4550, 21075.00
158.6810, 20928.00
159.9080, 21001.00
161.1340, 20850.00
162.3590, 20539.00
163.5850, 20328.00
164.8110, 20079.00
166.0360, 20028.00
167.2610, 19861.00
168.4860, 19730.00
169.7110, 20038.00
170.9360, 19749.00
172.1610, 19903.00
173.3850, 20004.00
174.6100, 20017.00
175.8340, 20037.00
177.0580, 19985.00
178.2820, 20138.00
179.5050, 19984.00
180.7290, 20206.00
181.9520, 20275.00
183.1760, 20158.00
184.3990, 20308.00
185.6220, 20377.00
186.8450, 20440.00
188.0670, 20460.00
189.2900, 20438.00
190.5120, 20633.00
191.7340, 20736.00
192.9560, 20769.00
194.1780, 20943.00
195.4000, 20942.00
196.6220, 20917.00
197.8430, 21182.00
199.0640, 21041.00
200.2860, 21296.00
201.5070, 21209.00
202.7270, 20956.00
203.9480, 20925.00
205.1690, 20703.00
206.3890, 20770.00
207.6090, 20724.00
208.8290, 20531.00
210.0490, 20493.00
211.2690, 20649.00
212.4890, 20690.00
213.7080, 20754.00
214.9280, 20524.00
216.1470, 20541.00
217.3660, 20859.00
218.5850, 20549.00
219.8030, 20727.00
221.0220, 20793.00
222.2400, 20923.00
223.4590, 20870.00
224.6770, 20775.00
225.8950, 20925.00
227.1120, 20948.00
228.3300, 21106.00
229.5480, 21248.00
230.7650, 21153.24
231.9820, 21208.00
233.1990, 21109.00
234.4160, 21157.00
235.6330, 21191.30
236.8490, 21342.00
238.0660, 21328.00
239.2820, 21259.00
240.4980, 21377.00
241.7140, 21282.00
242.9300, 21633.00
244.1460, 21619.00
245.3610, 21702.00
246.5770, 21757.00
247.7920, 21815.00
249.0070, 21890.00
250.2220, 21951.00
251.4370, 22094.00
252.6510, 22204.50
253.8660, 22515.00
255.0800, 22498.00
256.2940, 22627.00
257.5080, 22791.00
258.7220, 22738.00
259.9360, 23098.00
261.1490, 22824.00
262.3630, 22847.00
263.5760, 23127.00
264.7890, 22798.00
266.0020, 23037.00
267.2150, 23001.00
268.4270, 22923.00
269.6400, 23240.00
270.8520, 23155.00
272.0640, 23575.00
273.2760, 23309.00
274.4880, 23689.00
275.7000, 23837.00
276.9120, 24048.00
278.1230, 24297.00
279.3340, 24524.00
280.5450, 24682.58
281.7560, 24846.15
282.9670, 24933.00
284.1780, 25003.00
285.3880, 25008.00
286.5980, 25062.90
287.8090, 25092.08
289.0190, 25146.00
290.2290, 25139.00
291.4380, 25256.00
292.6480, 25263.00
293.8570, 25456.00
295.0670, 25422.00
296.2760, 25393.00
297.4850, 25307.00
298.6930, 25453.00
299.9020, 25605.00
301.1110, 25571.00
302.3190, 25663.00
303.5270, 25651.00
304.7350, 25539.00
305.9430, 25365.00
307.1510, 25088.00
308.3580, 24717.00
309.5660, 24428.00
310.7730, 24214.00
311.9800, 24290.00
313.1870, 24285.00
314.3940, 24102.00
315.6010, 23931.00
316.8070, 24027.00
318.0130, 23935.00
319.2200, 23694.00
320.4260, 23670.00
321.6310, 23572.00
322.8370, 23600.00
324.0430, 23530.00
325.2480, 23455.00
326.4540, 23525.00
327.6590, 23450.79
328.8640, 23348.00
330.0680, 23384.00
331.2730, 23217.00
332.4780, 23123.00
333.6820, 23256.00
334.8860, 23250.00
336.0900, 23163.00
337.2940, 23367.00
338.4980, 23365.00
339.7010, 23508.00
340.9050, 23559.00
342.1080, 23634.00
343.3110, 23736.00
344.5140, 23717.00
345.7170, 23906.00
346.9200, 23892.00
348.1220, 24258.00
349.3240, 24253.00
350.5270, 24176.00
351.7290, 24438.00
352.9310, 24424.00
354.1320, 24349.00
355.3340, 24502.00
356.5350, 24435.00
357.7370, 24524.00
358.9380, 24496.00
360.1390, 24293.00
361.3400, 24305.00
362.5400, 24278.00
363.7410, 24331.00
364.9410, 24122.00
366.1410, 24201.95
367.3410, 24018.00
368.5410, 24218.00
369.7410, 24085.94
370.9400, 24060.00
372.1400, 24025.00
373.3390, 24058.00
374.5380, 23965.00
375.7370, 23972.00
376.9360, 24087.00
378.1350, 23969.00
379.3330, 24573.00
380.5310, 24538.45
381.7300, 24428.13
382.9280, 24884.00
384.1260, 24092.00
385.3230, 24215.00
386.5210, 24195.00
387.7180, 24279.00
388.9160, 24454.00
390.1130, 24366.00
391.3100, 24562.00
392.5060, 24357.00
393.7030, 24403.00
394.9000, 24536.00
396.0960, 24568.00
397.2920, 24712.00
398.4880, 24745.00
399.6840, 24622.00
400.8800, 24721.00
402.0750, 24546.00
403.2710, 24563.00
404.4660, 24590.00
405.6610, 24636.00
406.8560, 24409.00
408.0510, 24594.00
409.2450, 24451.00
410.4400, 24671.00
411.6340, 24541.00
412.8280, 24681.00
414.0220, 24641.00
415.2160, 24685.00
416.4100, 24719.00
417.6030, 24863.00
418.7970, 24768.00
419.9900, 24966.00
421.1830, 25076.00
422.3760, 24891.00
423.5690, 25284.00
424.7610, 24911.00
425.9540, 24899.00
427.1460, 24988.00
428.3380, 25266.00
429.5300, 25029.00
430.7220, 25246.00
431.9140, 24821.00
433.1050, 24908.00
434.2970, 25067.00
435.4880, 24878.00
436.6790, 24994.00
437.8700, 24936.00
439.0610, 24968.00
440.2510, 24989.00
441.4420, 24963.89
442.6320, 24989.00
443.8220, 24994.00
445.0120, 25095.00
446.2020, 25211.00
447.3910, 25081.00
448.5810, 25438.00
449.7700, 25422.00
450.9600, 25494.00
452.1490, 25234.00
453.3370, 25409.00
454.5260, 25391.00
455.7150, 25301.00
456.9030, 25394.00
458.0910, 25611.00
459.2800, 25563.00
460.4670, 25666.00
461.6550, 25625.00
462.8430, 25561.00
464.0300, 25632.00
465.2180, 25617.48
466.4050, 25671.52
467.5920, 25745.00
468.7790, 25779.00
469.9650, 25827.40
471.1520, 25985.00
472.3380, 25855.00
473.5250, 25905.00
474.7110, 25820.00
475.8970, 25986.00
477.0820, 26049.00
478.2680, 26133.00
479.4540, 26314.00
480.6390, 26229.00
481.8240, 26264.00
483.0090, 26119.00
484.1940, 26428.00
485.3780, 26470.00
486.5630, 26321.00
487.7470, 26342.00
488.9320, 26277.00
490.1160, 26459.00
491.3000, 26405.00
492.4830, 26283.00
493.6670, 26506.00
494.8500, 26331.00
496.0340, 26540.00
497.2170, 26384.00
498.4000, 26773.00
499.5820, 26684.00
500.7650, 26574.00
501.9480, 26735.00
503.1300, 26858.00
504.3120, 26867.00
505.4940, 26977.00
506.6760, 26978.39
507.8580, 26928.00
509.0390, 26973.00
510.2210, 27037.00
511.4020, 27029.00
512.5830, 27137.00
513.7640, 27162.00
514.9450, 27226.00
516.1250, 27327.00
517.3060, 27351.00
518.4860, 27513.00
519.6660, 27533.00
520.8460, 27681.00
522.0260, 27702.00
523.2060, 27742.00
524.3850, 27909.00
525.5650, 28097.00
526.7440, 27950.00
527.9230, 27964.00
529.1020, 28071.00
530.2810, 28020.00
531.4590, 28018.00
532.6380, 28148.00
533.8160, 28257.00
534.9940, 28208.77
536.1720, 28140.00
537.3500, 28166.00
538.5270, 28274.00
539.7050, 28321.00
540.8820, 28396.00
542.0590, 28596.00
543.2360, 28563.00
544.4130, 28787.00
545.5900, 28708.00
546.7660, 28849.00
547.9430, 28875.00
549.1190, 28840.00
550.2950, 28642.00
551.4710, 28753.00
552.6470, 28345.00
553.8220, 28397.00
554.9980, 28358.00
556.1730, 28428.00
557.3480, 28289.00
558.5230, 28366.00
559.6980, 28084.00
560.8730, 28426.00
562.0470, 28468.00
563.2220, 28382.00
564.3960, 28195.00
565.5700, 28446.00
566.7440, 28353.00
567.9170, 28273.00
569.0910, 28322.00
570.2640, 28589.00
571.4380, 28469.00
572.6110, 28472.00
573.7840, 28330.00
574.9570, 28445.00
576.1290, 28597.00
577.3020, 28747.00
578.4740, 28713.00
579.6460, 28973.00
580.8180, 28889.00
581.9900, 28745.00
583.1620, 28825.00
584.3330, 28803.00
585.5040, 29005.00
586.6760, 28863.00
587.8470, 28945.00
589.0180, 28873.00
590.1880, 29126.00
591.3590, 29178.00
592.5290, 29171.00
593.7000, 29481.00
594.8700, 29315.00
596.0400, 29077.00
597.2090, 29284.00
598.3790, 29569.00
599.5490, 29306.00
600.7180, 29560.00
601.8870, 29359.00
603.0560, 29449.00
604.2250, 29397.00
605.3940, 29445.00
606.5620, 29604.00
607.7300, 29494.00
608.8990, 29680.00
610.0670, 29726.00
611.2350, 29746.00
612.4020, 29975.00
613.5700, 29953.00
614.7370, 30170.00
615.9050, 30435.00
617.0720, 30821.00
618.2390, 30784.00
619.4060, 30873.00
620.5720, 31021.00
621.7390, 31072.00
622.9050, 30818.00
624.0710, 30983.00
625.2370, 30932.00
626.4030, 31058.00
627.5690, 30815.00
628.7340, 30837.00
629.9000, 30796.00
631.0650, 30936.00
632.2300, 30936.00
633.3950, 31023.00
634.5600, 31183.00
635.7240, 31501.00
636.8890, 31910.00
638.0530, 32538.00
639.2170, 32998.00
640.3810, 33520.00
641.5450, 33733.00
642.7080, 34146.00
643.8720, 34328.00
645.0350, 34549.00
646.1980, 34727.00
647.3610, 34785.00
648.5240, 34661.00
649.6870, 34608.00
650.8490, 33997.00
652.0120, 33703.00
653.1740, 33098.00
654.3360, 32625.00
655.4980, 32107.00
656.6600, 31718.00
657.8210, 31567.00
658.9830, 31670.00
660.1440, 31377.00
661.3050, 31504.00
662.4660, 31103.00
663.6270, 31417.00
664.7870, 30947.00
665.9480, 31009.00
667.1080, 30916.00
668.2680, 31031.00
669.4280, 31085.00
670.5880, 30984.00
671.7480, 30965.00
672.9070, 31075.00
674.0670, 31233.00
675.2260, 31247.00
676.3850, 31107.00
677.5440, 31205.00
678.7030, 31115.00
679.8610, 31300.00
681.0200, 31233.56
682.1780, 31143.00
683.3360, 31256.00
684.4940, 31320.00
685.6520, 31491.00
686.8090, 31330.00
687.9670, 31471.00
689.1240, 31726.00
690.2810, 31503.00
691.4380, 31871.00
692.5950, 31872.00
693.7520, 31871.00
694.9080, 32063.00
696.0650, 32399.00
697.2210, 32453.00
698.3770, 32374.00
699.5330, 32415.00
700.6880, 32414.00
701.8440, 32226.00
702.9990, 32419.00
704.1550, 32575.00
705.3100, 32168.00
706.4650, 31822.00
707.6190, 32091.00
708.7740, 32281.00
709.9290, 32256.00
711.0830, 32470.00
712.2370, 32572.00
713.3910, 32573.00
714.5450, 32882.00
715.6980, 32914.00
716.8520, 32808.00
718.0050, 33122.00
719.1580, 32959.00
720.3110, 33179.00
721.4640, 33074.00
722.6170, 32923.00
723.7700, 32829.00
724.9220, 32859.00
726.0740, 33007.00
727.2260, 32775.00
728.3780, 32806.00
729.5300, 32682.00
730.6810, 32451.00
731.8330, 32515.00
732.9840, 32608.00
734.1350, 32764.00
735.2860, 32737.00
736.4370, 32715.00
737.5880, 32902.00
738.7380, 32694.00
739.8880, 32813.00
741.0390, 32791.00
742.1890, 32952.00
743.3380, 33050.00
744.4880, 33059.00
745.6380, 32969.00
746.7870, 32947.00
747.9360, 33235.00
749.0850, 33025.00
750.2340, 33147.00
751.3830, 33193.00
752.5310, 33070.00
753.6800, 33158.00
754.8280, 33101.00
755.9760, 33262.00
757.1240, 33328.00
758.2720, 33369.00
759.4190, 33464.00
760.5670, 33501.00
761.7140, 33486.00
762.8610, 33381.00
764.0080, 33713.00
765.1550, 33461.00
766.3020, 33622.00
767.4480, 33707.00
768.5950, 33735.00
769.7410, 34005.00
770.8870, 33824.00
772.0330, 33937.00
773.1780, 33818.00
774.3240, 33773.00
775.4690, 34131.00
776.6140, 33869.00
777.7590, 34049.00
778.9040, 34105.00
780.0490, 34050.00
781.1940, 34065.00
782.3380, 33974.00
783.4820, 34153.00
784.6260, 34207.00
785.7700, 34212.00
786.9140, 34220.00
788.0580, 34461.00
789.2010, 34293.00
790.3450, 34685.00
791.4880, 34650.00
792.6310, 34771.00
793.7730, 34605.00
794.9160, 34767.00
796.0590, 34724.82
797.2010, 34659.00
798.3430, 34703.00
799.4850, 34824.00
800.6270, 34780.00
801.7690, 34948.00
802.9100, 34742.00
804.0520, 34817.00
805.1930, 35104.00
806.3340, 34811.00
807.4750, 35050.00
808.6160, 35151.00
809.7560, 35065.00
810.8970, 35170.00
812.0370, 35343.00
813.1770, 35285.00
814.3170, 35366.00
815.4570, 35229.00
816.5960, 35452.00
817.7360, 35540.00
818.8750, 35661.00
820.0140, 35654.00
821.1530, 35500.00
822.2920, 35700.00
823.4310, 35499.00
824.5690, 35828.00
825.7070, 35715.00
826.8460, 35589.00
827.9840, 35982.00
829.1220, 35871.00
830.2590, 35893.00
831.3970, 36152.00
832.5340, 36485.00
833.6710, 36223.00
834.8080, 36311.00
835.9450, 36585.00
837.0820, 36589.00
838.2190, 36716.00
839.3550, 36586.00
840.4910, 36840.00
841.6270, 36809.00
842.7630, 36854.00
843.8990, 36816.00
845.0350, 36928.00
846.1700, 36847.00
847.3060, 36753.00
848.4410, 36908.00
849.5760, 37062.00
850.7100, 37224.00
851.8450, 37231.00
852.9800, 37222.00
854.1140, 37589.00
855.2480, 37421.00
856.3820, 37408.00
857.5160, 37660.00
858.6500, 37638.00
859.7830, 37624.00
860.9170, 37496.00
862.0500, 37551.00
863.1830, 37526.45
864.3160, 37619.00
865.4480, 37526.00
866.5810, 37538.00
867.7130, 37458.00
868.8460, 37748.00
869.9780, 37492.00
871.1100, 37891.00
872.2410, 37610.00
873.3730, 37452.00
874.5050, 37490.00
875.6360, 37508.00
876.7670, 37545.66
877.8980, 37608.13
879.0290, 37726.00
880.1590, 37738.00
881.2900, 37798.00
882.4200, 37846.00
883.5500, 37846.00
884.6800, 37860.00
885.8100, 37804.00
886.9400, 38180.00
888.0690, 37807.00
889.1990, 38346.00
890.3280, 38469.00
891.4570, 38404.00
892.5860, 39062.00
893.7140, 39055.00
894.8430, 39396.00
895.9710, 39799.00
897.1000, 40535.00
898.2280, 41440.68
899.3560, 42295.00
900.4830, 43898.00
901.6110, 45662.00
902.7380, 47440.00
903.8660, 48928.00
904.9930, 50000.00
906.1200, 51269.00
907.2460, 51671.00
908.3730, 51899.00
909.5000, 50775.00
910.6260, 48685.00
911.7520, 46479.00
912.8780, 44252.00
914.0040, 42516.00
915.1290, 41137.00
916.2550, 40057.00
917.3800, 39822.00
918.5050, 39524.00
919.6300, 39791.00
920.7550, 39064.00
921.8800, 39244.00
923.0040, 39286.00
924.1290, 39241.00
925.2530, 39236.00
926.3770, 39447.00
927.5010, 39479.00
928.6250, 39495.00
929.7480, 39428.00
930.8720, 39260.00
931.9950, 39431.00
933.1180, 39154.00
934.2410, 39531.00
935.3640, 39093.00
936.4860, 39107.00
937.6090, 38944.00
938.7310, 39295.00
939.8530, 38798.00
940.9750, 39191.00
942.0970, 39222.00
943.2180, 39430.00
944.3400, 39414.00
945.4610, 39365.00
946.5820, 39745.00
947.7030, 39488.00
948.8240, 39775.00
949.9450, 40161.00
951.0650, 39837.00
952.1860, 39885.00
953.3060, 39885.00
954.4260, 39891.00
955.5460, 39825.00
956.6650, 39814.00
957.7850, 39695.00
958.9040, 39764.00
960.0230, 39444.00
961.1420, 39785.00
962.2610, 39786.00
963.3800, 39541.00
964.4990, 39692.00
965.6170, 39793.00
966.7350, 39828.00
967.8530, 39676.00
968.9710, 39776.00
970.0890, 39822.00
971.2070, 39792.34
972.3240, 39884.00
973.4410, 39817.00
974.5580, 39999.00
975.6750, 40001.00
976.7920, 40172.00
977.9090, 40153.00
979.0250, 40049.00
980.1410, 40241.00
981.2580, 40516.00
982.3740, 40463.00
983.4890, 40639.00
984.6050, 40332.00
985.7200, 40333.00
986.8360, 40364.00
987.9510, 40489.00
989.0660, 40647.00
990.1810, 40264.00
991.2950, 40535.00
992.4100, 40676.00
993.5240, 40469.00
994.6390, 41012.00
995.7530, 41098.00
996.8660, 41339.00
997.9800, 41410.00
999.0940, 41539.00
1000.207, 41405.00
1001.320, 41465.00
1002.433, 41429.00
1003.546, 41656.00
1004.659, 41865.00
1005.772, 41807.00
1006.884, 42073.00
1007.996, 42125.00
1009.108, 42206.00
1010.220, 42118.00
1011.332, 42208.41
1012.444, 42167.00
1013.555, 42238.00
1014.666, 42227.00
1015.777, 42135.00
1016.888, 41963.00
1017.999, 42085.00
1019.110, 41680.00
1020.220, 42040.00
1021.331, 41696.00
1022.441, 41878.00
1023.551, 41590.00
1024.661, 41673.00
1025.770, 41738.00
1026.880, 41733.00
1027.989, 41807.16
1029.098, 41780.00
1030.207, 41826.00
1031.316, 41944.00
1032.425, 41814.00
1033.533, 41857.00
1034.642, 41826.00
1035.750, 41986.00
1036.858, 41907.00
1037.966, 41865.57
1039.073, 41634.00
1040.181, 41693.00
1041.288, 41746.00
1042.396, 41695.00
1043.503, 41905.00
1044.610, 42072.00
1045.716, 41949.00
1046.823, 41865.00
1047.929, 41831.00
1049.036, 41907.00
1050.142, 41992.00
1051.248, 42136.00
1052.353, 42049.00
1053.459, 42059.00
1054.564, 42035.00
1055.670, 42269.00
1056.775, 42190.00
1057.880, 42395.00
1058.985, 42225.00
1060.089, 42205.00
1061.194, 42450.00
1062.298, 42374.00
1063.402, 42440.00
1064.506, 42620.00
1065.610, 42663.00
1066.713, 42934.00
1067.817, 42807.00
1068.920, 42975.00
1070.023, 43221.00
1071.126, 43312.00
1072.229, 43764.00
1073.332, 45125.00
1074.435, 46479.00
1075.537, 49120.00
1076.639, 51498.00
1077.741, 52259.00
1078.843, 53924.00
1079.945, 55162.00
1081.046, 56000.00
1082.148, 55399.00
1083.249, 53620.00
1084.350, 51052.00
1085.451, 49126.00
1086.551, 48870.00
1087.652, 49688.00
1088.752, 52524.00
1089.853, 54678.00
1090.953, 55523.00
1092.053, 57119.00
1093.152, 58370.00
1094.252, 58856.00
1095.351, 57549.00
1096.451, 54920.00
1097.550, 51304.00
1098.649, 47569.00
1099.748, 45723.00
1100.846, 44718.00
1101.945, 44264.00
1103.043, 44031.00
1104.141, 43928.00
1105.239, 43961.00
1106.337, 43908.00
1107.434, 44154.00
1108.532, 44033.00
1109.629, 43963.00
1110.726, 43791.00
1111.823, 44006.00
1112.920, 44108.00
1114.017, 43788.00
1115.113, 44039.00
1116.210, 44038.00
1117.306, 44028.00
1118.402, 43869.00
1119.498, 43938.00
1120.593, 44194.00
1121.689, 44006.00
1122.784, 44072.00
1123.879, 44415.00
1124.974, 44092.00
1126.069, 44327.00
1127.164, 44323.00
1128.259, 44272.00
1129.353, 44214.00
1130.447, 44335.00
1131.541, 44184.00
1132.635, 44180.00
1133.729, 44305.00
1134.822, 44523.00
1135.916, 44676.00
1137.009, 44202.00
1138.102, 44472.00
1139.195, 44231.00
1140.288, 44401.00
1141.380, 44374.00
1142.473, 44740.00
1143.565, 44457.00
1144.657, 44543.00
1145.749, 44585.00
1146.841, 44567.00
1147.932, 44622.00
1149.024, 44726.00
1150.115, 44805.00
1151.206, 44623.00
1152.297, 44805.00
1153.388, 44968.00
1154.479, 44678.00
1155.569, 44695.00
1156.659, 44786.00
1157.750, 45006.00
1158.839, 45107.00
1159.929, 45114.00
1161.019, 45061.00
1162.108, 45110.00
1163.198, 45073.00
1164.287, 45268.00
1165.376, 45422.00
1166.465, 45524.00
1167.553, 45424.00
1168.642, 45568.00
1169.730, 45492.00
1170.818, 45696.00
1171.906, 45411.00
1172.994, 45476.00
1174.082, 45322.00
1175.170, 45301.61
1176.257, 45346.00
1177.344, 45430.00
1178.431, 45315.00
1179.518, 45625.00
1180.605, 45689.00
1181.691, 45718.00
1182.778, 45686.00
1183.864, 45761.00
1184.950, 45805.00
1186.036, 45572.00
1187.122, 45832.00
1188.207, 45636.00
1189.292, 45887.00
1190.378, 46128.00
1191.463, 45909.00
1192.548, 45810.00
1193.632, 45814.00
1194.717, 45960.00
1195.801, 45922.00
1196.886, 46103.00
1197.970, 46182.00
1199.054, 46177.00
1200.137, 46260.66
1201.221, 46224.00
1202.305, 46274.00
1203.388, 46150.00
1204.471, 46091.00
1205.554, 46022.00
1206.637, 46409.00
1207.719, 46357.65
1208.802, 46439.00
1209.884, 46635.00
1210.966, 46509.00
1212.048, 46723.00
1213.130, 46806.00
1214.212, 46625.00
1215.293, 46751.00
1216.374, 46779.00
1217.456, 47006.00
1218.536, 46948.64
1219.617, 46973.00
1220.698, 46843.00
1221.778, 46954.00
1222.859, 46803.00
1223.939, 46924.02
1225.019, 46750.00
1226.099, 47054.00
1227.178, 47211.00
1228.258, 47106.00
1229.337, 47224.00
1230.417, 47187.00
1231.496, 47249.00
1232.574, 47321.00
1233.653, 47384.00
1234.732, 47427.69
1235.810, 47413.00
1236.888, 47506.00
1237.966, 47416.00
1239.044, 47440.00
1240.122, 47851.00
1241.199, 47431.00
1242.277, 47749.00
1243.354, 47574.00
1244.431, 47933.00
1245.508, 47784.00
1246.585, 47526.00
1247.661, 47830.00
1248.738, 47633.00
1249.814, 47794.00
1250.890, 47899.00
1251.966, 47766.00
1253.042, 47666.00
1254.117, 47755.00
1255.193, 47687.00
1256.268, 47698.00
1257.343, 47731.00
1258.418, 47808.00
1259.493, 47869.86
1260.567, 47997.00
1261.642, 48141.00
1262.716, 48155.00
1263.790, 48483.00
1264.864, 48608.00
1265.938, 48626.00
1267.011, 48545.00
1268.085, 48679.00
1269.158, 48510.00
1270.231, 48692.00
1271.304, 48677.00
1272.377, 48886.00
1273.450, 48701.00
1274.522, 48849.00
1275.594, 48825.00
1276.666, 48883.00
1277.738, 48678.00
1278.810, 49124.00
1279.882, 48839.00
1280.953, 49004.00
1282.025, 49221.00
1283.096, 48731.00
1284.167, 48846.00
1285.238, 48835.00
1286.308, 49009.00
1287.379, 48892.00
1288.449, 49154.00
1289.519, 49248.00
1290.589, 49215.00
1291.659, 49472.00
1292.729, 49196.00
1293.798, 49168.00
1294.868, 49528.00
1295.937, 49272.00
1297.006, 49465.00
1298.075, 49131.00
1299.143, 49550.00
1300.212, 49516.00
1301.280, 49447.00
1302.348, 49546.00
1303.416, 49600.00
1304.484, 49551.00
1305.552, 49926.00
1306.620, 49642.00
1307.687, 49915.00
1308.754, 49848.00
1309.821, 50057.00
1310.888, 50034.00
1311.955, 50158.00
1313.021, 50105.00
1314.088, 50138.54
1315.154, 50218.00
1316.220, 50168.00
1317.286, 50318.00
1318.352, 50384.00
1319.417, 50347.00
1320.483, 50152.00
1321.548, 50284.00
1322.613, 50164.00
1323.678, 50179.00
1324.743, 50208.73
1325.807, 50170.60
1326.872, 50197.00
1327.936, 50209.00
1329.000, 50115.00
1330.064, 50184.00
1331.128, 50147.33
1332.191, 50061.00
1333.255, 50105.00
1334.318, 50242.00
1335.381, 50161.00
1336.444, 49763.00
1337.507, 50199.00
1338.569, 50027.00
1339.632, 50386.00
1340.694, 50127.00
1341.756, 50378.00
1342.818, 50318.00
1343.880, 50214.00
1344.941, 50269.00
1346.003, 50098.00
1347.064, 50162.09
1348.125, 50237.00
1349.186, 50215.00
1350.247, 50505.00
1351.308, 50518.00
1352.368, 50577.12
1353.428, 50515.00
1354.489, 50573.00
1355.549, 50503.00
1356.608, 50545.85
1357.668, 50586.05
1358.727, 50584.00
1359.787, 50621.00
1360.846, 50578.00
1361.905, 50434.00
1362.964, 50849.00
1364.022, 51178.00
1365.081, 51043.00
1366.139, 51048.00
1367.197, 50884.00
1368.255, 50962.29
1369.313, 50816.00
1370.371, 51119.00
1371.428, 51100.00
1372.486, 51199.10
1373.543, 51506.00
1374.600, 51183.00
1375.657, 51076.00
1376.713, 51114.00
1377.770, 51168.00
1378.826, 51183.00
1379.882, 51320.00
1380.938, 51255.00
1381.994, 51300.00
1383.050, 51259.00
1384.106, 51456.00
1385.161, 51379.00
1386.216, 51505.00
1387.271, 51639.00
1388.326, 51483.00
1389.381, 51520.00
1390.435, 51435.00
1391.490, 51384.16
1392.544, 51463.00
1393.598, 51403.00
1394.652, 51433.00
1395.705, 51672.00
1396.759, 51684.00
1397.812, 51580.00
1398.866, 51777.00
1399.919, 51580.00
1400.972, 51637.00
1402.024, 51837.00
1403.077, 51831.00
1404.129, 51811.00
1405.181, 51788.00
1406.233, 52097.00
1407.285, 52401.00
1408.337, 52043.00
1409.389, 51943.00
1410.440, 52490.00
1411.491, 52034.00
1412.542, 52549.00
1413.593, 52501.00
1414.644, 52491.00
1415.695, 52500.00
1416.745, 52329.00
1417.795, 52496.00
1418.845, 52362.00
1419.895, 52228.00
1420.945, 52612.00
1421.995, 52375.00
1423.044, 52582.00
1424.093, 52409.00
1425.142, 52804.00
1426.191, 53128.00
1427.240, 52691.00
1428.289, 53006.00
1429.337, 52937.00
1430.385, 53027.00
1431.433, 53099.48
1432.481, 53294.00
1433.529, 53120.00
1434.577, 53731.00
1435.624, 53744.00
1436.672, 53690.00
1437.719, 53934.00
1438.766, 53906.00
1439.812, 53496.00
1440.859, 53993.00
1441.905, 54656.00
1442.952, 54263.00
1443.998, 54359.00
1445.044, 54416.00
1446.090, 54571.00
1447.135, 54652.00
1448.181, 54603.00
1449.226, 54569.00
1450.271, 54691.00
1451.316, 54841.00
1452.361, 54688.00
1453.405, 55090.00
1454.450, 55077.00
1455.494, 54850.00
1456.538, 54805.00
1457.582, 55159.00
1458.626, 55267.00
1459.670, 54622.00
1460.713, 54971.00
1461.757, 54687.00
1462.800, 54542.00
1463.843, 54711.00
1464.886, 54351.00
1465.928, 54460.00
1466.971, 54563.00
1468.013, 54333.00
1469.055, 54234.00
1470.097, 54451.00
1471.139, 54418.00
1472.181, 54434.00
1473.222, 54549.39
1474.263, 54544.00
1475.305, 54686.00
1476.346, 54642.80
1477.386, 54353.00
1478.427, 54640.00
1479.468, 54467.00
1480.508, 54592.00
1481.548, 54380.00
1482.588, 54266.00
1483.628, 54355.00
1484.668, 54265.00
1485.707, 54533.00
1486.747, 54546.00
1487.786, 54510.00
1488.825, 54200.00
1489.864, 54678.00
1490.902, 54458.00
1491.941, 54182.00
1492.979, 54509.00
1494.017, 54356.00
1495.055, 54464.00
1496.093, 54519.00
1497.131, 54988.00
1498.168, 55002.00
1499.206, 55003.00
1500.243, 54998.00
1501.280, 55191.00
1502.317, 55390.00
1503.354, 54665.00
1504.390, 54885.00
1505.426, 54950.00
1506.463, 54580.00
1507.499, 54629.00
1508.535, 54921.00
1509.570, 54670.00
1510.606, 54806.00
1511.641, 55006.00
1512.676, 54873.00
1513.711, 54936.00
1514.746, 55173.00
1515.781, 55213.00
1516.816, 55330.00
1517.850, 55365.00
1518.884, 55273.00
1519.918, 55281.00
1520.952, 55083.00
1521.986, 55540.00
1523.019, 55049.00
1524.053, 55444.00
1525.086, 55385.00
1526.119, 55335.00
1527.152, 55460.00
1528.185, 55407.00
1529.217, 55469.00
1530.250, 55668.00
1531.282, 55700.00
1532.314, 55689.00
1533.346, 55740.00
1534.377, 55737.00
1535.409, 55809.00
1536.440, 55822.00
1537.472, 55781.00
1538.503, 55890.00
1539.534, 55935.00
1540.564, 56141.00
1541.595, 56200.00
1542.625, 56168.00
1543.656, 56022.00
1544.686, 56167.00
1545.716, 56047.00
1546.745, 56282.00
1547.775, 56077.00
1548.804, 56281.00
1549.834, 56374.00
1550.863, 56387.00
1551.892, 56238.00
1552.920, 56314.00
1553.949, 56283.66
1554.977, 56206.46
1556.006, 56301.00
1557.034, 56197.00
1558.062, 56173.00
1559.089, 56412.00
1560.117, 56637.00
1561.144, 56788.00
1562.172, 56822.00
1563.199, 56657.00
1564.226, 56860.00
1565.252, 56518.00
1566.279, 56928.00
1567.305, 56917.00
1568.332, 57007.00
1569.358, 57144.00
1570.384, 56891.00
1571.409, 57415.00
##END=



