##NAMES=Tilleyite
##RRUFFID=R050227
##IDEAL CHEMISTRY=Ca_5_Si_2_O_7_(CO_3_)_2_
##LOCALITY=Crestmore Quarry, Riverside County, California, USA
##OWNER=RRUFF
##SOURCE=Marcus Origlieri
##DESCRIPTION=Aggregate of colorless subhedral crystals
##STATUS=The identification of this mineral has been confirmed by X-ray diffraction.
##URL=rruff.info/R050227
##PIN_ID=L00528
##ORIENTATION=Laser parallel to b* (0 1 0). Fiducial mark perpendicular to laser is parallel to -c [0 0 -1]
127.9790, 14742.00
129.2090, 14805.00
130.4390, 14924.00
131.6680, 14651.00
132.8980, 14884.00
134.1270, 14918.00
135.3560, 15054.00
136.5850, 15110.00
137.8140, 15263.00
139.0430, 15526.00
140.2710, 15763.00
141.5000, 15668.00
142.7280, 16155.00
143.9560, 16225.00
145.1840, 16186.00
146.4120, 16568.00
147.6390, 16776.00
148.8670, 16929.00
150.0940, 16941.00
151.3210, 17281.00
152.5490, 17634.00
153.7750, 17568.00
155.0020, 17797.00
156.2290, 17756.00
157.4550, 17700.00
158.6810, 17339.00
159.9080, 17059.00
161.1340, 16727.00
162.3590, 16350.00
163.5850, 15986.00
164.8110, 15691.00
166.0360, 15551.00
167.2610, 15460.00
168.4860, 15565.00
169.7110, 15454.00
170.9360, 15724.00
172.1610, 15564.00
173.3850, 15890.00
174.6100, 15974.00
175.8340, 15917.00
177.0580, 16349.00
178.2820, 16321.00
179.5050, 16367.00
180.7290, 16397.00
181.9520, 16385.00
183.1760, 16311.00
184.3990, 16360.00
185.6220, 16097.00
186.8450, 16336.00
188.0670, 16173.00
189.2900, 16371.00
190.5120, 16546.00
191.7340, 16519.00
192.9560, 16727.00
194.1780, 16786.00
195.4000, 16854.00
196.6220, 16898.00
197.8430, 16886.00
199.0640, 16971.00
200.2860, 16932.12
201.5070, 16857.76
202.7270, 16847.00
203.9480, 16698.00
205.1690, 16570.00
206.3890, 16609.00
207.6090, 16541.00
208.8290, 16440.00
210.0490, 16601.00
211.2690, 16249.00
212.4890, 16076.00
213.7080, 16293.00
214.9280, 16114.00
216.1470, 16125.00
217.3660, 16158.00
218.5850, 16241.00
219.8030, 16171.00
221.0220, 16222.00
222.2400, 16281.00
223.4590, 16202.00
224.6770, 16429.00
225.8950, 16487.00
227.1120, 16719.00
228.3300, 16823.00
229.5480, 16744.00
230.7650, 16748.00
231.9820, 16820.00
233.1990, 17007.00
234.4160, 16940.00
235.6330, 16898.00
236.8490, 17063.00
238.0660, 17003.00
239.2820, 17092.00
240.4980, 17105.00
241.7140, 17087.00
242.9300, 17047.00
244.1460, 17171.00
245.3610, 17276.00
246.5770, 17300.00
247.7920, 17407.00
249.0070, 17481.00
250.2220, 17612.00
251.4370, 17747.00
252.6510, 17780.00
253.8660, 18048.00
255.0800, 18051.00
256.2940, 18324.00
257.5080, 18669.00
258.7220, 18776.00
259.9360, 19063.00
261.1490, 18911.00
262.3630, 19084.00
263.5760, 19029.00
264.7890, 19072.00
266.0020, 19240.00
267.2150, 19481.00
268.4270, 19782.00
269.6400, 20133.28
270.8520, 20514.00
272.0640, 21014.00
273.2760, 21500.00
274.4880, 22069.00
275.7000, 22494.00
276.9120, 23249.00
278.1230, 23580.00
279.3340, 23896.00
280.5450, 23969.00
281.7560, 24235.00
282.9670, 24012.00
284.1780, 23814.00
285.3880, 23340.00
286.5980, 22941.00
287.8090, 22932.00
289.0190, 22457.00
290.2290, 22241.00
291.4380, 22208.00
292.6480, 22030.00
293.8570, 21855.00
295.0670, 21761.00
296.2760, 21851.00
297.4850, 21915.00
298.6930, 21979.00
299.9020, 21908.00
301.1110, 21959.00
302.3190, 21512.00
303.5270, 21071.00
304.7350, 20875.00
305.9430, 20514.00
307.1510, 20148.00
308.3580, 19673.00
309.5660, 19234.00
310.7730, 19107.00
311.9800, 19021.00
313.1870, 19043.00
314.3940, 19156.00
315.6010, 18909.00
316.8070, 18952.00
318.0130, 18867.00
319.2200, 18673.00
320.4260, 18843.00
321.6310, 18725.00
322.8370, 18576.00
324.0430, 18556.00
325.2480, 18626.00
326.4540, 18405.00
327.6590, 18494.00
328.8640, 18319.00
330.0680, 18434.00
331.2730, 18514.00
332.4780, 18324.00
333.6820, 18450.00
334.8860, 18252.00
336.0900, 18547.00
337.2940, 18502.00
338.4980, 18498.00
339.7010, 18432.00
340.9050, 18419.00
342.1080, 18756.00
343.3110, 18772.00
344.5140, 18961.00
345.7170, 18951.00
346.9200, 19332.00
348.1220, 19439.00
349.3240, 19518.00
350.5270, 19793.00
351.7290, 19871.00
352.9310, 19894.00
354.1320, 20083.00
355.3340, 20196.00
356.5350, 20136.00
357.7370, 20178.35
358.9380, 19991.00
360.1390, 19981.00
361.3400, 19803.00
362.5400, 19511.00
363.7410, 19563.00
364.9410, 19538.00
366.1410, 19341.00
367.3410, 19362.00
368.5410, 19242.00
369.7410, 19130.00
370.9400, 19009.00
372.1400, 18896.00
373.3390, 18737.00
374.5380, 18839.00
375.7370, 18863.00
376.9360, 18810.00
378.1350, 18729.00
379.3330, 18715.00
380.5310, 18654.00
381.7300, 18698.00
382.9280, 18797.00
384.1260, 18666.00
385.3230, 18654.00
386.5210, 18659.00
387.7180, 18772.00
388.9160, 18929.00
390.1130, 18997.00
391.3100, 19116.00
392.5060, 19211.00
393.7030, 19110.00
394.9000, 19319.00
396.0960, 19286.00
397.2920, 19195.00
398.4880, 19528.00
399.6840, 19468.00
400.8800, 19432.00
402.0750, 19432.00
403.2710, 19456.00
404.4660, 19423.00
405.6610, 19366.00
406.8560, 19344.00
408.0510, 19290.00
409.2450, 19261.95
410.4400, 19438.00
411.6340, 19329.00
412.8280, 19357.00
414.0220, 19663.00
415.2160, 19610.00
416.4100, 19568.00
417.6030, 19742.00
418.7970, 19591.00
419.9900, 19770.00
421.1830, 19952.00
422.3760, 19834.00
423.5690, 19913.00
424.7610, 19955.00
425.9540, 19902.00
427.1460, 19863.00
428.3380, 19845.00
429.5300, 19831.00
430.7220, 19736.00
431.9140, 19626.00
433.1050, 19667.00
434.2970, 19682.00
435.4880, 19738.00
436.6790, 19540.00
437.8700, 19633.00
439.0610, 19433.00
440.2510, 19555.00
441.4420, 19647.00
442.6320, 19843.00
443.8220, 19424.00
445.0120, 19556.00
446.2020, 19625.00
447.3910, 19615.00
448.5810, 20059.00
449.7700, 19840.00
450.9600, 19716.00
452.1490, 19941.00
453.3370, 19616.00
454.5260, 19848.00
455.7150, 19540.00
456.9030, 19862.00
458.0910, 19909.00
459.2800, 19834.00
460.4670, 19921.00
461.6550, 19927.00
462.8430, 19815.00
464.0300, 20088.00
465.2180, 20005.00
466.4050, 20200.00
467.5920, 19845.00
468.7790, 19853.00
469.9650, 19858.00
471.1520, 20020.00
472.3380, 20156.00
473.5250, 20104.00
474.7110, 20188.00
475.8970, 20221.00
477.0820, 20189.00
478.2680, 20276.00
479.4540, 20467.00
480.6390, 20618.00
481.8240, 20814.00
483.0090, 20536.00
484.1940, 20826.00
485.3780, 20715.00
486.5630, 20732.00
487.7470, 20771.00
488.9320, 20726.00
490.1160, 20762.34
491.3000, 20644.00
492.4830, 20721.00
493.6670, 20647.00
494.8500, 20478.00
496.0340, 20809.00
497.2170, 20673.00
498.4000, 20628.00
499.5820, 20877.00
500.7650, 20971.00
501.9480, 21090.00
503.1300, 21020.00
504.3120, 21142.00
505.4940, 21204.00
506.6760, 21273.00
507.8580, 21189.00
509.0390, 21064.00
510.2210, 21185.00
511.4020, 21119.00
512.5830, 21078.00
513.7640, 21137.00
514.9450, 21159.98
516.1250, 21287.97
517.3060, 21322.00
518.4860, 21545.00
519.6660, 21658.00
520.8460, 21662.00
522.0260, 21812.00
523.2060, 21765.00
524.3850, 22362.00
525.5650, 22327.00
526.7440, 22444.00
527.9230, 22172.00
529.1020, 22264.00
530.2810, 22107.00
531.4590, 22093.00
532.6380, 22072.00
533.8160, 22011.00
534.9940, 22136.00
536.1720, 22151.13
537.3500, 21941.00
538.5270, 22272.00
539.7050, 22323.00
540.8820, 22296.00
542.0590, 22768.00
543.2360, 22775.00
544.4130, 22694.00
545.5900, 22968.00
546.7660, 22997.00
547.9430, 22770.00
549.1190, 22519.00
550.2950, 22497.00
551.4710, 22400.00
552.6470, 22308.00
553.8220, 22301.00
554.9980, 22319.00
556.1730, 22056.00
557.3480, 22140.00
558.5230, 22151.00
559.6980, 21933.00
560.8730, 21942.00
562.0470, 22140.00
563.2220, 22066.00
564.3960, 21932.00
565.5700, 21966.00
566.7440, 22162.00
567.9170, 21899.00
569.0910, 22081.00
570.2640, 22105.00
571.4380, 22107.00
572.6110, 22000.00
573.7840, 22242.00
574.9570, 22058.00
576.1290, 22061.00
577.3020, 22377.00
578.4740, 22384.00
579.6460, 22358.00
580.8180, 22477.00
581.9900, 22425.50
583.1620, 22245.00
584.3330, 22402.00
585.5040, 22371.00
586.6760, 22359.00
587.8470, 22479.00
589.0180, 22475.00
590.1880, 22635.00
591.3590, 22521.00
592.5290, 22438.00
593.7000, 22640.00
594.8700, 22424.00
596.0400, 22606.00
597.2090, 22653.00
598.3790, 22622.00
599.5490, 22909.00
600.7180, 22775.00
601.8870, 22576.00
603.0560, 22816.00
604.2250, 22679.00
605.3940, 22823.00
606.5620, 22820.00
607.7300, 22841.00
608.8990, 22974.00
610.0670, 22853.00
611.2350, 23151.00
612.4020, 22994.00
613.5700, 23113.00
614.7370, 23257.00
615.9050, 23311.00
617.0720, 23247.00
618.2390, 23183.00
619.4060, 23375.00
620.5720, 23508.00
621.7390, 23522.00
622.9050, 23480.00
624.0710, 23675.00
625.2370, 23582.00
626.4030, 23742.00
627.5690, 23964.00
628.7340, 24002.00
629.9000, 24352.00
631.0650, 24457.00
632.2300, 24262.00
633.3950, 24746.00
634.5600, 24955.00
635.7240, 25181.00
636.8890, 25582.00
638.0530, 26084.00
639.2170, 26574.00
640.3810, 27190.00
641.5450, 27895.00
642.7080, 28406.00
643.8720, 28629.00
645.0350, 28998.00
646.1980, 29042.00
647.3610, 29008.00
648.5240, 28578.00
649.6870, 28140.00
650.8490, 27750.00
652.0120, 27460.00
653.1740, 26793.00
654.3360, 26505.00
655.4980, 26571.00
656.6600, 26044.00
657.8210, 26101.00
658.9830, 25952.00
660.1440, 25727.00
661.3050, 25692.00
662.4660, 25515.36
663.6270, 25436.00
664.7870, 25348.00
665.9480, 25257.79
667.1080, 25221.00
668.2680, 25141.00
669.4280, 25156.00
670.5880, 25121.00
671.7480, 25217.00
672.9070, 25057.00
674.0670, 24943.00
675.2260, 25082.00
676.3850, 24871.00
677.5440, 24798.00
678.7030, 24810.00
679.8610, 24911.00
681.0200, 25136.00
682.1780, 25051.00
683.3360, 25086.00
684.4940, 24866.00
685.6520, 24790.00
686.8090, 24819.00
687.9670, 25016.00
689.1240, 25185.00
690.2810, 25186.00
691.4380, 25255.00
692.5950, 25338.00
693.7520, 25658.00
694.9080, 25739.00
696.0650, 25922.00
697.2210, 25902.00
698.3770, 26093.00
699.5330, 26090.00
700.6880, 25932.00
701.8440, 26002.00
702.9990, 25906.00
704.1550, 26054.00
705.3100, 26074.43
706.4650, 26069.00
707.6190, 26300.00
708.7740, 26472.00
709.9290, 26776.00
711.0830, 27268.00
712.2370, 27200.00
713.3910, 27535.00
714.5450, 27830.00
715.6980, 27579.00
716.8520, 27600.00
718.0050, 27181.00
719.1580, 27132.00
720.3110, 26850.00
721.4640, 26726.00
722.6170, 26441.00
723.7700, 26068.00
724.9220, 25910.00
726.0740, 25894.00
727.2260, 25587.00
728.3780, 25610.00
729.5300, 25789.00
730.6810, 25622.00
731.8330, 25448.00
732.9840, 25765.00
734.1350, 25627.00
735.2860, 25812.00
736.4370, 25999.00
737.5880, 25696.00
738.7380, 25930.00
739.8880, 26120.00
741.0390, 26247.00
742.1890, 26603.00
743.3380, 26032.00
744.4880, 25873.00
745.6380, 25937.00
746.7870, 25902.00
747.9360, 25999.00
749.0850, 26195.00
750.2340, 26191.93
751.3830, 25940.00
752.5310, 26128.00
753.6800, 26089.05
754.8280, 26091.00
755.9760, 26244.00
757.1240, 26233.00
758.2720, 26345.00
759.4190, 26257.00
760.5670, 26277.00
761.7140, 26149.00
762.8610, 26274.00
764.0080, 26256.00
765.1550, 26512.00
766.3020, 26453.00
767.4480, 26536.00
768.5950, 26460.00
769.7410, 26355.00
770.8870, 26523.00
772.0330, 26473.00
773.1780, 26589.00
774.3240, 26606.00
775.4690, 26659.00
776.6140, 26713.00
777.7590, 26790.85
778.9040, 26845.59
780.0490, 26982.00
781.1940, 26930.00
782.3380, 27022.77
783.4820, 26974.00
784.6260, 26942.00
785.7700, 26955.00
786.9140, 26979.96
788.0580, 27020.00
789.2010, 27092.00
790.3450, 27089.00
791.4880, 27147.00
792.6310, 27144.62
793.7730, 27005.00
794.9160, 27190.00
796.0590, 27030.00
797.2010, 27157.00
798.3430, 27130.00
799.4850, 27214.00
800.6270, 27403.00
801.7690, 27138.00
802.9100, 27224.00
804.0520, 27243.00
805.1930, 27500.00
806.3340, 27505.00
807.4750, 27216.00
808.6160, 27364.00
809.7560, 27328.93
810.8970, 27477.00
812.0370, 27430.00
813.1770, 27590.00
814.3170, 27605.00
815.4570, 27786.00
816.5960, 27765.00
817.7360, 27843.19
818.8750, 27873.00
820.0140, 27931.00
821.1530, 27836.00
822.2920, 27860.00
823.4310, 27738.00
824.5690, 28060.00
825.7070, 27818.00
826.8460, 28066.00
827.9840, 28150.00
829.1220, 28079.00
830.2590, 28315.00
831.3970, 28209.00
832.5340, 28435.00
833.6710, 28569.00
834.8080, 28555.00
835.9450, 28649.00
837.0820, 28555.00
838.2190, 28659.00
839.3550, 28660.00
840.4910, 28748.00
841.6270, 28605.00
842.7630, 28344.00
843.8990, 28634.00
845.0350, 28516.00
846.1700, 28470.00
847.3060, 28767.00
848.4410, 28642.00
849.5760, 28495.00
850.7100, 28497.00
851.8450, 28460.30
852.9800, 28607.00
854.1140, 28534.00
855.2480, 28639.00
856.3820, 28733.00
857.5160, 28552.00
858.6500, 28747.00
859.7830, 28992.00
860.9170, 28868.00
862.0500, 29217.00
863.1830, 29001.00
864.3160, 29106.00
865.4480, 29275.00
866.5810, 29344.00
867.7130, 29308.00
868.8460, 29224.00
869.9780, 29253.00
871.1100, 29208.00
872.2410, 29163.00
873.3730, 29200.00
874.5050, 29375.00
875.6360, 29077.00
876.7670, 29420.00
877.8980, 29399.00
879.0290, 29432.00
880.1590, 29550.00
881.2900, 29537.00
882.4200, 29732.00
883.5500, 29692.00
884.6800, 29709.00
885.8100, 29754.00
886.9400, 30067.00
888.0690, 30119.00
889.1990, 30323.00
890.3280, 30396.00
891.4570, 30688.00
892.5860, 30820.00
893.7140, 31243.00
894.8430, 31773.00
895.9710, 32625.00
897.1000, 33463.00
898.2280, 34721.00
899.3560, 36510.00
900.4830, 38762.00
901.6110, 40950.00
902.7380, 43425.00
903.8660, 45444.00
904.9930, 46925.00
906.1200, 47426.00
907.2460, 47163.00
908.3730, 44868.00
909.5000, 42270.00
910.6260, 39251.00
911.7520, 37006.00
912.8780, 35118.00
914.0040, 33557.00
915.1290, 32482.00
916.2550, 31863.00
917.3800, 31577.00
918.5050, 31509.00
919.6300, 31591.00
920.7550, 31261.00
921.8800, 31416.00
923.0040, 31306.00
924.1290, 31228.00
925.2530, 31342.00
926.3770, 31422.00
927.5010, 31639.00
928.6250, 31530.00
929.7480, 31519.00
930.8720, 31616.00
931.9950, 31255.00
933.1180, 31388.00
934.2410, 31401.00
935.3640, 31603.00
936.4860, 31316.00
937.6090, 31336.00
938.7310, 31328.00
939.8530, 31158.00
940.9750, 31355.00
942.0970, 31379.00
943.2180, 31423.00
944.3400, 31441.00
945.4610, 31549.00
946.5820, 31559.75
947.7030, 31707.00
948.8240, 31604.00
949.9450, 31743.00
951.0650, 31721.00
952.1860, 31780.00
953.3060, 31776.00
954.4260, 31819.00
955.5460, 31956.00
956.6650, 31627.00
957.7850, 31644.00
958.9040, 31438.00
960.0230, 31489.00
961.1420, 31786.00
962.2610, 31727.00
963.3800, 32061.00
964.4990, 32143.00
965.6170, 32111.00
966.7350, 32341.00
967.8530, 32348.00
968.9710, 32671.00
970.0890, 32516.00
971.2070, 32610.00
972.3240, 32558.00
973.4410, 32707.00
974.5580, 32634.00
975.6750, 32509.00
976.7920, 32740.00
977.9090, 32512.00
979.0250, 32959.00
980.1410, 33114.00
981.2580, 33371.00
982.3740, 33341.00
983.4890, 33396.00
984.6050, 33942.00
985.7200, 34349.00
986.8360, 34389.00
987.9510, 34923.00
989.0660, 35095.00
990.1810, 35082.00
991.2950, 34815.00
992.4100, 34211.00
993.5240, 33964.00
994.6390, 33977.00
995.7530, 33347.00
996.8660, 33440.00
997.9800, 33254.00
999.0940, 32981.00
1000.207, 33232.00
1001.320, 33443.00
1002.433, 33598.00
1003.546, 33808.22
1004.659, 33888.74
1005.772, 34108.00
1006.884, 34062.00
1007.996, 34081.00
1009.108, 34222.00
1010.220, 34144.00
1011.332, 34301.00
1012.444, 34102.00
1013.555, 33749.00
1014.666, 33794.00
1015.777, 33723.00
1016.888, 33549.00
1017.999, 33566.00
1019.110, 33495.00
1020.220, 33556.00
1021.331, 33439.00
1022.441, 33707.00
1023.551, 33660.00
1024.661, 33635.00
1025.770, 33356.00
1026.880, 33397.00
1027.989, 33652.00
1029.098, 33613.00
1030.207, 33832.00
1031.316, 33868.00
1032.425, 33830.00
1033.533, 33696.00
1034.642, 33661.00
1035.750, 33758.00
1036.858, 33859.00
1037.966, 33590.00
1039.073, 33888.00
1040.181, 33787.00
1041.288, 33706.00
1042.396, 34067.00
1043.503, 33854.00
1044.610, 33997.00
1045.716, 34078.00
1046.823, 34107.00
1047.929, 33981.00
1049.036, 33769.00
1050.142, 34027.00
1051.248, 34177.00
1052.353, 33969.00
1053.459, 33995.00
1054.564, 34199.00
1055.670, 33938.00
1056.775, 34184.00
1057.880, 34359.00
1058.985, 34183.00
1060.089, 34380.00
1061.194, 34512.00
1062.298, 34365.00
1063.402, 34361.00
1064.506, 34713.00
1065.610, 34871.00
1066.713, 35090.00
1067.817, 35340.57
1068.920, 35360.00
1070.023, 35800.00
1071.126, 36110.00
1072.229, 36388.00
1073.332, 37040.00
1074.435, 38095.00
1075.537, 40100.00
1076.639, 42250.00
1077.741, 45171.00
1078.843, 50359.00
1079.945, 54240.00
1081.046, 54996.00
1082.148, 56467.00
1083.249, 58524.00
1084.350, 61623.00
1085.451, 62740.00
1086.551, 62361.00
1087.652, 60798.00
1088.752, 57230.00
1089.853, 54479.00
1090.953, 53465.00
1092.053, 55495.00
1093.152, 56153.00
1094.252, 53080.00
1095.351, 48151.00
1096.451, 44242.00
1097.550, 40786.00
1098.649, 38312.00
1099.748, 37066.00
1100.846, 36097.00
1101.945, 36008.00
1103.043, 35726.00
1104.141, 35493.00
1105.239, 35465.00
1106.337, 35510.00
1107.434, 35377.00
1108.532, 35474.00
1109.629, 35416.00
1110.726, 35321.00
1111.823, 35535.00
1112.920, 35424.00
1114.017, 35448.00
1115.113, 35437.00
1116.210, 35626.00
1117.306, 35561.00
1118.402, 35594.00
1119.498, 35545.00
1120.593, 35480.00
1121.689, 35577.00
1122.784, 35817.00
1123.879, 35669.00
1124.974, 35733.00
1126.069, 35530.00
1127.164, 35843.00
1128.259, 35504.00
1129.353, 35546.00
1130.447, 35953.00
1131.541, 35924.00
1132.635, 35764.00
1133.729, 35680.00
1134.822, 35732.68
1135.916, 35996.00
1137.009, 35887.00
1138.102, 35854.00
1139.195, 35979.00
1140.288, 35843.00
1141.380, 35941.00
1142.473, 35914.00
1143.565, 36205.00
1144.657, 36050.00
1145.749, 35934.00
1146.841, 36377.00
1147.932, 36308.00
1149.024, 36217.00
1150.115, 36109.00
1151.206, 36084.00
1152.297, 36259.00
1153.388, 36323.00
1154.479, 36429.43
1155.569, 36518.68
1156.659, 36607.00
1157.750, 36603.00
1158.839, 36533.00
1159.929, 36439.00
1161.019, 36506.00
1162.108, 36498.00
1163.198, 36547.00
1164.287, 36189.00
1165.376, 36677.00
1166.465, 36409.00
1167.553, 36664.00
1168.642, 36632.00
1169.730, 36816.00
1170.818, 36682.00
1171.906, 36614.00
1172.994, 36598.00
1174.082, 36890.00
1175.170, 36757.00
1176.257, 36944.00
1177.344, 36878.00
1178.431, 37099.00
1179.518, 37058.00
1180.605, 37268.00
1181.691, 37083.00
1182.778, 36971.00
1183.864, 37087.00
1184.950, 36993.00
1186.036, 37112.00
1187.122, 37287.00
1188.207, 37150.00
1189.292, 36876.00
1190.378, 37330.00
1191.463, 37212.00
1192.548, 37366.00
1193.632, 37430.00
1194.717, 37445.00
1195.801, 37545.00
1196.886, 37555.92
1197.970, 37443.00
1199.054, 37608.00
1200.137, 37418.00
1201.221, 37428.00
1202.305, 37400.00
1203.388, 37535.00
1204.471, 37667.00
1205.554, 37676.70
1206.637, 37895.00
1207.719, 37745.00
1208.802, 37759.00
1209.884, 37735.00
1210.966, 37851.00
1212.048, 37730.00
1213.130, 37855.00
1214.212, 37837.00
1215.293, 37826.00
1216.374, 37895.15
1217.456, 37782.00
1218.536, 37971.00
1219.617, 38066.00
1220.698, 38121.00
1221.778, 38114.00
1222.859, 38298.00
1223.939, 38260.14
1225.019, 38425.00
1226.099, 38186.00
1227.178, 38280.00
1228.258, 38056.00
1229.337, 38399.00
1230.417, 38258.00
1231.496, 38335.00
1232.574, 38467.00
1233.653, 38514.00
1234.732, 38520.00
1235.810, 38550.12
1236.888, 38448.00
1237.966, 38522.00
1239.044, 38552.00
1240.122, 38548.00
1241.199, 38666.00
1242.277, 38546.00
1243.354, 38585.00
1244.431, 38840.00
1245.508, 38536.00
1246.585, 38989.00
1247.661, 38702.00
1248.738, 38855.00
1249.814, 38828.00
1250.890, 38955.00
1251.966, 38886.00
1253.042, 38760.00
1254.117, 38972.00
1255.193, 38672.00
1256.268, 38846.00
1257.343, 38737.00
1258.418, 39028.00
1259.493, 39095.00
1260.567, 38975.00
1261.642, 38959.00
1262.716, 39130.00
1263.790, 39283.00
1264.864, 39211.00
1265.938, 39154.00
1267.011, 39563.00
1268.085, 39360.00
1269.158, 39426.00
1270.231, 39390.00
1271.304, 39173.00
1272.377, 39604.00
1273.450, 39467.00
1274.522, 39411.00
1275.594, 39560.00
1276.666, 39562.00
1277.738, 39391.00
1278.810, 39588.00
1279.882, 39539.00
1280.953, 39595.00
1282.025, 39533.00
1283.096, 39723.00
1284.167, 39793.00
1285.238, 39924.00
1286.308, 39979.94
1287.379, 39873.00
1288.449, 40023.00
1289.519, 39807.00
1290.589, 39742.00
1291.659, 39821.00
1292.729, 39876.00
1293.798, 39846.00
1294.868, 39854.00
1295.937, 40116.00
1297.006, 40168.00
1298.075, 40158.00
1299.143, 40248.00
1300.212, 39996.00
1301.280, 40071.00
1302.348, 40179.00
1303.416, 40128.00
1304.484, 40362.00
1305.552, 40358.16
1306.620, 40163.00
1307.687, 40379.00
1308.754, 40538.00
1309.821, 40368.00
1310.888, 40440.00
1311.955, 40099.00
1313.021, 40723.00
1314.088, 40732.00
1315.154, 40511.00
1316.220, 40826.00
1317.286, 40396.00
1318.352, 40810.00
1319.417, 40737.00
1320.483, 40658.00
1321.548, 40868.00
1322.613, 40977.00
1323.678, 40691.00
1324.743, 40874.00
1325.807, 40640.00
1326.872, 40790.00
1327.936, 40965.00
1329.000, 41051.00
1330.064, 41213.00
1331.128, 41034.00
1332.191, 41078.00
1333.255, 40963.00
1334.318, 41052.00
1335.381, 41074.00
1336.444, 41210.00
1337.507, 41418.00
1338.569, 41038.00
1339.632, 41060.00
1340.694, 41276.00
1341.756, 41278.00
1342.818, 41333.00
1343.880, 41461.00
1344.941, 41402.00
1346.003, 41394.00
1347.064, 41552.00
1348.125, 41278.00
1349.186, 41579.00
1350.247, 41655.00
1351.308, 41683.00
1352.368, 41539.00
1353.428, 41426.00
1354.489, 41694.00
1355.549, 41717.00
1356.608, 41832.00
1357.668, 41897.00
1358.727, 41780.00
1359.787, 41725.00
1360.846, 41881.00
1361.905, 41777.00
1362.964, 42062.00
1364.022, 42139.00
1365.081, 41630.00
1366.139, 41887.00
1367.197, 41878.00
1368.255, 42153.00
1369.313, 41998.00
1370.371, 42144.00
1371.428, 42044.00
1372.486, 42246.00
1373.543, 42139.00
1374.600, 42371.00
1375.657, 42148.00
1376.713, 42197.00
1377.770, 42349.00
1378.826, 42375.00
1379.882, 42458.00
1380.938, 42640.00
1381.994, 42557.00
1383.050, 42405.00
1384.106, 42413.00
1385.161, 42470.00
1386.216, 42750.00
1387.271, 42558.00
1388.326, 42766.00
1389.381, 42631.00
1390.435, 42781.00
1391.490, 42725.00
1392.544, 42744.00
1393.598, 42809.00
1394.652, 42689.00
1395.705, 42728.00
1396.759, 42734.00
1397.812, 42783.02
1398.866, 42830.29
1399.919, 43001.00
1400.972, 42919.00
1402.024, 43090.00
1403.077, 43088.00
1404.129, 43087.00
1405.181, 43187.00
1406.233, 43219.80
1407.285, 43209.00
1408.337, 43393.00
1409.389, 43443.00
1410.440, 43578.00
1411.491, 43699.00
1412.542, 43549.00
1413.593, 43554.00
1414.644, 43563.00
1415.695, 43816.00
1416.745, 43450.00
1417.795, 43772.00
1418.845, 43649.00
1419.895, 43879.00
1420.945, 43745.00
1421.995, 43912.00
1423.044, 43901.00
1424.093, 43937.00
1425.142, 44095.00
1426.191, 44125.00
1427.240, 44224.00
1428.289, 44331.34
1429.337, 44425.00
1430.385, 44527.00
1431.433, 44633.00
1432.481, 44722.00
1433.529, 44796.00
1434.577, 44623.00
1435.624, 44743.00
1436.672, 44605.00
1437.719, 44527.00
1438.766, 44482.00
1439.812, 44454.00
1440.859, 44205.00
1441.905, 44400.00
1442.952, 44016.00
1443.998, 44292.00
1445.044, 44322.00
1446.090, 44262.00
1447.135, 44229.00
1448.181, 44250.20
1449.226, 44289.00
1450.271, 44314.00
1451.316, 44440.00
1452.361, 44569.00
1453.405, 44641.00
1454.450, 44894.00
1455.494, 44625.00
1456.538, 44827.00
1457.582, 44706.00
1458.626, 44508.00
1459.670, 44757.00
1460.713, 44862.00
1461.757, 44603.00
1462.800, 44889.00
1463.843, 44961.00
1464.886, 45220.00
1465.928, 44735.00
1466.971, 44917.00
1468.013, 44920.00
1469.055, 44739.00
1470.097, 44886.00
1471.139, 45193.00
1472.181, 45153.00
1473.222, 45131.00
1474.263, 45403.00
1475.305, 45209.00
1476.346, 45215.00
1477.386, 45137.00
1478.427, 45084.00
1479.468, 45009.00
1480.508, 45342.00
1481.548, 45279.00
1482.588, 45234.00
1483.628, 45424.00
1484.668, 45373.00
1485.707, 45686.00
1486.747, 45574.00
1487.786, 45701.00
1488.825, 45652.00
1489.864, 45514.00
1490.902, 45985.00
1491.941, 45826.00
1492.979, 45936.00
1494.017, 45577.00
1495.055, 45738.00
1496.093, 45806.00
1497.131, 46257.00
1498.168, 46317.00
1499.206, 46600.00
1500.243, 46497.00
1501.280, 46691.00
1502.317, 46470.00
1503.354, 46503.00
1504.390, 46698.00
1505.426, 46416.00
1506.463, 46531.00
1507.499, 46380.00
1508.535, 46497.00
1509.570, 46285.00
1510.606, 46459.00
1511.641, 46574.00
1512.676, 46818.00
1513.711, 46928.00
1514.746, 46841.05
1515.781, 46468.00
1516.816, 46622.00
1517.850, 46744.00
1518.884, 46767.00
1519.918, 46860.00
1520.952, 46785.00
1521.986, 46907.00
1523.019, 46472.00
1524.053, 46740.00
1525.086, 46514.00
1526.119, 46430.00
1527.152, 46544.00
1528.185, 46730.00
1529.217, 46761.00
1530.250, 46893.07
1531.282, 46883.00
1532.314, 47006.00
1533.346, 47090.00
1534.377, 46994.00
1535.409, 46915.00
1536.440, 47240.00
1537.472, 46827.00
1538.503, 47202.00
1539.534, 47124.00
1540.564, 47197.00
1541.595, 47345.00
1542.625, 47266.00
1543.656, 47445.00
1544.686, 47318.00
1545.716, 47412.00
1546.745, 47285.00
1547.775, 47374.00
1548.804, 47585.00
1549.834, 47528.00
1550.863, 47662.00
1551.892, 47743.00
1552.920, 47714.82
1553.949, 47751.55
1554.977, 47727.00
1556.006, 47721.00
1557.034, 47772.86
1558.062, 47814.00
1559.089, 47870.00
1560.117, 47810.00
1561.144, 48045.00
1562.172, 47721.00
1563.199, 48052.00
1564.226, 48015.00
1565.252, 48117.00
1566.279, 48068.00
1567.305, 48138.00
1568.332, 48287.00
1569.358, 48005.00
1570.384, 48305.00
1571.409, 48606.00
##END=



