##NAMES=Tilleyite
##RRUFFID=R050227
##IDEAL CHEMISTRY=Ca_5_Si_2_O_7_(CO_3_)_2_
##LOCALITY=Crestmore Quarry, Riverside County, California, USA
##OWNER=RRUFF
##SOURCE=Marcus Origlieri
##DESCRIPTION=Aggregate of colorless subhedral crystals
##STATUS=The identification of this mineral has been confirmed by X-ray diffraction.
##URL=rruff.info/R050227
##PIN_ID=L00383
##ORIENTATION=Laser parallel to a* (1 0 0). Fiducial mark perpendicular to laser is parallel to b [0 1 0]
95.94800, 18769.00
97.18200, 18798.00
98.41600, 19150.00
99.64900, 19616.00
100.8830, 19537.00
102.1160, 19713.00
103.3490, 19819.00
104.5820, 20057.00
105.8150, 20192.00
107.0470, 20763.00
108.2800, 21261.00
109.5120, 21594.00
110.7440, 21364.00
111.9760, 21478.00
113.2080, 21766.00
114.4400, 21721.00
115.6710, 21757.00
116.9030, 21616.00
118.1340, 21612.00
119.3650, 21771.00
120.5960, 21961.00
121.8270, 21767.00
123.0580, 21749.00
124.2880, 21587.38
125.5190, 21408.30
126.7490, 21125.00
127.9790, 21005.00
129.2090, 20736.00
130.4390, 20495.00
131.6680, 20497.00
132.8980, 20285.00
134.1270, 20265.00
135.3560, 20342.00
136.5850, 20375.00
137.8140, 20493.00
139.0430, 20603.00
140.2710, 20690.00
141.5000, 20781.00
142.7280, 20870.00
143.9560, 21029.65
145.1840, 21248.00
146.4120, 21407.00
147.6390, 21645.00
148.8670, 21924.00
150.0940, 21976.00
151.3210, 22415.00
152.5490, 22327.00
153.7750, 22241.00
155.0020, 22397.00
156.2290, 22578.00
157.4550, 22605.00
158.6810, 22637.00
159.9080, 22544.35
161.1340, 22353.00
162.3590, 22178.00
163.5850, 21809.00
164.8110, 21497.00
166.0360, 20907.00
167.2610, 20982.00
168.4860, 20771.00
169.7110, 20807.00
170.9360, 20673.00
172.1610, 20665.00
173.3850, 20680.65
174.6100, 20671.16
175.8340, 20741.00
177.0580, 20822.00
178.2820, 20881.00
179.5050, 21105.00
180.7290, 21109.12
181.9520, 21053.00
183.1760, 21204.00
184.3990, 21141.00
185.6220, 21164.00
186.8450, 21099.00
188.0670, 21151.00
189.2900, 21093.00
190.5120, 21256.00
191.7340, 21235.00
192.9560, 21510.00
194.1780, 21609.00
195.4000, 21475.00
196.6220, 21601.00
197.8430, 21821.00
199.0640, 21861.00
200.2860, 21844.00
201.5070, 21847.00
202.7270, 21752.00
203.9480, 21580.00
205.1690, 21479.00
206.3890, 21507.00
207.6090, 21212.00
208.8290, 21313.00
210.0490, 21195.00
211.2690, 21117.00
212.4890, 21359.00
213.7080, 21237.00
214.9280, 21217.00
216.1470, 21300.00
217.3660, 21325.00
218.5850, 21567.00
219.8030, 21610.00
221.0220, 21680.00
222.2400, 21749.00
223.4590, 21750.00
224.6770, 21745.00
225.8950, 21975.00
227.1120, 21993.00
228.3300, 21936.00
229.5480, 22093.00
230.7650, 22001.00
231.9820, 22079.00
233.1990, 22187.00
234.4160, 22173.00
235.6330, 22089.00
236.8490, 22213.00
238.0660, 22120.00
239.2820, 22286.00
240.4980, 22400.00
241.7140, 22401.00
242.9300, 22495.00
244.1460, 22642.70
245.3610, 22575.00
246.5770, 22907.00
247.7920, 23071.00
249.0070, 23071.00
250.2220, 23479.00
251.4370, 23633.00
252.6510, 23718.00
253.8660, 23627.00
255.0800, 23981.00
256.2940, 24159.00
257.5080, 24098.00
258.7220, 24460.00
259.9360, 24528.00
261.1490, 24510.00
262.3630, 24477.00
263.5760, 24456.00
264.7890, 24401.00
266.0020, 24368.00
267.2150, 24228.00
268.4270, 24303.00
269.6400, 24341.00
270.8520, 24393.00
272.0640, 24240.00
273.2760, 24618.00
274.4880, 24871.00
275.7000, 24982.00
276.9120, 25441.00
278.1230, 25408.00
279.3340, 25869.00
280.5450, 26032.00
281.7560, 26143.00
282.9670, 25987.00
284.1780, 26056.00
285.3880, 26172.00
286.5980, 26345.00
287.8090, 26513.00
289.0190, 26594.77
290.2290, 26756.66
291.4380, 26737.00
292.6480, 26949.00
293.8570, 26960.98
295.0670, 26913.00
296.2760, 26998.00
297.4850, 27009.00
298.6930, 27138.00
299.9020, 27184.00
301.1110, 27302.00
302.3190, 27247.00
303.5270, 27379.00
304.7350, 27226.00
305.9430, 27178.00
307.1510, 26883.00
308.3580, 26651.00
309.5660, 26215.00
310.7730, 26210.00
311.9800, 26097.00
313.1870, 26115.00
314.3940, 26013.00
315.6010, 25773.00
316.8070, 25900.00
318.0130, 25853.00
319.2200, 25614.00
320.4260, 25594.00
321.6310, 25332.00
322.8370, 25147.00
324.0430, 25344.00
325.2480, 24960.00
326.4540, 25013.00
327.6590, 24843.00
328.8640, 24628.00
330.0680, 24618.00
331.2730, 24654.00
332.4780, 24335.00
333.6820, 24533.00
334.8860, 24587.00
336.0900, 24625.00
337.2940, 24754.00
338.4980, 24531.00
339.7010, 24802.00
340.9050, 25048.00
342.1080, 25021.00
343.3110, 25448.00
344.5140, 25490.00
345.7170, 25585.00
346.9200, 25614.00
348.1220, 25848.00
349.3240, 25953.81
350.5270, 26269.00
351.7290, 26280.00
352.9310, 26484.00
354.1320, 26623.00
355.3340, 26637.00
356.5350, 26347.00
357.7370, 26195.00
358.9380, 26286.00
360.1390, 26179.00
361.3400, 26061.00
362.5400, 25704.00
363.7410, 25805.00
364.9410, 25471.00
366.1410, 25401.00
367.3410, 25409.00
368.5410, 25182.00
369.7410, 25436.00
370.9400, 25005.00
372.1400, 25180.00
373.3390, 25157.00
374.5380, 25200.00
375.7370, 24935.00
376.9360, 24793.00
378.1350, 24934.00
379.3330, 25065.00
380.5310, 25017.00
381.7300, 25178.00
382.9280, 25145.00
384.1260, 25063.00
385.3230, 25385.00
386.5210, 25378.00
387.7180, 25306.00
388.9160, 25451.00
390.1130, 25365.00
391.3100, 25363.00
392.5060, 25781.00
393.7030, 25538.00
394.9000, 25765.00
396.0960, 25764.00
397.2920, 25773.00
398.4880, 25711.00
399.6840, 25653.00
400.8800, 25684.00
402.0750, 25601.00
403.2710, 25643.00
404.4660, 25602.00
405.6610, 25601.00
406.8560, 25552.00
408.0510, 25670.00
409.2450, 25435.00
410.4400, 25507.00
411.6340, 25614.00
412.8280, 25970.00
414.0220, 25604.00
415.2160, 25922.00
416.4100, 25842.00
417.6030, 25726.00
418.7970, 25757.00
419.9900, 25770.26
421.1830, 25878.00
422.3760, 25890.00
423.5690, 26225.00
424.7610, 26255.00
425.9540, 25992.00
427.1460, 26143.00
428.3380, 25756.00
429.5300, 25723.00
430.7220, 25941.00
431.9140, 26147.00
433.1050, 26262.00
434.2970, 25979.00
435.4880, 26030.00
436.6790, 26203.00
437.8700, 26037.00
439.0610, 26100.00
440.2510, 26035.00
441.4420, 26138.00
442.6320, 26300.00
443.8220, 26096.00
445.0120, 26229.00
446.2020, 26230.00
447.3910, 26679.00
448.5810, 26375.00
449.7700, 26456.00
450.9600, 26548.00
452.1490, 26356.00
453.3370, 26644.00
454.5260, 26678.00
455.7150, 26530.00
456.9030, 26561.00
458.0910, 26625.00
459.2800, 26786.00
460.4670, 26828.00
461.6550, 26738.00
462.8430, 26799.00
464.0300, 26939.00
465.2180, 27108.00
466.4050, 26847.00
467.5920, 27059.00
468.7790, 26981.00
469.9650, 27012.00
471.1520, 27097.00
472.3380, 27057.00
473.5250, 27302.00
474.7110, 27189.00
475.8970, 27383.00
477.0820, 27435.00
478.2680, 27245.00
479.4540, 27367.00
480.6390, 27307.00
481.8240, 27759.00
483.0090, 27327.00
484.1940, 27585.00
485.3780, 27617.00
486.5630, 27432.00
487.7470, 27493.00
488.9320, 27577.00
490.1160, 27621.00
491.3000, 27646.00
492.4830, 27717.00
493.6670, 27916.00
494.8500, 27727.00
496.0340, 27756.00
497.2170, 27668.00
498.4000, 27824.00
499.5820, 27878.44
500.7650, 28112.00
501.9480, 28097.00
503.1300, 28206.00
504.3120, 28252.00
505.4940, 28184.00
506.6760, 28214.00
507.8580, 28150.00
509.0390, 28277.00
510.2210, 28254.41
511.4020, 28420.00
512.5830, 28293.00
513.7640, 28461.00
514.9450, 28481.00
516.1250, 28361.00
517.3060, 28625.00
518.4860, 28788.00
519.6660, 28600.00
520.8460, 28760.00
522.0260, 28844.00
523.2060, 29030.00
524.3850, 29099.00
525.5650, 29250.00
526.7440, 29166.00
527.9230, 29075.00
529.1020, 29334.00
530.2810, 29433.00
531.4590, 29475.00
532.6380, 29400.00
533.8160, 29231.00
534.9940, 29424.00
536.1720, 29176.00
537.3500, 29400.00
538.5270, 29583.00
539.7050, 29516.00
540.8820, 29566.00
542.0590, 29694.00
543.2360, 29680.00
544.4130, 30054.00
545.5900, 30009.00
546.7660, 29922.00
547.9430, 29769.00
549.1190, 29972.00
550.2950, 30006.00
551.4710, 29871.00
552.6470, 29959.00
553.8220, 30023.00
554.9980, 29576.00
556.1730, 29571.00
557.3480, 29711.00
558.5230, 29706.00
559.6980, 29717.00
560.8730, 29661.00
562.0470, 29634.00
563.2220, 29760.00
564.3960, 29519.00
565.5700, 29789.00
566.7440, 29714.00
567.9170, 29869.00
569.0910, 29650.00
570.2640, 29905.00
571.4380, 29868.00
572.6110, 30025.00
573.7840, 29796.00
574.9570, 29775.00
576.1290, 29959.00
577.3020, 30015.00
578.4740, 30225.00
579.6460, 30133.00
580.8180, 30521.00
581.9900, 30547.00
583.1620, 30303.00
584.3330, 30536.00
585.5040, 30306.00
586.6760, 30544.00
587.8470, 30304.00
589.0180, 30535.00
590.1880, 30691.00
591.3590, 30628.00
592.5290, 30565.00
593.7000, 30825.00
594.8700, 30658.00
596.0400, 30864.00
597.2090, 30780.00
598.3790, 30906.00
599.5490, 31075.00
600.7180, 30922.00
601.8870, 30978.00
603.0560, 31047.00
604.2250, 31005.00
605.3940, 30961.00
606.5620, 30956.00
607.7300, 31206.00
608.8990, 31448.00
610.0670, 31301.00
611.2350, 31600.00
612.4020, 31430.00
613.5700, 31775.00
614.7370, 31780.00
615.9050, 32006.00
617.0720, 32065.00
618.2390, 32386.00
619.4060, 32526.00
620.5720, 32546.00
621.7390, 32566.00
622.9050, 32545.00
624.0710, 32295.00
625.2370, 32460.00
626.4030, 32266.00
627.5690, 32488.00
628.7340, 32501.00
629.9000, 32492.00
631.0650, 32498.00
632.2300, 32785.00
633.3950, 32816.00
634.5600, 33232.00
635.7240, 33566.00
636.8890, 33936.00
638.0530, 34195.00
639.2170, 35149.00
640.3810, 35547.00
641.5450, 35960.00
642.7080, 36338.00
643.8720, 36452.00
645.0350, 37081.00
646.1980, 37105.00
647.3610, 37310.00
648.5240, 36921.00
649.6870, 36715.00
650.8490, 36070.00
652.0120, 35656.00
653.1740, 34934.00
654.3360, 34325.00
655.4980, 34113.00
656.6600, 33636.00
657.8210, 33550.00
658.9830, 33283.00
660.1440, 33015.00
661.3050, 33045.00
662.4660, 33062.00
663.6270, 32942.00
664.7870, 32933.00
665.9480, 32906.00
667.1080, 32677.00
668.2680, 32693.00
669.4280, 32744.00
670.5880, 32564.00
671.7480, 32844.00
672.9070, 32722.00
674.0670, 32825.00
675.2260, 32720.00
676.3850, 32833.00
677.5440, 33001.00
678.7030, 32850.00
679.8610, 32802.00
681.0200, 32842.00
682.1780, 32798.00
683.3360, 32777.00
684.4940, 33084.00
685.6520, 32994.00
686.8090, 33070.00
687.9670, 33059.00
689.1240, 33368.00
690.2810, 33451.00
691.4380, 33748.00
692.5950, 33571.00
693.7520, 33636.00
694.9080, 33679.00
696.0650, 34034.00
697.2210, 34297.00
698.3770, 34072.00
699.5330, 34175.00
700.6880, 34074.00
701.8440, 34169.00
702.9990, 34106.00
704.1550, 34098.00
705.3100, 34148.00
706.4650, 33960.00
707.6190, 33695.00
708.7740, 34095.00
709.9290, 34183.00
711.0830, 34309.00
712.2370, 34139.00
713.3910, 34324.00
714.5450, 34505.00
715.6980, 34840.00
716.8520, 34721.00
718.0050, 34773.00
719.1580, 34744.00
720.3110, 34819.00
721.4640, 34608.00
722.6170, 34400.00
723.7700, 34606.00
724.9220, 34442.00
726.0740, 34347.00
727.2260, 34304.00
728.3780, 34249.00
729.5300, 34226.71
730.6810, 34237.70
731.8330, 34275.00
732.9840, 34357.00
734.1350, 34521.00
735.2860, 34730.00
736.4370, 34674.00
737.5880, 34276.00
738.7380, 34612.00
739.8880, 34753.00
741.0390, 34581.00
742.1890, 34906.00
743.3380, 34730.00
744.4880, 34845.00
745.6380, 34694.00
746.7870, 34947.00
747.9360, 34923.00
749.0850, 34875.00
750.2340, 35012.00
751.3830, 35104.00
752.5310, 35140.04
753.6800, 35184.76
754.8280, 35239.00
755.9760, 35213.00
757.1240, 35174.00
758.2720, 35232.00
759.4190, 35268.40
760.5670, 35339.00
761.7140, 35419.00
762.8610, 35499.00
764.0080, 35565.00
765.1550, 35638.00
766.3020, 35769.00
767.4480, 35773.64
768.5950, 35737.00
769.7410, 35845.00
770.8870, 35714.00
772.0330, 35805.00
773.1780, 35883.00
774.3240, 35689.00
775.4690, 35728.00
776.6140, 35745.30
777.7590, 35749.61
778.9040, 35826.00
780.0490, 35884.00
781.1940, 35929.00
782.3380, 35984.00
783.4820, 36306.00
784.6260, 36272.00
785.7700, 36380.00
786.9140, 36313.00
788.0580, 36393.00
789.2010, 36319.00
790.3450, 36513.00
791.4880, 36692.00
792.6310, 36800.00
793.7730, 36808.58
794.9160, 36565.00
796.0590, 36749.00
797.2010, 36585.00
798.3430, 36607.00
799.4850, 36554.00
800.6270, 36661.00
801.7690, 36797.00
802.9100, 36937.00
804.0520, 36939.00
805.1930, 36921.00
806.3340, 36931.00
807.4750, 36864.00
808.6160, 37170.00
809.7560, 37201.00
810.8970, 37122.00
812.0370, 37081.00
813.1770, 37159.38
814.3170, 37335.00
815.4570, 37312.00
816.5960, 37589.00
817.7360, 37684.88
818.8750, 37747.72
820.0140, 37785.99
821.1530, 37883.00
822.2920, 37692.00
823.4310, 37733.00
824.5690, 37670.00
825.7070, 37854.00
826.8460, 37788.00
827.9840, 37881.00
829.1220, 38207.00
830.2590, 38064.00
831.3970, 38043.00
832.5340, 38248.00
833.6710, 38312.00
834.8080, 38381.00
835.9450, 38375.00
837.0820, 38569.00
838.2190, 38735.00
839.3550, 38625.00
840.4910, 38563.00
841.6270, 38679.00
842.7630, 38716.00
843.8990, 38821.00
845.0350, 38830.00
846.1700, 38923.78
847.3060, 39010.38
848.4410, 39102.00
849.5760, 39203.00
850.7100, 39335.00
851.8450, 39436.58
852.9800, 39505.25
854.1140, 39538.00
855.2480, 39659.00
856.3820, 39705.00
857.5160, 39854.00
858.6500, 39722.00
859.7830, 39525.00
860.9170, 39866.00
862.0500, 39554.00
863.1830, 39710.00
864.3160, 39836.00
865.4480, 39760.00
866.5810, 39777.33
867.7130, 39773.00
868.8460, 39676.00
869.9780, 39560.00
871.1100, 39637.00
872.2410, 39669.00
873.3730, 39651.00
874.5050, 40017.00
875.6360, 39833.00
876.7670, 39893.24
877.8980, 39719.00
879.0290, 39849.00
880.1590, 39922.00
881.2900, 40047.00
882.4200, 39967.00
883.5500, 39908.00
884.6800, 40116.00
885.8100, 40354.00
886.9400, 40610.00
888.0690, 40515.00
889.1990, 40408.00
890.3280, 40742.00
891.4570, 40993.00
892.5860, 41310.00
893.7140, 41433.00
894.8430, 41887.00
895.9710, 42443.00
897.1000, 43164.00
898.2280, 43917.00
899.3560, 45297.00
900.4830, 47146.00
901.6110, 49246.00
902.7380, 51538.00
903.8660, 52867.00
904.9930, 53989.00
906.1200, 54063.00
907.2460, 54999.00
908.3730, 54834.00
909.5000, 53860.00
910.6260, 51281.00
911.7520, 49026.00
912.8780, 46506.00
914.0040, 44705.00
915.1290, 43585.00
916.2550, 42794.00
917.3800, 42098.00
918.5050, 41755.00
919.6300, 41962.00
920.7550, 41874.00
921.8800, 41839.00
923.0040, 41751.00
924.1290, 41812.00
925.2530, 41693.00
926.3770, 41877.00
927.5010, 41998.00
928.6250, 41854.00
929.7480, 42226.00
930.8720, 42058.00
931.9950, 41844.00
933.1180, 41814.00
934.2410, 41733.76
935.3640, 41629.75
936.4860, 41698.00
937.6090, 41620.00
938.7310, 41565.00
939.8530, 41843.00
940.9750, 41769.00
942.0970, 41808.00
943.2180, 41803.00
944.3400, 41999.00
945.4610, 41938.00
946.5820, 42080.00
947.7030, 42503.00
948.8240, 42595.00
949.9450, 42718.00
951.0650, 42915.00
952.1860, 43076.00
953.3060, 42983.00
954.4260, 42950.00
955.5460, 43220.00
956.6650, 42411.00
957.7850, 42748.00
958.9040, 42405.00
960.0230, 42119.00
961.1420, 42119.00
962.2610, 42358.00
963.3800, 42078.00
964.4990, 42214.00
965.6170, 42125.00
966.7350, 42366.00
967.8530, 42300.00
968.9710, 42226.00
970.0890, 42242.00
971.2070, 42229.28
972.3240, 42535.00
973.4410, 42371.00
974.5580, 42500.00
975.6750, 42773.00
976.7920, 42663.00
977.9090, 42718.00
979.0250, 43047.00
980.1410, 43071.00
981.2580, 43110.00
982.3740, 43221.00
983.4890, 43420.00
984.6050, 43442.00
985.7200, 43285.00
986.8360, 43016.00
987.9510, 43289.00
989.0660, 43043.00
990.1810, 43058.00
991.2950, 43082.00
992.4100, 42920.00
993.5240, 43255.00
994.6390, 43437.00
995.7530, 43783.00
996.8660, 43832.00
997.9800, 44183.00
999.0940, 44184.00
1000.207, 43891.00
1001.320, 43882.00
1002.433, 44057.00
1003.546, 44281.00
1004.659, 44593.00
1005.772, 44395.00
1006.884, 45004.00
1007.996, 45004.00
1009.108, 44812.00
1010.220, 44957.00
1011.332, 45540.00
1012.444, 45285.00
1013.555, 45106.00
1014.666, 45573.00
1015.777, 44945.00
1016.888, 44878.00
1017.999, 44653.00
1019.110, 44731.00
1020.220, 44863.00
1021.331, 44419.00
1022.441, 44259.00
1023.551, 44267.00
1024.661, 44346.00
1025.770, 44448.00
1026.880, 44577.00
1027.989, 44381.00
1029.098, 44323.00
1030.207, 44452.00
1031.316, 44378.00
1032.425, 44340.00
1033.533, 44609.00
1034.642, 44375.00
1035.750, 44644.00
1036.858, 44399.00
1037.966, 44642.00
1039.073, 44625.00
1040.181, 44239.00
1041.288, 44267.00
1042.396, 44773.00
1043.503, 44582.00
1044.610, 44437.00
1045.716, 44595.00
1046.823, 44506.00
1047.929, 44423.00
1049.036, 44686.00
1050.142, 44746.00
1051.248, 44517.00
1052.353, 44953.00
1053.459, 45003.00
1054.564, 44972.00
1055.670, 45124.00
1056.775, 44883.00
1057.880, 45271.00
1058.985, 45064.00
1060.089, 45301.00
1061.194, 45311.00
1062.298, 45318.00
1063.402, 45338.00
1064.506, 45471.00
1065.610, 45574.00
1066.713, 45703.83
1067.817, 45546.00
1068.920, 45983.00
1070.023, 46089.00
1071.126, 46154.00
1072.229, 46930.00
1073.332, 48050.00
1074.435, 49889.00
1075.537, 53150.00
1076.639, 55657.00
1077.741, 56140.00
1078.843, 57639.00
1079.945, 59026.00
1081.046, 59436.00
1082.148, 58439.00
1083.249, 56986.00
1084.350, 54074.00
1085.451, 52352.00
1086.551, 52153.00
1087.652, 53654.00
1088.752, 56530.00
1089.853, 58748.00
1090.953, 59632.00
1092.053, 60688.00
1093.152, 62055.00
1094.252, 62033.00
1095.351, 60851.00
1096.451, 57834.00
1097.550, 53973.00
1098.649, 50371.00
1099.748, 48221.00
1100.846, 47341.00
1101.945, 47129.00
1103.043, 46738.00
1104.141, 46786.00
1105.239, 46698.00
1106.337, 46778.00
1107.434, 47040.00
1108.532, 46723.00
1109.629, 46608.00
1110.726, 46889.00
1111.823, 46670.00
1112.920, 46688.00
1114.017, 46857.00
1115.113, 46808.00
1116.210, 46847.38
1117.306, 47061.00
1118.402, 46860.00
1119.498, 46879.00
1120.593, 46946.00
1121.689, 46891.00
1122.784, 47060.00
1123.879, 47000.00
1124.974, 46956.00
1126.069, 47062.00
1127.164, 47171.00
1128.259, 47039.00
1129.353, 47132.00
1130.447, 47178.00
1131.541, 47165.00
1132.635, 47243.00
1133.729, 47217.00
1134.822, 47332.00
1135.916, 47347.66
1137.009, 47059.00
1138.102, 47371.00
1139.195, 47245.00
1140.288, 47128.00
1141.380, 47424.00
1142.473, 47547.00
1143.565, 47431.00
1144.657, 47457.00
1145.749, 47476.00
1146.841, 47426.00
1147.932, 47429.00
1149.024, 47496.94
1150.115, 47493.41
1151.206, 47626.00
1152.297, 47660.00
1153.388, 47656.57
1154.479, 47933.00
1155.569, 47802.00
1156.659, 47860.00
1157.750, 48139.00
1158.839, 47757.00
1159.929, 47910.00
1161.019, 48277.00
1162.108, 47964.00
1163.198, 47937.00
1164.287, 48058.00
1165.376, 48100.00
1166.465, 48216.00
1167.553, 48332.00
1168.642, 48340.00
1169.730, 48432.58
1170.818, 48415.00
1171.906, 48514.00
1172.994, 48536.00
1174.082, 48536.00
1175.170, 48471.00
1176.257, 48575.00
1177.344, 48489.00
1178.431, 48574.00
1179.518, 48509.00
1180.605, 48745.00
1181.691, 48734.05
1182.778, 48959.00
1183.864, 48881.00
1184.950, 48882.00
1186.036, 49020.00
1187.122, 48733.00
1188.207, 48860.00
1189.292, 48801.00
1190.378, 48759.00
1191.463, 49067.00
1192.548, 49064.00
1193.632, 49170.00
1194.717, 49064.00
1195.801, 49128.00
1196.886, 49132.00
1197.970, 49284.00
1199.054, 49399.00
1200.137, 49277.00
1201.221, 49496.00
1202.305, 49368.00
1203.388, 49238.00
1204.471, 49364.00
1205.554, 49474.00
1206.637, 49411.00
1207.719, 49522.00
1208.802, 49527.00
1209.884, 49543.00
1210.966, 49501.00
1212.048, 49792.00
1213.130, 49556.00
1214.212, 49820.00
1215.293, 49617.00
1216.374, 49934.00
1217.456, 49837.00
1218.536, 49997.00
1219.617, 49775.00
1220.698, 49631.00
1221.778, 49763.03
1222.859, 50098.00
1223.939, 49917.00
1225.019, 50245.00
1226.099, 50337.00
1227.178, 50090.00
1228.258, 50202.00
1229.337, 50189.00
1230.417, 50218.00
1231.496, 50530.00
1232.574, 50458.00
1233.653, 50442.00
1234.732, 50393.00
1235.810, 50298.00
1236.888, 50852.00
1237.966, 50497.00
1239.044, 50678.00
1240.122, 50947.00
1241.199, 50739.00
1242.277, 50689.00
1243.354, 50904.00
1244.431, 50925.00
1245.508, 51229.00
1246.585, 51219.32
1247.661, 50953.00
1248.738, 51223.00
1249.814, 51023.00
1250.890, 50900.00
1251.966, 50930.00
1253.042, 50997.00
1254.117, 51235.00
1255.193, 51038.00
1256.268, 50845.00
1257.343, 50678.00
1258.418, 50859.00
1259.493, 51232.00
1260.567, 51119.00
1261.642, 51402.18
1262.716, 51851.00
1263.790, 51669.00
1264.864, 51769.00
1265.938, 51801.00
1267.011, 51824.00
1268.085, 51943.00
1269.158, 52057.00
1270.231, 51644.00
1271.304, 52029.00
1272.377, 52070.00
1273.450, 51933.00
1274.522, 52317.00
1275.594, 52032.00
1276.666, 52226.00
1277.738, 52266.00
1278.810, 52157.00
1279.882, 52099.00
1280.953, 52211.00
1282.025, 52193.00
1283.096, 51878.00
1284.167, 52139.00
1285.238, 52439.00
1286.308, 52120.00
1287.379, 52353.00
1288.449, 52117.00
1289.519, 52432.00
1290.589, 52634.00
1291.659, 52732.00
1292.729, 52636.00
1293.798, 52751.00
1294.868, 52850.00
1295.937, 52605.00
1297.006, 52563.00
1298.075, 52606.48
1299.143, 52731.00
1300.212, 52692.00
1301.280, 52856.00
1302.348, 52919.00
1303.416, 52853.00
1304.484, 53261.00
1305.552, 53219.00
1306.620, 53360.00
1307.687, 53221.00
1308.754, 53379.00
1309.821, 53420.00
1310.888, 53231.00
1311.955, 53335.00
1313.021, 53478.00
1314.088, 53247.00
1315.154, 53530.00
1316.220, 53553.00
1317.286, 53756.00
1318.352, 53630.00
1319.417, 53610.00
1320.483, 53381.00
1321.548, 53415.00
1322.613, 53548.00
1323.678, 53507.00
1324.743, 53414.00
1325.807, 53432.00
1326.872, 53522.00
1327.936, 53395.00
1329.000, 53494.00
1330.064, 53517.00
1331.128, 53523.00
1332.191, 53439.00
1333.255, 53433.00
1334.318, 53302.00
1335.381, 53448.00
1336.444, 53432.00
1337.507, 53317.00
1338.569, 53488.00
1339.632, 53437.00
1340.694, 53703.00
1341.756, 53865.00
1342.818, 53542.00
1343.880, 53773.00
1344.941, 53868.00
1346.003, 54012.00
1347.064, 54076.24
1348.125, 54078.34
1349.186, 54120.00
1350.247, 53993.00
1351.308, 53953.00
1352.368, 53851.00
1353.428, 53947.00
1354.489, 53824.00
1355.549, 54026.00
1356.608, 53992.00
1357.668, 54243.00
1358.727, 54110.00
1359.787, 54045.00
1360.846, 54194.00
1361.905, 53875.00
1362.964, 54404.00
1364.022, 54083.00
1365.081, 54555.00
1366.139, 54510.00
1367.197, 54297.00
1368.255, 54129.00
1369.313, 54525.00
1370.371, 54647.00
1371.428, 54663.00
1372.486, 54663.00
1373.543, 54534.00
1374.600, 54713.00
1375.657, 54681.00
1376.713, 54594.00
1377.770, 54767.00
1378.826, 54942.00
1379.882, 54927.00
1380.938, 55042.06
1381.994, 54909.00
1383.050, 55125.00
1384.106, 55104.00
1385.161, 55156.00
1386.216, 55243.00
1387.271, 55247.93
1388.326, 55263.35
1389.381, 55231.00
1390.435, 55186.00
1391.490, 54979.00
1392.544, 54811.00
1393.598, 55072.00
1394.652, 55251.00
1395.705, 55296.00
1396.759, 55410.14
1397.812, 55255.00
1398.866, 55420.00
1399.919, 55393.00
1400.972, 55290.00
1402.024, 55320.00
1403.077, 55289.00
1404.129, 55346.00
1405.181, 55588.00
1406.233, 55423.00
1407.285, 55443.00
1408.337, 55601.00
1409.389, 55493.92
1410.440, 55604.00
1411.491, 55486.00
1412.542, 55871.00
1413.593, 55928.00
1414.644, 55664.00
1415.695, 55751.00
1416.745, 55421.00
1417.795, 55837.00
1418.845, 55764.00
1419.895, 56114.00
1420.945, 55938.00
1421.995, 56258.00
1423.044, 56267.00
1424.093, 56239.00
1425.142, 56332.00
1426.191, 56385.00
1427.240, 56831.00
1428.289, 56717.00
1429.337, 56755.00
1430.385, 56932.00
1431.433, 56816.00
1432.481, 57105.00
1433.529, 57274.00
1434.577, 57226.00
1435.624, 57559.00
1436.672, 57244.00
1437.719, 57587.00
1438.766, 57637.00
1439.812, 58018.00
1440.859, 57909.00
1441.905, 57742.00
1442.952, 58012.00
1443.998, 57928.00
1445.044, 57899.00
1446.090, 58111.00
1447.135, 58324.00
1448.181, 58296.00
1449.226, 58478.00
1450.271, 58295.00
1451.316, 58584.00
1452.361, 58573.00
1453.405, 58640.00
1454.450, 58423.00
1455.494, 58378.00
1456.538, 58698.00
1457.582, 58864.00
1458.626, 58236.00
1459.670, 58528.00
1460.713, 58272.00
1461.757, 58444.00
1462.800, 58372.00
1463.843, 58176.00
1464.886, 58285.00
1465.928, 58228.00
1466.971, 58121.00
1468.013, 58103.00
1469.055, 58107.00
1470.097, 58269.00
1471.139, 57945.00
1472.181, 57799.00
1473.222, 58108.00
1474.263, 58131.00
1475.305, 57999.00
1476.346, 57975.00
1477.386, 58398.00
1478.427, 58328.00
1479.468, 58083.00
1480.508, 58428.00
1481.548, 57834.00
1482.588, 58350.00
1483.628, 58384.00
1484.668, 58156.00
1485.707, 58085.00
1486.747, 58373.00
1487.786, 58066.00
1488.825, 58229.00
1489.864, 58451.00
1490.902, 58387.00
1491.941, 58346.00
1492.979, 58411.00
1494.017, 58536.00
1495.055, 58227.00
1496.093, 58397.00
1497.131, 58549.00
1498.168, 58451.00
1499.206, 58712.00
1500.243, 58751.00
1501.280, 58814.00
1502.317, 59067.00
1503.354, 58939.00
1504.390, 58664.00
1505.426, 58690.00
1506.463, 58686.00
1507.499, 58631.00
1508.535, 58832.00
1509.570, 58522.00
1510.606, 58518.00
1511.641, 58707.00
1512.676, 58875.00
1513.711, 58838.00
1514.746, 59135.00
1515.781, 59225.00
1516.816, 59049.00
1517.850, 58989.00
1518.884, 58999.00
1519.918, 59434.00
1520.952, 59198.00
1521.986, 59209.00
1523.019, 59262.00
1524.053, 59153.00
1525.086, 59543.00
1526.119, 59272.00
1527.152, 59375.00
1528.185, 59660.00
1529.217, 59537.00
1530.250, 59654.00
1531.282, 59599.00
1532.314, 59349.00
1533.346, 59711.00
1534.377, 59757.00
1535.409, 59678.00
1536.440, 59989.00
1537.472, 59833.00
1538.503, 59765.00
1539.534, 59993.00
1540.564, 59854.00
1541.595, 60018.00
1542.625, 59841.00
1543.656, 59984.00
1544.686, 60139.00
1545.716, 60122.00
1546.745, 60195.70
1547.775, 59982.00
1548.804, 60209.00
1549.834, 60202.00
1550.863, 60220.00
1551.892, 60555.00
1552.920, 60209.00
1553.949, 60530.00
1554.977, 60485.00
1556.006, 60168.00
1557.034, 60435.00
1558.062, 60348.00
1559.089, 60626.00
1560.117, 60666.00
1561.144, 60683.00
1562.172, 60873.00
1563.199, 60653.00
1564.226, 60907.00
1565.252, 60899.00
1566.279, 60904.13
1567.305, 60613.00
1568.332, 60912.00
1569.358, 61075.00
1570.384, 60958.00
1571.409, 61563.00
##END=



