##NAMES=Tilleyite
##RRUFFID=R050227
##IDEAL CHEMISTRY=Ca_5_Si_2_O_7_(CO_3_)_2_
##LOCALITY=Crestmore Quarry, Riverside County, California, USA
##OWNER=RRUFF
##SOURCE=Marcus Origlieri
##DESCRIPTION=Aggregate of colorless subhedral crystals
##STATUS=The identification of this mineral has been confirmed by X-ray diffraction.
##URL=rruff.info/R050227
##PIN_ID=L00528
##ORIENTATION=Laser parallel to b* (0 1 0). Fiducial mark perpendicular to laser is parallel to -c [0 0 -1]
127.9790, 11215.00
129.2090, 11254.00
130.4390, 11346.00
131.6680, 11341.00
132.8980, 11378.00
134.1270, 11358.00
135.3560, 11553.00
136.5850, 11723.00
137.8140, 11815.00
139.0430, 11923.00
140.2710, 12065.00
141.5000, 12154.00
142.7280, 12330.00
143.9560, 12496.00
145.1840, 12693.00
146.4120, 12712.00
147.6390, 12886.00
148.8670, 13001.00
150.0940, 13280.00
151.3210, 13219.00
152.5490, 13579.00
153.7750, 13600.00
155.0020, 13477.00
156.2290, 13499.00
157.4550, 13463.00
158.6810, 13255.00
159.9080, 13052.00
161.1340, 12829.00
162.3590, 12531.00
163.5850, 12242.00
164.8110, 12190.00
166.0360, 11956.00
167.2610, 12136.00
168.4860, 11920.00
169.7110, 11937.00
170.9360, 12147.00
172.1610, 12246.00
173.3850, 12341.00
174.6100, 12487.19
175.8340, 12474.00
177.0580, 12680.00
178.2820, 12730.00
179.5050, 12747.00
180.7290, 12727.00
181.9520, 12823.00
183.1760, 12660.00
184.3990, 12763.00
185.6220, 12610.00
186.8450, 12530.00
188.0670, 12710.00
189.2900, 12619.00
190.5120, 12615.00
191.7340, 12831.00
192.9560, 12899.00
194.1780, 12955.00
195.4000, 13012.00
196.6220, 13078.57
197.8430, 13158.00
199.0640, 13149.00
200.2860, 13205.00
201.5070, 13115.00
202.7270, 13153.00
203.9480, 13002.00
205.1690, 12937.00
206.3890, 12824.00
207.6090, 12680.00
208.8290, 12642.00
210.0490, 12659.00
211.2690, 12579.00
212.4890, 12533.00
213.7080, 12449.00
214.9280, 12410.00
216.1470, 12367.24
217.3660, 12303.00
218.5850, 12322.00
219.8030, 12314.00
221.0220, 12340.30
222.2400, 12455.00
223.4590, 12502.00
224.6770, 12556.00
225.8950, 12662.00
227.1120, 12705.00
228.3300, 12772.00
229.5480, 12856.00
230.7650, 12909.00
231.9820, 12767.00
233.1990, 12930.00
234.4160, 12998.00
235.6330, 13161.00
236.8490, 13302.00
238.0660, 13075.00
239.2820, 13178.00
240.4980, 13173.00
241.7140, 13186.00
242.9300, 13185.00
244.1460, 13238.08
245.3610, 13254.00
246.5770, 13349.00
247.7920, 13391.50
249.0070, 13430.52
250.2220, 13523.00
251.4370, 13624.00
252.6510, 13780.00
253.8660, 13858.89
255.0800, 13993.00
256.2940, 14069.00
257.5080, 14195.00
258.7220, 14327.00
259.9360, 14512.00
261.1490, 14712.00
262.3630, 14433.00
263.5760, 14696.00
264.7890, 14834.00
266.0020, 15115.00
267.2150, 15262.93
268.4270, 15449.00
269.6400, 15692.00
270.8520, 15957.00
272.0640, 16412.00
273.2760, 16647.00
274.4880, 17469.00
275.7000, 17899.00
276.9120, 18271.00
278.1230, 18464.00
279.3340, 18813.00
280.5450, 18772.00
281.7560, 18818.00
282.9670, 18507.00
284.1780, 18712.00
285.3880, 18448.00
286.5980, 18147.00
287.8090, 18122.00
289.0190, 17653.00
290.2290, 17373.00
291.4380, 17214.00
292.6480, 17132.00
293.8570, 17048.00
295.0670, 16951.91
296.2760, 16918.00
297.4850, 16872.00
298.6930, 16618.00
299.9020, 16704.00
301.1110, 16648.00
302.3190, 16668.00
303.5270, 16267.00
304.7350, 15699.00
305.9430, 15843.00
307.1510, 15268.00
308.3580, 15034.00
309.5660, 14888.00
310.7730, 14777.00
311.9800, 14603.00
313.1870, 14581.00
314.3940, 14636.00
315.6010, 14361.00
316.8070, 14365.00
318.0130, 14585.00
319.2200, 14319.00
320.4260, 14389.00
321.6310, 14330.00
322.8370, 14228.00
324.0430, 14263.00
325.2480, 14243.00
326.4540, 14224.00
327.6590, 14272.00
328.8640, 14094.00
330.0680, 14067.00
331.2730, 14106.00
332.4780, 14121.00
333.6820, 14035.00
334.8860, 14130.00
336.0900, 14056.00
337.2940, 13942.00
338.4980, 14112.00
339.7010, 13983.00
340.9050, 14111.00
342.1080, 14208.00
343.3110, 14277.00
344.5140, 14389.00
345.7170, 14478.83
346.9200, 14453.00
348.1220, 14713.00
349.3240, 14737.00
350.5270, 14925.00
351.7290, 14999.00
352.9310, 15185.00
354.1320, 15175.00
355.3340, 15130.00
356.5350, 15271.00
357.7370, 15234.00
358.9380, 15343.00
360.1390, 15222.00
361.3400, 15290.00
362.5400, 15103.00
363.7410, 14952.00
364.9410, 14941.00
366.1410, 14899.00
367.3410, 14880.00
368.5410, 14804.00
369.7410, 14687.00
370.9400, 14683.00
372.1400, 14602.00
373.3390, 14568.00
374.5380, 14649.00
375.7370, 14390.00
376.9360, 14457.00
378.1350, 14361.00
379.3330, 14403.00
380.5310, 14472.00
381.7300, 14324.00
382.9280, 14445.00
384.1260, 14375.00
385.3230, 14391.00
386.5210, 14470.00
387.7180, 14440.00
388.9160, 14564.00
390.1130, 14629.00
391.3100, 14664.00
392.5060, 14771.00
393.7030, 14775.00
394.9000, 14744.00
396.0960, 14873.00
397.2920, 14887.00
398.4880, 14845.00
399.6840, 14873.00
400.8800, 14987.00
402.0750, 15038.00
403.2710, 15013.00
404.4660, 14981.00
405.6610, 14889.00
406.8560, 14933.00
408.0510, 14824.00
409.2450, 14931.00
410.4400, 15028.00
411.6340, 14883.00
412.8280, 14994.00
414.0220, 15141.00
415.2160, 15286.00
416.4100, 15251.00
417.6030, 15222.00
418.7970, 15385.00
419.9900, 15446.00
421.1830, 15555.00
422.3760, 15596.00
423.5690, 15534.00
424.7610, 15638.00
425.9540, 15469.00
427.1460, 15618.00
428.3380, 15649.00
429.5300, 15493.00
430.7220, 15660.00
431.9140, 15446.00
433.1050, 15201.00
434.2970, 15272.00
435.4880, 15248.00
436.6790, 15327.00
437.8700, 15223.00
439.0610, 15178.00
440.2510, 15142.00
441.4420, 15131.00
442.6320, 15133.13
443.8220, 15152.00
445.0120, 15185.00
446.2020, 15125.00
447.3910, 15173.00
448.5810, 15235.00
449.7700, 15350.00
450.9600, 15209.00
452.1490, 15414.00
453.3370, 15332.00
454.5260, 15325.00
455.7150, 15184.00
456.9030, 15279.00
458.0910, 15426.00
459.2800, 15323.00
460.4670, 15264.00
461.6550, 15281.00
462.8430, 15201.00
464.0300, 15179.00
465.2180, 15487.00
466.4050, 15229.00
467.5920, 15567.00
468.7790, 15452.00
469.9650, 15558.00
471.1520, 15645.00
472.3380, 15362.00
473.5250, 15581.00
474.7110, 15572.00
475.8970, 15622.00
477.0820, 15663.00
478.2680, 15777.00
479.4540, 15930.00
480.6390, 15956.00
481.8240, 16036.23
483.0090, 15973.00
484.1940, 16065.00
485.3780, 16097.00
486.5630, 16014.00
487.7470, 15902.00
488.9320, 15897.00
490.1160, 16028.00
491.3000, 16066.00
492.4830, 15990.00
493.6670, 16053.00
494.8500, 16069.00
496.0340, 16014.00
497.2170, 16053.30
498.4000, 16014.00
499.5820, 16066.00
500.7650, 16088.00
501.9480, 16122.00
503.1300, 16158.00
504.3120, 16296.00
505.4940, 16481.00
506.6760, 16504.00
507.8580, 16306.00
509.0390, 16442.00
510.2210, 16257.00
511.4020, 16431.00
512.5830, 16417.00
513.7640, 16378.00
514.9450, 16388.00
516.1250, 16324.00
517.3060, 16363.00
518.4860, 16356.00
519.6660, 16694.00
520.8460, 16748.00
522.0260, 16860.00
523.2060, 17125.00
524.3850, 17082.00
525.5650, 17158.00
526.7440, 17263.00
527.9230, 17349.00
529.1020, 17057.00
530.2810, 17109.00
531.4590, 17150.00
532.6380, 17186.00
533.8160, 17150.28
534.9940, 17185.00
536.1720, 17104.00
537.3500, 17244.00
538.5270, 17356.00
539.7050, 17438.00
540.8820, 17602.52
542.0590, 17657.00
543.2360, 17863.00
544.4130, 18022.00
545.5900, 18065.14
546.7660, 17983.00
547.9430, 17950.00
549.1190, 17812.00
550.2950, 17564.00
551.4710, 17497.00
552.6470, 17344.00
553.8220, 17289.00
554.9980, 17152.00
556.1730, 17107.00
557.3480, 16991.00
558.5230, 17039.00
559.6980, 16970.00
560.8730, 17006.00
562.0470, 17036.00
563.2220, 17006.00
564.3960, 16980.00
565.5700, 16916.00
566.7440, 16941.00
567.9170, 16952.00
569.0910, 17054.00
570.2640, 16973.00
571.4380, 17064.00
572.6110, 17018.00
573.7840, 17011.00
574.9570, 17080.00
576.1290, 17077.00
577.3020, 17149.00
578.4740, 17002.00
579.6460, 17149.00
580.8180, 17191.00
581.9900, 17179.00
583.1620, 17376.00
584.3330, 17129.00
585.5040, 17090.00
586.6760, 17159.00
587.8470, 17310.00
589.0180, 17201.00
590.1880, 17170.00
591.3590, 17377.00
592.5290, 17411.00
593.7000, 17255.00
594.8700, 17489.00
596.0400, 17287.00
597.2090, 17435.00
598.3790, 17529.00
599.5490, 17430.00
600.7180, 17515.00
601.8870, 17471.00
603.0560, 17585.00
604.2250, 17519.00
605.3940, 17575.00
606.5620, 17705.00
607.7300, 17539.00
608.8990, 17703.00
610.0670, 17535.00
611.2350, 17653.00
612.4020, 17554.00
613.5700, 17631.00
614.7370, 17762.00
615.9050, 17807.00
617.0720, 17895.00
618.2390, 17834.00
619.4060, 17827.00
620.5720, 18001.00
621.7390, 18162.00
622.9050, 17861.00
624.0710, 18052.00
625.2370, 18031.00
626.4030, 18241.00
627.5690, 18392.00
628.7340, 18388.00
629.9000, 18486.00
631.0650, 18682.00
632.2300, 18679.00
633.3950, 18892.00
634.5600, 19026.00
635.7240, 19351.48
636.8890, 19951.00
638.0530, 20266.00
639.2170, 20809.00
640.3810, 21600.00
641.5450, 21893.00
642.7080, 22296.00
643.8720, 22729.00
645.0350, 22870.00
646.1980, 22899.00
647.3610, 22686.00
648.5240, 22379.00
649.6870, 22004.00
650.8490, 21659.00
652.0120, 21156.00
653.1740, 20917.56
654.3360, 20393.00
655.4980, 20432.00
656.6600, 20083.00
657.8210, 19965.00
658.9830, 19798.00
660.1440, 19729.00
661.3050, 19686.00
662.4660, 19603.00
663.6270, 19463.00
664.7870, 19374.00
665.9480, 19314.96
667.1080, 19422.00
668.2680, 19228.00
669.4280, 19276.00
670.5880, 19264.00
671.7480, 19171.00
672.9070, 19192.00
674.0670, 19190.00
675.2260, 19013.00
676.3850, 18924.00
677.5440, 18977.35
678.7030, 19103.00
679.8610, 19057.00
681.0200, 19228.00
682.1780, 19205.00
683.3360, 19289.00
684.4940, 19332.00
685.6520, 19177.00
686.8090, 19170.00
687.9670, 19200.00
689.1240, 19241.00
690.2810, 19374.00
691.4380, 19567.00
692.5950, 19609.00
693.7520, 19859.00
694.9080, 19780.00
696.0650, 20020.00
697.2210, 20225.00
698.3770, 20123.00
699.5330, 20249.00
700.6880, 19985.00
701.8440, 20125.00
702.9990, 20065.00
704.1550, 20032.00
705.3100, 20023.00
706.4650, 19991.00
707.6190, 20327.00
708.7740, 20620.00
709.9290, 20959.00
711.0830, 21069.00
712.2370, 21398.00
713.3910, 21581.00
714.5450, 21840.00
715.6980, 21649.00
716.8520, 21708.00
718.0050, 21334.00
719.1580, 21317.00
720.3110, 21069.00
721.4640, 20897.00
722.6170, 20624.00
723.7700, 20192.00
724.9220, 20069.00
726.0740, 19818.00
727.2260, 19968.00
728.3780, 19512.00
729.5300, 19813.00
730.6810, 19582.00
731.8330, 19592.00
732.9840, 19663.00
734.1350, 19950.00
735.2860, 19707.00
736.4370, 19692.00
737.5880, 19897.00
738.7380, 19766.00
739.8880, 19881.00
741.0390, 19779.00
742.1890, 19888.00
743.3380, 19867.00
744.4880, 19910.00
745.6380, 19944.00
746.7870, 19846.00
747.9360, 19926.00
749.0850, 19861.00
750.2340, 20028.00
751.3830, 19826.00
752.5310, 20131.00
753.6800, 20026.00
754.8280, 19938.00
755.9760, 20064.26
757.1240, 20054.00
758.2720, 20126.00
759.4190, 20207.00
760.5670, 20267.00
761.7140, 20291.86
762.8610, 20417.00
764.0080, 20307.00
765.1550, 20221.00
766.3020, 20197.00
767.4480, 20237.00
768.5950, 20177.68
769.7410, 20220.72
770.8870, 20171.00
772.0330, 20299.00
773.1780, 20377.00
774.3240, 20468.00
775.4690, 20510.00
776.6140, 20499.00
777.7590, 20599.00
778.9040, 20595.09
780.0490, 20519.00
781.1940, 20640.00
782.3380, 20480.00
783.4820, 20496.00
784.6260, 20631.00
785.7700, 20553.00
786.9140, 20403.00
788.0580, 20610.00
789.2010, 20666.00
790.3450, 20788.00
791.4880, 20501.00
792.6310, 20784.00
793.7730, 20761.00
794.9160, 20815.00
796.0590, 20927.00
797.2010, 20823.00
798.3430, 20848.00
799.4850, 20926.00
800.6270, 20880.00
801.7690, 20901.00
802.9100, 20892.00
804.0520, 20993.00
805.1930, 21025.00
806.3340, 21061.00
807.4750, 20892.00
808.6160, 21252.00
809.7560, 20944.00
810.8970, 21225.00
812.0370, 21028.00
813.1770, 21087.00
814.3170, 21165.00
815.4570, 21319.00
816.5960, 21428.00
817.7360, 21428.41
818.8750, 21204.00
820.0140, 21407.00
821.1530, 21305.00
822.2920, 21285.00
823.4310, 21464.00
824.5690, 21357.00
825.7070, 21502.00
826.8460, 21359.00
827.9840, 21546.00
829.1220, 21486.00
830.2590, 21637.00
831.3970, 21689.00
832.5340, 21739.04
833.6710, 21815.00
834.8080, 21880.00
835.9450, 21923.00
837.0820, 21989.00
838.2190, 22075.00
839.3550, 22058.00
840.4910, 21935.00
841.6270, 21970.00
842.7630, 21740.00
843.8990, 21796.98
845.0350, 21956.00
846.1700, 21845.00
847.3060, 21726.00
848.4410, 21780.00
849.5760, 22000.00
850.7100, 21916.00
851.8450, 21981.00
852.9800, 22122.00
854.1140, 21974.00
855.2480, 21934.00
856.3820, 22129.00
857.5160, 22148.00
858.6500, 22033.00
859.7830, 22161.00
860.9170, 22269.00
862.0500, 22378.00
863.1830, 22365.79
864.3160, 22427.17
865.4480, 22315.00
866.5810, 22433.00
867.7130, 22456.00
868.8460, 22426.00
869.9780, 22636.00
871.1100, 22502.00
872.2410, 22280.00
873.3730, 22576.00
874.5050, 22454.00
875.6360, 22465.00
876.7670, 22624.00
877.8980, 22486.00
879.0290, 22535.00
880.1590, 22721.00
881.2900, 22598.00
882.4200, 22542.00
883.5500, 22730.00
884.6800, 22858.00
885.8100, 22958.00
886.9400, 23094.00
888.0690, 23243.00
889.1990, 23411.02
890.3280, 23368.00
891.4570, 23807.00
892.5860, 24020.00
893.7140, 24259.00
894.8430, 24796.00
895.9710, 25561.00
897.1000, 26523.00
898.2280, 27641.00
899.3560, 29297.00
900.4830, 31515.00
901.6110, 33886.00
902.7380, 36029.00
903.8660, 37600.00
904.9930, 38930.00
906.1200, 39139.00
907.2460, 38311.00
908.3730, 36269.00
909.5000, 33845.00
910.6260, 31335.00
911.7520, 29188.00
912.8780, 27344.00
914.0040, 26180.00
915.1290, 25350.00
916.2550, 24798.00
917.3800, 24503.00
918.5050, 24115.00
919.6300, 24171.00
920.7550, 23997.00
921.8800, 23956.00
923.0040, 23965.00
924.1290, 24089.00
925.2530, 24021.00
926.3770, 24077.00
927.5010, 24382.00
928.6250, 24313.00
929.7480, 24160.00
930.8720, 24036.00
931.9950, 24229.00
933.1180, 24200.00
934.2410, 24234.00
935.3640, 24206.00
936.4860, 23991.00
937.6090, 23811.00
938.7310, 24006.00
939.8530, 24033.00
940.9750, 23811.00
942.0970, 24003.00
943.2180, 24076.00
944.3400, 24039.00
945.4610, 24153.00
946.5820, 24242.00
947.7030, 24235.00
948.8240, 24399.00
949.9450, 24214.00
951.0650, 24230.00
952.1860, 24350.00
953.3060, 24347.00
954.4260, 24248.00
955.5460, 24327.00
956.6650, 24463.00
957.7850, 24123.00
958.9040, 24337.00
960.0230, 24191.00
961.1420, 24204.00
962.2610, 24341.00
963.3800, 24362.00
964.4990, 24647.00
965.6170, 24335.00
966.7350, 24546.00
967.8530, 24659.00
968.9710, 24473.00
970.0890, 24615.00
971.2070, 25003.00
972.3240, 24830.00
973.4410, 25016.00
974.5580, 24933.00
975.6750, 24862.00
976.7920, 25130.00
977.9090, 24964.00
979.0250, 25154.00
980.1410, 25321.00
981.2580, 25394.00
982.3740, 25515.00
983.4890, 25745.00
984.6050, 25816.00
985.7200, 25725.00
986.8360, 26057.00
987.9510, 26130.00
989.0660, 26016.00
990.1810, 26097.00
991.2950, 25939.00
992.4100, 25828.00
993.5240, 25614.00
994.6390, 25451.00
995.7530, 25477.00
996.8660, 25513.00
997.9800, 25392.00
999.0940, 25586.00
1000.207, 25638.00
1001.320, 25855.00
1002.433, 25904.00
1003.546, 25864.00
1004.659, 25743.00
1005.772, 26183.00
1006.884, 26017.00
1007.996, 26167.00
1009.108, 25923.00
1010.220, 26210.00
1011.332, 26201.00
1012.444, 26312.00
1013.555, 26262.24
1014.666, 25771.00
1015.777, 25988.00
1016.888, 25865.00
1017.999, 25607.00
1019.110, 25746.00
1020.220, 25492.00
1021.331, 25781.00
1022.441, 25754.00
1023.551, 25731.00
1024.661, 25707.00
1025.770, 25588.00
1026.880, 25860.00
1027.989, 25875.00
1029.098, 25860.00
1030.207, 25790.00
1031.316, 26088.00
1032.425, 26027.00
1033.533, 26161.00
1034.642, 25904.00
1035.750, 26213.00
1036.858, 25953.00
1037.966, 25846.00
1039.073, 26029.00
1040.181, 25950.00
1041.288, 26047.00
1042.396, 25813.00
1043.503, 26009.00
1044.610, 26072.00
1045.716, 26001.00
1046.823, 26188.00
1047.929, 26341.00
1049.036, 26136.00
1050.142, 26148.00
1051.248, 25972.00
1052.353, 26039.00
1053.459, 26067.00
1054.564, 26305.00
1055.670, 26332.00
1056.775, 26435.00
1057.880, 26423.00
1058.985, 26437.00
1060.089, 26527.00
1061.194, 26454.00
1062.298, 26603.00
1063.402, 26513.00
1064.506, 26640.00
1065.610, 26864.00
1066.713, 26890.00
1067.817, 26880.00
1068.920, 27186.00
1070.023, 27274.00
1071.126, 27413.00
1072.229, 27609.00
1073.332, 28269.00
1074.435, 28975.00
1075.537, 30936.00
1076.639, 32973.00
1077.741, 35677.00
1078.843, 39986.00
1079.945, 43186.00
1081.046, 45006.00
1082.148, 47104.00
1083.249, 50415.00
1084.350, 53825.00
1085.451, 54147.00
1086.551, 53537.00
1087.652, 52323.00
1088.752, 49756.00
1089.853, 45869.00
1090.953, 44168.00
1092.053, 45156.00
1093.152, 45202.00
1094.252, 42507.00
1095.351, 38661.00
1096.451, 35177.00
1097.550, 32005.00
1098.649, 29946.00
1099.748, 28701.00
1100.846, 27611.00
1101.945, 27778.00
1103.043, 27435.00
1104.141, 27377.00
1105.239, 27302.00
1106.337, 27043.00
1107.434, 27383.00
1108.532, 27161.00
1109.629, 27133.00
1110.726, 27108.00
1111.823, 27224.00
1112.920, 27395.00
1114.017, 27156.00
1115.113, 27444.00
1116.210, 27195.00
1117.306, 27429.00
1118.402, 27702.00
1119.498, 28058.00
1120.593, 27725.00
1121.689, 28075.00
1122.784, 28179.00
1123.879, 27818.00
1124.974, 28177.00
1126.069, 27643.00
1127.164, 27687.00
1128.259, 27516.00
1129.353, 27662.00
1130.447, 27543.00
1131.541, 27563.00
1132.635, 27580.24
1133.729, 27341.00
1134.822, 27604.00
1135.916, 27506.00
1137.009, 27570.94
1138.102, 27316.00
1139.195, 27554.00
1140.288, 27519.00
1141.380, 27537.00
1142.473, 27572.00
1143.565, 27534.50
1144.657, 27699.00
1145.749, 27494.00
1146.841, 27556.00
1147.932, 27544.00
1149.024, 27735.00
1150.115, 27843.00
1151.206, 27861.00
1152.297, 27653.00
1153.388, 27452.00
1154.479, 27892.00
1155.569, 27662.00
1156.659, 27883.00
1157.750, 27870.00
1158.839, 27857.00
1159.929, 27793.00
1161.019, 27818.07
1162.108, 27966.00
1163.198, 27881.00
1164.287, 27963.00
1165.376, 28088.00
1166.465, 28029.00
1167.553, 27962.00
1168.642, 27874.00
1169.730, 27871.75
1170.818, 28026.00
1171.906, 27900.00
1172.994, 28123.00
1174.082, 28236.00
1175.170, 27992.00
1176.257, 28359.00
1177.344, 28278.00
1178.431, 28334.00
1179.518, 28435.00
1180.605, 28178.00
1181.691, 28298.00
1182.778, 28123.00
1183.864, 28474.00
1184.950, 28318.00
1186.036, 28420.00
1187.122, 28326.00
1188.207, 28376.00
1189.292, 28501.00
1190.378, 28391.00
1191.463, 28476.00
1192.548, 28319.00
1193.632, 28638.00
1194.717, 28498.00
1195.801, 28735.00
1196.886, 28484.00
1197.970, 28735.00
1199.054, 28656.00
1200.137, 28855.00
1201.221, 28690.00
1202.305, 28617.00
1203.388, 28839.00
1204.471, 28710.00
1205.554, 28734.00
1206.637, 29111.00
1207.719, 28725.00
1208.802, 28593.00
1209.884, 29022.00
1210.966, 28871.00
1212.048, 28935.00
1213.130, 29332.00
1214.212, 29124.00
1215.293, 28880.00
1216.374, 28817.00
1217.456, 28813.00
1218.536, 29116.00
1219.617, 29251.00
1220.698, 29203.00
1221.778, 29117.00
1222.859, 29040.00
1223.939, 29168.00
1225.019, 29262.00
1226.099, 29228.00
1227.178, 29296.00
1228.258, 29181.00
1229.337, 29366.00
1230.417, 29333.00
1231.496, 29284.00
1232.574, 29379.00
1233.653, 29370.00
1234.732, 29421.32
1235.810, 29426.00
1236.888, 29541.00
1237.966, 29535.00
1239.044, 29609.00
1240.122, 29549.00
1241.199, 29602.00
1242.277, 29524.00
1243.354, 29674.00
1244.431, 29754.00
1245.508, 29665.00
1246.585, 29543.00
1247.661, 29499.00
1248.738, 29508.00
1249.814, 29585.00
1250.890, 29691.00
1251.966, 29673.00
1253.042, 29736.00
1254.117, 29670.00
1255.193, 29579.00
1256.268, 29672.00
1257.343, 29717.00
1258.418, 29816.00
1259.493, 29699.00
1260.567, 29873.00
1261.642, 29863.00
1262.716, 29988.00
1263.790, 30073.00
1264.864, 30076.00
1265.938, 30247.00
1267.011, 30030.00
1268.085, 30233.00
1269.158, 30118.00
1270.231, 29946.00
1271.304, 30132.00
1272.377, 30135.00
1273.450, 30075.00
1274.522, 30168.00
1275.594, 30180.00
1276.666, 30162.75
1277.738, 30115.00
1278.810, 30116.00
1279.882, 30236.00
1280.953, 30167.00
1282.025, 30425.00
1283.096, 30206.00
1284.167, 30369.00
1285.238, 30545.00
1286.308, 30299.00
1287.379, 30378.00
1288.449, 30519.00
1289.519, 30353.00
1290.589, 30597.00
1291.659, 30506.00
1292.729, 30716.00
1293.798, 30571.00
1294.868, 30449.00
1295.937, 30752.00
1297.006, 30858.00
1298.075, 30572.00
1299.143, 30531.00
1300.212, 30788.00
1301.280, 30729.00
1302.348, 30735.00
1303.416, 30798.00
1304.484, 30541.00
1305.552, 30936.00
1306.620, 30776.00
1307.687, 30964.00
1308.754, 31078.00
1309.821, 31086.00
1310.888, 30911.00
1311.955, 30921.00
1313.021, 30918.00
1314.088, 31091.00
1315.154, 31153.00
1316.220, 31166.00
1317.286, 31140.00
1318.352, 31144.40
1319.417, 31102.06
1320.483, 31103.00
1321.548, 31026.00
1322.613, 31030.00
1323.678, 31031.00
1324.743, 31113.00
1325.807, 30932.00
1326.872, 31176.00
1327.936, 31524.00
1329.000, 31355.00
1330.064, 31385.00
1331.128, 31562.00
1332.191, 31468.00
1333.255, 31341.00
1334.318, 31311.00
1335.381, 31449.00
1336.444, 31530.00
1337.507, 31554.00
1338.569, 31620.00
1339.632, 31591.00
1340.694, 31618.00
1341.756, 31893.00
1342.818, 31683.00
1343.880, 31761.00
1344.941, 31568.00
1346.003, 31524.00
1347.064, 31882.00
1348.125, 31621.00
1349.186, 31727.00
1350.247, 31816.00
1351.308, 31647.00
1352.368, 31835.00
1353.428, 31881.00
1354.489, 31662.00
1355.549, 31981.00
1356.608, 31946.00
1357.668, 31822.00
1358.727, 31887.00
1359.787, 31825.67
1360.846, 32026.00
1361.905, 31862.00
1362.964, 31907.00
1364.022, 32064.00
1365.081, 31974.00
1366.139, 32106.00
1367.197, 32146.00
1368.255, 32147.00
1369.313, 32424.00
1370.371, 32270.00
1371.428, 32350.00
1372.486, 32015.00
1373.543, 32361.00
1374.600, 32073.00
1375.657, 32353.00
1376.713, 32231.00
1377.770, 32397.00
1378.826, 32493.00
1379.882, 32580.00
1380.938, 32323.00
1381.994, 32476.00
1383.050, 32471.00
1384.106, 32460.00
1385.161, 32597.00
1386.216, 32548.00
1387.271, 32446.00
1388.326, 32649.00
1389.381, 32464.00
1390.435, 32716.00
1391.490, 32501.00
1392.544, 32723.00
1393.598, 32880.00
1394.652, 32581.00
1395.705, 32735.00
1396.759, 32849.00
1397.812, 32694.00
1398.866, 32679.00
1399.919, 32818.00
1400.972, 33022.00
1402.024, 32791.00
1403.077, 32954.00
1404.129, 32986.00
1405.181, 33189.00
1406.233, 33036.00
1407.285, 33070.00
1408.337, 33305.00
1409.389, 33212.00
1410.440, 33149.00
1411.491, 33297.00
1412.542, 33573.00
1413.593, 33262.00
1414.644, 33394.00
1415.695, 33497.00
1416.745, 33376.00
1417.795, 33384.00
1418.845, 33365.00
1419.895, 33641.00
1420.945, 33634.86
1421.995, 33507.00
1423.044, 33822.00
1424.093, 33792.00
1425.142, 33866.00
1426.191, 33786.00
1427.240, 33974.00
1428.289, 33905.00
1429.337, 34027.00
1430.385, 34123.00
1431.433, 34158.00
1432.481, 34262.69
1433.529, 34453.00
1434.577, 34402.00
1435.624, 34374.00
1436.672, 34414.00
1437.719, 33987.00
1438.766, 34115.00
1439.812, 33947.00
1440.859, 33967.00
1441.905, 34030.00
1442.952, 34128.00
1443.998, 34221.00
1445.044, 34050.00
1446.090, 34017.00
1447.135, 33984.00
1448.181, 33875.00
1449.226, 33951.91
1450.271, 34153.00
1451.316, 34125.00
1452.361, 34192.00
1453.405, 34381.00
1454.450, 34084.00
1455.494, 34281.00
1456.538, 34092.00
1457.582, 34194.00
1458.626, 34152.00
1459.670, 34307.00
1460.713, 34488.00
1461.757, 34230.00
1462.800, 34318.00
1463.843, 34519.00
1464.886, 34492.00
1465.928, 34318.00
1466.971, 34387.00
1468.013, 34384.00
1469.055, 34466.00
1470.097, 34484.00
1471.139, 34522.97
1472.181, 34713.00
1473.222, 34530.00
1474.263, 34580.00
1475.305, 34436.00
1476.346, 34659.00
1477.386, 34650.00
1478.427, 34697.00
1479.468, 34632.00
1480.508, 34587.00
1481.548, 34472.00
1482.588, 34636.00
1483.628, 34870.00
1484.668, 35059.00
1485.707, 34622.00
1486.747, 34988.00
1487.786, 34927.00
1488.825, 34883.00
1489.864, 35033.00
1490.902, 35265.00
1491.941, 35122.00
1492.979, 35072.00
1494.017, 35350.00
1495.055, 35120.00
1496.093, 35246.00
1497.131, 35002.00
1498.168, 35534.00
1499.206, 35552.00
1500.243, 35798.00
1501.280, 35864.82
1502.317, 35871.00
1503.354, 35820.00
1504.390, 35731.00
1505.426, 35666.00
1506.463, 35743.00
1507.499, 35727.00
1508.535, 35488.00
1509.570, 35763.00
1510.606, 35623.00
1511.641, 35615.00
1512.676, 35699.00
1513.711, 35857.00
1514.746, 35809.00
1515.781, 35896.00
1516.816, 36082.00
1517.850, 35929.00
1518.884, 36183.00
1519.918, 35897.00
1520.952, 35979.00
1521.986, 35982.00
1523.019, 35626.00
1524.053, 35910.00
1525.086, 35900.00
1526.119, 35845.00
1527.152, 35761.00
1528.185, 35811.18
1529.217, 35811.84
1530.250, 35885.00
1531.282, 35909.00
1532.314, 35941.00
1533.346, 35976.00
1534.377, 35992.76
1535.409, 36017.95
1536.440, 36050.00
1537.472, 36087.00
1538.503, 36160.00
1539.534, 36269.00
1540.564, 36297.62
1541.595, 36372.00
1542.625, 36355.00
1543.656, 36291.00
1544.686, 36226.00
1545.716, 36459.00
1546.745, 36189.00
1547.775, 36140.00
1548.804, 36363.00
1549.834, 36652.00
1550.863, 36680.00
1551.892, 36562.00
1552.920, 36405.00
1553.949, 36945.00
1554.977, 36636.00
1556.006, 36570.00
1557.034, 36895.00
1558.062, 36661.00
1559.089, 36576.00
1560.117, 36699.00
1561.144, 36883.00
1562.172, 36671.00
1563.199, 36791.00
1564.226, 36995.00
1565.252, 36962.00
1566.279, 36827.00
1567.305, 36779.00
1568.332, 37139.00
1569.358, 36802.00
1570.384, 37164.00
1571.409, 37286.00
##END=



