##NAMES=Titanite
##RRUFFID=R050124
##IDEAL CHEMISTRY=CaTi^4+^SiO_5_
##LOCALITY=Capelinha, Minas Gerais, Brazil
##OWNER=RRUFF
##SOURCE=Carlos and Paulo Vasconcelos
##DESCRIPTION=Yellow tabular crystal
##STATUS=The identification of this mineral has been confirmed by X-ray diffraction and chemical analysis
##URL=rruff.info/R050124
##MEASURED CHEMISTRY=Ca_1.00_(Ti_0.93_Al_0.05_Fe^3+^_0.02_)Si_1.00_O_4_(O)_1.00_
##PIN_ID=M00222
##ORIENTATION=Laser parallel to -b* (0 -1 0). Fiducial mark perpendicular to laser is parallel to -c [0 0 -1]
123.422, 12530.000
124.811, 12440.000
126.201, 12660.000
127.590, 12540.000
128.979, 12690.000
130.367, 12870.000
131.756, 12550.000
133.144, 12760.000
134.532, 12400.000
135.920, 12520.000
137.307, 12300.000
138.695, 12530.000
140.082, 12560.000
141.469, 12540.000
142.856, 13110.000
144.242, 12950.000
145.628, 13270.000
147.014, 12980.000
148.400, 12890.000
149.786, 12660.000
151.171, 12520.000
152.556, 13080.000
153.941, 13290.000
155.325, 14750.000
156.710, 15450.000
158.094, 16920.000
159.478, 18330.000
160.862, 19650.000
162.245, 21080.000
163.629, 21460.000
165.012, 21420.000
166.395, 19940.000
167.777, 18980.000
169.160, 18170.000
170.542, 16690.000
171.924, 16370.000
173.306, 15630.000
174.687, 15850.000
176.068, 15340.000
177.449, 15430.000
178.830, 15720.000
180.211, 15500.000
181.591, 16100.000
182.972, 15860.000
184.351, 16370.000
185.731, 16070.000
187.111, 16020.000
188.490, 15470.000
189.869, 15150.000
191.248, 15570.000
192.626, 15170.000
194.005, 15450.000
195.383, 15560.000
196.761, 15680.000
198.139, 16060.000
199.516, 15620.000
200.893, 16390.000
202.271, 16000.000
203.647, 16620.000
205.024, 16710.000
206.400, 17160.000
207.777, 17750.000
209.152, 17090.000
210.528, 17950.000
211.904, 17390.000
213.279, 17580.000
214.654, 17500.000
216.029, 17110.000
217.403, 17610.000
218.778, 16960.000
220.152, 17880.000
221.526, 17300.000
222.900, 18050.000
224.273, 18040.000
225.646, 17960.000
227.019, 18790.000
228.392, 18100.000
229.765, 18900.000
231.137, 18580.000
232.509, 18800.000
233.881, 18950.000
235.253, 18410.000
236.625, 19120.000
237.996, 18400.000
239.367, 19120.000
240.738, 18910.000
242.108, 19370.000
243.479, 20290.000
244.849, 20250.000
246.219, 22390.000
247.589, 22440.000
248.958, 23980.000
250.328, 24690.000
251.697, 25230.000
253.065, 26750.000
254.434, 25860.000
255.803, 27280.000
257.171, 25860.000
258.539, 25720.000
259.906, 25150.000
261.274, 23460.000
262.641, 22860.000
264.008, 20580.000
265.375, 20200.000
266.742, 18670.000
268.108, 17550.000
269.475, 17100.000
270.840, 15910.000
272.206, 15790.000
273.572, 14920.000
274.937, 14790.000
276.302, 14610.000
277.667, 14340.000
279.032, 14880.000
280.396, 14300.000
281.760, 15130.000
283.125, 14880.000
284.488, 15720.000
285.852, 16380.000
287.215, 16750.000
288.578, 18380.000
289.941, 18450.000
291.304, 19730.000
292.666, 19070.000
294.029, 18270.000
295.391, 17840.000
296.753, 16410.000
298.114, 16470.000
299.476, 15350.000
300.837, 16030.000
302.198, 16190.000
303.558, 15930.000
304.919, 16810.000
306.279, 16390.000
307.639, 16770.000
308.999, 16540.000
310.359, 17140.000
311.718, 18000.000
313.077, 18430.000
314.436, 20440.000
315.795, 20640.000
317.154, 21720.000
318.512, 21170.000
319.870, 19810.000
321.228, 19050.000
322.586, 17130.000
323.943, 16790.000
325.300, 15490.000
326.657, 15200.000
328.014, 15020.000
329.371, 14750.000
330.727, 15390.000
332.083, 15000.000
333.439, 15420.000
334.795, 15300.000
336.150, 15040.000
337.506, 15000.000
338.861, 14130.000
340.215, 14320.000
341.570, 13220.000
342.924, 13320.000
344.279, 12760.000
345.633, 12120.000
346.986, 12270.000
348.340, 11520.000
349.693, 11590.000
351.046, 11020.000
352.399, 10750.000
353.752, 10740.000
355.104, 10120.000
356.457, 10290.000
357.809, 9940.000
359.160, 9771.000
360.512, 9736.000
361.863, 9399.000
363.214, 9607.000
364.565, 9137.000
365.916, 9124.000
367.267, 9081.000
368.617, 8766.000
369.967, 8794.000
371.317, 8326.000
372.666, 8326.000
374.016, 8080.000
375.365, 7979.000
376.714, 7783.000
378.063, 7463.000
379.411, 7514.000
380.760, 7020.000
382.108, 6945.000
383.456, 6784.000
384.803, 6597.000
386.151, 6766.000
387.498, 6553.000
388.845, 6683.000
390.192, 6503.000
391.539, 6443.000
392.885, 6472.000
394.231, 6199.000
395.577, 6228.000
396.923, 6040.000
398.269, 5999.000
399.614, 6028.000
400.959, 5920.000
402.304, 6092.000
403.649, 6009.000
404.993, 6190.000
406.337, 6111.000
407.681, 6422.000
409.025, 6646.000
410.369, 6806.000
411.712, 7384.000
413.055, 7585.000
414.398, 8305.000
415.741, 9041.000
417.084, 9816.000
418.426, 11310.000
419.768, 11970.000
421.110, 13880.000
422.452, 14310.000
423.793, 14990.000
425.134, 15000.000
426.475, 13790.000
427.816, 13480.000
429.157, 12210.000
430.497, 11400.000
431.837, 10820.000
433.177, 9903.000
434.517, 9860.000
435.857, 9224.000
437.196, 9242.000
438.535, 9007.000
439.874, 8822.000
441.213, 8794.000
442.551, 8531.000
443.889, 8641.000
445.227, 8545.000
446.565, 8538.000
447.903, 8673.000
449.240, 8570.000
450.577, 9019.000
451.914, 8873.000
453.251, 9338.000
454.588, 9908.000
455.924, 10230.000
457.260, 11150.000
458.596, 11760.000
459.932, 12970.000
461.267, 14200.000
462.602, 15250.000
463.938, 17760.000
465.272, 18450.000
466.607, 21040.000
467.941, 21530.000
469.276, 21330.000
470.610, 21150.000
471.943, 18490.000
473.277, 17790.000
474.610, 15320.000
475.944, 14000.000
477.276, 12760.000
478.609, 11510.000
479.942, 11110.000
481.274, 10130.000
482.606, 10090.000
483.938, 9635.000
485.270, 9345.000
486.601, 9427.000
487.932, 8976.000
489.263, 9133.000
490.594, 8783.000
491.925, 8763.000
493.255, 8892.000
494.585, 8664.000
495.915, 8972.000
497.245, 8573.000
498.575, 8678.000
499.904, 8768.000
501.233, 8499.000
502.562, 8748.000
503.891, 8413.000
505.219, 8670.000
506.548, 8658.000
507.876, 8544.000
509.203, 8791.000
510.531, 8666.000
511.859, 9034.000
513.186, 8973.000
514.513, 8940.000
515.840, 9408.000
517.166, 9156.000
518.493, 9632.000
519.819, 9472.000
521.145, 9716.000
522.470, 10220.000
523.796, 9898.000
525.121, 10610.000
526.446, 10610.000
527.771, 11180.000
529.096, 11350.000
530.421, 11470.000
531.745, 12540.000
533.069, 12500.000
534.393, 13230.000
535.716, 13810.000
537.040, 13910.000
538.363, 15210.000
539.686, 14880.000
541.009, 15700.000
542.331, 15720.000
543.654, 15470.000
544.976, 16610.000
546.298, 15640.000
547.620, 16380.000
548.941, 15890.000
550.263, 15830.000
551.584, 16220.000
552.905, 15360.000
554.225, 15660.000
555.546, 15090.000
556.866, 14760.000
558.186, 14980.000
559.506, 14400.000
560.826, 15120.000
562.145, 14910.000
563.465, 15150.000
564.784, 15820.000
566.103, 15440.000
567.421, 16000.000
568.740, 15590.000
570.058, 15770.000
571.376, 15820.000
572.694, 15220.000
574.011, 15940.000
575.329, 15210.000
576.646, 15780.000
577.963, 16190.000
579.279, 16020.000
580.596, 17180.000
581.912, 17030.000
583.228, 18440.000
584.544, 19170.000
585.860, 19670.000
587.175, 21660.000
588.491, 21300.000
589.806, 23660.000
591.121, 24900.000
592.435, 25740.000
593.750, 28300.000
595.064, 28320.000
596.378, 31660.000
597.692, 33130.000
599.006, 34400.000
600.319, 37350.000
601.632, 37730.000
602.945, 41060.000
604.258, 41540.000
605.571, 42580.000
606.883, 45070.000
608.195, 42910.000
609.507, 45850.000
610.819, 44290.000
612.131, 44070.000
613.442, 44200.000
614.753, 41000.000
616.064, 43060.000
617.375, 39190.000
618.685, 39150.000
619.995, 38170.000
621.306, 35360.000
622.615, 35820.000
623.925, 33550.000
625.235, 32730.000
626.544, 32120.000
627.853, 29550.000
629.162, 29830.000
630.471, 27130.000
631.779, 26810.000
633.087, 25740.000
634.395, 23770.000
635.703, 24270.000
637.011, 22320.000
638.318, 21990.000
639.625, 21890.000
640.932, 20250.000
642.239, 20970.000
643.546, 19310.000
644.852, 19630.000
646.158, 19260.000
647.464, 18200.000
648.770, 18600.000
650.076, 17180.000
651.381, 17590.000
652.686, 17070.000
653.991, 16190.000
655.296, 16670.000
656.600, 15720.000
657.905, 15360.000
659.209, 15180.000
660.513, 14400.000
661.817, 14780.000
663.120, 13840.000
664.423, 14140.000
665.726, 13660.000
667.029, 13180.000
668.332, 13510.000
669.635, 12600.000
670.937, 13040.000
672.239, 12550.000
673.541, 12170.000
674.842, 12430.000
676.144, 11620.000
677.445, 11730.000
678.746, 11720.000
680.047, 11200.000
681.348, 11520.000
682.648, 10880.000
683.948, 11110.000
685.248, 10720.000
686.548, 10620.000
687.848, 10730.000
689.147, 10160.000
690.447, 10270.000
691.746, 10200.000
693.044, 9875.000
694.343, 10160.000
695.641, 9544.000
696.940, 9841.000
698.238, 9722.000
699.535, 9404.000
700.833, 9517.000
702.130, 9052.000
703.427, 9242.000
704.724, 9045.000
706.021, 8797.000
707.318, 9046.000
708.614, 8706.000
709.910, 8631.000
711.206, 8560.000
712.502, 8389.000
713.798, 8634.000
715.093, 8208.000
716.388, 8272.000
717.683, 8262.000
718.978, 7987.000
720.272, 8394.000
721.567, 7949.000
722.861, 8032.000
724.155, 7983.000
725.448, 7887.000
726.742, 7993.000
728.035, 7771.000
729.328, 7802.000
730.621, 7880.000
731.914, 7561.000
733.206, 7734.000
734.499, 7465.000
735.791, 7600.000
737.083, 7488.000
738.374, 7267.000
739.666, 7460.000
740.957, 7130.000
742.248, 7227.000
743.539, 7200.000
744.830, 6997.000
746.120, 7185.000
747.410, 7002.000
748.701, 6998.000
749.990, 6989.000
751.280, 6738.000
752.570, 6936.000
753.859, 6755.000
755.148, 6758.000
756.437, 6822.000
757.725, 6618.000
759.014, 6784.000
760.302, 6698.000
761.590, 6666.000
762.878, 6706.000
764.166, 6492.000
765.453, 6680.000
766.740, 6650.000
768.027, 6580.275
769.314, 6617.627
770.601, 6628.987
771.887, 6615.769
773.174, 6504.272
774.460, 6519.676
775.745, 6484.249
777.031, 6446.719
778.316, 6452.000
779.602, 6404.000
780.887, 6409.000
782.172, 6505.000
783.456, 6333.000
784.741, 6470.000
786.025, 6336.000
787.309, 6289.000
788.593, 6455.000
789.876, 6297.000
791.160, 6385.000
792.443, 6402.000
793.726, 6394.000
795.009, 6454.000
796.291, 6273.000
797.574, 6406.000
798.856, 6336.000
800.138, 6292.000
801.420, 6405.000
802.702, 6264.000
803.983, 6312.000
805.264, 6333.000
806.545, 6211.000
807.826, 6426.000
809.107, 6233.000
810.387, 6433.000
811.667, 6396.000
812.947, 6388.000
814.227, 6505.000
815.507, 6519.000
816.786, 6457.000
818.065, 6740.000
819.344, 6538.000
820.623, 6704.000
821.902, 6706.000
823.180, 6743.000
824.459, 6989.000
825.737, 6805.000
827.014, 7118.000
828.292, 7027.000
829.569, 7001.000
830.847, 7319.000
832.124, 7129.000
833.401, 7332.000
834.677, 7367.000
835.954, 7312.000
837.230, 7626.000
838.506, 7561.000
839.782, 7774.000
841.057, 8046.000
842.333, 7958.000
843.608, 8464.000
844.883, 8377.000
846.158, 8612.000
847.433, 8979.000
848.707, 9049.000
849.981, 9690.000
851.255, 9817.000
852.529, 10170.000
853.803, 10910.000
855.076, 11030.000
856.350, 11900.000
857.623, 12200.000
858.895, 12470.000
860.168, 13800.000
861.441, 13850.000
862.713, 15080.000
863.985, 15940.000
865.257, 16670.000
866.528, 18870.000
867.800, 19090.000
869.071, 20960.000
870.342, 22680.000
871.613, 22080.000
872.884, 23750.000
874.154, 21970.000
875.425, 21590.000
876.695, 21640.000
877.965, 19440.000
879.234, 20100.000
880.504, 18890.000
881.773, 18470.000
883.042, 18710.000
884.311, 16990.000
885.580, 17150.000
886.848, 15830.000
888.117, 14840.000
889.385, 14600.000
890.653, 12890.000
891.920, 12510.000
893.188, 11760.000
894.455, 10860.000
895.722, 10950.000
896.989, 10080.000
898.256, 10140.000
899.523, 9906.000
900.789, 9612.000
902.055, 9885.000
903.321, 9654.000
904.587, 9821.000
905.852, 10290.000
907.118, 9925.000
908.383, 10660.000
909.648, 10770.000
910.913, 10560.000
912.177, 10870.000
913.442, 9896.000
914.706, 9745.000
915.970, 9239.000
917.233, 8432.000
918.497, 8142.000
919.760, 7410.000
921.024, 7152.000
922.287, 6861.000
923.550, 6498.000
924.812, 6526.000
926.075, 6296.000
927.337, 6156.000
928.599, 6122.000
929.861, 5924.000
931.122, 5986.000
932.384, 5906.000
933.645, 5760.000
934.906, 5864.000
936.167, 5726.000
937.428, 5796.000
938.688, 5702.000
939.948, 5575.000
941.208, 5703.000
942.468, 5570.000
943.728, 5655.000
944.987, 5648.000
946.247, 5557.000
947.506, 5563.000
948.765, 5627.000
950.023, 5591.000
951.282, 5737.000
952.540, 5553.000
953.798, 5716.000
955.056, 5679.000
956.314, 5598.000
957.572, 5662.000
958.829, 5619.000
960.086, 5581.000
961.343, 5683.000
962.600, 5513.000
963.856, 5648.000
965.113, 5563.000
966.369, 5462.000
967.625, 5579.000
968.881, 5440.000
970.136, 5502.000
971.392, 5454.000
972.647, 5433.000
973.902, 5470.000
975.157, 5363.000
976.411, 5395.000
977.666, 5409.000
978.920, 5346.000
980.174, 5319.000
981.428, 5379.000
982.682, 5324.000
983.935, 5481.000
985.188, 5430.000
986.441, 5433.000
987.694, 5469.000
988.947, 5309.000
990.199, 5440.000
991.452, 5272.000
992.704, 5385.000
993.956, 5426.000
995.207, 5384.000
996.459, 5583.000
997.710, 5660.000
998.961, 5863.000
1000.212, 6439.000
1001.463, 6599.000
1002.714, 6706.000
1003.964, 6281.000
1005.214, 6040.000
1006.464, 5932.000
1007.714, 5799.000
1008.964, 5813.000
1010.213, 5860.000
1011.462, 5735.000
1012.711, 5907.000
1013.960, 5735.000
1015.209, 5868.000
1016.457, 5923.000
1017.705, 5821.000
1018.954, 6069.000
1020.201, 6008.000
1021.449, 6011.000
1022.697, 6056.000
1023.944, 5774.000
1025.191, 5875.000
1026.438, 5745.000
1027.685, 5594.000
1028.931, 5616.000
1030.177, 5427.000
1031.423, 5366.000
1032.669, 5336.000
1033.915, 5152.000
1035.161, 5233.000
1036.406, 5191.000
1037.651, 5161.000
1038.896, 5179.000
1040.141, 5051.000
1041.386, 5064.000
1042.630, 5079.000
1043.874, 5046.000
1045.118, 5130.000
1046.362, 5043.000
1047.606, 5099.000
1048.849, 5168.000
1050.092, 4995.000
1051.336, 5062.000
1052.578, 5121.000
1053.821, 5009.000
1055.064, 5112.000
1056.306, 5020.000
1057.548, 5007.000
1058.790, 4968.000
1060.032, 5076.000
1061.273, 5090.000
1062.515, 5043.000
1063.756, 5023.000
1064.997, 5141.000
1066.237, 5111.000
1067.478, 5146.000
1068.718, 5175.000
1069.959, 5088.000
1071.199, 5265.000
1072.438, 5205.000
1073.678, 5230.000
1074.918, 5358.000
1076.157, 5288.000
1077.396, 5408.000
1078.635, 5475.000
1079.873, 5444.000
1081.112, 5694.000
1082.350, 5595.000
1083.588, 5618.000
1084.826, 5606.000
1086.064, 5507.000
1087.301, 5561.000
1088.539, 5502.000
1089.776, 5444.000
1091.013, 5490.000
1092.250, 5363.000
1093.486, 5402.000
1094.723, 5498.000
1095.959, 5301.000
1097.195, 5402.000
1098.431, 5300.000
1099.666, 5242.000
1100.902, 5322.000
1102.137, 5179.000
1103.372, 5332.000
1104.607, 5229.000
1105.842, 5221.000
1107.076, 5335.000
1108.311, 5219.000
1109.545, 5218.000
1110.779, 5233.000
1112.012, 5199.000
1113.246, 5193.000
1114.479, 5191.799
1115.712, 5191.000
1116.945, 5180.000
1118.178, 5144.000
1119.411, 5123.000
1120.643, 5235.000
1121.875, 5074.000
1123.108, 5212.000
1124.339, 5204.000
1125.571, 5125.000
1126.802, 5213.000
1128.034, 5123.000
1129.265, 5139.000
1130.496, 5228.000
1131.727, 5181.000
1132.957, 5201.000
1134.187, 5178.000
1135.418, 5123.000
1136.648, 5160.000
1137.877, 5108.000
1139.107, 5100.000
1140.336, 5186.000
1141.566, 4982.000
1142.795, 5110.000
1144.023, 5150.000
1145.252, 5074.288
1146.480, 5157.000
1147.709, 5043.000
1148.937, 5096.000
1150.165, 5120.000
1151.392, 4998.000
1152.620, 5145.000
1153.847, 5075.000
1155.074, 5032.097
1156.301, 5090.003
1157.528, 5123.439
1158.755, 5133.720
1159.981, 5051.489
1161.207, 5088.715
1162.433, 5078.068
1163.659, 5065.458
1164.885, 5119.497
1166.110, 5050.720
1167.336, 5103.702
1168.561, 5108.079
1169.786, 5134.701
1171.010, 5113.152
1172.235, 5106.483
1173.459, 5147.996
1174.683, 5162.829
1175.907, 5135.735
1177.131, 5163.770
1178.355, 5093.309
1179.578, 5109.276
1180.801, 5162.535
1182.024, 5137.862
1183.247, 5166.775
1184.470, 5175.279
1185.692, 5091.034
1186.915, 5168.088
1188.137, 5175.385
1189.359, 5111.057
1190.580, 5182.582
1191.802, 5128.128
1193.023, 5118.640
1194.244, 5142.992
1195.465, 5132.067
1196.686, 5176.761
1197.907, 5167.873
1199.127, 5154.196
1200.347, 5161.412
1201.567, 5109.425
1202.787, 5167.270
1204.007, 5150.090
1205.226, 5170.202
1206.446, 5198.768
1207.665, 5162.609
1208.884, 5194.971
1210.102, 5121.072
1211.321, 5136.086
1212.539, 5141.524
1213.758, 5203.794
1214.976, 5130.413
1216.193, 5142.953
1217.411, 5192.080
1218.628, 5190.015
1219.846, 5209.354
1221.063, 5165.329
1222.280, 5180.829
1223.496, 5179.919
1224.713, 5235.708
1225.929, 5246.735
1227.145, 5203.784
1228.361, 5161.062
1229.577, 5220.929
1230.793, 5183.560
1232.008, 5198.647
1233.223, 5159.557
1234.438, 5167.245
1235.653, 5174.191
1236.868, 5205.117
1238.082, 5163.329
1239.297, 5215.862
1240.511, 5213.878
1241.725, 5227.954
1242.938, 5240.241
1244.152, 5179.377
1245.365, 5178.479
1246.578, 5263.389
1247.791, 5217.438
1249.004, 5197.898
1250.217, 5197.135
1251.429, 5284.982
1252.642, 5290.467
1253.854, 5197.500
1255.066, 5281.443
1256.277, 5256.545
1257.489, 5263.993
1258.700, 5259.639
1259.911, 5258.778
1261.122, 5213.485
1262.333, 5226.745
1263.544, 5287.613
1264.754, 5267.313
1265.964, 5302.167
1267.174, 5236.508
1268.384, 5230.511
1269.594, 5240.350
1270.803, 5255.963
1272.013, 5225.430
1273.222, 5287.186
1274.431, 5287.492
1275.640, 5234.546
1276.848, 5239.366
1278.057, 5234.596
1279.265, 5329.674
1280.473, 5287.470
1281.681, 5235.544
1282.888, 5292.449
1284.096, 5314.472
1285.303, 5289.335
1286.510, 5289.256
1287.717, 5241.636
1288.924, 5266.923
1290.131, 5267.136
1291.337, 5308.661
1292.543, 5261.230
1293.749, 5316.206
1294.955, 5271.161
1296.161, 5330.283
1297.366, 5283.122
1298.571, 5330.636
1299.777, 5265.144
1300.981, 5281.443
1302.186, 5304.228
1303.391, 5347.953
1304.595, 5311.167
1305.799, 5359.858
1307.003, 5333.537
1308.207, 5356.041
1309.411, 5351.470
1310.614, 5313.011
1311.818, 5370.129
1313.021, 5340.077
1314.224, 5368.884
1315.426, 5302.354
1316.629, 5351.720
1317.831, 5376.134
1319.033, 5395.407
1320.235, 5393.063
1321.437, 5381.085
1322.639, 5384.224
1323.840, 5362.132
1325.042, 5303.202
1326.243, 5320.709
1327.444, 5361.342
1328.644, 5390.509
1329.845, 5342.072
1331.045, 5377.152
1332.245, 5374.628
1333.445, 5407.689
1334.645, 5372.538
1335.845, 5418.596
1337.044, 5355.463
1338.244, 5378.000
1339.443, 5343.000
1340.642, 5303.000
1341.840, 5423.000
1343.039, 5386.000
1344.237, 5332.000
1345.435, 5416.000
1346.633, 5261.000
1347.831, 5350.000
1349.029, 5393.000
1350.226, 5326.000
1351.424, 5424.000
1352.621, 5337.000
1353.818, 5361.000
1355.014, 5418.000
1356.211, 5356.000
1357.407, 5327.000
1358.604, 5402.000
1359.800, 5310.000
1360.995, 5376.000
1362.191, 5289.000
1363.387, 5353.000
1364.582, 5457.000
1365.777, 5303.000
1366.972, 5330.000
1368.167, 5401.000
1369.361, 5360.000
1370.556, 5374.000
1371.750, 5434.000
1372.944, 5402.000
1374.138, 5522.000
1375.331, 5382.000
1376.525, 5454.000
1377.718, 5529.000
1378.911, 5478.000
1380.104, 5539.000
1381.297, 5558.000
1382.490, 5552.000
1383.682, 5580.000
1384.874, 5606.000
1386.066, 5368.000
1387.258, 5550.000
1388.450, 5474.000
1389.641, 5401.000
1390.833, 5553.000
1392.024, 5485.000
1393.215, 5532.000
1394.406, 5512.000
1395.596, 5392.000
1396.787, 5461.000
1397.977, 5450.000
1399.167, 5372.000
1400.357, 5435.000
1401.547, 5358.000
1402.736, 5441.000
1403.925, 5419.000
1405.115, 5421.000
1406.304, 5477.000
1407.492, 5508.000
1408.681, 5345.000
1409.870, 5452.000
1411.058, 5473.000
1412.246, 5350.000
1413.434, 5518.000
1414.622, 5430.000
1415.809, 5439.000
1416.997, 5565.000
1418.184, 5430.000
1419.371, 5458.000
1420.558, 5468.000
1421.744, 5479.000
1422.931, 5530.000
1424.117, 5490.000
1425.303, 5462.000
##END=



