##NAMES=Tremolite
##RRUFFID=R050173
##IDEAL CHEMISTRY=[box]Ca_2_Mg_5_Si_8_O_22_(OH)_2_
##LOCALITY=Fort Dauphin, Madagascar
##OWNER=RRUFF
##SOURCE=Marcus Origlieri
##DESCRIPTION=Mass of colorless acicular crystals
##STATUS=The identification of this mineral has been confirmed by X-ray diffraction and chemical analysis
##URL=rruff.info/R050173
##MEASURED CHEMISTRY=[box]Ca_2.00_Mg_5.00_Si_8.00_O_22_(OH)_2_
##PIN_ID=L00129
##ORIENTATION=Laser parallel to -b* (0 -1 0). Fiducial mark perpendicular to laser is parallel to -c [0 0 -1]
84.184, 19240.000
85.581, 18720.000
86.978, 18690.000
88.374, 18750.000
89.770, 18820.000
91.166, 18655.338
92.562, 18520.000
93.958, 18320.000
95.353, 17960.000
96.748, 17740.000
98.143, 17950.000
99.538, 17990.000
100.932, 17690.000
102.326, 17550.000
103.720, 17700.000
105.114, 17730.000
106.508, 17370.000
107.901, 17340.000
109.294, 17390.000
110.687, 17550.000
112.079, 17880.000
113.472, 18370.000
114.864, 19370.000
116.256, 20170.000
117.647, 22090.000
119.039, 24300.000
120.430, 26080.000
121.821, 26940.000
123.211, 26890.000
124.602, 25500.000
125.992, 23190.000
127.382, 21120.000
128.772, 19380.000
130.162, 18080.000
131.551, 17220.000
132.940, 16530.000
134.329, 16100.000
135.718, 15780.000
137.106, 16070.000
138.494, 16100.000
139.882, 15770.000
141.270, 15590.000
142.657, 15650.000
144.045, 15300.000
145.432, 15280.000
146.819, 15030.000
148.205, 15010.000
149.592, 15070.000
150.978, 15300.000
152.364, 15780.000
153.749, 17160.000
155.135, 19280.000
156.520, 21760.000
157.905, 23170.000
159.290, 23600.000
160.674, 22130.000
162.059, 18790.000
163.443, 16130.000
164.826, 14810.000
166.210, 14380.000
167.593, 14330.000
168.977, 14850.000
170.360, 15630.000
171.742, 17810.000
173.125, 21500.000
174.507, 26120.000
175.889, 29470.000
177.271, 30300.000
178.652, 28680.000
180.034, 24200.000
181.415, 19150.000
182.796, 16090.000
184.176, 14800.000
185.557, 14260.000
186.937, 13960.000
188.317, 13690.000
189.697, 13830.000
191.076, 13860.000
192.456, 13870.000
193.835, 13920.000
195.213, 14300.000
196.592, 14210.000
197.970, 14590.000
199.349, 14660.000
200.726, 14680.000
202.104, 14890.000
203.482, 14850.000
204.859, 14940.000
206.236, 14830.000
207.613, 14880.000
208.989, 14700.000
210.366, 15020.000
211.742, 15280.000
213.118, 15630.000
214.493, 16690.000
215.869, 18450.000
217.244, 22420.000
218.619, 26790.000
219.994, 31880.000
221.368, 34380.000
222.742, 33710.000
224.117, 29360.000
225.490, 23300.000
226.864, 18800.000
228.237, 16350.000
229.611, 15100.000
230.984, 14490.000
232.356, 13970.000
233.729, 13450.000
235.101, 12920.000
236.473, 12430.000
237.845, 12010.000
239.216, 11700.000
240.588, 11630.000
241.959, 11510.000
243.330, 11710.000
244.701, 11790.000
246.071, 12220.000
247.441, 12670.000
248.811, 12860.000
250.181, 12830.000
251.551, 12490.000
252.920, 12180.000
254.289, 12150.000
255.658, 11790.000
257.027, 11760.000
258.395, 11430.000
259.763, 11560.000
261.131, 11690.000
262.499, 11720.000
263.867, 11450.000
265.234, 11420.000
266.601, 11130.000
267.968, 11040.000
269.334, 10890.000
270.701, 10860.000
272.067, 10900.000
273.433, 10880.000
274.799, 10940.000
276.164, 10930.000
277.530, 10990.000
278.895, 10950.000
280.260, 11140.000
281.624, 11080.000
282.989, 11210.000
284.353, 11340.000
285.717, 11510.000
287.080, 11770.000
288.444, 12000.000
289.807, 11790.000
291.170, 11580.000
292.533, 11300.000
293.896, 11190.000
295.258, 11190.000
296.620, 11500.000
297.982, 11980.000
299.344, 12400.000
300.705, 12870.000
302.067, 12940.000
303.428, 12680.000
304.789, 12180.000
306.149, 11750.000
307.510, 11380.000
308.870, 11330.000
310.230, 11200.000
311.589, 11190.000
312.949, 11040.000
314.308, 11080.000
315.667, 11080.000
317.026, 11120.000
318.385, 11144.605
319.743, 11090.000
321.101, 11220.000
322.459, 11200.000
323.817, 11270.000
325.174, 11370.000
326.532, 11480.000
327.889, 11940.000
329.246, 12470.000
330.602, 12750.000
331.958, 12900.000
333.315, 12520.000
334.671, 12340.000
336.026, 12270.000
337.382, 12530.000
338.737, 13300.000
340.092, 14230.000
341.447, 15180.000
342.802, 15240.000
344.156, 15090.000
345.510, 14160.000
346.864, 13430.000
348.218, 13410.000
349.571, 13450.000
350.925, 13580.000
352.278, 13380.000
353.630, 13030.000
354.983, 12660.000
356.336, 12210.000
357.688, 12060.000
359.040, 11850.000
360.391, 12000.000
361.743, 12200.000
363.094, 12720.000
364.445, 13370.000
365.796, 14510.000
367.147, 15330.000
368.497, 15770.000
369.847, 15400.000
371.197, 14530.000
372.547, 13760.000
373.897, 13130.000
375.246, 12720.000
376.595, 12490.000
377.944, 12250.000
379.293, 12140.000
380.641, 12010.000
381.989, 11940.000
383.337, 12210.000
384.685, 12240.000
386.032, 12680.000
387.380, 13540.000
388.727, 15070.000
390.074, 16940.000
391.421, 19260.000
392.767, 20530.000
394.113, 20280.000
395.459, 18500.000
396.805, 16270.000
398.151, 14330.000
399.496, 13210.000
400.841, 12510.000
402.186, 12140.000
403.531, 11900.000
404.875, 11820.000
406.219, 11940.000
407.564, 11950.000
408.907, 12230.000
410.251, 12630.000
411.594, 13040.000
412.937, 13660.000
414.280, 14070.000
415.623, 13990.000
416.966, 13840.000
418.308, 13260.000
419.650, 12840.000
420.992, 12150.000
422.334, 11980.000
423.675, 11820.000
425.016, 11670.000
426.357, 11610.000
427.698, 11730.000
429.038, 11790.000
430.379, 11780.000
431.719, 12160.000
433.059, 12490.000
434.399, 12940.000
435.738, 12890.000
437.077, 12670.000
438.416, 12350.000
439.755, 11870.000
441.094, 11830.000
442.432, 11730.000
443.770, 11870.000
445.108, 11980.000
446.446, 11920.000
447.783, 12160.000
449.121, 12230.000
450.458, 12440.000
451.795, 12780.000
453.131, 13060.000
454.468, 13720.000
455.804, 14530.000
457.140, 16100.000
458.476, 17910.000
459.811, 20220.000
461.146, 22390.000
462.482, 23220.000
463.816, 22800.000
465.151, 20880.000
466.486, 18840.000
467.820, 17040.000
469.154, 15410.000
470.488, 14480.000
471.821, 13810.000
473.155, 13360.000
474.488, 13130.000
475.821, 12780.000
477.154, 12600.000
478.486, 12480.000
479.818, 12510.000
481.150, 12550.000
482.482, 12520.000
483.814, 12540.000
485.145, 12430.000
486.477, 12330.000
487.808, 12180.000
489.138, 12110.000
490.469, 12050.000
491.799, 11930.000
493.129, 12080.000
494.459, 11900.000
495.789, 11917.915
497.119, 11960.000
498.448, 11900.000
499.777, 11961.264
501.106, 11760.000
502.434, 11960.000
503.763, 11980.000
505.091, 11830.000
506.419, 11980.000
507.747, 12020.287
509.074, 12150.000
510.402, 12250.000
511.729, 12270.000
513.056, 12360.000
514.383, 12550.000
515.709, 12560.000
517.035, 12680.000
518.361, 12680.000
519.687, 12670.000
521.013, 12480.000
522.338, 12430.000
523.663, 12400.000
524.988, 12520.000
526.313, 12580.000
527.638, 12590.000
528.962, 12550.000
530.286, 12720.000
531.610, 12440.000
532.934, 12430.000
534.257, 12120.000
535.581, 12160.000
536.904, 12050.000
538.227, 12060.000
539.549, 11970.000
540.872, 11980.000
542.194, 12000.000
543.516, 12010.000
544.838, 11960.000
546.159, 11940.000
547.480, 11900.000
548.802, 11990.000
550.123, 11980.000
551.443, 12000.000
552.764, 12000.000
554.084, 12040.000
555.404, 12000.000
556.724, 12010.000
558.044, 11970.000
559.363, 12000.000
560.682, 12130.000
562.001, 12020.000
563.320, 12150.000
564.639, 12030.000
565.957, 12070.000
567.275, 12040.000
568.593, 12120.000
569.911, 12110.000
571.228, 12190.000
572.546, 12140.000
573.863, 12210.000
575.180, 12090.000
576.496, 12180.000
577.813, 12260.000
579.129, 12200.000
580.445, 12380.000
581.761, 12300.000
583.076, 12420.000
584.392, 12360.000
585.707, 12400.000
587.022, 12400.000
588.337, 12440.000
589.651, 12470.000
590.966, 12440.000
592.280, 12450.181
593.594, 12460.000
594.907, 12420.000
596.221, 12440.000
597.534, 12440.000
598.847, 12530.000
600.160, 12430.000
601.473, 12530.000
602.785, 12480.000
604.097, 12610.000
605.409, 12550.000
606.721, 12630.000
608.033, 12610.000
609.344, 12580.000
610.655, 12640.000
611.966, 12680.000
613.277, 12690.000
614.588, 12680.000
615.898, 12690.000
617.208, 12770.000
618.518, 12780.000
619.828, 12880.000
621.137, 12870.000
622.446, 13010.000
623.755, 13070.000
625.064, 13050.000
626.373, 13190.000
627.681, 13100.000
628.990, 13210.000
630.298, 13420.000
631.605, 13290.000
632.913, 13460.000
634.220, 13620.000
635.527, 13630.000
636.834, 13690.000
638.141, 13870.000
639.448, 14050.000
640.754, 14330.000
642.060, 14550.000
643.366, 14880.000
644.672, 15130.000
645.977, 15940.000
647.283, 16690.000
648.588, 17460.000
649.892, 18630.000
651.197, 19650.000
652.502, 19990.000
653.806, 20090.000
655.110, 19680.000
656.414, 19430.000
657.717, 19140.000
659.021, 19460.000
660.324, 20180.000
661.627, 21100.000
662.930, 22860.000
664.232, 25100.000
665.534, 28570.000
666.837, 34280.000
668.138, 41530.000
669.440, 52600.000
670.742, 62860.000
672.043, 65540.000
673.344, 65540.000
674.645, 62100.000
675.946, 51370.000
677.246, 41590.000
678.546, 34120.000
679.846, 28320.000
681.146, 24680.000
682.446, 22150.000
683.745, 20430.000
685.045, 19360.000
686.344, 18520.000
687.642, 17700.000
688.941, 17520.000
690.239, 16960.000
691.538, 16780.000
692.836, 16260.000
694.133, 15950.000
695.431, 15600.000
696.728, 15200.000
698.025, 15070.000
699.322, 14900.000
700.619, 14640.000
701.916, 14670.000
703.212, 14420.000
704.508, 14450.000
705.804, 14340.000
707.100, 14390.000
708.395, 14320.000
709.690, 14290.000
710.985, 14240.000
712.280, 14140.000
713.575, 14090.000
714.869, 14050.000
716.164, 14080.000
717.458, 13980.000
718.751, 13860.000
720.045, 13950.000
721.338, 13990.000
722.632, 13920.000
723.925, 13960.000
725.217, 13820.000
726.510, 13990.000
727.802, 13970.000
729.095, 13830.000
730.386, 13950.000
731.678, 13820.000
732.970, 14010.000
734.261, 14040.000
735.552, 14040.000
736.843, 14170.000
738.134, 14310.000
739.424, 14360.000
740.715, 14530.000
742.005, 14320.000
743.295, 14360.000
744.584, 14510.000
745.874, 14600.000
747.163, 14710.000
748.452, 14840.000
749.741, 15010.000
751.030, 15060.000
752.318, 14965.812
753.607, 14910.000
754.895, 14570.000
756.182, 14480.000
757.470, 14120.000
758.758, 14240.000
760.045, 14140.000
761.332, 14080.000
762.619, 14090.000
763.905, 14071.013
765.192, 14020.000
766.478, 14120.000
767.764, 14140.000
769.050, 14160.000
770.335, 14110.000
771.621, 14170.000
772.906, 14110.000
774.191, 14200.000
775.475, 14210.000
776.760, 14220.000
778.044, 14140.000
779.329, 14300.000
780.613, 14040.000
781.896, 14030.000
783.180, 14410.000
784.463, 14190.000
785.746, 14340.000
787.029, 14230.000
788.312, 14350.000
789.594, 14350.000
790.877, 14290.000
792.159, 14480.000
793.441, 14490.000
794.722, 14420.000
796.004, 14430.000
797.285, 14310.000
798.566, 14470.000
799.847, 14390.000
801.128, 14480.000
802.408, 14500.000
803.689, 14520.000
804.969, 14590.000
806.249, 14480.000
807.528, 14570.000
808.808, 14580.000
810.087, 14390.000
811.366, 14540.000
812.645, 14490.000
813.923, 14590.000
815.202, 14530.000
816.480, 14630.000
817.758, 14700.000
819.036, 14540.000
820.314, 14630.000
821.591, 14690.000
822.868, 14510.000
824.145, 14750.000
825.422, 14660.000
826.699, 14680.000
827.975, 14830.000
829.251, 14610.000
830.527, 14810.000
831.803, 14830.000
833.079, 14750.000
834.354, 14790.000
835.629, 14720.000
836.904, 14820.000
838.179, 14820.000
839.454, 14790.000
840.728, 14840.000
842.002, 14930.000
843.276, 14830.000
844.550, 14880.000
845.824, 15020.000
847.097, 15120.000
848.370, 15090.000
849.643, 15120.000
850.916, 15138.764
852.188, 15080.000
853.461, 15170.000
854.733, 15100.000
856.005, 15160.000
857.277, 15170.000
858.548, 15232.140
859.820, 15248.841
861.091, 15255.627
862.362, 15280.000
863.633, 15230.000
864.903, 15220.000
866.173, 15150.000
867.444, 15167.146
868.713, 15370.000
869.983, 15200.000
871.253, 15370.000
872.522, 15420.000
873.791, 15377.357
875.060, 15377.660
876.329, 15430.000
877.597, 15290.000
878.866, 15420.000
880.134, 15550.000
881.402, 15370.000
882.670, 15550.000
883.937, 15470.000
885.204, 15530.000
886.472, 15630.000
887.739, 15550.000
889.005, 15570.000
890.272, 15750.000
891.538, 15700.000
892.804, 15680.000
894.070, 15850.000
895.336, 15700.000
896.601, 15750.000
897.867, 16060.000
899.132, 16360.000
900.397, 15960.000
901.662, 15970.000
902.926, 16110.000
904.190, 16140.000
905.455, 16140.000
906.718, 16266.068
907.982, 16240.000
909.246, 16420.000
910.509, 16520.000
911.772, 16540.000
913.035, 16550.000
914.298, 16700.000
915.560, 16770.000
916.823, 16950.000
918.085, 17050.000
919.347, 17480.000
920.608, 17890.000
921.870, 18170.000
923.131, 18870.000
924.392, 19910.000
925.653, 21130.000
926.914, 22810.000
928.175, 23840.000
929.435, 24620.000
930.695, 23940.000
931.955, 22880.000
933.215, 21150.000
934.474, 20140.000
935.734, 19350.000
936.993, 18830.000
938.252, 18460.000
939.511, 18420.000
940.769, 18560.000
942.027, 18690.000
943.286, 19110.000
944.544, 19520.000
945.801, 19630.000
947.059, 19540.000
948.316, 18640.000
949.573, 18370.000
950.830, 18070.000
952.087, 17680.000
953.344, 17420.000
954.600, 17300.000
955.856, 17190.000
957.112, 17240.000
958.368, 17170.000
959.623, 17090.000
960.879, 17000.000
962.134, 17016.867
963.389, 17070.000
964.644, 16970.000
965.898, 17018.713
967.153, 17010.000
968.407, 17030.000
969.661, 16980.000
970.915, 16990.000
972.168, 17150.000
973.422, 17190.000
974.675, 17090.000
975.928, 17110.000
977.181, 17040.000
978.433, 16930.000
979.686, 17210.000
980.938, 17240.000
982.190, 17120.000
983.442, 17180.000
984.693, 17220.000
985.945, 17260.000
987.196, 17250.000
988.447, 17390.000
989.698, 17354.785
990.949, 17430.000
992.199, 17370.000
993.449, 17390.000
994.699, 17430.000
995.949, 17480.000
997.199, 17490.000
998.448, 17560.000
999.697, 17650.000
1000.947, 17670.000
1002.195, 17690.000
1003.444, 17771.566
1004.693, 17890.000
1005.941, 17870.000
1007.189, 17850.000
1008.437, 17820.000
1009.684, 18140.000
1010.932, 18030.000
1012.179, 18150.000
1013.426, 18150.000
1014.673, 18240.000
1015.920, 18370.000
1017.166, 18503.854
1018.413, 18850.000
1019.659, 18890.000
1020.905, 19180.000
1022.151, 19420.000
1023.396, 20120.000
1024.641, 20650.000
1025.887, 21210.000
1027.132, 22140.000
1028.376, 21970.000
1029.621, 21690.000
1030.865, 20780.000
1032.109, 20370.000
1033.353, 19680.000
1034.597, 19560.000
1035.841, 19330.000
1037.084, 19540.000
1038.327, 19380.000
1039.570, 19360.000
1040.813, 19470.000
1042.056, 19770.000
1043.298, 19870.000
1044.540, 20000.000
1045.782, 20420.000
1047.024, 20640.000
1048.266, 21480.000
1049.507, 22270.000
1050.748, 23780.000
1051.990, 25040.000
1053.230, 27630.000
1054.471, 31780.000
1055.711, 37080.000
1056.952, 44030.000
1058.192, 48610.000
1059.432, 49630.000
1060.671, 45030.000
1061.911, 38110.000
1063.150, 32480.000
1064.389, 28740.000
1065.628, 26100.000
1066.867, 24640.000
1068.105, 24010.000
1069.344, 23190.000
1070.582, 22510.000
1071.820, 21640.000
1073.058, 21170.000
1074.295, 20680.000
1075.532, 20380.000
1076.770, 20110.000
1078.007, 20100.000
1079.243, 19970.000
1080.480, 20140.000
1081.716, 20370.000
1082.953, 21360.000
1084.189, 21103.688
1085.424, 20986.406
1086.660, 20980.000
1087.895, 20080.000
1089.131, 19750.000
1090.366, 19360.000
1091.601, 19440.000
1092.835, 19360.000
1094.070, 19300.000
1095.304, 19340.000
1096.538, 19120.000
1097.772, 19120.000
1099.005, 19140.000
1100.239, 19170.000
1101.472, 19060.000
1102.705, 19210.000
1103.938, 19140.000
1105.171, 19100.000
1106.404, 19290.000
1107.636, 19270.000
1108.868, 19130.000
1110.100, 19010.000
1111.332, 19300.000
1112.563, 19120.000
1113.795, 19230.000
1115.026, 19320.000
1116.257, 19350.729
1117.488, 19360.000
1118.718, 19540.000
1119.949, 19412.092
1121.179, 19426.191
1122.409, 19280.000
1123.639, 19270.000
1124.868, 19310.000
1126.098, 19180.000
1127.327, 19120.000
1128.556, 19350.000
1129.785, 19180.000
1131.014, 19340.000
1132.242, 19380.000
1133.470, 19260.000
1134.699, 19500.000
1135.927, 19300.000
1137.154, 19430.000
1138.382, 19520.000
1139.609, 19400.000
1140.836, 19490.000
1142.063, 19600.000
1143.290, 19580.000
1144.517, 19690.000
1145.743, 19560.000
1146.969, 19610.000
1148.195, 19700.000
1149.421, 19680.000
1150.647, 19880.000
1151.872, 19800.000
1153.097, 19950.000
1154.322, 19960.000
1155.547, 20220.000
1156.772, 20240.000
1157.996, 20420.000
1159.221, 20390.000
1160.445, 20420.000
1161.669, 20150.000
1162.892, 20170.000
1164.116, 20060.000
1165.339, 19910.000
1166.562, 20050.000
1167.785, 19930.000
1169.008, 20200.000
1170.231, 20010.000
1171.453, 20090.000
1172.675, 20010.000
1173.897, 20070.000
1175.119, 20100.000
1176.341, 20030.000
1177.562, 20090.000
1178.783, 20090.000
1180.004, 20220.000
1181.225, 20160.000
1182.446, 20170.000
1183.666, 20210.000
1184.887, 20120.000
1186.107, 20450.000
1187.327, 20210.000
1188.546, 20420.000
1189.766, 20360.000
1190.985, 20360.000
1192.204, 20240.000
1193.423, 20480.000
1194.642, 20380.000
1195.861, 20620.000
1197.079, 20490.000
1198.297, 20610.000
1199.515, 20440.000
1200.733, 20630.000
1201.951, 20600.000
1203.168, 20840.000
1204.385, 20630.000
1205.602, 20850.000
1206.819, 20720.000
1208.036, 21140.000
1209.253, 20850.000
1210.469, 20870.000
1211.685, 20990.000
1212.901, 20720.000
1214.117, 20910.000
1215.332, 21020.000
1216.548, 21050.000
1217.763, 21160.000
1218.978, 21177.594
1220.193, 21280.000
1221.407, 21190.000
1222.622, 21190.000
1223.836, 21140.000
1225.050, 21310.000
1226.264, 21180.000
1227.477, 21190.000
1228.691, 21410.000
1229.904, 21330.000
1231.117, 21240.000
1232.330, 21400.000
1233.543, 21310.000
1234.755, 21390.000
1235.968, 21510.000
1237.180, 21450.000
1238.392, 21600.000
1239.604, 21370.000
1240.815, 21650.000
1242.027, 21580.000
1243.238, 21560.000
1244.449, 21720.000
1245.660, 21670.000
1246.871, 21700.000
1248.081, 21600.000
1249.291, 21820.000
1250.501, 21660.000
1251.711, 21860.000
1252.921, 21670.000
1254.131, 21990.000
1255.340, 21850.000
1256.549, 22050.000
1257.758, 21920.000
1258.967, 21880.000
1260.175, 22240.000
1261.384, 22070.000
1262.592, 22280.000
1263.800, 22280.000
1265.008, 22110.000
1266.216, 22100.000
1267.423, 22280.000
1268.630, 22160.000
1269.838, 22170.000
1271.044, 22380.000
1272.251, 22080.000
1273.458, 22500.000
1274.664, 22180.000
1275.870, 22350.000
1277.076, 22540.000
1278.282, 22440.000
1279.488, 22350.000
1280.693, 22290.000
1281.898, 22500.000
1283.103, 22520.000
1284.308, 22400.000
1285.513, 22520.000
1286.717, 22310.000
1287.922, 22720.000
1289.126, 22400.000
1290.330, 22760.000
1291.534, 22730.000
1292.737, 22720.000
1293.940, 22610.000
1295.144, 22630.000
1296.347, 22910.000
1297.549, 22690.000
1298.752, 22890.000
1299.955, 22890.000
1301.157, 22800.000
1302.359, 23030.000
1303.561, 22980.000
1304.762, 23020.000
1305.964, 23120.000
1307.165, 23200.000
1308.366, 23010.000
1309.567, 23120.000
1310.768, 22980.000
1311.969, 23340.000
1313.169, 23200.000
1314.369, 23240.000
1315.569, 23200.000
1316.769, 23220.000
1317.969, 23260.000
1319.168, 23330.000
1320.368, 23290.000
1321.567, 23387.918
1322.766, 23470.000
1323.965, 23580.000
1325.163, 23480.000
1326.361, 23670.000
1327.560, 23590.000
1328.758, 23730.000
1329.955, 23850.000
1331.153, 23590.000
1332.351, 23780.000
1333.548, 23650.000
1334.745, 23960.000
1335.942, 23750.000
1337.139, 23810.000
1338.335, 24140.000
1339.531, 23990.000
1340.728, 23880.000
1341.923, 24140.000
1343.119, 24020.000
1344.315, 24400.000
1345.510, 24220.000
1346.706, 24280.000
1347.901, 24210.000
1349.095, 24330.000
1350.290, 24400.000
1351.485, 24490.000
1352.679, 24340.000
1353.873, 24750.000
1355.067, 24750.000
1356.261, 24490.000
1357.454, 24690.000
1358.648, 24770.000
1359.841, 24690.000
1361.034, 25010.000
1362.227, 24950.000
1363.420, 24920.000
1364.612, 24900.000
1365.804, 24810.000
1366.996, 25090.000
1368.188, 25190.000
1369.380, 25180.000
1370.572, 24980.000
1371.763, 25390.000
1372.954, 25180.000
1374.145, 25330.000
1375.336, 25170.000
1376.527, 25490.000
1377.717, 25430.000
1378.907, 25330.000
1380.098, 25580.000
1381.287, 25640.000
1382.477, 25450.000
1383.667, 25780.000
1384.856, 25730.000
1386.045, 25830.000
1387.234, 25950.000
1388.423, 25820.000
1389.612, 25910.000
1390.800, 26060.000
1391.988, 25900.000
1393.176, 25880.000
1394.364, 26280.000
1395.552, 26030.000
1396.740, 26340.000
1397.927, 26170.000
1399.114, 26120.000
1400.301, 26320.000
1401.488, 26310.000
1402.675, 26250.000
1403.861, 26480.000
1405.047, 26290.000
1406.233, 26470.000
1407.419, 26350.000
1408.605, 26410.000
1409.791, 26501.410
1410.976, 26480.000
1412.161, 26650.000
1413.346, 26860.000
1414.531, 26900.000
1415.715, 26770.000
1416.900, 26990.000
1418.084, 26830.000
1419.268, 26890.000
1420.452, 26980.000
1421.636, 26900.000
1422.819, 27310.000
1424.003, 27070.000
1425.186, 27180.000
1426.369, 27500.000
1427.552, 27100.000
1428.734, 27510.000
1429.917, 27630.000
1431.099, 27680.000
1432.281, 27800.000
1433.463, 27840.000
1434.645, 27760.000
1435.826, 27860.000
1437.008, 27960.000
1438.189, 27880.000
1439.370, 28140.000
1440.551, 27860.000
1441.731, 28230.000
1442.912, 27980.000
1444.092, 28320.000
1445.272, 28400.000
1446.452, 28240.000
1447.632, 28230.000
1448.811, 28480.000
1449.991, 28310.000
1451.170, 28600.000
1452.349, 28800.000
1453.528, 28700.000
1454.706, 28700.000
1455.885, 28780.000
1457.063, 28810.000
1458.241, 29180.000
1459.419, 28790.000
1460.597, 28990.000
1461.775, 29230.000
1462.952, 28950.000
1464.129, 29420.000
1465.306, 29270.000
1466.483, 29460.000
1467.660, 29070.000
1468.836, 29560.000
1470.012, 29430.000
1471.189, 29740.000
1472.365, 29610.000
1473.540, 29550.000
1474.716, 29710.000
1475.891, 29720.000
1477.067, 29850.000
1478.242, 29830.000
1479.416, 29970.000
1480.591, 29930.000
1481.766, 29770.000
1482.940, 29870.000
1484.114, 30010.000
1485.288, 30050.000
1486.462, 29730.000
1487.635, 30460.000
1488.809, 30070.000
1489.982, 30180.000
1491.155, 30390.000
1492.328, 30280.000
1493.501, 30430.000
1494.673, 30420.000
1495.846, 30503.979
1497.018, 30470.000
1498.190, 30640.000
1499.362, 30650.000
1500.533, 30560.000
1501.705, 30740.000
1502.876, 30640.000
1504.047, 30665.760
1505.218, 30870.000
1506.389, 30680.000
1507.560, 30800.000
1508.730, 30880.000
1509.900, 31040.000
1511.070, 30950.000
1512.240, 30860.000
1513.410, 31170.000
1514.579, 31130.000
1515.749, 31240.000
1516.918, 31390.000
1518.087, 31270.000
1519.255, 31410.000
1520.424, 31410.000
1521.592, 31460.000
1522.761, 31460.000
1523.929, 31530.000
##END=



