##NAMES=Trilithionite
##RRUFFID=R040105
##IDEAL CHEMISTRY=KLi_1.5_Al_1.5_(Si_3_Al)O_10_F_2_
##LOCALITY=Brown Derby mine, Ohio City, Gunnison County, Colorado, USA
##OWNER=RRUFF
##SOURCE=University of Arizona Mineral Museum
##DESCRIPTION=Purple hexagonal tablet
##STATUS=The identification of this mineral has been confirmed by X-ray diffraction and chemical analysis
##URL=rruff.info/R040105
##MEASURED CHEMISTRY=(K_0.82_Li_0.14_Na_0.04_)(Li_0.53_Al_0.42_Mn_0.05_)_3_(Si_0.84_Al_0.17_)_4_O_10_((OH)_0.59_F_0.41_)_2_
##PIN_ID=L01837
##ORIENTATION=Laser parallel to -b* (0 -1 0). Fiducial mark perpendicular to laser is parallel to c [0 0 1]
139.0430, 16925.00
140.2710, 17121.00
141.5000, 17199.00
142.7280, 17134.00
143.9560, 17094.00
145.1840, 17251.00
146.4120, 17400.00
147.6390, 17374.00
148.8670, 17369.00
150.0940, 17574.00
151.3210, 17469.00
152.5490, 17630.00
153.7750, 17647.00
155.0020, 17927.00
156.2290, 17887.00
157.4550, 17947.00
158.6810, 18166.00
159.9080, 18227.00
161.1340, 18230.00
162.3590, 18396.00
163.5850, 18728.00
164.8110, 18880.00
166.0360, 19213.00
167.2610, 19345.00
168.4860, 19564.00
169.7110, 19970.00
170.9360, 20302.00
172.1610, 20821.00
173.3850, 21059.00
174.6100, 21771.00
175.8340, 22355.00
177.0580, 22627.00
178.2820, 23394.00
179.5050, 23900.00
180.7290, 24055.00
181.9520, 24591.00
183.1760, 24565.00
184.3990, 24663.00
185.6220, 24381.00
186.8450, 24403.00
188.0670, 24078.00
189.2900, 23495.00
190.5120, 23172.00
191.7340, 23064.00
192.9560, 22765.00
194.1780, 22480.00
195.4000, 22156.00
196.6220, 22111.00
197.8430, 22080.00
199.0640, 21872.00
200.2860, 21816.00
201.5070, 21730.00
202.7270, 21718.00
203.9480, 21552.00
205.1690, 21485.00
206.3890, 21303.00
207.6090, 21308.00
208.8290, 21254.00
210.0490, 21097.00
211.2690, 21094.00
212.4890, 21164.00
213.7080, 21295.00
214.9280, 21539.00
216.1470, 21314.00
217.3660, 21459.00
218.5850, 21669.00
219.8030, 21533.00
221.0220, 21725.00
222.2400, 21566.00
223.4590, 21910.00
224.6770, 21792.00
225.8950, 22022.00
227.1120, 22004.00
228.3300, 22350.00
229.5480, 22584.00
230.7650, 22656.00
231.9820, 22863.00
233.1990, 23032.00
234.4160, 23115.00
235.6330, 23429.00
236.8490, 23370.00
238.0660, 23724.00
239.2820, 23791.00
240.4980, 24038.00
241.7140, 24200.00
242.9300, 24343.32
244.1460, 24807.00
245.3610, 24659.00
246.5770, 24771.00
247.7920, 24921.00
249.0070, 24768.00
250.2220, 25197.00
251.4370, 25141.00
252.6510, 25406.00
253.8660, 25370.00
255.0800, 25446.00
256.2940, 25608.00
257.5080, 25608.00
258.7220, 25696.00
259.9360, 26138.00
261.1490, 25967.00
262.3630, 25966.00
263.5760, 25930.00
264.7890, 25717.00
266.0020, 25430.00
267.2150, 25251.00
268.4270, 25104.00
269.6400, 24607.00
270.8520, 24350.00
272.0640, 23993.00
273.2760, 23556.00
274.4880, 23456.00
275.7000, 22896.00
276.9120, 22990.00
278.1230, 22616.00
279.3340, 22310.00
280.5450, 22113.00
281.7560, 22383.00
282.9670, 22100.00
284.1780, 22137.00
285.3880, 22130.00
286.5980, 21774.00
287.8090, 21781.00
289.0190, 21813.00
290.2290, 21550.00
291.4380, 21683.00
292.6480, 21662.00
293.8570, 21761.00
295.0670, 21813.00
296.2760, 21754.00
297.4850, 21834.00
298.6930, 21762.00
299.9020, 21876.00
301.1110, 21940.00
302.3190, 21722.00
303.5270, 21876.00
304.7350, 21704.00
305.9430, 21670.00
307.1510, 21745.00
308.3580, 21475.00
309.5660, 21914.00
310.7730, 21616.00
311.9800, 21886.00
313.1870, 21559.00
314.3940, 21806.00
315.6010, 21808.00
316.8070, 21875.00
318.0130, 21831.00
319.2200, 21855.90
320.4260, 21857.00
321.6310, 21854.00
322.8370, 21911.00
324.0430, 21910.00
325.2480, 21828.00
326.4540, 21721.00
327.6590, 21827.00
328.8640, 21862.00
330.0680, 21827.00
331.2730, 21891.00
332.4780, 22041.00
333.6820, 21874.00
334.8860, 22086.00
336.0900, 21942.00
337.2940, 22064.00
338.4980, 22011.00
339.7010, 22122.00
340.9050, 21977.00
342.1080, 22004.00
343.3110, 22148.00
344.5140, 22107.00
345.7170, 22143.00
346.9200, 22234.00
348.1220, 22077.00
349.3240, 22117.00
350.5270, 22128.00
351.7290, 22135.00
352.9310, 22233.00
354.1320, 22212.00
355.3340, 22251.00
356.5350, 22164.00
357.7370, 22486.00
358.9380, 22311.00
360.1390, 22190.00
361.3400, 22570.00
362.5400, 22448.00
363.7410, 22486.00
364.9410, 22601.00
366.1410, 22595.00
367.3410, 22509.00
368.5410, 22542.00
369.7410, 22682.00
370.9400, 22734.00
372.1400, 22899.00
373.3390, 22918.00
374.5380, 22964.33
375.7370, 22874.00
376.9360, 22997.00
378.1350, 23009.00
379.3330, 23031.00
380.5310, 23078.00
381.7300, 23115.00
382.9280, 23353.00
384.1260, 23414.00
385.3230, 23291.00
386.5210, 23126.00
387.7180, 23343.00
388.9160, 23441.00
390.1130, 23415.00
391.3100, 23578.00
392.5060, 23608.00
393.7030, 23521.00
394.9000, 23693.00
396.0960, 23796.00
397.2920, 23785.00
398.4880, 23745.00
399.6840, 23769.00
400.8800, 23743.00
402.0750, 23937.00
403.2710, 23932.00
404.4660, 24075.00
405.6610, 24027.00
406.8560, 23973.00
408.0510, 24219.00
409.2450, 24051.00
410.4400, 23969.00
411.6340, 24082.00
412.8280, 24080.00
414.0220, 24099.00
415.2160, 24064.00
416.4100, 23940.00
417.6030, 23859.00
418.7970, 23941.00
419.9900, 23951.00
421.1830, 24048.00
422.3760, 23975.00
423.5690, 23984.00
424.7610, 24143.00
425.9540, 23911.00
427.1460, 24182.00
428.3380, 23964.00
429.5300, 23993.00
430.7220, 24116.00
431.9140, 24071.00
433.1050, 24176.00
434.2970, 24178.00
435.4880, 24344.00
436.6790, 24287.00
437.8700, 24318.00
439.0610, 24373.00
440.2510, 24381.00
441.4420, 24497.00
442.6320, 24487.48
443.8220, 24524.18
445.0120, 24526.00
446.2020, 24575.00
447.3910, 24626.00
448.5810, 24693.68
449.7700, 24757.00
450.9600, 24735.00
452.1490, 24885.00
453.3370, 24833.00
454.5260, 24853.00
455.7150, 24925.00
456.9030, 24735.00
458.0910, 24853.00
459.2800, 24791.00
460.4670, 25054.00
461.6550, 24976.00
462.8430, 24782.00
464.0300, 24971.00
465.2180, 24903.00
466.4050, 25050.00
467.5920, 25091.00
468.7790, 25045.00
469.9650, 25039.00
471.1520, 25091.03
472.3380, 25223.00
473.5250, 25181.00
474.7110, 25404.00
475.8970, 25441.00
477.0820, 25492.00
478.2680, 25395.00
479.4540, 25401.00
480.6390, 25452.00
481.8240, 25387.00
483.0090, 25277.00
484.1940, 25490.00
485.3780, 25393.00
486.5630, 25425.00
487.7470, 25611.00
488.9320, 25240.00
490.1160, 25446.00
491.3000, 25498.00
492.4830, 25384.00
493.6670, 25501.00
494.8500, 25646.00
496.0340, 25793.00
497.2170, 26349.00
498.4000, 26411.00
499.5820, 26255.47
500.7650, 25691.00
501.9480, 25756.00
503.1300, 25826.00
504.3120, 25788.00
505.4940, 25632.00
506.6760, 25729.00
507.8580, 25526.00
509.0390, 25668.00
510.2210, 25873.00
511.4020, 25823.00
512.5830, 26017.00
513.7640, 26056.00
514.9450, 25953.00
516.1250, 26070.00
517.3060, 26158.00
518.4860, 26225.00
519.6660, 26141.00
520.8460, 26127.00
522.0260, 26374.00
523.2060, 26053.00
524.3850, 26305.00
525.5650, 26420.00
526.7440, 26395.00
527.9230, 26531.00
529.1020, 26461.00
530.2810, 26643.00
531.4590, 26696.00
532.6380, 26534.00
533.8160, 26530.00
534.9940, 26798.00
536.1720, 26783.00
537.3500, 26803.00
538.5270, 26903.51
539.7050, 26900.00
540.8820, 26929.00
542.0590, 27037.00
543.2360, 26966.00
544.4130, 27136.00
545.5900, 27224.00
546.7660, 27360.00
547.9430, 27107.00
549.1190, 27369.00
550.2950, 27305.00
551.4710, 27508.00
552.6470, 27384.00
553.8220, 27544.00
554.9980, 27867.00
556.1730, 27911.00
557.3480, 27923.00
558.5230, 28413.00
559.6980, 28340.00
560.8730, 28247.00
562.0470, 28292.00
563.2220, 28525.00
564.3960, 28532.00
565.5700, 28755.00
566.7440, 28518.00
567.9170, 28472.00
569.0910, 28776.00
570.2640, 28423.00
571.4380, 28408.00
572.6110, 28561.00
573.7840, 28293.00
574.9570, 28357.00
576.1290, 28082.00
577.3020, 28239.00
578.4740, 28221.00
579.6460, 28061.00
580.8180, 28250.00
581.9900, 28141.00
583.1620, 28073.00
584.3330, 28105.00
585.5040, 28133.00
586.6760, 28073.00
587.8470, 28235.00
589.0180, 28127.00
590.1880, 27876.00
591.3590, 28224.00
592.5290, 28332.00
593.7000, 28347.00
594.8700, 28156.00
596.0400, 28265.00
597.2090, 28124.00
598.3790, 28534.00
599.5490, 28299.00
600.7180, 28435.00
601.8870, 28222.00
603.0560, 28620.00
604.2250, 28484.00
605.3940, 28769.00
606.5620, 28494.00
607.7300, 28571.00
608.8990, 28660.00
610.0670, 28661.00
611.2350, 28860.00
612.4020, 28895.54
613.5700, 29034.00
614.7370, 29021.00
615.9050, 28818.00
617.0720, 28766.00
618.2390, 28793.00
619.4060, 28919.00
620.5720, 28850.00
621.7390, 28971.00
622.9050, 29091.00
624.0710, 29022.00
625.2370, 29149.00
626.4030, 29150.64
627.5690, 29006.00
628.7340, 29223.00
629.9000, 29090.00
631.0650, 29182.00
632.2300, 29190.00
633.3950, 29279.00
634.5600, 29104.00
635.7240, 29449.00
636.8890, 29248.00
638.0530, 29392.00
639.2170, 29133.00
640.3810, 29447.00
641.5450, 29213.00
642.7080, 29571.00
643.8720, 29500.00
645.0350, 29624.00
646.1980, 29417.00
647.3610, 29665.00
648.5240, 29794.00
649.6870, 29510.00
650.8490, 29827.00
652.0120, 29765.00
653.1740, 29641.00
654.3360, 30042.00
655.4980, 29913.00
656.6600, 29968.00
657.8210, 30222.00
658.9830, 30013.00
660.1440, 30285.00
661.3050, 30389.00
662.4660, 30451.00
663.6270, 30617.00
664.7870, 30603.01
665.9480, 30507.00
667.1080, 30664.00
668.2680, 30543.00
669.4280, 30690.00
670.5880, 30743.00
671.7480, 30797.00
672.9070, 30859.00
674.0670, 30987.00
675.2260, 31067.00
676.3850, 31029.00
677.5440, 31068.00
678.7030, 31203.00
679.8610, 31202.00
681.0200, 31357.00
682.1780, 31447.00
683.3360, 31893.00
684.4940, 31921.00
685.6520, 32023.00
686.8090, 32329.00
687.9670, 32383.00
689.1240, 32693.00
690.2810, 32803.00
691.4380, 33137.00
692.5950, 33261.00
693.7520, 33846.00
694.9080, 34103.00
696.0650, 34660.00
697.2210, 35068.00
698.3770, 35735.87
699.5330, 36553.00
700.6880, 37285.00
701.8440, 38211.00
702.9990, 39207.00
704.1550, 40115.00
705.3100, 41467.00
706.4650, 42399.00
707.6190, 43421.00
708.7740, 44513.00
709.9290, 44683.00
711.0830, 45116.00
712.2370, 44454.00
713.3910, 43892.00
714.5450, 42840.00
715.6980, 41233.00
716.8520, 39900.00
718.0050, 38557.00
719.1580, 37630.00
720.3110, 36550.00
721.4640, 35582.00
722.6170, 35111.00
723.7700, 34633.00
724.9220, 34142.00
726.0740, 33814.58
727.2260, 33695.00
728.3780, 33185.00
729.5300, 33175.00
730.6810, 32889.00
731.8330, 33007.00
732.9840, 32516.00
734.1350, 32827.00
735.2860, 32346.00
736.4370, 32307.00
737.5880, 32387.00
738.7380, 32717.00
739.8880, 32394.00
741.0390, 32663.00
742.1890, 32530.00
743.3380, 32532.00
744.4880, 32475.00
745.6380, 32437.00
746.7870, 32393.00
747.9360, 32711.00
749.0850, 32558.00
750.2340, 32648.00
751.3830, 32488.00
752.5310, 32614.00
753.6800, 32594.03
754.8280, 32609.00
755.9760, 32633.00
757.1240, 32853.00
758.2720, 32886.00
759.4190, 32697.00
760.5670, 32595.00
761.7140, 32920.00
762.8610, 32751.00
764.0080, 32719.00
765.1550, 32504.00
766.3020, 32734.00
767.4480, 32697.00
768.5950, 32549.00
769.7410, 32739.00
770.8870, 32531.00
772.0330, 32719.00
773.1780, 32545.00
774.3240, 32804.00
775.4690, 32913.00
776.6140, 32587.00
777.7590, 32713.00
778.9040, 32698.00
780.0490, 32841.00
781.1940, 32851.00
782.3380, 32990.00
783.4820, 33011.86
784.6260, 33034.00
785.7700, 33082.00
786.9140, 33019.00
788.0580, 33082.00
789.2010, 33079.45
790.3450, 33041.00
791.4880, 33088.00
792.6310, 33086.00
793.7730, 33044.00
794.9160, 32955.00
796.0590, 33242.00
797.2010, 33244.00
798.3430, 33088.00
799.4850, 33014.00
800.6270, 33237.00
801.7690, 32975.00
802.9100, 33386.00
804.0520, 33500.00
805.1930, 33329.00
806.3340, 33310.00
807.4750, 33239.00
808.6160, 33167.34
809.7560, 33493.00
810.8970, 33225.00
812.0370, 33248.00
813.1770, 33607.00
814.3170, 33428.00
815.4570, 33505.00
816.5960, 33533.00
817.7360, 33618.00
818.8750, 33665.76
820.0140, 33700.00
821.1530, 33804.00
822.2920, 33688.00
823.4310, 33803.00
824.5690, 33703.00
825.7070, 33735.00
826.8460, 33917.00
827.9840, 33639.00
829.1220, 33840.00
830.2590, 33783.00
831.3970, 33831.00
832.5340, 33998.00
833.6710, 34032.00
834.8080, 33934.00
835.9450, 33825.00
837.0820, 34064.00
838.2190, 34086.00
839.3550, 34113.00
840.4910, 34178.00
841.6270, 34095.00
842.7630, 34350.00
843.8990, 34276.00
845.0350, 34383.00
846.1700, 34624.00
847.3060, 34432.00
848.4410, 34370.00
849.5760, 34672.00
850.7100, 34392.00
851.8450, 34645.00
852.9800, 34663.00
854.1140, 34642.00
855.2480, 34517.00
856.3820, 34377.00
857.5160, 34663.00
858.6500, 34461.00
859.7830, 34835.00
860.9170, 34779.00
862.0500, 34848.00
863.1830, 34749.00
864.3160, 35052.00
865.4480, 35101.00
866.5810, 34896.00
867.7130, 35001.00
868.8460, 35285.00
869.9780, 35027.00
871.1100, 35303.00
872.2410, 35092.00
873.3730, 35358.00
874.5050, 35304.00
875.6360, 35477.00
876.7670, 35125.00
877.8980, 35261.00
879.0290, 35502.00
880.1590, 35408.00
881.2900, 35579.00
882.4200, 35558.00
883.5500, 35286.00
884.6800, 35456.00
885.8100, 35399.00
886.9400, 35691.00
888.0690, 35437.00
889.1990, 35553.00
890.3280, 35611.00
891.4570, 35805.00
892.5860, 35756.00
893.7140, 35658.00
894.8430, 35728.00
895.9710, 35715.00
897.1000, 35890.00
898.2280, 35828.00
899.3560, 35900.00
900.4830, 35781.00
901.6110, 35995.00
902.7380, 36071.00
903.8660, 36045.00
904.9930, 36264.00
906.1200, 36087.00
907.2460, 36116.00
908.3730, 36297.00
909.5000, 36238.00
910.6260, 36154.00
911.7520, 36326.00
912.8780, 36476.00
914.0040, 36366.00
915.1290, 36529.00
916.2550, 36417.00
917.3800, 36550.00
918.5050, 36347.00
919.6300, 36332.00
920.7550, 36538.00
921.8800, 36636.00
923.0040, 36521.00
924.1290, 36696.00
925.2530, 36864.00
926.3770, 36695.00
927.5010, 36751.00
928.6250, 37170.00
929.7480, 36819.00
930.8720, 36909.00
931.9950, 37163.00
933.1180, 36908.00
934.2410, 37098.00
935.3640, 37228.00
936.4860, 36988.00
937.6090, 37067.00
938.7310, 37257.00
939.8530, 37147.00
940.9750, 37179.00
942.0970, 37395.00
943.2180, 37521.00
944.3400, 37665.00
945.4610, 37474.00
946.5820, 37398.00
947.7030, 37628.00
948.8240, 37896.00
949.9450, 37628.00
951.0650, 37827.00
952.1860, 37658.00
953.3060, 37687.00
954.4260, 37787.00
955.5460, 37874.00
956.6650, 38085.00
957.7850, 38137.94
958.9040, 37945.00
960.0230, 38207.00
961.1420, 38201.00
962.2610, 37989.00
963.3800, 38089.00
964.4990, 38113.00
965.6170, 38272.00
966.7350, 38130.00
967.8530, 38424.00
968.9710, 38264.00
970.0890, 38317.00
971.2070, 38452.00
972.3240, 38657.00
973.4410, 38591.00
974.5580, 38679.00
975.6750, 38477.00
976.7920, 38847.00
977.9090, 38603.00
979.0250, 38859.00
980.1410, 38997.00
981.2580, 38839.00
982.3740, 38994.00
983.4890, 39095.00
984.6050, 38842.00
985.7200, 39089.00
986.8360, 39271.00
987.9510, 39136.00
989.0660, 39284.00
990.1810, 39337.00
991.2950, 39194.00
992.4100, 39250.00
993.5240, 39327.00
994.6390, 39624.00
995.7530, 39601.00
996.8660, 39555.00
997.9800, 39855.00
999.0940, 39563.00
1000.207, 39608.00
1001.320, 39455.00
1002.433, 39365.00
1003.546, 39953.00
1004.659, 39802.00
1005.772, 39765.00
1006.884, 39914.00
1007.996, 39729.00
1009.108, 40007.00
1010.220, 39946.00
1011.332, 40124.00
1012.444, 40088.00
1013.555, 40069.00
1014.666, 40242.00
1015.777, 40424.00
1016.888, 40117.00
1017.999, 40217.00
1019.110, 40280.00
1020.220, 40242.00
1021.331, 40467.00
1022.441, 40215.00
1023.551, 40307.00
1024.661, 40521.00
1025.770, 40517.00
1026.880, 40400.00
1027.989, 40264.00
1029.098, 40644.00
1030.207, 40585.00
1031.316, 40645.00
1032.425, 40522.00
1033.533, 40786.00
1034.642, 40694.00
1035.750, 40516.00
1036.858, 40895.00
1037.966, 40817.00
1039.073, 41034.00
1040.181, 40914.00
1041.288, 41177.00
1042.396, 41080.00
1043.503, 40935.00
1044.610, 40969.00
1045.716, 40925.76
1046.823, 41083.00
1047.929, 41157.21
1049.036, 41375.00
1050.142, 41434.00
1051.248, 41547.00
1052.353, 41687.00
1053.459, 41632.00
1054.564, 41691.00
1055.670, 41676.00
1056.775, 41668.00
1057.880, 41827.00
1058.985, 42009.00
1060.089, 41728.00
1061.194, 42128.00
1062.298, 41841.00
1063.402, 42341.00
1064.506, 42183.00
1065.610, 42245.00
1066.713, 42268.00
1067.817, 42252.00
1068.920, 42384.00
1070.023, 42798.00
1071.126, 42740.00
1072.229, 42698.00
1073.332, 42429.00
1074.435, 42789.00
1075.537, 42503.00
1076.639, 42813.00
1077.741, 43144.00
1078.843, 43078.00
1079.945, 43106.00
1081.046, 43192.00
1082.148, 43120.00
1083.249, 43257.61
1084.350, 43499.00
1085.451, 43444.00
1086.551, 43504.00
1087.652, 43542.75
1088.752, 43532.00
1089.853, 43625.00
1090.953, 43665.00
1092.053, 43582.00
1093.152, 43748.00
1094.252, 43739.00
1095.351, 43679.00
1096.451, 44104.00
1097.550, 44042.00
1098.649, 44121.00
1099.748, 44238.00
1100.846, 44021.00
1101.945, 44000.00
1103.043, 44435.00
1104.141, 44148.00
1105.239, 44472.00
1106.337, 44118.00
1107.434, 44522.00
1108.532, 44491.00
1109.629, 44702.00
1110.726, 44670.00
1111.823, 44784.04
1112.920, 44737.00
1114.017, 45031.00
1115.113, 45052.00
1116.210, 45302.00
1117.306, 45528.00
1118.402, 45430.00
1119.498, 45248.00
1120.593, 45512.00
1121.689, 45562.00
1122.784, 46031.00
1123.879, 45882.00
1124.974, 45605.00
1126.069, 46003.00
1127.164, 46206.00
1128.259, 45995.00
1129.353, 46156.00
1130.447, 46355.00
1131.541, 46008.00
1132.635, 46587.00
1133.729, 46290.00
1134.822, 46260.00
1135.916, 46468.00
1137.009, 46490.00
1138.102, 46104.00
1139.195, 45551.00
1140.288, 45425.00
1141.380, 45332.00
1142.473, 45253.00
1143.565, 45132.00
1144.657, 44962.00
1145.749, 44854.79
1146.841, 44764.00
1147.932, 44596.00
1149.024, 44486.00
1150.115, 44394.00
1151.206, 44540.00
1152.297, 44627.00
1153.388, 44620.62
1154.479, 44316.00
1155.569, 44661.00
1156.659, 44441.00
1157.750, 44390.00
1158.839, 44683.00
1159.929, 44505.00
1161.019, 44450.00
1162.108, 44427.00
1163.198, 44730.00
1164.287, 44551.00
1165.376, 44654.00
1166.465, 44715.00
1167.553, 44634.00
1168.642, 44952.00
1169.730, 44947.00
1170.818, 44943.00
1171.906, 44998.00
1172.994, 44791.00
1174.082, 45085.00
1175.170, 44859.00
1176.257, 44772.00
1177.344, 44913.00
1178.431, 45027.00
1179.518, 45016.00
1180.605, 45091.68
1181.691, 45095.91
1182.778, 45121.00
1183.864, 45141.00
1184.950, 45198.92
1186.036, 45287.00
1187.122, 45334.00
1188.207, 45425.39
1189.292, 45496.55
1190.378, 45592.00
1191.463, 45596.00
1192.548, 45623.00
1193.632, 45620.00
1194.717, 45622.33
1195.801, 45668.33
1196.886, 45586.00
1197.970, 45688.00
1199.054, 45619.00
1200.137, 45472.00
1201.221, 45707.00
1202.305, 45877.00
1203.388, 45863.00
1204.471, 45801.00
1205.554, 45733.00
1206.637, 45684.00
1207.719, 45960.00
1208.802, 45845.00
1209.884, 46033.00
1210.966, 46075.00
1212.048, 46284.00
1213.130, 46203.00
1214.212, 46242.69
1215.293, 46132.00
1216.374, 46133.00
1217.456, 46228.00
1218.536, 46092.00
1219.617, 46295.00
1220.698, 46444.00
1221.778, 46333.00
1222.859, 46561.00
1223.939, 46328.00
1225.019, 46628.00
1226.099, 46360.00
1227.178, 46997.00
1228.258, 46765.00
1229.337, 46707.00
1230.417, 46554.00
1231.496, 46786.00
1232.574, 46658.00
1233.653, 46836.00
1234.732, 46761.00
1235.810, 46865.00
1236.888, 46755.00
1237.966, 47087.00
1239.044, 47051.00
1240.122, 46996.00
1241.199, 47218.00
1242.277, 47082.00
1243.354, 46930.00
1244.431, 47191.00
1245.508, 47029.00
1246.585, 47492.00
1247.661, 47355.00
1248.738, 47377.00
1249.814, 47404.00
1250.890, 47220.00
1251.966, 47197.00
1253.042, 47404.00
1254.117, 47309.66
1255.193, 47362.61
1256.268, 47404.00
1257.343, 47328.00
1258.418, 47416.00
1259.493, 47338.00
1260.567, 47610.00
1261.642, 47474.00
1262.716, 47661.00
1263.790, 47857.00
1264.864, 47717.00
1265.938, 47497.00
1267.011, 47825.00
1268.085, 47711.00
1269.158, 47916.00
1270.231, 47910.00
1271.304, 47682.00
1272.377, 48036.00
1273.450, 47888.00
1274.522, 48063.00
1275.594, 48097.00
1276.666, 48136.00
1277.738, 48058.00
1278.810, 48176.12
1279.882, 48468.00
1280.953, 48304.00
1282.025, 48376.00
1283.096, 48342.00
1284.167, 48122.00
1285.238, 48403.00
1286.308, 48204.00
1287.379, 48258.00
1288.449, 48528.00
1289.519, 48750.00
1290.589, 48738.00
1291.659, 48620.00
1292.729, 48798.00
1293.798, 48980.00
1294.868, 48649.00
1295.937, 48728.00
1297.006, 48600.00
1298.075, 48707.00
1299.143, 48835.00
1300.212, 48855.00
1301.280, 48992.00
1302.348, 48800.00
1303.416, 49109.00
1304.484, 49325.00
1305.552, 49047.00
1306.620, 49405.00
1307.687, 49805.00
1308.754, 49220.00
1309.821, 49387.00
1310.888, 49439.00
1311.955, 49437.00
1313.021, 49549.00
1314.088, 49527.00
1315.154, 49823.00
1316.220, 49687.00
1317.286, 49698.00
1318.352, 49698.00
1319.417, 49593.00
1320.483, 49599.29
1321.548, 49653.34
1322.613, 49573.00
1323.678, 49772.00
1324.743, 49874.00
1325.807, 49845.00
1326.872, 49835.00
1327.936, 49980.00
1329.000, 49846.00
1330.064, 50369.00
1331.128, 50193.00
1332.191, 50144.00
1333.255, 50200.00
1334.318, 49940.00
1335.381, 50325.00
1336.444, 50101.00
1337.507, 50220.00
1338.569, 50420.00
1339.632, 50287.00
1340.694, 50174.00
1341.756, 50519.00
1342.818, 50550.00
1343.880, 50494.00
1344.941, 50655.00
1346.003, 50466.00
1347.064, 50608.00
1348.125, 50674.00
1349.186, 50837.00
1350.247, 50906.00
1351.308, 50870.00
1352.368, 50803.00
1353.428, 50782.00
1354.489, 50819.00
1355.549, 50830.00
1356.608, 50929.00
1357.668, 51129.00
1358.727, 51140.20
1359.787, 51207.00
1360.846, 51229.00
1361.905, 51125.00
1362.964, 51059.00
1364.022, 51181.00
1365.081, 51195.00
1366.139, 51431.00
1367.197, 51506.34
1368.255, 51510.00
1369.313, 51689.00
1370.371, 51512.00
1371.428, 51415.00
1372.486, 51269.00
1373.543, 51642.00
1374.600, 51467.00
1375.657, 51309.00
1376.713, 51718.00
1377.770, 51704.00
1378.826, 51673.00
1379.882, 51961.00
1380.938, 51830.00
1381.994, 51857.00
1383.050, 51780.00
1384.106, 51814.00
1385.161, 51890.00
1386.216, 52026.00
1387.271, 52017.00
1388.326, 51857.00
1389.381, 51762.00
1390.435, 51813.41
1391.490, 51896.00
1392.544, 51982.00
1393.598, 52047.23
1394.652, 52145.54
1395.705, 52203.00
1396.759, 52272.00
1397.812, 52363.00
1398.866, 52297.00
1399.919, 52328.00
1400.972, 52236.00
1402.024, 52287.10
1403.077, 52623.00
1404.129, 52466.00
1405.181, 52552.00
1406.233, 52855.00
1407.285, 52651.00
1408.337, 52552.00
1409.389, 52717.00
1410.440, 52657.00
1411.491, 52596.00
1412.542, 52824.00
1413.593, 52708.11
1414.644, 52691.00
1415.695, 52704.00
1416.745, 52824.00
1417.795, 52894.00
1418.845, 52956.00
1419.895, 52963.00
1420.945, 53017.00
1421.995, 53057.00
1423.044, 53122.00
1424.093, 53101.00
1425.142, 53192.29
1426.191, 53287.00
1427.240, 53310.00
1428.289, 53438.00
1429.337, 53449.00
1430.385, 53460.00
1431.433, 53294.00
1432.481, 53606.00
1433.529, 53408.00
1434.577, 53683.00
1435.624, 53605.00
1436.672, 53688.00
1437.719, 53976.00
1438.766, 53901.00
1439.812, 53404.00
1440.859, 53782.00
1441.905, 53778.00
1442.952, 54028.00
1443.998, 54034.00
1445.044, 54066.00
1446.090, 54251.00
1447.135, 54146.00
1448.181, 54156.00
1449.226, 54304.00
1450.271, 54328.00
1451.316, 54335.00
1452.361, 54345.00
1453.405, 54470.00
1454.450, 54271.00
1455.494, 54511.00
1456.538, 54347.00
1457.582, 54387.00
1458.626, 54492.00
1459.670, 54448.00
1460.713, 54379.00
1461.757, 54764.00
1462.800, 54688.00
1463.843, 54553.00
1464.886, 54832.00
1465.928, 54694.65
1466.971, 54613.00
1468.013, 54750.00
1469.055, 54785.00
1470.097, 54952.00
1471.139, 54916.00
1472.181, 55060.00
1473.222, 54900.00
1474.263, 54951.00
1475.305, 54928.00
1476.346, 54969.00
1477.386, 55078.00
1478.427, 55044.44
1479.468, 55003.00
1480.508, 55125.00
1481.548, 55322.00
1482.588, 55536.00
1483.628, 55098.00
1484.668, 55597.00
1485.707, 54946.00
1486.747, 55075.00
1487.786, 55524.00
1488.825, 55500.00
1489.864, 55314.00
1490.902, 55562.00
1491.941, 55858.00
1492.979, 55754.34
1494.017, 56160.00
1495.055, 55770.00
1496.093, 55782.00
1497.131, 55762.00
1498.168, 55831.00
1499.206, 55930.00
1500.243, 55956.85
1501.280, 56123.00
1502.317, 56007.00
1503.354, 56121.00
1504.390, 55991.00
1505.426, 56166.00
1506.463, 56045.00
1507.499, 56103.00
1508.535, 56313.00
1509.570, 56148.00
1510.606, 56199.00
1511.641, 56495.00
1512.676, 56099.00
1513.711, 56507.00
1514.746, 56451.00
1515.781, 56365.00
1516.816, 56545.00
1517.850, 56434.00
1518.884, 56803.00
1519.918, 56616.00
1520.952, 56443.00
1521.986, 56550.00
1523.019, 56403.00
1524.053, 56629.00
1525.086, 56443.00
1526.119, 56873.00
1527.152, 56849.00
1528.185, 56944.00
1529.217, 56971.00
1530.250, 57189.00
1531.282, 57062.00
1532.314, 56936.00
1533.346, 57454.00
1534.377, 57273.00
1535.409, 57053.00
1536.440, 56918.00
1537.472, 57302.00
1538.503, 57304.00
1539.534, 57231.00
1540.564, 57320.00
1541.595, 57438.00
1542.625, 57417.00
1543.656, 57504.52
1544.686, 57484.00
1545.716, 57597.00
1546.745, 57488.00
1547.775, 57540.00
1548.804, 57610.00
1549.834, 57693.00
1550.863, 57723.69
1551.892, 57698.00
1552.920, 57825.00
1553.949, 57873.00
1554.977, 57985.00
1556.006, 58070.00
1557.034, 57873.00
1558.062, 58020.00
1559.089, 58062.00
1560.117, 58189.00
1561.144, 58254.52
1562.172, 58322.00
1563.199, 58366.00
1564.226, 58133.00
1565.252, 58124.00
1566.279, 58273.00
1567.305, 58509.00
1568.332, 58481.00
1569.358, 58221.00
1570.384, 58257.00
1571.409, 58584.00
1572.435, 58640.00
##END=



