##NAMES=Trilithionite
##RRUFFID=R040105
##IDEAL CHEMISTRY=KLi_1.5_Al_1.5_(Si_3_Al)O_10_F_2_
##LOCALITY=Brown Derby mine, Ohio City, Gunnison County, Colorado, USA
##OWNER=RRUFF
##SOURCE=University of Arizona Mineral Museum
##DESCRIPTION=Purple hexagonal tablet
##STATUS=The identification of this mineral has been confirmed by X-ray diffraction and chemical analysis
##URL=rruff.info/R040105
##MEASURED CHEMISTRY=(K_0.82_Li_0.14_Na_0.04_)(Li_0.53_Al_0.42_Mn_0.05_)_3_(Si_0.84_Al_0.17_)_4_O_10_((OH)_0.59_F_0.41_)_2_
##PIN_ID=L01837
##ORIENTATION=Laser parallel to -b* (0 -1 0). Fiducial mark perpendicular to laser is parallel to c [0 0 1]
139.0430, 19340.00
140.2710, 19532.00
141.5000, 19413.00
142.7280, 19325.00
143.9560, 19486.00
145.1840, 19489.00
146.4120, 19650.00
147.6390, 19714.00
148.8670, 19696.00
150.0940, 19981.00
151.3210, 19951.00
152.5490, 19938.00
153.7750, 20201.00
155.0020, 20005.00
156.2290, 20165.00
157.4550, 20225.00
158.6810, 20336.00
159.9080, 20454.00
161.1340, 20549.00
162.3590, 20945.00
163.5850, 20908.00
164.8110, 20941.00
166.0360, 21149.00
167.2610, 21724.00
168.4860, 21423.00
169.7110, 22008.00
170.9360, 22080.00
172.1610, 22513.00
173.3850, 22981.00
174.6100, 23256.00
175.8340, 23568.62
177.0580, 23972.00
178.2820, 24047.00
179.5050, 24259.00
180.7290, 24522.00
181.9520, 24545.00
183.1760, 24515.00
184.3990, 24559.00
185.6220, 24324.00
186.8450, 24456.00
188.0670, 24134.00
189.2900, 23896.00
190.5120, 23710.00
191.7340, 23780.00
192.9560, 23380.00
194.1780, 23196.00
195.4000, 23262.00
196.6220, 23041.00
197.8430, 23011.00
199.0640, 23176.00
200.2860, 23068.00
201.5070, 22839.00
202.7270, 23018.00
203.9480, 22922.00
205.1690, 23009.00
206.3890, 22740.00
207.6090, 22979.00
208.8290, 22769.00
210.0490, 22851.00
211.2690, 22911.00
212.4890, 22860.00
213.7080, 22996.00
214.9280, 22709.00
216.1470, 23200.00
217.3660, 23361.00
218.5850, 23132.00
219.8030, 23340.00
221.0220, 23407.00
222.2400, 23483.00
223.4590, 23529.00
224.6770, 23531.00
225.8950, 23725.00
227.1120, 23609.00
228.3300, 23987.00
229.5480, 24190.00
230.7650, 24325.00
231.9820, 24401.00
233.1990, 24580.54
234.4160, 24622.00
235.6330, 24799.00
236.8490, 24969.00
238.0660, 24946.00
239.2820, 25187.00
240.4980, 25322.00
241.7140, 25242.00
242.9300, 25503.00
244.1460, 25541.00
245.3610, 25679.00
246.5770, 25749.00
247.7920, 25777.00
249.0070, 26032.00
250.2220, 26163.00
251.4370, 26081.00
252.6510, 26342.00
253.8660, 26447.00
255.0800, 26548.00
256.2940, 26586.00
257.5080, 26528.00
258.7220, 26721.00
259.9360, 26722.00
261.1490, 26854.00
262.3630, 26555.00
263.5760, 26734.00
264.7890, 26588.00
266.0020, 26193.00
267.2150, 26182.00
268.4270, 25977.00
269.6400, 25895.00
270.8520, 25414.00
272.0640, 25244.00
273.2760, 24980.00
274.4880, 24948.00
275.7000, 24877.00
276.9120, 24714.00
278.1230, 24778.00
279.3340, 24401.00
280.5450, 24341.00
281.7560, 24358.00
282.9670, 24354.00
284.1780, 24034.00
285.3880, 24084.00
286.5980, 24382.00
287.8090, 24047.00
289.0190, 24272.00
290.2290, 24215.00
291.4380, 24009.00
292.6480, 24138.00
293.8570, 24206.00
295.0670, 24117.00
296.2760, 24041.00
297.4850, 24047.00
298.6930, 24082.00
299.9020, 24062.37
301.1110, 24146.00
302.3190, 24109.00
303.5270, 24123.00
304.7350, 24181.00
305.9430, 24408.00
307.1510, 24221.00
308.3580, 24398.00
309.5660, 24262.00
310.7730, 24303.36
311.9800, 24263.00
313.1870, 24275.00
314.3940, 24295.00
315.6010, 24092.00
316.8070, 24217.00
318.0130, 24123.00
319.2200, 24402.00
320.4260, 24373.00
321.6310, 24315.00
322.8370, 24478.00
324.0430, 24162.00
325.2480, 24253.00
326.4540, 24248.00
327.6590, 24393.00
328.8640, 24283.00
330.0680, 24354.00
331.2730, 24537.00
332.4780, 24387.00
333.6820, 24287.00
334.8860, 24475.00
336.0900, 24613.00
337.2940, 24598.00
338.4980, 24406.00
339.7010, 24698.00
340.9050, 24600.00
342.1080, 24722.00
343.3110, 24680.00
344.5140, 24675.00
345.7170, 24713.00
346.9200, 24687.00
348.1220, 24769.00
349.3240, 24912.00
350.5270, 24887.00
351.7290, 24845.00
352.9310, 24949.00
354.1320, 24836.00
355.3340, 25072.00
356.5350, 24941.00
357.7370, 24929.00
358.9380, 25034.00
360.1390, 25129.00
361.3400, 25036.00
362.5400, 25163.00
363.7410, 25188.00
364.9410, 25233.00
366.1410, 25083.00
367.3410, 25170.00
368.5410, 25167.00
369.7410, 25243.00
370.9400, 25582.00
372.1400, 25449.00
373.3390, 25642.00
374.5380, 25419.00
375.7370, 25448.00
376.9360, 25523.00
378.1350, 25638.00
379.3330, 25695.00
380.5310, 25751.81
381.7300, 25799.55
382.9280, 25798.00
384.1260, 25887.00
385.3230, 25836.00
386.5210, 25944.00
387.7180, 26123.00
388.9160, 26149.00
390.1130, 26175.00
391.3100, 26133.00
392.5060, 26136.00
393.7030, 26224.00
394.9000, 26362.00
396.0960, 26280.00
397.2920, 26468.00
398.4880, 26409.00
399.6840, 26615.00
400.8800, 26414.00
402.0750, 26636.00
403.2710, 27009.00
404.4660, 26860.00
405.6610, 26830.00
406.8560, 26864.00
408.0510, 26740.00
409.2450, 26874.00
410.4400, 27005.00
411.6340, 26668.00
412.8280, 26961.00
414.0220, 26862.00
415.2160, 26675.00
416.4100, 26730.00
417.6030, 26671.00
418.7970, 27008.00
419.9900, 26759.00
421.1830, 26779.00
422.3760, 26522.00
423.5690, 26872.00
424.7610, 26787.00
425.9540, 26961.00
427.1460, 26970.00
428.3380, 26804.00
429.5300, 26888.00
430.7220, 26744.00
431.9140, 26751.19
433.1050, 26889.00
434.2970, 26824.00
435.4880, 26944.00
436.6790, 27162.00
437.8700, 27220.00
439.0610, 27341.00
440.2510, 27373.00
441.4420, 27436.00
442.6320, 27210.00
443.8220, 27131.00
445.0120, 27368.00
446.2020, 27455.00
447.3910, 27480.00
448.5810, 27389.00
449.7700, 27463.15
450.9600, 27509.00
452.1490, 27469.00
453.3370, 27420.00
454.5260, 27358.00
455.7150, 27812.00
456.9030, 27593.00
458.0910, 27762.00
459.2800, 27729.00
460.4670, 27527.00
461.6550, 27863.00
462.8430, 27784.00
464.0300, 27665.00
465.2180, 27752.00
466.4050, 28268.00
467.5920, 27816.00
468.7790, 28159.00
469.9650, 27926.00
471.1520, 27987.00
472.3380, 28099.00
473.5250, 28155.00
474.7110, 28092.00
475.8970, 27944.00
477.0820, 28299.00
478.2680, 27907.00
479.4540, 28058.00
480.6390, 28254.00
481.8240, 28129.00
483.0090, 28345.00
484.1940, 28287.00
485.3780, 28298.00
486.5630, 28359.44
487.7470, 28009.00
488.9320, 28364.00
490.1160, 28186.00
491.3000, 28136.00
492.4830, 28356.00
493.6670, 28128.00
494.8500, 28281.00
496.0340, 28243.00
497.2170, 28447.00
498.4000, 28268.00
499.5820, 28350.00
500.7650, 28325.00
501.9480, 28267.00
503.1300, 28479.00
504.3120, 28677.00
505.4940, 28539.00
506.6760, 28658.00
507.8580, 28457.00
509.0390, 28430.00
510.2210, 28852.00
511.4020, 28548.00
512.5830, 28616.00
513.7640, 28707.00
514.9450, 28688.00
516.1250, 28637.00
517.3060, 28737.00
518.4860, 28788.00
519.6660, 28945.00
520.8460, 29056.00
522.0260, 29171.00
523.2060, 29015.00
524.3850, 28903.00
525.5650, 29132.00
526.7440, 28995.00
527.9230, 29035.00
529.1020, 29010.00
530.2810, 29149.00
531.4590, 29308.00
532.6380, 29247.00
533.8160, 29361.00
534.9940, 29575.00
536.1720, 29194.00
537.3500, 29470.00
538.5270, 29639.00
539.7050, 29777.00
540.8820, 29625.00
542.0590, 29694.00
543.2360, 29686.00
544.4130, 29843.00
545.5900, 29943.00
546.7660, 29981.99
547.9430, 29957.00
549.1190, 30045.00
550.2950, 30279.00
551.4710, 30212.00
552.6470, 30425.00
553.8220, 30384.00
554.9980, 30749.00
556.1730, 30615.00
557.3480, 30717.00
558.5230, 30678.00
559.6980, 30908.00
560.8730, 31098.00
562.0470, 30830.00
563.2220, 30999.00
564.3960, 31280.00
565.5700, 31086.00
566.7440, 31108.00
567.9170, 31055.00
569.0910, 30796.00
570.2640, 31004.00
571.4380, 30866.00
572.6110, 30777.00
573.7840, 30744.00
574.9570, 30554.00
576.1290, 30871.00
577.3020, 30940.00
578.4740, 30647.00
579.6460, 30854.00
580.8180, 30698.00
581.9900, 30652.00
583.1620, 30660.00
584.3330, 30689.00
585.5040, 30809.00
586.6760, 30686.00
587.8470, 30810.00
589.0180, 30773.00
590.1880, 30951.00
591.3590, 30849.00
592.5290, 30827.00
593.7000, 30676.00
594.8700, 30903.00
596.0400, 30936.00
597.2090, 30789.00
598.3790, 31026.00
599.5490, 30884.00
600.7180, 31086.00
601.8870, 31031.00
603.0560, 31040.00
604.2250, 31265.00
605.3940, 31101.00
606.5620, 30908.00
607.7300, 31390.00
608.8990, 31309.00
610.0670, 31206.00
611.2350, 31304.00
612.4020, 31389.00
613.5700, 31601.00
614.7370, 31384.00
615.9050, 31413.00
617.0720, 31584.00
618.2390, 31364.00
619.4060, 31485.00
620.5720, 31342.00
621.7390, 31509.00
622.9050, 31624.00
624.0710, 31567.00
625.2370, 31619.00
626.4030, 31611.00
627.5690, 31783.00
628.7340, 31836.00
629.9000, 31822.00
631.0650, 31886.24
632.2300, 31760.00
633.3950, 31944.00
634.5600, 31823.00
635.7240, 31960.00
636.8890, 31739.00
638.0530, 31716.00
639.2170, 31771.00
640.3810, 31711.00
641.5450, 31771.04
642.7080, 31907.00
643.8720, 31936.00
645.0350, 32008.00
646.1980, 32069.28
647.3610, 32130.61
648.5240, 32142.00
649.6870, 32299.00
650.8490, 32305.00
652.0120, 32443.00
653.1740, 32446.00
654.3360, 32477.00
655.4980, 32381.00
656.6600, 32482.00
657.8210, 32659.00
658.9830, 32652.00
660.1440, 32785.00
661.3050, 32807.00
662.4660, 32775.00
663.6270, 32710.00
664.7870, 32823.00
665.9480, 32853.00
667.1080, 33037.00
668.2680, 33031.00
669.4280, 32944.00
670.5880, 33173.00
671.7480, 33303.00
672.9070, 33205.00
674.0670, 33592.00
675.2260, 33489.00
676.3850, 33374.00
677.5440, 33524.00
678.7030, 33688.00
679.8610, 33798.00
681.0200, 33861.00
682.1780, 33869.00
683.3360, 34125.00
684.4940, 34063.00
685.6520, 34440.00
686.8090, 34654.00
687.9670, 34659.00
689.1240, 34893.00
690.2810, 35208.00
691.4380, 35549.00
692.5950, 35958.00
693.7520, 36370.00
694.9080, 36751.75
696.0650, 37069.00
697.2210, 37613.00
698.3770, 38065.00
699.5330, 38622.00
700.6880, 39668.00
701.8440, 40582.00
702.9990, 41159.00
704.1550, 41697.00
705.3100, 42912.00
706.4650, 43735.00
707.6190, 44172.00
708.7740, 44715.00
709.9290, 44755.00
711.0830, 44389.00
712.2370, 43817.00
713.3910, 43090.00
714.5450, 42402.00
715.6980, 41019.00
716.8520, 40301.00
718.0050, 39133.00
719.1580, 38618.00
720.3110, 38031.00
721.4640, 37159.00
722.6170, 36892.00
723.7700, 36491.00
724.9220, 36136.00
726.0740, 35738.00
727.2260, 35403.00
728.3780, 35429.00
729.5300, 35352.00
730.6810, 35340.00
731.8330, 35129.00
732.9840, 34989.00
734.1350, 35119.00
735.2860, 35061.00
736.4370, 34756.00
737.5880, 34711.00
738.7380, 34846.00
739.8880, 35016.00
741.0390, 34857.00
742.1890, 35028.00
743.3380, 35037.00
744.4880, 34978.00
745.6380, 34818.00
746.7870, 35175.00
747.9360, 34881.00
749.0850, 35186.00
750.2340, 34837.00
751.3830, 34870.00
752.5310, 35279.00
753.6800, 35075.00
754.8280, 35085.00
755.9760, 34900.00
757.1240, 34997.00
758.2720, 35122.00
759.4190, 35276.00
760.5670, 34999.00
761.7140, 35029.00
762.8610, 35080.00
764.0080, 35175.00
765.1550, 35038.00
766.3020, 35093.00
767.4480, 35097.00
768.5950, 35076.00
769.7410, 35153.00
770.8870, 35377.00
772.0330, 35203.00
773.1780, 35115.00
774.3240, 35357.00
775.4690, 35157.00
776.6140, 35506.00
777.7590, 35376.00
778.9040, 35349.00
780.0490, 35475.00
781.1940, 35517.00
782.3380, 35473.00
783.4820, 35399.00
784.6260, 35629.00
785.7700, 35587.00
786.9140, 35693.00
788.0580, 35674.52
789.2010, 35705.23
790.3450, 35715.50
791.4880, 35734.00
792.6310, 35709.00
793.7730, 35753.43
794.9160, 35766.69
796.0590, 35815.00
797.2010, 35823.00
798.3430, 35836.21
799.4850, 35858.00
800.6270, 35805.00
801.7690, 35659.00
802.9100, 35601.00
804.0520, 35613.73
805.1930, 35605.34
806.3340, 35675.00
807.4750, 35751.00
808.6160, 35769.00
809.7560, 35922.00
810.8970, 35944.00
812.0370, 36040.00
813.1770, 36083.00
814.3170, 36251.00
815.4570, 36185.09
816.5960, 36224.09
817.7360, 36102.00
818.8750, 36201.00
820.0140, 36213.00
821.1530, 36250.00
822.2920, 36070.00
823.4310, 36365.00
824.5690, 36464.00
825.7070, 36500.00
826.8460, 36284.00
827.9840, 36339.00
829.1220, 36583.00
830.2590, 36352.00
831.3970, 36378.00
832.5340, 36248.00
833.6710, 36689.00
834.8080, 36361.00
835.9450, 36630.00
837.0820, 36328.00
838.2190, 36616.00
839.3550, 36616.00
840.4910, 36694.00
841.6270, 36635.00
842.7630, 36863.00
843.8990, 36814.00
845.0350, 36804.00
846.1700, 36970.00
847.3060, 36870.00
848.4410, 36963.00
849.5760, 36918.00
850.7100, 36976.00
851.8450, 37087.00
852.9800, 37326.00
854.1140, 37280.29
855.2480, 37386.00
856.3820, 37292.00
857.5160, 37208.00
858.6500, 37234.00
859.7830, 37306.00
860.9170, 37096.00
862.0500, 37416.00
863.1830, 37475.00
864.3160, 37395.00
865.4480, 37535.00
866.5810, 37396.00
867.7130, 37469.00
868.8460, 37550.00
869.9780, 37496.00
871.1100, 37919.00
872.2410, 37749.70
873.3730, 37826.00
874.5050, 37594.00
875.6360, 37802.00
876.7670, 37637.00
877.8980, 37752.00
879.0290, 37608.00
880.1590, 37743.00
881.2900, 37615.00
882.4200, 37979.00
883.5500, 38060.00
884.6800, 37964.00
885.8100, 38005.00
886.9400, 38133.00
888.0690, 37948.00
889.1990, 38090.00
890.3280, 37918.00
891.4570, 38034.00
892.5860, 38157.00
893.7140, 38090.00
894.8430, 38217.00
895.9710, 38108.00
897.1000, 38126.49
898.2280, 38483.00
899.3560, 38164.00
900.4830, 38304.00
901.6110, 38493.00
902.7380, 38345.00
903.8660, 38411.00
904.9930, 38434.00
906.1200, 38622.00
907.2460, 38597.05
908.3730, 38719.00
909.5000, 38557.00
910.6260, 38634.00
911.7520, 38466.00
912.8780, 38811.00
914.0040, 38490.00
915.1290, 38878.00
916.2550, 38787.00
917.3800, 38695.00
918.5050, 38840.00
919.6300, 38863.00
920.7550, 38881.00
921.8800, 39045.00
923.0040, 39023.00
924.1290, 39092.00
925.2530, 39096.00
926.3770, 39016.00
927.5010, 39314.00
928.6250, 39083.00
929.7480, 39062.00
930.8720, 39245.00
931.9950, 39281.00
933.1180, 39147.00
934.2410, 39173.00
935.3640, 39366.00
936.4860, 39390.00
937.6090, 39310.00
938.7310, 39655.00
939.8530, 39751.00
940.9750, 39802.00
942.0970, 39560.00
943.2180, 39767.00
944.3400, 39825.00
945.4610, 39522.00
946.5820, 39638.00
947.7030, 39994.00
948.8240, 39601.00
949.9450, 39530.00
951.0650, 39758.00
952.1860, 40095.00
953.3060, 39787.00
954.4260, 40070.00
955.5460, 40071.00
956.6650, 40331.00
957.7850, 40309.68
958.9040, 40161.00
960.0230, 40263.00
961.1420, 40215.00
962.2610, 40185.00
963.3800, 40182.00
964.4990, 40226.00
965.6170, 40370.00
966.7350, 40496.00
967.8530, 40616.86
968.9710, 40716.22
970.0890, 40801.00
971.2070, 40815.00
972.3240, 40671.00
973.4410, 40535.00
974.5580, 40692.00
975.6750, 40851.00
976.7920, 40754.00
977.9090, 40812.00
979.0250, 40772.00
980.1410, 40844.00
981.2580, 40927.00
982.3740, 41038.00
983.4890, 41051.03
984.6050, 41104.44
985.7200, 41091.00
986.8360, 41079.00
987.9510, 41104.00
989.0660, 40955.00
990.1810, 41272.00
991.2950, 41188.00
992.4100, 41211.00
993.5240, 41496.00
994.6390, 41210.00
995.7530, 41246.00
996.8660, 41495.00
997.9800, 41801.00
999.0940, 41538.00
1000.207, 41081.00
1001.320, 41557.00
1002.433, 41389.00
1003.546, 41477.00
1004.659, 41772.00
1005.772, 41685.00
1006.884, 41417.00
1007.996, 41775.00
1009.108, 41798.00
1010.220, 42067.00
1011.332, 41823.00
1012.444, 42293.00
1013.555, 41927.00
1014.666, 41987.00
1015.777, 42099.00
1016.888, 42109.00
1017.999, 42139.00
1019.110, 42142.00
1020.220, 42227.91
1021.331, 42058.00
1022.441, 42302.00
1023.551, 42396.00
1024.661, 42208.00
1025.770, 42464.00
1026.880, 42623.00
1027.989, 42390.00
1029.098, 42299.00
1030.207, 42388.00
1031.316, 42553.00
1032.425, 42538.00
1033.533, 42500.00
1034.642, 42649.00
1035.750, 42460.00
1036.858, 42557.00
1037.966, 42816.00
1039.073, 42411.00
1040.181, 42733.00
1041.288, 42439.00
1042.396, 42744.00
1043.503, 42815.00
1044.610, 42849.00
1045.716, 42899.00
1046.823, 43004.61
1047.929, 43110.00
1049.036, 43181.00
1050.142, 43157.00
1051.248, 43148.00
1052.353, 43332.00
1053.459, 43124.00
1054.564, 43455.00
1055.670, 43461.00
1056.775, 43552.00
1057.880, 43447.00
1058.985, 43530.00
1060.089, 43617.00
1061.194, 43820.00
1062.298, 43811.20
1063.402, 43852.43
1064.506, 43931.00
1065.610, 43855.00
1066.713, 44063.00
1067.817, 44170.00
1068.920, 44092.00
1070.023, 43937.00
1071.126, 44380.00
1072.229, 44243.00
1073.332, 44503.00
1074.435, 44237.00
1075.537, 44411.00
1076.639, 44500.00
1077.741, 44517.00
1078.843, 44635.00
1079.945, 44684.00
1081.046, 44732.00
1082.148, 44619.00
1083.249, 44683.00
1084.350, 44817.00
1085.451, 44748.00
1086.551, 44837.00
1087.652, 44881.00
1088.752, 45058.00
1089.853, 45041.00
1090.953, 45409.00
1092.053, 45261.00
1093.152, 45361.00
1094.252, 45346.00
1095.351, 45219.00
1096.451, 45225.00
1097.550, 45182.00
1098.649, 45215.69
1099.748, 45420.00
1100.846, 45330.00
1101.945, 45638.00
1103.043, 45689.00
1104.141, 45475.00
1105.239, 45532.00
1106.337, 45566.00
1107.434, 45566.00
1108.532, 45668.00
1109.629, 45654.00
1110.726, 45844.00
1111.823, 45963.00
1112.920, 46058.00
1114.017, 45907.00
1115.113, 46079.00
1116.210, 46011.00
1117.306, 46332.00
1118.402, 46257.00
1119.498, 46503.00
1120.593, 46538.00
1121.689, 46540.00
1122.784, 46776.00
1123.879, 46626.00
1124.974, 46723.00
1126.069, 46875.00
1127.164, 46646.00
1128.259, 46844.00
1129.353, 46765.00
1130.447, 46985.00
1131.541, 47045.00
1132.635, 46831.00
1133.729, 47121.00
1134.822, 47106.00
1135.916, 46609.00
1137.009, 46902.00
1138.102, 46881.00
1139.195, 46513.00
1140.288, 46709.00
1141.380, 46611.00
1142.473, 46130.00
1143.565, 46133.00
1144.657, 46251.00
1145.749, 46270.00
1146.841, 46112.00
1147.932, 46226.00
1149.024, 46147.89
1150.115, 45968.00
1151.206, 46155.00
1152.297, 46075.00
1153.388, 46202.00
1154.479, 46250.00
1155.569, 46341.00
1156.659, 46368.79
1157.750, 46204.00
1158.839, 46299.00
1159.929, 46182.00
1161.019, 45923.00
1162.108, 46020.00
1163.198, 45981.45
1164.287, 46284.00
1165.376, 46136.00
1166.465, 46254.00
1167.553, 46350.00
1168.642, 46399.00
1169.730, 46605.00
1170.818, 46607.00
1171.906, 46579.00
1172.994, 46490.00
1174.082, 46563.00
1175.170, 46613.00
1176.257, 46616.00
1177.344, 46637.00
1178.431, 46546.00
1179.518, 46840.00
1180.605, 46710.00
1181.691, 46933.00
1182.778, 46826.00
1183.864, 46896.00
1184.950, 46592.00
1186.036, 46664.00
1187.122, 46700.00
1188.207, 46882.00
1189.292, 46932.00
1190.378, 47144.00
1191.463, 47156.00
1192.548, 47256.18
1193.632, 47221.00
1194.717, 47330.00
1195.801, 47299.00
1196.886, 47203.00
1197.970, 47215.34
1199.054, 47143.00
1200.137, 47185.00
1201.221, 47354.00
1202.305, 47519.00
1203.388, 47405.00
1204.471, 47371.00
1205.554, 47231.00
1206.637, 47439.00
1207.719, 47646.00
1208.802, 47285.00
1209.884, 47742.00
1210.966, 47582.00
1212.048, 47661.00
1213.130, 47798.00
1214.212, 47959.00
1215.293, 47698.00
1216.374, 47833.00
1217.456, 47914.00
1218.536, 47784.00
1219.617, 48124.00
1220.698, 48160.00
1221.778, 48054.00
1222.859, 48002.00
1223.939, 48047.00
1225.019, 48271.00
1226.099, 47927.00
1227.178, 48233.00
1228.258, 47938.00
1229.337, 48023.00
1230.417, 48351.00
1231.496, 48379.00
1232.574, 48117.00
1233.653, 48095.00
1234.732, 48306.00
1235.810, 48217.00
1236.888, 48376.00
1237.966, 48569.00
1239.044, 48453.00
1240.122, 48547.00
1241.199, 48592.00
1242.277, 48822.00
1243.354, 48424.00
1244.431, 48741.00
1245.508, 48609.00
1246.585, 48800.00
1247.661, 48514.00
1248.738, 48959.00
1249.814, 48807.00
1250.890, 48935.00
1251.966, 48728.00
1253.042, 48880.00
1254.117, 48852.00
1255.193, 48785.00
1256.268, 49132.00
1257.343, 48806.00
1258.418, 49028.00
1259.493, 48873.00
1260.567, 48744.00
1261.642, 49022.00
1262.716, 49172.00
1263.790, 49232.00
1264.864, 49331.12
1265.938, 49548.00
1267.011, 49402.00
1268.085, 49436.00
1269.158, 49553.00
1270.231, 49218.00
1271.304, 49331.00
1272.377, 49148.00
1273.450, 49399.00
1274.522, 49165.00
1275.594, 49403.00
1276.666, 49641.00
1277.738, 49639.00
1278.810, 49402.00
1279.882, 49674.00
1280.953, 49750.00
1282.025, 49441.00
1283.096, 49917.00
1284.167, 49748.00
1285.238, 49942.00
1286.308, 50025.00
1287.379, 49953.00
1288.449, 49736.00
1289.519, 50180.00
1290.589, 49895.00
1291.659, 50061.00
1292.729, 49906.00
1293.798, 50086.00
1294.868, 49912.00
1295.937, 50313.00
1297.006, 50235.00
1298.075, 50258.00
1299.143, 50121.00
1300.212, 50100.00
1301.280, 50222.00
1302.348, 50243.00
1303.416, 50286.00
1304.484, 50399.04
1305.552, 50106.00
1306.620, 50503.00
1307.687, 50510.00
1308.754, 50352.00
1309.821, 50654.00
1310.888, 50490.00
1311.955, 50663.00
1313.021, 50533.00
1314.088, 50505.00
1315.154, 50833.00
1316.220, 50787.00
1317.286, 50835.00
1318.352, 50841.00
1319.417, 51068.00
1320.483, 51224.00
1321.548, 51051.00
1322.613, 51211.00
1323.678, 51114.00
1324.743, 51118.00
1325.807, 51437.00
1326.872, 51052.00
1327.936, 51718.00
1329.000, 51299.00
1330.064, 51257.00
1331.128, 51420.00
1332.191, 51554.00
1333.255, 51396.00
1334.318, 51145.00
1335.381, 51510.00
1336.444, 51283.00
1337.507, 51577.00
1338.569, 51465.00
1339.632, 51638.00
1340.694, 51585.00
1341.756, 51696.00
1342.818, 51609.00
1343.880, 51666.00
1344.941, 51510.00
1346.003, 52225.00
1347.064, 51833.00
1348.125, 52131.00
1349.186, 51822.00
1350.247, 51928.00
1351.308, 52033.00
1352.368, 52180.00
1353.428, 52057.00
1354.489, 51983.00
1355.549, 52002.00
1356.608, 52354.00
1357.668, 52127.00
1358.727, 52341.00
1359.787, 51992.00
1360.846, 52765.00
1361.905, 52391.00
1362.964, 52347.00
1364.022, 52462.00
1365.081, 52375.00
1366.139, 52609.00
1367.197, 52502.00
1368.255, 52336.00
1369.313, 52592.00
1370.371, 52358.00
1371.428, 52687.00
1372.486, 52406.00
1373.543, 52867.00
1374.600, 52711.00
1375.657, 52568.00
1376.713, 52803.00
1377.770, 52553.00
1378.826, 52555.00
1379.882, 52801.00
1380.938, 52835.00
1381.994, 53208.00
1383.050, 52866.00
1384.106, 53043.00
1385.161, 53240.00
1386.216, 53148.00
1387.271, 52922.00
1388.326, 53125.00
1389.381, 53133.00
1390.435, 53060.00
1391.490, 53200.00
1392.544, 53023.00
1393.598, 52948.00
1394.652, 53301.00
1395.705, 53139.00
1396.759, 53307.00
1397.812, 53499.00
1398.866, 53567.00
1399.919, 53779.00
1400.972, 53419.00
1402.024, 53732.00
1403.077, 53422.00
1404.129, 53473.00
1405.181, 53404.00
1406.233, 53853.00
1407.285, 53944.00
1408.337, 53663.00
1409.389, 53658.00
1410.440, 53476.00
1411.491, 53848.00
1412.542, 53683.00
1413.593, 54041.00
1414.644, 53933.00
1415.695, 53905.00
1416.745, 53751.00
1417.795, 54017.00
1418.845, 53852.00
1419.895, 54062.00
1420.945, 54130.00
1421.995, 53973.00
1423.044, 54217.00
1424.093, 54294.00
1425.142, 54305.00
1426.191, 54300.00
1427.240, 54260.00
1428.289, 54148.00
1429.337, 54410.00
1430.385, 54642.00
1431.433, 54245.00
1432.481, 54444.00
1433.529, 54261.00
1434.577, 54625.00
1435.624, 54616.00
1436.672, 54780.00
1437.719, 54356.00
1438.766, 54688.00
1439.812, 54989.00
1440.859, 54533.00
1441.905, 54631.00
1442.952, 55059.00
1443.998, 54999.00
1445.044, 55099.00
1446.090, 54839.00
1447.135, 54926.00
1448.181, 55089.00
1449.226, 55251.00
1450.271, 55167.00
1451.316, 55357.00
1452.361, 55048.00
1453.405, 54989.00
1454.450, 54828.00
1455.494, 55188.00
1456.538, 55335.00
1457.582, 54972.00
1458.626, 55506.00
1459.670, 55181.00
1460.713, 55200.00
1461.757, 55480.00
1462.800, 55227.00
1463.843, 55295.00
1464.886, 55498.00
1465.928, 55464.00
1466.971, 55644.00
1468.013, 55546.00
1469.055, 55555.00
1470.097, 55540.00
1471.139, 55718.00
1472.181, 55811.00
1473.222, 55541.00
1474.263, 55775.00
1475.305, 55831.00
1476.346, 56068.00
1477.386, 56147.00
1478.427, 56194.00
1479.468, 56091.00
1480.508, 56009.00
1481.548, 56108.00
1482.588, 56277.00
1483.628, 56101.00
1484.668, 56223.29
1485.707, 56143.00
1486.747, 56267.00
1487.786, 56223.00
1488.825, 56282.00
1489.864, 56407.00
1490.902, 56575.00
1491.941, 56539.00
1492.979, 56553.00
1494.017, 56378.00
1495.055, 56303.00
1496.093, 56603.00
1497.131, 56863.00
1498.168, 56369.00
1499.206, 56507.00
1500.243, 56844.00
1501.280, 56818.00
1502.317, 56902.00
1503.354, 56702.00
1504.390, 56661.00
1505.426, 56717.00
1506.463, 56674.00
1507.499, 56970.00
1508.535, 56918.00
1509.570, 56962.00
1510.606, 57024.00
1511.641, 56957.00
1512.676, 56896.00
1513.711, 57397.00
1514.746, 57258.00
1515.781, 57085.00
1516.816, 57409.00
1517.850, 56989.00
1518.884, 57451.00
1519.918, 57230.00
1520.952, 57355.00
1521.986, 57502.00
1523.019, 57445.00
1524.053, 57497.00
1525.086, 57540.00
1526.119, 57650.00
1527.152, 57569.00
1528.185, 57601.00
1529.217, 57759.00
1530.250, 57655.00
1531.282, 57684.00
1532.314, 57825.00
1533.346, 57770.00
1534.377, 57605.00
1535.409, 58133.00
1536.440, 57677.00
1537.472, 58167.00
1538.503, 58082.00
1539.534, 58069.00
1540.564, 57778.00
1541.595, 58109.00
1542.625, 58052.00
1543.656, 58089.00
1544.686, 58287.00
1545.716, 58213.00
1546.745, 57978.00
1547.775, 58311.00
1548.804, 58201.00
1549.834, 58326.00
1550.863, 58161.00
1551.892, 58273.00
1552.920, 58312.62
1553.949, 58327.00
1554.977, 58494.00
1556.006, 58774.00
1557.034, 58965.00
1558.062, 58462.00
1559.089, 58334.00
1560.117, 58571.00
1561.144, 58849.00
1562.172, 58532.00
1563.199, 58631.00
1564.226, 58759.00
1565.252, 58759.00
1566.279, 58855.00
1567.305, 58815.00
1568.332, 58885.00
1569.358, 58928.00
1570.384, 58843.00
1571.409, 59488.00
1572.435, 59660.00
##END=



