##NAMES=Trilithionite
##RRUFFID=R040105
##IDEAL CHEMISTRY=KLi_1.5_Al_1.5_(Si_3_Al)O_10_F_2_
##LOCALITY=Brown Derby mine, Ohio City, Gunnison County, Colorado, USA
##OWNER=RRUFF
##SOURCE=University of Arizona Mineral Museum
##DESCRIPTION=Purple hexagonal tablet
##STATUS=The identification of this mineral has been confirmed by X-ray diffraction and chemical analysis
##URL=rruff.info/R040105
##MEASURED CHEMISTRY=(K_0.82_Li_0.14_Na_0.04_)(Li_0.53_Al_0.42_Mn_0.05_)_3_(Si_0.84_Al_0.17_)_4_O_10_((OH)_0.59_F_0.41_)_2_
##PIN_ID=L00700
##ORIENTATION=Laser parallel to (1 0 1). Fiducial mark perpendicular to laser is parallel to b [0 1 0]
62.17000, 7529.000
63.41600, 7482.000
64.66100, 7406.000
65.90700, 7352.000
67.15200, 7263.000
68.39700, 7263.944
69.64100, 7251.538
70.88600, 7262.000
72.13000, 7287.000
73.37400, 7274.000
74.61800, 7284.000
75.86200, 7432.000
77.10600, 7380.000
78.34900, 7493.000
79.59300, 7350.000
80.83600, 7398.000
82.07900, 7079.000
83.32100, 6651.000
84.56400, 6461.000
85.80600, 6193.000
87.04800, 5895.000
88.29000, 5729.000
89.53200, 5372.099
90.77400, 4971.000
92.01500, 4769.000
93.25700, 4668.000
94.49800, 4488.000
95.73900, 4467.000
96.98000, 4379.000
98.22000, 4428.000
99.46100, 4490.000
100.7010, 4667.000
101.9410, 4946.308
103.1810, 5308.846
104.4210, 5825.000
105.6600, 6355.000
106.9000, 7176.000
108.1390, 7990.000
109.3780, 9158.000
110.6170, 10389.00
111.8550, 11613.00
113.0940, 13224.00
114.3320, 15190.00
115.5700, 17040.00
116.8080, 18789.00
118.0460, 20782.00
119.2830, 22802.00
120.5210, 25270.00
121.7580, 27339.00
122.9950, 28987.00
124.2320, 30552.00
125.4690, 32390.00
126.7050, 34146.00
127.9410, 35310.00
129.1780, 36497.00
130.4140, 37580.00
131.6490, 38605.00
132.8850, 39455.00
134.1200, 40138.00
135.3560, 40753.52
136.5910, 41339.00
137.8260, 41591.00
139.0610, 41518.00
140.2950, 41690.00
141.5290, 41632.00
142.7640, 41778.00
143.9980, 41830.00
145.2320, 41908.00
146.4650, 41707.00
147.6990, 41468.00
148.9320, 41556.00
150.1650, 41275.00
151.3980, 41302.00
152.6310, 41032.00
153.8640, 41287.00
155.0960, 41042.00
156.3280, 40716.00
157.5600, 41095.00
158.7920, 40864.53
160.0240, 40994.00
161.2560, 40932.00
162.4870, 41069.00
163.7180, 41191.00
164.9490, 41686.00
166.1800, 41610.00
167.4110, 41899.00
168.6410, 42443.00
169.8720, 42684.00
171.1020, 43419.00
172.3320, 44278.00
173.5620, 44091.00
174.7910, 45128.00
176.0210, 46226.00
177.2500, 46911.00
178.4790, 47237.80
179.7080, 47053.00
180.9370, 47206.00
182.1650, 47163.00
183.3940, 46653.00
184.6220, 46529.00
185.8500, 46107.00
187.0780, 45554.00
188.3050, 45149.00
189.5330, 45015.00
190.7600, 44529.57
191.9870, 44009.00
193.2140, 43791.00
194.4410, 43258.83
195.6680, 43504.00
196.8940, 42619.00
198.1200, 42115.00
199.3470, 42275.00
200.5720, 41865.00
201.7980, 41976.00
203.0240, 41614.00
204.2490, 41503.00
205.4740, 41578.00
206.6990, 41437.00
207.9240, 41207.00
209.1490, 41442.00
210.3740, 41576.00
211.5980, 41633.00
212.8220, 41500.00
214.0460, 41841.00
215.2700, 41644.00
216.4930, 42222.00
217.7170, 41880.00
218.9400, 42352.00
220.1630, 42425.00
221.3860, 42425.00
222.6090, 42950.00
223.8320, 43252.00
225.0540, 43564.00
226.2760, 43654.00
227.4980, 44546.00
228.7200, 44877.00
229.9420, 45227.00
231.1630, 45907.00
232.3850, 46336.00
233.6060, 47166.00
234.8270, 47975.00
236.0480, 48569.00
237.2690, 49337.00
238.4890, 50759.00
239.7090, 51118.04
240.9290, 51936.00
242.1490, 52297.00
243.3690, 53128.00
244.5890, 53660.00
245.8080, 54591.00
247.0270, 55545.00
248.2470, 55899.00
249.4650, 56515.00
250.6840, 57251.92
251.9030, 57986.31
253.1210, 58856.00
254.3390, 59686.00
255.5570, 61013.00
256.7750, 61765.00
257.9930, 62571.00
259.2100, 63189.00
260.4280, 63346.00
261.6450, 63597.00
262.8620, 63036.00
264.0790, 62487.00
265.2950, 61604.00
266.5120, 60686.00
267.7280, 58995.00
268.9440, 57699.00
270.1600, 56275.00
271.3760, 54919.00
272.5920, 53118.00
273.8070, 51825.00
275.0220, 50753.00
276.2370, 49364.00
277.4520, 48673.00
278.6670, 47580.00
279.8820, 47036.00
281.0960, 46310.00
282.3100, 45549.00
283.5240, 45122.00
284.7380, 44850.00
285.9520, 44407.00
287.1650, 43912.00
288.3780, 43749.05
289.5920, 43890.38
290.8050, 43929.78
292.0170, 43872.72
293.2300, 43429.93
294.4430, 43485.14
295.6550, 43340.85
296.8670, 43188.37
298.0790, 43313.74
299.2910, 42927.12
300.5020, 43048.16
301.7140, 42966.51
302.9250, 42977.66
304.1360, 42788.02
305.3470, 42660.39
306.5580, 42733.62
307.7680, 42695.72
308.9780, 42463.00
310.1890, 42208.00
311.3990, 42395.00
312.6090, 42155.00
313.8180, 42017.00
315.0280, 41940.00
316.2370, 41433.00
317.4460, 41745.00
318.6550, 40989.00
319.8640, 41057.00
321.0730, 40655.00
322.2810, 40895.00
323.4890, 40505.00
324.6980, 40230.00
325.9060, 40090.00
327.1130, 39840.00
328.3210, 39734.00
329.5280, 39583.00
330.7360, 39334.00
331.9430, 39174.00
333.1500, 38668.00
334.3560, 38818.00
335.5630, 38616.00
336.7690, 38319.00
337.9760, 38426.00
339.1820, 38122.00
340.3870, 37950.00
341.5930, 38025.00
342.7990, 37879.00
344.0040, 37759.83
345.2090, 37898.00
346.4140, 37523.00
347.6190, 37704.00
348.8240, 37719.00
350.0280, 37557.00
351.2330, 37828.00
352.4370, 38080.00
353.6410, 37976.00
354.8440, 37931.00
356.0480, 38317.00
357.2520, 37991.00
358.4550, 38353.00
359.6580, 38397.00
360.8610, 38553.00
362.0640, 38725.00
363.2660, 38746.00
364.4690, 39000.00
365.6710, 38941.00
366.8730, 39262.00
368.0750, 39107.00
369.2770, 39406.00
370.4780, 39642.00
371.6800, 39939.00
372.8810, 39922.00
374.0820, 40227.00
375.2830, 40239.00
376.4830, 40379.00
377.6840, 40810.00
378.8840, 40909.00
380.0840, 41209.80
381.2840, 41619.00
382.4840, 41785.00
383.6840, 42005.00
384.8830, 42414.00
386.0830, 42858.00
387.2820, 43857.00
388.4810, 43858.00
389.6800, 44296.00
390.8780, 44908.26
392.0770, 44825.00
393.2750, 45497.00
394.4730, 45874.27
395.6710, 46549.00
396.8690, 46617.00
398.0660, 47216.00
399.2640, 47118.00
400.4610, 47691.00
401.6580, 47967.00
402.8550, 48061.00
404.0520, 48451.00
405.2490, 48425.00
406.4450, 48333.00
407.6410, 48160.00
408.8370, 48088.00
410.0330, 47547.00
411.2290, 46895.00
412.4240, 46331.00
413.6200, 46020.00
414.8150, 45290.95
416.0100, 44876.00
417.2050, 44063.00
418.4000, 43926.00
419.5940, 43409.00
420.7880, 43096.00
421.9830, 42741.00
423.1770, 42277.00
424.3700, 42357.00
425.5640, 41968.00
426.7580, 41786.00
427.9510, 42024.00
429.1440, 41979.00
430.3370, 41988.00
431.5300, 41896.00
432.7220, 42200.00
433.9150, 42081.00
435.1070, 42353.00
436.2990, 42218.00
437.4910, 42294.00
438.6830, 42401.00
439.8750, 42468.00
441.0660, 42698.00
442.2570, 42447.00
443.4480, 42262.00
444.6390, 42502.00
445.8300, 42268.00
447.0210, 42134.00
448.2110, 42269.00
449.4010, 42213.00
450.5910, 42155.00
451.7810, 42060.00
452.9710, 42114.00
454.1610, 42117.41
455.3500, 42136.94
456.5390, 42256.61
457.7280, 42277.00
458.9170, 42390.00
460.1060, 42568.00
461.2940, 42471.00
462.4830, 42475.00
463.6710, 42949.00
464.8590, 42865.00
466.0470, 43079.00
467.2350, 43334.00
468.4220, 43395.00
469.6090, 43525.00
470.7970, 43953.00
471.9840, 44267.00
473.1700, 44249.00
474.3570, 44579.00
475.5440, 44718.00
476.7300, 44742.00
477.9160, 44911.00
479.1020, 44318.00
480.2880, 44326.00
481.4740, 44007.00
482.6590, 43921.00
483.8440, 43127.00
485.0300, 42709.00
486.2140, 42135.00
487.3990, 41937.00
488.5840, 41477.00
489.7680, 41459.00
490.9530, 41027.00
492.1370, 40579.00
493.3210, 40271.00
494.5040, 40228.00
495.6880, 40318.00
496.8720, 39999.00
498.0550, 39993.00
499.2380, 39649.00
500.4210, 39509.00
501.6040, 39550.00
502.7860, 39453.00
503.9690, 39564.00
505.1510, 39383.00
506.3330, 39352.00
507.5150, 39576.00
508.6970, 39570.00
509.8780, 39501.00
511.0600, 39741.00
512.2410, 39838.00
513.4220, 39949.00
514.6030, 40050.16
515.7840, 40133.46
516.9640, 40156.00
518.1440, 40299.00
519.3250, 40332.00
520.5050, 40419.00
521.6850, 40626.00
522.8640, 40746.00
524.0440, 41066.00
525.2230, 41219.61
526.4020, 41311.00
527.5820, 41578.00
528.7600, 41642.00
529.9390, 41708.00
531.1180, 42292.00
532.2960, 42264.00
533.4740, 42460.00
534.6520, 42539.00
535.8300, 43024.00
537.0080, 42987.00
538.1850, 43700.00
539.3630, 43635.00
540.5400, 44022.00
541.7170, 44420.00
542.8940, 44681.00
544.0700, 45036.00
545.2470, 45591.00
546.4230, 45851.00
547.5990, 46398.00
548.7750, 46798.00
549.9510, 47208.00
551.1270, 47675.00
552.3020, 48230.00
553.4780, 49056.00
554.6530, 49159.00
555.8280, 49954.00
557.0030, 50199.00
558.1770, 50535.00
559.3520, 51065.00
560.5260, 51307.00
561.7000, 51539.00
562.8740, 51564.00
564.0480, 51208.00
565.2220, 50809.00
566.3950, 50386.00
567.5680, 50074.00
568.7420, 49657.00
569.9150, 48712.00
571.0870, 48313.00
572.2600, 47916.00
573.4320, 46996.00
574.6050, 46650.00
575.7770, 45685.00
576.9490, 45118.00
578.1210, 45046.00
579.2920, 44484.00
580.4640, 44573.00
581.6350, 44189.17
582.8060, 43823.00
583.9770, 43750.00
585.1480, 43704.00
586.3190, 43779.00
587.4890, 44060.00
588.6590, 43417.00
589.8290, 43400.00
590.9990, 43726.00
592.1690, 43245.00
593.3390, 43354.00
594.5080, 43762.00
595.6770, 43474.00
596.8470, 43495.00
598.0160, 43968.00
599.1840, 43861.00
600.3530, 44035.00
601.5210, 43953.00
602.6900, 44419.00
603.8580, 44115.00
605.0260, 44170.00
606.1930, 44659.00
607.3610, 44669.00
608.5280, 44720.00
609.6960, 44919.00
610.8630, 44869.00
612.0300, 45002.00
613.1970, 45093.00
614.3630, 45496.00
615.5300, 45770.00
616.6960, 46168.00
617.8620, 46387.00
619.0280, 46702.00
620.1940, 47089.00
621.3590, 47459.00
622.5250, 48236.00
623.6900, 49022.00
624.8550, 49477.00
626.0200, 49536.00
627.1850, 49591.00
628.3490, 49021.00
629.5140, 48445.00
630.6780, 47652.00
631.8420, 47443.00
633.0060, 45916.00
634.1700, 45748.00
635.3330, 45261.00
636.4970, 45332.00
637.6600, 44747.00
638.8230, 45080.52
639.9860, 45426.00
641.1490, 45478.00
642.3110, 46165.00
643.4740, 45919.00
644.6360, 46297.09
645.7980, 47069.19
646.9600, 47553.20
648.1220, 47754.55
649.2840, 47384.15
650.4450, 47325.89
651.6060, 47668.00
652.7670, 47714.00
653.9280, 47228.00
655.0890, 47733.00
656.2500, 47271.00
657.4100, 46627.00
658.5700, 46011.00
659.7300, 45875.36
660.8900, 46086.03
662.0500, 46194.68
663.2100, 46206.80
664.3690, 45833.29
665.5280, 45498.00
666.6880, 45643.00
667.8460, 45908.00
669.0050, 46093.00
670.1640, 46422.00
671.3220, 46794.00
672.4810, 46946.00
673.6390, 47251.00
674.7970, 47841.00
675.9540, 48303.26
677.1120, 49147.00
678.2690, 49713.00
679.4270, 50690.00
680.5840, 51707.00
681.7410, 52614.14
682.8980, 53467.00
684.0540, 54796.00
685.2110, 56442.00
686.3670, 57758.00
687.5230, 59752.20
688.6790, 62182.00
689.8350, 64390.00
690.9900, 66956.00
692.1460, 70593.00
693.3010, 74212.00
694.4560, 78824.00
695.6110, 83528.00
696.7660, 89116.00
697.9210, 96070.00
699.0750, 103011.0
700.2290, 111827.0
701.3840, 120657.0
702.5370, 130099.0
703.6910, 139162.0
704.8450, 147238.0
705.9980, 153984.0
707.1520, 158877.0
708.3050, 159934.0
709.4580, 157275.0
710.6110, 152499.0
711.7630, 143714.0
712.9160, 133808.0
714.0680, 122413.0
715.2200, 111751.0
716.3720, 102373.0
717.5240, 93200.00
718.6760, 85453.00
719.8270, 79200.00
720.9780, 74660.00
722.1300, 69389.00
723.2810, 65756.00
724.4310, 63377.00
725.5820, 60517.00
726.7330, 58456.00
727.8830, 56440.00
729.0330, 55260.00
730.1830, 53865.00
731.3330, 52787.00
732.4830, 52042.00
733.6320, 51312.00
734.7810, 50434.00
735.9310, 50040.00
737.0800, 49233.00
738.2290, 48711.00
739.3770, 48486.00
740.5260, 48510.00
741.6740, 48436.00
742.8220, 48217.00
743.9700, 47908.00
745.1180, 47723.00
746.2660, 47875.00
747.4130, 48125.00
748.5610, 47744.00
749.7080, 47949.00
750.8550, 47800.00
752.0020, 47454.00
753.1490, 47527.00
754.2950, 47157.00
755.4420, 47233.00
756.5880, 46930.00
757.7340, 46631.00
758.8800, 46479.00
760.0250, 46137.00
761.1710, 45889.00
762.3160, 45775.00
763.4620, 45573.00
764.6070, 45440.00
765.7520, 45165.00
766.8960, 44974.00
768.0410, 44904.00
769.1850, 44758.32
770.3300, 44716.02
771.4740, 44709.00
772.6180, 44745.00
773.7610, 44830.12
774.9050, 44933.04
776.0480, 45117.09
777.1920, 45266.00
778.3350, 45493.00
779.4780, 45763.00
780.6200, 45733.81
781.7630, 45918.00
782.9060, 45669.00
784.0480, 45697.00
785.1900, 45614.00
786.3320, 45506.00
787.4740, 45338.00
788.6150, 45056.00
789.7570, 44922.00
790.8980, 44753.00
792.0390, 44790.00
793.1800, 44655.00
794.3210, 44343.00
795.4620, 44514.00
796.6020, 44332.00
797.7420, 43815.00
798.8830, 43860.00
800.0230, 43618.00
801.1620, 43628.00
802.3020, 43543.00
803.4420, 43563.00
804.5810, 43043.00
805.7200, 43148.00
806.8590, 42939.00
807.9980, 43229.00
809.1370, 43264.50
810.2750, 43787.00
811.4140, 43409.00
812.5520, 43515.00
813.6900, 43266.00
814.8280, 43434.00
815.9650, 43641.00
817.1030, 43267.00
818.2400, 43779.00
819.3780, 43767.00
820.5150, 43865.00
821.6520, 43677.00
822.7880, 44076.00
823.9250, 44072.00
825.0610, 44227.00
826.1980, 44423.00
827.3340, 44460.00
828.4700, 44363.00
829.6050, 44805.00
830.7410, 44933.00
831.8760, 44892.00
833.0120, 45208.00
834.1470, 45414.00
835.2820, 45642.00
836.4160, 45797.00
837.5510, 45922.00
838.6860, 46047.00
839.8200, 46492.00
840.9540, 46697.00
842.0880, 47031.00
843.2220, 47261.00
844.3550, 47479.00
845.4890, 47498.00
846.6220, 47512.00
847.7550, 47696.00
848.8880, 47776.00
850.0210, 47756.00
851.1540, 47908.00
852.2860, 48151.00
853.4190, 48521.00
854.5510, 48582.00
855.6830, 48971.00
856.8150, 49549.00
857.9460, 49964.00
859.0780, 50597.00
860.2090, 50506.00
861.3410, 50422.00
862.4720, 50479.00
863.6020, 49991.00
864.7330, 49641.00
865.8640, 49055.00
866.9940, 48646.56
868.1240, 48165.00
869.2540, 47739.00
870.3840, 47559.00
871.5140, 47143.00
872.6440, 47196.00
873.7730, 46998.00
874.9020, 46914.00
876.0320, 46963.00
877.1600, 46979.00
878.2890, 47161.00
879.4180, 47237.00
880.5460, 47155.00
881.6750, 47004.00
882.8030, 46655.00
883.9310, 47252.00
885.0590, 46761.00
886.1860, 46827.00
887.3140, 47053.00
888.4410, 47029.00
889.5680, 47008.00
890.6950, 47062.00
891.8220, 47114.93
892.9490, 47228.00
894.0750, 47282.00
895.2020, 47342.00
896.3280, 47209.71
897.4540, 47511.84
898.5800, 47706.93
899.7050, 47800.41
900.8310, 47503.25
901.9560, 47699.02
903.0820, 47690.23
904.2070, 47668.20
905.3320, 47919.00
906.4560, 47652.75
907.5810, 47889.11
908.7050, 47917.80
909.8300, 48034.23
910.9540, 47944.83
912.0780, 47912.44
913.2010, 48075.91
914.3250, 48123.14
915.4480, 47990.59
916.5720, 48082.84
917.6950, 47759.49
918.8180, 47791.45
919.9410, 47973.87
921.0630, 47826.43
922.1860, 47737.00
923.3080, 47693.00
924.4300, 47603.00
925.5520, 47899.00
926.6740, 47480.00
927.7960, 47678.00
928.9170, 48106.00
930.0390, 47850.00
931.1600, 47920.00
932.2810, 48308.00
933.4020, 48105.00
934.5230, 47866.00
935.6430, 47699.00
936.7640, 48070.00
937.8840, 47649.00
939.0040, 47801.00
940.1240, 47801.00
941.2440, 47640.00
942.3630, 47695.00
943.4830, 47624.00
944.6020, 47852.00
945.7210, 47780.00
946.8400, 47785.00
947.9590, 47516.00
949.0770, 47742.00
950.1960, 47760.00
951.3140, 47890.00
952.4320, 48027.00
953.5500, 48197.00
954.6680, 48210.00
955.7860, 48092.00
956.9030, 47879.00
958.0210, 47843.00
959.1380, 48210.00
960.2550, 47705.00
961.3720, 47859.00
962.4890, 47742.00
963.6050, 47543.00
964.7220, 47736.00
965.8380, 47709.00
966.9540, 48057.00
968.0700, 47767.00
969.1860, 47360.00
970.3010, 47951.00
971.4170, 47506.00
972.5320, 47624.00
973.6470, 47340.00
974.7620, 47394.00
975.8770, 47348.00
976.9910, 47625.00
978.1060, 47552.00
979.2200, 47670.00
980.3340, 47668.00
981.4480, 47592.00
982.5620, 47916.00
983.6760, 48455.00
984.7890, 48449.00
985.9030, 48784.00
987.0160, 49208.00
988.1290, 49394.00
989.2420, 49757.00
990.3550, 50109.00
991.4670, 50324.00
992.5800, 50948.00
993.6920, 52006.00
994.8040, 53057.53
995.9160, 54244.00
997.0280, 56095.00
998.1390, 57698.00
999.2510, 59731.00
1000.362, 61833.00
1001.473, 63942.00
1002.584, 64407.00
1003.695, 63251.00
1004.805, 60090.00
1005.916, 56881.00
1007.026, 54563.00
1008.136, 52686.00
1009.246, 51383.00
1010.356, 50652.00
1011.466, 49915.00
1012.576, 50175.00
1013.685, 49700.00
1014.794, 49796.00
1015.903, 49756.00
1017.012, 49792.00
1018.121, 49918.00
1019.229, 50707.00
1020.338, 51257.00
1021.446, 51212.00
1022.554, 51781.00
1023.662, 51810.00
1024.770, 51793.00
1025.878, 52161.00
1026.985, 51543.00
1028.092, 52061.00
1029.200, 51479.00
1030.307, 51607.00
1031.413, 51201.00
1032.520, 51412.00
1033.627, 50971.00
1034.733, 50836.00
1035.839, 51094.00
1036.945, 50556.00
1038.051, 50308.00
1039.157, 50331.00
1040.262, 50150.00
1041.368, 50292.00
1042.473, 50294.80
1043.578, 50245.00
1044.683, 50442.00
1045.788, 50538.00
1046.893, 50596.00
1047.997, 50406.00
1049.101, 50498.87
1050.205, 50739.23
1051.309, 50896.85
1052.413, 50977.21
1053.517, 50691.17
1054.621, 50922.41
1055.724, 50973.23
1056.827, 51035.11
1057.930, 51394.07
1059.033, 51260.25
1060.136, 51653.27
1061.238, 51862.71
1062.341, 52184.28
1063.443, 52324.07
1064.545, 52545.09
1065.647, 52986.14
1066.749, 53335.20
1067.850, 53528.35
1068.952, 53189.00
1070.053, 53908.00
1071.154, 53919.00
1072.255, 54504.00
1073.356, 54825.00
1074.457, 55329.00
1075.557, 55701.00
1076.658, 56209.00
1077.758, 56642.00
1078.858, 56760.00
1079.958, 57924.00
1081.057, 58193.00
1082.157, 58055.00
1083.256, 58421.00
1084.356, 58308.00
1085.455, 58444.00
1086.554, 58230.00
1087.653, 58181.00
1088.751, 57392.00
1089.850, 57203.00
1090.948, 57027.00
1092.046, 57130.00
1093.144, 56840.00
1094.242, 56862.00
1095.340, 56422.00
1096.437, 56101.00
1097.534, 56485.00
1098.632, 56445.00
1099.729, 56504.00
1100.826, 56137.00
1101.922, 56164.00
1103.019, 56181.00
1104.115, 56470.00
1105.212, 56498.26
1106.308, 56435.00
1107.404, 56665.00
1108.499, 56847.00
1109.595, 56748.00
1110.691, 57228.00
1111.786, 56885.00
1112.881, 56685.00
1113.976, 56296.00
1115.071, 56305.00
1116.166, 56474.00
1117.260, 56094.00
1118.355, 56273.00
1119.449, 55789.00
1120.543, 56115.00
1121.637, 55654.00
1122.731, 55729.00
1123.824, 55629.00
1124.918, 55128.00
1126.011, 55082.59
1127.104, 54931.20
1128.197, 54726.00
1129.290, 54573.00
1130.382, 54689.00
1131.475, 54068.00
1132.567, 54014.00
1133.659, 53576.00
1134.751, 53224.00
1135.843, 53076.00
1136.935, 52497.00
1138.027, 52671.00
1139.118, 52019.00
1140.209, 51480.00
1141.300, 51587.04
1142.391, 51463.00
1143.482, 51426.00
1144.573, 51114.00
1145.663, 50795.00
1146.754, 51012.00
1147.844, 50905.00
1148.934, 51395.00
1150.024, 51170.00
1151.113, 50862.00
1152.203, 51203.00
1153.292, 51237.00
1154.381, 51268.00
1155.470, 51125.00
1156.559, 51894.00
1157.648, 51442.00
1158.737, 51590.00
1159.825, 51716.00
1160.913, 51310.00
1162.001, 51600.00
1163.089, 51146.00
1164.177, 51437.00
1165.265, 51757.00
1166.352, 51519.00
1167.440, 52037.00
1168.527, 51632.00
1169.614, 52001.00
1170.701, 52143.00
1171.788, 52011.00
1172.874, 52496.00
1173.961, 52507.00
1175.047, 52547.00
1176.133, 52599.00
1177.219, 52618.00
1178.305, 52601.03
1179.390, 52763.00
1180.476, 52566.00
1181.561, 52353.00
1182.646, 52390.49
1183.731, 52654.00
1184.816, 52531.00
1185.901, 52881.00
1186.985, 53049.00
1188.070, 52981.00
1189.154, 53128.00
1190.238, 53365.00
1191.322, 53192.00
1192.406, 53399.00
1193.489, 52936.00
1194.573, 52530.00
1195.656, 53020.00
1196.739, 52827.00
1197.822, 52914.00
1198.905, 52975.00
1199.988, 52626.00
1201.070, 52952.00
1202.153, 52746.00
1203.235, 52985.00
1204.317, 52819.00
1205.399, 52861.00
1206.481, 52536.00
1207.562, 52566.00
1208.644, 52463.00
1209.725, 52503.00
1210.806, 52536.00
1211.887, 52803.00
1212.968, 53294.00
1214.049, 53132.00
1215.129, 53435.00
1216.209, 53523.00
1217.290, 53559.00
1218.370, 53038.00
1219.450, 53311.00
1220.529, 53253.00
1221.609, 53311.00
1222.688, 53690.00
1223.768, 53504.00
1224.847, 53819.00
1225.926, 53671.00
1227.005, 53860.00
1228.083, 54239.00
1229.162, 54288.00
1230.240, 54524.00
1231.318, 54669.00
1232.396, 54863.00
1233.474, 54945.76
1234.552, 55166.00
1235.629, 55176.00
1236.707, 55149.00
1237.784, 55481.00
1238.861, 55323.00
1239.938, 55014.00
1241.015, 55154.00
1242.092, 54974.00
1243.168, 55449.00
1244.244, 55219.17
1245.321, 55190.00
1246.397, 55101.00
1247.473, 55158.72
1248.548, 55570.00
1249.624, 55385.00
1250.699, 55514.00
1251.775, 55627.00
1252.850, 55428.00
1253.925, 55460.00
1254.999, 55081.00
1256.074, 55417.00
1257.148, 55115.00
1258.223, 55103.00
1259.297, 55417.54
1260.371, 55669.00
1261.445, 55911.00
1262.519, 56160.00
1263.592, 56230.00
1264.666, 56643.19
1265.739, 56531.00
1266.812, 57356.00
1267.885, 57669.00
1268.958, 57962.00
1270.030, 57963.00
1271.103, 58101.00
1272.175, 58464.00
1273.247, 58627.62
1274.319, 59104.73
1275.391, 59479.82
1276.463, 59758.38
1277.535, 59651.29
1278.606, 60041.93
1279.677, 60233.04
1280.748, 60415.95
1281.819, 60876.69
1282.890, 60825.46
1283.961, 61281.82
1285.031, 61535.30
1286.102, 61870.00
1287.172, 62172.00
1288.242, 62241.76
1289.312, 62454.00
1290.381, 62557.00
1291.451, 62643.00
1292.520, 62732.00
1293.590, 63010.00
1294.659, 62964.00
1295.728, 62994.00
1296.797, 62521.00
1297.865, 62173.00
1298.934, 61945.00
1300.002, 61528.00
1301.070, 61845.00
1302.138, 61290.00
1303.206, 61382.00
1304.274, 60918.00
1305.341, 61129.00
1306.409, 61186.00
1307.476, 61525.00
1308.543, 61891.00
1309.610, 61657.00
1310.677, 61698.00
1311.744, 61712.00
1312.810, 61452.08
1313.877, 61354.00
1314.943, 61102.00
1316.009, 60688.00
1317.075, 60673.00
1318.140, 60081.00
1319.206, 60085.00
1320.272, 59690.00
1321.337, 59781.00
1322.402, 59214.00
1323.467, 58762.00
1324.532, 58527.00
1325.596, 58198.02
1326.661, 58179.00
1327.725, 57918.00
1328.790, 57576.00
1329.854, 57658.00
1330.918, 57215.46
1331.981, 56904.00
1333.045, 56787.00
1334.108, 56419.00
1335.172, 56677.00
1336.235, 56385.00
1337.298, 56266.78
1338.361, 56530.00
1339.423, 55986.00
1340.486, 56341.00
1341.548, 56331.00
1342.611, 56308.00
1343.673, 56573.30
1344.735, 56613.31
1345.796, 56593.18
1346.858, 56518.13
1347.919, 56099.23
1348.981, 56219.99
1350.042, 56182.90
1351.103, 56179.32
1352.164, 56495.26
1353.225, 56340.89
1354.285, 56357.00
1355.346, 56200.82
1356.406, 56009.00
1357.466, 56208.00
1358.526, 56042.00
1359.586, 56216.00
1360.645, 55982.00
1361.705, 56400.00
1362.764, 56195.00
1363.823, 56524.00
1364.882, 56529.00
1365.941, 56555.00
1367.000, 56843.00
1368.059, 56764.83
1369.117, 56700.60
1370.175, 56848.00
1371.233, 56474.00
1372.291, 56607.00
1373.349, 56705.00
1374.407, 57086.00
1375.464, 56663.00
1376.522, 56703.00
1377.579, 57019.00
1378.636, 56857.60
1379.693, 57086.82
1380.750, 57214.02
1381.806, 57244.70
1382.863, 56889.71
1383.919, 57032.73
1384.975, 56976.18
1386.031, 56911.44
1387.087, 57124.55
1388.143, 56825.66
1389.199, 57034.37
1390.254, 57040.46
1391.309, 57139.28
1392.364, 57037.30
1393.419, 56997.34
1394.474, 56895.00
1395.529, 56639.00
1396.583, 56623.39
1397.638, 56496.00
1398.692, 56680.00
1399.746, 56482.00
1400.800, 56885.00
1401.853, 56624.00
1402.907, 57084.00
1403.960, 56982.00
1405.014, 57060.00
1406.067, 57225.22
1407.120, 57141.00
1408.173, 57500.00
1409.225, 57172.00
1410.278, 57528.00
1411.330, 57282.00
1412.383, 57634.00
1413.435, 57657.81
1414.487, 57606.03
1415.538, 57884.39
1416.590, 58085.33
1417.641, 58214.19
1418.693, 57982.02
1419.744, 58272.26
1420.795, 58387.43
1421.846, 58518.89
1422.897, 58952.73
1423.947, 58898.86
1424.998, 59377.28
1426.048, 60047.00
1427.098, 60117.00
1428.148, 60663.00
1429.198, 60807.00
1430.247, 61553.83
1431.297, 62713.00
1432.346, 63281.00
1433.396, 64203.00
1434.445, 65427.00
1435.494, 66345.00
1436.542, 66909.00
1437.591, 68443.00
1438.639, 68863.00
1439.688, 69941.00
1440.736, 70322.00
1441.784, 71052.00
1442.832, 71027.00
1443.880, 70921.00
1444.927, 71284.00
1445.975, 70500.00
1447.022, 70465.00
1448.069, 70772.00
1449.116, 70295.00
1450.163, 70442.00
1451.209, 70794.00
1452.256, 70754.00
1453.302, 70906.00
1454.348, 70325.00
1455.394, 70418.00
1456.440, 69885.00
1457.486, 69889.00
1458.532, 70105.00
1459.577, 69516.23
1460.623, 69021.12
1461.668, 68453.67
1462.713, 67818.48
1463.758, 66826.53
1464.802, 66362.09
1465.847, 65726.30
1466.891, 65111.79
1467.936, 64803.42
1468.980, 64012.45
1470.024, 63210.00
1471.067, 62986.00
1472.111, 62633.00
1473.155, 62283.00
1474.198, 62316.00
1475.241, 62135.00
1476.284, 62002.00
1477.327, 61842.00
1478.370, 61648.00
1479.413, 61961.00
1480.455, 61728.00
1481.497, 61947.00
1482.540, 61717.00
1483.582, 61923.00
1484.624, 61715.00
1485.665, 61137.00
1486.707, 60903.08
1487.748, 60599.00
1488.790, 60038.00
1489.831, 59465.00
1490.872, 59368.00
1491.912, 59444.00
1492.953, 59126.00
1493.994, 59079.00
1495.034, 59120.00
1496.074, 59006.00
1497.114, 58934.00
1498.154, 58952.62
1499.194, 58821.73
1500.234, 59011.00
1501.273, 58700.00
1502.313, 58831.00
1503.352, 58917.00
1504.391, 59130.00
1505.430, 59174.00
1506.468, 59194.00
1507.507, 59315.00
1508.545, 59157.94
1509.584, 58803.00
1510.622, 58858.00
1511.660, 58904.00
1512.698, 58771.00
1513.735, 58795.00
1514.773, 58677.00
1515.810, 58801.00
1516.848, 58871.00
1517.885, 59308.00
1518.922, 59174.00
1519.958, 59185.00
1520.995, 59402.00
1522.032, 59247.00
1523.068, 59271.00
1524.104, 59224.00
1525.140, 59124.00
1526.176, 59066.00
1527.212, 59085.60
1528.248, 59207.00
1529.283, 59131.00
1530.318, 59162.00
1531.353, 59142.00
1532.389, 59306.00
1533.423, 59178.00
1534.458, 59515.00
1535.493, 59285.00
1536.527, 59761.00
1537.561, 59862.00
1538.596, 59199.00
1539.630, 59928.00
1540.663, 59488.00
1541.697, 59992.00
1542.731, 59550.00
1543.764, 59536.00
1544.797, 59709.00
1545.830, 59460.00
1546.863, 59330.91
1547.896, 59700.54
1548.929, 59950.88
1549.961, 60087.31
1550.994, 59820.88
1552.026, 60035.10
1553.058, 60032.48
1554.090, 60004.43
1555.121, 60236.95
1556.153, 59940.24
1557.185, 60133.86
1558.216, 60107.64
1559.247, 60156.93
1560.278, 59988.18
1561.309, 60092.00
1562.340, 60314.00
1563.370, 60234.00
1564.401, 60269.00
1565.431, 60365.00
1566.461, 60222.00
1567.491, 60382.00
1568.521, 60394.00
1569.551, 60252.00
##END=



