##NAMES=Trilithionite
##RRUFFID=R040105
##IDEAL CHEMISTRY=KLi_1.5_Al_1.5_(Si_3_Al)O_10_F_2_
##LOCALITY=Brown Derby mine, Ohio City, Gunnison County, Colorado, USA
##OWNER=RRUFF
##SOURCE=University of Arizona Mineral Museum
##DESCRIPTION=Purple hexagonal tablet
##STATUS=The identification of this mineral has been confirmed by X-ray diffraction and chemical analysis
##URL=rruff.info/R040105
##MEASURED CHEMISTRY=(K_0.82_Li_0.14_Na_0.04_)(Li_0.53_Al_0.42_Mn_0.05_)_3_(Si_0.84_Al_0.17_)_4_O_10_((OH)_0.59_F_0.41_)_2_
##PIN_ID=L01837
##ORIENTATION=Laser parallel to -b* (0 -1 0). Fiducial mark perpendicular to laser is parallel to c [0 0 1]
139.0430, 17162.00
140.2710, 17154.00
141.5000, 17024.00
142.7280, 17397.00
143.9560, 17447.00
145.1840, 17702.00
146.4120, 17611.00
147.6390, 17676.00
148.8670, 17930.00
150.0940, 17715.00
151.3210, 17973.00
152.5490, 18202.00
153.7750, 18272.00
155.0020, 18309.00
156.2290, 18618.00
157.4550, 18537.00
158.6810, 18670.00
159.9080, 18684.00
161.1340, 18896.72
162.3590, 19253.00
163.5850, 19433.00
164.8110, 19833.00
166.0360, 20191.00
167.2610, 20503.00
168.4860, 20873.00
169.7110, 21259.00
170.9360, 21958.00
172.1610, 22631.00
173.3850, 23102.00
174.6100, 24043.00
175.8340, 24848.00
177.0580, 25683.00
178.2820, 26314.00
179.5050, 27419.00
180.7290, 28110.00
181.9520, 28312.00
183.1760, 28463.00
184.3990, 28778.00
185.6220, 28201.00
186.8450, 28013.00
188.0670, 27638.00
189.2900, 27215.00
190.5120, 26566.00
191.7340, 25971.00
192.9560, 25266.00
194.1780, 25086.00
195.4000, 24861.00
196.6220, 24412.00
197.8430, 24369.00
199.0640, 24078.00
200.2860, 23774.00
201.5070, 23911.00
202.7270, 23774.00
203.9480, 23485.00
205.1690, 23340.00
206.3890, 23127.00
207.6090, 23175.00
208.8290, 22966.00
210.0490, 23052.00
211.2690, 23199.00
212.4890, 23265.00
213.7080, 23195.00
214.9280, 23278.00
216.1470, 23252.00
217.3660, 23402.20
218.5850, 23686.00
219.8030, 23732.00
221.0220, 23857.00
222.2400, 23999.00
223.4590, 24074.00
224.6770, 24244.61
225.8950, 24505.00
227.1120, 24621.00
228.3300, 24896.00
229.5480, 25236.00
230.7650, 25203.00
231.9820, 25436.00
233.1990, 25730.00
234.4160, 26071.00
235.6330, 26160.00
236.8490, 26813.00
238.0660, 26659.00
239.2820, 27254.00
240.4980, 27335.00
241.7140, 27401.00
242.9300, 27530.00
244.1460, 27995.00
245.3610, 28063.00
246.5770, 28278.00
247.7920, 28513.00
249.0070, 28461.00
250.2220, 28812.00
251.4370, 28739.00
252.6510, 28948.00
253.8660, 29083.00
255.0800, 29194.00
256.2940, 29298.00
257.5080, 29190.00
258.7220, 29362.00
259.9360, 29768.00
261.1490, 29753.00
262.3630, 29659.00
263.5760, 29403.00
264.7890, 29234.00
266.0020, 29061.00
267.2150, 28615.00
268.4270, 28179.00
269.6400, 27507.00
270.8520, 27157.00
272.0640, 26543.00
273.2760, 25931.00
274.4880, 25554.00
275.7000, 25134.00
276.9120, 24831.00
278.1230, 24607.00
279.3340, 24318.00
280.5450, 24070.00
281.7560, 24005.00
282.9670, 23827.00
284.1780, 23388.00
285.3880, 23408.00
286.5980, 23292.00
287.8090, 23255.00
289.0190, 23213.00
290.2290, 23034.00
291.4380, 23017.00
292.6480, 22913.00
293.8570, 22837.10
295.0670, 23139.00
296.2760, 22839.00
297.4850, 22735.00
298.6930, 23000.00
299.9020, 22897.00
301.1110, 22914.00
302.3190, 22741.00
303.5270, 22978.00
304.7350, 22876.00
305.9430, 22921.00
307.1510, 23118.00
308.3580, 22963.00
309.5660, 22865.00
310.7730, 22852.00
311.9800, 22648.00
313.1870, 22797.00
314.3940, 22941.00
315.6010, 22865.00
316.8070, 22552.00
318.0130, 22758.00
319.2200, 22887.00
320.4260, 22689.00
321.6310, 22822.00
322.8370, 22726.00
324.0430, 22771.00
325.2480, 22686.00
326.4540, 22607.00
327.6590, 22882.00
328.8640, 22816.00
330.0680, 22614.00
331.2730, 22789.00
332.4780, 22982.00
333.6820, 22921.00
334.8860, 22877.00
336.0900, 22921.00
337.2940, 22855.00
338.4980, 22976.00
339.7010, 22886.00
340.9050, 22873.00
342.1080, 22913.00
343.3110, 22798.00
344.5140, 23004.00
345.7170, 22958.00
346.9200, 22966.00
348.1220, 23056.00
349.3240, 22965.00
350.5270, 23144.00
351.7290, 23090.00
352.9310, 23298.00
354.1320, 23041.00
355.3340, 23238.00
356.5350, 23232.00
357.7370, 23078.00
358.9380, 23110.00
360.1390, 23156.00
361.3400, 23157.06
362.5400, 23274.34
363.7410, 23336.00
364.9410, 23446.00
366.1410, 23647.00
367.3410, 23618.00
368.5410, 23386.00
369.7410, 23474.00
370.9400, 23635.00
372.1400, 23616.00
373.3390, 23752.00
374.5380, 23837.00
375.7370, 23813.00
376.9360, 23963.00
378.1350, 24043.00
379.3330, 24071.00
380.5310, 24033.00
381.7300, 24084.00
382.9280, 24130.00
384.1260, 24144.00
385.3230, 24041.00
386.5210, 24145.32
387.7180, 24204.00
388.9160, 24350.00
390.1130, 24353.00
391.3100, 24624.00
392.5060, 24549.00
393.7030, 24566.00
394.9000, 24767.00
396.0960, 24653.00
397.2920, 24792.49
398.4880, 24875.00
399.6840, 24920.00
400.8800, 24994.00
402.0750, 25003.00
403.2710, 25209.00
404.4660, 25039.00
405.6610, 25226.00
406.8560, 25097.00
408.0510, 25319.00
409.2450, 25226.00
410.4400, 25252.00
411.6340, 25357.00
412.8280, 25268.00
414.0220, 25267.89
415.2160, 25400.00
416.4100, 25180.00
417.6030, 25122.00
418.7970, 25142.00
419.9900, 25015.00
421.1830, 24911.00
422.3760, 24951.37
423.5690, 24913.75
424.7610, 25003.00
425.9540, 25035.00
427.1460, 25082.00
428.3380, 25267.00
429.5300, 25157.00
430.7220, 25206.00
431.9140, 25227.00
433.1050, 25436.00
434.2970, 25398.00
435.4880, 25695.00
436.6790, 25475.00
437.8700, 25632.00
439.0610, 25439.00
440.2510, 25509.00
441.4420, 25493.00
442.6320, 25697.00
443.8220, 25496.00
445.0120, 25755.00
446.2020, 25743.00
447.3910, 25853.00
448.5810, 25756.00
449.7700, 25860.00
450.9600, 25852.33
452.1490, 25714.00
453.3370, 25912.00
454.5260, 25910.00
455.7150, 26028.00
456.9030, 25991.00
458.0910, 25990.00
459.2800, 26063.00
460.4670, 25961.00
461.6550, 26241.00
462.8430, 26068.00
464.0300, 26256.00
465.2180, 26202.00
466.4050, 26331.00
467.5920, 26382.00
468.7790, 26234.00
469.9650, 26477.00
471.1520, 26350.00
472.3380, 26201.00
473.5250, 26441.00
474.7110, 26424.00
475.8970, 26579.00
477.0820, 26579.00
478.2680, 26469.00
479.4540, 26684.00
480.6390, 26708.00
481.8240, 26539.00
483.0090, 26727.00
484.1940, 26711.00
485.3780, 26813.00
486.5630, 26616.00
487.7470, 26615.00
488.9320, 26587.00
490.1160, 26499.00
491.3000, 26613.00
492.4830, 26677.00
493.6670, 26759.00
494.8500, 26506.00
496.0340, 26655.00
497.2170, 26747.00
498.4000, 26731.00
499.5820, 26912.00
500.7650, 26851.63
501.9480, 26949.00
503.1300, 26783.00
504.3120, 26787.00
505.4940, 26733.00
506.6760, 27021.00
507.8580, 27102.00
509.0390, 27096.00
510.2210, 26985.00
511.4020, 27202.00
512.5830, 27106.00
513.7640, 27211.00
514.9450, 27180.00
516.1250, 27354.00
517.3060, 27286.00
518.4860, 27418.00
519.6660, 27388.00
520.8460, 27363.00
522.0260, 27279.00
523.2060, 27447.00
524.3850, 27377.00
525.5650, 27720.00
526.7440, 27804.00
527.9230, 27806.00
529.1020, 27721.00
530.2810, 27683.00
531.4590, 28015.00
532.6380, 27918.00
533.8160, 28159.00
534.9940, 27926.00
536.1720, 27880.00
537.3500, 27881.00
538.5270, 28097.00
539.7050, 28022.00
540.8820, 28338.00
542.0590, 28128.00
543.2360, 28228.00
544.4130, 28238.00
545.5900, 28503.00
546.7660, 28519.00
547.9430, 28649.00
549.1190, 28582.00
550.2950, 28822.00
551.4710, 28951.00
552.6470, 29181.00
553.8220, 29114.00
554.9980, 29575.00
556.1730, 29438.00
557.3480, 29479.00
558.5230, 29821.00
559.6980, 29568.00
560.8730, 29771.00
562.0470, 29833.00
563.2220, 29987.00
564.3960, 30151.00
565.5700, 30220.00
566.7440, 30219.00
567.9170, 30276.00
569.0910, 30115.00
570.2640, 30202.00
571.4380, 29924.00
572.6110, 29820.00
573.7840, 29951.00
574.9570, 29812.00
576.1290, 29600.00
577.3020, 29782.00
578.4740, 29673.00
579.6460, 29604.00
580.8180, 29628.00
581.9900, 29441.00
583.1620, 29488.00
584.3330, 29442.00
585.5040, 29768.00
586.6760, 29265.00
587.8470, 29376.00
589.0180, 29528.00
590.1880, 29124.00
591.3590, 29530.00
592.5290, 29392.00
593.7000, 29519.00
594.8700, 29490.00
596.0400, 29514.00
597.2090, 29750.00
598.3790, 29687.00
599.5490, 29425.00
600.7180, 29455.00
601.8870, 29684.00
603.0560, 29669.00
604.2250, 29941.00
605.3940, 29784.00
606.5620, 30070.00
607.7300, 29950.00
608.8990, 29935.00
610.0670, 30195.00
611.2350, 30037.00
612.4020, 30137.00
613.5700, 30203.00
614.7370, 30086.00
615.9050, 30351.00
617.0720, 30262.23
618.2390, 30447.00
619.4060, 30237.00
620.5720, 30220.00
621.7390, 30173.00
622.9050, 30153.00
624.0710, 30241.00
625.2370, 30217.86
626.4030, 30267.11
627.5690, 30301.00
628.7340, 30319.00
629.9000, 30429.00
631.0650, 30404.00
632.2300, 30403.00
633.3950, 30563.00
634.5600, 30630.00
635.7240, 30643.84
636.8890, 30581.00
638.0530, 30739.00
639.2170, 30614.00
640.3810, 30791.00
641.5450, 30749.00
642.7080, 30801.00
643.8720, 30886.00
645.0350, 30885.00
646.1980, 31044.00
647.3610, 30886.00
648.5240, 31351.00
649.6870, 31017.00
650.8490, 31409.00
652.0120, 31271.00
653.1740, 31319.00
654.3360, 31187.00
655.4980, 31358.00
656.6600, 31406.00
657.8210, 31803.00
658.9830, 31579.00
660.1440, 31551.00
661.3050, 31573.00
662.4660, 31951.00
663.6270, 31834.00
664.7870, 32025.00
665.9480, 31821.00
667.1080, 32154.00
668.2680, 32121.00
669.4280, 32204.00
670.5880, 32267.00
671.7480, 31995.00
672.9070, 32284.00
674.0670, 32209.00
675.2260, 32418.00
676.3850, 32615.00
677.5440, 32545.00
678.7030, 32823.00
679.8610, 32737.00
681.0200, 32996.00
682.1780, 33303.00
683.3360, 33198.00
684.4940, 33621.00
685.6520, 33734.00
686.8090, 33801.00
687.9670, 34315.00
689.1240, 34389.00
690.2810, 34882.00
691.4380, 35147.00
692.5950, 35658.00
693.7520, 36058.00
694.9080, 36365.00
696.0650, 37041.00
697.2210, 37755.00
698.3770, 38232.00
699.5330, 39305.00
700.6880, 40203.00
701.8440, 41267.00
702.9990, 42879.00
704.1550, 44215.00
705.3100, 45588.00
706.4650, 47121.00
707.6190, 48746.00
708.7740, 49848.00
709.9290, 50636.00
711.0830, 50814.00
712.2370, 50610.00
713.3910, 49376.00
714.5450, 47600.00
715.6980, 45858.00
716.8520, 44190.00
718.0050, 42322.00
719.1580, 40546.00
720.3110, 39493.00
721.4640, 38393.00
722.6170, 37398.00
723.7700, 36886.00
724.9220, 36139.00
726.0740, 35760.00
727.2260, 35422.00
728.3780, 35052.00
729.5300, 34721.00
730.6810, 34477.00
731.8330, 34385.00
732.9840, 34088.00
734.1350, 34015.82
735.2860, 33725.00
736.4370, 33815.00
737.5880, 33818.00
738.7380, 33702.00
739.8880, 33806.00
741.0390, 33811.00
742.1890, 33836.00
743.3380, 33861.28
744.4880, 33898.14
745.6380, 33862.00
746.7870, 33921.00
747.9360, 33918.00
749.0850, 33781.00
750.2340, 33849.00
751.3830, 34103.00
752.5310, 33789.00
753.6800, 33921.00
754.8280, 34096.00
755.9760, 34043.00
757.1240, 34023.00
758.2720, 34049.00
759.4190, 33956.00
760.5670, 33957.00
761.7140, 33858.00
762.8610, 34104.00
764.0080, 33997.00
765.1550, 33674.00
766.3020, 33568.00
767.4480, 33839.00
768.5950, 33827.00
769.7410, 33699.00
770.8870, 33604.00
772.0330, 33626.00
773.1780, 33795.00
774.3240, 34009.00
775.4690, 33905.00
776.6140, 33793.00
777.7590, 33765.00
778.9040, 33763.00
780.0490, 34024.00
781.1940, 34089.00
782.3380, 34023.00
783.4820, 33741.00
784.6260, 34121.00
785.7700, 34045.00
786.9140, 34228.00
788.0580, 34143.00
789.2010, 34000.00
790.3450, 34164.00
791.4880, 34389.00
792.6310, 34190.00
793.7730, 34014.00
794.9160, 34156.00
796.0590, 34455.00
797.2010, 34145.00
798.3430, 34067.00
799.4850, 34364.00
800.6270, 34179.00
801.7690, 33961.00
802.9100, 34112.00
804.0520, 34197.00
805.1930, 34213.00
806.3340, 34066.00
807.4750, 34250.00
808.6160, 34253.00
809.7560, 34157.00
810.8970, 34435.00
812.0370, 34349.00
813.1770, 34325.00
814.3170, 34271.00
815.4570, 34276.00
816.5960, 34260.00
817.7360, 34235.00
818.8750, 34354.00
820.0140, 34367.00
821.1530, 34556.00
822.2920, 34544.00
823.4310, 34474.00
824.5690, 34746.00
825.7070, 34640.00
826.8460, 34495.00
827.9840, 34735.00
829.1220, 34516.00
830.2590, 34722.00
831.3970, 34861.00
832.5340, 34436.00
833.6710, 34733.00
834.8080, 34820.00
835.9450, 34839.00
837.0820, 34885.00
838.2190, 35069.00
839.3550, 35072.00
840.4910, 35157.00
841.6270, 35073.00
842.7630, 35174.00
843.8990, 35087.00
845.0350, 35379.00
846.1700, 35111.00
847.3060, 34922.00
848.4410, 35246.00
849.5760, 35271.00
850.7100, 35331.00
851.8450, 35304.00
852.9800, 35501.00
854.1140, 35604.00
855.2480, 35418.00
856.3820, 35565.00
857.5160, 35499.00
858.6500, 35465.00
859.7830, 35348.00
860.9170, 35693.00
862.0500, 35971.00
863.1830, 35505.00
864.3160, 35815.00
865.4480, 35578.00
866.5810, 35780.00
867.7130, 35885.00
868.8460, 35818.00
869.9780, 35896.00
871.1100, 35866.00
872.2410, 35919.00
873.3730, 35863.00
874.5050, 35977.00
875.6360, 36103.00
876.7670, 36144.00
877.8980, 36108.00
879.0290, 36009.00
880.1590, 36085.00
881.2900, 36238.00
882.4200, 36210.00
883.5500, 36034.00
884.6800, 36056.00
885.8100, 36440.00
886.9400, 36162.00
888.0690, 36326.00
889.1990, 36095.00
890.3280, 36396.00
891.4570, 36461.00
892.5860, 36336.00
893.7140, 36385.00
894.8430, 36420.00
895.9710, 36835.00
897.1000, 36692.00
898.2280, 36804.00
899.3560, 36545.00
900.4830, 36587.00
901.6110, 36595.00
902.7380, 36734.00
903.8660, 36719.00
904.9930, 36796.00
906.1200, 36988.00
907.2460, 36683.00
908.3730, 36772.00
909.5000, 36874.00
910.6260, 36956.00
911.7520, 36938.00
912.8780, 37014.06
914.0040, 36892.00
915.1290, 37061.00
916.2550, 37242.00
917.3800, 37243.00
918.5050, 37060.00
919.6300, 37298.00
920.7550, 36983.00
921.8800, 37249.00
923.0040, 37159.00
924.1290, 37093.00
925.2530, 37203.00
926.3770, 37469.00
927.5010, 37364.00
928.6250, 37414.00
929.7480, 37520.00
930.8720, 37377.00
931.9950, 37685.00
933.1180, 37622.00
934.2410, 37569.00
935.3640, 37807.00
936.4860, 37748.00
937.6090, 37858.00
938.7310, 37796.00
939.8530, 37685.00
940.9750, 37852.00
942.0970, 38122.00
943.2180, 38072.00
944.3400, 38131.00
945.4610, 37964.00
946.5820, 38002.66
947.7030, 38153.00
948.8240, 38015.00
949.9450, 37915.00
951.0650, 37988.00
952.1860, 38447.00
953.3060, 38115.00
954.4260, 38415.00
955.5460, 38447.00
956.6650, 38420.00
957.7850, 38533.00
958.9040, 38564.00
960.0230, 38680.00
961.1420, 38845.00
962.2610, 38598.00
963.3800, 38697.00
964.4990, 38869.00
965.6170, 38632.00
966.7350, 38759.00
967.8530, 38964.00
968.9710, 38504.00
970.0890, 38788.00
971.2070, 39154.00
972.3240, 38915.00
973.4410, 38969.00
974.5580, 39060.00
975.6750, 38915.00
976.7920, 39054.00
977.9090, 39459.00
979.0250, 39344.00
980.1410, 39346.00
981.2580, 39159.00
982.3740, 39224.00
983.4890, 39328.00
984.6050, 39317.00
985.7200, 39332.82
986.8360, 39427.00
987.9510, 39318.00
989.0660, 39288.00
990.1810, 39355.00
991.2950, 39405.00
992.4100, 39496.00
993.5240, 39390.00
994.6390, 39732.00
995.7530, 39863.00
996.8660, 39684.00
997.9800, 39967.00
999.0940, 40001.00
1000.207, 39887.00
1001.320, 40041.00
1002.433, 40046.00
1003.546, 40191.00
1004.659, 40175.00
1005.772, 40204.00
1006.884, 40019.00
1007.996, 40003.00
1009.108, 40243.00
1010.220, 40530.00
1011.332, 40119.00
1012.444, 40157.00
1013.555, 40547.00
1014.666, 40439.00
1015.777, 40431.00
1016.888, 40689.00
1017.999, 40412.00
1019.110, 40551.00
1020.220, 40345.00
1021.331, 40362.00
1022.441, 40789.00
1023.551, 41095.00
1024.661, 40668.00
1025.770, 40637.00
1026.880, 40783.00
1027.989, 40782.00
1029.098, 41005.00
1030.207, 41006.00
1031.316, 40912.00
1032.425, 41053.00
1033.533, 40879.00
1034.642, 40927.00
1035.750, 41044.00
1036.858, 41306.00
1037.966, 41260.00
1039.073, 41408.09
1040.181, 41290.00
1041.288, 41531.00
1042.396, 41348.00
1043.503, 41360.00
1044.610, 41137.00
1045.716, 41207.49
1046.823, 41440.00
1047.929, 41436.00
1049.036, 41599.00
1050.142, 41972.00
1051.248, 41901.00
1052.353, 41720.00
1053.459, 42353.00
1054.564, 41937.00
1055.670, 41920.00
1056.775, 42335.00
1057.880, 42271.00
1058.985, 42540.00
1060.089, 42290.00
1061.194, 42331.00
1062.298, 42454.00
1063.402, 42727.00
1064.506, 43031.00
1065.610, 42696.00
1066.713, 42934.00
1067.817, 42718.00
1068.920, 43020.00
1070.023, 43193.00
1071.126, 43139.00
1072.229, 43136.00
1073.332, 43303.00
1074.435, 43437.00
1075.537, 43388.00
1076.639, 43621.00
1077.741, 43681.95
1078.843, 43708.83
1079.945, 43838.00
1081.046, 43745.00
1082.148, 43633.00
1083.249, 43583.00
1084.350, 43960.00
1085.451, 44040.00
1086.551, 43979.00
1087.652, 43972.00
1088.752, 43744.00
1089.853, 44258.00
1090.953, 43945.00
1092.053, 44218.00
1093.152, 44259.00
1094.252, 44420.00
1095.351, 44410.00
1096.451, 44341.00
1097.550, 44403.00
1098.649, 44560.00
1099.748, 44648.00
1100.846, 44805.00
1101.945, 44915.00
1103.043, 44937.00
1104.141, 44774.00
1105.239, 44839.00
1106.337, 45131.00
1107.434, 44907.00
1108.532, 45244.00
1109.629, 45180.00
1110.726, 45333.00
1111.823, 45178.00
1112.920, 45362.00
1114.017, 45722.00
1115.113, 45637.00
1116.210, 46072.00
1117.306, 45998.00
1118.402, 45920.00
1119.498, 46178.00
1120.593, 45898.00
1121.689, 46331.00
1122.784, 46714.00
1123.879, 46581.00
1124.974, 46772.00
1126.069, 46937.00
1127.164, 46852.00
1128.259, 46795.00
1129.353, 47052.00
1130.447, 46942.00
1131.541, 46929.00
1132.635, 47366.00
1133.729, 47115.00
1134.822, 46904.00
1135.916, 47151.00
1137.009, 47107.00
1138.102, 46563.00
1139.195, 46508.00
1140.288, 46154.00
1141.380, 45844.00
1142.473, 45685.00
1143.565, 45311.00
1144.657, 45255.00
1145.749, 45039.00
1146.841, 44998.00
1147.932, 44590.00
1149.024, 44421.00
1150.115, 44370.00
1151.206, 44623.00
1152.297, 44142.00
1153.388, 44250.00
1154.479, 44211.00
1155.569, 44142.00
1156.659, 44166.00
1157.750, 44237.00
1158.839, 44167.00
1159.929, 44177.00
1161.019, 44165.83
1162.108, 44294.00
1163.198, 44126.00
1164.287, 44340.00
1165.376, 44345.00
1166.465, 44350.00
1167.553, 44572.00
1168.642, 44396.00
1169.730, 44467.00
1170.818, 44347.00
1171.906, 44366.00
1172.994, 44535.00
1174.082, 44518.00
1175.170, 44649.00
1176.257, 44422.00
1177.344, 44583.00
1178.431, 44623.00
1179.518, 44568.00
1180.605, 44200.00
1181.691, 44761.00
1182.778, 44669.00
1183.864, 45002.00
1184.950, 44634.00
1186.036, 44747.00
1187.122, 44756.00
1188.207, 45211.00
1189.292, 44751.00
1190.378, 44896.00
1191.463, 45097.00
1192.548, 44811.00
1193.632, 45024.00
1194.717, 45226.00
1195.801, 45010.00
1196.886, 45136.00
1197.970, 45264.00
1199.054, 44899.00
1200.137, 45331.00
1201.221, 45494.00
1202.305, 45358.00
1203.388, 45408.00
1204.471, 44979.00
1205.554, 45201.00
1206.637, 45257.00
1207.719, 45271.00
1208.802, 45579.00
1209.884, 45582.60
1210.966, 45468.00
1212.048, 45742.00
1213.130, 45647.00
1214.212, 45636.00
1215.293, 45504.00
1216.374, 45557.00
1217.456, 45640.00
1218.536, 45986.00
1219.617, 45708.00
1220.698, 45687.00
1221.778, 45929.00
1222.859, 45796.00
1223.939, 45726.00
1225.019, 45848.00
1226.099, 45901.00
1227.178, 45897.00
1228.258, 46004.00
1229.337, 46173.00
1230.417, 46100.00
1231.496, 46318.00
1232.574, 45958.00
1233.653, 45942.00
1234.732, 46128.00
1235.810, 45889.00
1236.888, 46332.00
1237.966, 46359.00
1239.044, 46245.00
1240.122, 46153.00
1241.199, 46617.00
1242.277, 46213.00
1243.354, 46528.00
1244.431, 46491.00
1245.508, 46590.00
1246.585, 46456.00
1247.661, 46713.00
1248.738, 46476.00
1249.814, 46485.00
1250.890, 46733.00
1251.966, 46712.00
1253.042, 46371.00
1254.117, 46687.00
1255.193, 46614.00
1256.268, 46742.00
1257.343, 46690.00
1258.418, 46991.00
1259.493, 47138.00
1260.567, 46825.00
1261.642, 46961.00
1262.716, 46760.00
1263.790, 46809.00
1264.864, 46978.00
1265.938, 47000.00
1267.011, 47113.00
1268.085, 47146.33
1269.158, 47110.00
1270.231, 47201.00
1271.304, 47125.00
1272.377, 47178.00
1273.450, 46918.00
1274.522, 47063.00
1275.594, 47559.00
1276.666, 47172.00
1277.738, 47417.00
1278.810, 47556.00
1279.882, 47186.00
1280.953, 47556.00
1282.025, 47589.00
1283.096, 47370.00
1284.167, 47548.00
1285.238, 47444.00
1286.308, 47425.00
1287.379, 47444.00
1288.449, 47623.00
1289.519, 47567.00
1290.589, 47634.00
1291.659, 47586.00
1292.729, 47791.00
1293.798, 47560.00
1294.868, 47810.00
1295.937, 47982.00
1297.006, 47983.00
1298.075, 47610.00
1299.143, 47994.00
1300.212, 47921.00
1301.280, 47919.00
1302.348, 48026.00
1303.416, 48183.00
1304.484, 48019.00
1305.552, 48130.00
1306.620, 48009.00
1307.687, 47804.00
1308.754, 48181.00
1309.821, 48215.00
1310.888, 48154.00
1311.955, 48262.00
1313.021, 48463.00
1314.088, 48383.00
1315.154, 48325.00
1316.220, 48502.00
1317.286, 48725.00
1318.352, 48477.00
1319.417, 48431.00
1320.483, 48876.00
1321.548, 48382.00
1322.613, 48680.00
1323.678, 48625.00
1324.743, 48723.00
1325.807, 48930.00
1326.872, 48915.00
1327.936, 48970.00
1329.000, 49029.71
1330.064, 48972.00
1331.128, 49091.00
1332.191, 49082.00
1333.255, 49151.00
1334.318, 48903.00
1335.381, 49306.00
1336.444, 49052.00
1337.507, 49159.00
1338.569, 49191.00
1339.632, 49353.00
1340.694, 49329.00
1341.756, 49173.00
1342.818, 49302.00
1343.880, 49242.00
1344.941, 49227.37
1346.003, 49574.00
1347.064, 49278.00
1348.125, 49237.00
1349.186, 49401.00
1350.247, 49651.00
1351.308, 49479.00
1352.368, 49377.00
1353.428, 49681.00
1354.489, 49276.00
1355.549, 49634.00
1356.608, 49475.00
1357.668, 49621.00
1358.727, 49762.00
1359.787, 49695.00
1360.846, 49981.00
1361.905, 49574.00
1362.964, 49823.00
1364.022, 49885.00
1365.081, 49988.00
1366.139, 49819.00
1367.197, 49957.00
1368.255, 49959.00
1369.313, 49935.00
1370.371, 50220.00
1371.428, 50007.00
1372.486, 50272.00
1373.543, 50142.00
1374.600, 50099.00
1375.657, 50005.00
1376.713, 50284.00
1377.770, 50257.00
1378.826, 50449.00
1379.882, 50352.00
1380.938, 50143.00
1381.994, 50386.00
1383.050, 50318.00
1384.106, 50307.00
1385.161, 50367.00
1386.216, 50301.00
1387.271, 50565.00
1388.326, 50372.00
1389.381, 50350.00
1390.435, 50793.00
1391.490, 50439.00
1392.544, 50754.00
1393.598, 50762.00
1394.652, 50379.00
1395.705, 50673.00
1396.759, 50731.00
1397.812, 50481.00
1398.866, 50709.00
1399.919, 50733.00
1400.972, 50977.00
1402.024, 50868.00
1403.077, 51099.00
1404.129, 50859.00
1405.181, 51067.00
1406.233, 51208.00
1407.285, 51000.00
1408.337, 51209.00
1409.389, 50929.00
1410.440, 51055.00
1411.491, 51148.00
1412.542, 51273.00
1413.593, 51345.00
1414.644, 51231.00
1415.695, 51445.00
1416.745, 51471.00
1417.795, 51190.00
1418.845, 51327.00
1419.895, 51584.00
1420.945, 51559.00
1421.995, 51800.00
1423.044, 51515.00
1424.093, 51391.00
1425.142, 51693.00
1426.191, 51920.00
1427.240, 51364.00
1428.289, 51757.00
1429.337, 51757.00
1430.385, 51649.00
1431.433, 51805.00
1432.481, 51821.00
1433.529, 51606.00
1434.577, 51888.00
1435.624, 51814.00
1436.672, 51902.00
1437.719, 51765.00
1438.766, 51876.60
1439.812, 52097.00
1440.859, 52026.00
1441.905, 52229.00
1442.952, 52268.00
1443.998, 51910.00
1445.044, 51876.00
1446.090, 51913.00
1447.135, 52279.00
1448.181, 52354.00
1449.226, 52323.00
1450.271, 52492.00
1451.316, 52302.00
1452.361, 52262.00
1453.405, 52529.00
1454.450, 52462.00
1455.494, 52653.00
1456.538, 52426.00
1457.582, 52573.00
1458.626, 52556.00
1459.670, 52407.00
1460.713, 52349.00
1461.757, 52686.00
1462.800, 52664.00
1463.843, 52428.00
1464.886, 53007.00
1465.928, 52578.00
1466.971, 52662.00
1468.013, 52873.00
1469.055, 53135.00
1470.097, 52635.00
1471.139, 52974.00
1472.181, 53005.00
1473.222, 52852.00
1474.263, 52998.00
1475.305, 53075.00
1476.346, 52882.00
1477.386, 53170.00
1478.427, 53366.00
1479.468, 53313.00
1480.508, 53132.00
1481.548, 53150.00
1482.588, 53288.00
1483.628, 53185.00
1484.668, 53437.00
1485.707, 53136.00
1486.747, 53176.00
1487.786, 53480.00
1488.825, 53222.00
1489.864, 53432.00
1490.902, 53472.00
1491.941, 53567.00
1492.979, 53713.00
1494.017, 53622.00
1495.055, 53619.00
1496.093, 53353.00
1497.131, 53813.00
1498.168, 53904.00
1499.206, 53738.00
1500.243, 53667.00
1501.280, 53447.00
1502.317, 53867.00
1503.354, 53798.00
1504.390, 53887.00
1505.426, 53786.00
1506.463, 53783.00
1507.499, 54088.00
1508.535, 53894.00
1509.570, 53995.00
1510.606, 53817.00
1511.641, 54286.00
1512.676, 53836.00
1513.711, 53995.00
1514.746, 54537.00
1515.781, 54351.00
1516.816, 54162.00
1517.850, 54018.00
1518.884, 54362.00
1519.918, 54420.00
1520.952, 54005.00
1521.986, 54478.00
1523.019, 54439.00
1524.053, 54319.00
1525.086, 54368.00
1526.119, 54349.00
1527.152, 54589.00
1528.185, 54431.00
1529.217, 54547.00
1530.250, 54444.00
1531.282, 54720.00
1532.314, 54714.00
1533.346, 54524.00
1534.377, 54701.00
1535.409, 54882.00
1536.440, 54881.00
1537.472, 54979.38
1538.503, 54997.00
1539.534, 55011.00
1540.564, 55276.00
1541.595, 55286.21
1542.625, 55351.00
1543.656, 55223.00
1544.686, 55124.00
1545.716, 55157.00
1546.745, 55100.00
1547.775, 55249.00
1548.804, 55137.00
1549.834, 55184.00
1550.863, 55431.00
1551.892, 55292.00
1552.920, 55464.00
1553.949, 55347.00
1554.977, 55361.00
1556.006, 55347.00
1557.034, 55404.00
1558.062, 55439.09
1559.089, 55543.00
1560.117, 55573.00
1561.144, 55618.00
1562.172, 55721.00
1563.199, 55698.00
1564.226, 55501.00
1565.252, 55575.00
1566.279, 55897.00
1567.305, 55560.00
1568.332, 55651.00
1569.358, 55826.00
1570.384, 55757.00
1571.409, 55945.00
1572.435, 56251.00
##END=



