##NAMES=Trilithionite
##RRUFFID=R040105
##IDEAL CHEMISTRY=KLi_1.5_Al_1.5_(Si_3_Al)O_10_F_2_
##LOCALITY=Brown Derby mine, Ohio City, Gunnison County, Colorado, USA
##OWNER=RRUFF
##SOURCE=University of Arizona Mineral Museum
##DESCRIPTION=Purple hexagonal tablet
##STATUS=The identification of this mineral has been confirmed by X-ray diffraction and chemical analysis
##URL=rruff.info/R040105
##MEASURED CHEMISTRY=(K_0.82_Li_0.14_Na_0.04_)(Li_0.53_Al_0.42_Mn_0.05_)_3_(Si_0.84_Al_0.17_)_4_O_10_((OH)_0.59_F_0.41_)_2_
##PIN_ID=L00110
##ORIENTATION=Laser parallel to a* (1 0 0). Fiducial mark perpendicular to laser is parallel to b [0 1 0]
139.0430, 16859.00
140.2710, 16968.00
141.5000, 17003.00
142.7280, 17067.00
143.9560, 17075.00
145.1840, 17147.00
146.4120, 17191.00
147.6390, 17290.00
148.8670, 17184.00
150.0940, 17427.00
151.3210, 17324.00
152.5490, 17510.00
153.7750, 17449.00
155.0020, 17526.00
156.2290, 17599.00
157.4550, 17564.00
158.6810, 17659.00
159.9080, 17693.00
161.1340, 17755.00
162.3590, 17657.00
163.5850, 17807.00
164.8110, 17934.00
166.0360, 18139.00
167.2610, 18104.00
168.4860, 18076.00
169.7110, 18341.00
170.9360, 18298.00
172.1610, 18446.00
173.3850, 18628.00
174.6100, 18641.00
175.8340, 18730.00
177.0580, 18801.00
178.2820, 18842.00
179.5050, 18888.92
180.7290, 18835.00
181.9520, 18920.00
183.1760, 19037.00
184.3990, 19012.00
185.6220, 19147.00
186.8450, 19112.33
188.0670, 19090.00
189.2900, 19033.00
190.5120, 18958.00
191.7340, 18847.00
192.9560, 19156.00
194.1780, 19094.00
195.4000, 19099.00
196.6220, 19052.00
197.8430, 18977.00
199.0640, 19069.00
200.2860, 19056.00
201.5070, 19080.00
202.7270, 19031.00
203.9480, 19058.64
205.1690, 19055.21
206.3890, 19062.00
207.6090, 19059.00
208.8290, 19009.00
210.0490, 18987.00
211.2690, 19140.00
212.4890, 19004.00
213.7080, 19100.00
214.9280, 19133.00
216.1470, 19358.00
217.3660, 19268.00
218.5850, 19261.00
219.8030, 19212.00
221.0220, 19443.00
222.2400, 19313.00
223.4590, 19483.00
224.6770, 19509.00
225.8950, 19540.00
227.1120, 19523.00
228.3300, 19661.00
229.5480, 19686.00
230.7650, 19732.00
231.9820, 19870.00
233.1990, 20029.00
234.4160, 20065.00
235.6330, 20250.00
236.8490, 20284.00
238.0660, 20488.00
239.2820, 20603.00
240.4980, 20630.00
241.7140, 20751.00
242.9300, 20776.00
244.1460, 20855.00
245.3610, 21003.00
246.5770, 21279.00
247.7920, 21299.00
249.0070, 21143.00
250.2220, 21453.00
251.4370, 21710.00
252.6510, 21590.00
253.8660, 22001.00
255.0800, 22172.00
256.2940, 22161.00
257.5080, 22295.00
258.7220, 22661.00
259.9360, 22626.00
261.1490, 22861.00
262.3630, 22708.00
263.5760, 22372.00
264.7890, 22471.00
266.0020, 22431.00
267.2150, 22156.00
268.4270, 22083.00
269.6400, 21783.00
270.8520, 21797.00
272.0640, 21522.00
273.2760, 21382.00
274.4880, 21323.00
275.7000, 21345.00
276.9120, 21256.00
278.1230, 21218.20
279.3340, 21096.00
280.5450, 21118.00
281.7560, 20989.00
282.9670, 20973.00
284.1780, 20974.00
285.3880, 20913.72
286.5980, 20903.00
287.8090, 20869.00
289.0190, 20945.00
290.2290, 20929.00
291.4380, 21009.00
292.6480, 21012.00
293.8570, 21052.00
295.0670, 20980.00
296.2760, 20980.00
297.4850, 21226.00
298.6930, 21175.00
299.9020, 21191.00
301.1110, 21276.00
302.3190, 21198.00
303.5270, 21145.00
304.7350, 21179.00
305.9430, 21168.00
307.1510, 21246.00
308.3580, 21198.00
309.5660, 21290.00
310.7730, 21093.00
311.9800, 21295.00
313.1870, 21232.00
314.3940, 21255.00
315.6010, 21409.00
316.8070, 21333.00
318.0130, 21490.00
319.2200, 21423.00
320.4260, 21345.00
321.6310, 21312.00
322.8370, 21372.00
324.0430, 21336.55
325.2480, 21368.20
326.4540, 21374.00
327.6590, 21442.00
328.8640, 21487.00
330.0680, 21582.00
331.2730, 21419.00
332.4780, 21423.00
333.6820, 21500.00
334.8860, 21470.00
336.0900, 21650.00
337.2940, 21698.00
338.4980, 21572.00
339.7010, 21693.00
340.9050, 21663.00
342.1080, 21651.00
343.3110, 21707.00
344.5140, 21693.00
345.7170, 21644.00
346.9200, 21580.00
348.1220, 21766.00
349.3240, 21696.00
350.5270, 21800.00
351.7290, 21816.00
352.9310, 21916.00
354.1320, 21991.00
355.3340, 22098.00
356.5350, 22101.29
357.7370, 22128.00
358.9380, 22068.00
360.1390, 22128.00
361.3400, 22055.00
362.5400, 22096.26
363.7410, 22096.00
364.9410, 22194.00
366.1410, 22294.00
367.3410, 22431.00
368.5410, 22484.00
369.7410, 22528.00
370.9400, 22450.00
372.1400, 22463.00
373.3390, 22566.00
374.5380, 22712.00
375.7370, 22413.00
376.9360, 22747.00
378.1350, 22655.00
379.3330, 22656.00
380.5310, 22867.00
381.7300, 22798.00
382.9280, 22945.00
384.1260, 23128.00
385.3230, 22951.00
386.5210, 23153.00
387.7180, 23144.00
388.9160, 23257.00
390.1130, 23351.00
391.3100, 23265.00
392.5060, 23238.00
393.7030, 23419.00
394.9000, 23559.00
396.0960, 23521.00
397.2920, 23621.00
398.4880, 23704.00
399.6840, 24157.00
400.8800, 23809.00
402.0750, 23971.00
403.2710, 24109.00
404.4660, 23919.00
405.6610, 23997.00
406.8560, 24052.00
408.0510, 23954.00
409.2450, 24139.00
410.4400, 23948.00
411.6340, 24114.00
412.8280, 24251.00
414.0220, 23927.00
415.2160, 24136.00
416.4100, 23866.00
417.6030, 23707.00
418.7970, 23868.00
419.9900, 24005.00
421.1830, 23808.00
422.3760, 24088.00
423.5690, 23884.00
424.7610, 24020.00
425.9540, 23989.00
427.1460, 23949.00
428.3380, 24033.00
429.5300, 24128.00
430.7220, 24007.00
431.9140, 24223.00
433.1050, 24060.00
434.2970, 24169.00
435.4880, 24139.00
436.6790, 24241.00
437.8700, 24247.00
439.0610, 24347.00
440.2510, 24274.00
441.4420, 24226.00
442.6320, 24408.00
443.8220, 24363.00
445.0120, 24348.00
446.2020, 24302.00
447.3910, 24362.76
448.5810, 24592.00
449.7700, 24529.00
450.9600, 24633.00
452.1490, 24780.00
453.3370, 24641.00
454.5260, 24562.00
455.7150, 24675.00
456.9030, 24662.00
458.0910, 24667.00
459.2800, 24768.34
460.4670, 24676.00
461.6550, 24926.00
462.8430, 25033.00
464.0300, 25107.00
465.2180, 24914.00
466.4050, 25238.00
467.5920, 24874.00
468.7790, 25006.00
469.9650, 25073.00
471.1520, 25179.00
472.3380, 25257.26
473.5250, 25322.00
474.7110, 25338.00
475.8970, 25482.00
477.0820, 25391.00
478.2680, 25534.00
479.4540, 25216.00
480.6390, 25450.00
481.8240, 25228.00
483.0090, 25101.00
484.1940, 25368.00
485.3780, 25391.00
486.5630, 25279.00
487.7470, 25360.00
488.9320, 25145.00
490.1160, 25449.00
491.3000, 25351.00
492.4830, 25561.00
493.6670, 25318.00
494.8500, 25774.00
496.0340, 26123.00
497.2170, 25294.00
498.4000, 25321.00
499.5820, 25456.00
500.7650, 25331.00
501.9480, 25531.00
503.1300, 25663.00
504.3120, 25377.00
505.4940, 25567.00
506.6760, 25621.00
507.8580, 25647.00
509.0390, 25475.00
510.2210, 25629.00
511.4020, 25576.74
512.5830, 25553.00
513.7640, 25599.00
514.9450, 25739.00
516.1250, 25733.00
517.3060, 25911.00
518.4860, 25934.00
519.6660, 25999.00
520.8460, 26167.00
522.0260, 25978.00
523.2060, 25938.00
524.3850, 26066.00
525.5650, 26027.00
526.7440, 26103.00
527.9230, 26302.00
529.1020, 26076.00
530.2810, 26337.00
531.4590, 26342.00
532.6380, 26349.00
533.8160, 26575.00
534.9940, 26636.00
536.1720, 26625.00
537.3500, 26689.00
538.5270, 26711.00
539.7050, 26835.00
540.8820, 26841.00
542.0590, 26967.00
543.2360, 26830.00
544.4130, 27091.00
545.5900, 27101.00
546.7660, 26949.00
547.9430, 27022.00
549.1190, 27302.00
550.2950, 27139.00
551.4710, 27291.00
552.6470, 27325.00
553.8220, 27631.00
554.9980, 27496.00
556.1730, 27604.00
557.3480, 27766.00
558.5230, 27705.00
559.6980, 27825.00
560.8730, 27946.00
562.0470, 27897.00
563.2220, 27935.00
564.3960, 27885.00
565.5700, 27863.00
566.7440, 28049.00
567.9170, 27719.00
569.0910, 28062.00
570.2640, 27684.00
571.4380, 27913.00
572.6110, 27917.00
573.7840, 27865.82
574.9570, 28022.00
576.1290, 27805.00
577.3020, 27868.00
578.4740, 27571.00
579.6460, 27809.00
580.8180, 27756.00
581.9900, 27601.00
583.1620, 27864.00
584.3330, 27865.00
585.5040, 27927.00
586.6760, 27729.00
587.8470, 27579.00
589.0180, 27822.00
590.1880, 27799.00
591.3590, 27953.00
592.5290, 27886.00
593.7000, 28142.00
594.8700, 27863.00
596.0400, 28163.00
597.2090, 27974.00
598.3790, 28027.00
599.5490, 28039.00
600.7180, 27960.62
601.8870, 28114.81
603.0560, 27936.00
604.2250, 28294.00
605.3940, 28388.00
606.5620, 28323.00
607.7300, 28279.00
608.8990, 28569.00
610.0670, 28660.00
611.2350, 28426.00
612.4020, 28701.00
613.5700, 28491.00
614.7370, 28661.00
615.9050, 28735.00
617.0720, 28828.00
618.2390, 28724.00
619.4060, 28685.00
620.5720, 28685.00
621.7390, 28592.00
622.9050, 28817.00
624.0710, 28716.00
625.2370, 28876.00
626.4030, 28787.00
627.5690, 28754.00
628.7340, 28710.00
629.9000, 28774.00
631.0650, 28803.73
632.2300, 28920.00
633.3950, 28971.00
634.5600, 28987.00
635.7240, 29101.00
636.8890, 29195.00
638.0530, 29012.00
639.2170, 29299.00
640.3810, 29120.00
641.5450, 29107.00
642.7080, 28938.00
643.8720, 29314.00
645.0350, 29275.00
646.1980, 29338.00
647.3610, 29255.00
648.5240, 29365.00
649.6870, 29495.00
650.8490, 29461.00
652.0120, 29508.00
653.1740, 29349.00
654.3360, 29633.00
655.4980, 29427.00
656.6600, 29588.00
657.8210, 29842.00
658.9830, 29713.00
660.1440, 29845.00
661.3050, 29791.00
662.4660, 30050.00
663.6270, 30000.00
664.7870, 30080.00
665.9480, 30248.00
667.1080, 30238.11
668.2680, 30211.00
669.4280, 30368.00
670.5880, 30339.00
671.7480, 30441.00
672.9070, 30406.00
674.0670, 30569.00
675.2260, 30608.05
676.3850, 30708.00
677.5440, 30778.00
678.7030, 30982.00
679.8610, 31116.00
681.0200, 31195.00
682.1780, 31196.00
683.3360, 31461.00
684.4940, 31793.00
685.6520, 31797.00
686.8090, 31949.00
687.9670, 32327.00
689.1240, 32756.00
690.2810, 32755.00
691.4380, 33231.00
692.5950, 33440.00
693.7520, 33685.00
694.9080, 34198.00
696.0650, 34676.04
697.2210, 35349.00
698.3770, 35928.00
699.5330, 36748.00
700.6880, 37422.00
701.8440, 38322.00
702.9990, 39066.00
704.1550, 39835.00
705.3100, 40184.00
706.4650, 40713.00
707.6190, 41024.00
708.7740, 40999.00
709.9290, 40732.69
711.0830, 40062.00
712.2370, 39488.00
713.3910, 38579.00
714.5450, 37557.00
715.6980, 36731.00
716.8520, 35795.00
718.0050, 35422.00
719.1580, 34867.00
720.3110, 34377.00
721.4640, 33858.00
722.6170, 33660.00
723.7700, 33184.00
724.9220, 33098.00
726.0740, 32809.00
727.2260, 32669.00
728.3780, 32476.00
729.5300, 32593.00
730.6810, 32391.00
731.8330, 32342.00
732.9840, 32442.00
734.1350, 32173.00
735.2860, 32522.00
736.4370, 32361.00
737.5880, 32539.00
738.7380, 32174.00
739.8880, 32533.00
741.0390, 32457.00
742.1890, 32612.00
743.3380, 32402.00
744.4880, 32225.00
745.6380, 32515.00
746.7870, 32482.00
747.9360, 32469.00
749.0850, 32459.00
750.2340, 32561.00
751.3830, 32503.00
752.5310, 32593.00
753.6800, 32727.00
754.8280, 32354.00
755.9760, 32783.00
757.1240, 32564.00
758.2720, 32685.00
759.4190, 32630.00
760.5670, 32536.00
761.7140, 32794.00
762.8610, 32469.00
764.0080, 32871.00
765.1550, 32782.00
766.3020, 32865.00
767.4480, 32623.00
768.5950, 33035.00
769.7410, 32841.00
770.8870, 32898.00
772.0330, 32938.00
773.1780, 32810.00
774.3240, 33019.00
775.4690, 33170.00
776.6140, 32871.00
777.7590, 33029.00
778.9040, 32985.00
780.0490, 32978.00
781.1940, 33074.00
782.3380, 33073.00
783.4820, 33176.00
784.6260, 33251.00
785.7700, 33209.00
786.9140, 33219.00
788.0580, 33327.00
789.2010, 33203.00
790.3450, 33350.00
791.4880, 33096.00
792.6310, 33108.00
793.7730, 33114.00
794.9160, 33458.00
796.0590, 33311.00
797.2010, 33306.00
798.3430, 33413.00
799.4850, 33331.00
800.6270, 33372.00
801.7690, 33502.00
802.9100, 33247.00
804.0520, 33464.00
805.1930, 33456.00
806.3340, 33651.00
807.4750, 33697.00
808.6160, 33500.00
809.7560, 33516.00
810.8970, 33459.00
812.0370, 33653.00
813.1770, 33550.00
814.3170, 33735.00
815.4570, 33599.00
816.5960, 33821.00
817.7360, 33884.00
818.8750, 33887.00
820.0140, 33896.00
821.1530, 34093.00
822.2920, 34186.00
823.4310, 34060.00
824.5690, 34184.00
825.7070, 33997.00
826.8460, 34005.00
827.9840, 34386.00
829.1220, 34168.00
830.2590, 34182.00
831.3970, 34354.00
832.5340, 34188.00
833.6710, 34219.00
834.8080, 34378.00
835.9450, 34475.00
837.0820, 34385.00
838.2190, 34363.00
839.3550, 34422.00
840.4910, 34339.00
841.6270, 34526.00
842.7630, 34641.00
843.8990, 34717.00
845.0350, 34771.00
846.1700, 34802.55
847.3060, 34777.00
848.4410, 34835.00
849.5760, 34921.00
850.7100, 34993.00
851.8450, 35050.00
852.9800, 34816.00
854.1140, 34884.00
855.2480, 34813.00
856.3820, 35164.00
857.5160, 35101.00
858.6500, 35000.00
859.7830, 35130.00
860.9170, 35077.00
862.0500, 35379.00
863.1830, 35037.00
864.3160, 35206.00
865.4480, 35252.00
866.5810, 35551.00
867.7130, 35582.11
868.8460, 35456.00
869.9780, 35687.00
871.1100, 35621.00
872.2410, 35535.00
873.3730, 35638.00
874.5050, 35696.00
875.6360, 35677.00
876.7670, 35682.00
877.8980, 35601.00
879.0290, 35882.00
880.1590, 35739.00
881.2900, 35690.00
882.4200, 35891.00
883.5500, 35861.00
884.6800, 36049.00
885.8100, 35999.00
886.9400, 36066.93
888.0690, 36066.00
889.1990, 36114.00
890.3280, 36147.00
891.4570, 36111.00
892.5860, 36159.95
893.7140, 36220.00
894.8430, 36198.00
895.9710, 36172.00
897.1000, 36181.00
898.2280, 36338.00
899.3560, 36293.00
900.4830, 36409.00
901.6110, 36328.00
902.7380, 36483.00
903.8660, 36346.00
904.9930, 36466.00
906.1200, 36858.00
907.2460, 36604.00
908.3730, 36768.00
909.5000, 36761.00
910.6260, 36723.00
911.7520, 36745.00
912.8780, 36828.00
914.0040, 36767.00
915.1290, 36922.00
916.2550, 36724.00
917.3800, 36986.00
918.5050, 37445.00
919.6300, 37268.00
920.7550, 37124.00
921.8800, 37242.00
923.0040, 36901.00
924.1290, 37355.00
925.2530, 37419.00
926.3770, 37315.00
927.5010, 37342.00
928.6250, 37330.00
929.7480, 37500.00
930.8720, 37514.00
931.9950, 37650.00
933.1180, 37548.00
934.2410, 37776.00
935.3640, 37653.00
936.4860, 37592.00
937.6090, 37561.00
938.7310, 37734.00
939.8530, 37771.00
940.9750, 37719.00
942.0970, 37841.00
943.2180, 37782.00
944.3400, 38063.00
945.4610, 37919.00
946.5820, 38131.00
947.7030, 38028.00
948.8240, 38324.00
949.9450, 37987.00
951.0650, 38117.00
952.1860, 38121.00
953.3060, 38368.00
954.4260, 38266.00
955.5460, 38419.00
956.6650, 38433.00
957.7850, 38397.00
958.9040, 38058.00
960.0230, 38684.00
961.1420, 38685.00
962.2610, 38789.00
963.3800, 38323.00
964.4990, 38629.00
965.6170, 38440.00
966.7350, 38619.00
967.8530, 38739.00
968.9710, 38971.00
970.0890, 38831.00
971.2070, 38789.00
972.3240, 38745.00
973.4410, 38923.00
974.5580, 39030.00
975.6750, 39076.00
976.7920, 39075.00
977.9090, 39043.00
979.0250, 39098.44
980.1410, 39197.00
981.2580, 39179.00
982.3740, 39334.00
983.4890, 39405.00
984.6050, 39269.00
985.7200, 39590.00
986.8360, 39491.00
987.9510, 39337.00
989.0660, 39312.00
990.1810, 39517.00
991.2950, 39670.00
992.4100, 39774.00
993.5240, 39755.00
994.6390, 39768.00
995.7530, 39966.00
996.8660, 39785.00
997.9800, 40071.00
999.0940, 39717.00
1000.207, 39836.00
1001.320, 39725.00
1002.433, 40142.00
1003.546, 40187.00
1004.659, 40186.00
1005.772, 40209.00
1006.884, 40279.15
1007.996, 40114.00
1009.108, 40329.00
1010.220, 40316.00
1011.332, 40129.00
1012.444, 40416.00
1013.555, 40331.00
1014.666, 40373.00
1015.777, 40556.00
1016.888, 40372.00
1017.999, 40845.00
1019.110, 40646.00
1020.220, 40830.00
1021.331, 40791.00
1022.441, 40732.00
1023.551, 40726.00
1024.661, 40501.00
1025.770, 40685.00
1026.880, 40848.00
1027.989, 40568.00
1029.098, 40870.00
1030.207, 40845.00
1031.316, 40841.00
1032.425, 41210.00
1033.533, 40971.00
1034.642, 41020.00
1035.750, 41013.00
1036.858, 41178.00
1037.966, 40967.00
1039.073, 41170.00
1040.181, 41160.00
1041.288, 41157.00
1042.396, 41060.00
1043.503, 41412.00
1044.610, 41479.00
1045.716, 41480.00
1046.823, 41591.00
1047.929, 41757.00
1049.036, 41546.00
1050.142, 41607.00
1051.248, 41667.00
1052.353, 41562.00
1053.459, 41910.00
1054.564, 41745.00
1055.670, 41812.00
1056.775, 41685.00
1057.880, 41986.00
1058.985, 42088.00
1060.089, 42080.00
1061.194, 42002.00
1062.298, 42258.00
1063.402, 42052.00
1064.506, 42416.00
1065.610, 42075.00
1066.713, 42499.00
1067.817, 42510.00
1068.920, 42523.00
1070.023, 42534.00
1071.126, 42643.00
1072.229, 42508.00
1073.332, 42917.00
1074.435, 42545.00
1075.537, 43036.00
1076.639, 42852.00
1077.741, 43060.00
1078.843, 43044.00
1079.945, 42905.00
1081.046, 42980.00
1082.148, 42929.00
1083.249, 43238.00
1084.350, 43200.00
1085.451, 43254.00
1086.551, 43360.00
1087.652, 43379.00
1088.752, 43606.00
1089.853, 43487.00
1090.953, 43350.00
1092.053, 43158.00
1093.152, 43562.00
1094.252, 43382.00
1095.351, 43579.00
1096.451, 43795.00
1097.550, 43651.00
1098.649, 43718.00
1099.748, 43580.00
1100.846, 43703.00
1101.945, 43821.00
1103.043, 43653.00
1104.141, 43945.00
1105.239, 43799.00
1106.337, 44097.00
1107.434, 43979.00
1108.532, 44131.00
1109.629, 43851.00
1110.726, 44039.00
1111.823, 44126.00
1112.920, 44027.00
1114.017, 44170.00
1115.113, 44198.00
1116.210, 44463.00
1117.306, 44512.00
1118.402, 44836.00
1119.498, 44516.00
1120.593, 44487.00
1121.689, 44861.00
1122.784, 44455.00
1123.879, 44794.00
1124.974, 45106.00
1126.069, 44741.00
1127.164, 44890.00
1128.259, 45173.00
1129.353, 44860.00
1130.447, 45003.00
1131.541, 44753.00
1132.635, 44543.00
1133.729, 44496.00
1134.822, 44406.00
1135.916, 44579.00
1137.009, 44465.00
1138.102, 44563.00
1139.195, 44580.17
1140.288, 44536.47
1141.380, 44608.00
1142.473, 44583.00
1143.565, 44582.00
1144.657, 44796.00
1145.749, 44728.57
1146.841, 44584.00
1147.932, 44777.00
1149.024, 44758.00
1150.115, 44833.00
1151.206, 44845.00
1152.297, 44641.00
1153.388, 44932.00
1154.479, 44753.00
1155.569, 44945.00
1156.659, 44906.00
1157.750, 44974.00
1158.839, 44932.00
1159.929, 44944.00
1161.019, 45216.00
1162.108, 45125.00
1163.198, 45034.00
1164.287, 45404.00
1165.376, 45212.00
1166.465, 45076.00
1167.553, 45379.00
1168.642, 45129.00
1169.730, 45407.00
1170.818, 45271.00
1171.906, 45092.00
1172.994, 45643.00
1174.082, 45486.00
1175.170, 46098.00
1176.257, 46004.00
1177.344, 45710.00
1178.431, 45801.00
1179.518, 45451.00
1180.605, 45557.00
1181.691, 45970.00
1182.778, 45821.00
1183.864, 45697.00
1184.950, 45809.00
1186.036, 45707.00
1187.122, 46071.00
1188.207, 46266.00
1189.292, 46002.00
1190.378, 46182.00
1191.463, 45996.00
1192.548, 46231.00
1193.632, 46005.00
1194.717, 46268.00
1195.801, 46091.00
1196.886, 46223.00
1197.970, 46447.00
1199.054, 46208.00
1200.137, 46315.00
1201.221, 46467.00
1202.305, 46405.00
1203.388, 46640.00
1204.471, 46394.00
1205.554, 46569.00
1206.637, 46554.00
1207.719, 46732.00
1208.802, 46489.00
1209.884, 46842.00
1210.966, 46534.00
1212.048, 46923.00
1213.130, 46720.00
1214.212, 46754.00
1215.293, 46937.00
1216.374, 46886.00
1217.456, 47158.00
1218.536, 47087.00
1219.617, 47040.00
1220.698, 46855.00
1221.778, 47298.00
1222.859, 47145.00
1223.939, 47011.00
1225.019, 47526.00
1226.099, 47198.00
1227.178, 47352.00
1228.258, 47029.00
1229.337, 47022.00
1230.417, 47666.00
1231.496, 47361.00
1232.574, 47427.00
1233.653, 47567.00
1234.732, 47251.00
1235.810, 47726.00
1236.888, 47730.00
1237.966, 47818.00
1239.044, 47419.00
1240.122, 47689.00
1241.199, 47813.00
1242.277, 47934.00
1243.354, 47916.00
1244.431, 47862.00
1245.508, 47907.00
1246.585, 47976.00
1247.661, 48000.00
1248.738, 48061.00
1249.814, 47992.00
1250.890, 48206.00
1251.966, 48041.00
1253.042, 48102.00
1254.117, 48372.00
1255.193, 47968.00
1256.268, 48068.00
1257.343, 48352.00
1258.418, 48000.00
1259.493, 48268.00
1260.567, 48202.00
1261.642, 48407.00
1262.716, 48583.00
1263.790, 48756.00
1264.864, 48824.55
1265.938, 48640.00
1267.011, 48912.00
1268.085, 48663.00
1269.158, 48680.00
1270.231, 48553.00
1271.304, 48411.00
1272.377, 48980.00
1273.450, 48670.00
1274.522, 48956.00
1275.594, 48910.00
1276.666, 48968.00
1277.738, 49090.00
1278.810, 48580.00
1279.882, 49084.00
1280.953, 48815.00
1282.025, 48817.00
1283.096, 49251.00
1284.167, 49220.00
1285.238, 49076.00
1286.308, 49417.00
1287.379, 49127.00
1288.449, 49405.00
1289.519, 49523.00
1290.589, 49341.00
1291.659, 49665.00
1292.729, 49142.00
1293.798, 49434.00
1294.868, 49411.00
1295.937, 49544.00
1297.006, 49703.00
1298.075, 49690.00
1299.143, 49739.00
1300.212, 49822.00
1301.280, 50011.00
1302.348, 50113.00
1303.416, 50151.92
1304.484, 49917.00
1305.552, 50085.00
1306.620, 50056.00
1307.687, 49776.00
1308.754, 49914.00
1309.821, 50203.00
1310.888, 50202.00
1311.955, 50205.00
1313.021, 50081.00
1314.088, 50178.00
1315.154, 50221.41
1316.220, 50093.00
1317.286, 50350.00
1318.352, 50467.00
1319.417, 50362.00
1320.483, 50389.00
1321.548, 50559.00
1322.613, 50873.00
1323.678, 50499.00
1324.743, 50716.00
1325.807, 50478.00
1326.872, 50555.00
1327.936, 50632.00
1329.000, 50750.00
1330.064, 50615.00
1331.128, 50784.00
1332.191, 50871.00
1333.255, 50713.00
1334.318, 51015.00
1335.381, 51043.00
1336.444, 51141.00
1337.507, 51031.00
1338.569, 51032.45
1339.632, 51093.00
1340.694, 50897.00
1341.756, 50999.00
1342.818, 50931.00
1343.880, 51318.00
1344.941, 51378.00
1346.003, 51417.00
1347.064, 51387.00
1348.125, 51486.00
1349.186, 51234.00
1350.247, 51321.00
1351.308, 51592.00
1352.368, 51463.00
1353.428, 51267.00
1354.489, 51760.00
1355.549, 51560.00
1356.608, 51599.00
1357.668, 51785.00
1358.727, 51706.00
1359.787, 51722.00
1360.846, 51947.00
1361.905, 51963.00
1362.964, 51909.00
1364.022, 52002.00
1365.081, 51829.00
1366.139, 51827.00
1367.197, 51912.00
1368.255, 52050.00
1369.313, 52153.00
1370.371, 52088.00
1371.428, 52340.00
1372.486, 52315.05
1373.543, 52045.00
1374.600, 52318.00
1375.657, 52273.00
1376.713, 52096.00
1377.770, 52434.00
1378.826, 52379.00
1379.882, 52528.00
1380.938, 52441.00
1381.994, 52538.00
1383.050, 52709.00
1384.106, 52476.00
1385.161, 52689.00
1386.216, 52740.00
1387.271, 52553.00
1388.326, 52569.00
1389.381, 52889.00
1390.435, 52674.00
1391.490, 52686.00
1392.544, 52524.00
1393.598, 52626.19
1394.652, 52683.02
1395.705, 52881.00
1396.759, 52886.00
1397.812, 53014.00
1398.866, 53018.00
1399.919, 53253.00
1400.972, 53259.00
1402.024, 53210.00
1403.077, 52965.00
1404.129, 52987.00
1405.181, 52997.22
1406.233, 53107.00
1407.285, 53117.00
1408.337, 53373.00
1409.389, 53379.00
1410.440, 53300.00
1411.491, 53670.00
1412.542, 53592.00
1413.593, 53502.00
1414.644, 53414.00
1415.695, 53527.00
1416.745, 53567.00
1417.795, 53563.00
1418.845, 53624.00
1419.895, 53498.00
1420.945, 53895.00
1421.995, 53696.00
1423.044, 53869.00
1424.093, 53869.00
1425.142, 53905.00
1426.191, 53925.00
1427.240, 54234.00
1428.289, 54386.00
1429.337, 54239.00
1430.385, 54026.00
1431.433, 54519.00
1432.481, 54186.00
1433.529, 54225.00
1434.577, 54426.00
1435.624, 54565.00
1436.672, 54648.00
1437.719, 54699.57
1438.766, 54520.00
1439.812, 54660.00
1440.859, 54681.00
1441.905, 54582.00
1442.952, 54816.00
1443.998, 54960.00
1445.044, 55042.00
1446.090, 55090.53
1447.135, 54742.00
1448.181, 54967.00
1449.226, 54770.00
1450.271, 54499.00
1451.316, 54784.00
1452.361, 54692.16
1453.405, 54926.00
1454.450, 54883.00
1455.494, 54999.00
1456.538, 55024.00
1457.582, 55329.00
1458.626, 55481.00
1459.670, 55243.00
1460.713, 55229.00
1461.757, 55133.00
1462.800, 55290.00
1463.843, 55136.00
1464.886, 55105.00
1465.928, 55339.00
1466.971, 55632.00
1468.013, 55303.00
1469.055, 55647.00
1470.097, 55552.00
1471.139, 55636.00
1472.181, 55611.00
1473.222, 55677.93
1474.263, 55785.00
1475.305, 55764.00
1476.346, 55978.00
1477.386, 55856.00
1478.427, 55711.00
1479.468, 55501.00
1480.508, 55954.00
1481.548, 56233.00
1482.588, 56001.00
1483.628, 56335.00
1484.668, 56179.00
1485.707, 56107.00
1486.747, 55893.00
1487.786, 56323.00
1488.825, 56112.00
1489.864, 56299.00
1490.902, 56212.00
1491.941, 56213.00
1492.979, 56419.00
1494.017, 56541.00
1495.055, 56605.00
1496.093, 56519.00
1497.131, 56629.28
1498.168, 56606.25
1499.206, 56681.00
1500.243, 56620.00
1501.280, 56571.00
1502.317, 56570.00
1503.354, 56820.00
1504.390, 56493.00
1505.426, 56718.00
1506.463, 56937.00
1507.499, 56884.00
1508.535, 56699.00
1509.570, 57088.00
1510.606, 57277.00
1511.641, 57034.00
1512.676, 56903.00
1513.711, 56863.00
1514.746, 57060.00
1515.781, 56925.00
1516.816, 57345.00
1517.850, 57432.00
1518.884, 57391.00
1519.918, 57541.00
1520.952, 57255.00
1521.986, 57273.00
1523.019, 57490.00
1524.053, 57321.00
1525.086, 57507.00
1526.119, 57519.00
1527.152, 57339.00
1528.185, 57689.00
1529.217, 57658.00
1530.250, 57599.00
1531.282, 57543.00
1532.314, 57648.64
1533.346, 57701.12
1534.377, 57930.00
1535.409, 57958.00
1536.440, 58187.00
1537.472, 58330.00
1538.503, 57976.00
1539.534, 57725.00
1540.564, 58326.00
1541.595, 57815.00
1542.625, 58512.00
1543.656, 58210.00
1544.686, 58037.00
1545.716, 58600.00
1546.745, 58322.00
1547.775, 58272.00
1548.804, 58204.00
1549.834, 58116.00
1550.863, 58462.00
1551.892, 58427.00
1552.920, 58644.00
1553.949, 58524.00
1554.977, 58485.00
1556.006, 58827.00
1557.034, 58756.00
1558.062, 58929.00
1559.089, 58865.00
1560.117, 58715.00
1561.144, 58956.00
1562.172, 58990.00
1563.199, 58940.00
1564.226, 58897.00
1565.252, 59161.00
1566.279, 59021.00
1567.305, 58639.00
1568.332, 59005.00
1569.358, 59203.00
1570.384, 58955.00
1571.409, 59164.00
1572.435, 59344.00
##END=



