##NAMES=Trilithionite
##RRUFFID=R040101
##IDEAL CHEMISTRY=KLi_1.5_Al_1.5_(Si_3_Al)O_10_F_2_
##LOCALITY=Zambezi Region, Mozambique
##OWNER=RRUFF
##SOURCE=University of Arizona Mineral Museum
##DESCRIPTION=Aggregate of purple hexagonal plates, polytype is 2M1
##STATUS=The identification of this mineral has been confirmed by X-ray diffraction and chemical analysis
##URL=rruff.info/R040101
##MEASURED CHEMISTRY=(K_0.84_Li_0.13_Na_0.02_)(Li_0.54_Al_0.44_Mn_0.02_)_3_(Si_0.82_Al_0.18_)_4_O_10_F_2.00_
##PIN_ID=L00071
##ORIENTATION=Laser parallel to c* (0 0 1). Fiducial mark perpendicular to laser is parallel to a [1 0 0]
64.81800, 1187.000
66.05300, 1216.000
67.28900, 1229.000
68.52400, 1268.000
69.76000, 1291.000
70.99500, 1298.000
72.23000, 1290.000
73.46500, 1353.000
74.70000, 1340.000
75.93400, 1382.000
77.16900, 1469.000
78.40300, 1564.000
79.63700, 1730.000
80.87100, 1909.000
82.10500, 2108.000
83.33900, 2362.000
84.57300, 2818.000
85.80600, 3303.000
87.04000, 3875.000
88.27300, 4635.000
89.50600, 5694.000
90.73900, 6848.000
91.97200, 8560.000
93.20400, 10582.00
94.43700, 12905.00
95.66900, 15861.00
96.90100, 19088.00
98.13300, 23144.00
99.36500, 27457.00
100.5970, 32360.00
101.8290, 36373.00
103.0600, 40010.00
104.2920, 42140.00
105.5230, 43245.00
106.7540, 43259.00
107.9850, 42702.00
109.2160, 41237.00
110.4460, 39270.00
111.6770, 37977.00
112.9070, 36997.00
114.1370, 36680.00
115.3670, 36423.00
116.5970, 36926.00
117.8270, 37157.00
119.0570, 37023.00
120.2860, 36448.00
121.5150, 36543.00
122.7450, 36405.00
123.9740, 35804.00
125.2030, 35700.00
126.4310, 34877.00
127.6600, 34780.00
128.8890, 34475.00
130.1170, 34519.00
131.3450, 34129.00
132.5730, 34112.00
133.8010, 33677.00
135.0290, 33351.00
136.2560, 33307.00
137.4840, 34114.00
138.7110, 33245.00
139.9380, 33397.00
141.1650, 33359.00
142.3920, 32977.00
143.6190, 32891.00
144.8460, 32874.00
146.0720, 33034.00
147.2980, 33252.00
148.5250, 33286.00
149.7510, 33396.00
150.9770, 33406.00
152.2020, 33719.00
153.4280, 34077.00
154.6530, 34116.00
155.8790, 34495.00
157.1040, 34601.00
158.3290, 34542.00
159.5540, 34920.00
160.7780, 35207.00
162.0030, 35293.00
163.2270, 35606.00
164.4520, 35839.19
165.6760, 36114.39
166.9000, 36373.00
168.1240, 36895.00
169.3470, 37175.00
170.5710, 37878.00
171.7940, 38404.00
173.0180, 38904.00
174.2410, 39658.00
175.4640, 40133.00
176.6870, 40765.00
177.9090, 41464.00
179.1320, 41947.00
180.3540, 42800.00
181.5760, 43147.00
182.7990, 43627.00
184.0210, 43747.00
185.2420, 44166.00
186.4640, 44431.00
187.6860, 44966.00
188.9070, 45713.00
190.1280, 46385.00
191.3490, 47473.00
192.5700, 48839.00
193.7910, 50381.00
195.0120, 52273.00
196.2320, 53864.00
197.4520, 55367.00
198.6730, 56634.00
199.8930, 57532.00
201.1130, 57312.00
202.3320, 57046.00
203.5520, 55739.00
204.7720, 54430.00
205.9910, 53043.00
207.2100, 51677.00
208.4290, 50610.00
209.6480, 49488.00
210.8670, 48559.38
212.0850, 48523.98
213.3040, 48323.95
214.5220, 47963.74
215.7400, 47234.78
216.9580, 46773.89
218.1760, 46078.34
219.3940, 45286.07
220.6110, 44603.95
221.8290, 43461.37
223.0460, 42203.00
224.2630, 41238.00
225.4800, 40623.00
226.6970, 40045.00
227.9140, 39166.39
229.1300, 38895.14
230.3470, 38675.99
231.5630, 38513.39
232.7790, 38198.69
233.9950, 38368.67
235.2110, 38520.65
236.4260, 38792.23
237.6420, 39390.07
238.8570, 39513.00
240.0730, 40067.00
241.2880, 40692.00
242.5030, 41182.00
243.7170, 41938.00
244.9320, 43090.00
246.1460, 44214.00
247.3610, 45668.00
248.5750, 47309.00
249.7890, 49207.00
251.0030, 51935.00
252.2170, 55052.00
253.4300, 59282.00
254.6440, 63858.00
255.8570, 69734.00
257.0700, 76335.00
258.2830, 83184.00
259.4960, 91165.00
260.7090, 98933.00
261.9210, 106794.0
263.1330, 112679.0
264.3460, 117345.0
265.5580, 118476.0
266.7700, 116504.0
267.9820, 111560.0
269.1930, 105075.0
270.4050, 96918.00
271.6160, 88691.00
272.8270, 80864.00
274.0380, 73809.00
275.2490, 68540.00
276.4600, 63262.00
277.6710, 59598.00
278.8810, 55887.00
280.0920, 53407.00
281.3020, 51176.00
282.5120, 49465.00
283.7220, 47915.00
284.9310, 46820.00
286.1410, 45810.00
287.3500, 45206.00
288.5600, 44171.00
289.7690, 43914.00
290.9780, 43380.00
292.1870, 42674.24
293.3950, 42715.61
294.6040, 42683.34
295.8120, 42581.62
297.0200, 42201.98
298.2280, 42181.21
299.4360, 42016.62
300.6440, 41846.12
301.8520, 41875.87
303.0590, 41953.00
304.2670, 41859.00
305.4740, 41981.00
306.6810, 41999.00
307.8880, 41780.00
309.0950, 41781.00
310.3010, 41864.00
311.5080, 41808.00
312.7140, 41585.00
313.9200, 41818.00
315.1260, 41830.00
316.3320, 41606.00
317.5380, 41351.00
318.7430, 41554.00
319.9480, 41651.00
321.1540, 41905.00
322.3590, 41770.00
323.5640, 42033.00
324.7680, 42244.00
325.9730, 42096.00
327.1780, 41984.00
328.3820, 41945.36
329.5860, 41536.00
330.7900, 41610.00
331.9940, 41517.00
333.1980, 41196.00
334.4010, 41239.00
335.6050, 41061.00
336.8080, 40857.00
338.0110, 40852.00
339.2140, 40512.00
340.4170, 40736.00
341.6200, 40380.00
342.8220, 40736.00
344.0250, 40555.00
345.2270, 40847.00
346.4290, 40675.00
347.6310, 40562.00
348.8330, 40819.00
350.0340, 40999.00
351.2360, 41018.00
352.4370, 41124.00
353.6380, 41329.00
354.8390, 41759.00
356.0400, 41935.00
357.2410, 42263.00
358.4410, 42583.00
359.6420, 42917.00
360.8420, 43119.00
362.0420, 43586.00
363.2420, 43951.00
364.4420, 44297.00
365.6420, 45054.00
366.8410, 45326.00
368.0410, 46210.00
369.2400, 46831.00
370.4390, 47540.00
371.6380, 48243.00
372.8360, 48995.52
374.0350, 49879.00
375.2330, 50671.00
376.4320, 51706.00
377.6300, 52790.00
378.8280, 53503.00
380.0260, 54196.00
381.2230, 54836.00
382.4210, 55017.00
383.6180, 55554.00
384.8160, 55926.00
386.0130, 56063.00
387.2100, 56645.00
388.4060, 57014.00
389.6030, 57787.00
390.7990, 57991.00
391.9960, 58715.00
393.1920, 60056.00
394.3880, 60631.00
395.5840, 61683.00
396.7790, 62437.00
397.9750, 63915.00
399.1700, 64945.00
400.3660, 66236.00
401.5610, 67305.00
402.7560, 68250.00
403.9510, 68460.00
405.1450, 69009.00
406.3400, 69639.00
407.5340, 69016.00
408.7280, 68743.00
409.9220, 68043.00
411.1160, 67053.00
412.3100, 66080.00
413.5030, 64827.00
414.6970, 63454.00
415.8900, 62579.00
417.0830, 60974.00
418.2760, 59973.00
419.4690, 58723.00
420.6620, 57571.00
421.8540, 56242.00
423.0460, 55306.04
424.2390, 54113.00
425.4310, 53501.00
426.6230, 52618.00
427.8140, 51887.00
429.0060, 51171.00
430.1970, 50418.00
431.3890, 49976.00
432.5800, 49088.00
433.7710, 48540.00
434.9610, 47716.00
436.1520, 47652.00
437.3430, 46947.00
438.5330, 46433.00
439.7230, 46064.00
440.9130, 45562.00
442.1030, 45356.00
443.2930, 45152.00
444.4820, 44894.00
445.6720, 44571.00
446.8610, 44401.00
448.0500, 44173.00
449.2390, 44068.00
450.4280, 43841.00
451.6170, 43518.00
452.8050, 43318.00
453.9940, 43222.00
455.1820, 43084.00
456.3700, 43184.00
457.5580, 43065.00
458.7450, 42730.00
459.9330, 42870.00
461.1200, 42905.00
462.3080, 42662.00
463.4950, 42787.68
464.6820, 42720.93
465.8690, 42888.00
467.0550, 42734.00
468.2420, 42989.00
469.4280, 43048.00
470.6140, 42828.00
471.8000, 43338.00
472.9860, 43665.00
474.1720, 43636.00
475.3570, 43788.00
476.5430, 44050.00
477.7280, 44146.00
478.9130, 44197.00
480.0980, 44026.00
481.2830, 44102.00
482.4680, 43945.00
483.6520, 44222.00
484.8360, 43776.00
486.0210, 43827.00
487.2050, 43559.00
488.3890, 43491.00
489.5720, 43673.00
490.7560, 43281.00
491.9390, 43313.00
493.1220, 43065.00
494.3060, 43043.67
495.4880, 42965.00
496.6710, 43037.00
497.8540, 42762.00
499.0360, 42679.00
500.2190, 42337.00
501.4010, 42417.00
502.5830, 42425.00
503.7650, 42206.00
504.9460, 42373.00
506.1280, 42296.00
507.3090, 42587.00
508.4910, 42111.00
509.6720, 42428.00
510.8530, 42303.00
512.0330, 42547.00
513.2140, 42546.00
514.3940, 42746.00
515.5750, 42725.00
516.7550, 42815.00
517.9350, 43041.00
519.1150, 43077.00
520.2940, 43343.00
521.4740, 43402.67
522.6530, 43356.00
523.8320, 43569.00
525.0110, 43729.00
526.1900, 43813.00
527.3690, 43991.00
528.5480, 44060.29
529.7260, 44178.00
530.9040, 44167.00
532.0820, 44261.00
533.2600, 44215.00
534.4380, 44629.00
535.6160, 44699.00
536.7930, 44703.00
537.9700, 44407.00
539.1480, 44553.36
540.3250, 44468.09
541.5020, 44619.00
542.6780, 44569.00
543.8550, 44601.14
545.0310, 44848.00
546.2070, 44811.00
547.3830, 44992.00
548.5590, 45047.00
549.7350, 44957.00
550.9110, 45354.00
552.0860, 45894.00
553.2610, 45585.00
554.4370, 46006.00
555.6120, 46097.00
556.7860, 45998.00
557.9610, 46350.00
559.1360, 46311.00
560.3100, 46570.00
561.4840, 46309.00
562.6580, 46263.00
563.8320, 46584.85
565.0060, 46257.00
566.1790, 46120.00
567.3530, 46060.96
568.5260, 45863.00
569.6990, 45621.00
570.8720, 45924.00
572.0450, 45534.00
573.2170, 45605.00
574.3900, 45328.00
575.5620, 45397.00
576.7340, 45376.00
577.9060, 45384.00
579.0780, 45387.00
580.2500, 45185.00
581.4210, 45432.00
582.5930, 45538.00
583.7640, 45065.00
584.9350, 45488.00
586.1060, 45343.00
587.2760, 45201.00
588.4470, 45425.00
589.6170, 45212.00
590.7880, 45504.00
591.9580, 45535.00
593.1280, 45512.00
594.2970, 45548.00
595.4670, 45607.64
596.6360, 45609.00
597.8060, 45803.00
598.9750, 45838.00
600.1440, 46034.00
601.3130, 46165.00
602.4810, 46361.54
603.6500, 46864.00
604.8180, 46780.00
605.9860, 47108.00
607.1540, 47253.00
608.3220, 47263.00
609.4900, 47751.00
610.6580, 48112.00
611.8250, 48127.00
612.9920, 48758.00
614.1590, 49118.00
615.3260, 49516.00
616.4930, 49730.00
617.6600, 50352.80
618.8260, 50708.00
619.9920, 51593.00
621.1590, 52036.00
622.3250, 52747.00
623.4900, 53402.00
624.6560, 54329.00
625.8220, 54886.00
626.9870, 55508.00
628.1520, 56120.00
629.3170, 56436.00
630.4820, 56581.00
631.6470, 57465.00
632.8110, 57363.00
633.9760, 57776.00
635.1400, 57782.00
636.3040, 57875.00
637.4680, 57853.00
638.6310, 57613.00
639.7950, 57144.00
640.9590, 57096.00
642.1220, 56864.00
643.2850, 56605.00
644.4480, 55780.00
645.6110, 55455.00
646.7730, 55054.00
647.9360, 54401.00
649.0980, 54204.00
650.2600, 53897.44
651.4220, 53347.13
652.5840, 53584.00
653.7460, 52503.00
654.9070, 52361.00
656.0690, 52231.00
657.2300, 52120.00
658.3910, 51923.41
659.5520, 51762.34
660.7120, 51524.00
661.8730, 51440.00
663.0330, 51225.00
664.1940, 51197.00
665.3540, 51163.00
666.5140, 51359.00
667.6730, 51532.00
668.8330, 51389.00
669.9920, 51791.00
671.1520, 51799.00
672.3110, 52274.00
673.4700, 52513.00
674.6290, 52568.00
675.7870, 53402.00
676.9460, 53713.00
678.1040, 54131.00
679.2620, 54644.00
680.4200, 55206.00
681.5780, 55906.75
682.7360, 56589.00
683.8930, 57595.00
685.0510, 58422.00
686.2080, 59569.41
687.3650, 61182.00
688.5220, 62473.00
689.6780, 64255.00
690.8350, 66288.00
691.9910, 67963.00
693.1480, 70244.00
694.3040, 72921.00
695.4600, 74802.00
696.6150, 77653.00
697.7710, 80556.00
698.9260, 83241.00
700.0820, 85715.00
701.2370, 88331.42
702.3920, 90716.55
703.5460, 92403.46
704.7010, 93398.92
705.8550, 93492.94
707.0100, 93322.88
708.1640, 92386.52
709.3180, 90821.83
710.4720, 88834.94
711.6250, 87169.92
712.7790, 85396.00
713.9320, 82932.00
715.0850, 80139.00
716.2380, 77306.00
717.3910, 73470.00
718.5440, 68938.66
719.6960, 68079.27
720.8490, 66592.90
722.0010, 64517.26
723.1530, 60079.12
724.3050, 58691.59
725.4570, 57922.00
726.6080, 56605.00
727.7600, 56677.00
728.9110, 55719.00
730.0620, 55448.00
731.2130, 55022.00
732.3640, 54842.00
733.5140, 54829.00
734.6650, 54838.00
735.8150, 55001.93
736.9650, 54927.00
738.1150, 55565.00
739.2650, 55923.00
740.4140, 56348.00
741.5640, 57300.00
742.7130, 57826.00
743.8620, 58618.00
745.0110, 59477.91
746.1600, 60304.51
747.3090, 61235.00
748.4570, 61906.00
749.6060, 62854.00
750.7540, 63038.00
751.9020, 63741.00
753.0500, 63886.00
754.1970, 63809.00
755.3450, 64088.00
756.4920, 63568.97
757.6390, 63222.00
758.7860, 62535.00
759.9330, 62231.00
761.0800, 61733.00
762.2260, 61343.00
763.3730, 60425.00
764.5190, 60213.00
765.6650, 59226.00
766.8110, 58502.00
767.9570, 57807.00
769.1020, 57021.13
770.2480, 56433.00
771.3930, 55632.00
772.5380, 55168.00
773.6830, 54496.00
774.8280, 54005.00
775.9720, 53536.82
777.1170, 53349.00
778.2610, 52734.00
779.4050, 52609.00
780.5490, 52420.00
781.6930, 52023.00
782.8360, 51742.00
783.9800, 51757.00
785.1230, 51846.00
786.2660, 51802.00
787.4090, 51548.00
788.5520, 51749.00
789.6950, 51472.07
790.8370, 51171.00
791.9790, 51107.00
793.1220, 51071.00
794.2640, 50896.00
795.4050, 51083.00
796.5470, 51448.00
797.6890, 50956.00
798.8300, 50808.00
799.9710, 51227.00
801.1120, 50785.00
802.2530, 50722.00
803.3940, 50853.00
804.5340, 50339.12
805.6750, 50725.79
806.8150, 50933.95
807.9550, 50973.15
809.0950, 50337.40
810.2340, 50573.23
811.3740, 50459.76
812.5130, 50331.99
813.6520, 50690.49
814.7910, 50152.93
815.9300, 50503.72
817.0690, 50499.89
818.2080, 50658.37
819.3460, 50465.42
820.4840, 50381.02
821.6220, 50648.17
822.7600, 50720.67
823.8980, 50487.26
825.0350, 50656.09
826.1730, 50326.00
827.3100, 50229.00
828.4470, 50286.00
829.5840, 50316.00
830.7210, 50590.00
831.8570, 50319.00
832.9940, 50547.00
834.1300, 50339.00
835.2660, 50366.00
836.4020, 50376.00
837.5380, 50578.00
838.6740, 50837.00
839.8090, 50571.00
840.9440, 51200.00
842.0790, 50932.00
843.2140, 50879.00
844.3490, 50842.00
845.4840, 51094.00
846.6180, 50797.00
847.7520, 50802.00
848.8870, 51412.00
850.0210, 51224.00
851.1540, 51408.00
852.2880, 51290.00
853.4210, 51497.00
854.5550, 51803.00
855.6880, 51557.00
856.8210, 51867.00
857.9540, 51877.00
859.0860, 52076.00
860.2190, 52337.00
861.3510, 52039.00
862.4830, 52209.00
863.6150, 52337.00
864.7470, 52353.00
865.8790, 52305.00
867.0100, 52346.00
868.1410, 52288.00
869.2730, 52172.00
870.4040, 52068.00
871.5340, 52047.10
872.6650, 52405.00
873.7960, 52133.00
874.9260, 52328.00
876.0560, 52675.00
877.1860, 52611.00
878.3160, 52616.00
879.4460, 52619.00
880.5750, 52576.00
881.7040, 52779.00
882.8340, 52739.33
883.9630, 53057.00
885.0920, 52854.00
886.2200, 53250.00
887.3490, 53427.00
888.4770, 53402.00
889.6050, 53495.00
890.7330, 53979.00
891.8610, 54172.00
892.9890, 54279.00
894.1160, 54338.00
895.2440, 54681.00
896.3710, 55124.00
897.4980, 55321.00
898.6250, 55812.12
899.7510, 56237.00
900.8780, 56669.00
902.0040, 56944.00
903.1310, 57311.00
904.2570, 57924.00
905.3820, 58526.00
906.5080, 58942.00
907.6340, 59012.00
908.7590, 59850.00
909.8840, 60178.00
911.0090, 61037.65
912.1340, 61403.14
913.2590, 61637.20
914.3830, 61743.71
915.5080, 61514.48
916.6320, 61586.25
917.7560, 61456.38
918.8800, 61262.78
920.0040, 61211.58
921.1270, 60925.00
922.2510, 60352.00
923.3740, 60106.00
924.4970, 60015.00
925.6200, 59424.00
926.7420, 59176.00
927.8650, 58920.00
928.9870, 58979.00
930.1100, 58758.00
931.2320, 58568.89
932.3540, 58377.00
933.4750, 58025.00
934.5970, 58093.00
935.7180, 57619.00
936.8390, 57538.00
937.9600, 57686.00
939.0810, 58040.00
940.2020, 58120.00
941.3230, 58054.00
942.4430, 58134.00
943.5630, 58235.22
944.6830, 58864.00
945.8030, 58534.00
946.9230, 59160.00
948.0420, 59444.00
949.1620, 59719.00
950.2810, 59979.00
951.4000, 60599.00
952.5190, 60600.00
953.6380, 61360.00
954.7560, 61465.00
955.8750, 61583.00
956.9930, 61356.00
958.1110, 61401.00
959.2290, 61478.00
960.3460, 61346.53
961.4640, 61290.79
962.5810, 61161.73
963.6990, 60962.91
964.8160, 60486.36
965.9320, 60368.88
967.0490, 60107.38
968.1660, 59839.99
969.2820, 59773.04
970.3980, 59337.10
971.5140, 59403.00
972.6300, 59041.00
973.7460, 58848.00
974.8610, 59466.00
975.9770, 58842.00
977.0920, 59029.00
978.2070, 58916.00
979.3220, 58827.00
980.4370, 59057.00
981.5510, 59140.00
982.6660, 59567.00
983.7800, 59262.00
984.8940, 59279.00
986.0080, 59793.00
987.1210, 59672.00
988.2350, 59644.00
989.3480, 59571.00
990.4610, 59815.00
991.5750, 59500.00
992.6870, 59896.00
993.8000, 59767.00
994.9130, 59688.00
996.0250, 59842.00
997.1370, 59792.00
998.2490, 60129.00
999.3610, 60187.00
1000.473, 60248.00
1001.584, 60520.00
1002.696, 60935.00
1003.807, 61058.00
1004.918, 61152.00
1006.029, 60693.00
1007.139, 60778.00
1008.250, 60764.93
1009.360, 60942.00
1010.470, 60870.00
1011.580, 60800.00
1012.690, 60808.00
1013.800, 60988.00
1014.909, 61099.00
1016.019, 61226.00
1017.128, 61701.00
1018.237, 61652.00
1019.346, 61642.00
1020.454, 61952.00
1021.563, 61849.00
1022.671, 61915.00
1023.779, 62248.00
1024.887, 61973.00
1025.995, 61716.00
1027.103, 61704.00
1028.210, 62072.00
1029.318, 61566.00
1030.425, 61640.00
1031.532, 61186.00
1032.638, 61400.00
1033.745, 60682.00
1034.852, 60665.00
1035.958, 60723.00
1037.064, 60700.00
1038.170, 60802.00
1039.276, 60662.00
1040.381, 60317.00
1041.487, 60883.00
1042.592, 60720.00
1043.697, 60674.00
1044.802, 60939.00
1045.907, 61232.00
1047.012, 61423.00
1048.116, 61714.00
1049.220, 61588.00
1050.324, 62214.00
1051.428, 62572.00
1052.532, 62557.00
1053.636, 63188.00
1054.739, 63064.00
1055.842, 63106.00
1056.946, 63463.00
1058.048, 63171.00
1059.151, 63382.00
1060.254, 63480.00
1061.356, 63864.00
1062.459, 63355.00
1063.561, 63657.00
1064.662, 63291.00
1065.764, 63356.00
1066.866, 63062.00
1067.967, 63202.00
1069.068, 62808.00
1070.169, 62713.00
1071.270, 63017.00
1072.371, 62916.00
1073.472, 62734.00
1074.572, 62760.00
1075.672, 62510.00
1076.772, 62773.00
1077.872, 62984.00
1078.972, 62808.00
1080.071, 63374.00
1081.171, 62992.00
1082.270, 63309.00
1083.369, 63321.00
1084.468, 63367.00
1085.567, 63663.00
1086.665, 63289.00
1087.763, 63628.00
1088.862, 63476.00
1089.960, 63457.00
1091.057, 63638.00
1092.155, 63886.00
1093.253, 63623.00
1094.350, 63909.00
1095.447, 64043.75
1096.544, 64177.00
1097.641, 64397.55
1098.738, 64325.00
1099.834, 64763.00
1100.930, 64939.00
1102.027, 65131.00
1103.123, 65548.00
1104.218, 65666.00
1105.314, 65765.00
1106.409, 65575.00
1107.505, 66374.00
1108.600, 66553.00
1109.695, 66479.00
1110.790, 66372.00
1111.884, 66802.00
1112.979, 66856.00
1114.073, 66833.00
1115.167, 66773.00
1116.261, 66727.92
1117.355, 66768.00
1118.448, 66734.68
1119.542, 66631.68
1120.635, 66250.87
1121.728, 66228.93
1122.821, 66063.18
1123.914, 65891.54
1125.006, 65920.23
1126.099, 65579.84
1127.191, 65605.37
1128.283, 65484.88
1129.375, 65431.21
1130.466, 64773.00
1131.558, 64184.00
1132.649, 64478.00
1133.741, 63990.00
1134.832, 63752.00
1135.922, 63725.00
1137.013, 63318.73
1138.104, 63298.36
1139.194, 62874.00
1140.284, 63093.00
1141.374, 63099.00
1142.464, 62948.00
1143.554, 62828.00
1144.643, 62908.00
1145.733, 62785.00
1146.822, 62718.00
1147.911, 62409.00
1148.999, 62713.00
1150.088, 62009.00
1151.177, 61943.00
1152.265, 62159.00
1153.353, 62305.00
1154.441, 62428.00
1155.529, 62203.00
1156.616, 62231.00
1157.704, 62020.00
1158.791, 62057.00
1159.878, 62082.00
1160.965, 62385.00
1162.052, 62142.00
1163.138, 62119.00
1164.225, 62347.00
1165.311, 62306.00
1166.397, 62379.00
1167.483, 62122.00
1168.569, 62221.00
1169.654, 62468.00
1170.740, 62540.00
1171.825, 62246.00
1172.910, 62394.00
1173.995, 62589.00
1175.080, 62843.00
1176.164, 63125.00
1177.248, 62718.00
1178.333, 62639.00
1179.417, 62857.00
1180.501, 62999.00
1181.584, 62804.00
1182.668, 62771.00
1183.751, 62699.00
1184.834, 62811.00
1185.917, 62645.00
1187.000, 63035.00
1188.083, 63136.00
1189.165, 63074.00
1190.247, 63090.00
1191.329, 62935.00
1192.411, 62877.00
1193.493, 63098.00
1194.575, 63361.00
1195.656, 63153.00
1196.738, 62899.00
1197.819, 63504.00
1198.900, 63092.00
1199.980, 63237.00
1201.061, 63426.00
1202.141, 63565.00
1203.222, 63345.00
1204.302, 63015.00
1205.381, 63773.00
1206.461, 63145.00
1207.541, 63537.00
1208.620, 63693.00
1209.699, 63598.00
1210.778, 63804.00
1211.857, 64043.00
1212.936, 64001.00
1214.014, 64206.00
1215.093, 63900.00
1216.171, 63814.00
1217.249, 64062.00
1218.327, 64296.00
1219.404, 64107.00
1220.482, 64004.00
1221.559, 64093.00
1222.636, 64260.00
1223.713, 64198.00
1224.790, 64441.00
1225.867, 64315.00
1226.943, 64516.00
1228.019, 64568.62
1229.095, 64858.00
1230.171, 64721.00
1231.247, 64738.00
1232.323, 64822.00
1233.398, 64712.00
1234.473, 65115.00
1235.548, 64556.00
1236.623, 65053.00
1237.698, 65611.00
1238.773, 65064.00
1239.847, 65311.00
1240.921, 65240.00
1241.995, 65150.00
1243.069, 65391.00
1244.143, 65439.00
1245.216, 65757.00
1246.290, 65513.00
1247.363, 65319.00
1248.436, 65559.00
1249.509, 65953.00
1250.581, 65668.00
1251.654, 65556.00
1252.726, 65722.00
1253.798, 65463.00
1254.870, 65651.23
1255.942, 65650.00
1257.013, 65855.00
1258.085, 65962.00
1259.156, 65957.00
1260.227, 66092.15
1261.298, 66073.00
1262.369, 66176.00
1263.439, 66351.00
1264.510, 66305.00
1265.580, 66365.00
1266.650, 66266.00
1267.720, 66859.00
1268.790, 66651.00
1269.859, 67004.00
1270.929, 66809.00
1271.998, 66601.00
1273.067, 66654.00
1274.136, 66912.00
1275.204, 67048.00
1276.273, 67019.00
1277.341, 67206.02
1278.409, 67052.00
1279.477, 67331.00
1280.545, 67423.00
1281.613, 67360.00
1282.680, 66998.00
1283.747, 66774.00
1284.814, 66804.00
1285.881, 67197.00
1286.948, 67279.00
1288.015, 67083.00
1289.081, 67560.00
1290.147, 67211.00
1291.213, 67300.00
1292.279, 67429.00
1293.345, 67444.00
1294.410, 67732.00
1295.476, 67524.00
1296.541, 67923.00
1297.606, 68033.00
1298.671, 67565.00
1299.736, 68099.00
1300.800, 67887.00
1301.864, 68306.00
1302.928, 68003.00
1303.992, 68143.00
1305.056, 68220.44
1306.120, 68055.00
1307.183, 68324.00
1308.247, 68347.00
1309.310, 68409.00
1310.373, 68598.16
1311.435, 68384.00
1312.498, 68762.00
1313.560, 68800.00
1314.623, 68613.00
1315.685, 68925.00
1316.747, 68643.00
1317.808, 68687.00
1318.870, 68784.00
1319.931, 68933.00
1320.992, 69094.00
1322.053, 69019.00
1323.114, 69344.00
1324.175, 69220.00
1325.235, 69338.00
1326.296, 69087.00
1327.356, 68885.00
1328.416, 69594.00
1329.476, 69148.00
1330.535, 69186.00
1331.595, 68957.00
1332.654, 68879.00
1333.713, 69096.00
1334.772, 68818.00
1335.831, 69070.00
1336.889, 69196.00
1337.948, 69512.00
1339.006, 69279.00
1340.064, 69502.00
1341.122, 69437.00
1342.179, 69401.00
1343.237, 69330.00
1344.294, 69346.00
1345.352, 69494.00
1346.409, 69504.00
1347.465, 69811.00
1348.522, 69506.00
1349.578, 69882.00
1350.635, 69616.00
1351.691, 69797.00
1352.747, 69940.00
1353.803, 69481.00
1354.858, 69829.00
1355.914, 70237.00
1356.969, 70106.00
1358.024, 69993.00
1359.079, 70043.00
1360.134, 69967.47
1361.188, 70250.00
1362.243, 70077.00
1363.297, 70128.00
1364.351, 70441.00
1365.405, 70643.00
1366.458, 70780.00
1367.512, 70460.00
1368.565, 70394.00
1369.618, 70300.00
1370.671, 70873.00
1371.724, 70652.00
1372.777, 70652.00
1373.829, 70412.00
1374.881, 70872.00
1375.933, 71104.00
1376.985, 70867.00
1378.037, 70763.00
1379.089, 71010.00
1380.140, 71349.00
1381.191, 70855.26
1382.242, 71305.71
1383.293, 71577.62
1384.344, 71680.59
1385.395, 71108.60
1386.445, 71408.13
1387.495, 71358.38
1388.545, 71294.32
1389.595, 71716.52
1390.644, 71242.62
1391.694, 71657.11
1392.743, 71716.95
1393.792, 71939.09
1394.841, 71809.78
1395.890, 71789.02
1396.939, 72119.82
1397.987, 72255.92
1399.035, 72086.12
1400.083, 72318.53
1401.131, 71832.31
1402.179, 71976.70
1403.227, 72393.17
1404.274, 72241.00
1405.321, 72479.80
1406.368, 72569.70
1407.415, 71982.88
1408.462, 72572.93
1409.508, 72653.98
1410.554, 72212.45
1411.601, 72762.17
1412.646, 72392.65
1413.692, 72351.25
1414.738, 72556.76
1415.783, 72536.00
1416.829, 71991.00
1417.874, 72277.00
1418.919, 72146.26
1419.963, 72396.00
1421.008, 72279.00
1422.052, 72689.00
1423.096, 72801.00
1424.140, 72620.00
1425.184, 72347.00
1426.228, 72871.00
1427.271, 72919.00
1428.315, 72638.00
1429.358, 73195.00
1430.401, 73172.00
1431.444, 72925.00
1432.486, 73386.00
1433.529, 73359.96
1434.571, 73938.00
1435.613, 73810.00
1436.655, 73454.00
1437.697, 73786.00
1438.738, 74074.00
1439.780, 74225.00
1440.821, 74729.00
1441.862, 74707.00
1442.903, 74995.00
1443.943, 74580.00
1444.984, 75147.00
1446.024, 75098.00
1447.064, 75333.00
1448.104, 75275.00
1449.144, 75233.00
1450.184, 75380.00
1451.223, 75471.00
1452.262, 75491.00
1453.301, 75814.00
1454.340, 75577.00
1455.379, 75829.00
1456.418, 75632.00
1457.456, 75887.00
1458.494, 75879.00
1459.532, 75513.00
1460.570, 75677.00
1461.608, 75401.00
1462.645, 75420.00
1463.683, 75386.00
1464.720, 75040.00
1465.757, 75368.00
1466.793, 75641.00
1467.830, 75322.00
1468.867, 75029.00
1469.903, 75127.00
1470.939, 74967.00
1471.975, 75350.00
1473.010, 75106.00
1474.046, 75594.00
1475.081, 74979.00
1476.117, 75198.00
1477.152, 75405.00
1478.186, 75115.00
1479.221, 75481.00
1480.256, 75139.00
1481.290, 75059.00
1482.324, 75510.00
1483.358, 75058.00
1484.392, 75430.00
1485.425, 75095.00
1486.459, 75294.00
1487.492, 75407.00
1488.525, 75055.00
1489.558, 75285.00
1490.591, 75038.00
1491.623, 75075.00
1492.656, 75331.00
1493.688, 75298.00
1494.720, 75230.00
1495.752, 74988.00
1496.783, 75440.00
1497.815, 75366.00
1498.846, 75495.00
1499.877, 75709.00
1500.908, 75549.00
1501.939, 75592.00
1502.970, 75383.00
1504.000, 75614.00
1505.030, 75589.52
1506.060, 75681.00
1507.090, 75568.00
1508.120, 76129.00
1509.149, 75780.00
1510.179, 76118.00
1511.208, 75698.00
1512.237, 76040.00
1513.266, 76123.00
1514.294, 76231.00
1515.323, 76348.80
1516.351, 76406.00
1517.379, 76395.00
1518.407, 76409.00
1519.435, 76335.00
1520.462, 76354.00
1521.490, 76314.00
1522.517, 76324.00
1523.544, 76387.00
1524.571, 76585.00
1525.598, 76258.00
1526.624, 76673.00
1527.651, 76412.00
1528.677, 76972.00
1529.703, 76738.00
1530.728, 76663.00
1531.754, 77026.00
1532.780, 76758.00
1533.805, 77005.00
1534.830, 76879.00
1535.855, 77123.00
1536.880, 77235.00
1537.904, 76979.00
1538.928, 77606.00
1539.953, 77131.00
1540.977, 77439.00
1542.000, 77225.00
1543.024, 77233.00
1544.048, 77389.00
1545.071, 77191.00
1546.094, 77215.00
1547.117, 77262.00
1548.140, 76891.00
1549.162, 77200.53
1550.185, 77837.00
1551.207, 77554.00
1552.229, 77890.00
1553.251, 77997.00
1554.273, 78202.00
1555.294, 77979.00
1556.316, 77901.00
1557.337, 78167.00
1558.358, 77581.00
1559.379, 77454.00
1560.399, 78115.00
1561.420, 78085.00
1562.440, 77831.00
1563.460, 77592.00
1564.480, 77996.00
1565.500, 77830.00
1566.519, 77888.00
1567.539, 77846.00
1568.558, 77672.00
##END=



