##NAMES=Triplite
##RRUFFID=R050226
##IDEAL CHEMISTRY=Mn^2+^_2_(PO_4_)F
##LOCALITY=Fremont County, Colorado, USA
##OWNER=RRUFF
##SOURCE=Marcus Origlieri
##DESCRIPTION=Reddish brown massive
##STATUS=The identification of this mineral has been confirmed by X-ray diffraction and chemical analysis
##URL=rruff.info/R050226
##MEASURED CHEMISTRY=(Mn^2+^_1.20_Mg_0.49_Fe^2+^_0.27_Ca_0.04_)_Σ=2_(P_1.00_O_4_)(F_0.95_(OH)_0.05_)_Σ=1_
##PIN_ID=L00312
##ORIENTATION=Laser parallel to (1 0 1). Fiducial mark perpendicular to laser is parallel to b [0 1 0]
129.2090, 12219.00
130.4390, 12482.00
131.6680, 12750.00
132.8980, 12996.00
134.1270, 12844.00
135.3560, 12600.00
136.5850, 12517.00
137.8140, 12352.00
139.0430, 12505.00
140.2710, 12868.00
141.5000, 12693.68
142.7280, 12888.00
143.9560, 12637.00
145.1840, 12279.00
146.4120, 12239.00
147.6390, 12218.00
148.8670, 12373.00
150.0940, 12258.00
151.3210, 12773.00
152.5490, 12564.13
153.7750, 12626.52
155.0020, 12497.00
156.2290, 12383.00
157.4550, 12280.04
158.6810, 12135.00
159.9080, 11991.00
161.1340, 11840.00
162.3590, 11753.00
163.5850, 11912.00
164.8110, 12538.00
166.0360, 12911.00
167.2610, 12871.00
168.4860, 12367.00
169.7110, 12117.00
170.9360, 12231.00
172.1610, 12471.00
173.3850, 12369.00
174.6100, 11923.00
175.8340, 11874.00
177.0580, 11951.00
178.2820, 11841.00
179.5050, 11871.98
180.7290, 11949.00
181.9520, 11871.00
183.1760, 11808.00
184.3990, 11809.00
185.6220, 11833.00
186.8450, 11891.89
188.0670, 11956.49
189.2900, 12083.00
190.5120, 12151.00
191.7340, 12242.00
192.9560, 12369.00
194.1780, 12407.00
195.4000, 12606.00
196.6220, 12364.00
197.8430, 12638.00
199.0640, 12637.00
200.2860, 12562.00
201.5070, 12962.00
202.7270, 13151.00
203.9480, 13196.00
205.1690, 12901.00
206.3890, 12151.00
207.6090, 11593.00
208.8290, 11538.00
210.0490, 11258.00
211.2690, 11298.00
212.4890, 11548.00
213.7080, 11830.00
214.9280, 12093.00
216.1470, 11805.00
217.3660, 11520.00
218.5850, 11629.00
219.8030, 11602.00
221.0220, 11765.00
222.2400, 11880.00
223.4590, 11965.00
224.6770, 12022.52
225.8950, 11938.68
227.1120, 12002.00
228.3300, 11745.00
229.5480, 11568.00
230.7650, 11589.00
231.9820, 11384.00
233.1990, 11372.00
234.4160, 11432.00
235.6330, 11416.00
236.8490, 11465.00
238.0660, 11462.00
239.2820, 11372.00
240.4980, 11524.00
241.7140, 11653.00
242.9300, 11512.00
244.1460, 11662.00
245.3610, 11638.00
246.5770, 11535.00
247.7920, 11594.00
249.0070, 11499.00
250.2220, 11535.00
251.4370, 11549.00
252.6510, 11479.17
253.8660, 11615.66
255.0800, 11689.93
256.2940, 11705.31
257.5080, 11485.45
258.7220, 11569.36
259.9360, 11531.53
261.1490, 11488.72
262.3630, 11615.38
263.5760, 11429.74
264.7890, 11553.72
266.0020, 11554.10
267.2150, 11596.00
268.4270, 11383.00
269.6400, 11418.00
270.8520, 11247.00
272.0640, 11400.00
273.2760, 11266.00
274.4880, 11358.00
275.7000, 11496.00
276.9120, 11884.00
278.1230, 11832.00
279.3340, 11735.00
280.5450, 11617.00
281.7560, 11597.00
282.9670, 11662.23
284.1780, 11590.00
285.3880, 11822.00
286.5980, 11964.00
287.8090, 11884.00
289.0190, 12094.00
290.2290, 12081.00
291.4380, 12222.00
292.6480, 12293.00
293.8570, 12322.00
295.0670, 12257.00
296.2760, 12121.00
297.4850, 12225.00
298.6930, 12090.00
299.9020, 12251.00
301.1110, 11990.00
302.3190, 11916.00
303.5270, 11840.00
304.7350, 11800.00
305.9430, 11690.00
307.1510, 11550.00
308.3580, 11697.00
309.5660, 11538.00
310.7730, 11651.00
311.9800, 11483.02
313.1870, 11477.00
314.3940, 11266.00
315.6010, 11205.00
316.8070, 11371.00
318.0130, 11290.00
319.2200, 11455.00
320.4260, 11392.58
321.6310, 11302.51
322.8370, 11367.00
324.0430, 11304.27
325.2480, 11244.00
326.4540, 11288.00
327.6590, 11261.00
328.8640, 11265.00
330.0680, 11354.00
331.2730, 11260.00
332.4780, 11259.00
333.6820, 11287.00
334.8860, 11425.00
336.0900, 11321.00
337.2940, 11173.00
338.4980, 11276.00
339.7010, 11151.00
340.9050, 11231.00
342.1080, 11187.00
343.3110, 11315.00
344.5140, 11270.00
345.7170, 11160.00
346.9200, 11186.00
348.1220, 11193.33
349.3240, 11336.38
350.5270, 11417.20
351.7290, 11439.15
352.9310, 11225.85
354.1320, 11316.31
355.3340, 11285.04
356.5350, 11248.78
357.7370, 11382.00
358.9380, 11202.92
360.1390, 11333.45
361.3400, 11340.39
362.5400, 11336.00
363.7410, 11331.00
364.9410, 11295.00
366.1410, 11430.00
367.3410, 11319.00
368.5410, 11399.00
369.7410, 11381.00
370.9400, 11336.00
372.1400, 11386.00
373.3390, 11352.00
374.5380, 11360.00
375.7370, 11425.00
376.9360, 11377.00
378.1350, 11250.00
379.3330, 11384.00
380.5310, 11570.00
381.7300, 11461.00
382.9280, 11622.00
384.1260, 11567.00
385.3230, 11527.00
386.5210, 11564.00
387.7180, 11673.00
388.9160, 11644.00
390.1130, 11679.00
391.3100, 11615.00
392.5060, 11670.00
393.7030, 11809.00
394.9000, 11781.00
396.0960, 11911.00
397.2920, 11841.00
398.4880, 12019.00
399.6840, 12085.00
400.8800, 11982.00
402.0750, 12077.00
403.2710, 12223.00
404.4660, 12411.00
405.6610, 12383.00
406.8560, 12477.00
408.0510, 12454.00
409.2450, 12517.00
410.4400, 12531.67
411.6340, 12427.00
412.8280, 12504.00
414.0220, 12500.00
415.2160, 12373.00
416.4100, 12199.00
417.6030, 12135.00
418.7970, 12142.00
419.9900, 12221.00
421.1830, 12166.00
422.3760, 12264.00
423.5690, 12342.00
424.7610, 12460.00
425.9540, 12492.00
427.1460, 12509.00
428.3380, 12502.00
429.5300, 12502.88
430.7220, 12497.01
431.9140, 12485.00
433.1050, 12539.00
434.2970, 12562.00
435.4880, 12554.48
436.6790, 12614.00
437.8700, 12550.00
439.0610, 12550.00
440.2510, 12559.00
441.4420, 12621.00
442.6320, 12793.00
443.8220, 12802.00
445.0120, 12892.00
446.2020, 12985.00
447.3910, 12965.00
448.5810, 13138.00
449.7700, 13203.00
450.9600, 13513.00
452.1490, 13499.00
453.3370, 13795.00
454.5260, 13736.00
455.7150, 13903.00
456.9030, 13934.00
458.0910, 14013.00
459.2800, 13988.55
460.4670, 13803.00
461.6550, 13805.00
462.8430, 13651.00
464.0300, 13411.00
465.2180, 13396.00
466.4050, 13225.00
467.5920, 13275.00
468.7790, 12921.00
469.9650, 12839.00
471.1520, 12873.00
472.3380, 12688.00
473.5250, 12651.00
474.7110, 12576.56
475.8970, 12543.00
477.0820, 12435.00
478.2680, 12451.00
479.4540, 12422.00
480.6390, 12364.32
481.8240, 12374.25
483.0090, 12314.00
484.1940, 12363.00
485.3780, 12419.00
486.5630, 12441.00
487.7470, 12375.00
488.9320, 12276.00
490.1160, 12422.00
491.3000, 12536.00
492.4830, 12458.00
493.6670, 12348.00
494.8500, 12347.00
496.0340, 12451.00
497.2170, 12519.00
498.4000, 12485.00
499.5820, 12481.00
500.7650, 12437.00
501.9480, 12468.00
503.1300, 12517.00
504.3120, 12409.08
505.4940, 12423.00
506.6760, 12337.00
507.8580, 12368.00
509.0390, 12309.98
510.2210, 12404.00
511.4020, 12281.00
512.5830, 12332.00
513.7640, 12454.00
514.9450, 12410.00
516.1250, 12425.00
517.3060, 12441.00
518.4860, 12197.00
519.6660, 12317.00
520.8460, 12475.00
522.0260, 12269.00
523.2060, 12207.00
524.3850, 12375.00
525.5650, 12299.00
526.7440, 12288.00
527.9230, 12214.00
529.1020, 12269.00
530.2810, 12368.00
531.4590, 12482.00
532.6380, 12372.00
533.8160, 12374.00
534.9940, 12419.00
536.1720, 12389.00
537.3500, 12457.00
538.5270, 12495.00
539.7050, 12495.00
540.8820, 12508.00
542.0590, 12474.00
543.2360, 12663.00
544.4130, 12576.00
545.5900, 12567.00
546.7660, 12503.00
547.9430, 12651.00
549.1190, 12682.00
550.2950, 12715.00
551.4710, 12655.00
552.6470, 12705.00
553.8220, 12653.00
554.9980, 12615.00
556.1730, 12801.00
557.3480, 12786.00
558.5230, 12772.00
559.6980, 12728.00
560.8730, 12816.00
562.0470, 12918.00
563.2220, 12774.00
564.3960, 12872.00
565.5700, 12873.00
566.7440, 12857.00
567.9170, 13117.00
569.0910, 12955.00
570.2640, 13122.00
571.4380, 13125.00
572.6110, 13180.00
573.7840, 13206.00
574.9570, 13100.00
576.1290, 13310.00
577.3020, 13297.00
578.4740, 13229.00
579.6460, 13373.00
580.8180, 13285.22
581.9900, 13389.00
583.1620, 13236.00
584.3330, 13287.00
585.5040, 13293.00
586.6760, 13467.00
587.8470, 13396.00
589.0180, 13437.00
590.1880, 13481.00
591.3590, 13531.00
592.5290, 13635.00
593.7000, 13574.00
594.8700, 13755.00
596.0400, 13796.00
597.2090, 13991.00
598.3790, 14057.00
599.5490, 14282.00
600.7180, 14768.00
601.8870, 14437.00
603.0560, 14609.00
604.2250, 15001.00
605.3940, 14791.00
606.5620, 14759.00
607.7300, 14926.00
608.8990, 15035.00
610.0670, 14734.00
611.2350, 14940.00
612.4020, 14990.00
613.5700, 14918.00
614.7370, 14990.00
615.9050, 14978.00
617.0720, 14944.00
618.2390, 14954.00
619.4060, 14722.00
620.5720, 14744.00
621.7390, 14524.00
622.9050, 14491.00
624.0710, 14288.00
625.2370, 14346.00
626.4030, 14318.00
627.5690, 14164.00
628.7340, 14055.00
629.9000, 14156.00
631.0650, 14049.00
632.2300, 14176.00
633.3950, 14083.00
634.5600, 14029.00
635.7240, 14057.00
636.8890, 14302.00
638.0530, 14025.00
639.2170, 14014.00
640.3810, 14242.00
641.5450, 14014.00
642.7080, 14184.00
643.8720, 14277.00
645.0350, 14249.00
646.1980, 14274.46
647.3610, 14261.08
648.5240, 14248.00
649.6870, 14155.00
650.8490, 14311.00
652.0120, 14184.00
653.1740, 14168.00
654.3360, 14271.00
655.4980, 14231.00
656.6600, 14314.00
657.8210, 14447.00
658.9830, 14056.00
660.1440, 14172.00
661.3050, 14190.00
662.4660, 14156.00
663.6270, 14134.00
664.7870, 14029.00
665.9480, 14040.00
667.1080, 14105.00
668.2680, 13889.00
669.4280, 14113.00
670.5880, 13962.00
671.7480, 13826.00
672.9070, 13984.00
674.0670, 13957.00
675.2260, 13939.00
676.3850, 14044.00
677.5440, 13930.00
678.7030, 14150.00
679.8610, 13979.00
681.0200, 14016.00
682.1780, 13908.00
683.3360, 14017.00
684.4940, 13921.00
685.6520, 13954.00
686.8090, 14052.00
687.9670, 14095.00
689.1240, 14030.00
690.2810, 14074.00
691.4380, 14023.00
692.5950, 14155.00
693.7520, 14030.00
694.9080, 14085.00
696.0650, 14096.00
697.2210, 14032.00
698.3770, 14234.00
699.5330, 14072.00
700.6880, 14068.00
701.8440, 14161.00
702.9990, 14035.00
704.1550, 13977.00
705.3100, 14094.00
706.4650, 14028.00
707.6190, 14008.00
708.7740, 13806.00
709.9290, 13951.00
711.0830, 13937.00
712.2370, 14128.00
713.3910, 13928.00
714.5450, 13790.00
715.6980, 13743.00
716.8520, 13820.00
718.0050, 13776.00
719.1580, 13857.00
720.3110, 13660.00
721.4640, 13563.00
722.6170, 13563.00
723.7700, 13635.00
724.9220, 13561.62
726.0740, 13664.00
727.2260, 13533.00
728.3780, 13618.00
729.5300, 13653.00
730.6810, 13461.00
731.8330, 13495.00
732.9840, 13611.00
734.1350, 13676.00
735.2860, 13563.00
736.4370, 13507.00
737.5880, 13643.00
738.7380, 13570.00
739.8880, 13548.00
741.0390, 13508.00
742.1890, 13469.00
743.3380, 13577.00
744.4880, 13584.00
745.6380, 13612.00
746.7870, 13398.00
747.9360, 13525.00
749.0850, 13551.00
750.2340, 13689.00
751.3830, 13711.00
752.5310, 13624.00
753.6800, 13538.00
754.8280, 13827.00
755.9760, 13641.00
757.1240, 13695.00
758.2720, 13774.00
759.4190, 13625.00
760.5670, 13754.00
761.7140, 13765.00
762.8610, 13623.00
764.0080, 13620.00
765.1550, 13789.00
766.3020, 13751.00
767.4480, 13801.00
768.5950, 13734.00
769.7410, 13783.00
770.8870, 13772.61
772.0330, 13867.00
773.1780, 13752.00
774.3240, 13711.00
775.4690, 13650.00
776.6140, 13821.00
777.7590, 13868.00
778.9040, 13883.00
780.0490, 13964.00
781.1940, 14045.00
782.3380, 13793.00
783.4820, 14008.00
784.6260, 13778.00
785.7700, 14056.00
786.9140, 14005.00
788.0580, 13961.00
789.2010, 13950.00
790.3450, 13993.00
791.4880, 13987.00
792.6310, 14020.00
793.7730, 14025.10
794.9160, 14032.00
796.0590, 14023.00
797.2010, 14055.00
798.3430, 14032.00
799.4850, 13995.00
800.6270, 14062.00
801.7690, 13902.00
802.9100, 13970.00
804.0520, 14041.00
805.1930, 14117.00
806.3340, 13982.00
807.4750, 14123.00
808.6160, 14102.00
809.7560, 14028.00
810.8970, 14277.00
812.0370, 14075.00
813.1770, 14211.00
814.3170, 14051.00
815.4570, 14116.00
816.5960, 13957.00
817.7360, 13964.00
818.8750, 13944.33
820.0140, 13959.95
821.1530, 14005.00
822.2920, 14018.00
823.4310, 14246.00
824.5690, 14147.00
825.7070, 14189.00
826.8460, 14283.00
827.9840, 14124.00
829.1220, 14095.00
830.2590, 14076.00
831.3970, 14121.00
832.5340, 14140.38
833.6710, 14211.00
834.8080, 14231.00
835.9450, 14249.00
837.0820, 14266.00
838.2190, 14326.00
839.3550, 14367.00
840.4910, 14196.00
841.6270, 14372.00
842.7630, 14160.00
843.8990, 14395.00
845.0350, 14348.00
846.1700, 14342.00
847.3060, 14221.00
848.4410, 14331.00
849.5760, 14306.00
850.7100, 14288.00
851.8450, 14309.00
852.9800, 14520.00
854.1140, 14247.00
855.2480, 14509.00
856.3820, 14326.00
857.5160, 14526.00
858.6500, 14690.00
859.7830, 14351.00
860.9170, 14363.00
862.0500, 14500.00
863.1830, 14483.00
864.3160, 14609.00
865.4480, 14661.00
866.5810, 14670.00
867.7130, 14713.00
868.8460, 14763.00
869.9780, 14578.00
871.1100, 14731.00
872.2410, 14643.00
873.3730, 14605.00
874.5050, 14700.00
875.6360, 14763.00
876.7670, 14767.00
877.8980, 14797.00
879.0290, 14848.00
880.1590, 14893.00
881.2900, 14861.00
882.4200, 14824.00
883.5500, 14710.00
884.6800, 14920.00
885.8100, 14945.00
886.9400, 15096.00
888.0690, 14918.00
889.1990, 15055.00
890.3280, 15132.00
891.4570, 15018.00
892.5860, 15108.00
893.7140, 15121.00
894.8430, 15090.00
895.9710, 15172.07
897.1000, 15245.00
898.2280, 15289.00
899.3560, 15326.60
900.4830, 15353.00
901.6110, 15350.00
902.7380, 15356.31
903.8660, 15334.00
904.9930, 15368.00
906.1200, 15430.00
907.2460, 15464.00
908.3730, 15390.00
909.5000, 15623.00
910.6260, 15505.00
911.7520, 15633.00
912.8780, 15545.00
914.0040, 15824.00
915.1290, 15599.00
916.2550, 15741.00
917.3800, 15637.99
918.5050, 15812.74
919.6300, 15925.27
920.7550, 15978.91
921.8800, 15797.31
923.0040, 15919.45
924.1290, 15919.88
925.2530, 15915.29
926.3770, 16080.18
927.5010, 15932.77
928.6250, 16094.97
929.7480, 16133.55
930.8720, 16107.00
931.9950, 16181.97
933.1180, 16219.72
934.2410, 16316.00
935.3640, 16315.00
936.4860, 16419.00
937.6090, 16430.00
938.7310, 16439.00
939.8530, 16627.00
940.9750, 16453.00
942.0970, 16435.00
943.2180, 16783.00
944.3400, 16739.00
945.4610, 16759.64
946.5820, 17063.00
947.7030, 16771.00
948.8240, 16931.00
949.9450, 17166.00
951.0650, 17363.00
952.1860, 17502.00
953.3060, 17588.00
954.4260, 17706.00
955.5460, 17925.00
956.6650, 18121.00
957.7850, 18319.00
958.9040, 18424.00
960.0230, 18953.00
961.1420, 18876.00
962.2610, 19413.00
963.3800, 19682.00
964.4990, 19835.00
965.6170, 20323.00
966.7350, 20866.76
967.8530, 21514.00
968.9710, 22339.00
970.0890, 23245.00
971.2070, 24247.00
972.3240, 25566.00
973.4410, 27159.00
974.5580, 28469.00
975.6750, 31109.00
976.7920, 33289.00
977.9090, 35603.00
979.0250, 38821.00
980.1410, 42019.00
981.2580, 45400.00
982.3740, 48880.00
983.4890, 51720.00
984.6050, 53348.00
985.7200, 53725.86
986.8360, 53633.00
987.9510, 51059.00
989.0660, 47778.00
990.1810, 43058.00
991.2950, 38761.00
992.4100, 34663.00
993.5240, 31224.00
994.6390, 28323.00
995.7530, 26277.00
996.8660, 24744.00
997.9800, 23444.00
999.0940, 22666.00
1000.207, 21779.00
1001.320, 21394.00
1002.433, 20915.00
1003.546, 20507.00
1004.659, 20650.00
1005.772, 20548.00
1006.884, 20231.00
1007.996, 19810.00
1009.108, 19992.00
1010.220, 19868.00
1011.332, 19746.00
1012.444, 19808.00
1013.555, 19615.00
1014.666, 19580.00
1015.777, 19635.00
1016.888, 19380.00
1017.999, 19406.00
1019.110, 19553.00
1020.220, 19578.00
1021.331, 19630.70
1022.441, 19530.00
1023.551, 19677.00
1024.661, 19650.00
1025.770, 19613.00
1026.880, 19774.00
1027.989, 19712.00
1029.098, 19747.00
1030.207, 19902.00
1031.316, 19961.00
1032.425, 19856.00
1033.533, 20135.00
1034.642, 20226.00
1035.750, 20358.00
1036.858, 20245.00
1037.966, 20361.00
1039.073, 20608.00
1040.181, 20294.00
1041.288, 20685.00
1042.396, 20601.00
1043.503, 20680.00
1044.610, 20424.00
1045.716, 20561.00
1046.823, 20674.00
1047.929, 20708.00
1049.036, 20594.00
1050.142, 20335.00
1051.248, 20265.00
1052.353, 20235.00
1053.459, 20184.00
1054.564, 20134.00
1055.670, 19891.00
1056.775, 19868.00
1057.880, 19993.00
1058.985, 19771.00
1060.089, 19785.00
1061.194, 19620.00
1062.298, 19457.00
1063.402, 19680.00
1064.506, 19716.00
1065.610, 19558.00
1066.713, 19411.00
1067.817, 19511.00
1068.920, 19368.00
1070.023, 19448.00
1071.126, 19306.00
1072.229, 19487.00
1073.332, 19582.00
1074.435, 19579.00
1075.537, 19346.00
1076.639, 19476.00
1077.741, 19568.00
1078.843, 19369.00
1079.945, 19461.00
1081.046, 19355.00
1082.148, 19554.00
1083.249, 19354.00
1084.350, 19338.00
1085.451, 19485.00
1086.551, 19470.00
1087.652, 19285.00
1088.752, 19489.00
1089.853, 19281.00
1090.953, 19383.00
1092.053, 19160.00
1093.152, 19457.00
1094.252, 19109.00
1095.351, 19278.00
1096.451, 19144.00
1097.550, 19132.00
1098.649, 19147.00
1099.748, 19187.00
1100.846, 19076.00
1101.945, 19043.00
1103.043, 19100.00
1104.141, 19105.00
1105.239, 18860.00
1106.337, 18935.00
1107.434, 18978.00
1108.532, 19079.00
1109.629, 18853.00
1110.726, 18995.00
1111.823, 18815.00
1112.920, 19012.00
1114.017, 18895.00
1115.113, 19156.00
1116.210, 19082.00
1117.306, 19229.00
1118.402, 19255.00
1119.498, 19393.00
1120.593, 19492.00
1121.689, 19591.00
1122.784, 19598.70
1123.879, 19771.00
1124.974, 19623.00
1126.069, 19448.00
1127.164, 19571.00
1128.259, 19451.00
1129.353, 19621.00
1130.447, 19535.84
1131.541, 19242.00
1132.635, 19374.00
1133.729, 19241.00
1134.822, 19040.00
1135.916, 19178.00
1137.009, 19030.00
1138.102, 19035.00
1139.195, 19042.00
1140.288, 18884.00
1141.380, 18895.00
1142.473, 18667.00
1143.565, 18760.00
1144.657, 18749.00
1145.749, 18811.00
1146.841, 18673.00
1147.932, 18511.00
1149.024, 18645.00
1150.115, 18568.00
1151.206, 18466.00
1152.297, 18531.00
1153.388, 18363.00
1154.479, 18376.00
1155.569, 18543.00
1156.659, 18530.00
1157.750, 18555.00
1158.839, 18596.25
1159.929, 18444.00
1161.019, 18550.00
1162.108, 18547.00
1163.198, 18415.00
1164.287, 18224.00
1165.376, 18594.00
1166.465, 18500.00
1167.553, 18593.00
1168.642, 18409.00
1169.730, 18619.00
1170.818, 18437.00
1171.906, 18585.00
1172.994, 18521.00
1174.082, 18447.00
1175.170, 18519.11
1176.257, 18576.00
1177.344, 18553.00
1178.431, 18504.00
1179.518, 18524.00
1180.605, 18511.00
1181.691, 18537.02
1182.778, 18624.00
1183.864, 18561.00
1184.950, 18570.00
1186.036, 18470.00
1187.122, 18445.00
1188.207, 18543.00
1189.292, 18719.00
1190.378, 18601.00
1191.463, 18655.00
1192.548, 18670.00
1193.632, 18742.00
1194.717, 18719.48
1195.801, 18640.00
1196.886, 18687.00
1197.970, 18660.00
1199.054, 18655.62
1200.137, 18652.89
1201.221, 18630.00
1202.305, 18619.00
1203.388, 18700.00
1204.471, 18687.00
1205.554, 18749.00
1206.637, 18868.00
1207.719, 18747.00
1208.802, 18846.00
1209.884, 18798.00
1210.966, 18849.00
1212.048, 18855.00
1213.130, 18852.00
1214.212, 18712.00
1215.293, 18822.00
1216.374, 18805.00
1217.456, 18792.00
1218.536, 18860.37
1219.617, 18875.00
1220.698, 18954.00
1221.778, 18718.00
1222.859, 18778.00
1223.939, 18705.00
1225.019, 18819.00
1226.099, 19050.00
1227.178, 18814.00
1228.258, 19015.00
1229.337, 18804.00
1230.417, 18904.00
1231.496, 18920.00
1232.574, 19164.00
1233.653, 19047.00
1234.732, 19062.00
1235.810, 19184.00
1236.888, 19233.00
1237.966, 19326.00
1239.044, 19263.00
1240.122, 19106.00
1241.199, 19173.00
1242.277, 19218.00
1243.354, 19300.00
1244.431, 19095.00
1245.508, 19179.00
1246.585, 19106.00
1247.661, 19341.00
1248.738, 19345.00
1249.814, 19367.00
1250.890, 19275.00
1251.966, 19268.00
1253.042, 19539.00
1254.117, 19231.00
1255.193, 19368.00
1256.268, 19530.00
1257.343, 19318.00
1258.418, 19408.00
1259.493, 19340.00
1260.567, 19540.00
1261.642, 19635.00
1262.716, 19451.00
1263.790, 19706.00
1264.864, 19591.00
1265.938, 19743.00
1267.011, 19726.00
1268.085, 19715.00
1269.158, 19552.00
1270.231, 19621.00
1271.304, 19767.00
1272.377, 19744.00
1273.450, 19846.00
1274.522, 19702.00
1275.594, 19900.00
1276.666, 19992.00
1277.738, 19699.00
1278.810, 19939.00
1279.882, 19957.00
1280.953, 19902.00
1282.025, 20016.00
1283.096, 19740.00
1284.167, 19893.00
1285.238, 19910.00
1286.308, 20026.00
1287.379, 20163.00
1288.449, 19946.00
1289.519, 20212.00
1290.589, 19927.00
1291.659, 20251.00
1292.729, 20141.00
1293.798, 20228.00
1294.868, 20355.00
1295.937, 20179.00
1297.006, 20307.00
1298.075, 20443.00
1299.143, 20485.00
1300.212, 20398.00
1301.280, 20619.00
1302.348, 20366.00
1303.416, 20790.00
1304.484, 20385.00
1305.552, 20447.00
1306.620, 20608.00
1307.687, 20778.00
1308.754, 20734.00
1309.821, 20723.00
1310.888, 20731.00
1311.955, 20689.00
1313.021, 20699.00
1314.088, 20768.00
1315.154, 20830.00
1316.220, 20874.00
1317.286, 20866.00
1318.352, 20931.00
1319.417, 20912.09
1320.483, 20816.00
1321.548, 20871.00
1322.613, 20945.00
1323.678, 20889.00
1324.743, 21007.00
1325.807, 20931.00
1326.872, 20871.00
1327.936, 20885.58
1329.000, 20844.75
1330.064, 20903.00
1331.128, 20740.00
1332.191, 20915.00
1333.255, 20677.00
1334.318, 20716.00
1335.381, 20782.00
1336.444, 20852.00
1337.507, 20966.00
1338.569, 20727.00
1339.632, 20798.00
1340.694, 20655.00
1341.756, 20852.00
1342.818, 20837.00
1343.880, 20848.00
1344.941, 20819.00
1346.003, 20829.00
1347.064, 20663.00
1348.125, 20835.00
1349.186, 20781.00
1350.247, 20887.00
1351.308, 20720.00
1352.368, 20962.00
1353.428, 20600.00
1354.489, 20867.00
1355.549, 20598.00
1356.608, 20701.00
1357.668, 20587.00
1358.727, 20683.00
1359.787, 20792.00
1360.846, 20686.00
1361.905, 20721.00
1362.964, 20602.00
1364.022, 20717.00
1365.081, 20769.00
1366.139, 20523.00
1367.197, 20677.00
1368.255, 20592.00
1369.313, 20751.00
1370.371, 20791.00
1371.428, 20768.00
1372.486, 20724.00
1373.543, 20800.00
1374.600, 20612.00
1375.657, 20576.00
1376.713, 20699.00
1377.770, 20715.00
1378.826, 20837.00
1379.882, 20824.00
1380.938, 20691.00
1381.994, 20761.00
1383.050, 20771.00
1384.106, 20571.00
1385.161, 20665.00
1386.216, 20719.00
1387.271, 20722.00
1388.326, 20847.00
1389.381, 20799.00
1390.435, 20712.00
1391.490, 20837.00
1392.544, 20750.00
1393.598, 20801.00
1394.652, 20942.00
1395.705, 20876.00
1396.759, 20695.00
1397.812, 20809.00
1398.866, 20694.00
1399.919, 20809.00
1400.972, 20844.00
1402.024, 20809.00
1403.077, 20824.00
1404.129, 20879.00
1405.181, 20834.00
1406.233, 20777.00
1407.285, 20866.00
1408.337, 21004.00
1409.389, 20872.00
1410.440, 20994.00
1411.491, 20848.00
1412.542, 20958.00
1413.593, 20970.00
1414.644, 20788.00
1415.695, 21031.00
1416.745, 20843.00
1417.795, 20963.00
1418.845, 20938.00
1419.895, 21112.00
1420.945, 21289.00
1421.995, 21208.00
1423.044, 21076.00
1424.093, 21070.00
1425.142, 20953.00
1426.191, 21070.00
1427.240, 21107.00
1428.289, 21047.00
1429.337, 21232.00
1430.385, 21192.00
1431.433, 21395.00
1432.481, 21434.00
1433.529, 21219.00
1434.577, 21501.00
1435.624, 21326.00
1436.672, 21209.00
1437.719, 21353.00
1438.766, 21221.00
1439.812, 21139.00
1440.859, 21360.00
1441.905, 21181.00
1442.952, 21269.00
1443.998, 21363.00
1445.044, 21477.00
1446.090, 21338.00
1447.135, 21519.00
1448.181, 21507.00
1449.226, 21411.00
1450.271, 21510.24
1451.316, 21442.90
1452.361, 21533.00
1453.405, 21463.00
1454.450, 21439.00
1455.494, 21575.00
1456.538, 21439.19
1457.582, 21734.00
1458.626, 21345.00
1459.670, 21398.00
1460.713, 21483.00
1461.757, 21553.00
1462.800, 21440.00
1463.843, 21677.00
1464.886, 21538.00
1465.928, 21623.00
1466.971, 21508.00
1468.013, 21613.00
1469.055, 21638.00
1470.097, 21599.00
1471.139, 21522.00
1472.181, 21833.00
1473.222, 21576.00
1474.263, 21771.00
1475.305, 21414.00
1476.346, 21706.00
1477.386, 21987.00
1478.427, 21703.00
1479.468, 21961.00
1480.508, 21818.39
1481.548, 22354.00
1482.588, 21692.00
1483.628, 21807.00
1484.668, 21974.00
1485.707, 21793.00
1486.747, 21776.00
1487.786, 21778.00
1488.825, 21677.00
1489.864, 21859.00
1490.902, 21825.00
1491.941, 22041.00
1492.979, 21949.00
1494.017, 21978.00
1495.055, 22059.00
1496.093, 22051.00
1497.131, 22052.00
1498.168, 22058.77
1499.206, 22046.21
1500.243, 21931.00
1501.280, 22112.00
1502.317, 21867.00
1503.354, 22060.00
1504.390, 22127.00
1505.426, 22175.00
1506.463, 21868.00
1507.499, 22178.00
1508.535, 22099.00
1509.570, 21989.00
1510.606, 22088.00
1511.641, 22181.00
1512.676, 22271.00
1513.711, 22275.00
1514.746, 22071.00
1515.781, 22311.00
1516.816, 22182.00
1517.850, 22179.00
1518.884, 22412.00
1519.918, 22327.00
1520.952, 22213.00
1521.986, 22348.00
1523.019, 22566.00
1524.053, 22285.00
1525.086, 22440.00
1526.119, 22650.00
1527.152, 22365.00
1528.185, 22366.00
1529.217, 22501.00
1530.250, 22440.00
1531.282, 22680.00
1532.314, 22612.00
1533.346, 22610.00
1534.377, 22462.00
1535.409, 22617.00
1536.440, 22637.00
1537.472, 22700.00
1538.503, 22640.00
1539.534, 22703.54
1540.564, 22530.00
1541.595, 22712.00
1542.625, 22810.00
1543.656, 22699.00
1544.686, 22848.00
1545.716, 22777.00
1546.745, 22699.00
1547.775, 22770.00
1548.804, 22670.21
1549.834, 22830.34
1550.863, 22928.23
1551.892, 22967.23
1552.920, 22770.97
1553.949, 22878.50
1554.977, 22864.28
1556.006, 22845.08
1557.034, 22995.35
1558.062, 22833.31
1559.089, 22980.87
1560.117, 23004.86
1561.144, 23085.39
1562.172, 23038.00
1563.199, 22997.00
1564.226, 23043.00
1565.252, 23133.00
1566.279, 22939.00
1567.305, 23032.00
1568.332, 23048.00
1569.358, 23199.00
1570.384, 23078.00
1571.409, 23476.00
1572.435, 24008.00
##END=



