##NAMES=Triplite
##RRUFFID=R050226
##IDEAL CHEMISTRY=Mn^2+^_2_(PO_4_)F
##LOCALITY=Fremont County, Colorado, USA
##OWNER=RRUFF
##SOURCE=Marcus Origlieri
##DESCRIPTION=Reddish brown massive
##STATUS=The identification of this mineral has been confirmed by X-ray diffraction and chemical analysis
##URL=rruff.info/R050226
##MEASURED CHEMISTRY=(Mn^2+^_1.20_Mg_0.49_Fe^2+^_0.27_Ca_0.04_)_Σ=2_(P_1.00_O_4_)(F_0.95_(OH)_0.05_)_Σ=1_
##PIN_ID=L00502
##ORIENTATION=Laser parallel to b* (0 1 0). Fiducial mark perpendicular to laser is parallel to c [0 0 1]
64.81000, 17001.00
66.04600, 16876.00
67.28200, 18039.00
68.51800, 18446.00
69.75400, 19629.00
70.98900, 20108.00
72.22500, 21725.00
73.46000, 22559.00
74.69500, 22937.00
75.93000, 23118.00
77.16500, 24230.00
78.40000, 24544.00
79.63400, 25362.00
80.86900, 25255.00
82.10300, 25552.00
83.33700, 25951.00
84.57100, 26519.00
85.80500, 26381.00
87.03800, 25563.00
88.27200, 25111.00
89.50500, 24611.00
90.73800, 25441.00
91.97100, 27527.00
93.20400, 25442.00
94.43700, 26054.00
95.67000, 25072.00
96.90200, 24507.00
98.13400, 24402.00
99.36600, 24000.00
100.5980, 23972.00
101.8300, 23700.00
103.0620, 23481.00
104.2930, 22996.00
105.5250, 23248.00
106.7560, 23734.00
107.9870, 24367.00
109.2180, 24283.00
110.4490, 23903.00
111.6790, 23141.00
112.9100, 23032.00
114.1400, 23342.00
115.3700, 23584.00
116.6000, 24098.00
117.8300, 24455.00
119.0600, 24619.00
120.2900, 24481.00
121.5190, 24507.00
122.7480, 24657.00
123.9770, 24444.49
125.2060, 24540.00
126.4350, 24062.00
127.6640, 23583.00
128.8920, 23153.00
130.1210, 23192.00
131.3490, 23272.00
132.5770, 23237.00
133.8050, 22824.00
135.0330, 23598.00
136.2600, 22721.00
137.4880, 22140.00
138.7150, 22545.00
139.9420, 22675.00
141.1690, 22592.00
142.3960, 22674.00
143.6230, 22000.00
144.8490, 22139.00
146.0760, 22056.00
147.3020, 22359.00
148.5280, 22573.00
149.7540, 22618.00
150.9800, 22483.00
152.2050, 22444.00
153.4310, 22612.00
154.6560, 23182.00
155.8810, 22925.00
157.1060, 22889.00
158.3310, 22829.00
159.5560, 22637.00
160.7800, 22614.00
162.0050, 22279.00
163.2290, 22352.00
164.4530, 22370.00
165.6770, 21866.00
166.9010, 21789.00
168.1250, 21739.00
169.3480, 21365.00
170.5720, 21571.00
171.7950, 21378.00
173.0180, 21245.00
174.2410, 21236.00
175.4640, 20980.00
176.6860, 20545.00
177.9090, 20344.00
179.1310, 20432.00
180.3530, 20164.00
181.5750, 20456.00
182.7970, 19910.00
184.0190, 19775.00
185.2400, 20190.00
186.4620, 20451.00
187.6830, 20135.00
188.9040, 20086.00
190.1250, 19722.00
191.3460, 19832.00
192.5660, 20068.00
193.7870, 19662.00
195.0070, 19811.00
196.2270, 19730.00
197.4470, 19818.00
198.6670, 19786.00
199.8870, 19819.98
201.1060, 19745.00
202.3260, 19913.00
203.5450, 19747.00
204.7640, 19808.00
205.9830, 19616.00
207.2020, 19519.00
208.4200, 19379.00
209.6390, 19245.00
210.8570, 19500.00
212.0750, 19409.00
213.2940, 19401.00
214.5110, 19270.00
215.7290, 19285.00
216.9470, 19376.00
218.1640, 19313.00
219.3810, 19271.00
220.5990, 19234.00
221.8150, 19358.00
223.0320, 19251.00
224.2490, 19076.00
225.4650, 19547.00
226.6820, 19235.00
227.8980, 19157.00
229.1140, 19218.00
230.3300, 18837.00
231.5460, 18731.00
232.7610, 18551.00
233.9770, 18460.00
235.1920, 18289.00
236.4070, 18242.65
237.6220, 18246.00
238.8370, 18230.00
240.0520, 18289.00
241.2660, 18438.00
242.4810, 18198.00
243.6950, 18351.00
244.9090, 18232.00
246.1230, 18343.00
247.3370, 18329.37
248.5500, 18467.00
249.7640, 18353.00
250.9770, 18235.00
252.1900, 18313.00
253.4030, 18322.00
254.6160, 18239.00
255.8290, 18230.00
257.0410, 18079.00
258.2530, 18012.00
259.4660, 17874.00
260.6780, 17792.56
261.8900, 17659.00
263.1010, 17652.00
264.3130, 17678.00
265.5250, 17665.00
266.7360, 17552.00
267.9470, 17587.48
269.1580, 17444.00
270.3690, 17563.00
271.5800, 17611.00
272.7900, 17587.00
274.0010, 17542.00
275.2110, 17723.00
276.4210, 17628.00
277.6310, 17807.00
278.8410, 17753.00
280.0500, 17806.00
281.2600, 17775.00
282.4690, 17665.00
283.6780, 17803.04
284.8870, 18008.00
286.0960, 17960.00
287.3050, 18135.00
288.5130, 18118.00
289.7220, 18235.18
290.9300, 18327.00
292.1380, 18439.00
293.3460, 18508.00
294.5540, 18558.00
295.7610, 18499.00
296.9690, 18416.00
298.1760, 18495.00
299.3830, 18494.00
300.5900, 18369.00
301.7970, 18229.00
303.0040, 18160.00
304.2100, 17974.05
305.4170, 17772.00
306.6230, 17709.00
307.8290, 17514.00
309.0350, 17542.00
310.2410, 17472.00
311.4460, 17390.00
312.6520, 17299.61
313.8570, 17177.00
315.0620, 17076.00
316.2670, 16952.00
317.4720, 16918.96
318.6770, 16969.00
319.8810, 16766.00
321.0860, 16652.00
322.2900, 16669.00
323.4940, 16790.00
324.6980, 16800.00
325.9020, 16733.00
327.1050, 16743.14
328.3090, 16356.00
329.5120, 16556.00
330.7150, 16446.00
331.9180, 16184.00
333.1210, 16255.00
334.3240, 16177.00
335.5260, 16240.00
336.7290, 15994.00
337.9310, 16052.00
339.1330, 16067.00
340.3350, 16145.00
341.5370, 15968.00
342.7380, 15903.00
343.9400, 15915.00
345.1410, 15781.00
346.3420, 15762.00
347.5430, 15880.00
348.7440, 15946.00
349.9450, 15864.58
351.1450, 15741.00
352.3460, 15718.00
353.5460, 15739.00
354.7460, 15704.00
355.9460, 15693.00
357.1460, 15602.00
358.3450, 15668.00
359.5450, 15556.00
360.7440, 15672.00
361.9430, 15560.00
363.1420, 15553.00
364.3410, 15572.00
365.5400, 15509.00
366.7380, 15481.00
367.9370, 15547.00
369.1350, 15571.00
370.3330, 15507.37
371.5310, 15549.00
372.7280, 15459.00
373.9260, 15509.00
375.1230, 15666.00
376.3210, 15674.00
377.5180, 15720.37
378.7150, 15853.00
379.9120, 15802.00
381.1080, 15882.00
382.3050, 16048.00
383.5010, 15931.00
384.6970, 16125.00
385.8930, 16332.00
387.0890, 16317.00
388.2850, 16183.00
389.4810, 16300.00
390.6760, 16137.00
391.8710, 16108.00
393.0660, 16064.00
394.2610, 16035.72
395.4560, 16035.00
396.6510, 16054.00
397.8450, 15953.00
399.0400, 15945.00
400.2340, 15948.76
401.4280, 16085.21
402.6220, 16178.62
403.8150, 16231.29
405.0090, 16121.33
406.2020, 16221.38
407.3960, 16237.29
408.5890, 16249.71
409.7820, 16379.33
410.9740, 16611.00
412.1670, 16651.00
413.3600, 16764.00
414.5520, 16792.00
415.7440, 17091.00
416.9360, 17118.00
418.1280, 17393.00
419.3200, 17497.40
420.5110, 17591.00
421.7020, 17829.00
422.8940, 17885.00
424.0850, 18262.00
425.2760, 18543.00
426.4660, 18911.00
427.6570, 18933.00
428.8470, 19019.53
430.0380, 19005.00
431.2280, 18881.00
432.4180, 18688.00
433.6080, 18516.00
434.7970, 18300.00
435.9870, 17977.00
437.1760, 17870.00
438.3650, 17616.00
439.5540, 17375.00
440.7430, 16977.00
441.9320, 16687.00
443.1210, 16611.00
444.3090, 16263.00
445.4970, 16045.00
446.6850, 15749.00
447.8730, 15644.00
449.0610, 15681.00
450.2490, 15579.00
451.4360, 15521.89
452.6240, 15492.00
453.8110, 15367.00
454.9980, 15317.00
456.1850, 15223.00
457.3710, 15275.00
458.5580, 15211.00
459.7440, 15143.00
460.9310, 15085.00
462.1170, 14976.00
463.3030, 14947.00
464.4880, 14937.00
465.6740, 14942.00
466.8590, 15005.00
468.0450, 14942.00
469.2300, 14889.00
470.4150, 14890.73
471.6000, 14736.47
472.7840, 14784.95
473.9690, 14792.70
475.1530, 14637.80
476.3370, 14692.94
477.5210, 14663.91
478.7050, 14631.42
479.8890, 14709.00
481.0730, 14685.00
482.2560, 14716.00
483.4390, 14618.00
484.6220, 14774.00
485.8050, 14656.00
486.9880, 14735.00
488.1710, 14653.00
489.3530, 14769.00
490.5360, 14811.00
491.7180, 14769.00
492.9000, 14834.00
494.0820, 14684.00
495.2630, 14688.00
496.4450, 14758.00
497.6260, 14732.00
498.8080, 14589.00
499.9890, 14826.00
501.1700, 14526.00
502.3500, 14651.00
503.5310, 14653.00
504.7110, 14724.00
505.8920, 14587.00
507.0720, 14539.00
508.2520, 14667.00
509.4320, 14533.00
510.6110, 14530.00
511.7910, 14385.00
512.9700, 14407.00
514.1490, 14386.31
515.3280, 14521.00
516.5070, 14433.00
517.6860, 14578.00
518.8650, 14672.00
520.0430, 14574.00
521.2210, 14608.00
522.3990, 14719.00
523.5770, 14842.00
524.7550, 14811.00
525.9330, 14841.00
527.1100, 14929.00
528.2870, 14900.00
529.4650, 14815.00
530.6420, 14827.00
531.8180, 14972.00
532.9950, 14903.00
534.1720, 14935.00
535.3480, 14972.00
536.5240, 14958.00
537.7000, 14773.00
538.8760, 14856.00
540.0520, 14961.00
541.2270, 14935.00
542.4030, 15146.00
543.5780, 15139.00
544.7530, 15293.00
545.9280, 15400.70
547.1030, 15549.00
548.2780, 15566.00
549.4520, 15696.00
550.6260, 15667.00
551.8010, 15813.00
552.9750, 16057.00
554.1480, 16082.00
555.3220, 16365.00
556.4960, 16437.00
557.6690, 16395.00
558.8420, 16382.00
560.0150, 16567.00
561.1880, 16511.11
562.3610, 16521.00
563.5340, 16599.00
564.7060, 16626.00
565.8780, 16675.68
567.0500, 16862.00
568.2220, 16787.00
569.3940, 16738.08
570.5660, 16877.39
571.7370, 16982.97
572.9090, 17056.74
574.0800, 17003.15
575.2510, 17113.95
576.4220, 17158.87
577.5920, 17201.03
578.7630, 17334.97
579.9330, 17299.84
581.1040, 17432.32
582.2740, 17497.87
583.4440, 17594.02
584.6130, 17623.84
585.7830, 17664.00
586.9520, 17712.00
588.1220, 18029.00
589.2910, 18342.00
590.4600, 18473.00
591.6290, 18848.00
592.7970, 19468.00
593.9660, 19809.00
595.1340, 20409.00
596.3020, 20972.00
597.4700, 21591.00
598.6380, 22183.00
599.8060, 22815.00
600.9730, 23574.00
602.1410, 23859.00
603.3080, 24369.00
604.4750, 24781.00
605.6420, 24837.00
606.8090, 24548.00
607.9750, 24182.00
609.1420, 23854.00
610.3080, 23520.00
611.4740, 23037.12
612.6400, 22583.00
613.8060, 22097.00
614.9720, 21913.00
616.1370, 21563.00
617.3020, 21393.00
618.4680, 20976.00
619.6330, 20915.00
620.7970, 20727.00
621.9620, 20635.00
623.1270, 20379.00
624.2910, 20323.00
625.4550, 20290.00
626.6190, 19922.00
627.7830, 20048.00
628.9470, 19987.00
630.1110, 19986.00
631.2740, 20091.00
632.4370, 19893.00
633.6000, 19871.00
634.7630, 19985.00
635.9260, 19974.00
637.0890, 20109.00
638.2510, 20094.00
639.4140, 20285.00
640.5760, 20444.00
641.7380, 20481.00
642.9000, 20429.00
644.0610, 20766.00
645.2230, 21280.00
646.3840, 21027.00
647.5460, 21315.00
648.7070, 21328.00
649.8670, 21770.00
651.0280, 21835.00
652.1890, 21791.00
653.3490, 21989.00
654.5090, 22213.00
655.6700, 22549.00
656.8300, 22356.00
657.9890, 22410.00
659.1490, 22843.00
660.3080, 23371.00
661.4680, 23372.00
662.6270, 23382.00
663.7860, 23206.00
664.9450, 23619.00
666.1030, 23979.00
667.2620, 24128.00
668.4200, 24392.00
669.5790, 24713.36
670.7370, 25012.49
671.8940, 25408.00
673.0520, 25759.00
674.2100, 26246.00
675.3670, 26673.00
676.5240, 27102.00
677.6810, 27703.00
678.8380, 28226.00
679.9950, 28785.00
681.1520, 29329.00
682.3080, 29727.00
683.4650, 30137.00
684.6210, 30674.45
685.7770, 30986.23
686.9320, 31395.32
688.0880, 31635.00
689.2440, 32005.00
690.3990, 32219.00
691.5540, 32311.00
692.7090, 32329.00
693.8640, 32293.72
695.0190, 32156.92
696.1730, 31979.00
697.3280, 31739.00
698.4820, 31409.00
699.6360, 31154.00
700.7900, 30647.00
701.9440, 30206.00
703.0970, 29752.00
704.2510, 29256.00
705.4040, 28660.00
706.5570, 27833.00
707.7100, 27435.73
708.8630, 26802.00
710.0150, 26435.00
711.1680, 25622.00
712.3200, 25054.00
713.4720, 24575.00
714.6240, 23760.00
715.7760, 23341.00
716.9280, 22670.00
718.0790, 22157.00
719.2310, 21779.00
720.3820, 21177.00
721.5330, 20966.00
722.6840, 20416.57
723.8350, 19968.80
724.9850, 19688.00
726.1360, 19296.00
727.2860, 18905.13
728.4360, 18594.44
729.5860, 18123.00
730.7360, 17927.00
731.8850, 17549.00
733.0350, 17226.00
734.1840, 17163.00
735.3330, 16752.00
736.4820, 16708.00
737.6310, 16416.00
738.7800, 16294.00
739.9280, 16120.00
741.0760, 15896.00
742.2250, 15722.00
743.3730, 15604.00
744.5200, 15658.00
745.6680, 15343.00
746.8160, 15294.00
747.9630, 15067.00
749.1100, 15229.00
750.2570, 14967.00
751.4040, 15071.00
752.5510, 14981.00
753.6980, 14870.00
754.8440, 15121.00
755.9900, 15033.00
757.1360, 14995.00
758.2820, 14921.00
759.4280, 14790.00
760.5740, 14854.00
761.7190, 14897.00
762.8640, 14761.00
764.0100, 14726.00
765.1550, 14885.00
766.2990, 14982.00
767.4440, 14983.00
768.5890, 14940.00
769.7330, 15070.00
770.8770, 15044.00
772.0210, 15164.00
773.1650, 15202.99
774.3090, 15230.00
775.4520, 15258.00
776.5960, 15313.10
777.7390, 15248.00
778.8820, 15432.00
780.0250, 15584.00
781.1670, 15499.00
782.3100, 15703.00
783.4520, 15711.00
784.5950, 15761.00
785.7370, 15977.00
786.8790, 15696.00
788.0210, 16052.00
789.1620, 15962.00
790.3040, 16075.00
791.4450, 16067.00
792.5860, 16177.00
793.7270, 16072.00
794.8680, 16267.00
796.0090, 16363.00
797.1490, 16511.00
798.2890, 16496.00
799.4300, 16655.00
800.5700, 16542.00
801.7090, 16620.00
802.8490, 16552.00
803.9890, 16694.00
805.1280, 16712.00
806.2670, 16703.00
807.4060, 16732.96
808.5450, 16676.90
809.6840, 16676.20
810.8230, 16641.82
811.9610, 16575.64
813.0990, 16382.16
814.2370, 16353.06
815.3750, 16258.09
816.5130, 16160.42
817.6510, 16154.46
818.7880, 16078.27
819.9250, 16000.89
821.0630, 15796.12
822.1990, 15755.89
823.3360, 15649.71
824.4730, 15540.82
825.6090, 15523.73
826.7460, 15337.56
827.8820, 15319.01
829.0180, 15233.58
830.1540, 15178.77
831.2890, 15057.74
832.4250, 14957.12
833.5600, 14922.87
834.6960, 14851.83
835.8310, 14723.18
836.9660, 14654.00
838.1000, 14553.00
839.2350, 14620.00
840.3690, 14624.00
841.5030, 14544.00
842.6380, 14483.00
843.7710, 14268.00
844.9050, 14348.00
846.0390, 14237.00
847.1720, 14325.00
848.3060, 14197.00
849.4390, 14297.00
850.5720, 14084.00
851.7040, 14217.00
852.8370, 14048.00
853.9700, 14156.00
855.1020, 14123.00
856.2340, 14100.00
857.3660, 13968.00
858.4980, 14031.85
859.6300, 13993.11
860.7610, 14175.00
861.8920, 13999.00
863.0240, 14197.00
864.1550, 14189.00
865.2850, 14151.00
866.4160, 14174.15
867.5470, 14081.00
868.6770, 14149.00
869.8070, 14095.00
870.9370, 14254.00
872.0670, 13972.00
873.1970, 13971.00
874.3270, 14029.00
875.4560, 14213.00
876.5850, 14026.00
877.7140, 14125.00
878.8430, 14152.00
879.9720, 14147.00
881.1010, 14117.00
882.2290, 14043.00
883.3570, 14049.00
884.4860, 14041.00
885.6140, 14183.00
886.7410, 14281.00
887.8690, 14023.00
888.9960, 14150.00
890.1240, 14101.00
891.2510, 14116.00
892.3780, 14186.00
893.5050, 14218.00
894.6320, 14290.00
895.7580, 14189.00
896.8840, 14273.00
898.0110, 14330.00
899.1370, 14199.00
900.2620, 14403.00
901.3880, 14333.00
902.5140, 14269.00
903.6390, 14389.00
904.7640, 14402.00
905.8890, 14368.00
907.0140, 14353.00
908.1390, 14492.00
909.2640, 14383.00
910.3880, 14422.00
911.5120, 14660.00
912.6360, 14564.00
913.7600, 14496.00
914.8840, 14545.00
916.0080, 14604.00
917.1310, 14774.00
918.2550, 14649.00
919.3780, 14838.00
920.5010, 14925.00
921.6230, 14747.00
922.7460, 14906.00
923.8690, 15031.00
924.9910, 14994.00
926.1130, 15058.00
927.2350, 15038.00
928.3570, 15133.00
929.4790, 15199.74
930.6000, 15248.78
931.7220, 15354.00
932.8430, 15396.00
933.9640, 15404.00
935.0850, 15483.00
936.2050, 15653.00
937.3260, 15787.00
938.4460, 15955.00
939.5660, 16036.00
940.6870, 16029.00
941.8060, 16188.00
942.9260, 16387.00
944.0460, 16482.00
945.1650, 16686.00
946.2840, 16892.94
947.4040, 17111.93
948.5220, 17402.00
949.6410, 17601.00
950.7600, 17972.00
951.8780, 18167.00
952.9970, 18530.00
954.1150, 18992.00
955.2330, 19391.00
956.3500, 20019.00
957.4680, 20386.00
958.5860, 21082.00
959.7030, 21814.00
960.8200, 22616.00
961.9370, 23584.58
963.0540, 24492.00
964.1710, 25833.00
965.2870, 27390.00
966.4030, 28934.00
967.5200, 31187.00
968.6360, 33662.00
969.7510, 36594.00
970.8670, 40310.00
971.9830, 44675.07
973.0980, 49823.45
974.2130, 55579.00
975.3280, 62369.00
976.4430, 69956.00
977.5580, 78268.00
978.6730, 87925.00
979.7870, 97637.00
980.9010, 106980.0
982.0150, 115035.0
983.1290, 122402.0
984.2430, 126409.0
985.3560, 127750.0
986.4700, 126052.0
987.5830, 120551.0
988.6960, 111757.0
989.8090, 100494.0
990.9220, 88751.00
992.0350, 76126.00
993.1470, 65259.00
994.2590, 55313.00
995.3720, 48151.00
996.4830, 42824.00
997.5950, 36828.00
998.7070, 33356.00
999.8180, 30783.00
1000.930, 28550.00
1002.041, 27166.00
1003.152, 25836.00
1004.263, 25204.00
1005.373, 24374.00
1006.484, 23977.00
1007.594, 23570.00
1008.704, 23463.00
1009.815, 22980.00
1010.924, 22608.00
1012.034, 22653.00
1013.144, 22585.00
1014.253, 22589.00
1015.362, 22603.00
1016.471, 22527.00
1017.580, 22654.00
1018.689, 22410.00
1019.797, 22790.00
1020.906, 22828.00
1022.014, 22935.00
1023.122, 22844.00
1024.230, 22907.00
1025.338, 23150.00
1026.445, 23153.00
1027.553, 23188.00
1028.660, 23509.00
1029.767, 23540.00
1030.874, 23612.00
1031.981, 23705.00
1033.088, 23778.00
1034.194, 23794.00
1035.300, 24186.00
1036.406, 24049.00
1037.512, 23964.00
1038.618, 23793.00
1039.724, 24080.00
1040.829, 24001.00
1041.935, 24088.00
1043.040, 24193.00
1044.145, 24275.00
1045.250, 24226.00
1046.354, 24168.00
1047.459, 24064.00
1048.563, 23877.00
1049.667, 23831.00
1050.771, 23797.00
1051.875, 23693.00
1052.979, 23661.00
1054.082, 23408.00
1055.186, 23061.00
1056.289, 22834.00
1057.392, 22708.00
1058.495, 22600.00
1059.598, 22450.93
1060.700, 22299.00
1061.803, 22260.00
1062.905, 22174.00
1064.007, 22150.00
1065.109, 22164.00
1066.210, 21959.00
1067.312, 21791.00
1068.413, 21764.00
1069.515, 21810.00
1070.616, 21811.00
1071.717, 21766.00
1072.817, 21692.00
1073.918, 21900.00
1075.019, 21757.00
1076.119, 21900.00
1077.219, 21846.00
1078.319, 21375.00
1079.419, 21462.00
1080.518, 21106.00
1081.618, 20846.00
1082.717, 21062.00
1083.816, 20949.00
1084.915, 20759.00
1086.014, 20604.00
1087.113, 20359.76
1088.211, 20200.00
1089.309, 19943.00
1090.408, 19750.00
1091.506, 19595.16
1092.603, 19302.00
1093.701, 19261.00
1094.799, 19073.80
1095.896, 18833.17
1096.993, 18748.00
1098.090, 18438.00
1099.187, 18135.91
1100.284, 18177.70
1101.380, 18160.00
1102.477, 18085.84
1103.573, 17786.54
1104.669, 17778.07
1105.765, 17653.04
1106.860, 17523.33
1107.956, 17555.79
1109.051, 17264.03
1110.147, 17297.14
1111.242, 17288.25
1112.336, 17240.50
1113.431, 16984.94
1114.526, 17037.69
1115.620, 16991.36
1116.714, 16957.71
1117.809, 17103.78
1118.902, 16968.24
1119.996, 17009.00
1121.090, 17084.00
1122.183, 17008.40
1123.277, 17067.00
1124.370, 17002.00
1125.463, 17084.00
1126.555, 17101.00
1127.648, 17105.64
1128.740, 17142.84
1129.833, 17143.00
1130.925, 17164.00
1132.017, 17178.00
1133.109, 17176.00
1134.200, 16950.00
1135.292, 16748.00
1136.383, 16725.00
1137.474, 16400.00
1138.565, 16540.00
1139.656, 16271.00
1140.747, 16154.00
1141.837, 15999.00
1142.927, 15946.00
1144.018, 15896.00
1145.108, 15742.00
1146.197, 15757.00
1147.287, 15498.00
1148.377, 15469.00
1149.466, 15448.00
1150.555, 15400.00
1151.644, 15182.00
1152.733, 15306.00
1153.822, 15201.50
1154.910, 15218.72
1155.999, 15255.00
1157.087, 15081.00
1158.175, 15296.00
1159.263, 15165.07
1160.350, 15129.00
1161.438, 15066.00
1162.525, 15057.00
1163.613, 15020.00
1164.700, 14990.00
1165.787, 14872.00
1166.873, 14825.00
1167.960, 14908.00
1169.046, 14943.00
1170.133, 14990.00
1171.219, 14827.00
1172.305, 14840.00
1173.390, 15003.00
1174.476, 15137.00
1175.561, 15034.00
1176.647, 14999.00
1177.732, 15079.00
1178.817, 14974.00
1179.901, 15192.00
1180.986, 15079.00
1182.070, 14961.00
1183.155, 15054.00
1184.239, 15135.00
1185.323, 15134.00
1186.407, 15081.00
1187.490, 15140.00
1188.574, 15072.00
1189.657, 15092.00
1190.740, 15217.00
1191.823, 15162.00
1192.906, 15186.00
1193.988, 15242.00
1195.071, 15202.00
1196.153, 15235.62
1197.235, 15276.00
1198.317, 15217.00
1199.399, 15230.00
1200.481, 15156.00
1201.562, 15184.04
1202.644, 15098.00
1203.725, 15155.00
1204.806, 15124.80
1205.887, 15121.00
1206.967, 15135.00
1208.048, 15090.00
1209.128, 15149.00
1210.208, 15231.00
1211.289, 15217.00
1212.368, 15081.00
1213.448, 15219.00
1214.528, 15195.00
1215.607, 15074.00
1216.686, 15127.03
1217.765, 15079.00
1218.844, 15251.00
1219.923, 15158.00
1221.001, 15166.08
1222.080, 15194.79
1223.158, 15119.00
1224.236, 15144.00
1225.314, 15185.00
1226.392, 15084.00
1227.469, 15050.00
1228.547, 15144.00
1229.624, 15369.00
1230.701, 15290.05
1231.778, 15647.00
1232.855, 15295.00
1233.931, 15136.00
1235.008, 15178.00
1236.084, 15164.00
1237.160, 15368.00
1238.236, 15164.00
1239.312, 15277.00
1240.387, 15196.00
1241.463, 15194.00
1242.538, 15362.00
1243.613, 15384.00
1244.688, 15286.00
1245.763, 15433.00
1246.837, 15342.00
1247.912, 15424.00
1248.986, 15292.00
1250.060, 15352.00
1251.134, 15575.00
1252.208, 15425.00
1253.282, 15479.00
1254.355, 15571.00
1255.428, 15545.00
1256.501, 15709.00
1257.574, 15405.00
1258.647, 15591.00
1259.720, 15615.00
1260.792, 15460.00
1261.865, 15613.00
1262.937, 15594.00
1264.009, 15651.00
1265.081, 15725.00
1266.152, 15763.00
1267.224, 15624.00
1268.295, 15726.00
1269.366, 15825.00
1270.437, 15679.00
1271.508, 15775.00
1272.579, 15726.00
1273.649, 15816.00
1274.720, 15723.00
1275.790, 15830.00
1276.860, 15892.00
1277.930, 15921.00
1278.999, 15913.00
1280.069, 15825.00
1281.138, 15882.00
1282.208, 16019.00
1283.277, 15909.00
1284.345, 16119.00
1285.414, 15951.00
1286.483, 15997.00
1287.551, 16114.00
1288.619, 16112.00
1289.687, 16115.15
1290.755, 16199.00
1291.823, 16129.00
1292.890, 16062.00
1293.958, 16231.00
1295.025, 16266.00
1296.092, 16302.08
1297.159, 16376.09
1298.226, 16345.00
1299.292, 16425.00
1300.359, 16334.00
1301.425, 16304.00
1302.491, 16430.00
1303.557, 16510.00
1304.623, 16666.00
1305.688, 16615.00
1306.754, 16633.00
1307.819, 16773.00
1308.884, 16638.00
1309.949, 16563.00
1311.014, 16798.00
1312.078, 16648.00
1313.143, 16634.00
1314.207, 16602.00
1315.271, 16800.00
1316.335, 16600.00
1317.399, 16714.19
1318.462, 16982.00
1319.526, 16706.00
1320.589, 16797.00
1321.652, 16639.00
1322.715, 16613.00
1323.778, 16692.00
1324.841, 16571.00
1325.903, 16610.00
1326.965, 16680.00
1328.027, 16513.00
1329.089, 16536.00
1330.151, 16562.00
1331.213, 16580.00
1332.274, 16464.00
1333.336, 16416.00
1334.397, 16386.00
1335.458, 16337.00
1336.518, 16290.09
1337.579, 16253.09
1338.640, 16210.00
1339.700, 16173.00
1340.760, 16177.00
1341.820, 16145.00
1342.880, 16118.00
1343.939, 16140.00
1344.999, 16148.00
1346.058, 16097.00
1347.117, 16105.10
1348.176, 16082.75
1349.235, 16058.00
1350.294, 16095.00
1351.352, 15993.82
1352.411, 16056.63
1353.469, 16085.78
1354.527, 16083.07
1355.585, 15953.05
1356.642, 15987.43
1357.700, 15955.93
1358.757, 15921.73
1359.815, 15979.23
1360.872, 15867.75
1361.928, 15923.82
1362.985, 15913.00
1364.042, 15932.80
1365.098, 15886.32
1366.154, 15860.31
1367.210, 15900.61
1368.266, 15904.19
1369.322, 15850.08
1370.377, 15871.85
1371.433, 15758.06
1372.488, 15763.22
1373.543, 15819.70
1374.598, 15768.93
1375.652, 15791.92
1376.707, 15786.82
1377.761, 15654.09
1378.816, 15743.31
1379.870, 15736.56
1380.924, 15631.24
1381.977, 15712.89
1383.031, 15621.16
1384.084, 15591.32
1385.137, 15608.05
1386.190, 15576.24
1387.243, 15620.96
1388.296, 15591.95
1389.349, 15556.35
1390.401, 15549.51
1391.453, 15516.16
1392.505, 15524.05
1393.557, 15483.64
1394.609, 15494.55
1395.661, 15517.10
1396.712, 15450.59
1397.763, 15478.38
1398.814, 15359.94
1399.865, 15363.85
1400.916, 15354.58
1401.967, 15428.00
1403.017, 15345.51
1404.067, 15407.65
1405.117, 15436.13
1406.167, 15432.74
1407.217, 15302.04
1408.267, 15335.73
1409.316, 15303.56
1410.365, 15268.68
1411.414, 15325.53
1412.463, 15213.36
1413.512, 15268.75
1414.561, 15257.25
1415.609, 15276.38
1416.657, 15229.22
1417.706, 15202.52
1418.754, 15242.15
1419.801, 15245.07
1420.849, 15190.28
1421.896, 15211.37
1422.944, 15096.90
1423.991, 15101.39
1425.038, 15157.19
1426.085, 15105.75
1427.131, 15128.07
1428.178, 15122.28
1429.224, 14988.88
1430.270, 15077.44
1431.316, 15070.01
1432.362, 14964.02
1433.407, 15044.99
1434.453, 14952.58
1435.498, 14922.07
1436.543, 14938.13
1437.588, 14905.64
1438.633, 14949.69
1439.678, 14920.01
1440.722, 14883.75
1441.767, 14876.22
1442.811, 14830.88
1443.855, 14809.00
1444.898, 14766.00
1445.942, 14852.00
1446.986, 14854.00
1448.029, 14963.00
1449.072, 14724.00
1450.115, 14925.00
1451.158, 14852.00
1452.201, 14981.00
1453.243, 14804.00
1454.285, 14851.00
1455.327, 14846.00
1456.369, 15018.00
1457.411, 14824.00
1458.453, 14748.00
1459.494, 14960.00
1460.536, 14815.00
1461.577, 14799.00
1462.618, 14694.00
1463.659, 14669.00
1464.700, 14859.00
1465.740, 14744.00
1466.780, 14840.00
1467.821, 14695.00
1468.861, 14889.00
1469.900, 14817.00
1470.940, 14829.00
1471.980, 14659.00
1473.019, 14811.00
1474.058, 14911.00
1475.097, 14757.00
1476.136, 14757.00
1477.175, 14748.38
1478.213, 14756.36
1479.252, 14661.00
1480.290, 14882.00
1481.328, 14748.00
1482.366, 14819.00
1483.403, 14883.00
1484.441, 14657.00
1485.478, 14648.00
1486.515, 14693.00
1487.552, 14654.75
1488.589, 14669.88
1489.626, 14639.00
1490.663, 14752.00
1491.699, 14500.00
1492.735, 14702.00
1493.771, 14720.00
1494.807, 14672.00
1495.843, 14785.00
1496.878, 14740.00
1497.914, 14822.00
1498.949, 14868.00
1499.984, 14772.00
1501.019, 14850.00
1502.054, 14800.00
1503.088, 14823.44
1504.122, 14779.00
1505.157, 14758.92
1506.191, 14714.00
1507.225, 14700.00
1508.258, 14691.00
1509.292, 14649.13
1510.325, 14673.17
1511.359, 14663.00
1512.392, 14699.00
1513.424, 14725.00
1514.457, 14718.00
1515.490, 14664.00
1516.522, 14946.00
1517.554, 14730.00
1518.586, 14789.00
1519.618, 14810.00
1520.650, 14591.00
1521.682, 14711.00
1522.713, 14788.00
1523.744, 14849.00
1524.775, 14869.00
1525.806, 14752.00
1526.837, 14843.00
1527.868, 14796.78
1528.898, 14767.34
1529.928, 14813.00
1530.958, 14732.00
1531.988, 14794.00
1533.018, 14820.00
1534.048, 14786.00
1535.077, 14791.00
1536.106, 14814.59
1537.135, 14757.00
1538.164, 14857.00
1539.193, 14753.74
1540.222, 14830.90
1541.250, 14874.38
1542.278, 14886.00
1543.306, 14770.31
1544.334, 14819.01
1545.362, 14801.83
1546.390, 14781.95
1547.417, 14853.79
1548.444, 14756.62
1549.471, 14827.00
1550.498, 14830.50
1551.525, 14864.60
1552.552, 14832.43
1553.578, 14820.72
1554.604, 14875.33
1555.630, 14893.22
1556.656, 14853.41
1557.682, 14889.46
1558.708, 14789.98
1559.733, 14809.43
1560.758, 14880.20
1561.784, 14843.72
1562.808, 14880.99
1563.833, 14890.17
1564.858, 14771.72
1565.882, 14875.23
1566.907, 14882.76
1567.931, 14791.71
1568.955, 14887.62
1569.978, 14810.17
1571.002, 14794.59
1572.025, 14825.59
1573.049, 14808.04
1574.072, 14930.00
1575.095, 14918.00
1576.118, 14930.00
1577.140, 14950.00
1578.163, 14868.00
1579.185, 14849.00
##END=



