##NAMES=Triplite
##RRUFFID=R050226
##IDEAL CHEMISTRY=Mn^2+^_2_(PO_4_)F
##LOCALITY=Fremont County, Colorado, USA
##OWNER=RRUFF
##SOURCE=Marcus Origlieri
##DESCRIPTION=Reddish brown massive
##STATUS=The identification of this mineral has been confirmed by X-ray diffraction and chemical analysis
##URL=rruff.info/R050226
##MEASURED CHEMISTRY=(Mn^2+^_1.20_Mg_0.49_Fe^2+^_0.27_Ca_0.04_)_Σ=2_(P_1.00_O_4_)(F_0.95_(OH)_0.05_)_Σ=1_
##PIN_ID=L00502
##ORIENTATION=Laser parallel to b* (0 1 0). Fiducial mark perpendicular to laser is parallel to c [0 0 1]
64.81000, 6192.000
66.04600, 6610.000
67.28200, 7489.000
68.51800, 8951.000
69.75400, 9298.000
70.98900, 10136.00
72.22500, 12992.00
73.46000, 13634.00
74.69500, 14425.00
75.93000, 13851.00
77.16500, 15467.00
78.40000, 15712.00
79.63400, 16172.00
80.86900, 16486.00
82.10300, 16826.00
83.33700, 17163.00
84.57100, 17792.00
85.80500, 18048.00
87.03800, 17930.00
88.27200, 17843.00
89.50500, 17666.00
90.73800, 17772.00
91.97100, 17986.00
93.20400, 18826.00
94.43700, 19369.00
95.67000, 18954.00
96.90200, 19013.00
98.13400, 18778.00
99.36600, 18400.00
100.5980, 18147.00
101.8300, 18131.00
103.0620, 17698.00
104.2930, 17496.00
105.5250, 18533.00
106.7560, 17438.00
107.9870, 17681.00
109.2180, 18720.00
110.4490, 17762.00
111.6790, 17009.00
112.9100, 16644.00
114.1400, 16515.00
115.3700, 16482.00
116.6000, 16622.00
117.8300, 17068.00
119.0600, 17533.00
120.2900, 17484.00
121.5190, 17166.00
122.7480, 16803.00
123.9770, 16912.00
125.2060, 16854.00
126.4350, 16588.00
127.6640, 16328.00
128.8920, 16181.00
130.1210, 16116.00
131.3490, 15933.00
132.5770, 16143.00
133.8050, 16186.00
135.0330, 16131.00
136.2600, 16137.00
137.4880, 16059.00
138.7150, 16360.00
139.9420, 16693.00
141.1690, 17056.00
142.3960, 17051.94
143.6230, 17204.00
144.8490, 16981.00
146.0760, 17176.00
147.3020, 17114.00
148.5280, 17381.00
149.7540, 17226.00
150.9800, 17161.00
152.2050, 17041.00
153.4310, 16928.00
154.6560, 16881.00
155.8810, 16942.00
157.1060, 16784.00
158.3310, 16612.00
159.5560, 16363.00
160.7800, 16299.00
162.0050, 16137.00
163.2290, 16067.00
164.4530, 16025.00
165.6770, 15904.00
166.9010, 15867.00
168.1250, 15829.00
169.3480, 15685.00
170.5720, 15671.00
171.7950, 15648.00
173.0180, 15612.00
174.2410, 15472.00
175.4640, 15516.00
176.6860, 15366.00
177.9090, 15206.00
179.1310, 15222.00
180.3530, 15069.00
181.5750, 15100.00
182.7970, 15155.00
184.0190, 15025.00
185.2400, 15123.00
186.4620, 15142.00
187.6830, 14985.00
188.9040, 14999.00
190.1250, 15029.00
191.3460, 15092.00
192.5660, 14899.00
193.7870, 14953.00
195.0070, 14874.00
196.2270, 14879.00
197.4470, 14895.00
198.6670, 14712.00
199.8870, 14783.00
201.1060, 14443.00
202.3260, 14518.00
203.5450, 14431.00
204.7640, 14592.00
205.9830, 14274.00
207.2020, 14385.00
208.4200, 14394.00
209.6390, 14354.00
210.8570, 14306.00
212.0750, 14248.00
213.2940, 14305.00
214.5110, 14243.00
215.7290, 14376.00
216.9470, 14477.00
218.1640, 14457.00
219.3810, 14450.00
220.5990, 14481.00
221.8150, 14515.00
223.0320, 14348.00
224.2490, 14457.00
225.4650, 14297.00
226.6820, 14336.00
227.8980, 14056.29
229.1140, 14174.01
230.3300, 14233.26
231.5460, 14237.17
232.7610, 14020.05
233.9770, 14088.36
235.1920, 14042.28
236.4070, 13991.52
237.6220, 14100.01
238.8370, 14170.72
240.0520, 14247.61
241.2660, 14103.39
242.4810, 14244.67
243.6950, 14271.51
244.9090, 14293.66
246.1230, 14475.06
247.3370, 14363.00
248.5500, 14541.83
249.7640, 14543.00
250.9770, 14655.00
252.1900, 14671.17
253.4030, 14639.00
254.6160, 14640.00
255.8290, 14613.00
257.0410, 14526.00
258.2530, 14425.00
259.4660, 14533.00
260.6780, 14349.00
261.8900, 14387.00
263.1010, 14382.00
264.3130, 14364.00
265.5250, 14153.00
266.7360, 14137.00
267.9470, 14144.00
269.1580, 14079.00
270.3690, 14052.00
271.5800, 14104.00
272.7900, 14134.00
274.0010, 14129.00
275.2110, 14260.00
276.4210, 14124.00
277.6310, 14308.00
278.8410, 14183.00
280.0500, 14364.00
281.2600, 14434.00
282.4690, 14769.00
283.6780, 14677.00
284.8870, 14833.00
286.0960, 14793.00
287.3050, 14903.00
288.5130, 15080.00
289.7220, 14983.00
290.9300, 14945.00
292.1380, 15067.00
293.3460, 15079.00
294.5540, 15152.00
295.7610, 15152.29
296.9690, 15151.00
298.1760, 15086.00
299.3830, 14996.00
300.5900, 14880.00
301.7970, 14928.00
303.0040, 14884.00
304.2100, 14730.00
305.4170, 14585.00
306.6230, 14612.00
307.8290, 14382.00
309.0350, 14340.00
310.2410, 14272.92
311.4460, 14145.93
312.6520, 14186.00
313.8570, 13978.00
315.0620, 14004.00
316.2670, 13931.00
317.4720, 13882.00
318.6770, 13909.00
319.8810, 13929.00
321.0860, 13800.00
322.2900, 13764.00
323.4940, 13658.00
324.6980, 13739.00
325.9020, 13599.00
327.1050, 13636.00
328.3090, 13562.00
329.5120, 13521.00
330.7150, 13542.00
331.9180, 13373.00
333.1210, 13453.00
334.3240, 13294.00
335.5260, 13233.00
336.7290, 13303.00
337.9310, 13229.00
339.1330, 13334.00
340.3350, 13317.00
341.5370, 13292.00
342.7380, 13308.00
343.9400, 13220.00
345.1410, 13264.00
346.3420, 13327.00
347.5430, 13314.00
348.7440, 13510.00
349.9450, 13520.00
351.1450, 13643.00
352.3460, 13690.00
353.5460, 13673.00
354.7460, 13809.00
355.9460, 13688.00
357.1460, 13907.00
358.3450, 13929.00
359.5450, 13760.00
360.7440, 13550.00
361.9430, 13603.00
363.1420, 13442.00
364.3410, 13360.00
365.5400, 13213.00
366.7380, 13128.26
367.9370, 13105.00
369.1350, 13000.00
370.3330, 13144.00
371.5310, 13179.00
372.7280, 13176.00
373.9260, 13356.00
375.1230, 13435.00
376.3210, 13653.00
377.5180, 13684.00
378.7150, 13897.00
379.9120, 14167.00
381.1080, 14464.00
382.3050, 14529.00
383.5010, 14948.00
384.6970, 15029.00
385.8930, 15248.00
387.0890, 15337.00
388.2850, 15276.00
389.4810, 15107.00
390.6760, 15116.00
391.8710, 14754.00
393.0660, 14526.00
394.2610, 14264.00
395.4560, 14204.00
396.6510, 14216.00
397.8450, 14053.00
399.0400, 14103.00
400.2340, 13924.00
401.4280, 14061.00
402.6220, 13998.00
403.8150, 14250.00
405.0090, 14281.00
406.2020, 14497.00
407.3960, 14577.00
408.5890, 14792.00
409.7820, 14928.00
410.9740, 15136.00
412.1670, 15378.00
413.3600, 15724.92
414.5520, 16098.28
415.7440, 16583.00
416.9360, 17094.00
418.1280, 17652.00
419.3200, 18271.24
420.5110, 19051.00
421.7020, 19692.00
422.8940, 20439.52
424.0850, 21377.00
425.2760, 21656.00
426.4660, 22262.00
427.6570, 22371.00
428.8470, 22329.00
430.0380, 22077.00
431.2280, 21814.00
432.4180, 21298.00
433.6080, 20522.00
434.7970, 19879.00
435.9870, 19357.00
437.1760, 18640.00
438.3650, 17977.00
439.5540, 17470.00
440.7430, 17084.00
441.9320, 16744.00
443.1210, 16243.00
444.3090, 15992.00
445.4970, 15709.00
446.6850, 15457.00
447.8730, 15409.00
449.0610, 15270.00
450.2490, 15266.00
451.4360, 15331.00
452.6240, 15289.00
453.8110, 15329.00
454.9980, 15493.00
456.1850, 15383.00
457.3710, 15486.00
458.5580, 15485.00
459.7440, 15522.00
460.9310, 15285.00
462.1170, 15088.00
463.3030, 14870.00
464.4880, 14794.00
465.6740, 14650.00
466.8590, 14371.00
468.0450, 14353.00
469.2300, 14301.00
470.4150, 13938.00
471.6000, 13979.00
472.7840, 13924.00
473.9690, 13729.00
475.1530, 13809.00
476.3370, 13624.00
477.5210, 13502.00
478.7050, 13556.00
479.8890, 13349.00
481.0730, 13511.00
482.2560, 13400.00
483.4390, 13327.00
484.6220, 13454.00
485.8050, 13334.00
486.9880, 13401.00
488.1710, 13445.00
489.3530, 13412.00
490.5360, 13557.00
491.7180, 13549.00
492.9000, 13480.00
494.0820, 13569.00
495.2630, 13542.00
496.4450, 13466.00
497.6260, 13501.00
498.8080, 13629.00
499.9890, 13544.00
501.1700, 13589.00
502.3500, 13734.00
503.5310, 13704.00
504.7110, 13888.00
505.8920, 13759.00
507.0720, 13914.00
508.2520, 14002.00
509.4320, 13984.00
510.6110, 14204.00
511.7910, 14133.00
512.9700, 14223.00
514.1490, 14349.00
515.3280, 14663.00
516.5070, 14781.00
517.6860, 14982.00
518.8650, 15086.00
520.0430, 15425.00
521.2210, 15433.00
522.3990, 15874.00
523.5770, 15812.00
524.7550, 16025.00
525.9330, 16358.00
527.1100, 16163.00
528.2870, 16569.00
529.4650, 16306.00
530.6420, 16431.00
531.8180, 16458.00
532.9950, 16405.00
534.1720, 16378.00
535.3480, 16250.00
536.5240, 16229.28
537.7000, 16122.00
538.8760, 16210.00
540.0520, 16286.00
541.2270, 16453.86
542.4030, 16548.66
543.5780, 16730.00
544.7530, 16876.00
545.9280, 17004.00
547.1030, 17324.00
548.2780, 17444.00
549.4520, 17636.00
550.6260, 18107.00
551.8010, 18203.00
552.9750, 18837.00
554.1480, 19037.00
555.3220, 19260.00
556.4960, 19429.00
557.6690, 19358.00
558.8420, 19546.00
560.0150, 19454.00
561.1880, 19381.00
562.3610, 19024.00
563.5340, 18808.00
564.7060, 18634.00
565.8780, 18254.00
567.0500, 18109.00
568.2220, 17768.00
569.3940, 17540.00
570.5660, 17617.00
571.7370, 17416.00
572.9090, 17323.00
574.0800, 17206.00
575.2510, 17138.00
576.4220, 17218.00
577.5920, 17211.00
578.7630, 17077.00
579.9330, 16983.00
581.1040, 17051.00
582.2740, 17063.94
583.4440, 17085.20
584.6130, 17320.00
585.7830, 17134.00
586.9520, 17359.00
588.1220, 17293.00
589.2910, 17434.00
590.4600, 17783.00
591.6290, 17798.00
592.7970, 18248.00
593.9660, 18669.00
595.1340, 19013.00
596.3020, 19511.00
597.4700, 19984.00
598.6380, 20565.00
599.8060, 20847.00
600.9730, 21399.00
602.1410, 21837.00
603.3080, 22203.00
604.4750, 22233.00
605.6420, 22611.00
606.8090, 22389.00
607.9750, 22589.00
609.1420, 22432.00
610.3080, 22442.00
611.4740, 22535.00
612.6400, 22646.00
613.8060, 22743.00
614.9720, 22851.81
616.1370, 22993.00
617.3020, 23110.00
618.4680, 23283.00
619.6330, 23502.00
620.7970, 23555.00
621.9620, 23570.00
623.1270, 23579.00
624.2910, 23294.00
625.4550, 23231.00
626.6190, 23008.00
627.7830, 22607.00
628.9470, 22365.00
630.1110, 21977.00
631.2740, 21634.00
632.4370, 21494.00
633.6000, 21262.00
634.7630, 20994.00
635.9260, 20673.00
637.0890, 20571.00
638.2510, 20516.00
639.4140, 20263.00
640.5760, 20166.36
641.7380, 20047.00
642.9000, 19849.00
644.0610, 19798.00
645.2230, 19652.00
646.3840, 19430.00
647.5460, 19445.00
648.7070, 19405.00
649.8670, 19320.00
651.0280, 19137.00
652.1890, 18966.00
653.3490, 18826.00
654.5090, 18657.28
655.6700, 18486.00
656.8300, 18388.23
657.9890, 18405.60
659.1490, 18364.40
660.3080, 18267.96
661.4680, 17950.37
662.6270, 17918.32
663.7860, 17771.88
664.9450, 17620.76
666.1030, 17628.98
667.2620, 17343.64
668.4200, 17349.35
669.5790, 17238.82
670.7370, 17181.53
671.8940, 17009.25
673.0520, 16845.00
674.2100, 16654.00
675.3670, 16832.00
676.5240, 16823.00
677.6810, 16537.00
678.8380, 16760.00
679.9950, 16647.00
681.1520, 16786.00
682.3080, 16721.00
683.4650, 16682.00
684.6210, 16725.00
685.7770, 16717.00
686.9320, 16620.00
688.0880, 16700.00
689.2440, 16768.00
690.3990, 16696.00
691.5540, 16781.22
692.7090, 16763.24
693.8640, 16785.00
695.0190, 16714.00
696.1730, 16580.00
697.3280, 16437.00
698.4820, 16276.00
699.6360, 16156.44
700.7900, 16205.00
701.9440, 15909.00
703.0970, 15746.00
704.2510, 15630.00
705.4040, 15267.00
706.5570, 15196.00
707.7100, 15283.00
708.8630, 15073.00
710.0150, 14834.00
711.1680, 14713.00
712.3200, 14628.00
713.4720, 14344.00
714.6240, 14302.00
715.7760, 14065.00
716.9280, 13961.00
718.0790, 13815.97
719.2310, 13697.00
720.3820, 13504.00
721.5330, 13381.00
722.6840, 13198.00
723.8350, 13246.00
724.9850, 13041.00
726.1360, 12949.00
727.2860, 12784.00
728.4360, 12733.00
729.5860, 12611.00
730.7360, 12454.00
731.8850, 12477.00
733.0350, 12452.00
734.1840, 12397.00
735.3330, 12314.88
736.4820, 12202.00
737.6310, 12040.00
738.7800, 12141.00
739.9280, 11932.00
741.0760, 11937.00
742.2250, 11975.00
743.3730, 11862.00
744.5200, 11746.00
745.6680, 11797.00
746.8160, 11917.00
747.9630, 11644.00
749.1100, 11749.00
750.2570, 11927.00
751.4040, 11803.53
752.5510, 11654.00
753.6980, 11773.00
754.8440, 11813.00
755.9900, 11733.00
757.1360, 11750.00
758.2820, 11783.00
759.4280, 11750.00
760.5740, 11825.76
761.7190, 11808.20
762.8640, 11929.00
764.0100, 11780.00
765.1550, 11769.00
766.2990, 11682.00
767.4440, 11929.00
768.5890, 11821.09
769.7330, 11964.00
770.8770, 11835.00
772.0210, 11984.00
773.1650, 12087.00
774.3090, 11810.00
775.4520, 11990.00
776.5960, 12131.00
777.7390, 12026.00
778.8820, 12069.00
780.0250, 12023.00
781.1670, 12123.00
782.3100, 12149.96
783.4520, 12130.04
784.5950, 12263.51
785.7370, 12309.41
786.8790, 12348.76
788.0210, 12150.00
789.1620, 12316.00
790.3040, 12342.00
791.4450, 12267.00
792.5860, 12396.00
793.7270, 12459.00
794.8680, 12381.00
796.0090, 12247.00
797.1490, 12432.00
798.2890, 12470.00
799.4300, 12602.00
800.5700, 12559.61
801.7090, 12572.00
802.8490, 12437.00
803.9890, 12535.00
805.1280, 12511.00
806.2670, 12579.00
807.4060, 12559.00
808.5450, 12518.00
809.6840, 12297.00
810.8230, 12356.00
811.9610, 12371.00
813.0990, 12443.00
814.2370, 12393.00
815.3750, 12339.00
816.5130, 12419.00
817.6510, 12341.00
818.7880, 12379.00
819.9250, 12160.00
821.0630, 12210.00
822.1990, 12105.00
823.3360, 12291.00
824.4730, 12077.00
825.6090, 12096.00
826.7460, 12052.00
827.8820, 11975.00
829.0180, 11995.00
830.1540, 11937.00
831.2890, 11858.00
832.4250, 11920.00
833.5600, 11871.00
834.6960, 11762.00
835.8310, 11824.00
836.9660, 11730.00
838.1000, 11774.00
839.2350, 11675.00
840.3690, 11716.00
841.5030, 11759.00
842.6380, 11601.00
843.7710, 11647.00
844.9050, 11546.00
846.0390, 11669.00
847.1720, 11716.00
848.3060, 11683.00
849.4390, 11770.00
850.5720, 11788.00
851.7040, 11649.00
852.8370, 11534.00
853.9700, 11711.00
855.1020, 11463.00
856.2340, 11549.00
857.3660, 11761.00
858.4980, 11579.00
859.6300, 11631.00
860.7610, 11683.00
861.8920, 11530.00
863.0240, 11554.00
864.1550, 11635.00
865.2850, 11627.00
866.4160, 11600.00
867.5470, 11608.00
868.6770, 11602.90
869.8070, 11621.32
870.9370, 11613.00
872.0670, 11709.00
873.1970, 11725.00
874.3270, 11842.00
875.4560, 11748.00
876.5850, 11623.00
877.7140, 11845.00
878.8430, 11854.00
879.9720, 11830.00
881.1010, 11889.00
882.2290, 11763.00
883.3570, 11689.00
884.4860, 11860.00
885.6140, 11847.00
886.7410, 11914.00
887.8690, 11889.00
888.9960, 11914.10
890.1240, 11906.00
891.2510, 11826.06
892.3780, 11980.62
893.5050, 12076.71
894.6320, 12117.46
895.7580, 11937.15
896.8840, 12042.28
898.0110, 12033.03
899.1370, 12019.08
900.2620, 12164.37
901.3880, 12016.20
902.5140, 12158.98
903.6390, 12185.60
904.7640, 12265.38
905.8890, 12230.05
907.0140, 12230.28
908.1390, 12170.00
909.2640, 12255.00
910.3880, 12318.00
911.5120, 12286.00
912.6360, 12398.00
913.7600, 12324.00
914.8840, 12484.00
916.0080, 12502.00
917.1310, 12502.67
918.2550, 12705.00
919.3780, 12547.00
920.5010, 12677.00
921.6230, 12779.00
922.7460, 12739.00
923.8690, 12891.00
924.9910, 12785.00
926.1130, 12924.00
927.2350, 12948.00
928.3570, 13113.00
929.4790, 13161.17
930.6000, 13175.68
931.7220, 13302.00
932.8430, 13198.00
933.9640, 13277.00
935.0850, 13346.00
936.2050, 13482.00
937.3260, 13615.00
938.4460, 13919.00
939.5660, 13956.00
940.6870, 14152.00
941.8060, 14144.00
942.9260, 14316.00
944.0460, 14544.00
945.1650, 14674.00
946.2840, 15105.00
947.4040, 15027.00
948.5220, 15604.00
949.6410, 15923.00
950.7600, 16254.00
951.8780, 16821.14
952.9970, 17239.00
954.1150, 17834.00
955.2330, 18100.00
956.3500, 18540.00
957.4680, 19100.00
958.5860, 19591.00
959.7030, 20241.00
960.8200, 20835.00
961.9370, 21776.00
963.0540, 22966.00
964.1710, 24131.00
965.2870, 25721.00
966.4030, 27836.00
967.5200, 29919.00
968.6360, 32749.00
969.7510, 36010.00
970.8670, 39952.00
971.9830, 44550.00
973.0980, 49872.00
974.2130, 56048.00
975.3280, 63743.00
976.4430, 71878.00
977.5580, 81637.00
978.6730, 91999.00
979.7870, 102659.0
980.9010, 113641.0
982.0150, 123179.5
983.1290, 134316.5
984.2430, 141265.3
985.3560, 144029.2
986.4700, 142447.0
987.5830, 137027.4
988.6960, 127371.8
989.8090, 115713.0
990.9220, 102431.0
992.0350, 88225.00
993.1470, 75197.00
994.2590, 63285.00
995.3720, 53506.00
996.4830, 45806.00
997.5950, 39981.00
998.7070, 35484.00
999.8180, 32207.00
1000.930, 29556.00
1002.041, 27827.00
1003.152, 26395.00
1004.263, 25230.00
1005.373, 24206.00
1006.484, 23502.00
1007.594, 22864.00
1008.704, 22132.00
1009.815, 21958.00
1010.924, 21573.00
1012.034, 21387.00
1013.144, 21071.00
1014.253, 20954.00
1015.362, 20704.00
1016.471, 20457.00
1017.580, 20379.00
1018.689, 20288.00
1019.797, 20370.00
1020.906, 20163.00
1022.014, 20221.00
1023.122, 20411.00
1024.230, 20213.00
1025.338, 20313.00
1026.445, 20210.00
1027.553, 20355.00
1028.660, 20354.00
1029.767, 20718.00
1030.874, 20932.00
1031.981, 20960.00
1033.088, 21185.00
1034.194, 21444.00
1035.300, 21676.00
1036.406, 21785.00
1037.512, 22192.00
1038.618, 22376.00
1039.724, 22405.00
1040.829, 22840.00
1041.935, 22888.00
1043.040, 23103.00
1044.145, 23361.00
1045.250, 23465.00
1046.354, 23233.00
1047.459, 22994.00
1048.563, 22998.00
1049.667, 22937.00
1050.771, 22562.00
1051.875, 22294.00
1052.979, 21950.00
1054.082, 21657.00
1055.186, 21281.00
1056.289, 21094.00
1057.392, 20675.00
1058.495, 20546.00
1059.598, 20438.00
1060.700, 20281.00
1061.803, 19929.00
1062.905, 19870.00
1064.007, 19708.00
1065.109, 19794.00
1066.210, 19726.00
1067.312, 20081.00
1068.413, 20222.00
1069.515, 20399.00
1070.616, 20733.00
1071.717, 21073.00
1072.817, 21465.00
1073.918, 21769.00
1075.019, 22142.00
1076.119, 21926.00
1077.219, 21922.00
1078.319, 21807.00
1079.419, 21444.00
1080.518, 20959.00
1081.618, 20791.00
1082.717, 20365.00
1083.816, 19874.00
1084.915, 19638.00
1086.014, 19217.00
1087.113, 18986.00
1088.211, 18731.97
1089.309, 18486.00
1090.408, 18283.00
1091.506, 17852.00
1092.603, 17609.00
1093.701, 17391.00
1094.799, 17031.00
1095.896, 16877.00
1096.993, 16876.00
1098.090, 16612.00
1099.187, 16443.00
1100.284, 16455.00
1101.380, 16267.00
1102.477, 16125.00
1103.573, 16061.17
1104.669, 15957.51
1105.765, 15861.00
1106.860, 15823.00
1107.956, 15718.00
1109.051, 15592.00
1110.147, 15650.00
1111.242, 15528.00
1112.336, 15628.00
1113.431, 15578.00
1114.526, 15450.00
1115.620, 15662.00
1116.714, 15688.00
1117.809, 15547.00
1118.902, 15739.00
1119.996, 15842.00
1121.090, 15885.00
1122.183, 15862.00
1123.277, 16229.00
1124.370, 16346.00
1125.463, 16473.00
1126.555, 16870.00
1127.648, 16878.00
1128.740, 17103.00
1129.833, 17168.00
1130.925, 17737.00
1132.017, 17960.00
1133.109, 17999.00
1134.200, 17995.00
1135.292, 17864.00
1136.383, 17786.00
1137.474, 17470.00
1138.565, 16953.00
1139.656, 16606.00
1140.747, 16295.00
1141.837, 16019.00
1142.927, 15820.00
1144.018, 15343.00
1145.108, 15036.00
1146.197, 14726.00
1147.287, 14628.00
1148.377, 14530.00
1149.466, 14319.00
1150.555, 14203.00
1151.644, 14100.00
1152.733, 13905.00
1153.822, 13838.36
1154.910, 13931.08
1155.999, 13965.29
1157.087, 13944.21
1158.175, 13702.07
1159.263, 13745.38
1160.350, 13674.34
1161.438, 13598.56
1162.525, 13682.08
1163.613, 13472.10
1164.700, 13553.10
1165.787, 13609.00
1166.873, 13452.00
1167.960, 13728.00
1169.046, 13604.00
1170.133, 13751.00
1171.219, 13664.00
1172.305, 13521.00
1173.390, 13501.00
1174.476, 13725.00
1175.561, 13560.00
1176.647, 13635.07
1177.732, 13632.00
1178.817, 13564.00
1179.901, 13740.00
1180.986, 13595.00
1182.070, 13673.00
1183.155, 13609.00
1184.239, 13658.00
1185.323, 13750.00
1186.407, 13650.00
1187.490, 13744.57
1188.574, 13767.00
1189.657, 13734.00
1190.740, 13872.00
1191.823, 13689.00
1192.906, 13892.00
1193.988, 13680.00
1195.071, 13918.00
1196.153, 13890.00
1197.235, 13805.00
1198.317, 13803.00
1199.399, 13836.00
1200.481, 13821.00
1201.562, 13801.00
1202.644, 13902.00
1203.725, 13808.00
1204.806, 13837.00
1205.887, 13905.00
1206.967, 13872.00
1208.048, 13900.00
1209.128, 13761.00
1210.208, 13731.00
1211.289, 13785.00
1212.368, 13849.00
1213.448, 13703.00
1214.528, 13677.00
1215.607, 13692.00
1216.686, 13617.95
1217.765, 13607.00
1218.844, 13581.00
1219.923, 13648.00
1221.001, 13665.00
1222.080, 13682.00
1223.158, 13685.00
1224.236, 13714.31
1225.314, 13734.00
1226.392, 13735.00
1227.469, 13706.00
1228.547, 13646.00
1229.624, 13696.00
1230.701, 13700.00
1231.778, 13449.00
1232.855, 13688.00
1233.931, 13605.00
1235.008, 13524.00
1236.084, 13619.00
1237.160, 13729.00
1238.236, 13733.00
1239.312, 13789.45
1240.387, 13782.00
1241.463, 13785.00
1242.538, 13788.00
1243.613, 13709.00
1244.688, 13689.00
1245.763, 13765.00
1246.837, 13801.00
1247.912, 13620.00
1248.986, 13744.00
1250.060, 13757.00
1251.134, 13623.00
1252.208, 13696.00
1253.282, 13723.00
1254.355, 13915.00
1255.428, 13840.00
1256.501, 13802.00
1257.574, 13895.00
1258.647, 13873.00
1259.720, 13762.00
1260.792, 13925.00
1261.865, 13999.00
1262.937, 13947.20
1264.009, 13932.00
1265.081, 13853.00
1266.152, 13994.00
1267.224, 13847.00
1268.295, 13934.00
1269.366, 14011.00
1270.437, 13819.00
1271.508, 13974.00
1272.579, 13768.00
1273.649, 13862.48
1274.720, 13862.09
1275.790, 14032.00
1276.860, 13856.00
1277.930, 13988.00
1278.999, 13911.00
1280.069, 13905.00
1281.138, 13838.00
1282.208, 13805.00
1283.277, 13848.00
1284.345, 13878.00
1285.414, 13908.58
1286.483, 14022.00
1287.551, 14000.00
1288.619, 13963.00
1289.687, 13985.00
1290.755, 13914.00
1291.823, 14083.00
1292.890, 14050.00
1293.958, 13968.00
1295.025, 14130.00
1296.092, 14106.00
1297.159, 14128.00
1298.226, 14014.00
1299.292, 14256.00
1300.359, 14186.00
1301.425, 14180.00
1302.491, 14258.00
1303.557, 14242.00
1304.623, 14156.00
1305.688, 14437.00
1306.754, 14253.00
1307.819, 14562.00
1308.884, 14313.00
1309.949, 14390.00
1311.014, 14358.00
1312.078, 14593.00
1313.143, 14388.00
1314.207, 14457.00
1315.271, 14412.00
1316.335, 14369.00
1317.399, 14357.00
1318.462, 14430.00
1319.526, 14363.00
1320.589, 14380.00
1321.652, 14234.00
1322.715, 14289.00
1323.778, 14434.00
1324.841, 14284.00
1325.903, 14290.00
1326.965, 14124.00
1328.027, 14254.00
1329.089, 14057.00
1330.151, 14230.00
1331.213, 14262.00
1332.274, 14092.00
1333.336, 13975.00
1334.397, 14082.00
1335.458, 14016.00
1336.518, 14017.00
1337.579, 13957.00
1338.640, 14010.00
1339.700, 13949.14
1340.760, 13898.47
1341.820, 13716.41
1342.880, 13829.58
1343.939, 13884.29
1344.999, 13883.65
1346.058, 13661.97
1347.117, 13725.75
1348.176, 13675.12
1349.235, 13619.81
1350.294, 13723.76
1351.352, 13534.25
1352.411, 13635.67
1353.469, 13620.98
1354.527, 13659.43
1355.585, 13582.79
1356.642, 13541.71
1357.700, 13615.75
1358.757, 13626.06
1359.815, 13536.17
1360.872, 13578.02
1361.928, 13384.53
1362.985, 13397.56
1364.042, 13499.69
1365.098, 13415.62
1366.154, 13229.00
1367.210, 13258.00
1368.266, 13310.00
1369.322, 13206.00
1370.377, 13241.50
1371.433, 13213.00
1372.488, 13199.00
1373.543, 13111.00
1374.598, 13064.00
1375.652, 13237.00
1376.707, 13162.00
1377.761, 13206.00
1378.816, 13244.00
1379.870, 13225.00
1380.924, 13111.00
1381.977, 13031.00
1383.031, 13131.00
1384.084, 13180.00
1385.137, 13037.00
1386.190, 12967.00
1387.243, 12998.29
1388.296, 13035.00
1389.349, 13104.00
1390.401, 13036.00
1391.453, 13073.98
1392.505, 12984.00
1393.557, 13054.00
1394.609, 13032.00
1395.661, 13003.00
1396.712, 12995.00
1397.763, 13073.00
1398.814, 13148.00
1399.865, 12935.00
1400.916, 12880.00
1401.967, 12955.00
1403.017, 13016.00
1404.067, 12973.00
1405.117, 12980.00
1406.167, 13036.00
1407.217, 13016.00
1408.267, 12991.00
1409.316, 13006.00
1410.365, 12968.13
1411.414, 12881.00
1412.463, 12898.00
1413.512, 12864.00
1414.561, 12791.00
1415.609, 12937.00
1416.657, 12879.00
1417.706, 13002.00
1418.754, 12966.00
1419.801, 12942.00
1420.849, 12837.00
1421.896, 12903.00
1422.944, 12999.00
1423.991, 13073.00
1425.038, 13023.00
1426.085, 12934.00
1427.131, 12854.00
1428.178, 12854.00
1429.224, 12931.00
1430.270, 12873.00
1431.316, 12829.00
1432.362, 12762.00
1433.407, 12947.00
1434.453, 12912.00
1435.498, 12899.00
1436.543, 12944.00
1437.588, 12869.00
1438.633, 12796.00
1439.678, 12840.00
1440.722, 12903.00
1441.767, 12873.00
1442.811, 12900.00
1443.855, 12835.00
1444.898, 12767.00
1445.942, 12790.00
1446.986, 12960.00
1448.029, 12840.00
1449.072, 12874.26
1450.115, 12914.48
1451.158, 12792.00
1452.201, 12937.00
1453.243, 12912.00
1454.285, 12878.00
1455.327, 12849.00
1456.369, 12808.00
1457.411, 12823.00
1458.453, 12781.00
1459.494, 12775.84
1460.536, 12798.00
1461.577, 12733.00
1462.618, 12862.00
1463.659, 12804.00
1464.700, 12847.00
1465.740, 12874.00
1466.780, 12801.00
1467.821, 12794.00
1468.861, 12826.00
1469.900, 12852.00
1470.940, 12815.00
1471.980, 12869.00
1473.019, 12730.00
1474.058, 12798.00
1475.097, 12985.00
1476.136, 12749.00
1477.175, 12706.00
1478.213, 12983.00
1479.252, 12718.00
1480.290, 12945.00
1481.328, 12917.00
1482.366, 12909.00
1483.403, 12956.00
1484.441, 12878.00
1485.478, 12748.00
1486.515, 12969.00
1487.552, 12779.00
1488.589, 12866.00
1489.626, 12978.00
1490.663, 12825.00
1491.699, 12935.00
1492.735, 12997.00
1493.771, 12950.00
1494.807, 12864.00
1495.843, 12957.00
1496.878, 13008.00
1497.914, 12863.00
1498.949, 12759.00
1499.984, 13003.00
1501.019, 12877.00
1502.054, 12803.00
1503.088, 12817.00
1504.122, 12877.00
1505.157, 12778.00
1506.191, 12998.00
1507.225, 12876.00
1508.258, 13017.00
1509.292, 12862.00
1510.325, 12860.00
1511.359, 12869.99
1512.392, 12842.03
1513.424, 12856.00
1514.457, 12905.00
1515.490, 12921.00
1516.522, 12983.00
1517.554, 12962.35
1518.586, 12956.00
1519.618, 12940.00
1520.650, 12880.00
1521.682, 12900.00
1522.713, 12833.00
1523.744, 12987.00
1524.775, 13017.00
1525.806, 12920.00
1526.837, 13038.00
1527.868, 12938.00
1528.898, 12964.00
1529.928, 12958.00
1530.958, 12958.32
1531.988, 13002.00
1533.018, 13024.00
1534.048, 13041.00
1535.077, 13097.00
1536.106, 12999.00
1537.135, 13050.00
1538.164, 12920.00
1539.193, 12967.00
1540.222, 12935.95
1541.250, 13075.34
1542.278, 13156.26
1543.306, 13181.84
1544.334, 12986.38
1545.362, 13076.35
1546.390, 13051.94
1547.417, 13022.82
1548.444, 13152.97
1549.471, 12989.65
1550.498, 13117.27
1551.525, 13128.75
1552.552, 13193.38
1553.578, 13142.92
1554.604, 13128.00
1555.630, 13228.21
1556.656, 13264.68
1557.682, 13200.96
1558.708, 13268.97
1559.733, 13101.61
1560.758, 13140.79
1561.784, 13269.08
1562.808, 13211.13
1563.833, 13281.24
1564.858, 13302.58
1565.882, 13102.29
1566.907, 13287.43
1567.931, 13305.89
1568.955, 13153.19
1569.978, 13325.12
1571.002, 13196.02
1572.025, 13135.00
1573.049, 13144.75
1574.072, 13160.00
1575.095, 13178.00
1576.118, 13158.00
1577.140, 13190.00
1578.163, 13231.00
1579.185, 13197.00
##END=



