##NAMES=Triplite
##RRUFFID=R050226
##IDEAL CHEMISTRY=Mn^2+^_2_(PO_4_)F
##LOCALITY=Fremont County, Colorado, USA
##OWNER=RRUFF
##SOURCE=Marcus Origlieri
##DESCRIPTION=Reddish brown massive
##STATUS=The identification of this mineral has been confirmed by X-ray diffraction and chemical analysis
##URL=rruff.info/R050226
##MEASURED CHEMISTRY=(Mn^2+^_1.20_Mg_0.49_Fe^2+^_0.27_Ca_0.04_)_Σ=2_(P_1.00_O_4_)(F_0.95_(OH)_0.05_)_Σ=1_
##PIN_ID=L00502
##ORIENTATION=Laser parallel to b* (0 1 0). Fiducial mark perpendicular to laser is parallel to c [0 0 1]
64.81000, 9502.000
66.04600, 9895.000
67.28200, 10311.00
68.51800, 11229.00
69.75400, 12012.00
70.98900, 12980.00
72.22500, 13553.00
73.46000, 14591.00
74.69500, 15465.00
75.93000, 16016.00
77.16500, 16747.00
78.40000, 17477.00
79.63400, 18188.00
80.86900, 18342.00
82.10300, 18681.00
83.33700, 18973.00
84.57100, 19496.00
85.80500, 19444.00
87.03800, 19029.00
88.27200, 18543.00
89.50500, 18057.00
90.73800, 18303.00
91.97100, 18532.00
93.20400, 18994.00
94.43700, 18985.50
95.67000, 19174.00
96.90200, 18969.00
98.13400, 18898.00
99.36600, 18665.00
100.5980, 18593.58
101.8300, 18583.00
103.0620, 18438.00
104.2930, 18487.00
105.5250, 18459.00
106.7560, 18726.00
107.9870, 19410.00
109.2180, 19881.00
110.4490, 19909.00
111.6790, 19788.00
112.9100, 19868.00
114.1400, 20129.00
115.3700, 20509.00
116.6000, 20885.00
117.8300, 21518.00
119.0600, 22053.00
120.2900, 21915.00
121.5190, 21704.00
122.7480, 21824.00
123.9770, 21745.00
125.2060, 21458.00
126.4350, 20946.00
127.6640, 20401.00
128.8920, 20408.00
130.1210, 19517.00
131.3490, 19152.00
132.5770, 19015.00
133.8050, 18780.00
135.0330, 18468.00
136.2600, 18444.00
137.4880, 18351.00
138.7150, 18318.00
139.9420, 18498.00
141.1690, 18705.00
142.3960, 18694.00
143.6230, 18514.00
144.8490, 18379.00
146.0760, 18293.00
147.3020, 18333.00
148.5280, 18356.00
149.7540, 18317.97
150.9800, 18422.00
152.2050, 18297.00
153.4310, 18311.00
154.6560, 18310.00
155.8810, 18370.00
157.1060, 18365.00
158.3310, 18375.00
159.5560, 18265.67
160.7800, 18175.52
162.0050, 17993.00
163.2290, 17931.00
164.4530, 17811.00
165.6770, 17775.00
166.9010, 17640.00
168.1250, 17553.42
169.3480, 17456.72
170.5720, 17367.00
171.7950, 17233.00
173.0180, 17173.00
174.2410, 17044.00
175.4640, 16962.00
176.6860, 16695.00
177.9090, 16763.00
179.1310, 16726.00
180.3530, 16513.00
181.5750, 16577.00
182.7970, 16478.00
184.0190, 16241.00
185.2400, 16451.00
186.4620, 16347.00
187.6830, 16391.00
188.9040, 16414.81
190.1250, 16275.00
191.3460, 16456.00
192.5660, 16266.00
193.7870, 16402.00
195.0070, 16362.00
196.2270, 16192.00
197.4470, 16281.02
198.6670, 16181.00
199.8870, 16292.00
201.1060, 16195.00
202.3260, 16222.00
203.5450, 16138.00
204.7640, 16240.00
205.9830, 16338.00
207.2020, 16098.00
208.4200, 15997.00
209.6390, 15988.00
210.8570, 16124.00
212.0750, 15930.00
213.2940, 16114.00
214.5110, 16149.00
215.7290, 16107.00
216.9470, 16184.00
218.1640, 16395.00
219.3810, 16346.00
220.5990, 16463.00
221.8150, 16305.00
223.0320, 16670.00
224.2490, 16697.00
225.4650, 16665.00
226.6820, 16428.00
227.8980, 16419.00
229.1140, 16285.00
230.3300, 16131.00
231.5460, 15980.00
232.7610, 15630.00
233.9770, 15442.00
235.1920, 15375.00
236.4070, 15267.00
237.6220, 15343.00
238.8370, 15305.00
240.0520, 15201.00
241.2660, 15305.00
242.4810, 15207.27
243.6950, 15318.00
244.9090, 15174.00
246.1230, 15099.00
247.3370, 15188.00
248.5500, 15358.00
249.7640, 15156.00
250.9770, 15227.00
252.1900, 15117.00
253.4030, 15085.00
254.6160, 15006.00
255.8290, 15120.00
257.0410, 14965.00
258.2530, 15132.00
259.4660, 15069.00
260.6780, 14945.00
261.8900, 15151.00
263.1010, 15135.00
264.3130, 14765.00
265.5250, 15066.00
266.7360, 14758.00
267.9470, 15020.00
269.1580, 15044.00
270.3690, 14891.00
271.5800, 15116.00
272.7900, 15080.00
274.0010, 14888.00
275.2110, 15174.00
276.4210, 15084.19
277.6310, 15154.38
278.8410, 15263.00
280.0500, 15315.00
281.2600, 15582.00
282.4690, 15753.00
283.6780, 15631.00
284.8870, 15656.00
286.0960, 15950.00
287.3050, 16058.00
288.5130, 16279.00
289.7220, 16324.00
290.9300, 16455.00
292.1380, 16355.00
293.3460, 16584.00
294.5540, 16777.00
295.7610, 16572.00
296.9690, 16603.00
298.1760, 16515.00
299.3830, 16489.00
300.5900, 16377.99
301.7970, 16046.00
303.0040, 16089.00
304.2100, 16016.00
305.4170, 15817.00
306.6230, 15809.00
307.8290, 15662.00
309.0350, 15452.00
310.2410, 15403.00
311.4460, 15278.00
312.6520, 15098.00
313.8570, 15078.00
315.0620, 15059.00
316.2670, 14953.00
317.4720, 14908.35
318.6770, 14811.00
319.8810, 14738.00
321.0860, 14699.00
322.2900, 14594.00
323.4940, 14572.00
324.6980, 14711.00
325.9020, 14418.00
327.1050, 14478.00
328.3090, 14543.00
329.5120, 14348.59
330.7150, 14372.82
331.9180, 14133.00
333.1210, 14237.00
334.3240, 14144.00
335.5260, 14106.00
336.7290, 13908.00
337.9310, 13823.00
339.1330, 13798.00
340.3350, 13794.00
341.5370, 13765.00
342.7380, 13744.45
343.9400, 13712.00
345.1410, 13672.00
346.3420, 13585.00
347.5430, 13495.00
348.7440, 13578.00
349.9450, 13593.00
351.1450, 13458.00
352.3460, 13375.00
353.5460, 13467.00
354.7460, 13465.00
355.9460, 13504.00
357.1460, 13479.00
358.3450, 13430.00
359.5450, 13415.00
360.7440, 13351.00
361.9430, 13287.00
363.1420, 13318.00
364.3410, 13262.00
365.5400, 13119.00
366.7380, 13085.00
367.9370, 13077.89
369.1350, 13107.00
370.3330, 13095.00
371.5310, 13135.00
372.7280, 13090.00
373.9260, 13123.00
375.1230, 13174.88
376.3210, 13352.00
377.5180, 13259.00
378.7150, 13298.00
379.9120, 13241.00
381.1080, 13184.00
382.3050, 13273.00
383.5010, 13421.00
384.6970, 13457.00
385.8930, 13495.50
387.0890, 13410.00
388.2850, 13524.00
389.4810, 13373.00
390.6760, 13423.00
391.8710, 13474.00
393.0660, 13528.00
394.2610, 13346.00
395.4560, 13540.00
396.6510, 13445.00
397.8450, 13486.00
399.0400, 13523.00
400.2340, 13750.00
401.4280, 13716.00
402.6220, 13803.00
403.8150, 13824.00
405.0090, 14072.00
406.2020, 14146.00
407.3960, 14287.00
408.5890, 14358.00
409.7820, 14490.00
410.9740, 14353.00
412.1670, 14603.00
413.3600, 14535.00
414.5520, 14604.00
415.7440, 14755.00
416.9360, 14864.00
418.1280, 14877.00
419.3200, 14899.00
420.5110, 15047.00
421.7020, 15298.00
422.8940, 15588.00
424.0850, 15733.00
425.2760, 16084.00
426.4660, 16200.00
427.6570, 16370.00
428.8470, 16573.09
430.0380, 16864.00
431.2280, 16898.00
432.4180, 17029.00
433.6080, 17218.00
434.7970, 17178.00
435.9870, 17229.00
437.1760, 17015.00
438.3650, 16701.00
439.5540, 16424.00
440.7430, 16175.00
441.9320, 15858.00
443.1210, 15493.00
444.3090, 15326.00
445.4970, 14912.00
446.6850, 14646.00
447.8730, 14424.00
449.0610, 14138.19
450.2490, 14134.52
451.4360, 14094.42
452.6240, 14019.70
453.8110, 13807.03
454.9980, 13772.59
456.1850, 13666.72
457.3710, 13557.99
458.5580, 13548.63
459.7440, 13356.11
460.9310, 13345.17
462.1170, 13261.79
463.3030, 13211.60
464.4880, 13025.80
465.6740, 13071.31
466.8590, 13080.34
468.0450, 13054.79
469.2300, 12891.26
470.4150, 12905.95
471.6000, 12849.22
472.7840, 12789.59
473.9690, 12829.36
475.1530, 12685.94
476.3370, 12967.00
477.5210, 12974.00
478.7050, 12869.00
479.8890, 12782.00
481.0730, 12821.22
482.2560, 12983.00
483.4390, 12890.00
484.6220, 12978.00
485.8050, 13050.00
486.9880, 13111.00
488.1710, 13054.00
489.3530, 13115.00
490.5360, 13035.00
491.7180, 13207.00
492.9000, 13068.00
494.0820, 13181.00
495.2630, 13244.07
496.4450, 13319.19
497.6260, 13357.81
498.8080, 13361.87
499.9890, 13227.93
501.1700, 13272.20
502.3500, 13245.06
503.5310, 13214.99
504.7110, 13284.36
505.8920, 13170.49
507.0720, 13238.28
508.2520, 13094.00
509.4320, 13000.00
510.6110, 12920.00
511.7910, 12831.00
512.9700, 12959.00
514.1490, 12972.00
515.3280, 12983.23
516.5070, 12872.00
517.6860, 13001.00
518.8650, 12985.00
520.0430, 12916.00
521.2210, 12942.61
522.3990, 13045.40
523.5770, 13111.69
524.7550, 13143.43
525.9330, 13037.16
527.1100, 13109.08
528.2870, 13109.59
529.4650, 13107.19
530.6420, 13204.20
531.8180, 13158.00
532.9950, 13209.00
534.1720, 13109.00
535.3480, 13215.00
536.5240, 13083.00
537.7000, 13107.00
538.8760, 13102.00
540.0520, 13182.00
541.2270, 13133.00
542.4030, 13239.00
543.5780, 13257.00
544.7530, 13405.00
545.9280, 13470.00
547.1030, 13504.00
548.2780, 13611.09
549.4520, 13676.00
550.6260, 13768.00
551.8010, 13751.00
552.9750, 13844.00
554.1480, 14194.00
555.3220, 14084.00
556.4960, 14308.00
557.6690, 14253.00
558.8420, 14321.00
560.0150, 14497.00
561.1880, 14648.00
562.3610, 14756.50
563.5340, 14853.22
564.7060, 14860.00
565.8780, 15002.00
567.0500, 14734.00
568.2220, 14817.00
569.3940, 15052.00
570.5660, 14802.00
571.7370, 15310.00
572.9090, 15222.00
574.0800, 15380.00
575.2510, 15221.00
576.4220, 15397.00
577.5920, 15562.00
578.7630, 15610.00
579.9330, 15693.00
581.1040, 15698.00
582.2740, 15627.00
583.4440, 15844.00
584.6130, 15910.00
585.7830, 16060.00
586.9520, 16226.00
588.1220, 16350.00
589.2910, 16521.00
590.4600, 16811.52
591.6290, 17468.14
592.7970, 18077.33
593.9660, 18642.59
595.1340, 19029.92
596.3020, 19646.41
597.4700, 20171.05
598.6380, 20691.95
599.8060, 21340.70
600.9730, 21776.00
602.1410, 22409.00
603.3080, 23037.00
604.4750, 23210.97
605.6420, 23522.00
606.8090, 23458.00
607.9750, 23304.00
609.1420, 23249.00
610.3080, 22894.00
611.4740, 22409.00
612.6400, 22139.00
613.8060, 21818.00
614.9720, 21400.00
616.1370, 21291.00
617.3020, 20873.00
618.4680, 20848.00
619.6330, 20649.00
620.7970, 20477.00
621.9620, 20155.00
623.1270, 19967.00
624.2910, 19907.00
625.4550, 19707.00
626.6190, 19688.00
627.7830, 19549.00
628.9470, 19625.00
630.1110, 19432.00
631.2740, 19494.00
632.4370, 19552.00
633.6000, 19472.00
634.7630, 19387.00
635.9260, 19352.00
637.0890, 19437.86
638.2510, 19765.00
639.4140, 19683.00
640.5760, 19819.00
641.7380, 19935.00
642.9000, 19981.00
644.0610, 20109.00
645.2230, 20167.00
646.3840, 20274.00
647.5460, 20319.00
648.7070, 20384.00
649.8670, 20581.84
651.0280, 20620.19
652.1890, 20936.00
653.3490, 20866.00
654.5090, 20905.00
655.6700, 21161.00
656.8300, 21273.00
657.9890, 21251.00
659.1490, 21358.00
660.3080, 21531.00
661.4680, 21559.00
662.6270, 21781.00
663.7860, 22128.00
664.9450, 21964.00
666.1030, 22303.00
667.2620, 22646.00
668.4200, 22827.00
669.5790, 23022.00
670.7370, 23196.00
671.8940, 23728.00
673.0520, 24239.00
674.2100, 24900.00
675.3670, 25283.00
676.5240, 25517.00
677.6810, 26296.00
678.8380, 27017.00
679.9950, 27117.00
681.1520, 27847.00
682.3080, 28399.00
683.4650, 28522.00
684.6210, 29139.00
685.7770, 29462.00
686.9320, 29923.00
688.0880, 29906.00
689.2440, 30211.00
690.3990, 30510.00
691.5540, 30321.00
692.7090, 30383.00
693.8640, 30263.00
695.0190, 30179.00
696.1730, 30010.00
697.3280, 29839.00
698.4820, 29306.00
699.6360, 29046.00
700.7900, 28452.93
701.9440, 28232.00
703.0970, 27240.00
704.2510, 26492.00
705.4040, 25934.00
706.5570, 25552.00
707.7100, 24860.00
708.8630, 24430.00
710.0150, 23925.00
711.1680, 23221.00
712.3200, 22725.00
713.4720, 21840.00
714.6240, 21352.04
715.7760, 20799.38
716.9280, 20319.00
718.0790, 19765.00
719.2310, 19442.00
720.3820, 18837.00
721.5330, 18454.00
722.6840, 18134.00
723.8350, 17680.00
724.9850, 17299.00
726.1360, 16976.00
727.2860, 16582.00
728.4360, 16321.00
729.5860, 16135.00
730.7360, 15909.00
731.8850, 15568.00
733.0350, 15405.36
734.1840, 15108.00
735.3330, 14961.00
736.4820, 14836.00
737.6310, 14571.00
738.7800, 14350.00
739.9280, 14220.00
741.0760, 14207.00
742.2250, 13815.00
743.3730, 13765.00
744.5200, 13850.00
745.6680, 13562.00
746.8160, 13554.00
747.9630, 13487.00
749.1100, 13477.00
750.2570, 13450.00
751.4040, 13195.00
752.5510, 13289.00
753.6980, 13210.00
754.8440, 13249.00
755.9900, 13231.00
757.1360, 13078.00
758.2820, 13029.00
759.4280, 13166.00
760.5740, 13248.00
761.7190, 13150.00
762.8640, 13006.00
764.0100, 13068.00
765.1550, 13124.00
766.2990, 13096.00
767.4440, 13115.00
768.5890, 13091.00
769.7330, 13369.00
770.8770, 13159.00
772.0210, 13023.00
773.1650, 13295.00
774.3090, 13278.00
775.4520, 13158.00
776.5960, 13331.00
777.7390, 13310.00
778.8820, 13316.75
780.0250, 13568.00
781.1670, 13357.00
782.3100, 13408.00
783.4520, 13468.00
784.5950, 13493.00
785.7370, 13429.00
786.8790, 13437.00
788.0210, 13685.00
789.1620, 13664.00
790.3040, 13797.00
791.4450, 13631.00
792.5860, 13744.00
793.7270, 13700.00
794.8680, 13854.00
796.0090, 13742.00
797.1490, 13922.00
798.2890, 13951.00
799.4300, 13839.00
800.5700, 13927.00
801.7090, 13895.00
802.8490, 13894.00
803.9890, 14050.00
805.1280, 14009.00
806.2670, 13929.00
807.4060, 14066.00
808.5450, 14023.00
809.6840, 14040.00
810.8230, 14101.00
811.9610, 13911.00
813.0990, 13839.00
814.2370, 13971.00
815.3750, 13894.00
816.5130, 13870.00
817.6510, 13696.00
818.7880, 13672.00
819.9250, 13583.37
821.0630, 13585.00
822.1990, 13427.00
823.3360, 13418.00
824.4730, 13320.00
825.6090, 13408.00
826.7460, 13339.00
827.8820, 13148.00
829.0180, 13223.00
830.1540, 13048.00
831.2890, 12913.00
832.4250, 13132.00
833.5600, 12849.00
834.6960, 12973.00
835.8310, 12734.00
836.9660, 12701.00
838.1000, 12610.00
839.2350, 12743.00
840.3690, 12564.00
841.5030, 12753.00
842.6380, 12617.00
843.7710, 12747.00
844.9050, 12575.00
846.0390, 12620.00
847.1720, 12551.00
848.3060, 12455.00
849.4390, 12489.00
850.5720, 12463.00
851.7040, 12541.00
852.8370, 12542.75
853.9700, 12385.00
855.1020, 12567.00
856.2340, 12445.00
857.3660, 12395.00
858.4980, 12395.00
859.6300, 12358.00
860.7610, 12306.00
861.8920, 12317.00
863.0240, 12368.00
864.1550, 12347.00
865.2850, 12374.55
866.4160, 12437.00
867.5470, 12413.00
868.6770, 12409.00
869.8070, 12461.00
870.9370, 12424.00
872.0670, 12328.00
873.1970, 12359.00
874.3270, 12329.55
875.4560, 12493.00
876.5850, 12379.00
877.7140, 12378.00
878.8430, 12481.00
879.9720, 12358.00
881.1010, 12362.00
882.2290, 12439.00
883.3570, 12558.00
884.4860, 12526.31
885.6140, 12460.00
886.7410, 12496.00
887.8690, 12529.00
888.9960, 12476.00
890.1240, 12521.00
891.2510, 12404.00
892.3780, 12441.00
893.5050, 12618.00
894.6320, 12514.00
895.7580, 12490.00
896.8840, 12527.00
898.0110, 12361.00
899.1370, 12602.00
900.2620, 12689.00
901.3880, 12576.00
902.5140, 12563.00
903.6390, 12717.00
904.7640, 12769.00
905.8890, 12787.88
907.0140, 12820.81
908.1390, 12815.00
909.2640, 12784.00
910.3880, 12767.00
911.5120, 12737.00
912.6360, 12743.38
913.7600, 12769.00
914.8840, 12822.00
916.0080, 12816.00
917.1310, 12983.00
918.2550, 12839.00
919.3780, 13039.00
920.5010, 12940.00
921.6230, 13069.00
922.7460, 13296.00
923.8690, 13098.00
924.9910, 13178.00
926.1130, 13228.00
927.2350, 13236.00
928.3570, 13340.00
929.4790, 13309.00
930.6000, 13412.00
931.7220, 13586.00
932.8430, 13469.00
933.9640, 13595.00
935.0850, 13558.00
936.2050, 13664.00
937.3260, 13813.00
938.4460, 13952.00
939.5660, 13893.00
940.6870, 14026.00
941.8060, 14068.00
942.9260, 14294.00
944.0460, 14362.00
945.1650, 14590.00
946.2840, 14859.00
947.4040, 14854.00
948.5220, 15123.00
949.6410, 15332.00
950.7600, 15462.00
951.8780, 15808.00
952.9970, 15937.00
954.1150, 16158.00
955.2330, 16775.00
956.3500, 16977.00
957.4680, 17371.00
958.5860, 17847.00
959.7030, 18490.00
960.8200, 18925.00
961.9370, 19826.00
963.0540, 20558.00
964.1710, 21504.00
965.2870, 22669.00
966.4030, 24143.70
967.5200, 25479.00
968.6360, 27844.00
969.7510, 29883.00
970.8670, 32431.00
971.9830, 35764.00
973.0980, 39481.00
974.2130, 43948.00
975.3280, 49032.00
976.4430, 55379.00
977.5580, 61828.00
978.6730, 69044.00
979.7870, 76425.00
980.9010, 84195.00
982.0150, 91341.00
983.1290, 97615.00
984.2430, 101556.0
985.3560, 103592.0
986.4700, 102266.0
987.5830, 98300.00
988.6960, 91927.00
989.8090, 82776.00
990.9220, 73436.00
992.0350, 63641.00
993.1470, 54761.00
994.2590, 46853.00
995.3720, 40587.00
996.4830, 35506.00
997.5950, 31539.00
998.7070, 29664.00
999.8180, 26703.00
1000.930, 25038.00
1002.041, 23809.00
1003.152, 22784.00
1004.263, 22355.00
1005.373, 21797.00
1006.484, 21256.00
1007.594, 21178.00
1008.704, 21054.00
1009.815, 20609.00
1010.924, 20533.00
1012.034, 20619.00
1013.144, 20356.00
1014.253, 20295.00
1015.362, 20307.48
1016.471, 20268.88
1017.580, 20334.00
1018.689, 20360.00
1019.797, 20407.00
1020.906, 20395.00
1022.014, 20570.00
1023.122, 20559.00
1024.230, 20624.00
1025.338, 20583.00
1026.445, 20781.00
1027.553, 20833.00
1028.660, 20787.00
1029.767, 21215.00
1030.874, 21088.00
1031.981, 21462.00
1033.088, 21524.00
1034.194, 21708.00
1035.300, 21872.00
1036.406, 22057.00
1037.512, 22386.00
1038.618, 22686.00
1039.724, 22854.00
1040.829, 22897.00
1041.935, 23276.00
1043.040, 23271.00
1044.145, 23534.00
1045.250, 23673.00
1046.354, 23693.00
1047.459, 23735.00
1048.563, 23890.00
1049.667, 23670.00
1050.771, 23741.00
1051.875, 23454.00
1052.979, 23410.00
1054.082, 23433.00
1055.186, 23020.00
1056.289, 23197.00
1057.392, 22683.00
1058.495, 22521.00
1059.598, 22374.00
1060.700, 22136.02
1061.803, 22087.72
1062.905, 21957.00
1064.007, 21901.00
1065.109, 21968.00
1066.210, 21761.97
1067.312, 21869.78
1068.413, 21852.00
1069.515, 22014.00
1070.616, 21911.00
1071.717, 22052.00
1072.817, 22185.00
1073.918, 21988.00
1075.019, 21842.00
1076.119, 21851.00
1077.219, 21682.00
1078.319, 21502.00
1079.419, 21232.87
1080.518, 20602.00
1081.618, 20488.00
1082.717, 20049.00
1083.816, 19552.00
1084.915, 19283.00
1086.014, 19132.00
1087.113, 18936.00
1088.211, 18564.00
1089.309, 18669.00
1090.408, 18435.00
1091.506, 17979.00
1092.603, 17683.00
1093.701, 17537.00
1094.799, 17394.00
1095.896, 17169.00
1096.993, 16877.00
1098.090, 17002.00
1099.187, 16548.00
1100.284, 16439.00
1101.380, 16401.00
1102.477, 16156.00
1103.573, 16090.00
1104.669, 15917.00
1105.765, 15742.00
1106.860, 15688.00
1107.956, 15419.00
1109.051, 15414.00
1110.147, 15345.00
1111.242, 15394.00
1112.336, 15380.00
1113.431, 15267.00
1114.526, 15356.00
1115.620, 15311.00
1116.714, 15177.00
1117.809, 15121.00
1118.902, 15080.94
1119.996, 15017.57
1121.090, 15028.00
1122.183, 14960.00
1123.277, 14940.91
1124.370, 14928.72
1125.463, 14992.00
1126.555, 14972.00
1127.648, 15091.00
1128.740, 15083.00
1129.833, 14895.00
1130.925, 14708.00
1132.017, 14979.00
1133.109, 14863.00
1134.200, 14924.00
1135.292, 14591.00
1136.383, 14553.00
1137.474, 14572.00
1138.565, 14359.00
1139.656, 14284.00
1140.747, 14223.00
1141.837, 14016.00
1142.927, 13947.00
1144.018, 13802.00
1145.108, 13722.00
1146.197, 13721.00
1147.287, 13600.00
1148.377, 13703.00
1149.466, 13512.00
1150.555, 13526.00
1151.644, 13462.00
1152.733, 13299.00
1153.822, 13481.00
1154.910, 13368.00
1155.999, 13352.00
1157.087, 13159.00
1158.175, 13343.00
1159.263, 13429.00
1160.350, 13243.00
1161.438, 13193.00
1162.525, 13051.00
1163.613, 13316.00
1164.700, 13005.00
1165.787, 13035.00
1166.873, 13341.00
1167.960, 13068.00
1169.046, 13180.00
1170.133, 13161.00
1171.219, 13105.00
1172.305, 13097.00
1173.390, 13036.00
1174.476, 13125.00
1175.561, 13060.00
1176.647, 13129.00
1177.732, 13096.00
1178.817, 13162.00
1179.901, 13168.00
1180.986, 13205.00
1182.070, 13130.00
1183.155, 13181.00
1184.239, 13198.00
1185.323, 13231.00
1186.407, 13228.48
1187.490, 13268.00
1188.574, 13207.00
1189.657, 13152.00
1190.740, 13136.00
1191.823, 13285.00
1192.906, 13270.00
1193.988, 13228.00
1195.071, 13188.00
1196.153, 13394.00
1197.235, 13267.00
1198.317, 13307.00
1199.399, 13339.00
1200.481, 13257.00
1201.562, 13444.00
1202.644, 13317.00
1203.725, 13432.00
1204.806, 13419.00
1205.887, 13604.00
1206.967, 13432.71
1208.048, 13403.00
1209.128, 13161.00
1210.208, 13313.00
1211.289, 13310.00
1212.368, 13207.00
1213.448, 13314.00
1214.528, 13394.00
1215.607, 13201.00
1216.686, 13286.00
1217.765, 13260.00
1218.844, 13208.00
1219.923, 13308.00
1221.001, 13400.00
1222.080, 13355.00
1223.158, 13208.00
1224.236, 13254.00
1225.314, 13297.00
1226.392, 13327.00
1227.469, 13319.00
1228.547, 13333.23
1229.624, 13295.00
1230.701, 13300.00
1231.778, 13275.00
1232.855, 13212.00
1233.931, 13397.00
1235.008, 13361.00
1236.084, 13244.00
1237.160, 13538.00
1238.236, 13470.00
1239.312, 13414.00
1240.387, 13431.00
1241.463, 13435.00
1242.538, 13446.00
1243.613, 13529.00
1244.688, 13434.00
1245.763, 13560.00
1246.837, 13373.00
1247.912, 13530.00
1248.986, 13533.00
1250.060, 13455.00
1251.134, 13680.00
1252.208, 13558.00
1253.282, 13565.00
1254.355, 13721.00
1255.428, 13584.00
1256.501, 13661.00
1257.574, 13767.00
1258.647, 13657.00
1259.720, 13800.00
1260.792, 13833.00
1261.865, 13819.00
1262.937, 13843.00
1264.009, 13769.00
1265.081, 13917.00
1266.152, 13979.00
1267.224, 13879.00
1268.295, 13839.00
1269.366, 13661.00
1270.437, 13848.00
1271.508, 14006.00
1272.579, 14067.00
1273.649, 13844.00
1274.720, 13785.00
1275.790, 13940.00
1276.860, 14137.00
1277.930, 14095.00
1278.999, 14137.00
1280.069, 14199.00
1281.138, 14108.00
1282.208, 14127.00
1283.277, 14141.00
1284.345, 14177.64
1285.414, 14197.71
1286.483, 14298.00
1287.551, 14273.00
1288.619, 14267.00
1289.687, 14345.00
1290.755, 14199.00
1291.823, 14498.00
1292.890, 14478.00
1293.958, 14317.00
1295.025, 14584.00
1296.092, 14480.00
1297.159, 14528.00
1298.226, 14510.00
1299.292, 14704.00
1300.359, 14666.00
1301.425, 14746.00
1302.491, 14782.00
1303.557, 14836.00
1304.623, 14829.00
1305.688, 14833.00
1306.754, 14762.00
1307.819, 14939.00
1308.884, 14986.00
1309.949, 14962.00
1311.014, 14949.00
1312.078, 14970.00
1313.143, 14899.00
1314.207, 15037.00
1315.271, 15144.00
1316.335, 15039.00
1317.399, 15114.00
1318.462, 14992.00
1319.526, 15045.00
1320.589, 15008.00
1321.652, 15169.00
1322.715, 15024.00
1323.778, 15066.00
1324.841, 15030.00
1325.903, 14952.00
1326.965, 15102.00
1328.027, 14874.00
1329.089, 14925.00
1330.151, 14750.00
1331.213, 14843.00
1332.274, 14825.00
1333.336, 14969.00
1334.397, 14752.00
1335.458, 14835.00
1336.518, 14951.00
1337.579, 14861.00
1338.640, 14659.00
1339.700, 14703.00
1340.760, 14706.00
1341.820, 14459.00
1342.880, 14529.00
1343.939, 14588.00
1344.999, 14482.00
1346.058, 14473.00
1347.117, 14371.00
1348.176, 14252.00
1349.235, 14541.00
1350.294, 14481.00
1351.352, 14359.00
1352.411, 14322.00
1353.469, 14216.00
1354.527, 14226.00
1355.585, 14220.00
1356.642, 14252.00
1357.700, 14232.00
1358.757, 14228.00
1359.815, 14262.00
1360.872, 14103.00
1361.928, 13974.00
1362.985, 14178.00
1364.042, 14095.00
1365.098, 14131.00
1366.154, 14080.00
1367.210, 14106.00
1368.266, 14103.00
1369.322, 13990.00
1370.377, 14003.00
1371.433, 14006.00
1372.488, 13890.00
1373.543, 14068.00
1374.598, 13726.00
1375.652, 13735.00
1376.707, 13827.00
1377.761, 13738.00
1378.816, 13882.00
1379.870, 13848.00
1380.924, 13779.00
1381.977, 13806.00
1383.031, 13696.00
1384.084, 13660.00
1385.137, 13726.00
1386.190, 13508.00
1387.243, 13545.00
1388.296, 13625.00
1389.349, 13708.00
1390.401, 13610.00
1391.453, 13635.00
1392.505, 13543.00
1393.557, 13428.00
1394.609, 13400.00
1395.661, 13356.13
1396.712, 13316.06
1397.763, 13418.00
1398.814, 13246.00
1399.865, 13440.00
1400.916, 13352.00
1401.967, 13375.00
1403.017, 13378.00
1404.067, 13266.00
1405.117, 13299.00
1406.167, 13257.00
1407.217, 13245.07
1408.267, 13179.00
1409.316, 13251.00
1410.365, 13231.00
1411.414, 13232.00
1412.463, 13115.00
1413.512, 13040.00
1414.561, 13087.00
1415.609, 13204.00
1416.657, 13125.00
1417.706, 13134.00
1418.754, 13119.00
1419.801, 13060.00
1420.849, 13159.00
1421.896, 13028.00
1422.944, 13056.00
1423.991, 12917.00
1425.038, 12968.00
1426.085, 13079.00
1427.131, 12825.00
1428.178, 12964.00
1429.224, 12877.00
1430.270, 12908.00
1431.316, 12754.22
1432.362, 12851.20
1433.407, 12901.24
1434.453, 12906.86
1435.498, 12735.04
1436.543, 12792.36
1437.588, 12757.85
1438.633, 12719.58
1439.678, 12809.15
1440.722, 12663.15
1441.767, 12750.69
1442.811, 12745.01
1443.855, 12782.00
1444.898, 12726.61
1445.942, 12699.74
1446.986, 12765.30
1448.029, 12779.69
1449.072, 12713.66
1450.115, 12753.38
1451.158, 12604.16
1452.201, 12620.73
1453.243, 12708.84
1454.285, 12647.47
1455.327, 12688.88
1456.369, 12691.15
1457.411, 12515.50
1458.453, 12649.26
1459.494, 12649.22
1460.536, 12511.78
1461.577, 12634.95
1462.618, 12516.46
1463.659, 12484.23
1464.700, 12516.91
1465.740, 12481.93
1466.780, 12553.64
1467.821, 12430.00
1468.861, 12580.00
1469.900, 12614.00
1470.940, 12544.00
1471.980, 12465.00
1473.019, 12508.91
1474.058, 12471.13
1475.097, 12554.00
1476.136, 12503.00
1477.175, 12529.00
1478.213, 12572.00
1479.252, 12577.00
1480.290, 12539.00
1481.328, 12582.00
1482.366, 12568.57
1483.403, 12490.00
1484.441, 12575.00
1485.478, 12543.00
1486.515, 12534.00
1487.552, 12435.00
1488.589, 12481.00
1489.626, 12455.00
1490.663, 12541.00
1491.699, 12582.30
1492.735, 12519.00
1493.771, 12626.43
1494.807, 12558.00
1495.843, 12375.00
1496.878, 12454.00
1497.914, 12386.00
1498.949, 12646.00
1499.984, 12585.00
1501.019, 12494.00
1502.054, 12349.00
1503.088, 12338.00
1504.122, 12525.00
1505.157, 12411.36
1506.191, 12517.21
1507.225, 12576.12
1508.258, 12590.62
1509.292, 12427.66
1510.325, 12493.84
1511.359, 12468.19
1512.392, 12438.78
1513.424, 12537.22
1514.457, 12400.07
1515.490, 12496.48
1516.522, 12499.66
1517.554, 12545.50
1518.586, 12498.95
1519.618, 12480.94
1520.650, 12555.36
1521.682, 12578.59
1522.713, 12521.41
1523.744, 12569.97
1524.775, 12552.00
1525.806, 12598.00
1526.837, 12590.00
1527.868, 12572.00
1528.898, 12649.00
1529.928, 12503.00
1530.958, 12386.00
1531.988, 12539.00
1533.018, 12541.00
1534.048, 12440.00
1535.077, 12455.00
1536.106, 12481.00
1537.135, 12428.00
1538.164, 12364.30
1539.193, 12476.27
1540.222, 12541.30
1541.250, 12561.91
1542.278, 12405.07
1543.306, 12477.38
1544.334, 12457.85
1545.362, 12434.55
1546.390, 12539.11
1547.417, 12408.07
1548.444, 12510.59
1549.471, 12519.88
1550.498, 12571.84
1551.525, 12531.40
1552.552, 12519.50
1553.578, 12600.03
1554.604, 12629.37
1555.630, 12578.29
1556.656, 12632.96
1557.682, 12498.69
1558.708, 12530.22
1559.733, 12633.27
1560.758, 12586.83
1561.784, 12643.19
1562.808, 12660.39
1563.833, 12499.68
1564.858, 12648.38
1565.882, 12663.26
1566.907, 12540.76
1567.931, 12678.85
1568.955, 12575.29
1569.978, 12557.98
1571.002, 12605.58
1572.025, 12585.51
1573.049, 12672.14
1574.072, 12655.98
1575.095, 12630.63
1576.118, 12645.36
1577.140, 12546.53
1578.163, 12658.38
1579.185, 12644.00
##END=



