##NAMES=Triplite
##RRUFFID=R050226
##IDEAL CHEMISTRY=Mn^2+^_2_(PO_4_)F
##LOCALITY=Fremont County, Colorado, USA
##OWNER=RRUFF
##SOURCE=Marcus Origlieri
##DESCRIPTION=Reddish brown massive
##STATUS=The identification of this mineral has been confirmed by X-ray diffraction and chemical analysis
##URL=rruff.info/R050226
##MEASURED CHEMISTRY=(Mn^2+^_1.20_Mg_0.49_Fe^2+^_0.27_Ca_0.04_)_Σ=2_(P_1.00_O_4_)(F_0.95_(OH)_0.05_)_Σ=1_
##PIN_ID=L00312
##ORIENTATION=Laser parallel to (1 0 1). Fiducial mark perpendicular to laser is parallel to b [0 1 0]
129.2090, 10907.00
130.4390, 10989.00
131.6680, 11192.00
132.8980, 11272.00
134.1270, 11273.00
135.3560, 11022.00
136.5850, 10843.00
137.8140, 11021.00
139.0430, 11121.00
140.2710, 11463.00
141.5000, 11323.52
142.7280, 11474.00
143.9560, 11155.00
145.1840, 10908.00
146.4120, 10906.00
147.6390, 11129.00
148.8670, 10991.00
150.0940, 11046.00
151.3210, 11170.00
152.5490, 11162.09
153.7750, 11095.62
155.0020, 11084.18
156.2290, 10815.00
157.4550, 10897.00
158.6810, 10671.00
159.9080, 10496.00
161.1340, 10434.00
162.3590, 10189.00
163.5850, 10483.00
164.8110, 10894.00
166.0360, 11306.00
167.2610, 11247.00
168.4860, 10945.00
169.7110, 10553.00
170.9360, 10834.00
172.1610, 11019.00
173.3850, 10796.00
174.6100, 10631.00
175.8340, 10392.00
177.0580, 10584.00
178.2820, 10629.00
179.5050, 10574.00
180.7290, 10699.00
181.9520, 10430.00
183.1760, 10490.00
184.3990, 10387.00
185.6220, 10418.00
186.8450, 10668.00
188.0670, 10807.00
189.2900, 10744.00
190.5120, 10825.00
191.7340, 10698.00
192.9560, 10959.00
194.1780, 10950.00
195.4000, 10924.00
196.6220, 11039.00
197.8430, 11139.00
199.0640, 11181.00
200.2860, 11164.00
201.5070, 11363.00
202.7270, 11645.00
203.9480, 11719.00
205.1690, 11353.00
206.3890, 10972.00
207.6090, 10755.38
208.8290, 10473.76
210.0490, 10180.00
211.2690, 10211.00
212.4890, 10222.00
213.7080, 10460.00
214.9280, 10682.00
216.1470, 10491.00
217.3660, 10041.00
218.5850, 10066.00
219.8030, 10239.00
221.0220, 10171.00
222.2400, 10145.00
223.4590, 10242.00
224.6770, 10158.00
225.8950, 10352.00
227.1120, 10339.00
228.3300, 10285.00
229.5480, 10026.00
230.7650, 10049.00
231.9820, 10081.00
233.1990, 10182.00
234.4160, 10117.00
235.6330, 10157.03
236.8490, 10151.00
238.0660, 10158.00
239.2820, 10214.00
240.4980, 10248.00
241.7140, 10279.00
242.9300, 10229.00
244.1460, 10194.00
245.3610, 10273.74
246.5770, 10330.00
247.7920, 10346.00
249.0070, 10446.00
250.2220, 10319.00
251.4370, 10295.06
252.6510, 10442.13
253.8660, 10526.98
255.0800, 10552.95
256.2940, 10343.67
257.5080, 10438.16
258.7220, 10410.91
259.9360, 10378.67
261.1490, 10515.91
262.3630, 10340.84
263.5760, 10475.39
264.7890, 10486.35
266.0020, 10553.87
267.2150, 10498.91
268.4270, 10481.77
269.6400, 10587.17
270.8520, 10624.71
272.0640, 10307.00
273.2760, 10468.00
274.4880, 10421.00
275.7000, 10595.00
276.9120, 10677.00
278.1230, 10819.00
279.3340, 10635.00
280.5450, 10517.00
281.7560, 10362.00
282.9670, 10393.00
284.1780, 10555.00
285.3880, 10483.00
286.5980, 10480.00
287.8090, 10540.00
289.0190, 10566.00
290.2290, 10512.00
291.4380, 10599.00
292.6480, 10704.00
293.8570, 10569.00
295.0670, 10697.00
296.2760, 10765.00
297.4850, 10818.00
298.6930, 10653.00
299.9020, 10759.00
301.1110, 10647.00
302.3190, 10630.00
303.5270, 10633.00
304.7350, 10620.00
305.9430, 10615.00
307.1510, 10631.67
308.3580, 10556.00
309.5660, 10683.00
310.7730, 10746.00
311.9800, 10808.00
313.1870, 10625.00
314.3940, 10581.00
315.6010, 10666.00
316.8070, 10541.00
318.0130, 10557.00
319.2200, 10617.00
320.4260, 10716.00
321.6310, 10659.00
322.8370, 10676.00
324.0430, 10524.00
325.2480, 10541.00
326.4540, 10601.00
327.6590, 10689.00
328.8640, 10600.00
330.0680, 10699.00
331.2730, 10627.00
332.4780, 10737.00
333.6820, 10806.00
334.8860, 10705.00
336.0900, 10580.00
337.2940, 10737.00
338.4980, 10595.00
339.7010, 10723.00
340.9050, 10565.00
342.1080, 10765.00
343.3110, 10603.00
344.5140, 10582.00
345.7170, 10714.00
346.9200, 10681.00
348.1220, 10612.00
349.3240, 10616.00
350.5270, 10539.00
351.7290, 10672.00
352.9310, 10761.00
354.1320, 10721.00
355.3340, 10781.00
356.5350, 10664.00
357.7370, 10660.00
358.9380, 10763.00
360.1390, 10671.00
361.3400, 10753.00
362.5400, 10750.00
363.7410, 10774.00
364.9410, 10871.00
366.1410, 10696.00
367.3410, 10768.00
368.5410, 10796.00
369.7410, 10842.00
370.9400, 10868.70
372.1400, 10797.00
373.3390, 10866.00
374.5380, 10926.00
375.7370, 10843.00
376.9360, 10788.00
378.1350, 10883.00
379.3330, 11010.00
380.5310, 10974.00
381.7300, 11014.00
382.9280, 10873.00
384.1260, 11103.00
385.3230, 10980.00
386.5210, 11005.00
387.7180, 11093.00
388.9160, 11106.00
390.1130, 11215.00
391.3100, 11178.00
392.5060, 11318.00
393.7030, 11235.00
394.9000, 11274.00
396.0960, 11274.00
397.2920, 11276.00
398.4880, 11422.00
399.6840, 11468.00
400.8800, 11451.00
402.0750, 11404.00
403.2710, 11565.00
404.4660, 11636.25
405.6610, 11778.00
406.8560, 11772.00
408.0510, 11845.82
409.2450, 11917.00
410.4400, 11888.00
411.6340, 12022.00
412.8280, 11996.00
414.0220, 12258.00
415.2160, 12261.00
416.4100, 12346.00
417.6030, 12448.00
418.7970, 12576.00
419.9900, 12943.00
421.1830, 13132.00
422.3760, 13321.00
423.5690, 13641.00
424.7610, 13779.00
425.9540, 14019.00
427.1460, 14144.00
428.3380, 14102.00
429.5300, 14028.00
430.7220, 13843.00
431.9140, 13622.00
433.1050, 13581.00
434.2970, 13480.00
435.4880, 13318.00
436.6790, 13221.00
437.8700, 13043.00
439.0610, 12939.64
440.2510, 12844.00
441.4420, 12733.00
442.6320, 12665.00
443.8220, 12604.58
445.0120, 12558.00
446.2020, 12604.00
447.3910, 12693.00
448.5810, 12746.00
449.7700, 12885.00
450.9600, 12958.00
452.1490, 12866.00
453.3370, 13025.00
454.5260, 12959.00
455.7150, 13050.00
456.9030, 13233.00
458.0910, 13039.00
459.2800, 13152.00
460.4670, 13102.00
461.6550, 13090.00
462.8430, 13056.00
464.0300, 12871.00
465.2180, 12881.00
466.4050, 12708.00
467.5920, 12749.00
468.7790, 12634.00
469.9650, 12665.00
471.1520, 12460.00
472.3380, 12566.00
473.5250, 12554.00
474.7110, 12821.00
475.8970, 12644.12
477.0820, 12607.00
478.2680, 12382.00
479.4540, 12440.00
480.6390, 12337.00
481.8240, 12385.12
483.0090, 12399.18
484.1940, 12482.00
485.3780, 12477.00
486.5630, 12376.00
487.7470, 12437.00
488.9320, 12551.00
490.1160, 12322.00
491.3000, 12421.00
492.4830, 12527.00
493.6670, 12504.00
494.8500, 12542.00
496.0340, 12547.00
497.2170, 12527.30
498.4000, 12629.00
499.5820, 12473.00
500.7650, 12544.00
501.9480, 12489.00
503.1300, 12688.00
504.3120, 12550.00
505.4940, 12658.00
506.6760, 12598.00
507.8580, 12714.00
509.0390, 12615.00
510.2210, 12598.00
511.4020, 12647.18
512.5830, 12603.00
513.7640, 12703.00
514.9450, 12748.00
516.1250, 12783.00
517.3060, 12670.00
518.4860, 12832.00
519.6660, 12607.00
520.8460, 12851.00
522.0260, 12625.00
523.2060, 12718.00
524.3850, 12756.05
525.5650, 12741.00
526.7440, 12754.00
527.9230, 12812.00
529.1020, 12668.00
530.2810, 12885.00
531.4590, 12749.00
532.6380, 12850.00
533.8160, 13013.00
534.9940, 12877.00
536.1720, 12866.00
537.3500, 13054.00
538.5270, 13005.00
539.7050, 13060.00
540.8820, 12997.00
542.0590, 13028.00
543.2360, 13030.56
544.4130, 13113.00
545.5900, 13055.00
546.7660, 13079.00
547.9430, 13118.00
549.1190, 13240.00
550.2950, 13178.00
551.4710, 13283.00
552.6470, 13166.00
553.8220, 13412.00
554.9980, 13316.00
556.1730, 13295.00
557.3480, 13489.00
558.5230, 13351.00
559.6980, 13477.00
560.8730, 13490.00
562.0470, 13488.00
563.2220, 13517.00
564.3960, 13600.00
565.5700, 13533.00
566.7440, 13609.00
567.9170, 13631.00
569.0910, 13815.00
570.2640, 13893.00
571.4380, 13919.00
572.6110, 13990.00
573.7840, 14056.03
574.9570, 14134.34
576.1290, 14199.00
577.3020, 14316.00
578.4740, 14396.00
579.6460, 14479.00
580.8180, 14512.82
581.9900, 14549.51
583.1620, 14554.00
584.3330, 14606.00
585.5040, 14646.00
586.6760, 14739.00
587.8470, 14704.00
589.0180, 14965.00
590.1880, 15024.00
591.3590, 15216.00
592.5290, 15489.00
593.7000, 15495.00
594.8700, 15851.00
596.0400, 16315.00
597.2090, 16447.00
598.3790, 16767.00
599.5490, 17088.00
600.7180, 17346.00
601.8870, 17607.00
603.0560, 17554.00
604.2250, 17650.93
605.3940, 17583.32
606.5620, 17651.00
607.7300, 17265.00
608.8990, 17403.00
610.0670, 17092.00
611.2350, 17005.00
612.4020, 17039.00
613.5700, 16754.00
614.7370, 16849.00
615.9050, 16625.00
617.0720, 16605.00
618.2390, 16536.00
619.4060, 16376.00
620.5720, 16298.00
621.7390, 16276.00
622.9050, 16067.00
624.0710, 16014.00
625.2370, 15725.00
626.4030, 15753.00
627.5690, 15677.00
628.7340, 15621.00
629.9000, 15778.00
631.0650, 15387.00
632.2300, 15571.00
633.3950, 15457.00
634.5600, 15532.00
635.7240, 15564.00
636.8890, 15340.00
638.0530, 15337.00
639.2170, 15486.00
640.3810, 15424.00
641.5450, 15343.00
642.7080, 15433.00
643.8720, 15434.00
645.0350, 15416.06
646.1980, 15439.00
647.3610, 15409.00
648.5240, 15406.00
649.6870, 15420.00
650.8490, 15582.00
652.0120, 15557.00
653.1740, 15450.00
654.3360, 15614.00
655.4980, 15580.00
656.6600, 15508.00
657.8210, 15608.00
658.9830, 15666.00
660.1440, 15685.00
661.3050, 15586.00
662.4660, 15547.00
663.6270, 15496.00
664.7870, 15581.00
665.9480, 15532.00
667.1080, 15565.00
668.2680, 15443.00
669.4280, 15466.00
670.5880, 15478.00
671.7480, 15466.00
672.9070, 15551.00
674.0670, 15473.00
675.2260, 15448.00
676.3850, 15446.00
677.5440, 15655.00
678.7030, 15430.00
679.8610, 15496.00
681.0200, 15546.00
682.1780, 15321.00
683.3360, 15419.00
684.4940, 15565.00
685.6520, 15504.00
686.8090, 15526.00
687.9670, 15572.00
689.1240, 15518.28
690.2810, 15569.49
691.4380, 15528.00
692.5950, 15534.00
693.7520, 15677.00
694.9080, 15495.00
696.0650, 15583.00
697.2210, 15708.00
698.3770, 15606.00
699.5330, 15730.00
700.6880, 15703.00
701.8440, 15545.00
702.9990, 15680.00
704.1550, 15588.65
705.3100, 15545.00
706.4650, 15600.00
707.6190, 15704.00
708.7740, 15822.00
709.9290, 15851.00
711.0830, 15866.00
712.2370, 15635.00
713.3910, 15795.00
714.5450, 15559.00
715.6980, 15763.00
716.8520, 15796.00
718.0050, 15692.00
719.1580, 15773.00
720.3110, 15870.00
721.4640, 15715.00
722.6170, 15853.00
723.7700, 15827.00
724.9220, 15721.00
726.0740, 15768.00
727.2260, 15713.00
728.3780, 15750.00
729.5300, 15819.00
730.6810, 15823.00
731.8330, 15868.00
732.9840, 15821.00
734.1350, 15781.00
735.2860, 15816.55
736.4370, 15980.00
737.5880, 15868.00
738.7380, 15873.00
739.8880, 15931.00
741.0390, 15865.00
742.1890, 16044.00
743.3380, 16062.00
744.4880, 16188.00
745.6380, 16069.00
746.7870, 16167.00
747.9360, 16209.00
749.0850, 16234.00
750.2340, 16259.00
751.3830, 16355.00
752.5310, 16296.24
753.6800, 16358.00
754.8280, 16212.00
755.9760, 16311.00
757.1240, 16285.00
758.2720, 16446.00
759.4190, 16417.00
760.5670, 16416.00
761.7140, 16589.00
762.8610, 16674.00
764.0080, 16625.00
765.1550, 16850.00
766.3020, 16657.00
767.4480, 16593.00
768.5950, 16790.00
769.7410, 16863.00
770.8870, 16773.00
772.0330, 16805.00
773.1780, 16840.00
774.3240, 16842.38
775.4690, 16868.00
776.6140, 16933.00
777.7590, 16958.00
778.9040, 17023.00
780.0490, 16943.00
781.1940, 16958.00
782.3380, 17093.00
783.4820, 17023.00
784.6260, 17119.00
785.7700, 17140.00
786.9140, 17106.00
788.0580, 17216.00
789.2010, 17165.00
790.3450, 17091.00
791.4880, 17187.00
792.6310, 17228.00
793.7730, 17291.00
794.9160, 17299.00
796.0590, 17223.00
797.2010, 17303.00
798.3430, 17411.00
799.4850, 17295.00
800.6270, 17316.00
801.7690, 17411.00
802.9100, 17260.00
804.0520, 17535.00
805.1930, 17597.00
806.3340, 17553.83
807.4750, 17713.30
808.6160, 17474.00
809.7560, 17799.00
810.8970, 17704.00
812.0370, 17652.00
813.1770, 17720.00
814.3170, 17813.00
815.4570, 17640.00
816.5960, 17750.00
817.7360, 17882.00
818.8750, 17840.00
820.0140, 17813.00
821.1530, 17863.00
822.2920, 17759.00
823.4310, 17876.00
824.5690, 17814.00
825.7070, 17647.00
826.8460, 17971.00
827.9840, 18115.00
829.1220, 18000.00
830.2590, 18155.00
831.3970, 17882.00
832.5340, 18087.00
833.6710, 18088.00
834.8080, 18071.00
835.9450, 18237.00
837.0820, 18042.00
838.2190, 18093.00
839.3550, 18088.00
840.4910, 18259.00
841.6270, 18352.00
842.7630, 18293.00
843.8990, 18271.00
845.0350, 18204.00
846.1700, 18362.00
847.3060, 18382.00
848.4410, 18337.00
849.5760, 18626.00
850.7100, 18612.00
851.8450, 18539.00
852.9800, 18542.00
854.1140, 18514.00
855.2480, 18490.00
856.3820, 18879.00
857.5160, 18677.00
858.6500, 18770.00
859.7830, 18823.00
860.9170, 18685.00
862.0500, 18558.00
863.1830, 18940.00
864.3160, 18938.00
865.4480, 18973.00
866.5810, 18815.00
867.7130, 19015.00
868.8460, 18970.00
869.9780, 19044.00
871.1100, 19051.00
872.2410, 19126.00
873.3730, 19171.00
874.5050, 19086.00
875.6360, 19208.00
876.7670, 19331.00
877.8980, 19224.00
879.0290, 19530.00
880.1590, 19412.00
881.2900, 19430.00
882.4200, 19586.00
883.5500, 19597.00
884.6800, 19342.00
885.8100, 19549.00
886.9400, 19370.00
888.0690, 19527.00
889.1990, 19856.00
890.3280, 19728.00
891.4570, 19671.00
892.5860, 19797.00
893.7140, 19660.00
894.8430, 19837.00
895.9710, 20087.00
897.1000, 19696.00
898.2280, 19957.00
899.3560, 20044.00
900.4830, 19988.00
901.6110, 20076.00
902.7380, 20268.00
903.8660, 20144.00
904.9930, 20210.00
906.1200, 20541.00
907.2460, 20367.59
908.3730, 20424.00
909.5000, 20352.00
910.6260, 20333.00
911.7520, 20475.00
912.8780, 20447.06
914.0040, 20594.00
915.1290, 20571.00
916.2550, 20560.00
917.3800, 20676.00
918.5050, 20678.27
919.6300, 20779.23
920.7550, 20786.00
921.8800, 20874.00
923.0040, 20926.00
924.1290, 20982.17
925.2530, 21037.00
926.3770, 21066.00
927.5010, 21093.24
928.6250, 21159.00
929.7480, 21141.00
930.8720, 21138.00
931.9950, 21203.83
933.1180, 21351.00
934.2410, 21409.00
935.3640, 21499.00
936.4860, 21638.00
937.6090, 21670.00
938.7310, 21864.00
939.8530, 21776.00
940.9750, 21982.00
942.0970, 21955.00
943.2180, 21910.00
944.3400, 21983.00
945.4610, 22347.00
946.5820, 22413.00
947.7030, 22469.00
948.8240, 22634.00
949.9450, 22541.00
951.0650, 22661.00
952.1860, 22828.00
953.3060, 22973.00
954.4260, 23251.00
955.5460, 23328.00
956.6650, 23424.00
957.7850, 23792.00
958.9040, 23806.00
960.0230, 24256.00
961.1420, 24557.00
962.2610, 24893.00
963.3800, 25264.00
964.4990, 25869.00
965.6170, 26232.00
966.7350, 26799.00
967.8530, 27416.00
968.9710, 27957.00
970.0890, 29013.00
971.2070, 29981.00
972.3240, 30918.00
973.4410, 32807.00
974.5580, 34207.00
975.6750, 36274.00
976.7920, 38620.00
977.9090, 41251.00
979.0250, 43653.00
980.1410, 46980.00
981.2580, 49514.00
982.3740, 52431.00
983.4890, 55752.00
984.6050, 56555.00
985.7200, 57678.00
986.8360, 57325.00
987.9510, 54522.00
989.0660, 51825.00
990.1810, 47736.00
991.2950, 43399.00
992.4100, 39669.00
993.5240, 36708.42
994.6390, 34114.63
995.7530, 31840.00
996.8660, 30618.00
997.9800, 29204.00
999.0940, 28421.00
1000.207, 28073.00
1001.320, 27508.00
1002.433, 27377.00
1003.546, 27149.00
1004.659, 26601.00
1005.772, 26686.00
1006.884, 26595.00
1007.996, 26474.00
1009.108, 26435.00
1010.220, 26485.00
1011.332, 26215.00
1012.444, 26581.00
1013.555, 26347.00
1014.666, 26059.00
1015.777, 26370.00
1016.888, 26316.00
1017.999, 26216.00
1019.110, 26703.00
1020.220, 26315.00
1021.331, 26348.00
1022.441, 26289.00
1023.551, 26726.00
1024.661, 26619.00
1025.770, 26823.00
1026.880, 26760.00
1027.989, 26699.00
1029.098, 26985.00
1030.207, 27033.00
1031.316, 26982.00
1032.425, 27336.00
1033.533, 27176.00
1034.642, 27485.00
1035.750, 27712.00
1036.858, 27609.00
1037.966, 27604.00
1039.073, 27795.00
1040.181, 27700.00
1041.288, 27874.53
1042.396, 28098.00
1043.503, 28116.00
1044.610, 28110.00
1045.716, 28171.00
1046.823, 28210.78
1047.929, 28074.00
1049.036, 28310.00
1050.142, 28172.00
1051.248, 28150.00
1052.353, 27951.00
1053.459, 27895.00
1054.564, 27998.00
1055.670, 27705.00
1056.775, 27615.00
1057.880, 27773.00
1058.985, 27636.00
1060.089, 27485.00
1061.194, 27589.00
1062.298, 27665.00
1063.402, 27569.00
1064.506, 27704.00
1065.610, 27511.00
1066.713, 27788.00
1067.817, 27850.00
1068.920, 27892.00
1070.023, 28057.00
1071.126, 28389.00
1072.229, 28556.00
1073.332, 28609.00
1074.435, 28950.00
1075.537, 28904.00
1076.639, 29088.00
1077.741, 29105.00
1078.843, 29110.00
1079.945, 28556.00
1081.046, 28862.00
1082.148, 28379.00
1083.249, 28371.00
1084.350, 28266.00
1085.451, 28230.00
1086.551, 28121.00
1087.652, 27986.00
1088.752, 27936.00
1089.853, 27942.00
1090.953, 27851.28
1092.053, 27717.00
1093.152, 27750.00
1094.252, 27858.00
1095.351, 27804.00
1096.451, 27714.00
1097.550, 27643.00
1098.649, 27748.00
1099.748, 27533.00
1100.846, 27579.00
1101.945, 27852.00
1103.043, 27579.00
1104.141, 27809.00
1105.239, 27627.00
1106.337, 27526.00
1107.434, 27792.00
1108.532, 27750.00
1109.629, 27679.00
1110.726, 27913.00
1111.823, 27876.00
1112.920, 27715.00
1114.017, 27848.00
1115.113, 28082.00
1116.210, 27806.00
1117.306, 28046.00
1118.402, 28431.00
1119.498, 28123.00
1120.593, 28508.00
1121.689, 28493.00
1122.784, 28650.00
1123.879, 28762.00
1124.974, 28959.00
1126.069, 28935.00
1127.164, 29062.00
1128.259, 29444.00
1129.353, 29296.00
1130.447, 29511.00
1131.541, 29362.00
1132.635, 29678.00
1133.729, 29985.00
1134.822, 29871.00
1135.916, 29774.00
1137.009, 29709.00
1138.102, 29385.00
1139.195, 29309.00
1140.288, 29321.00
1141.380, 28917.00
1142.473, 28530.00
1143.565, 28759.00
1144.657, 28451.00
1145.749, 28355.00
1146.841, 28611.00
1147.932, 28217.00
1149.024, 28460.00
1150.115, 28302.00
1151.206, 28221.00
1152.297, 28381.00
1153.388, 28415.00
1154.479, 28238.00
1155.569, 28305.00
1156.659, 28404.00
1157.750, 28144.00
1158.839, 28193.00
1159.929, 28397.00
1161.019, 28261.00
1162.108, 28526.00
1163.198, 28384.00
1164.287, 28293.00
1165.376, 28652.00
1166.465, 28616.00
1167.553, 28405.00
1168.642, 28598.00
1169.730, 28626.00
1170.818, 28860.00
1171.906, 28870.00
1172.994, 28823.00
1174.082, 28939.45
1175.170, 28600.00
1176.257, 28988.00
1177.344, 28917.00
1178.431, 28890.00
1179.518, 29143.00
1180.605, 29004.53
1181.691, 29422.00
1182.778, 29007.00
1183.864, 28874.00
1184.950, 29019.00
1186.036, 29317.00
1187.122, 29049.00
1188.207, 29082.00
1189.292, 29355.00
1190.378, 29243.00
1191.463, 29336.46
1192.548, 29382.00
1193.632, 29288.00
1194.717, 29503.00
1195.801, 29357.00
1196.886, 29191.00
1197.970, 29361.00
1199.054, 29781.00
1200.137, 29529.00
1201.221, 29778.00
1202.305, 29848.00
1203.388, 29707.00
1204.471, 29794.91
1205.554, 29690.00
1206.637, 29689.00
1207.719, 29844.00
1208.802, 29785.00
1209.884, 29898.00
1210.966, 29888.00
1212.048, 30137.00
1213.130, 30077.00
1214.212, 30030.00
1215.293, 29991.00
1216.374, 29929.00
1217.456, 29953.00
1218.536, 30296.00
1219.617, 30139.00
1220.698, 30274.00
1221.778, 30314.00
1222.859, 30230.00
1223.939, 30309.00
1225.019, 30417.00
1226.099, 30386.00
1227.178, 30329.00
1228.258, 30628.00
1229.337, 30216.00
1230.417, 30836.00
1231.496, 30645.26
1232.574, 30548.00
1233.653, 30601.00
1234.732, 30767.00
1235.810, 30742.00
1236.888, 30521.00
1237.966, 31025.00
1239.044, 31079.00
1240.122, 30764.00
1241.199, 30969.00
1242.277, 30826.00
1243.354, 31104.00
1244.431, 31068.00
1245.508, 31042.00
1246.585, 31281.00
1247.661, 31222.00
1248.738, 31168.00
1249.814, 31324.00
1250.890, 31289.67
1251.966, 31319.00
1253.042, 31380.00
1254.117, 31393.00
1255.193, 31425.00
1256.268, 31350.00
1257.343, 31627.00
1258.418, 31528.00
1259.493, 31523.00
1260.567, 31906.00
1261.642, 31597.00
1262.716, 31911.00
1263.790, 32120.00
1264.864, 31894.00
1265.938, 31919.00
1267.011, 31982.00
1268.085, 32162.00
1269.158, 32167.40
1270.231, 32248.24
1271.304, 32235.00
1272.377, 32314.00
1273.450, 32263.00
1274.522, 32246.00
1275.594, 32277.00
1276.666, 32434.00
1277.738, 32455.00
1278.810, 32511.00
1279.882, 32467.00
1280.953, 32707.00
1282.025, 32464.00
1283.096, 32634.00
1284.167, 32354.00
1285.238, 32597.00
1286.308, 32824.00
1287.379, 32843.00
1288.449, 32849.00
1289.519, 32970.00
1290.589, 32982.09
1291.659, 32653.00
1292.729, 33056.00
1293.798, 32913.00
1294.868, 32873.00
1295.937, 33226.00
1297.006, 33234.00
1298.075, 33277.00
1299.143, 33481.00
1300.212, 33446.00
1301.280, 33458.00
1302.348, 33564.00
1303.416, 33466.00
1304.484, 33370.00
1305.552, 33664.00
1306.620, 33457.00
1307.687, 33454.00
1308.754, 33726.00
1309.821, 33959.00
1310.888, 33898.00
1311.955, 33925.00
1313.021, 34134.00
1314.088, 34078.00
1315.154, 34076.00
1316.220, 34123.00
1317.286, 34091.00
1318.352, 34058.00
1319.417, 34460.00
1320.483, 34460.00
1321.548, 34267.00
1322.613, 34552.00
1323.678, 34396.00
1324.743, 34550.00
1325.807, 34373.00
1326.872, 34567.00
1327.936, 34601.00
1329.000, 34711.00
1330.064, 34713.00
1331.128, 34779.87
1332.191, 34903.00
1333.255, 34842.49
1334.318, 34890.00
1335.381, 34855.00
1336.444, 34913.00
1337.507, 34814.00
1338.569, 34895.68
1339.632, 35103.00
1340.694, 35012.00
1341.756, 35122.00
1342.818, 35187.00
1343.880, 35123.00
1344.941, 35100.00
1346.003, 35189.00
1347.064, 35006.00
1348.125, 35225.00
1349.186, 35439.00
1350.247, 35205.00
1351.308, 35664.00
1352.368, 35468.00
1353.428, 35366.00
1354.489, 35886.00
1355.549, 35448.00
1356.608, 35468.00
1357.668, 35513.00
1358.727, 35758.00
1359.787, 35755.00
1360.846, 35822.28
1361.905, 35825.00
1362.964, 35809.00
1364.022, 35893.00
1365.081, 35779.00
1366.139, 35874.00
1367.197, 35998.00
1368.255, 36102.00
1369.313, 35822.00
1370.371, 35744.00
1371.428, 36124.00
1372.486, 36041.00
1373.543, 36242.00
1374.600, 36143.00
1375.657, 36284.00
1376.713, 36210.00
1377.770, 36499.00
1378.826, 36269.00
1379.882, 36320.00
1380.938, 36414.00
1381.994, 36278.00
1383.050, 36555.00
1384.106, 36570.00
1385.161, 36589.00
1386.216, 36453.00
1387.271, 36764.00
1388.326, 36602.00
1389.381, 36794.00
1390.435, 37056.00
1391.490, 36769.00
1392.544, 36336.00
1393.598, 36873.00
1394.652, 36987.00
1395.705, 36595.00
1396.759, 36872.00
1397.812, 37029.00
1398.866, 36750.00
1399.919, 37127.00
1400.972, 37084.00
1402.024, 36936.00
1403.077, 37007.00
1404.129, 36987.00
1405.181, 37103.00
1406.233, 37131.71
1407.285, 37376.00
1408.337, 37313.00
1409.389, 37394.00
1410.440, 37640.00
1411.491, 37321.00
1412.542, 37548.00
1413.593, 37382.00
1414.644, 37497.00
1415.695, 37557.00
1416.745, 37542.00
1417.795, 37867.00
1418.845, 37769.00
1419.895, 37774.00
1420.945, 37944.00
1421.995, 37673.00
1423.044, 37597.00
1424.093, 37873.00
1425.142, 38004.00
1426.191, 37755.00
1427.240, 37807.00
1428.289, 37887.00
1429.337, 37925.00
1430.385, 38139.00
1431.433, 37942.00
1432.481, 38299.00
1433.529, 38102.00
1434.577, 38047.00
1435.624, 38482.00
1436.672, 38487.00
1437.719, 38247.00
1438.766, 38352.00
1439.812, 38334.00
1440.859, 38409.00
1441.905, 38691.00
1442.952, 38658.00
1443.998, 38680.00
1445.044, 38599.00
1446.090, 38790.00
1447.135, 38595.00
1448.181, 38768.00
1449.226, 39109.00
1450.271, 38736.00
1451.316, 38987.00
1452.361, 38957.00
1453.405, 38969.00
1454.450, 39046.00
1455.494, 39120.00
1456.538, 39156.00
1457.582, 39143.00
1458.626, 39251.00
1459.670, 39447.00
1460.713, 39142.00
1461.757, 39467.00
1462.800, 39576.00
1463.843, 39429.00
1464.886, 39550.00
1465.928, 39376.00
1466.971, 39634.00
1468.013, 39652.00
1469.055, 39707.00
1470.097, 39499.00
1471.139, 39810.00
1472.181, 39570.00
1473.222, 39657.00
1474.263, 39798.00
1475.305, 39804.00
1476.346, 39893.07
1477.386, 39904.00
1478.427, 39976.00
1479.468, 39991.00
1480.508, 39990.61
1481.548, 40426.00
1482.588, 40036.00
1483.628, 40153.00
1484.668, 40498.00
1485.707, 40188.00
1486.747, 40109.00
1487.786, 40384.00
1488.825, 40322.00
1489.864, 40474.00
1490.902, 40399.00
1491.941, 40370.00
1492.979, 40517.00
1494.017, 40731.00
1495.055, 40701.00
1496.093, 40766.00
1497.131, 40631.00
1498.168, 40745.00
1499.206, 40773.00
1500.243, 41033.00
1501.280, 40931.00
1502.317, 41182.00
1503.354, 40985.00
1504.390, 41382.00
1505.426, 41047.00
1506.463, 41032.00
1507.499, 41579.00
1508.535, 41098.00
1509.570, 42175.00
1510.606, 41737.67
1511.641, 41714.00
1512.676, 41482.00
1513.711, 41494.00
1514.746, 41684.00
1515.781, 41584.00
1516.816, 41847.00
1517.850, 41722.00
1518.884, 41711.00
1519.918, 41787.00
1520.952, 41609.00
1521.986, 41894.00
1523.019, 41859.00
1524.053, 41892.00
1525.086, 42088.00
1526.119, 41990.00
1527.152, 42190.00
1528.185, 42056.00
1529.217, 42272.00
1530.250, 42432.00
1531.282, 42379.00
1532.314, 42065.00
1533.346, 42383.00
1534.377, 42213.00
1535.409, 42474.00
1536.440, 42617.00
1537.472, 42772.00
1538.503, 42569.00
1539.534, 42874.00
1540.564, 42686.00
1541.595, 42551.00
1542.625, 42963.00
1543.656, 43227.00
1544.686, 43013.00
1545.716, 43174.00
1546.745, 43063.00
1547.775, 43155.87
1548.804, 43343.04
1549.834, 43468.02
1550.863, 43534.08
1551.892, 43364.89
1552.920, 43499.44
1553.949, 43512.28
1554.977, 43520.09
1556.006, 43697.43
1557.034, 43562.42
1558.062, 43737.02
1559.089, 43787.99
1560.117, 43895.57
1561.144, 43880.62
1562.172, 43903.54
1563.199, 44048.94
1564.226, 44126.50
1565.252, 44097.41
1566.279, 44208.54
1567.305, 44099.00
1568.332, 44127.00
1569.358, 44155.00
1570.384, 44105.00
1571.409, 44269.00
1572.435, 44668.00
##END=



