##NAMES=Triplite
##RRUFFID=R050226
##IDEAL CHEMISTRY=Mn^2+^_2_(PO_4_)F
##LOCALITY=Fremont County, Colorado, USA
##OWNER=RRUFF
##SOURCE=Marcus Origlieri
##DESCRIPTION=Reddish brown massive
##STATUS=The identification of this mineral has been confirmed by X-ray diffraction and chemical analysis
##URL=rruff.info/R050226
##MEASURED CHEMISTRY=(Mn^2+^_1.20_Mg_0.49_Fe^2+^_0.27_Ca_0.04_)_Σ=2_(P_1.00_O_4_)(F_0.95_(OH)_0.05_)_Σ=1_
##PIN_ID=L00312
##ORIENTATION=Laser parallel to (1 0 1). Fiducial mark perpendicular to laser is parallel to b [0 1 0]
129.2090, 16072.00
130.4390, 16199.00
131.6680, 16581.00
132.8980, 16732.00
134.1270, 16885.00
135.3560, 16645.00
136.5850, 16461.00
137.8140, 16504.00
139.0430, 16563.00
140.2710, 16858.00
141.5000, 16831.06
142.7280, 16831.56
143.9560, 16938.00
145.1840, 16702.00
146.4120, 16725.00
147.6390, 16722.00
148.8670, 17088.00
150.0940, 16926.00
151.3210, 16986.00
152.5490, 17602.00
153.7750, 17961.00
155.0020, 17148.00
156.2290, 16732.00
157.4550, 16692.00
158.6810, 16279.00
159.9080, 15972.00
161.1340, 15925.00
162.3590, 15793.00
163.5850, 15812.00
164.8110, 16277.00
166.0360, 16928.00
167.2610, 16925.00
168.4860, 16654.00
169.7110, 16179.00
170.9360, 16402.00
172.1610, 16662.00
173.3850, 16603.00
174.6100, 16041.00
175.8340, 16100.00
177.0580, 16213.00
178.2820, 16134.00
179.5050, 16341.00
180.7290, 16175.00
181.9520, 16204.00
183.1760, 16109.00
184.3990, 16044.00
185.6220, 16137.00
186.8450, 16259.00
188.0670, 16406.00
189.2900, 16489.42
190.5120, 16565.00
191.7340, 16698.00
192.9560, 16773.92
194.1780, 16905.59
195.4000, 16920.00
196.6220, 17062.00
197.8430, 16961.00
199.0640, 16968.00
200.2860, 16832.00
201.5070, 17307.00
202.7270, 17545.00
203.9480, 17755.00
205.1690, 17546.00
206.3890, 16863.00
207.6090, 16442.00
208.8290, 16002.00
210.0490, 15890.69
211.2690, 16230.00
212.4890, 16075.00
213.7080, 16181.00
214.9280, 16168.73
216.1470, 16078.08
217.3660, 16096.00
218.5850, 16033.00
219.8030, 16108.00
221.0220, 16122.93
222.2400, 16098.00
223.4590, 16214.00
224.6770, 16297.00
225.8950, 16331.00
227.1120, 16453.00
228.3300, 16239.00
229.5480, 16172.00
230.7650, 16116.00
231.9820, 16292.00
233.1990, 16087.00
234.4160, 16171.00
235.6330, 16242.00
236.8490, 16254.00
238.0660, 16234.00
239.2820, 16354.00
240.4980, 16134.00
241.7140, 16228.00
242.9300, 16389.00
244.1460, 16243.00
245.3610, 16399.00
246.5770, 16486.00
247.7920, 16284.00
249.0070, 16460.00
250.2220, 16313.04
251.4370, 16487.85
252.6510, 16600.41
253.8660, 16654.12
255.0800, 16472.55
256.2940, 16594.75
257.5080, 16595.21
258.7220, 16590.69
259.9360, 16755.64
261.1490, 16608.27
262.3630, 16770.54
263.5760, 16809.18
264.7890, 16904.39
266.0020, 16877.12
267.2150, 16887.68
268.4270, 17020.73
269.6400, 17085.97
270.8520, 16714.00
272.0640, 16909.00
273.2760, 16825.00
274.4880, 16870.00
275.7000, 16912.00
276.9120, 17085.00
278.1230, 17196.00
279.3340, 17231.00
280.5450, 17192.00
281.7560, 17211.30
282.9670, 17158.20
284.1780, 17191.00
285.3880, 17177.80
286.5980, 17151.00
287.8090, 17155.00
289.0190, 17180.00
290.2290, 17124.00
291.4380, 17382.00
292.6480, 17362.00
293.8570, 17424.00
295.0670, 17247.00
296.2760, 17367.00
297.4850, 17452.00
298.6930, 17398.00
299.9020, 17481.00
301.1110, 17268.00
302.3190, 17270.00
303.5270, 17333.00
304.7350, 17242.00
305.9430, 17235.00
307.1510, 17221.00
308.3580, 17125.00
309.5660, 17207.00
310.7730, 17015.00
311.9800, 17320.00
313.1870, 17185.00
314.3940, 17090.00
315.6010, 16941.00
316.8070, 17239.00
318.0130, 17003.00
319.2200, 17122.00
320.4260, 17133.00
321.6310, 17026.00
322.8370, 17154.00
324.0430, 17105.00
325.2480, 17257.00
326.4540, 17218.00
327.6590, 17091.00
328.8640, 17203.00
330.0680, 17065.00
331.2730, 17119.00
332.4780, 17077.00
333.6820, 17245.00
334.8860, 17183.00
336.0900, 17327.00
337.2940, 17306.00
338.4980, 17290.00
339.7010, 17358.00
340.9050, 17363.00
342.1080, 17389.00
343.3110, 17273.00
344.5140, 17201.00
345.7170, 17296.00
346.9200, 17436.00
348.1220, 17246.00
349.3240, 17420.00
350.5270, 17250.00
351.7290, 17458.00
352.9310, 17453.00
354.1320, 17424.00
355.3340, 17574.00
356.5350, 17448.00
357.7370, 17500.00
358.9380, 17560.00
360.1390, 17469.00
361.3400, 17553.00
362.5400, 17630.00
363.7410, 17785.00
364.9410, 17639.00
366.1410, 17614.00
367.3410, 17500.00
368.5410, 17710.00
369.7410, 17787.00
370.9400, 17690.00
372.1400, 17854.00
373.3390, 17768.00
374.5380, 17916.00
375.7370, 17929.00
376.9360, 17932.00
378.1350, 17953.00
379.3330, 18001.15
380.5310, 18062.00
381.7300, 18108.00
382.9280, 18091.00
384.1260, 18122.00
385.3230, 18284.00
386.5210, 18264.00
387.7180, 18237.00
388.9160, 18366.00
390.1130, 18370.00
391.3100, 18419.00
392.5060, 18408.00
393.7030, 18543.00
394.9000, 18463.00
396.0960, 18634.00
397.2920, 18677.00
398.4880, 18975.00
399.6840, 18938.17
400.8800, 19044.00
402.0750, 18971.00
403.2710, 18866.00
404.4660, 18923.00
405.6610, 18943.00
406.8560, 19060.00
408.0510, 19137.00
409.2450, 19137.00
410.4400, 19175.51
411.6340, 19147.00
412.8280, 19140.00
414.0220, 19117.00
415.2160, 19057.00
416.4100, 19227.00
417.6030, 19175.00
418.7970, 19300.00
419.9900, 19295.00
421.1830, 19635.00
422.3760, 19491.00
423.5690, 19485.00
424.7610, 19933.00
425.9540, 19684.00
427.1460, 19670.00
428.3380, 19933.00
429.5300, 19954.00
430.7220, 19817.00
431.9140, 19642.00
433.1050, 19781.00
434.2970, 19815.00
435.4880, 19897.00
436.6790, 19811.00
437.8700, 19878.00
439.0610, 19818.00
440.2510, 20476.00
441.4420, 20552.00
442.6320, 21511.00
443.8220, 20926.00
445.0120, 20793.00
446.2020, 21435.00
447.3910, 22127.00
448.5810, 21297.88
449.7700, 20424.00
450.9600, 20452.00
452.1490, 20870.00
453.3370, 20378.36
454.5260, 20419.00
455.7150, 20111.00
456.9030, 20290.00
458.0910, 20090.00
459.2800, 20219.00
460.4670, 19950.00
461.6550, 20073.00
462.8430, 19963.00
464.0300, 19991.00
465.2180, 20060.00
466.4050, 19976.23
467.5920, 19832.00
468.7790, 19887.00
469.9650, 19877.00
471.1520, 19800.88
472.3380, 20061.00
473.5250, 19909.00
474.7110, 19920.00
475.8970, 19942.00
477.0820, 19747.00
478.2680, 19928.00
479.4540, 20106.00
480.6390, 20042.00
481.8240, 20117.00
483.0090, 20183.08
484.1940, 20203.52
485.3780, 20241.00
486.5630, 20287.00
487.7470, 20211.00
488.9320, 20178.00
490.1160, 20221.00
491.3000, 20255.00
492.4830, 20357.00
493.6670, 20262.00
494.8500, 20308.00
496.0340, 20370.00
497.2170, 20477.00
498.4000, 20563.00
499.5820, 20508.00
500.7650, 20447.00
501.9480, 20414.00
503.1300, 20542.00
504.3120, 20559.00
505.4940, 20776.00
506.6760, 20518.00
507.8580, 20547.00
509.0390, 20732.00
510.2210, 20442.00
511.4020, 20799.00
512.5830, 20563.00
513.7640, 20680.00
514.9450, 20769.00
516.1250, 20868.00
517.3060, 20810.00
518.4860, 20807.00
519.6660, 20906.00
520.8460, 20888.00
522.0260, 21069.00
523.2060, 20737.00
524.3850, 20961.00
525.5650, 20923.00
526.7440, 21098.00
527.9230, 21006.00
529.1020, 21150.00
530.2810, 21098.00
531.4590, 21164.00
532.6380, 21086.00
533.8160, 21035.00
534.9940, 21238.00
536.1720, 21116.00
537.3500, 21259.00
538.5270, 21176.00
539.7050, 21260.00
540.8820, 21261.00
542.0590, 21282.00
543.2360, 21239.00
544.4130, 21329.00
545.5900, 21604.00
546.7660, 21510.00
547.9430, 21763.00
549.1190, 21567.00
550.2950, 21605.00
551.4710, 21520.00
552.6470, 21691.00
553.8220, 21591.00
554.9980, 21599.00
556.1730, 21594.00
557.3480, 21776.00
558.5230, 21935.00
559.6980, 21900.00
560.8730, 21875.00
562.0470, 21981.00
563.2220, 21877.00
564.3960, 22060.00
565.5700, 22183.00
566.7440, 22187.87
567.9170, 22186.00
569.0910, 22377.00
570.2640, 22461.00
571.4380, 22489.92
572.6110, 22389.00
573.7840, 22590.37
574.9570, 22558.00
576.1290, 22676.00
577.3020, 22609.00
578.4740, 22690.00
579.6460, 22764.00
580.8180, 22712.00
581.9900, 22729.00
583.1620, 22842.00
584.3330, 22780.00
585.5040, 22814.00
586.6760, 23001.00
587.8470, 23101.00
589.0180, 23041.00
590.1880, 23501.00
591.3590, 23255.00
592.5290, 23480.00
593.7000, 23502.00
594.8700, 23520.80
596.0400, 23684.00
597.2090, 23907.00
598.3790, 24057.00
599.5490, 24209.29
600.7180, 24298.79
601.8870, 24453.00
603.0560, 24446.00
604.2250, 24494.00
605.3940, 24632.00
606.5620, 24803.00
607.7300, 24743.00
608.8990, 24799.00
610.0670, 24864.52
611.2350, 24848.00
612.4020, 24900.00
613.5700, 24770.00
614.7370, 24646.00
615.9050, 24696.71
617.0720, 24614.74
618.2390, 24697.00
619.4060, 24607.00
620.5720, 24534.00
621.7390, 24551.00
622.9050, 24606.00
624.0710, 24562.00
625.2370, 24469.00
626.4030, 24379.00
627.5690, 24424.00
628.7340, 24334.34
629.9000, 24443.00
631.0650, 24196.00
632.2300, 24405.00
633.3950, 24226.00
634.5600, 24414.00
635.7240, 24291.00
636.8890, 24525.00
638.0530, 24418.00
639.2170, 24532.00
640.3810, 24528.00
641.5450, 24636.00
642.7080, 24591.00
643.8720, 24675.13
645.0350, 24756.00
646.1980, 24758.00
647.3610, 24665.00
648.5240, 24606.00
649.6870, 24587.00
650.8490, 24589.51
652.0120, 24629.16
653.1740, 24658.00
654.3360, 24756.00
655.4980, 24786.00
656.6600, 24825.00
657.8210, 24870.60
658.9830, 24850.00
660.1440, 24888.00
661.3050, 24952.00
662.4660, 24880.00
663.6270, 24880.00
664.7870, 24748.00
665.9480, 24750.00
667.1080, 24921.00
668.2680, 24728.00
669.4280, 24828.00
670.5880, 24899.00
671.7480, 24730.00
672.9070, 24644.00
674.0670, 24765.00
675.2260, 24797.00
676.3850, 24787.00
677.5440, 24711.00
678.7030, 24928.00
679.8610, 24737.00
681.0200, 25006.00
682.1780, 24885.00
683.3360, 24799.00
684.4940, 25133.00
685.6520, 25050.00
686.8090, 25071.00
687.9670, 24840.00
689.1240, 25019.00
690.2810, 24957.00
691.4380, 25168.00
692.5950, 24980.00
693.7520, 25320.00
694.9080, 25138.00
696.0650, 25153.00
697.2210, 25140.00
698.3770, 25078.00
699.5330, 25186.00
700.6880, 25175.25
701.8440, 25046.00
702.9990, 25259.00
704.1550, 25183.00
705.3100, 25213.00
706.4650, 25305.00
707.6190, 25059.00
708.7740, 25235.00
709.9290, 25280.00
711.0830, 25426.00
712.2370, 25453.73
713.3910, 25485.00
714.5450, 25521.00
715.6980, 25408.00
716.8520, 25492.00
718.0050, 25245.00
719.1580, 25484.00
720.3110, 25443.00
721.4640, 25388.00
722.6170, 25498.00
723.7700, 25364.00
724.9220, 25423.00
726.0740, 25519.00
727.2260, 25427.00
728.3780, 25410.00
729.5300, 25549.00
730.6810, 25633.00
731.8330, 25530.00
732.9840, 25564.00
734.1350, 25731.00
735.2860, 25637.00
736.4370, 25427.00
737.5880, 25457.00
738.7380, 25721.00
739.8880, 25830.00
741.0390, 25934.77
742.1890, 25937.21
743.3380, 26030.00
744.4880, 25914.00
745.6380, 25696.00
746.7870, 25897.00
747.9360, 25888.00
749.0850, 26016.00
750.2340, 25947.00
751.3830, 25980.00
752.5310, 25964.00
753.6800, 26015.55
754.8280, 26020.00
755.9760, 26141.00
757.1240, 26205.00
758.2720, 26237.00
759.4190, 26305.00
760.5670, 26256.00
761.7140, 26393.00
762.8610, 26435.00
764.0080, 26396.00
765.1550, 26522.00
766.3020, 26595.00
767.4480, 26547.00
768.5950, 26685.00
769.7410, 26683.00
770.8870, 26895.00
772.0330, 26783.00
773.1780, 26684.00
774.3240, 26746.00
775.4690, 26854.00
776.6140, 26885.00
777.7590, 26896.00
778.9040, 27014.00
780.0490, 27036.18
781.1940, 27097.00
782.3380, 27143.00
783.4820, 27152.00
784.6260, 27188.00
785.7700, 27138.00
786.9140, 27326.00
788.0580, 27389.00
789.2010, 27133.00
790.3450, 27439.00
791.4880, 27292.00
792.6310, 27400.00
793.7730, 27678.00
794.9160, 27440.00
796.0590, 27561.00
797.2010, 27623.00
798.3430, 27661.00
799.4850, 27541.00
800.6270, 27602.00
801.7690, 27495.00
802.9100, 27530.00
804.0520, 27690.00
805.1930, 27825.00
806.3340, 27532.00
807.4750, 27684.00
808.6160, 27898.00
809.7560, 27862.00
810.8970, 28061.00
812.0370, 28045.00
813.1770, 27884.00
814.3170, 28090.00
815.4570, 28120.00
816.5960, 28161.00
817.7360, 28223.00
818.8750, 28118.00
820.0140, 28097.00
821.1530, 28098.88
822.2920, 28200.00
823.4310, 28138.00
824.5690, 28205.00
825.7070, 28354.00
826.8460, 28230.00
827.9840, 28429.00
829.1220, 28238.00
830.2590, 28599.00
831.3970, 28548.00
832.5340, 28501.00
833.6710, 28655.00
834.8080, 28640.00
835.9450, 28553.00
837.0820, 28675.00
838.2190, 28701.00
839.3550, 28650.00
840.4910, 28932.00
841.6270, 28610.00
842.7630, 28784.00
843.8990, 28921.00
845.0350, 28963.00
846.1700, 29044.19
847.3060, 29107.66
848.4410, 29076.00
849.5760, 29211.00
850.7100, 29190.00
851.8450, 29247.00
852.9800, 29200.00
854.1140, 29380.00
855.2480, 29183.00
856.3820, 29434.00
857.5160, 29518.00
858.6500, 29390.00
859.7830, 29383.00
860.9170, 29543.00
862.0500, 29713.00
863.1830, 29486.00
864.3160, 29514.00
865.4480, 29668.00
866.5810, 29796.00
867.7130, 29691.00
868.8460, 29763.00
869.9780, 29811.00
871.1100, 29855.00
872.2410, 29834.00
873.3730, 29915.00
874.5050, 30199.00
875.6360, 30128.00
876.7670, 30158.00
877.8980, 29938.00
879.0290, 30278.00
880.1590, 30318.00
881.2900, 30304.00
882.4200, 30340.00
883.5500, 30373.00
884.6800, 30463.00
885.8100, 30619.00
886.9400, 30640.76
888.0690, 30437.00
889.1990, 30694.00
890.3280, 30687.00
891.4570, 30580.00
892.5860, 30850.00
893.7140, 30865.00
894.8430, 30808.00
895.9710, 30894.00
897.1000, 31113.00
898.2280, 31097.00
899.3560, 31217.29
900.4830, 31329.00
901.6110, 31308.00
902.7380, 31380.00
903.8660, 31341.00
904.9930, 31273.00
906.1200, 31342.00
907.2460, 31511.00
908.3730, 31755.00
909.5000, 31569.00
910.6260, 31878.00
911.7520, 31795.00
912.8780, 31797.00
914.0040, 31763.00
915.1290, 32045.00
916.2550, 31920.00
917.3800, 31785.00
918.5050, 32317.00
919.6300, 31921.00
920.7550, 32038.00
921.8800, 32364.00
923.0040, 32214.00
924.1290, 32295.00
925.2530, 32422.00
926.3770, 32292.00
927.5010, 32449.00
928.6250, 32705.00
929.7480, 32531.00
930.8720, 32874.00
931.9950, 32958.00
933.1180, 32846.00
934.2410, 33017.00
935.3640, 32834.00
936.4860, 33039.00
937.6090, 32980.00
938.7310, 33014.00
939.8530, 33189.00
940.9750, 33233.00
942.0970, 33521.00
943.2180, 33308.00
944.3400, 33298.00
945.4610, 33550.00
946.5820, 34005.00
947.7030, 34029.66
948.8240, 33966.00
949.9450, 34309.00
951.0650, 34389.00
952.1860, 34442.00
953.3060, 34494.00
954.4260, 34541.00
955.5460, 34866.00
956.6650, 34921.00
957.7850, 35229.00
958.9040, 35438.00
960.0230, 35474.00
961.1420, 35884.00
962.2610, 36142.00
963.3800, 36517.00
964.4990, 36887.00
965.6170, 37091.00
966.7350, 37430.00
967.8530, 37941.00
968.9710, 38029.00
970.0890, 39004.00
971.2070, 39335.00
972.3240, 40320.00
973.4410, 41300.00
974.5580, 42277.00
975.6750, 43470.00
976.7920, 44998.00
977.9090, 46640.00
979.0250, 48402.00
980.1410, 50680.00
981.2580, 52734.00
982.3740, 54784.00
983.4890, 56052.00
984.6050, 57296.00
985.7200, 57764.00
986.8360, 57484.00
987.9510, 55979.00
989.0660, 53628.00
990.1810, 51491.00
991.2950, 48368.00
992.4100, 46202.00
993.5240, 44066.00
994.6390, 42600.00
995.7530, 41086.00
996.8660, 40602.00
997.9800, 39650.00
999.0940, 39165.00
1000.207, 38859.00
1001.320, 38444.00
1002.433, 38319.00
1003.546, 38177.00
1004.659, 38245.00
1005.772, 38319.00
1006.884, 37858.00
1007.996, 38111.00
1009.108, 37994.00
1010.220, 37735.00
1011.332, 38189.00
1012.444, 38093.00
1013.555, 37864.00
1014.666, 37787.00
1015.777, 38101.00
1016.888, 37998.00
1017.999, 38178.00
1019.110, 38528.00
1020.220, 38197.00
1021.331, 38103.00
1022.441, 38107.00
1023.551, 38186.00
1024.661, 38313.00
1025.770, 38649.00
1026.880, 39294.00
1027.989, 38446.00
1029.098, 38630.00
1030.207, 39088.00
1031.316, 38633.00
1032.425, 38591.00
1033.533, 39005.00
1034.642, 38804.00
1035.750, 38851.00
1036.858, 39089.00
1037.966, 39083.00
1039.073, 38906.00
1040.181, 39251.00
1041.288, 39082.00
1042.396, 39140.00
1043.503, 39519.00
1044.610, 39713.00
1045.716, 39548.00
1046.823, 39870.00
1047.929, 39646.00
1049.036, 39737.00
1050.142, 39770.00
1051.248, 39886.00
1052.353, 39795.00
1053.459, 39808.00
1054.564, 39860.17
1055.670, 39803.52
1056.775, 39787.27
1057.880, 39769.00
1058.985, 39674.00
1060.089, 39646.00
1061.194, 39572.00
1062.298, 39625.80
1063.402, 39599.54
1064.506, 39821.00
1065.610, 39760.00
1066.713, 39967.00
1067.817, 40357.00
1068.920, 40286.00
1070.023, 40095.00
1071.126, 40621.00
1072.229, 40962.00
1073.332, 40716.00
1074.435, 41177.00
1075.537, 40994.00
1076.639, 41283.00
1077.741, 41228.00
1078.843, 41323.00
1079.945, 41102.00
1081.046, 40793.00
1082.148, 40816.00
1083.249, 41116.00
1084.350, 41018.00
1085.451, 41459.00
1086.551, 41455.00
1087.652, 41641.00
1088.752, 41181.00
1089.853, 40674.00
1090.953, 40884.00
1092.053, 40573.00
1093.152, 40543.00
1094.252, 40460.00
1095.351, 40494.00
1096.451, 40190.00
1097.550, 40481.00
1098.649, 40275.00
1099.748, 40590.00
1100.846, 40682.00
1101.945, 40595.45
1103.043, 40631.00
1104.141, 40539.00
1105.239, 40543.00
1106.337, 40596.00
1107.434, 40324.00
1108.532, 40742.00
1109.629, 40883.00
1110.726, 40766.20
1111.823, 41047.00
1112.920, 40720.00
1114.017, 40924.00
1115.113, 41068.00
1116.210, 41005.00
1117.306, 41284.00
1118.402, 41383.00
1119.498, 41398.00
1120.593, 41478.00
1121.689, 41510.00
1122.784, 41353.00
1123.879, 41884.00
1124.974, 41974.00
1126.069, 41827.00
1127.164, 41945.00
1128.259, 41810.00
1129.353, 41612.00
1130.447, 41696.00
1131.541, 41616.00
1132.635, 41837.00
1133.729, 41782.00
1134.822, 41742.00
1135.916, 42131.00
1137.009, 41602.00
1138.102, 41699.00
1139.195, 41569.00
1140.288, 41936.00
1141.380, 41730.00
1142.473, 41321.00
1143.565, 41567.00
1144.657, 41261.00
1145.749, 41354.00
1146.841, 41473.00
1147.932, 41505.00
1149.024, 41864.00
1150.115, 41707.00
1151.206, 41790.76
1152.297, 41568.00
1153.388, 41691.00
1154.479, 41506.00
1155.569, 41371.00
1156.659, 41345.00
1157.750, 41683.00
1158.839, 41622.00
1159.929, 41745.00
1161.019, 41803.00
1162.108, 41797.00
1163.198, 41882.89
1164.287, 41961.21
1165.376, 41978.00
1166.465, 42041.00
1167.553, 42105.00
1168.642, 41877.00
1169.730, 42169.00
1170.818, 42045.00
1171.906, 41928.00
1172.994, 42322.00
1174.082, 42412.00
1175.170, 42116.00
1176.257, 42398.00
1177.344, 42397.00
1178.431, 42381.00
1179.518, 42446.00
1180.605, 42283.00
1181.691, 42511.00
1182.778, 42641.00
1183.864, 42434.00
1184.950, 42891.00
1186.036, 42626.00
1187.122, 43239.00
1188.207, 43065.00
1189.292, 42840.00
1190.378, 42794.00
1191.463, 43013.00
1192.548, 42712.00
1193.632, 42952.00
1194.717, 43104.00
1195.801, 43025.67
1196.886, 43269.00
1197.970, 43138.00
1199.054, 43229.00
1200.137, 43406.00
1201.221, 43304.00
1202.305, 43179.00
1203.388, 43593.00
1204.471, 43273.00
1205.554, 43342.00
1206.637, 43413.00
1207.719, 43438.00
1208.802, 43519.00
1209.884, 43606.00
1210.966, 43631.00
1212.048, 43650.00
1213.130, 43659.45
1214.212, 43690.43
1215.293, 43786.00
1216.374, 43785.00
1217.456, 43869.00
1218.536, 44008.00
1219.617, 44006.00
1220.698, 44066.00
1221.778, 44112.00
1222.859, 44151.00
1223.939, 44145.33
1225.019, 44304.00
1226.099, 44146.00
1227.178, 44126.00
1228.258, 44211.00
1229.337, 44443.00
1230.417, 44353.00
1231.496, 44549.00
1232.574, 44585.00
1233.653, 44483.00
1234.732, 44505.00
1235.810, 44577.00
1236.888, 44631.00
1237.966, 44970.00
1239.044, 44614.00
1240.122, 44856.00
1241.199, 44761.00
1242.277, 45045.00
1243.354, 45158.00
1244.431, 45047.00
1245.508, 45141.00
1246.585, 45107.00
1247.661, 45198.00
1248.738, 45528.00
1249.814, 45130.00
1250.890, 45055.00
1251.966, 45511.00
1253.042, 45418.00
1254.117, 45337.00
1255.193, 45499.00
1256.268, 45655.00
1257.343, 45943.00
1258.418, 45877.00
1259.493, 45614.00
1260.567, 46109.00
1261.642, 45894.00
1262.716, 45829.00
1263.790, 45978.00
1264.864, 46050.00
1265.938, 46091.00
1267.011, 46363.00
1268.085, 46030.00
1269.158, 45984.00
1270.231, 46427.00
1271.304, 46606.00
1272.377, 46318.00
1273.450, 46712.00
1274.522, 46384.88
1275.594, 46577.16
1276.666, 46707.22
1277.738, 46778.39
1278.810, 46614.33
1279.882, 46754.02
1280.953, 46771.94
1282.025, 46784.92
1283.096, 46967.32
1284.167, 46837.42
1285.238, 47017.14
1286.308, 47073.22
1287.379, 47185.91
1288.449, 47176.07
1289.519, 47204.06
1290.589, 47354.57
1291.659, 47437.25
1292.729, 47413.30
1293.798, 47529.50
1294.868, 47395.27
1295.937, 47480.79
1297.006, 47661.13
1298.075, 47643.30
1299.143, 47761.68
1300.212, 47828.22
1301.280, 47658.86
1302.348, 47899.66
1303.416, 47963.09
1304.484, 47844.37
1305.552, 48071.12
1306.620, 47977.52
1307.687, 47998.22
1308.754, 48104.97
1309.821, 48122.01
1310.888, 48280.48
1311.955, 48302.71
1313.021, 48312.71
1314.088, 48375.89
1315.154, 48288.48
1316.220, 48480.35
1317.286, 48481.45
1318.352, 48577.38
1319.417, 48694.75
1320.483, 48647.59
1321.548, 48774.62
1322.613, 48631.45
1323.678, 48714.36
1324.743, 48772.94
1325.807, 48975.98
1326.872, 48834.11
1327.936, 48910.71
1329.000, 49080.33
1330.064, 49119.78
1331.128, 49213.66
1332.191, 49146.36
1333.255, 49230.47
1334.318, 49272.82
1335.381, 49459.33
1336.444, 49532.04
1337.507, 49467.47
1338.569, 49403.44
1339.632, 49600.34
1340.694, 49549.92
1341.756, 49632.91
1342.818, 49578.12
1343.880, 49642.29
1344.941, 49704.52
1346.003, 49658.00
1347.064, 49579.00
1348.125, 49982.00
1349.186, 49974.00
1350.247, 49821.00
1351.308, 49820.00
1352.368, 50193.00
1353.428, 49825.00
1354.489, 50260.00
1355.549, 50038.00
1356.608, 50061.00
1357.668, 50215.00
1358.727, 50317.00
1359.787, 50343.00
1360.846, 50535.00
1361.905, 50213.00
1362.964, 50553.00
1364.022, 50165.00
1365.081, 50510.00
1366.139, 50234.00
1367.197, 50658.00
1368.255, 50623.00
1369.313, 50542.00
1370.371, 50539.00
1371.428, 50732.00
1372.486, 50836.00
1373.543, 50914.00
1374.600, 50852.00
1375.657, 50656.00
1376.713, 50555.00
1377.770, 50783.00
1378.826, 50815.00
1379.882, 51062.00
1380.938, 51074.00
1381.994, 51250.00
1383.050, 51047.00
1384.106, 51150.00
1385.161, 51057.00
1386.216, 51281.00
1387.271, 51220.00
1388.326, 51485.00
1389.381, 51106.00
1390.435, 51248.00
1391.490, 51259.00
1392.544, 51418.00
1393.598, 51510.00
1394.652, 51378.00
1395.705, 51502.00
1396.759, 51391.00
1397.812, 51612.00
1398.866, 51483.00
1399.919, 51628.00
1400.972, 51735.00
1402.024, 51890.00
1403.077, 51946.00
1404.129, 51787.00
1405.181, 51594.00
1406.233, 51959.00
1407.285, 52178.00
1408.337, 51844.00
1409.389, 52147.00
1410.440, 52358.00
1411.491, 52256.99
1412.542, 52170.00
1413.593, 52384.00
1414.644, 52299.00
1415.695, 52513.00
1416.745, 52830.00
1417.795, 52507.00
1418.845, 52542.00
1419.895, 52597.00
1420.945, 52426.00
1421.995, 52669.00
1423.044, 52814.00
1424.093, 53008.00
1425.142, 52797.00
1426.191, 53153.00
1427.240, 52940.00
1428.289, 53046.00
1429.337, 52918.00
1430.385, 52962.00
1431.433, 53135.00
1432.481, 53075.85
1433.529, 52972.00
1434.577, 53165.00
1435.624, 53321.00
1436.672, 53426.00
1437.719, 53272.00
1438.766, 53505.00
1439.812, 53810.00
1440.859, 53546.00
1441.905, 53489.00
1442.952, 53679.00
1443.998, 53635.00
1445.044, 53902.00
1446.090, 53924.00
1447.135, 53930.00
1448.181, 53778.00
1449.226, 53617.00
1450.271, 53784.00
1451.316, 54012.00
1452.361, 54220.00
1453.405, 54111.00
1454.450, 54025.00
1455.494, 54314.00
1456.538, 54048.00
1457.582, 54478.00
1458.626, 54284.00
1459.670, 54401.00
1460.713, 54073.00
1461.757, 54495.00
1462.800, 54395.00
1463.843, 54605.00
1464.886, 54491.00
1465.928, 54850.00
1466.971, 54645.00
1468.013, 54693.00
1469.055, 54651.00
1470.097, 54633.65
1471.139, 54769.00
1472.181, 54656.00
1473.222, 54815.00
1474.263, 54776.38
1475.305, 54781.00
1476.346, 54989.00
1477.386, 55040.00
1478.427, 55221.00
1479.468, 55223.00
1480.508, 55351.00
1481.548, 55513.00
1482.588, 55522.04
1483.628, 55362.00
1484.668, 55631.00
1485.707, 55363.00
1486.747, 55416.00
1487.786, 55775.00
1488.825, 55664.00
1489.864, 55601.00
1490.902, 55638.00
1491.941, 55985.00
1492.979, 55776.00
1494.017, 55994.00
1495.055, 55865.00
1496.093, 55912.54
1497.131, 55954.52
1498.168, 55994.00
1499.206, 55996.00
1500.243, 56037.00
1501.280, 56092.00
1502.317, 56148.62
1503.354, 56496.00
1504.390, 56328.00
1505.426, 56489.00
1506.463, 56641.00
1507.499, 56399.00
1508.535, 57059.00
1509.570, 56550.00
1510.606, 56739.00
1511.641, 56802.00
1512.676, 56704.00
1513.711, 56965.00
1514.746, 57011.00
1515.781, 56750.00
1516.816, 56921.00
1517.850, 56912.00
1518.884, 56931.00
1519.918, 57249.00
1520.952, 57246.00
1521.986, 57022.00
1523.019, 57243.00
1524.053, 57383.00
1525.086, 57678.00
1526.119, 57571.00
1527.152, 57596.00
1528.185, 57658.00
1529.217, 57788.00
1530.250, 57749.00
1531.282, 57815.00
1532.314, 57915.00
1533.346, 57941.54
1534.377, 58130.56
1535.409, 58257.41
1536.440, 58325.32
1537.472, 58158.05
1538.503, 58294.49
1539.534, 58309.20
1540.564, 58318.86
1541.595, 58498.05
1542.625, 58364.90
1543.656, 58541.41
1544.686, 58594.28
1545.716, 58703.71
1546.745, 58690.61
1547.775, 58715.39
1548.804, 58862.64
1549.834, 58942.11
1550.863, 58914.91
1551.892, 59027.89
1552.920, 58890.36
1553.949, 58972.67
1554.977, 59149.76
1556.006, 59128.71
1557.034, 59243.89
1558.062, 59307.17
1559.089, 59134.55
1560.117, 59372.14
1561.144, 59432.31
1562.172, 59310.39
1563.199, 59533.88
1564.226, 59437.02
1565.252, 59454.46
1566.279, 59558.01
1567.305, 59571.80
1568.332, 59302.00
1569.358, 59357.00
1570.384, 59641.00
1571.409, 59616.00
1572.435, 60164.00
##END=



