##NAMES=Vivianite
##RRUFFID=R040185
##IDEAL CHEMISTRY=Fe^2+^_3_(PO_4_)_2_&#183;8H_2_O
##LOCALITY=Siglo XX mine, Llallagua, Bustillos, Potosi, Bolivia
##OWNER=RRUFF
##SOURCE=University of Arizona Mineral Museum
##DESCRIPTION=Green acicular single crystal
##STATUS=The identification of this mineral has been confirmed by X-ray diffraction and chemical analysis
##URL=rruff.info/R040185
##MEASURED CHEMISTRY=(Fe_1.00_Mn_0.01_)_3_(P_0.97_Si_0.03_O_3.94_F_0.07_)_2_Â·8H_2_O
##PIN_ID=L00515
##ORIENTATION=Laser parallel to -a* (-1 0 0). Fiducial mark perpendicular to laser is parallel to b [0 1 0]
83.128, 898.000
84.529, 930.000
85.929, 930.008
87.329, 948.706
88.728, 948.000
90.128, 980.000
91.527, 996.000
92.926, 1005.000
94.324, 1055.000
95.723, 1072.000
97.121, 1109.000
98.519, 1164.000
99.917, 1174.000
101.314, 1202.000
102.712, 1206.000
104.109, 1260.000
105.505, 1339.000
106.902, 1400.000
108.298, 1393.000
109.694, 1400.000
111.090, 1514.000
112.486, 1646.000
113.881, 1729.000
115.277, 1766.000
116.672, 1823.000
118.066, 1860.000
119.461, 1876.000
120.855, 1970.000
122.249, 2075.000
123.643, 2234.000
125.036, 2335.000
126.430, 2498.000
127.823, 2639.000
129.216, 2746.000
130.608, 2770.000
132.001, 2650.000
133.393, 2609.000
134.785, 2429.000
136.176, 2337.000
137.568, 2232.000
138.959, 2135.777
140.350, 2091.000
141.741, 2016.000
143.131, 2015.000
144.521, 2014.000
145.911, 2036.000
147.301, 2064.000
148.691, 2103.000
150.080, 2178.000
151.469, 2176.000
152.858, 2314.000
154.247, 2275.000
155.635, 2294.000
157.024, 2238.000
158.411, 2334.000
159.799, 2328.000
161.187, 2356.000
162.574, 2412.000
163.961, 2390.000
165.348, 2353.000
166.734, 2351.000
168.121, 2334.000
169.507, 2331.000
170.893, 2279.000
172.278, 2244.350
173.664, 2154.000
175.049, 2139.000
176.434, 2040.000
177.819, 1981.000
179.203, 1938.000
180.587, 1933.000
181.971, 1921.000
183.355, 1972.000
184.739, 1953.000
186.122, 2044.000
187.505, 2083.000
188.888, 2161.000
190.271, 2156.000
191.653, 2188.000
193.035, 2232.000
194.417, 2271.000
195.799, 2310.000
197.180, 2300.000
198.562, 2312.000
199.943, 2230.000
201.324, 2233.000
202.704, 2122.000
204.084, 2084.000
205.465, 2079.178
206.844, 2039.855
208.224, 2080.000
209.603, 2062.000
210.983, 2073.000
212.362, 2145.000
213.740, 2183.000
215.119, 2318.000
216.497, 2451.000
217.875, 2581.000
219.253, 2798.000
220.631, 3038.000
222.008, 3312.000
223.385, 3480.000
224.762, 3821.000
226.139, 3987.000
227.515, 4189.000
228.891, 4081.000
230.267, 3841.000
231.643, 3551.000
233.018, 3166.000
234.394, 2863.000
235.769, 2537.000
237.144, 2282.000
238.518, 2060.000
239.893, 1920.000
241.267, 1781.000
242.641, 1732.000
244.014, 1664.000
245.388, 1615.000
246.761, 1585.000
248.134, 1546.000
249.507, 1546.000
250.879, 1517.000
252.252, 1506.000
253.624, 1510.000
254.996, 1479.000
256.367, 1489.000
257.739, 1476.000
259.110, 1500.000
260.481, 1479.000
261.852, 1460.000
263.222, 1475.000
264.592, 1522.000
265.962, 1543.521
267.332, 1586.195
268.702, 1617.292
270.071, 1637.422
271.440, 1613.784
272.809, 1607.000
274.178, 1601.000
275.546, 1626.000
276.915, 1651.000
278.283, 1698.000
279.650, 1718.989
281.018, 1750.000
282.385, 1765.000
283.752, 1806.000
285.119, 1806.000
286.486, 1858.000
287.852, 1874.000
289.218, 1862.000
290.584, 1865.000
291.950, 1888.000
293.316, 1839.000
294.681, 1806.000
296.046, 1786.000
297.411, 1712.000
298.775, 1741.000
300.140, 1709.000
301.504, 1648.000
302.868, 1635.000
304.231, 1647.000
305.595, 1633.000
306.958, 1614.000
308.321, 1602.000
309.684, 1569.000
311.047, 1554.301
312.409, 1515.000
313.771, 1506.000
315.133, 1484.000
316.495, 1444.000
317.856, 1429.000
319.217, 1401.000
320.578, 1398.000
321.939, 1376.000
323.299, 1374.000
324.660, 1355.000
326.020, 1344.000
327.380, 1370.000
328.739, 1360.000
330.099, 1346.000
331.458, 1370.000
332.817, 1380.000
334.176, 1396.000
335.534, 1412.000
336.892, 1425.000
338.251, 1434.000
339.608, 1452.000
340.966, 1519.000
342.323, 1575.000
343.681, 1566.000
345.037, 1672.000
346.394, 1633.000
347.751, 1617.000
349.107, 1559.000
350.463, 1548.000
351.819, 1485.000
353.174, 1396.000
354.530, 1369.000
355.885, 1303.000
357.240, 1235.000
358.594, 1191.000
359.949, 1138.000
361.303, 1106.000
362.657, 1081.000
364.011, 1018.000
365.365, 1013.000
366.718, 992.000
368.071, 971.000
369.424, 973.000
370.777, 947.000
372.129, 971.000
373.481, 939.000
374.833, 950.000
376.185, 933.000
377.537, 940.000
378.888, 930.000
380.239, 937.000
381.590, 932.000
382.941, 931.000
384.291, 934.000
385.642, 923.000
386.992, 907.000
388.341, 923.151
389.691, 921.104
391.040, 931.000
392.389, 947.000
393.738, 912.000
395.087, 934.000
396.435, 929.000
397.784, 946.000
399.132, 923.000
400.479, 955.000
401.827, 950.000
403.174, 945.000
404.521, 951.000
405.868, 955.947
407.215, 955.000
408.561, 977.000
409.908, 992.000
411.254, 1004.000
412.599, 1016.956
413.945, 1030.084
415.290, 1039.000
416.636, 1053.000
417.980, 1072.000
419.325, 1079.000
420.670, 1095.000
422.014, 1080.000
423.358, 1088.000
424.702, 1059.000
426.045, 1089.000
427.389, 1197.011
428.732, 1238.714
430.075, 1272.202
431.417, 1297.898
432.760, 1227.923
434.102, 1355.556
435.444, 1437.471
436.786, 1476.124
438.127, 1341.925
439.469, 1430.923
440.810, 1430.464
442.151, 1426.337
443.492, 1292.000
444.832, 1313.000
446.172, 1387.000
447.512, 1404.000
448.852, 1497.000
450.192, 1540.000
451.531, 1603.000
452.870, 1710.000
454.209, 1774.000
455.548, 1814.000
456.887, 1871.000
458.225, 1889.000
459.563, 1905.000
460.901, 1948.000
462.238, 1934.000
463.576, 1903.000
464.913, 1840.000
466.250, 1836.000
467.587, 1786.000
468.923, 1749.000
470.259, 1697.000
471.596, 1649.000
472.931, 1571.000
474.267, 1533.000
475.603, 1466.000
476.938, 1443.000
478.273, 1412.000
479.608, 1372.000
480.942, 1341.000
482.276, 1337.000
483.611, 1319.000
484.944, 1316.000
486.278, 1276.000
487.612, 1255.000
488.945, 1249.000
490.278, 1234.000
491.611, 1231.725
492.943, 1237.000
494.276, 1228.000
495.608, 1231.000
496.940, 1222.000
498.271, 1242.000
499.603, 1240.829
500.934, 1274.000
502.265, 1262.000
503.596, 1282.000
504.927, 1311.000
506.257, 1320.000
507.587, 1327.000
508.917, 1333.000
510.247, 1346.000
511.577, 1334.000
512.906, 1384.000
514.235, 1385.000
515.564, 1383.000
516.892, 1428.000
518.221, 1445.000
519.549, 1455.000
520.877, 1491.000
522.205, 1504.034
523.533, 1547.000
524.860, 1548.000
526.187, 1587.000
527.514, 1616.000
528.841, 1640.000
530.167, 1629.000
531.493, 1691.000
532.820, 1680.000
534.145, 1724.000
535.471, 1718.000
536.796, 1746.000
538.122, 1757.000
539.447, 1743.000
540.771, 1766.000
542.096, 1760.000
543.420, 1769.000
544.744, 1768.000
546.068, 1753.258
547.392, 1748.000
548.715, 1712.000
550.039, 1690.000
551.362, 1651.000
552.684, 1628.966
554.007, 1604.000
555.329, 1580.000
556.652, 1580.000
557.973, 1554.000
559.295, 1518.000
560.617, 1544.000
561.938, 1503.000
563.259, 1499.000
564.580, 1515.000
565.901, 1512.000
567.221, 1478.000
568.541, 1514.000
569.861, 1482.000
571.181, 1524.000
572.501, 1510.000
573.820, 1540.000
575.139, 1488.000
576.458, 1485.000
577.777, 1502.000
579.095, 1458.000
580.414, 1488.000
581.732, 1440.000
583.049, 1421.421
584.367, 1446.848
585.685, 1456.841
587.002, 1452.238
588.319, 1389.290
589.636, 1408.000
590.952, 1398.000
592.268, 1436.000
593.585, 1367.000
594.900, 1378.000
596.216, 1359.000
597.532, 1356.000
598.847, 1324.000
600.162, 1320.000
601.477, 1321.000
602.792, 1288.000
604.106, 1273.410
605.420, 1256.000
606.734, 1226.000
608.048, 1205.000
609.361, 1198.000
610.675, 1175.259
611.988, 1169.000
613.301, 1149.000
614.614, 1123.000
615.926, 1116.000
617.238, 1084.000
618.550, 1072.000
619.862, 1061.000
621.174, 1072.000
622.485, 1056.000
623.797, 1049.000
625.108, 1050.000
626.418, 1030.000
627.729, 1010.000
629.039, 1024.000
630.349, 1037.000
631.659, 1014.000
632.969, 1010.000
634.279, 1010.000
635.588, 995.000
636.897, 994.962
638.206, 996.000
639.515, 993.000
640.823, 988.000
642.131, 1001.000
643.439, 1001.000
644.747, 974.000
646.055, 952.000
647.362, 956.000
648.669, 994.000
649.976, 988.000
651.283, 1000.000
652.589, 966.000
653.896, 992.000
655.202, 986.000
656.508, 1011.000
657.814, 987.000
659.119, 986.000
660.424, 970.000
661.729, 963.000
663.034, 974.000
664.339, 982.000
665.643, 995.000
666.947, 1002.000
668.251, 983.000
669.555, 1024.000
670.859, 1000.000
672.162, 991.000
673.465, 1004.000
674.768, 969.000
676.071, 1026.000
677.373, 985.000
678.676, 983.000
679.978, 1010.000
681.280, 1015.000
682.581, 1019.000
683.883, 1038.000
685.184, 1020.000
686.485, 1016.000
687.786, 1010.000
689.087, 1011.000
690.387, 1020.000
691.687, 1050.000
692.987, 1004.000
694.287, 1052.000
695.586, 1025.000
696.886, 1013.000
698.185, 1032.000
699.484, 1030.000
700.783, 1038.000
702.081, 1035.000
703.379, 1043.992
704.677, 1033.000
705.975, 1048.000
707.273, 1060.000
708.570, 1035.000
709.868, 1041.000
711.165, 1039.000
712.462, 1044.000
713.758, 1038.000
715.055, 1034.000
716.351, 1062.000
717.647, 1061.000
718.943, 1071.000
720.238, 1068.000
721.533, 1057.000
722.829, 1062.877
724.124, 1034.000
725.418, 1057.000
726.713, 1048.000
728.007, 1033.000
729.301, 1074.000
730.595, 1028.000
731.889, 1054.000
733.182, 1072.000
734.476, 1030.000
735.769, 1068.000
737.061, 1060.000
738.354, 1067.000
739.647, 1083.000
740.939, 1076.702
742.231, 1072.000
743.523, 1074.000
744.814, 1070.000
746.106, 1061.000
747.397, 1084.000
748.688, 1077.000
749.978, 1079.000
751.269, 1065.000
752.559, 1069.000
753.849, 1068.276
755.139, 1090.000
756.429, 1077.000
757.719, 1088.000
759.008, 1102.000
760.297, 1082.000
761.586, 1065.000
762.875, 1067.000
764.163, 1063.139
765.451, 1066.043
766.739, 1079.000
768.027, 1074.000
769.315, 1090.000
770.602, 1081.000
771.890, 1086.000
773.177, 1058.000
774.463, 1103.000
775.750, 1090.000
777.036, 1086.000
778.323, 1108.000
779.609, 1099.000
780.894, 1095.000
782.180, 1084.000
783.465, 1101.000
784.750, 1125.000
786.035, 1142.000
787.320, 1112.841
788.605, 1131.875
789.889, 1144.548
791.173, 1151.203
792.457, 1133.821
793.741, 1147.478
795.024, 1132.000
796.307, 1142.000
797.591, 1154.000
798.873, 1196.000
800.156, 1164.000
801.439, 1184.000
802.721, 1180.000
804.003, 1183.000
805.285, 1179.000
806.566, 1198.000
807.848, 1204.000
809.129, 1190.000
810.410, 1221.000
811.691, 1192.000
812.971, 1190.000
814.252, 1209.000
815.532, 1232.000
816.812, 1225.000
818.092, 1262.000
819.371, 1256.000
820.651, 1286.000
821.930, 1291.514
823.209, 1311.000
824.488, 1299.000
825.766, 1302.000
827.045, 1296.000
828.323, 1318.000
829.601, 1312.000
830.878, 1300.000
832.156, 1298.000
833.433, 1283.000
834.710, 1300.000
835.987, 1317.000
837.264, 1352.000
838.540, 1315.000
839.817, 1313.000
841.093, 1262.000
842.369, 1310.000
843.644, 1289.000
844.920, 1284.000
846.195, 1296.000
847.470, 1320.000
848.745, 1302.000
850.020, 1317.106
851.294, 1280.000
852.568, 1303.000
853.842, 1290.000
855.116, 1241.000
856.390, 1291.000
857.663, 1225.000
858.936, 1242.000
860.209, 1252.000
861.482, 1262.000
862.755, 1257.000
864.027, 1254.168
865.299, 1229.000
866.571, 1243.000
867.843, 1205.000
869.115, 1216.000
870.386, 1220.000
871.657, 1200.000
872.928, 1213.000
874.199, 1192.000
875.470, 1236.000
876.740, 1198.000
878.010, 1207.000
879.280, 1191.000
880.550, 1187.000
881.820, 1225.000
883.089, 1179.000
884.358, 1216.000
885.627, 1216.000
886.896, 1216.000
888.164, 1203.000
889.433, 1218.000
890.701, 1179.000
891.969, 1186.000
893.236, 1179.078
894.504, 1184.033
895.771, 1170.000
897.038, 1208.000
898.305, 1204.000
899.572, 1202.000
900.838, 1188.000
902.105, 1213.000
903.371, 1217.000
904.637, 1227.000
905.902, 1241.000
907.168, 1234.000
908.433, 1236.000
909.698, 1221.000
910.963, 1238.173
912.228, 1257.000
913.492, 1272.000
914.757, 1268.000
916.021, 1288.000
917.285, 1288.000
918.548, 1289.000
919.812, 1296.000
921.075, 1288.000
922.338, 1305.000
923.601, 1336.000
924.864, 1291.000
926.126, 1325.000
927.388, 1341.000
928.650, 1337.000
929.912, 1371.000
931.174, 1374.000
932.435, 1377.000
933.697, 1400.000
934.958, 1450.000
936.218, 1477.000
937.479, 1516.000
938.739, 1538.000
940.000, 1653.000
941.260, 1730.000
942.520, 1843.000
943.779, 1976.000
945.039, 2151.000
946.298, 2348.000
947.557, 2605.000
948.816, 2737.000
950.074, 2910.000
951.333, 2897.000
952.591, 2703.000
953.849, 2573.000
955.107, 2322.000
956.365, 2103.000
957.622, 1961.000
958.879, 1768.000
960.136, 1709.000
961.393, 1556.000
962.650, 1521.000
963.906, 1483.000
965.162, 1425.000
966.418, 1423.000
967.674, 1382.000
968.930, 1356.000
970.185, 1328.000
971.441, 1310.000
972.696, 1315.000
973.950, 1314.000
975.205, 1323.000
976.459, 1328.000
977.714, 1336.000
978.968, 1357.000
980.222, 1356.000
981.475, 1348.000
982.729, 1355.000
983.982, 1394.000
985.235, 1370.000
986.488, 1450.000
987.740, 1392.000
988.993, 1455.000
990.245, 1433.000
991.497, 1408.000
992.749, 1487.000
994.000, 1442.000
995.252, 1458.000
996.503, 1507.000
997.754, 1522.000
999.005, 1577.000
1000.256, 1568.000
1001.506, 1649.000
1002.756, 1724.000
1004.006, 1768.000
1005.256, 1865.000
1006.506, 1925.000
1007.755, 2048.000
1009.005, 2212.000
1010.254, 2288.000
1011.502, 2507.000
1012.751, 2610.000
1014.000, 2729.000
1015.248, 2809.886
1016.496, 2836.000
1017.744, 2848.000
1018.991, 2769.000
1020.239, 2665.000
1021.486, 2595.000
1022.733, 2411.000
1023.980, 2240.000
1025.227, 2122.000
1026.473, 1966.000
1027.719, 1913.000
1028.965, 1826.000
1030.211, 1708.000
1031.457, 1699.000
1032.702, 1664.000
1033.948, 1610.000
1035.193, 1631.000
1036.438, 1592.000
1037.682, 1583.000
1038.927, 1548.000
1040.171, 1568.000
1041.415, 1560.000
1042.659, 1542.000
1043.903, 1536.000
1045.146, 1560.000
1046.390, 1545.000
1047.633, 1554.000
1048.876, 1513.000
1050.118, 1557.000
1051.361, 1523.000
1052.603, 1554.000
1053.845, 1509.000
1055.087, 1486.000
1056.329, 1500.000
1057.571, 1501.245
1058.812, 1481.954
1060.053, 1536.000
1061.294, 1475.000
1062.535, 1451.000
1063.775, 1500.000
1065.016, 1492.000
1066.256, 1500.000
1067.496, 1501.000
1068.736, 1515.000
1069.975, 1529.000
1071.214, 1587.000
1072.454, 1582.000
1073.693, 1633.000
1074.931, 1597.000
1076.170, 1589.000
1077.408, 1612.000
1078.647, 1569.000
1079.885, 1594.000
1081.122, 1530.000
1082.360, 1472.000
1083.597, 1456.000
1084.835, 1377.000
1086.072, 1374.000
1087.308, 1334.000
1088.545, 1297.000
1089.781, 1288.000
1091.018, 1252.000
1092.254, 1262.000
1093.490, 1252.000
1094.725, 1205.000
1095.961, 1184.000
1097.196, 1217.000
1098.431, 1188.000
1099.666, 1178.000
1100.900, 1179.000
1102.135, 1161.266
1103.369, 1163.445
1104.603, 1145.000
1105.837, 1153.000
1107.071, 1147.000
1108.304, 1123.000
1109.538, 1105.000
1110.771, 1108.000
1112.004, 1103.000
1113.236, 1099.914
1114.469, 1102.026
1115.701, 1101.000
1116.933, 1112.000
1118.165, 1115.000
1119.397, 1137.000
1120.629, 1137.000
1121.860, 1222.000
1123.091, 1243.000
1124.322, 1221.000
1125.553, 1152.000
1126.783, 1125.000
1128.014, 1094.000
1129.244, 1125.000
1130.474, 1104.000
1131.704, 1128.000
1132.933, 1092.000
1134.163, 1069.000
1135.392, 1088.000
1136.621, 1090.000
1137.850, 1103.000
1139.079, 1095.000
1140.307, 1106.000
1141.535, 1097.000
1142.763, 1118.000
1143.991, 1077.000
1145.219, 1129.000
1146.446, 1097.000
1147.674, 1114.000
1148.901, 1120.000
1150.128, 1085.000
1151.354, 1121.000
1152.581, 1136.000
1153.807, 1109.000
1155.033, 1139.000
1156.259, 1069.000
1157.485, 1078.000
1158.710, 1103.000
1159.936, 1108.000
1161.161, 1110.891
1162.386, 1107.000
1163.611, 1098.000
1164.835, 1103.000
1166.060, 1078.000
1167.284, 1097.000
1168.508, 1099.000
1169.732, 1072.000
1170.955, 1080.000
1172.179, 1084.000
1173.402, 1080.000
1174.625, 1093.000
1175.848, 1086.000
1177.070, 1096.000
1178.293, 1103.000
1179.515, 1116.000
1180.737, 1108.000
1181.959, 1114.000
1183.181, 1073.000
1184.402, 1128.000
1185.624, 1082.000
1186.845, 1088.000
1188.066, 1082.000
1189.286, 1100.000
1190.507, 1105.000
1191.727, 1102.000
1192.947, 1074.000
1194.167, 1121.000
1195.387, 1091.000
1196.607, 1093.000
1197.826, 1106.000
1199.045, 1090.000
1200.264, 1090.000
1201.483, 1100.000
1202.702, 1093.000
1203.920, 1098.422
1205.138, 1102.000
1206.356, 1104.000
1207.574, 1098.000
1208.792, 1104.000
1210.009, 1100.840
1211.227, 1111.000
1212.444, 1100.000
1213.661, 1085.000
1214.877, 1086.000
1216.094, 1088.000
1217.310, 1086.853
1218.526, 1080.000
1219.742, 1100.000
1220.958, 1088.000
1222.173, 1103.000
1223.389, 1116.000
1224.604, 1108.000
1225.819, 1104.000
1227.034, 1098.000
1228.248, 1091.000
1229.463, 1121.000
1230.677, 1096.000
1231.891, 1098.000
1233.105, 1128.000
1234.318, 1115.000
1235.532, 1099.000
1236.745, 1097.000
1237.958, 1102.000
1239.171, 1109.000
1240.384, 1093.000
1241.596, 1083.000
1242.809, 1086.625
1244.021, 1096.000
1245.233, 1090.000
1246.444, 1066.000
1247.656, 1070.000
1248.867, 1117.000
1250.079, 1092.000
1251.290, 1098.000
1252.500, 1108.000
1253.711, 1083.000
1254.921, 1088.000
1256.132, 1106.000
1257.342, 1073.000
1258.552, 1123.000
1259.761, 1063.000
1260.971, 1065.000
1262.180, 1091.000
1263.389, 1083.000
1264.598, 1093.000
1265.807, 1086.000
1267.015, 1077.000
1268.223, 1084.000
1269.432, 1084.000
1270.640, 1069.000
##END=



