##NAMES=Whewellite
##RRUFFID=R050240
##IDEAL CHEMISTRY=Ca(C_2_)^6+^O_4_&#183;H_2_O
##LOCALITY=Huron River, Milan, Ohio, USA
##OWNER=RRUFF
##SOURCE=Marcus Origlieri
##DESCRIPTION=White fragment
##STATUS=The identification of this mineral has been confirmed by X-ray diffraction and chemical analysis
##URL=rruff.info/R050240
##MEASURED CHEMISTRY=Ca_1.00_C_2_O_4_Â·H_2_O
##PIN_ID=L01310
##ORIENTATION=Laser parallel to (-1 0 -1). Fiducial mark perpendicular to laser is parallel to b [0 1 0]
108.2800, 7839.000
109.5120, 7717.000
110.7440, 7865.000
111.9760, 8020.000
113.2080, 8296.000
114.4400, 8498.000
115.6710, 8853.000
116.9030, 9212.000
118.1340, 9655.000
119.3650, 10100.00
120.5960, 10504.00
121.8270, 11208.00
123.0580, 11935.00
124.2880, 12577.00
125.5190, 13174.00
126.7490, 14178.00
127.9790, 14700.00
129.2090, 15559.00
130.4390, 16452.00
131.6680, 16903.00
132.8980, 17424.00
134.1270, 17494.00
135.3560, 17669.00
136.5850, 17522.00
137.8140, 17256.00
139.0430, 16810.00
140.2710, 16131.00
141.5000, 15356.00
142.7280, 14719.00
143.9560, 13926.00
145.1840, 12732.00
146.4120, 12121.00
147.6390, 11452.00
148.8670, 10828.00
150.0940, 10316.00
151.3210, 9891.000
152.5490, 9748.000
153.7750, 9394.000
155.0020, 9374.000
156.2290, 9157.000
157.4550, 9084.000
158.6810, 8959.000
159.9080, 8948.000
161.1340, 8972.000
162.3590, 8953.000
163.5850, 8942.854
164.8110, 8868.000
166.0360, 8917.000
167.2610, 8995.000
168.4860, 9015.000
169.7110, 9184.000
170.9360, 9133.000
172.1610, 9329.000
173.3850, 9392.000
174.6100, 9654.000
175.8340, 9813.000
177.0580, 10013.00
178.2820, 10480.00
179.5050, 10898.00
180.7290, 11177.00
181.9520, 11726.00
183.1760, 12248.00
184.3990, 12668.00
185.6220, 13150.00
186.8450, 13614.00
188.0670, 14207.00
189.2900, 14655.00
190.5120, 15281.00
191.7340, 15701.00
192.9560, 16360.00
194.1780, 16389.00
195.4000, 16786.00
196.6220, 17126.00
197.8430, 17162.00
199.0640, 17366.00
200.2860, 17444.00
201.5070, 17710.00
202.7270, 17906.00
203.9480, 18199.00
205.1690, 18187.00
206.3890, 18331.00
207.6090, 18258.00
208.8290, 18119.00
210.0490, 17487.00
211.2690, 17007.00
212.4890, 16468.00
213.7080, 16302.00
214.9280, 15590.00
216.1470, 15047.00
217.3660, 14859.00
218.5850, 14729.00
219.8030, 14461.00
221.0220, 14356.00
222.2400, 14148.00
223.4590, 13981.00
224.6770, 13692.00
225.8950, 13059.00
227.1120, 12653.00
228.3300, 11886.00
229.5480, 11626.00
230.7650, 11230.00
231.9820, 11066.00
233.1990, 10803.00
234.4160, 10655.00
235.6330, 10604.00
236.8490, 10822.00
238.0660, 10870.00
239.2820, 10867.00
240.4980, 10971.00
241.7140, 11009.00
242.9300, 11078.00
244.1460, 11293.00
245.3610, 11205.00
246.5770, 11323.00
247.7920, 11234.00
249.0070, 11257.00
250.2220, 11065.00
251.4370, 11022.00
252.6510, 10865.00
253.8660, 10686.00
255.0800, 10508.00
256.2940, 10218.00
257.5080, 10282.00
258.7220, 10150.00
259.9360, 10109.00
261.1490, 9742.000
262.3630, 9723.000
263.5760, 9719.000
264.7890, 9704.000
266.0020, 9652.000
267.2150, 9675.000
268.4270, 9684.000
269.6400, 9602.000
270.8520, 9564.000
272.0640, 9615.000
273.2760, 9662.000
274.4880, 9844.000
275.7000, 9626.000
276.9120, 9698.000
278.1230, 9849.000
279.3340, 9716.000
280.5450, 9739.000
281.7560, 9727.000
282.9670, 9803.000
284.1780, 9761.000
285.3880, 9838.000
286.5980, 9838.579
287.8090, 9808.000
289.0190, 9850.000
290.2290, 9808.000
291.4380, 9788.000
292.6480, 9807.000
293.8570, 9855.000
295.0670, 9783.000
296.2760, 9894.000
297.4850, 9723.000
298.6930, 9810.000
299.9020, 9734.000
301.1110, 9871.000
302.3190, 9741.000
303.5270, 9799.000
304.7350, 9720.000
305.9430, 9823.000
307.1510, 9734.000
308.3580, 9698.000
309.5660, 9682.000
310.7730, 9707.000
311.9800, 9669.000
313.1870, 9669.000
314.3940, 9730.000
315.6010, 9713.000
316.8070, 9721.000
318.0130, 9867.000
319.2200, 9883.000
320.4260, 9844.000
321.6310, 9862.000
322.8370, 9826.000
324.0430, 9825.000
325.2480, 9933.000
326.4540, 9894.000
327.6590, 9906.000
328.8640, 9771.000
330.0680, 9840.000
331.2730, 10021.00
332.4780, 9908.000
333.6820, 9885.000
334.8860, 10053.00
336.0900, 10013.00
337.2940, 9990.000
338.4980, 10022.00
339.7010, 9987.000
340.9050, 10121.00
342.1080, 10102.00
343.3110, 10102.00
344.5140, 10050.00
345.7170, 9986.000
346.9200, 10070.00
348.1220, 10120.00
349.3240, 10054.00
350.5270, 10057.00
351.7290, 10090.00
352.9310, 10257.00
354.1320, 10271.00
355.3340, 10285.00
356.5350, 10243.00
357.7370, 10135.00
358.9380, 10150.00
360.1390, 10132.96
361.3400, 10148.28
362.5400, 10197.00
363.7410, 10214.00
364.9410, 10306.00
366.1410, 10293.00
367.3410, 10352.62
368.5410, 10307.00
369.7410, 10429.00
370.9400, 10479.00
372.1400, 10503.00
373.3390, 10455.00
374.5380, 10514.00
375.7370, 10509.53
376.9360, 10456.00
378.1350, 10574.00
379.3330, 10543.00
380.5310, 10638.00
381.7300, 10654.00
382.9280, 10578.00
384.1260, 10481.00
385.3230, 10567.00
386.5210, 10597.00
387.7180, 10457.00
388.9160, 10495.00
390.1130, 10543.00
391.3100, 10551.00
392.5060, 10656.00
393.7030, 10554.00
394.9000, 10788.00
396.0960, 10580.00
397.2920, 10554.00
398.4880, 10812.00
399.6840, 10760.00
400.8800, 10656.00
402.0750, 10648.00
403.2710, 10764.00
404.4660, 10767.00
405.6610, 10772.00
406.8560, 10731.00
408.0510, 10754.79
409.2450, 10759.47
410.4400, 10764.00
411.6340, 10818.00
412.8280, 10804.00
414.0220, 10874.00
415.2160, 10843.00
416.4100, 10989.00
417.6030, 10935.00
418.7970, 10933.00
419.9900, 10890.00
421.1830, 11006.00
422.3760, 10956.00
423.5690, 10932.00
424.7610, 10932.00
425.9540, 11124.00
427.1460, 11023.00
428.3380, 11054.00
429.5300, 11084.00
430.7220, 10916.00
431.9140, 11165.00
433.1050, 11151.00
434.2970, 11154.00
435.4880, 11068.00
436.6790, 11144.00
437.8700, 11141.00
439.0610, 11137.00
440.2510, 11210.00
441.4420, 11259.00
442.6320, 11287.00
443.8220, 11241.00
445.0120, 11308.00
446.2020, 11217.00
447.3910, 11341.00
448.5810, 11360.00
449.7700, 11342.00
450.9600, 11299.00
452.1490, 11346.00
453.3370, 11439.00
454.5260, 11487.00
455.7150, 11353.00
456.9030, 11467.00
458.0910, 11422.00
459.2800, 11458.00
460.4670, 11409.00
461.6550, 11615.00
462.8430, 11478.00
464.0300, 11643.00
465.2180, 11672.00
466.4050, 11722.00
467.5920, 11570.00
468.7790, 11679.00
469.9650, 11694.00
471.1520, 11686.00
472.3380, 11761.00
473.5250, 11616.00
474.7110, 11794.00
475.8970, 11776.00
477.0820, 11934.00
478.2680, 11862.00
479.4540, 11946.00
480.6390, 12066.00
481.8240, 12021.00
483.0090, 12294.00
484.1940, 12267.00
485.3780, 12293.00
486.5630, 12480.00
487.7470, 12729.00
488.9320, 12935.00
490.1160, 13306.00
491.3000, 13798.00
492.4830, 14145.00
493.6670, 14504.00
494.8500, 14936.00
496.0340, 15262.00
497.2170, 15562.00
498.4000, 16065.00
499.5820, 16219.00
500.7650, 16452.00
501.9480, 16439.00
503.1300, 16252.00
504.3120, 15797.00
505.4940, 15302.00
506.6760, 15022.00
507.8580, 14620.00
509.0390, 14182.00
510.2210, 13775.00
511.4020, 13445.00
512.5830, 13595.00
513.7640, 13552.00
514.9450, 13322.00
516.1250, 13244.00
517.3060, 13090.00
518.4860, 13147.00
519.6660, 13256.00
520.8460, 13156.00
522.0260, 13008.00
523.2060, 13007.00
524.3850, 12854.00
525.5650, 12831.00
526.7440, 12697.00
527.9230, 12821.00
529.1020, 12647.00
530.2810, 12541.00
531.4590, 12664.00
532.6380, 12604.00
533.8160, 12654.00
534.9940, 12488.00
536.1720, 12518.00
537.3500, 12459.00
538.5270, 12424.66
539.7050, 12540.00
540.8820, 12427.00
542.0590, 12448.00
543.2360, 12500.00
544.4130, 12509.00
545.5900, 12530.00
546.7660, 12573.14
547.9430, 12583.13
549.1190, 12620.00
550.2950, 12612.00
551.4710, 12571.00
552.6470, 12553.00
553.8220, 12646.00
554.9980, 12575.00
556.1730, 12712.00
557.3480, 12660.00
558.5230, 12672.00
559.6980, 12805.00
560.8730, 12759.00
562.0470, 12892.00
563.2220, 12629.00
564.3960, 12928.00
565.5700, 12851.00
566.7440, 12811.00
567.9170, 12956.00
569.0910, 12834.00
570.2640, 13149.00
571.4380, 12964.00
572.6110, 13152.00
573.7840, 13164.00
574.9570, 13124.00
576.1290, 13224.00
577.3020, 13256.00
578.4740, 13397.00
579.6460, 13463.00
580.8180, 13585.00
581.9900, 13538.00
583.1620, 13754.00
584.3330, 13794.00
585.5040, 14040.00
586.6760, 14070.00
587.8470, 14144.00
589.0180, 14302.00
590.1880, 14419.00
591.3590, 14370.00
592.5290, 14380.00
593.7000, 14419.73
594.8700, 14461.00
596.0400, 14440.00
597.2090, 14461.00
598.3790, 14440.00
599.5490, 14357.00
600.7180, 14166.00
601.8870, 14080.00
603.0560, 14010.00
604.2250, 13743.00
605.3940, 13806.00
606.5620, 13759.00
607.7300, 13608.00
608.8990, 13719.00
610.0670, 13647.00
611.2350, 13554.00
612.4020, 13588.00
613.5700, 13565.00
614.7370, 13570.00
615.9050, 13508.00
617.0720, 13565.00
618.2390, 13551.00
619.4060, 13508.00
620.5720, 13582.00
621.7390, 13556.50
622.9050, 13496.00
624.0710, 13539.00
625.2370, 13568.00
626.4030, 13479.00
627.5690, 13523.00
628.7340, 13569.00
629.9000, 13542.00
631.0650, 13724.00
632.2300, 13577.00
633.3950, 13612.00
634.5600, 13676.00
635.7240, 13602.00
636.8890, 13613.00
638.0530, 13589.00
639.2170, 13702.00
640.3810, 13805.00
641.5450, 13723.00
642.7080, 13773.00
643.8720, 13759.00
645.0350, 13600.00
646.1980, 13782.00
647.3610, 13793.00
648.5240, 14025.00
649.6870, 13880.00
650.8490, 13846.00
652.0120, 13882.00
653.1740, 13677.00
654.3360, 13844.00
655.4980, 13816.00
656.6600, 13758.00
657.8210, 13834.00
658.9830, 13791.00
660.1440, 13821.00
661.3050, 13846.00
662.4660, 13988.00
663.6270, 13941.00
664.7870, 14048.00
665.9480, 14030.00
667.1080, 14084.00
668.2680, 14091.00
669.4280, 14050.00
670.5880, 14101.00
671.7480, 14116.77
672.9070, 14176.00
674.0670, 14165.00
675.2260, 14090.00
676.3850, 14032.00
677.5440, 14053.45
678.7030, 14107.00
679.8610, 14109.00
681.0200, 14128.00
682.1780, 14195.00
683.3360, 14220.00
684.4940, 14226.00
685.6520, 14280.00
686.8090, 14237.00
687.9670, 14257.00
689.1240, 14152.00
690.2810, 14228.00
691.4380, 14288.00
692.5950, 14166.00
693.7520, 14269.00
694.9080, 14317.00
696.0650, 14216.00
697.2210, 14247.00
698.3770, 14321.00
699.5330, 14446.00
700.6880, 14538.00
701.8440, 14272.00
702.9990, 14285.00
704.1550, 14294.00
705.3100, 14354.00
706.4650, 14460.00
707.6190, 14375.00
708.7740, 14423.00
709.9290, 14531.00
711.0830, 14487.00
712.2370, 14546.00
713.3910, 14458.00
714.5450, 14487.00
715.6980, 14623.00
716.8520, 14655.00
718.0050, 14484.00
719.1580, 14687.00
720.3110, 14527.00
721.4640, 14540.00
722.6170, 14606.00
723.7700, 14492.00
724.9220, 14698.00
726.0740, 14696.00
727.2260, 14820.00
728.3780, 14626.00
729.5300, 14753.00
730.6810, 14705.00
731.8330, 14703.00
732.9840, 14880.00
734.1350, 14709.00
735.2860, 14589.00
736.4370, 14687.00
737.5880, 14890.00
738.7380, 14892.00
739.8880, 14861.00
741.0390, 14865.00
742.1890, 14921.00
743.3380, 14946.00
744.4880, 14969.09
745.6380, 14962.00
746.7870, 15003.00
747.9360, 14905.00
749.0850, 14878.00
750.2340, 14872.00
751.3830, 14971.00
752.5310, 14988.00
753.6800, 15010.67
754.8280, 15078.00
755.9760, 15028.00
757.1240, 15030.00
758.2720, 14998.76
759.4190, 15063.00
760.5670, 15041.00
761.7140, 15044.00
762.8610, 15208.00
764.0080, 15076.00
765.1550, 15183.00
766.3020, 15254.00
767.4480, 15262.00
768.5950, 15354.00
769.7410, 15236.00
770.8870, 15393.00
772.0330, 15403.00
773.1780, 15455.00
774.3240, 15328.00
775.4690, 15521.00
776.6140, 15680.00
777.7590, 15489.00
778.9040, 15715.00
780.0490, 15451.00
781.1940, 15528.00
782.3380, 15560.00
783.4820, 15428.00
784.6260, 15562.00
785.7700, 15635.00
786.9140, 15451.00
788.0580, 15504.00
789.2010, 15597.00
790.3450, 15593.00
791.4880, 15642.98
792.6310, 15614.00
793.7730, 15638.00
794.9160, 15557.00
796.0590, 15441.00
797.2010, 15490.00
798.3430, 15582.00
799.4850, 15473.00
800.6270, 15628.00
801.7690, 15608.00
802.9100, 15577.00
804.0520, 15709.00
805.1930, 15750.00
806.3340, 15592.00
807.4750, 15728.00
808.6160, 15662.00
809.7560, 15734.00
810.8970, 15789.00
812.0370, 15733.00
813.1770, 15818.00
814.3170, 15814.82
815.4570, 15796.00
816.5960, 15849.00
817.7360, 15983.00
818.8750, 16003.00
820.0140, 16059.00
821.1530, 15926.00
822.2920, 16036.00
823.4310, 15967.00
824.5690, 15969.00
825.7070, 15962.00
826.8460, 15984.00
827.9840, 16085.00
829.1220, 16180.00
830.2590, 16070.00
831.3970, 16141.00
832.5340, 16063.00
833.6710, 16017.00
834.8080, 16077.00
835.9450, 16072.30
837.0820, 16202.00
838.2190, 16176.00
839.3550, 16227.00
840.4910, 16285.00
841.6270, 16338.00
842.7630, 16373.00
843.8990, 16286.00
845.0350, 16326.00
846.1700, 16350.00
847.3060, 16439.00
848.4410, 16646.00
849.5760, 16681.00
850.7100, 16574.00
851.8450, 16727.00
852.9800, 16940.00
854.1140, 17011.00
855.2480, 17537.00
856.3820, 17465.00
857.5160, 17731.00
858.6500, 18231.00
859.7830, 18418.00
860.9170, 18634.00
862.0500, 18708.00
863.1830, 18621.00
864.3160, 18471.00
865.4480, 18443.00
866.5810, 18303.86
867.7130, 18094.00
868.8460, 18051.00
869.9780, 18024.00
871.1100, 17850.00
872.2410, 17961.00
873.3730, 17986.00
874.5050, 18021.00
875.6360, 18047.00
876.7670, 18178.00
877.8980, 18395.00
879.0290, 18475.00
880.1590, 18697.00
881.2900, 18919.00
882.4200, 18970.00
883.5500, 18953.00
884.6800, 19028.00
885.8100, 19610.00
886.9400, 20203.00
888.0690, 20803.00
889.1990, 21686.00
890.3280, 22617.00
891.4570, 23243.00
892.5860, 23617.00
893.7140, 24345.00
894.8430, 24902.00
895.9710, 24315.00
897.1000, 23616.00
898.2280, 22272.00
899.3560, 20689.00
900.4830, 19350.00
901.6110, 18457.00
902.7380, 18079.00
903.8660, 17946.00
904.9930, 17853.00
906.1200, 17538.00
907.2460, 17802.00
908.3730, 17773.00
909.5000, 17646.00
910.6260, 17750.00
911.7520, 17917.00
912.8780, 17842.00
914.0040, 17810.00
915.1290, 17939.00
916.2550, 17907.00
917.3800, 18063.00
918.5050, 18143.00
919.6300, 18101.00
920.7550, 18276.00
921.8800, 17941.00
923.0040, 18196.00
924.1290, 18102.00
925.2530, 18349.00
926.3770, 18417.00
927.5010, 18429.00
928.6250, 18404.00
929.7480, 18412.00
930.8720, 18410.00
931.9950, 18586.00
933.1180, 18427.00
934.2410, 18420.00
935.3640, 18651.00
936.4860, 18654.00
937.6090, 18691.00
938.7310, 18584.00
939.8530, 18660.00
940.9750, 18784.00
942.0970, 18814.00
943.2180, 18609.00
944.3400, 18800.00
945.4610, 18728.00
946.5820, 18385.00
947.7030, 18651.00
948.8240, 18443.00
949.9450, 18292.00
951.0650, 18436.00
952.1860, 18403.00
953.3060, 18273.00
954.4260, 18108.00
955.5460, 18202.00
956.6650, 18109.00
957.7850, 17993.00
958.9040, 17950.00
960.0230, 17983.00
961.1420, 18089.00
962.2610, 18068.00
963.3800, 18113.00
964.4990, 17964.00
965.6170, 17884.00
966.7350, 17973.00
967.8530, 17950.00
968.9710, 17867.00
970.0890, 17956.00
971.2070, 17828.00
972.3240, 17955.00
973.4410, 17901.00
974.5580, 18102.00
975.6750, 18017.00
976.7920, 17945.00
977.9090, 18051.00
979.0250, 18110.00
980.1410, 17983.00
981.2580, 17961.00
982.3740, 18083.00
983.4890, 18020.00
984.6050, 18023.00
985.7200, 18153.00
986.8360, 18042.00
987.9510, 18164.00
989.0660, 18144.00
990.1810, 18064.00
991.2950, 18209.00
992.4100, 18165.00
993.5240, 18146.00
994.6390, 18148.00
995.7530, 18258.00
996.8660, 18210.00
997.9800, 18236.00
999.0940, 18279.00
1000.207, 18257.00
1001.320, 18297.00
1002.433, 18373.00
1003.546, 18334.00
1004.659, 18363.00
1005.772, 18417.00
1006.884, 18436.56
1007.996, 18356.00
1009.108, 18468.00
1010.220, 18522.00
1011.332, 18390.00
1012.444, 18481.00
1013.555, 18355.00
1014.666, 18529.00
1015.777, 18641.00
1016.888, 18588.00
1017.999, 18690.00
1019.110, 18631.19
1020.220, 18557.00
1021.331, 18556.00
1022.441, 18543.00
1023.551, 18532.24
1024.661, 18558.00
1025.770, 18568.00
1026.880, 18631.00
1027.989, 18696.00
1029.098, 18735.92
1030.207, 18750.88
1031.316, 18807.00
1032.425, 18763.00
1033.533, 18794.16
1034.642, 18732.00
1035.750, 18811.00
1036.858, 18810.00
1037.966, 18834.00
1039.073, 18811.00
1040.181, 18758.00
1041.288, 18745.00
1042.396, 18806.39
1043.503, 18733.00
1044.610, 18972.00
1045.716, 18947.00
1046.823, 19030.00
1047.929, 18998.00
1049.036, 18988.99
1050.142, 18954.00
1051.248, 18937.00
1052.353, 18931.00
1053.459, 18912.00
1054.564, 19088.00
1055.670, 18921.00
1056.775, 18777.00
1057.880, 19125.00
1058.985, 18722.00
1060.089, 19045.00
1061.194, 18906.00
1062.298, 18943.00
1063.402, 18951.00
1064.506, 19192.00
1065.610, 19156.00
1066.713, 19242.00
1067.817, 19074.00
1068.920, 19054.00
1070.023, 19200.00
1071.126, 19112.00
1072.229, 19197.00
1073.332, 19134.00
1074.435, 19216.00
1075.537, 19245.00
1076.639, 19207.00
1077.741, 19104.00
1078.843, 19243.00
1079.945, 19284.00
1081.046, 19406.00
1082.148, 19325.00
1083.249, 19456.00
1084.350, 19448.00
1085.451, 19510.00
1086.551, 19459.00
1087.652, 19421.00
1088.752, 19406.00
1089.853, 19386.02
1090.953, 19353.37
1092.053, 19371.00
1093.152, 19365.00
1094.252, 19346.00
1095.351, 19502.00
1096.451, 19587.00
1097.550, 19454.00
1098.649, 19546.00
1099.748, 19450.00
1100.846, 19500.00
1101.945, 19532.00
1103.043, 19616.00
1104.141, 19617.00
1105.239, 19581.00
1106.337, 19542.00
1107.434, 19706.00
1108.532, 19381.00
1109.629, 19712.00
1110.726, 19627.00
1111.823, 19600.00
1112.920, 19785.00
1114.017, 19723.00
1115.113, 19829.00
1116.210, 19800.00
1117.306, 19844.39
1118.402, 19887.00
1119.498, 19944.00
1120.593, 20099.00
1121.689, 20188.95
1122.784, 20158.62
1123.879, 20181.00
1124.974, 20004.00
1126.069, 19863.00
1127.164, 19640.00
1128.259, 19953.00
1129.353, 19837.00
1130.447, 19933.00
1131.541, 19797.00
1132.635, 19959.00
1133.729, 20094.00
1134.822, 19846.00
1135.916, 19857.00
1137.009, 20035.00
1138.102, 19934.00
1139.195, 20014.00
1140.288, 19969.00
1141.380, 19965.00
1142.473, 19984.00
1143.565, 20004.00
1144.657, 20021.41
1145.749, 20053.40
1146.841, 20063.00
1147.932, 20116.00
1149.024, 20120.00
1150.115, 20142.00
1151.206, 20227.00
1152.297, 20170.00
1153.388, 20043.00
1154.479, 20178.00
1155.569, 20340.00
1156.659, 20028.00
1157.750, 20116.00
1158.839, 20261.00
1159.929, 20115.00
1161.019, 20228.00
1162.108, 20292.00
1163.198, 20283.00
1164.287, 20141.00
1165.376, 20326.00
1166.465, 20466.00
1167.553, 20206.00
1168.642, 20275.00
1169.730, 20367.00
1170.818, 20445.00
1171.906, 20496.00
1172.994, 20277.00
1174.082, 20243.00
1175.170, 20262.00
1176.257, 20523.00
1177.344, 20480.00
1178.431, 20547.00
1179.518, 20577.00
1180.605, 20471.00
1181.691, 20368.00
1182.778, 20531.00
1183.864, 20767.00
1184.950, 20588.00
1186.036, 20687.00
1187.122, 20505.00
1188.207, 20693.00
1189.292, 20565.00
1190.378, 20624.00
1191.463, 20555.00
1192.548, 20553.00
1193.632, 20785.00
1194.717, 20752.00
1195.801, 20696.00
1196.886, 20528.00
1197.970, 20580.00
1199.054, 20775.00
1200.137, 20797.00
1201.221, 20800.00
1202.305, 20655.00
1203.388, 20768.00
1204.471, 20794.00
1205.554, 20850.00
1206.637, 20733.00
1207.719, 20676.00
1208.802, 20682.00
1209.884, 20901.00
1210.966, 20884.00
1212.048, 20862.00
1213.130, 20917.00
1214.212, 20729.00
1215.293, 21121.00
1216.374, 21087.00
1217.456, 20992.00
1218.536, 21134.00
1219.617, 20908.00
1220.698, 20993.00
1221.778, 20996.65
1222.859, 21230.00
1223.939, 21031.00
1225.019, 21056.00
1226.099, 21039.00
1227.178, 21010.00
1228.258, 21106.00
1229.337, 21136.00
1230.417, 21164.00
1231.496, 21108.00
1232.574, 21237.00
1233.653, 21066.00
1234.732, 21315.00
1235.810, 21141.00
1236.888, 21325.00
1237.966, 21268.00
1239.044, 21243.00
1240.122, 21218.00
1241.199, 21369.00
1242.277, 21270.00
1243.354, 21297.00
1244.431, 21454.00
1245.508, 21233.00
1246.585, 21393.00
1247.661, 21413.00
1248.738, 21372.00
1249.814, 21319.00
1250.890, 21372.00
1251.966, 21436.00
1253.042, 21211.00
1254.117, 21402.00
1255.193, 21561.00
1256.268, 21194.00
1257.343, 21387.00
1258.418, 21455.00
1259.493, 21464.00
1260.567, 21488.00
1261.642, 21473.00
1262.716, 21442.00
1263.790, 21571.00
1264.864, 21753.00
1265.938, 21443.00
1267.011, 21624.00
1268.085, 21796.00
1269.158, 21581.00
1270.231, 21826.00
1271.304, 21616.00
1272.377, 21489.00
1273.450, 21635.00
1274.522, 21548.00
1275.594, 21557.96
1276.666, 21758.00
1277.738, 21584.00
1278.810, 21672.00
1279.882, 21759.00
1280.953, 21745.00
1282.025, 21763.00
1283.096, 21799.00
1284.167, 21771.60
1285.238, 21844.00
1286.308, 21727.00
1287.379, 21712.00
1288.449, 21662.00
1289.519, 21881.00
1290.589, 21735.00
1291.659, 22008.00
1292.729, 21815.00
1293.798, 21836.00
1294.868, 21804.00
1295.937, 21950.00
1297.006, 22006.00
1298.075, 21953.00
1299.143, 22047.00
1300.212, 22172.00
1301.280, 21998.00
1302.348, 21969.00
1303.416, 22036.00
1304.484, 21937.00
1305.552, 21975.00
1306.620, 21892.00
1307.687, 21957.19
1308.754, 22213.00
1309.821, 22100.00
1310.888, 21939.00
1311.955, 21999.00
1313.021, 22274.00
1314.088, 22131.00
1315.154, 22237.00
1316.220, 22062.00
1317.286, 22102.33
1318.352, 22243.00
1319.417, 22171.00
1320.483, 22311.03
1321.548, 22456.00
1322.613, 22452.00
1323.678, 22494.23
1324.743, 22422.00
1325.807, 22445.00
1326.872, 22455.23
1327.936, 22294.00
1329.000, 22494.00
1330.064, 22461.00
1331.128, 22483.00
1332.191, 22620.00
1333.255, 22341.00
1334.318, 22409.00
1335.381, 22531.00
1336.444, 22450.00
1337.507, 22708.00
1338.569, 22556.00
1339.632, 22638.00
1340.694, 22495.00
1341.756, 22692.00
1342.818, 22598.00
1343.880, 22560.00
1344.941, 22552.00
1346.003, 22567.00
1347.064, 22569.00
1348.125, 22548.00
1349.186, 22682.00
1350.247, 22617.00
1351.308, 22721.00
1352.368, 22678.00
1353.428, 23001.00
1354.489, 22749.00
1355.549, 22798.00
1356.608, 22563.00
1357.668, 22623.00
1358.727, 22952.00
1359.787, 22856.00
1360.846, 22850.00
1361.905, 22828.00
1362.964, 22936.00
1364.022, 22713.00
1365.081, 22999.00
1366.139, 22792.00
1367.197, 23038.00
1368.255, 22977.00
1369.313, 22985.00
1370.371, 23089.00
1371.428, 22910.00
1372.486, 23113.00
1373.543, 23068.00
1374.600, 23010.00
1375.657, 22940.00
1376.713, 23181.00
1377.770, 23278.00
1378.826, 23045.00
1379.882, 23233.00
1380.938, 23105.00
1381.994, 23392.00
1383.050, 23470.00
1384.106, 23870.00
1385.161, 23763.21
1386.216, 23536.00
1387.271, 24262.00
1388.326, 25129.00
1389.381, 24900.50
1390.435, 24877.92
1391.490, 24953.00
1392.544, 24045.00
1393.598, 24017.00
1394.652, 23970.00
1395.705, 23813.00
1396.759, 23860.93
1397.812, 23956.00
1398.866, 23875.00
1399.919, 23842.00
1400.972, 23820.00
1402.024, 23936.00
1403.077, 23901.00
1404.129, 24079.00
1405.181, 24090.69
1406.233, 23778.00
1407.285, 24105.00
1408.337, 24064.00
1409.389, 23897.00
1410.440, 24055.00
1411.491, 23954.00
1412.542, 23819.00
1413.593, 24147.00
1414.644, 23825.00
1415.695, 24131.00
1416.745, 24205.00
1417.795, 24218.00
1418.845, 24302.03
1419.895, 24370.00
1420.945, 24251.00
1421.995, 24240.00
1423.044, 24168.00
1424.093, 24169.35
1425.142, 24403.00
1426.191, 24263.00
1427.240, 24335.00
1428.289, 24517.00
1429.337, 24336.00
1430.385, 24374.00
1431.433, 24516.00
1432.481, 24574.00
1433.529, 24415.00
1434.577, 24656.00
1435.624, 24686.00
1436.672, 24719.00
1437.719, 24930.00
1438.766, 24942.00
1439.812, 24893.00
1440.859, 25138.00
1441.905, 25391.00
1442.952, 25403.00
1443.998, 25600.00
1445.044, 25691.00
1446.090, 25801.00
1447.135, 25865.00
1448.181, 26077.00
1449.226, 26136.00
1450.271, 26406.00
1451.316, 26813.00
1452.361, 27308.00
1453.405, 28058.00
1454.450, 28988.00
1455.494, 30568.00
1456.538, 32759.00
1457.582, 35963.00
1458.626, 39210.00
1459.670, 41719.00
1460.713, 43374.00
1461.757, 43318.00
1462.800, 41504.00
1463.843, 38596.00
1464.886, 35410.00
1465.928, 32840.00
1466.971, 31377.00
1468.013, 30420.00
1469.055, 29663.00
1470.097, 29626.00
1471.139, 29642.00
1472.181, 29779.00
1473.222, 30176.00
1474.263, 30675.00
1475.305, 31128.00
1476.346, 31753.00
1477.386, 32881.00
1478.427, 33974.00
1479.468, 35760.00
1480.508, 37775.00
1481.548, 40473.00
1482.588, 43635.00
1483.628, 47328.00
1484.668, 51072.00
1485.707, 54890.00
1486.747, 57882.00
1487.786, 59742.00
1488.825, 59683.00
1489.864, 57883.00
1490.902, 54455.00
1491.941, 49801.00
1492.979, 44933.00
1494.017, 40709.00
1495.055, 36634.00
1496.093, 34000.00
1497.131, 31994.00
1498.168, 30354.00
1499.206, 29043.00
1500.243, 28195.00
1501.280, 27551.00
1502.317, 26866.00
1503.354, 26887.00
1504.390, 26249.00
1505.426, 26316.00
1506.463, 25870.00
1507.499, 25701.00
1508.535, 25818.00
1509.570, 25518.00
1510.606, 25700.00
1511.641, 25460.00
1512.676, 25053.00
1513.711, 25340.00
1514.746, 25493.00
1515.781, 25171.00
1516.816, 25183.00
1517.850, 25405.00
1518.884, 24988.00
1519.918, 25259.00
1520.952, 25142.00
1521.986, 24835.00
1523.019, 25240.00
1524.053, 24851.00
1525.086, 24929.00
1526.119, 25107.00
1527.152, 25051.00
1528.185, 25160.00
1529.217, 25121.00
1530.250, 25122.72
1531.282, 25100.00
1532.314, 25096.00
1533.346, 25035.00
1534.377, 25010.00
1535.409, 24995.00
1536.440, 25098.00
1537.472, 25118.00
1538.503, 25037.00
1539.534, 24832.00
1540.564, 25166.00
1541.595, 25079.00
1542.625, 25205.00
1543.656, 24968.00
1544.686, 25089.00
1545.716, 25193.00
1546.745, 24943.00
1547.775, 25226.00
1548.804, 25105.00
1549.834, 25286.00
1550.863, 25382.00
1551.892, 25313.00
1552.920, 25430.00
1553.949, 25326.00
1554.977, 25187.00
1556.006, 25113.00
1557.034, 25134.00
1558.062, 25502.00
1559.089, 25247.00
1560.117, 25154.00
1561.144, 25391.00
1562.172, 25229.00
1563.199, 25195.00
1564.226, 25377.00
1565.252, 25192.00
1566.279, 25333.00
1567.305, 25336.00
1568.332, 25273.00
1569.358, 25448.00
1570.384, 25333.00
##END=



