##NAMES=Whewellite
##RRUFFID=R050240
##IDEAL CHEMISTRY=Ca(C_2_)^6+^O_4_&#183;H_2_O
##LOCALITY=Huron River, Milan, Ohio, USA
##OWNER=RRUFF
##SOURCE=Marcus Origlieri
##DESCRIPTION=White fragment
##STATUS=The identification of this mineral has been confirmed by X-ray diffraction and chemical analysis
##URL=rruff.info/R050240
##MEASURED CHEMISTRY=Ca_1.00_C_2_O_4_Â·H_2_O
##PIN_ID=L01310
##ORIENTATION=Laser parallel to (-1 0 -1). Fiducial mark perpendicular to laser is parallel to b [0 1 0]
108.2800, 6310.000
109.5120, 6327.000
110.7440, 6385.000
111.9760, 6526.000
113.2080, 6846.000
114.4400, 6978.000
115.6710, 7207.000
116.9030, 7537.000
118.1340, 7789.000
119.3650, 8226.000
120.5960, 8670.000
121.8270, 9314.000
123.0580, 9854.000
124.2880, 10358.00
125.5190, 11114.00
126.7490, 11987.00
127.9790, 12883.00
129.2090, 13820.00
130.4390, 14495.00
131.6680, 15611.00
132.8980, 16591.00
134.1270, 17172.00
135.3560, 17856.00
136.5850, 18281.00
137.8140, 18223.00
139.0430, 18188.00
140.2710, 17847.00
141.5000, 17121.00
142.7280, 16272.00
143.9560, 14955.00
145.1840, 13865.00
146.4120, 12355.00
147.6390, 11177.00
148.8670, 10155.00
150.0940, 9597.000
151.3210, 8963.000
152.5490, 8391.000
153.7750, 8084.000
155.0020, 7896.000
156.2290, 7758.000
157.4550, 7384.000
158.6810, 7397.000
159.9080, 7273.000
161.1340, 7251.000
162.3590, 7246.000
163.5850, 7182.000
164.8110, 7208.000
166.0360, 7249.000
167.2610, 7236.000
168.4860, 7295.000
169.7110, 7280.000
170.9360, 7405.000
172.1610, 7555.000
173.3850, 7549.000
174.6100, 7822.000
175.8340, 8011.000
177.0580, 8248.000
178.2820, 8455.000
179.5050, 8838.000
180.7290, 9196.000
181.9520, 9669.530
183.1760, 10330.00
184.3990, 10761.00
185.6220, 11257.00
186.8450, 11848.00
188.0670, 12317.00
189.2900, 13158.00
190.5120, 13899.00
191.7340, 14349.00
192.9560, 15051.00
194.1780, 15404.00
195.4000, 15541.00
196.6220, 15726.00
197.8430, 15790.00
199.0640, 15715.00
200.2860, 15893.02
201.5070, 15846.00
202.7270, 16112.00
203.9480, 16424.00
205.1690, 16589.00
206.3890, 16827.00
207.6090, 16717.00
208.8290, 16440.00
210.0490, 16219.00
211.2690, 15666.00
212.4890, 14930.00
213.7080, 14285.00
214.9280, 13622.00
216.1470, 13059.00
217.3660, 12735.00
218.5850, 12460.00
219.8030, 12236.00
221.0220, 12040.00
222.2400, 11786.00
223.4590, 11497.33
224.6770, 11168.00
225.8950, 10818.00
227.1120, 10327.00
228.3300, 9856.000
229.5480, 9277.000
230.7650, 9070.000
231.9820, 8935.000
233.1990, 8817.000
234.4160, 8846.000
235.6330, 8754.000
236.8490, 8771.000
238.0660, 8762.000
239.2820, 8896.000
240.4980, 8903.000
241.7140, 9079.000
242.9300, 8986.000
244.1460, 9060.000
245.3610, 9216.000
246.5770, 9253.000
247.7920, 9291.000
249.0070, 9263.000
250.2220, 9208.000
251.4370, 9168.000
252.6510, 9003.000
253.8660, 8666.000
255.0800, 8501.000
256.2940, 8452.000
257.5080, 8237.000
258.7220, 8285.000
259.9360, 8139.000
261.1490, 7946.000
262.3630, 7946.000
263.5760, 7903.000
264.7890, 7913.000
266.0020, 7853.000
267.2150, 7910.000
268.4270, 7944.000
269.6400, 7884.000
270.8520, 7896.000
272.0640, 7871.000
273.2760, 8037.000
274.4880, 7931.000
275.7000, 8047.000
276.9120, 7858.000
278.1230, 7834.000
279.3340, 8027.000
280.5450, 7883.000
281.7560, 8031.000
282.9670, 7840.000
284.1780, 7845.000
285.3880, 7726.000
286.5980, 7810.000
287.8090, 7746.000
289.0190, 7797.000
290.2290, 7826.000
291.4380, 7737.000
292.6480, 7629.000
293.8570, 7662.000
295.0670, 7701.000
296.2760, 7689.000
297.4850, 7719.000
298.6930, 7645.000
299.9020, 7763.000
301.1110, 7574.000
302.3190, 7685.000
303.5270, 7629.000
304.7350, 7641.000
305.9430, 7664.000
307.1510, 7712.000
308.3580, 7755.000
309.5660, 7596.000
310.7730, 7650.000
311.9800, 7627.000
313.1870, 7662.000
314.3940, 7537.000
315.6010, 7642.000
316.8070, 7565.000
318.0130, 7540.000
319.2200, 7618.000
320.4260, 7649.000
321.6310, 7605.000
322.8370, 7657.000
324.0430, 7658.000
325.2480, 7668.000
326.4540, 7674.000
327.6590, 7710.000
328.8640, 7717.922
330.0680, 7736.418
331.2730, 7755.000
332.4780, 7736.000
333.6820, 7754.000
334.8860, 7685.000
336.0900, 7766.000
337.2940, 7781.000
338.4980, 7770.000
339.7010, 7701.000
340.9050, 7750.000
342.1080, 7841.000
343.3110, 7767.000
344.5140, 7911.000
345.7170, 7855.000
346.9200, 7804.000
348.1220, 7721.000
349.3240, 7753.198
350.5270, 7788.000
351.7290, 7832.000
352.9310, 7868.000
354.1320, 7937.000
355.3340, 7884.000
356.5350, 7903.000
357.7370, 7860.000
358.9380, 7884.000
360.1390, 7910.000
361.3400, 7916.000
362.5400, 7972.000
363.7410, 8023.000
364.9410, 7907.000
366.1410, 8046.000
367.3410, 7928.000
368.5410, 7983.000
369.7410, 8004.000
370.9400, 7897.000
372.1400, 7957.000
373.3390, 7950.000
374.5380, 8090.000
375.7370, 8097.000
376.9360, 8184.000
378.1350, 8055.000
379.3330, 8045.000
380.5310, 8223.000
381.7300, 8022.000
382.9280, 8088.000
384.1260, 8219.000
385.3230, 8019.000
386.5210, 8232.000
387.7180, 8100.000
388.9160, 8138.000
390.1130, 8195.000
391.3100, 8280.000
392.5060, 8219.000
393.7030, 8219.000
394.9000, 8277.000
396.0960, 8133.000
397.2920, 8241.000
398.4880, 8244.000
399.6840, 8162.000
400.8800, 8325.000
402.0750, 8276.000
403.2710, 8339.000
404.4660, 8444.000
405.6610, 8319.000
406.8560, 8392.000
408.0510, 8337.000
409.2450, 8321.000
410.4400, 8455.000
411.6340, 8404.000
412.8280, 8354.000
414.0220, 8434.000
415.2160, 8433.000
416.4100, 8427.000
417.6030, 8420.000
418.7970, 8352.000
419.9900, 8387.461
421.1830, 8362.727
422.3760, 8422.000
423.5690, 8378.000
424.7610, 8387.200
425.9540, 8434.000
427.1460, 8405.000
428.3380, 8485.000
429.5300, 8482.000
430.7220, 8421.000
431.9140, 8475.941
433.1050, 8510.000
434.2970, 8538.000
435.4880, 8544.000
436.6790, 8568.828
437.8700, 8616.000
439.0610, 8586.000
440.2510, 8550.000
441.4420, 8530.000
442.6320, 8574.726
443.8220, 8663.000
445.0120, 8664.000
446.2020, 8691.000
447.3910, 8672.000
448.5810, 8760.000
449.7700, 8737.000
450.9600, 8798.000
452.1490, 8762.000
453.3370, 8718.000
454.5260, 8750.000
455.7150, 8807.000
456.9030, 8758.000
458.0910, 8887.000
459.2800, 8865.000
460.4670, 8847.000
461.6550, 8872.000
462.8430, 8898.000
464.0300, 8885.689
465.2180, 8931.000
466.4050, 8872.000
467.5920, 8955.000
468.7790, 8936.000
469.9650, 8924.000
471.1520, 8939.000
472.3380, 9077.000
473.5250, 9044.000
474.7110, 9105.000
475.8970, 9166.000
477.0820, 9041.000
478.2680, 9166.000
479.4540, 9091.000
480.6390, 9277.000
481.8240, 9263.000
483.0090, 9325.000
484.1940, 9356.000
485.3780, 9536.000
486.5630, 9550.000
487.7470, 9714.000
488.9320, 9807.000
490.1160, 10007.00
491.3000, 10352.00
492.4830, 10383.00
493.6670, 10934.00
494.8500, 11260.00
496.0340, 11299.00
497.2170, 11714.00
498.4000, 11920.00
499.5820, 12151.00
500.7650, 12503.00
501.9480, 12504.00
503.1300, 12273.00
504.3120, 12350.00
505.4940, 11957.00
506.6760, 11567.00
507.8580, 11408.00
509.0390, 11227.00
510.2210, 11046.00
511.4020, 10930.00
512.5830, 10868.00
513.7640, 10775.00
514.9450, 10767.00
516.1250, 10761.67
517.3060, 11039.00
518.4860, 10844.00
519.6660, 10939.00
520.8460, 11047.00
522.0260, 10918.00
523.2060, 10948.00
524.3850, 10744.00
525.5650, 10519.00
526.7440, 10381.00
527.9230, 10248.00
529.1020, 10230.00
530.2810, 9986.000
531.4590, 9998.000
532.6380, 9814.000
533.8160, 9848.000
534.9940, 9781.000
536.1720, 9792.000
537.3500, 9681.000
538.5270, 9601.000
539.7050, 9753.000
540.8820, 9701.000
542.0590, 9813.000
543.2360, 9707.000
544.4130, 9696.000
545.5900, 9793.000
546.7660, 9647.000
547.9430, 9625.000
549.1190, 9692.000
550.2950, 9745.000
551.4710, 9767.000
552.6470, 9793.231
553.8220, 9803.625
554.9980, 9800.000
556.1730, 9805.000
557.3480, 9794.000
558.5230, 9796.000
559.6980, 9798.000
560.8730, 9835.000
562.0470, 9864.068
563.2220, 9888.000
564.3960, 9963.000
565.5700, 9984.333
566.7440, 10118.00
567.9170, 10065.00
569.0910, 10121.00
570.2640, 10172.00
571.4380, 10128.00
572.6110, 10268.00
573.7840, 10295.00
574.9570, 10361.00
576.1290, 10329.00
577.3020, 10434.84
578.4740, 10569.00
579.6460, 10570.00
580.8180, 10767.00
581.9900, 10758.00
583.1620, 10815.00
584.3330, 10921.00
585.5040, 10997.00
586.6760, 11147.00
587.8470, 11240.00
589.0180, 11388.00
590.1880, 11489.00
591.3590, 11601.00
592.5290, 11654.00
593.7000, 11665.00
594.8700, 11567.00
596.0400, 11759.00
597.2090, 11725.00
598.3790, 11564.00
599.5490, 11550.00
600.7180, 11264.00
601.8870, 11269.00
603.0560, 11167.00
604.2250, 11057.00
605.3940, 11047.00
606.5620, 10989.00
607.7300, 10626.00
608.8990, 10829.00
610.0670, 10710.00
611.2350, 10568.00
612.4020, 10732.00
613.5700, 10587.00
614.7370, 10577.00
615.9050, 10619.00
617.0720, 10434.00
618.2390, 10507.00
619.4060, 10558.00
620.5720, 10411.00
621.7390, 10515.00
622.9050, 10503.00
624.0710, 10303.00
625.2370, 10573.00
626.4030, 10564.00
627.5690, 10486.00
628.7340, 10520.00
629.9000, 10498.00
631.0650, 10486.38
632.2300, 10569.00
633.3950, 10478.00
634.5600, 10558.00
635.7240, 10546.00
636.8890, 10560.00
638.0530, 10606.00
639.2170, 10645.00
640.3810, 10556.00
641.5450, 10598.00
642.7080, 10480.00
643.8720, 10497.00
645.0350, 10438.00
646.1980, 10704.00
647.3610, 10564.00
648.5240, 10718.00
649.6870, 10711.00
650.8490, 10673.00
652.0120, 10655.00
653.1740, 10598.00
654.3360, 10572.00
655.4980, 10714.00
656.6600, 10770.00
657.8210, 10680.00
658.9830, 10721.00
660.1440, 10518.00
661.3050, 10720.00
662.4660, 10675.00
663.6270, 10646.00
664.7870, 10797.00
665.9480, 10659.00
667.1080, 10761.00
668.2680, 10851.00
669.4280, 10784.00
670.5880, 10793.00
671.7480, 10684.00
672.9070, 10738.00
674.0670, 10744.99
675.2260, 10807.00
676.3850, 10786.00
677.5440, 10821.00
678.7030, 10746.00
679.8610, 10685.00
681.0200, 10846.00
682.1780, 10896.00
683.3360, 10858.00
684.4940, 10815.00
685.6520, 10912.00
686.8090, 10945.00
687.9670, 10936.00
689.1240, 10993.00
690.2810, 10937.00
691.4380, 10867.00
692.5950, 10963.00
693.7520, 10817.00
694.9080, 11023.00
696.0650, 10891.00
697.2210, 11008.00
698.3770, 10882.00
699.5330, 11123.00
700.6880, 10963.00
701.8440, 11025.00
702.9990, 10995.00
704.1550, 11060.00
705.3100, 10953.00
706.4650, 10847.00
707.6190, 11013.00
708.7740, 11108.00
709.9290, 10987.00
711.0830, 11050.00
712.2370, 11114.00
713.3910, 11056.00
714.5450, 11068.00
715.6980, 11121.00
716.8520, 11162.00
718.0050, 11162.00
719.1580, 11119.00
720.3110, 11209.00
721.4640, 11187.00
722.6170, 11204.00
723.7700, 11106.00
724.9220, 11265.00
726.0740, 11199.00
727.2260, 11236.00
728.3780, 11248.00
729.5300, 11333.00
730.6810, 11212.00
731.8330, 11347.00
732.9840, 11316.00
734.1350, 11263.00
735.2860, 11366.00
736.4370, 11279.00
737.5880, 11393.00
738.7380, 11335.00
739.8880, 11364.00
741.0390, 11308.00
742.1890, 11384.00
743.3380, 11357.00
744.4880, 11373.00
745.6380, 11410.00
746.7870, 11428.00
747.9360, 11468.00
749.0850, 11475.91
750.2340, 11496.00
751.3830, 11483.00
752.5310, 11485.00
753.6800, 11467.00
754.8280, 11541.00
755.9760, 11453.00
757.1240, 11617.00
758.2720, 11509.00
759.4190, 11609.00
760.5670, 11652.00
761.7140, 11656.00
762.8610, 11559.00
764.0080, 11727.00
765.1550, 11673.00
766.3020, 11742.00
767.4480, 11785.00
768.5950, 11760.00
769.7410, 11778.00
770.8870, 11888.00
772.0330, 11889.00
773.1780, 11989.00
774.3240, 12049.00
775.4690, 12065.00
776.6140, 12057.00
777.7590, 12113.00
778.9040, 12187.00
780.0490, 12192.00
781.1940, 12105.00
782.3380, 12089.00
783.4820, 12187.00
784.6260, 11891.00
785.7700, 11897.00
786.9140, 11977.00
788.0580, 11835.00
789.2010, 12027.00
790.3450, 11985.00
791.4880, 11875.00
792.6310, 11809.00
793.7730, 11949.00
794.9160, 11797.00
796.0590, 11958.00
797.2010, 11868.00
798.3430, 11980.00
799.4850, 11912.00
800.6270, 12066.00
801.7690, 12066.00
802.9100, 11927.00
804.0520, 11987.00
805.1930, 11998.00
806.3340, 12050.00
807.4750, 11943.00
808.6160, 12068.00
809.7560, 12113.00
810.8970, 11992.00
812.0370, 12144.00
813.1770, 12083.00
814.3170, 12146.00
815.4570, 12107.00
816.5960, 12130.00
817.7360, 12206.00
818.8750, 12167.00
820.0140, 12130.00
821.1530, 12146.00
822.2920, 12127.00
823.4310, 12327.00
824.5690, 12318.00
825.7070, 12327.00
826.8460, 12284.00
827.9840, 12309.00
829.1220, 12333.00
830.2590, 12245.00
831.3970, 12308.00
832.5340, 12196.00
833.6710, 12271.00
834.8080, 12462.00
835.9450, 12229.00
837.0820, 12398.00
838.2190, 12472.00
839.3550, 12483.00
840.4910, 12476.00
841.6270, 12564.00
842.7630, 12600.00
843.8990, 12610.00
845.0350, 12714.00
846.1700, 12650.00
847.3060, 12707.00
848.4410, 12737.33
849.5760, 12813.00
850.7100, 12834.00
851.8450, 12885.00
852.9800, 13009.00
854.1140, 13112.75
855.2480, 13301.00
856.3820, 13478.00
857.5160, 13906.00
858.6500, 14263.00
859.7830, 14652.00
860.9170, 14580.00
862.0500, 15095.00
863.1830, 15212.00
864.3160, 15174.00
865.4480, 14884.00
866.5810, 14830.00
867.7130, 14537.00
868.8460, 14659.00
869.9780, 14250.00
871.1100, 14230.00
872.2410, 14037.00
873.3730, 14242.00
874.5050, 14205.00
875.6360, 14492.00
876.7670, 14588.00
877.8980, 14727.00
879.0290, 15014.00
880.1590, 15107.00
881.2900, 15188.00
882.4200, 15280.00
883.5500, 15422.00
884.6800, 15562.00
885.8100, 15605.00
886.9400, 16045.00
888.0690, 16638.00
889.1990, 17364.00
890.3280, 18061.00
891.4570, 18531.00
892.5860, 19605.00
893.7140, 20286.00
894.8430, 20898.00
895.9710, 20983.00
897.1000, 20148.00
898.2280, 18928.00
899.3560, 17208.00
900.4830, 15633.00
901.6110, 14711.00
902.7380, 14318.00
903.8660, 14151.00
904.9930, 14059.00
906.1200, 13908.00
907.2460, 13952.00
908.3730, 13868.00
909.5000, 14040.00
910.6260, 14007.00
911.7520, 13988.00
912.8780, 13960.00
914.0040, 14102.00
915.1290, 14103.00
916.2550, 14210.00
917.3800, 14240.00
918.5050, 14237.00
919.6300, 14340.00
920.7550, 14395.00
921.8800, 14373.00
923.0040, 14438.00
924.1290, 14452.00
925.2530, 14659.00
926.3770, 14700.00
927.5010, 14613.00
928.6250, 14747.00
929.7480, 14703.00
930.8720, 14707.00
931.9950, 14798.00
933.1180, 14883.00
934.2410, 15049.00
935.3640, 15079.00
936.4860, 15217.00
937.6090, 15248.00
938.7310, 15235.00
939.8530, 15199.00
940.9750, 15205.00
942.0970, 15294.00
943.2180, 15220.00
944.3400, 15048.00
945.4610, 15191.00
946.5820, 15046.00
947.7030, 14801.00
948.8240, 14805.00
949.9450, 14756.00
951.0650, 14639.00
952.1860, 14574.00
953.3060, 14358.00
954.4260, 14459.00
955.5460, 14301.00
956.6650, 14082.00
957.7850, 14199.00
958.9040, 14040.00
960.0230, 14145.00
961.1420, 14133.00
962.2610, 14093.00
963.3800, 13985.00
964.4990, 14007.00
965.6170, 13960.00
966.7350, 13924.00
967.8530, 13857.00
968.9710, 13826.28
970.0890, 13818.20
971.2070, 13787.00
972.3240, 13804.00
973.4410, 13867.00
974.5580, 13824.00
975.6750, 13840.25
976.7920, 13902.00
977.9090, 13827.00
979.0250, 13837.00
980.1410, 13862.00
981.2580, 13949.00
982.3740, 13768.00
983.4890, 13930.00
984.6050, 13826.00
985.7200, 13867.00
986.8360, 13897.00
987.9510, 13848.00
989.0660, 13791.00
990.1810, 13900.00
991.2950, 14019.00
992.4100, 13925.00
993.5240, 13875.00
994.6390, 13967.00
995.7530, 13983.00
996.8660, 13908.00
997.9800, 14086.00
999.0940, 14058.00
1000.207, 13971.00
1001.320, 14046.00
1002.433, 13938.00
1003.546, 13974.00
1004.659, 14130.00
1005.772, 14069.00
1006.884, 14126.00
1007.996, 13965.00
1009.108, 13878.00
1010.220, 14178.00
1011.332, 14024.00
1012.444, 14227.00
1013.555, 14095.00
1014.666, 14188.00
1015.777, 14102.00
1016.888, 14227.00
1017.999, 14391.00
1019.110, 14262.00
1020.220, 14301.00
1021.331, 14192.00
1022.441, 14283.00
1023.551, 14320.00
1024.661, 14304.00
1025.770, 14329.00
1026.880, 14333.00
1027.989, 14339.00
1029.098, 14286.00
1030.207, 14392.00
1031.316, 14209.00
1032.425, 14347.00
1033.533, 14394.00
1034.642, 14404.00
1035.750, 14191.00
1036.858, 14420.00
1037.966, 14513.00
1039.073, 14339.00
1040.181, 14468.00
1041.288, 14500.00
1042.396, 14532.00
1043.503, 14517.00
1044.610, 14385.00
1045.716, 14357.00
1046.823, 14402.00
1047.929, 14502.00
1049.036, 14603.00
1050.142, 14454.00
1051.248, 14575.00
1052.353, 14440.00
1053.459, 14534.00
1054.564, 14506.00
1055.670, 14590.00
1056.775, 14623.00
1057.880, 14621.00
1058.985, 14563.00
1060.089, 14575.00
1061.194, 14582.08
1062.298, 14569.00
1063.402, 14670.00
1064.506, 14685.00
1065.610, 14688.17
1066.713, 14661.00
1067.817, 14675.00
1068.920, 14624.00
1070.023, 14598.00
1071.126, 14723.00
1072.229, 14806.00
1073.332, 14681.00
1074.435, 14768.00
1075.537, 14700.00
1076.639, 14561.00
1077.741, 14679.00
1078.843, 14739.00
1079.945, 14778.00
1081.046, 14941.00
1082.148, 14928.15
1083.249, 14926.00
1084.350, 14921.00
1085.451, 15063.00
1086.551, 14971.00
1087.652, 14985.00
1088.752, 14807.00
1089.853, 14947.00
1090.953, 14904.00
1092.053, 14906.00
1093.152, 14799.00
1094.252, 14871.00
1095.351, 14964.00
1096.451, 14924.00
1097.550, 14931.00
1098.649, 14887.00
1099.748, 14986.00
1100.846, 14980.00
1101.945, 15013.00
1103.043, 14971.00
1104.141, 15075.00
1105.239, 14987.00
1106.337, 14955.00
1107.434, 15069.00
1108.532, 14902.00
1109.629, 14967.00
1110.726, 15032.00
1111.823, 15073.00
1112.920, 15129.00
1114.017, 15025.00
1115.113, 15075.00
1116.210, 15167.00
1117.306, 15366.00
1118.402, 15258.00
1119.498, 15380.00
1120.593, 15339.00
1121.689, 15470.00
1122.784, 15448.00
1123.879, 15424.00
1124.974, 15270.00
1126.069, 15240.00
1127.164, 15277.00
1128.259, 15149.00
1129.353, 15145.00
1130.447, 15157.00
1131.541, 15277.00
1132.635, 15177.00
1133.729, 15164.00
1134.822, 15305.00
1135.916, 15295.00
1137.009, 15212.00
1138.102, 15411.00
1139.195, 15258.00
1140.288, 15236.00
1141.380, 15253.00
1142.473, 15204.00
1143.565, 15269.00
1144.657, 15372.00
1145.749, 15440.00
1146.841, 15424.00
1147.932, 15393.00
1149.024, 15425.00
1150.115, 15392.00
1151.206, 15486.00
1152.297, 15443.00
1153.388, 15411.00
1154.479, 15477.38
1155.569, 15486.00
1156.659, 15525.00
1157.750, 15501.00
1158.839, 15456.00
1159.929, 15462.00
1161.019, 15371.00
1162.108, 15404.00
1163.198, 15478.00
1164.287, 15479.00
1165.376, 15638.00
1166.465, 15675.00
1167.553, 15633.00
1168.642, 15534.00
1169.730, 15580.00
1170.818, 15575.00
1171.906, 15536.00
1172.994, 15636.00
1174.082, 15533.00
1175.170, 15725.00
1176.257, 15533.00
1177.344, 15647.00
1178.431, 15609.00
1179.518, 15676.00
1180.605, 15656.00
1181.691, 15740.00
1182.778, 15657.00
1183.864, 15812.00
1184.950, 15832.00
1186.036, 15624.00
1187.122, 15671.00
1188.207, 15778.00
1189.292, 15924.00
1190.378, 15668.00
1191.463, 15723.00
1192.548, 15845.00
1193.632, 15888.00
1194.717, 15904.00
1195.801, 15863.00
1196.886, 15801.00
1197.970, 15826.00
1199.054, 15867.00
1200.137, 15895.00
1201.221, 15938.00
1202.305, 15957.13
1203.388, 15966.05
1204.471, 15972.00
1205.554, 15945.00
1206.637, 15898.00
1207.719, 15835.00
1208.802, 15994.00
1209.884, 15954.00
1210.966, 16093.00
1212.048, 16146.00
1213.130, 15968.00
1214.212, 15989.00
1215.293, 16023.00
1216.374, 15944.00
1217.456, 16150.00
1218.536, 16093.00
1219.617, 16080.00
1220.698, 16170.00
1221.778, 16216.00
1222.859, 16165.00
1223.939, 16050.00
1225.019, 16095.00
1226.099, 16066.00
1227.178, 16139.00
1228.258, 16038.00
1229.337, 16056.00
1230.417, 16208.00
1231.496, 16291.00
1232.574, 16248.00
1233.653, 16221.00
1234.732, 16280.00
1235.810, 16236.00
1236.888, 16231.00
1237.966, 16131.00
1239.044, 16167.40
1240.122, 16350.00
1241.199, 16249.00
1242.277, 16280.00
1243.354, 16413.00
1244.431, 16272.00
1245.508, 16285.00
1246.585, 16318.00
1247.661, 16278.00
1248.738, 16271.00
1249.814, 16340.00
1250.890, 16351.00
1251.966, 16362.00
1253.042, 16551.00
1254.117, 16482.00
1255.193, 16495.00
1256.268, 16455.00
1257.343, 16398.00
1258.418, 16533.00
1259.493, 16361.00
1260.567, 16502.00
1261.642, 16491.00
1262.716, 16423.00
1263.790, 16493.00
1264.864, 16512.00
1265.938, 16464.00
1267.011, 16551.00
1268.085, 16550.00
1269.158, 16591.00
1270.231, 16553.00
1271.304, 16552.00
1272.377, 16438.00
1273.450, 16593.00
1274.522, 16608.00
1275.594, 16457.00
1276.666, 16643.00
1277.738, 16705.00
1278.810, 16577.00
1279.882, 16630.00
1280.953, 16663.00
1282.025, 16595.00
1283.096, 16565.00
1284.167, 16653.00
1285.238, 16736.00
1286.308, 16771.00
1287.379, 16745.00
1288.449, 16697.00
1289.519, 16753.00
1290.589, 16667.00
1291.659, 16729.00
1292.729, 16807.00
1293.798, 16772.00
1294.868, 16930.00
1295.937, 16734.00
1297.006, 16846.00
1298.075, 16673.00
1299.143, 16749.00
1300.212, 16981.00
1301.280, 16893.00
1302.348, 16899.00
1303.416, 16832.00
1304.484, 17064.00
1305.552, 16956.00
1306.620, 16961.00
1307.687, 17010.00
1308.754, 16909.00
1309.821, 16897.00
1310.888, 16980.00
1311.955, 16959.00
1313.021, 16942.00
1314.088, 17165.00
1315.154, 17100.00
1316.220, 17104.00
1317.286, 17186.00
1318.352, 17146.00
1319.417, 17154.00
1320.483, 17003.00
1321.548, 16989.00
1322.613, 17021.48
1323.678, 16975.00
1324.743, 17095.00
1325.807, 17167.00
1326.872, 17134.00
1327.936, 17289.00
1329.000, 17246.00
1330.064, 17405.00
1331.128, 17230.00
1332.191, 17464.00
1333.255, 17238.00
1334.318, 17283.00
1335.381, 17186.00
1336.444, 17312.00
1337.507, 17226.00
1338.569, 17202.00
1339.632, 17160.00
1340.694, 17251.00
1341.756, 17404.00
1342.818, 17202.00
1343.880, 17253.00
1344.941, 17436.00
1346.003, 17461.00
1347.064, 17471.26
1348.125, 17439.00
1349.186, 17429.00
1350.247, 17367.00
1351.308, 17364.00
1352.368, 17419.00
1353.428, 17473.00
1354.489, 17484.00
1355.549, 17369.00
1356.608, 17560.00
1357.668, 17576.00
1358.727, 17599.00
1359.787, 17452.00
1360.846, 17653.00
1361.905, 17370.00
1362.964, 17530.00
1364.022, 17310.00
1365.081, 17507.00
1366.139, 17629.00
1367.197, 17751.00
1368.255, 17721.00
1369.313, 17816.38
1370.371, 17766.00
1371.428, 17835.00
1372.486, 17776.00
1373.543, 17664.00
1374.600, 17574.00
1375.657, 17969.00
1376.713, 17654.00
1377.770, 17861.00
1378.826, 17958.00
1379.882, 17841.00
1380.938, 17746.00
1381.994, 17889.00
1383.050, 17950.00
1384.106, 18060.00
1385.161, 18098.00
1386.216, 18257.00
1387.271, 18333.00
1388.326, 18462.00
1389.381, 18555.51
1390.435, 18629.00
1391.490, 18738.00
1392.544, 18855.00
1393.598, 18964.00
1394.652, 18950.20
1395.705, 18646.00
1396.759, 18858.00
1397.812, 18855.00
1398.866, 18745.00
1399.919, 18900.00
1400.972, 18739.00
1402.024, 18812.00
1403.077, 18556.00
1404.129, 18627.00
1405.181, 18744.00
1406.233, 18808.00
1407.285, 18711.00
1408.337, 18682.00
1409.389, 18586.00
1410.440, 18844.00
1411.491, 18777.00
1412.542, 18818.00
1413.593, 18773.00
1414.644, 18838.00
1415.695, 18715.00
1416.745, 18817.00
1417.795, 18819.00
1418.845, 18908.00
1419.895, 18796.00
1420.945, 18770.00
1421.995, 18664.00
1423.044, 18814.00
1424.093, 18885.00
1425.142, 18867.00
1426.191, 19058.00
1427.240, 19016.00
1428.289, 19046.00
1429.337, 19213.00
1430.385, 19201.27
1431.433, 19250.00
1432.481, 19343.00
1433.529, 19279.00
1434.577, 19396.00
1435.624, 19459.00
1436.672, 19488.00
1437.719, 19595.74
1438.766, 19507.00
1439.812, 19748.00
1440.859, 19814.00
1441.905, 19860.00
1442.952, 20172.00
1443.998, 20166.00
1445.044, 20474.00
1446.090, 20543.00
1447.135, 20748.00
1448.181, 20853.00
1449.226, 21105.00
1450.271, 21316.00
1451.316, 21670.00
1452.361, 21970.00
1453.405, 22656.00
1454.450, 23749.00
1455.494, 25324.00
1456.538, 27682.00
1457.582, 31103.00
1458.626, 35379.00
1459.670, 39011.00
1460.713, 42061.00
1461.757, 43236.00
1462.800, 41633.00
1463.843, 37877.00
1464.886, 33614.00
1465.928, 29811.00
1466.971, 27366.00
1468.013, 26037.00
1469.055, 25204.00
1470.097, 24802.00
1471.139, 24908.00
1472.181, 25008.00
1473.222, 25267.04
1474.263, 25768.00
1475.305, 26316.00
1476.346, 27039.00
1477.386, 27925.00
1478.427, 29311.00
1479.468, 31078.00
1480.508, 33286.00
1481.548, 36175.00
1482.588, 39675.00
1483.628, 43689.00
1484.668, 48085.00
1485.707, 52415.00
1486.747, 55912.00
1487.786, 58745.00
1488.825, 59672.00
1489.864, 57880.00
1490.902, 54123.00
1491.941, 49069.00
1492.979, 42993.00
1494.017, 38040.00
1495.055, 33609.00
1496.093, 29911.00
1497.131, 27630.00
1498.168, 25956.00
1499.206, 24316.00
1500.243, 23450.00
1501.280, 22654.00
1502.317, 21878.00
1503.354, 21425.00
1504.390, 21137.00
1505.426, 20743.00
1506.463, 20688.00
1507.499, 20415.00
1508.535, 20275.00
1509.570, 20150.00
1510.606, 20008.00
1511.641, 19863.00
1512.676, 19892.00
1513.711, 19806.00
1514.746, 19648.00
1515.781, 19393.00
1516.816, 19751.00
1517.850, 19682.00
1518.884, 19736.00
1519.918, 19546.00
1520.952, 19541.00
1521.986, 19407.00
1523.019, 19504.00
1524.053, 19505.00
1525.086, 19439.00
1526.119, 19537.00
1527.152, 19523.00
1528.185, 19516.00
1529.217, 19430.00
1530.250, 19375.00
1531.282, 19642.00
1532.314, 19539.00
1533.346, 19547.00
1534.377, 19545.00
1535.409, 19527.00
1536.440, 19498.00
1537.472, 19449.00
1538.503, 19382.00
1539.534, 19507.00
1540.564, 19475.00
1541.595, 19389.00
1542.625, 19354.00
1543.656, 19648.00
1544.686, 19459.00
1545.716, 19461.00
1546.745, 19345.00
1547.775, 19701.00
1548.804, 19507.00
1549.834, 19588.00
1550.863, 19470.00
1551.892, 19647.00
1552.920, 19616.00
1553.949, 19665.00
1554.977, 19551.00
1556.006, 19649.00
1557.034, 19552.00
1558.062, 19582.00
1559.089, 19554.35
1560.117, 19697.00
1561.144, 19494.00
1562.172, 19511.00
1563.199, 19514.00
1564.226, 19690.00
1565.252, 19566.00
1566.279, 19577.00
1567.305, 19479.00
1568.332, 19820.00
1569.358, 19943.00
1570.384, 19764.00
##END=



