##NAMES=Whewellite
##RRUFFID=R050240
##IDEAL CHEMISTRY=Ca(C_2_)^6+^O_4_&#183;H_2_O
##LOCALITY=Huron River, Milan, Ohio, USA
##OWNER=RRUFF
##SOURCE=Marcus Origlieri
##DESCRIPTION=White fragment
##STATUS=The identification of this mineral has been confirmed by X-ray diffraction and chemical analysis
##URL=rruff.info/R050240
##MEASURED CHEMISTRY=Ca_1.00_C_2_O_4_Â·H_2_O
##PIN_ID=L01310
##ORIENTATION=Laser parallel to (-1 0 -1). Fiducial mark perpendicular to laser is parallel to b [0 1 0]
107.0470, 7032.000
108.2800, 7076.000
109.5120, 7059.000
110.7440, 7017.000
111.9760, 7320.000
113.2080, 7438.000
114.4400, 7637.000
115.6710, 7786.000
116.9030, 8108.000
118.1340, 8321.000
119.3650, 8582.000
120.5960, 9056.000
121.8270, 9393.000
123.0580, 9922.000
124.2880, 10428.00
125.5190, 10875.00
126.7490, 11321.00
127.9790, 12014.00
129.2090, 12635.00
130.4390, 13144.00
131.6680, 13642.00
132.8980, 14294.00
134.1270, 14554.00
135.3560, 15057.00
136.5850, 15395.00
137.8140, 15579.00
139.0430, 15492.00
140.2710, 15353.00
141.5000, 14966.00
142.7280, 14279.00
143.9560, 13489.00
145.1840, 12775.00
146.4120, 11892.00
147.6390, 11075.00
148.8670, 10433.00
150.0940, 9759.000
151.3210, 9449.000
152.5490, 9088.000
153.7750, 8764.000
155.0020, 8581.000
156.2290, 8529.000
157.4550, 8415.000
158.6810, 8332.000
159.9080, 8400.000
161.1340, 8337.000
162.3590, 8349.000
163.5850, 8158.000
164.8110, 8237.201
166.0360, 8291.000
167.2610, 8333.000
168.4860, 8453.000
169.7110, 8552.000
170.9360, 8507.000
172.1610, 8542.000
173.3850, 8711.000
174.6100, 8782.697
175.8340, 8982.000
177.0580, 9132.000
178.2820, 9402.000
179.5050, 9681.000
180.7290, 9944.000
181.9520, 10238.00
183.1760, 10613.00
184.3990, 11041.00
185.6220, 11326.00
186.8450, 11646.00
188.0670, 12205.00
189.2900, 12795.00
190.5120, 13153.00
191.7340, 13496.00
192.9560, 13984.00
194.1780, 14169.00
195.4000, 14373.00
196.6220, 14407.00
197.8430, 14294.00
199.0640, 14257.00
200.2860, 14198.00
201.5070, 14250.00
202.7270, 14361.00
203.9480, 14614.00
205.1690, 14576.00
206.3890, 14512.00
207.6090, 14694.00
208.8290, 14416.00
210.0490, 14290.00
211.2690, 13906.00
212.4890, 13466.00
213.7080, 13085.00
214.9280, 12589.00
216.1470, 12412.00
217.3660, 11895.00
218.5850, 11810.00
219.8030, 11766.00
221.0220, 11489.00
222.2400, 11505.00
223.4590, 11245.00
224.6770, 11069.00
225.8950, 10843.00
227.1120, 10646.00
228.3300, 10207.00
229.5480, 9922.000
230.7650, 9774.000
231.9820, 9792.000
233.1990, 9602.000
234.4160, 9688.000
235.6330, 9641.000
236.8490, 9716.000
238.0660, 9595.000
239.2820, 9622.000
240.4980, 9637.000
241.7140, 9613.008
242.9300, 9636.714
244.1460, 9660.000
245.3610, 9648.000
246.5770, 9708.000
247.7920, 9715.000
249.0070, 9616.000
250.2220, 9721.000
251.4370, 9516.000
252.6510, 9610.000
253.8660, 9511.000
255.0800, 9454.000
256.2940, 9439.000
257.5080, 9563.000
258.7220, 9441.000
259.9360, 9471.000
261.1490, 9279.000
262.3630, 9373.000
263.5760, 9402.000
264.7890, 9308.000
266.0020, 9375.000
267.2150, 9356.000
268.4270, 9336.000
269.6400, 9486.000
270.8520, 9472.000
272.0640, 9562.000
273.2760, 9481.000
274.4880, 9479.000
275.7000, 9494.000
276.9120, 9566.000
278.1230, 9511.045
279.3340, 9615.000
280.5450, 9463.000
281.7560, 9500.000
282.9670, 9538.000
284.1780, 9498.000
285.3880, 9447.000
286.5980, 9536.000
287.8090, 9509.000
289.0190, 9514.000
290.2290, 9538.000
291.4380, 9424.000
292.6480, 9553.000
293.8570, 9487.000
295.0670, 9346.000
296.2760, 9439.000
297.4850, 9397.000
298.6930, 9488.000
299.9020, 9565.000
301.1110, 9460.000
302.3190, 9535.929
303.5270, 9507.000
304.7350, 9516.000
305.9430, 9506.000
307.1510, 9436.000
308.3580, 9534.000
309.5660, 9594.000
310.7730, 9534.000
311.9800, 9485.000
313.1870, 9591.000
314.3940, 9504.000
315.6010, 9533.000
316.8070, 9510.000
318.0130, 9576.000
319.2200, 9665.000
320.4260, 9631.000
321.6310, 9676.000
322.8370, 9566.000
324.0430, 9636.000
325.2480, 9622.000
326.4540, 9620.000
327.6590, 9669.000
328.8640, 9723.000
330.0680, 9810.000
331.2730, 9736.000
332.4780, 9786.000
333.6820, 9654.000
334.8860, 9746.000
336.0900, 9759.000
337.2940, 9828.000
338.4980, 9846.000
339.7010, 9805.000
340.9050, 9799.000
342.1080, 9823.000
343.3110, 9816.000
344.5140, 9797.000
345.7170, 9881.000
346.9200, 9853.000
348.1220, 9823.000
349.3240, 9928.000
350.5270, 10023.00
351.7290, 9946.000
352.9310, 10033.00
354.1320, 9965.000
355.3340, 10012.00
356.5350, 10061.00
357.7370, 10070.00
358.9380, 9981.000
360.1390, 9941.000
361.3400, 10077.00
362.5400, 9993.000
363.7410, 10120.00
364.9410, 10015.00
366.1410, 10038.00
367.3410, 10059.00
368.5410, 10141.00
369.7410, 10092.00
370.9400, 10138.00
372.1400, 10196.00
373.3390, 10145.00
374.5380, 10242.00
375.7370, 10275.00
376.9360, 10331.00
378.1350, 10242.00
379.3330, 10192.00
380.5310, 10244.00
381.7300, 10289.00
382.9280, 10193.00
384.1260, 10220.00
385.3230, 10312.00
386.5210, 10309.00
387.7180, 10283.00
388.9160, 10349.00
390.1130, 10368.00
391.3100, 10312.00
392.5060, 10299.00
393.7030, 10444.00
394.9000, 10458.00
396.0960, 10415.00
397.2920, 10417.00
398.4880, 10546.00
399.6840, 10409.00
400.8800, 10604.00
402.0750, 10506.00
403.2710, 10462.00
404.4660, 10443.00
405.6610, 10443.00
406.8560, 10493.00
408.0510, 10709.00
409.2450, 10565.00
410.4400, 10653.00
411.6340, 10553.00
412.8280, 10558.00
414.0220, 10660.00
415.2160, 10686.00
416.4100, 10609.00
417.6030, 10582.00
418.7970, 10634.00
419.9900, 10795.00
421.1830, 10668.00
422.3760, 10801.00
423.5690, 10701.00
424.7610, 10784.00
425.9540, 10781.00
427.1460, 10829.00
428.3380, 10715.00
429.5300, 10738.00
430.7220, 10682.00
431.9140, 10888.00
433.1050, 10779.00
434.2970, 10951.00
435.4880, 10837.00
436.6790, 10855.00
437.8700, 10846.00
439.0610, 10835.00
440.2510, 11018.00
441.4420, 11008.00
442.6320, 10810.00
443.8220, 10972.00
445.0120, 10979.00
446.2020, 11063.00
447.3910, 11126.00
448.5810, 11017.00
449.7700, 11052.00
450.9600, 11004.00
452.1490, 11026.00
453.3370, 11094.00
454.5260, 11130.00
455.7150, 11169.00
456.9030, 11200.03
458.0910, 11213.61
459.2800, 11238.00
460.4670, 11188.00
461.6550, 11193.00
462.8430, 11089.00
464.0300, 11279.00
465.2180, 11201.00
466.4050, 11292.00
467.5920, 11218.00
468.7790, 11239.00
469.9650, 11258.00
471.1520, 11338.00
472.3380, 11237.00
473.5250, 11326.00
474.7110, 11434.00
475.8970, 11504.00
477.0820, 11384.00
478.2680, 11496.00
479.4540, 11402.00
480.6390, 11325.00
481.8240, 11493.00
483.0090, 11686.00
484.1940, 11567.00
485.3780, 11602.00
486.5630, 11708.00
487.7470, 11793.00
488.9320, 11836.51
490.1160, 11930.19
491.3000, 11976.00
492.4830, 12041.00
493.6670, 12190.00
494.8500, 12179.00
496.0340, 12271.00
497.2170, 12477.00
498.4000, 12447.00
499.5820, 12668.00
500.7650, 12752.00
501.9480, 12658.00
503.1300, 12748.00
504.3120, 12790.00
505.4940, 12710.00
506.6760, 12675.00
507.8580, 12429.00
509.0390, 12496.00
510.2210, 12594.00
511.4020, 12356.00
512.5830, 12434.00
513.7640, 12363.00
514.9450, 12418.00
516.1250, 12448.00
517.3060, 12510.00
518.4860, 12539.00
519.6660, 12514.00
520.8460, 12668.00
522.0260, 12435.00
523.2060, 12711.00
524.3850, 12400.00
525.5650, 12529.00
526.7440, 12419.00
527.9230, 12313.00
529.1020, 12327.00
530.2810, 12127.00
531.4590, 12286.00
532.6380, 12157.00
533.8160, 12201.00
534.9940, 12071.00
536.1720, 12038.00
537.3500, 12157.00
538.5270, 12166.00
539.7050, 12295.00
540.8820, 12190.00
542.0590, 12148.00
543.2360, 12164.00
544.4130, 12168.00
545.5900, 12455.00
546.7660, 12158.00
547.9430, 12234.00
549.1190, 12339.00
550.2950, 12174.00
551.4710, 12378.00
552.6470, 12333.00
553.8220, 12370.00
554.9980, 12309.00
556.1730, 12233.00
557.3480, 12270.00
558.5230, 12246.00
559.6980, 12406.00
560.8730, 12499.00
562.0470, 12533.00
563.2220, 12497.00
564.3960, 12459.00
565.5700, 12562.00
566.7440, 12543.00
567.9170, 12646.00
569.0910, 12610.00
570.2640, 12703.00
571.4380, 12680.00
572.6110, 12664.00
573.7840, 12821.00
574.9570, 12766.00
576.1290, 12791.00
577.3020, 12862.00
578.4740, 12689.00
579.6460, 12969.00
580.8180, 12796.00
581.9900, 12977.00
583.1620, 13222.00
584.3330, 13022.00
585.5040, 13175.00
586.6760, 13287.00
587.8470, 13225.00
589.0180, 13417.00
590.1880, 13402.00
591.3590, 13403.00
592.5290, 13520.00
593.7000, 13522.00
594.8700, 13515.00
596.0400, 13562.00
597.2090, 13540.00
598.3790, 13419.00
599.5490, 13565.00
600.7180, 13350.00
601.8870, 13505.00
603.0560, 13365.00
604.2250, 13515.00
605.3940, 13385.00
606.5620, 13275.00
607.7300, 13234.00
608.8990, 13341.00
610.0670, 13203.00
611.2350, 13173.00
612.4020, 13317.00
613.5700, 13136.00
614.7370, 13237.00
615.9050, 13256.00
617.0720, 13252.00
618.2390, 13121.00
619.4060, 13218.00
620.5720, 13206.00
621.7390, 13250.00
622.9050, 13343.00
624.0710, 13141.00
625.2370, 13363.00
626.4030, 13262.00
627.5690, 13168.00
628.7340, 13279.00
629.9000, 13415.00
631.0650, 13280.00
632.2300, 13343.00
633.3950, 13132.00
634.5600, 13415.00
635.7240, 13406.00
636.8890, 13441.00
638.0530, 13355.00
639.2170, 13490.00
640.3810, 13339.00
641.5450, 13536.00
642.7080, 13407.00
643.8720, 13401.00
645.0350, 13416.00
646.1980, 13514.00
647.3610, 13493.00
648.5240, 13439.00
649.6870, 13604.00
650.8490, 13517.00
652.0120, 13366.00
653.1740, 13452.00
654.3360, 13425.00
655.4980, 13665.00
656.6600, 13550.00
657.8210, 13502.00
658.9830, 13817.00
660.1440, 13705.00
661.3050, 13598.00
662.4660, 13719.00
663.6270, 13769.00
664.7870, 13697.00
665.9480, 13723.00
667.1080, 13636.00
668.2680, 13654.00
669.4280, 13650.94
670.5880, 13668.00
671.7480, 13667.00
672.9070, 13724.00
674.0670, 13733.00
675.2260, 13815.00
676.3850, 13862.00
677.5440, 13948.00
678.7030, 13820.00
679.8610, 13807.00
681.0200, 13871.00
682.1780, 13891.00
683.3360, 13889.00
684.4940, 13752.00
685.6520, 13715.00
686.8090, 13766.00
687.9670, 13780.00
689.1240, 13908.00
690.2810, 14050.00
691.4380, 13892.00
692.5950, 13925.00
693.7520, 13785.00
694.9080, 13895.00
696.0650, 13808.00
697.2210, 13937.00
698.3770, 13954.00
699.5330, 13807.00
700.6880, 14019.00
701.8440, 14098.00
702.9990, 14114.00
704.1550, 13958.00
705.3100, 13916.00
706.4650, 14134.00
707.6190, 13974.00
708.7740, 14092.00
709.9290, 14215.00
711.0830, 14057.00
712.2370, 14190.00
713.3910, 14015.00
714.5450, 14223.00
715.6980, 14288.00
716.8520, 14115.00
718.0050, 14159.00
719.1580, 14205.00
720.3110, 14200.00
721.4640, 14239.48
722.6170, 14302.00
723.7700, 14303.00
724.9220, 14262.00
726.0740, 14337.00
727.2260, 14327.00
728.3780, 14329.00
729.5300, 14232.00
730.6810, 14301.00
731.8330, 14374.00
732.9840, 14440.00
734.1350, 14291.00
735.2860, 14457.00
736.4370, 14343.00
737.5880, 14480.00
738.7380, 14496.00
739.8880, 14474.00
741.0390, 14514.00
742.1890, 14573.00
743.3380, 14467.00
744.4880, 14501.00
745.6380, 14519.00
746.7870, 14603.00
747.9360, 14504.00
749.0850, 14554.00
750.2340, 14611.00
751.3830, 14474.00
752.5310, 14647.00
753.6800, 14830.00
754.8280, 14712.00
755.9760, 14455.00
757.1240, 14702.00
758.2720, 14673.00
759.4190, 14690.00
760.5670, 14819.00
761.7140, 14725.00
762.8610, 14782.29
764.0080, 14862.00
765.1550, 14835.00
766.3020, 14859.00
767.4480, 14987.00
768.5950, 15119.00
769.7410, 15043.00
770.8870, 14909.00
772.0330, 15062.00
773.1780, 15277.00
774.3240, 15178.00
775.4690, 15352.00
776.6140, 15428.00
777.7590, 15387.00
778.9040, 15326.00
780.0490, 15357.00
781.1940, 15351.00
782.3380, 15444.00
783.4820, 15252.00
784.6260, 15347.00
785.7700, 15298.00
786.9140, 15167.00
788.0580, 15156.00
789.2010, 15211.00
790.3450, 15078.00
791.4880, 15205.00
792.6310, 15357.00
793.7730, 15220.00
794.9160, 15133.00
796.0590, 15239.00
797.2010, 15356.00
798.3430, 15213.00
799.4850, 15243.00
800.6270, 15253.00
801.7690, 15293.00
802.9100, 15181.00
804.0520, 15264.00
805.1930, 15258.00
806.3340, 15281.00
807.4750, 15312.00
808.6160, 15387.00
809.7560, 15434.00
810.8970, 15464.01
812.0370, 15407.00
813.1770, 15487.00
814.3170, 15443.00
815.4570, 15375.00
816.5960, 15391.00
817.7360, 15490.00
818.8750, 15604.00
820.0140, 15582.00
821.1530, 15475.00
822.2920, 15536.00
823.4310, 15585.00
824.5690, 15513.00
825.7070, 15520.00
826.8460, 15659.00
827.9840, 15589.00
829.1220, 15662.00
830.2590, 15706.00
831.3970, 15621.00
832.5340, 15675.00
833.6710, 15703.00
834.8080, 15854.00
835.9450, 15729.00
837.0820, 15858.00
838.2190, 15903.00
839.3550, 15825.00
840.4910, 15994.00
841.6270, 16004.00
842.7630, 16010.00
843.8990, 16049.00
845.0350, 16090.00
846.1700, 16004.00
847.3060, 16135.00
848.4410, 16060.00
849.5760, 16219.00
850.7100, 16123.00
851.8450, 16359.00
852.9800, 16523.00
854.1140, 16516.00
855.2480, 16656.00
856.3820, 16749.00
857.5160, 16861.00
858.6500, 17271.00
859.7830, 17447.00
860.9170, 17587.00
862.0500, 17539.00
863.1830, 17704.00
864.3160, 17650.72
865.4480, 17682.00
866.5810, 17560.00
867.7130, 17591.00
868.8460, 17519.00
869.9780, 17440.00
871.1100, 17681.00
872.2410, 17399.00
873.3730, 17572.00
874.5050, 17712.00
875.6360, 17894.00
876.7670, 18022.90
877.8980, 18014.00
879.0290, 18259.00
880.1590, 18473.00
881.2900, 18538.00
882.4200, 18428.00
883.5500, 18569.00
884.6800, 18696.00
885.8100, 18623.00
886.9400, 18772.00
888.0690, 19068.00
889.1990, 19286.00
890.3280, 19489.00
891.4570, 19640.80
892.5860, 19507.00
893.7140, 19811.00
894.8430, 20013.00
895.9710, 19991.00
897.1000, 19511.00
898.2280, 19186.00
899.3560, 18419.00
900.4830, 17978.00
901.6110, 17501.00
902.7380, 17466.00
903.8660, 17440.00
904.9930, 17208.00
906.1200, 17140.00
907.2460, 17331.00
908.3730, 17396.00
909.5000, 17318.00
910.6260, 17350.00
911.7520, 17422.00
912.8780, 17579.00
914.0040, 17490.00
915.1290, 17645.00
916.2550, 17499.00
917.3800, 17671.00
918.5050, 17921.00
919.6300, 17765.00
920.7550, 17822.00
921.8800, 17931.00
923.0040, 17856.00
924.1290, 17943.00
925.2530, 18061.00
926.3770, 18076.00
927.5010, 18192.03
928.6250, 18143.00
929.7480, 18309.00
930.8720, 18408.00
931.9950, 18341.00
933.1180, 18373.00
934.2410, 18346.00
935.3640, 18370.00
936.4860, 18520.00
937.6090, 18744.00
938.7310, 18513.00
939.8530, 18601.00
940.9750, 18501.00
942.0970, 18676.00
943.2180, 18576.00
944.3400, 18496.00
945.4610, 18717.00
946.5820, 18220.00
947.7030, 18423.00
948.8240, 18137.00
949.9450, 18144.00
951.0650, 17955.00
952.1860, 18081.00
953.3060, 17925.00
954.4260, 17677.00
955.5460, 17804.00
956.6650, 17621.00
957.7850, 17698.00
958.9040, 17664.00
960.0230, 17659.00
961.1420, 17690.00
962.2610, 17558.00
963.3800, 17597.61
964.4990, 17596.00
965.6170, 17529.00
966.7350, 17541.00
967.8530, 17394.00
968.9710, 17514.00
970.0890, 17499.00
971.2070, 17654.00
972.3240, 17439.00
973.4410, 17444.00
974.5580, 17602.00
975.6750, 17481.00
976.7920, 17576.00
977.9090, 17376.00
979.0250, 17574.00
980.1410, 17593.00
981.2580, 17642.00
982.3740, 17627.00
983.4890, 17552.00
984.6050, 17343.00
985.7200, 17540.00
986.8360, 17459.00
987.9510, 17574.00
989.0660, 17721.00
990.1810, 17683.00
991.2950, 17598.00
992.4100, 17670.00
993.5240, 17636.00
994.6390, 17570.00
995.7530, 17648.89
996.8660, 17820.00
997.9800, 17778.00
999.0940, 17789.00
1000.207, 17930.00
1001.320, 17696.00
1002.433, 17838.00
1003.546, 17774.00
1004.659, 17892.00
1005.772, 17805.00
1006.884, 17824.00
1007.996, 17808.00
1009.108, 17910.00
1010.220, 17946.00
1011.332, 17867.00
1012.444, 17841.00
1013.555, 17909.00
1014.666, 18043.00
1015.777, 17995.00
1016.888, 18012.00
1017.999, 17902.00
1019.110, 18026.00
1020.220, 18118.00
1021.331, 18090.00
1022.441, 18092.00
1023.551, 18025.00
1024.661, 18079.00
1025.770, 18045.00
1026.880, 18030.00
1027.989, 18040.00
1029.098, 18014.00
1030.207, 18127.00
1031.316, 18123.00
1032.425, 18199.00
1033.533, 18043.00
1034.642, 18075.00
1035.750, 18259.00
1036.858, 18143.00
1037.966, 18268.00
1039.073, 18198.00
1040.181, 18150.00
1041.288, 18333.00
1042.396, 18179.00
1043.503, 18326.00
1044.610, 18569.00
1045.716, 18254.00
1046.823, 18389.00
1047.929, 18297.00
1049.036, 18444.00
1050.142, 18354.00
1051.248, 18454.00
1052.353, 18436.00
1053.459, 18328.00
1054.564, 18441.00
1055.670, 18424.00
1056.775, 18280.00
1057.880, 18596.00
1058.985, 18372.00
1060.089, 18515.00
1061.194, 18549.00
1062.298, 18451.00
1063.402, 18488.00
1064.506, 18654.00
1065.610, 18580.00
1066.713, 18573.00
1067.817, 18532.00
1068.920, 18528.00
1070.023, 18512.00
1071.126, 18572.00
1072.229, 18537.00
1073.332, 18646.00
1074.435, 18559.00
1075.537, 18712.00
1076.639, 18685.00
1077.741, 18710.00
1078.843, 18687.00
1079.945, 18724.00
1081.046, 18992.00
1082.148, 18862.00
1083.249, 18559.00
1084.350, 18897.00
1085.451, 18743.00
1086.551, 18888.00
1087.652, 18967.00
1088.752, 18965.00
1089.853, 18912.00
1090.953, 18934.00
1092.053, 18892.00
1093.152, 18899.91
1094.252, 18793.00
1095.351, 18881.00
1096.451, 18934.00
1097.550, 18856.00
1098.649, 18738.00
1099.748, 18953.00
1100.846, 19025.00
1101.945, 19025.00
1103.043, 18892.00
1104.141, 18921.00
1105.239, 18742.00
1106.337, 18933.00
1107.434, 18981.00
1108.532, 18981.00
1109.629, 19148.00
1110.726, 18944.00
1111.823, 18885.00
1112.920, 19186.00
1114.017, 19086.00
1115.113, 19331.00
1116.210, 19077.00
1117.306, 19288.00
1118.402, 19270.00
1119.498, 19293.00
1120.593, 19185.00
1121.689, 19261.00
1122.784, 19250.32
1123.879, 19308.00
1124.974, 19286.00
1126.069, 19293.00
1127.164, 19274.00
1128.259, 19168.00
1129.353, 19136.00
1130.447, 19395.00
1131.541, 19393.00
1132.635, 19298.00
1133.729, 19392.00
1134.822, 19319.00
1135.916, 19311.00
1137.009, 19432.00
1138.102, 19194.00
1139.195, 19468.00
1140.288, 19296.00
1141.380, 19447.00
1142.473, 19450.00
1143.565, 19408.00
1144.657, 19526.00
1145.749, 19452.00
1146.841, 19554.00
1147.932, 19526.00
1149.024, 19569.00
1150.115, 19543.00
1151.206, 19648.00
1152.297, 19574.00
1153.388, 19604.00
1154.479, 19574.00
1155.569, 19584.00
1156.659, 19685.00
1157.750, 19521.00
1158.839, 19595.00
1159.929, 19712.00
1161.019, 19521.00
1162.108, 19604.00
1163.198, 19568.00
1164.287, 19678.00
1165.376, 19608.00
1166.465, 19777.00
1167.553, 19749.00
1168.642, 19747.00
1169.730, 19719.00
1170.818, 19746.22
1171.906, 19720.00
1172.994, 19809.00
1174.082, 19774.00
1175.170, 19806.00
1176.257, 19791.00
1177.344, 19884.00
1178.431, 19882.04
1179.518, 19955.00
1180.605, 19938.00
1181.691, 20003.00
1182.778, 20051.48
1183.864, 20001.65
1184.950, 20068.00
1186.036, 19945.00
1187.122, 19937.00
1188.207, 19975.00
1189.292, 20167.00
1190.378, 19806.00
1191.463, 20059.00
1192.548, 20030.00
1193.632, 19984.00
1194.717, 19989.00
1195.801, 20161.00
1196.886, 20146.00
1197.970, 20102.00
1199.054, 20277.00
1200.137, 19951.00
1201.221, 20287.00
1202.305, 20087.00
1203.388, 20085.00
1204.471, 20117.00
1205.554, 20233.00
1206.637, 20195.00
1207.719, 20092.00
1208.802, 20335.00
1209.884, 20556.00
1210.966, 20135.00
1212.048, 20396.00
1213.130, 20329.00
1214.212, 20233.00
1215.293, 20393.00
1216.374, 20366.00
1217.456, 20361.00
1218.536, 20236.00
1219.617, 20420.00
1220.698, 20387.00
1221.778, 20297.00
1222.859, 20243.00
1223.939, 20358.00
1225.019, 20405.00
1226.099, 20550.00
1227.178, 20602.00
1228.258, 20604.00
1229.337, 20491.00
1230.417, 20587.00
1231.496, 20464.00
1232.574, 20603.00
1233.653, 20517.00
1234.732, 20677.00
1235.810, 20621.00
1236.888, 20459.00
1237.966, 20500.00
1239.044, 20607.00
1240.122, 20546.00
1241.199, 20728.00
1242.277, 20582.00
1243.354, 20480.00
1244.431, 20757.00
1245.508, 20643.00
1246.585, 20673.00
1247.661, 20787.00
1248.738, 20526.00
1249.814, 20670.00
1250.890, 20701.00
1251.966, 20915.00
1253.042, 20762.00
1254.117, 20689.00
1255.193, 20718.00
1256.268, 20835.00
1257.343, 20840.00
1258.418, 20768.00
1259.493, 20787.00
1260.567, 20845.00
1261.642, 20695.00
1262.716, 20872.00
1263.790, 20858.00
1264.864, 20870.00
1265.938, 20844.00
1267.011, 20914.00
1268.085, 21024.00
1269.158, 20913.00
1270.231, 20863.00
1271.304, 21078.00
1272.377, 21059.00
1273.450, 20938.00
1274.522, 20908.00
1275.594, 20947.00
1276.666, 21078.00
1277.738, 21114.00
1278.810, 21153.00
1279.882, 21186.00
1280.953, 21178.00
1282.025, 21078.00
1283.096, 21133.00
1284.167, 21088.00
1285.238, 21087.00
1286.308, 21098.00
1287.379, 21089.00
1288.449, 21238.00
1289.519, 21193.00
1290.589, 21272.00
1291.659, 21177.00
1292.729, 21250.00
1293.798, 21306.00
1294.868, 21317.00
1295.937, 21282.00
1297.006, 21336.00
1298.075, 21326.94
1299.143, 21332.82
1300.212, 21317.00
1301.280, 21328.00
1302.348, 21251.00
1303.416, 21205.00
1304.484, 21329.00
1305.552, 21374.00
1306.620, 21317.00
1307.687, 21427.00
1308.754, 21316.00
1309.821, 21346.00
1310.888, 21384.00
1311.955, 21561.00
1313.021, 21467.00
1314.088, 21484.00
1315.154, 21651.00
1316.220, 21531.00
1317.286, 21404.00
1318.352, 21619.00
1319.417, 21536.00
1320.483, 21624.00
1321.548, 21449.00
1322.613, 21645.00
1323.678, 21485.00
1324.743, 21710.00
1325.807, 21606.00
1326.872, 21691.00
1327.936, 21797.00
1329.000, 21709.00
1330.064, 21937.00
1331.128, 21790.00
1332.191, 21891.00
1333.255, 21882.39
1334.318, 21721.00
1335.381, 21829.00
1336.444, 21709.00
1337.507, 21664.00
1338.569, 21960.00
1339.632, 21767.00
1340.694, 21777.00
1341.756, 21958.00
1342.818, 21793.00
1343.880, 21945.00
1344.941, 21749.00
1346.003, 22094.00
1347.064, 22201.00
1348.125, 21897.00
1349.186, 22168.00
1350.247, 22045.00
1351.308, 22089.00
1352.368, 21789.00
1353.428, 21980.00
1354.489, 22092.00
1355.549, 22218.00
1356.608, 22097.00
1357.668, 22213.00
1358.727, 22151.00
1359.787, 21958.00
1360.846, 22131.00
1361.905, 21988.00
1362.964, 22166.00
1364.022, 22287.00
1365.081, 22294.00
1366.139, 22212.00
1367.197, 22137.00
1368.255, 22345.00
1369.313, 22256.00
1370.371, 22273.00
1371.428, 22273.00
1372.486, 22347.00
1373.543, 22400.00
1374.600, 22120.00
1375.657, 22318.00
1376.713, 22262.00
1377.770, 22487.00
1378.826, 22373.00
1379.882, 22339.00
1380.938, 22439.00
1381.994, 22437.00
1383.050, 22483.00
1384.106, 22498.00
1385.161, 22549.72
1386.216, 22652.00
1387.271, 22648.00
1388.326, 22710.00
1389.381, 22726.00
1390.435, 22941.00
1391.490, 22937.00
1392.544, 23059.00
1393.598, 23107.00
1394.652, 23041.00
1395.705, 22944.00
1396.759, 23341.00
1397.812, 23133.00
1398.866, 23108.00
1399.919, 23277.00
1400.972, 23128.00
1402.024, 23007.00
1403.077, 23089.00
1404.129, 23003.00
1405.181, 23123.00
1406.233, 23054.00
1407.285, 23115.00
1408.337, 23227.00
1409.389, 23216.89
1410.440, 23259.58
1411.491, 23308.00
1412.542, 23303.00
1413.593, 23355.00
1414.644, 23449.00
1415.695, 23210.00
1416.745, 23456.00
1417.795, 23557.00
1418.845, 23372.00
1419.895, 23475.00
1420.945, 23581.00
1421.995, 23710.00
1423.044, 23478.00
1424.093, 23672.00
1425.142, 23566.00
1426.191, 23541.00
1427.240, 23639.00
1428.289, 23554.00
1429.337, 23563.00
1430.385, 23693.00
1431.433, 23898.00
1432.481, 23996.00
1433.529, 23874.00
1434.577, 23935.00
1435.624, 23959.00
1436.672, 23910.00
1437.719, 23999.78
1438.766, 24073.00
1439.812, 24175.00
1440.859, 24339.00
1441.905, 24559.00
1442.952, 24477.00
1443.998, 24618.00
1445.044, 24837.00
1446.090, 24786.00
1447.135, 25108.00
1448.181, 24980.00
1449.226, 25061.00
1450.271, 25271.00
1451.316, 25569.00
1452.361, 25869.00
1453.405, 26242.00
1454.450, 26934.00
1455.494, 27747.00
1456.538, 28731.00
1457.582, 30659.00
1458.626, 32467.00
1459.670, 33905.00
1460.713, 35280.00
1461.757, 35596.00
1462.800, 34860.00
1463.843, 33303.00
1464.886, 31877.00
1465.928, 30379.00
1466.971, 29669.00
1468.013, 29284.00
1469.055, 29014.00
1470.097, 28901.00
1471.139, 29129.00
1472.181, 29581.00
1473.222, 29960.00
1474.263, 30693.00
1475.305, 30928.00
1476.346, 31975.00
1477.386, 32973.00
1478.427, 34541.00
1479.468, 36604.00
1480.508, 38907.00
1481.548, 41954.00
1482.588, 45342.00
1483.628, 49391.00
1484.668, 54135.00
1485.707, 58186.00
1486.747, 61714.00
1487.786, 63742.00
1488.825, 64020.00
1489.864, 62484.00
1490.902, 58923.00
1491.941, 53801.00
1492.979, 47922.00
1494.017, 42833.00
1495.055, 38430.00
1496.093, 35042.00
1497.131, 32500.00
1498.168, 30635.00
1499.206, 29281.00
1500.243, 28139.00
1501.280, 27333.00
1502.317, 26801.00
1503.354, 26156.28
1504.390, 25944.00
1505.426, 25489.00
1506.463, 25182.00
1507.499, 25188.00
1508.535, 25144.00
1509.570, 25024.00
1510.606, 24928.00
1511.641, 24833.00
1512.676, 24810.00
1513.711, 24563.00
1514.746, 24474.00
1515.781, 24699.00
1516.816, 24398.00
1517.850, 24404.00
1518.884, 24437.00
1519.918, 24355.00
1520.952, 24303.00
1521.986, 24347.00
1523.019, 24395.00
1524.053, 24282.00
1525.086, 24292.00
1526.119, 24235.00
1527.152, 24333.00
1528.185, 24223.00
1529.217, 24324.00
1530.250, 24504.00
1531.282, 24294.00
1532.314, 24354.00
1533.346, 24180.00
1534.377, 24219.00
1535.409, 24390.00
1536.440, 24198.00
1537.472, 24228.00
1538.503, 24348.00
1539.534, 24210.00
1540.564, 24399.00
1541.595, 24446.00
1542.625, 24373.00
1543.656, 24333.00
1544.686, 24417.00
1545.716, 24323.00
1546.745, 24389.00
1547.775, 24397.00
1548.804, 24420.51
1549.834, 24405.00
1550.863, 24523.00
1551.892, 24531.00
1552.920, 24584.00
1553.949, 24532.00
1554.977, 24443.00
1556.006, 24530.00
1557.034, 24407.00
1558.062, 24523.00
1559.089, 24479.00
1560.117, 24659.00
1561.144, 24625.43
1562.172, 24596.00
1563.199, 24592.00
1564.226, 24611.00
1565.252, 24536.00
1566.279, 24582.00
1567.305, 24258.00
1568.332, 24669.00
1569.358, 24510.00
1570.384, 24466.00
##END=



