##NAMES=Whewellite
##RRUFFID=R050240
##IDEAL CHEMISTRY=Ca(C_2_)^6+^O_4_&#183;H_2_O
##LOCALITY=Huron River, Milan, Ohio, USA
##OWNER=RRUFF
##SOURCE=Marcus Origlieri
##DESCRIPTION=White fragment
##STATUS=The identification of this mineral has been confirmed by X-ray diffraction and chemical analysis
##URL=rruff.info/R050240
##MEASURED CHEMISTRY=Ca_1.00_C_2_O_4_Â·H_2_O
##PIN_ID=L01615
##ORIENTATION=Laser parallel to -a* (-1 0 0). Fiducial mark perpendicular to laser is parallel to b [0 1 0]
100.8830, 4593.000
102.1160, 4777.000
103.3490, 4883.000
104.5820, 4973.000
105.8150, 5235.000
107.0470, 5648.000
108.2800, 5797.000
109.5120, 5795.000
110.7440, 5876.000
111.9760, 6288.000
113.2080, 6606.000
114.4400, 7032.000
115.6710, 7701.000
116.9030, 8358.590
118.1340, 9104.000
119.3650, 10052.00
120.5960, 11128.00
121.8270, 12142.00
123.0580, 13391.00
124.2880, 14835.00
125.5190, 16147.00
126.7490, 18173.00
127.9790, 20380.00
129.2090, 22995.00
130.4390, 25601.00
131.6680, 28278.00
132.8980, 31223.00
134.1270, 33931.00
135.3560, 36486.00
136.5850, 38094.00
137.8140, 39172.00
139.0430, 38306.00
140.2710, 36108.00
141.5000, 32395.00
142.7280, 28315.00
143.9560, 24524.00
145.1840, 20833.00
146.4120, 17690.00
147.6390, 14978.00
148.8670, 12835.00
150.0940, 11336.00
151.3210, 9992.000
152.5490, 8993.000
153.7750, 8167.000
155.0020, 7634.000
156.2290, 7160.000
157.4550, 6881.000
158.6810, 6698.000
159.9080, 6463.000
161.1340, 6285.000
162.3590, 6149.000
163.5850, 6133.000
164.8110, 6049.000
166.0360, 6098.000
167.2610, 6225.000
168.4860, 6289.000
169.7110, 6432.000
170.9360, 6658.000
172.1610, 7013.000
173.3850, 7347.000
174.6100, 7831.000
175.8340, 8420.000
177.0580, 8757.000
178.2820, 9294.000
179.5050, 9903.000
180.7290, 10848.00
181.9520, 11945.00
183.1760, 13087.00
184.3990, 14410.00
185.6220, 16030.00
186.8450, 17898.00
188.0670, 20261.00
189.2900, 22257.00
190.5120, 24062.00
191.7340, 24390.00
192.9560, 24272.00
194.1780, 23762.00
195.4000, 22990.00
196.6220, 22511.00
197.8430, 22478.00
199.0640, 22374.00
200.2860, 22632.00
201.5070, 23210.00
202.7270, 24010.00
203.9480, 24599.00
205.1690, 24955.00
206.3890, 24128.00
207.6090, 23131.00
208.8290, 21625.00
210.0490, 19957.00
211.2690, 18729.31
212.4890, 17295.13
213.7080, 16017.00
214.9280, 14901.00
216.1470, 13853.00
217.3660, 13099.00
218.5850, 12455.00
219.8030, 11919.00
221.0220, 11333.00
222.2400, 10636.00
223.4590, 9860.000
224.6770, 9075.000
225.8950, 8256.000
227.1120, 7711.000
228.3300, 7253.000
229.5480, 6959.000
230.7650, 6844.000
231.9820, 6791.000
233.1990, 6745.000
234.4160, 6709.000
235.6330, 6708.783
236.8490, 6726.000
238.0660, 6742.000
239.2820, 6779.000
240.4980, 6819.127
241.7140, 6852.233
242.9300, 6860.000
244.1460, 6948.000
245.3610, 6902.000
246.5770, 6973.000
247.7920, 6883.000
249.0070, 6791.000
250.2220, 6821.000
251.4370, 6557.000
252.6510, 6357.000
253.8660, 6208.000
255.0800, 6076.000
256.2940, 6038.000
257.5080, 5937.379
258.7220, 5965.000
259.9360, 5839.000
261.1490, 5868.000
262.3630, 5856.000
263.5760, 6031.000
264.7890, 5970.182
266.0020, 6038.311
267.2150, 5968.000
268.4270, 6083.000
269.6400, 6137.000
270.8520, 6130.000
272.0640, 6196.000
273.2760, 6097.000
274.4880, 6135.000
275.7000, 6091.000
276.9120, 6060.000
278.1230, 5939.000
279.3340, 5892.000
280.5450, 5847.000
281.7560, 5596.000
282.9670, 5508.000
284.1780, 5289.000
285.3880, 5265.000
286.5980, 5072.000
287.8090, 4979.000
289.0190, 4970.000
290.2290, 4879.000
291.4380, 4844.000
292.6480, 4912.000
293.8570, 4722.000
295.0670, 4762.000
296.2760, 4733.000
297.4850, 4668.000
298.6930, 4628.000
299.9020, 4630.000
301.1110, 4547.000
302.3190, 4579.000
303.5270, 4593.000
304.7350, 4462.000
305.9430, 4384.000
307.1510, 4400.000
308.3580, 4406.000
309.5660, 4322.000
310.7730, 4361.000
311.9800, 4305.000
313.1870, 4216.000
314.3940, 4287.000
315.6010, 4259.000
316.8070, 4265.000
318.0130, 4232.000
319.2200, 4214.747
320.4260, 4270.000
321.6310, 4174.000
322.8370, 4161.000
324.0430, 4154.000
325.2480, 4210.000
326.4540, 4129.000
327.6590, 4155.000
328.8640, 4281.000
330.0680, 4201.000
331.2730, 4219.000
332.4780, 4179.000
333.6820, 4200.000
334.8860, 4171.000
336.0900, 4190.000
337.2940, 4161.000
338.4980, 4209.000
339.7010, 4170.000
340.9050, 4193.516
342.1080, 4188.000
343.3110, 4215.000
344.5140, 4214.000
345.7170, 4210.000
346.9200, 4171.000
348.1220, 4204.000
349.3240, 4202.000
350.5270, 4183.000
351.7290, 4228.000
352.9310, 4171.000
354.1320, 4183.000
355.3340, 4141.000
356.5350, 4202.000
357.7370, 4228.000
358.9380, 4244.000
360.1390, 4134.000
361.3400, 4236.000
362.5400, 4135.000
363.7410, 4215.000
364.9410, 4308.000
366.1410, 4209.000
367.3410, 4233.000
368.5410, 4230.000
369.7410, 4232.000
370.9400, 4253.707
372.1400, 4268.000
373.3390, 4281.000
374.5380, 4259.000
375.7370, 4252.000
376.9360, 4324.000
378.1350, 4319.000
379.3330, 4253.000
380.5310, 4345.000
381.7300, 4288.000
382.9280, 4308.000
384.1260, 4322.000
385.3230, 4290.000
386.5210, 4390.000
387.7180, 4403.000
388.9160, 4382.000
390.1130, 4338.000
391.3100, 4308.000
392.5060, 4300.494
393.7030, 4311.000
394.9000, 4288.000
396.0960, 4330.000
397.2920, 4324.000
398.4880, 4336.000
399.6840, 4367.000
400.8800, 4374.000
402.0750, 4397.000
403.2710, 4417.000
404.4660, 4461.000
405.6610, 4396.000
406.8560, 4492.000
408.0510, 4406.000
409.2450, 4419.000
410.4400, 4403.000
411.6340, 4385.000
412.8280, 4430.000
414.0220, 4377.000
415.2160, 4439.000
416.4100, 4475.000
417.6030, 4451.000
418.7970, 4427.000
419.9900, 4424.000
421.1830, 4430.629
422.3760, 4440.519
423.5690, 4461.000
424.7610, 4480.000
425.9540, 4482.000
427.1460, 4490.000
428.3380, 4488.982
429.5300, 4496.453
430.7220, 4491.000
431.9140, 4509.000
433.1050, 4537.000
434.2970, 4546.000
435.4880, 4549.000
436.6790, 4543.000
437.8700, 4534.000
439.0610, 4611.000
440.2510, 4593.000
441.4420, 4542.000
442.6320, 4651.000
443.8220, 4650.000
445.0120, 4590.000
446.2020, 4599.000
447.3910, 4667.000
448.5810, 4738.000
449.7700, 4668.000
450.9600, 4695.000
452.1490, 4757.000
453.3370, 4760.000
454.5260, 4750.000
455.7150, 4805.000
456.9030, 4803.000
458.0910, 4824.000
459.2800, 4779.000
460.4670, 4922.000
461.6550, 5013.000
462.8430, 4912.000
464.0300, 5086.000
465.2180, 4978.000
466.4050, 5063.000
467.5920, 5047.000
468.7790, 5150.000
469.9650, 5168.000
471.1520, 5341.000
472.3380, 5353.000
473.5250, 5466.000
474.7110, 5623.000
475.8970, 5713.000
477.0820, 5899.000
478.2680, 5947.000
479.4540, 6179.000
480.6390, 6440.000
481.8240, 6724.000
483.0090, 7138.000
484.1940, 7447.000
485.3780, 7950.000
486.5630, 8734.000
487.7470, 9606.000
488.9320, 10485.00
490.1160, 11804.00
491.3000, 13511.00
492.4830, 15309.00
493.6670, 17727.00
494.8500, 20300.00
496.0340, 22833.00
497.2170, 25787.00
498.4000, 28031.00
499.5820, 30002.00
500.7650, 30426.00
501.9480, 29599.00
503.1300, 27236.00
504.3120, 24384.00
505.4940, 21430.00
506.6760, 18474.00
507.8580, 15973.00
509.0390, 13936.00
510.2210, 12332.00
511.4020, 11152.00
512.5830, 10351.00
513.7640, 9693.000
514.9450, 9377.000
516.1250, 9135.000
517.3060, 8983.000
518.4860, 8671.000
519.6660, 8604.000
520.8460, 8397.000
522.0260, 8005.000
523.2060, 7600.000
524.3850, 7310.000
525.5650, 7018.000
526.7440, 6680.000
527.9230, 6464.000
529.1020, 6149.000
530.2810, 6049.000
531.4590, 5714.000
532.6380, 5687.000
533.8160, 5688.000
534.9940, 5515.000
536.1720, 5473.000
537.3500, 5396.000
538.5270, 5362.000
539.7050, 5326.000
540.8820, 5278.000
542.0590, 5335.000
543.2360, 5247.000
544.4130, 5269.000
545.5900, 5280.000
546.7660, 5189.000
547.9430, 5280.000
549.1190, 5180.000
550.2950, 5201.000
551.4710, 5225.000
552.6470, 5164.000
553.8220, 5312.000
554.9980, 5258.000
556.1730, 5271.000
557.3480, 5286.000
558.5230, 5320.003
559.6980, 5374.000
560.8730, 5432.000
562.0470, 5409.000
563.2220, 5442.000
564.3960, 5412.000
565.5700, 5413.000
566.7440, 5403.000
567.9170, 5512.000
569.0910, 5482.000
570.2640, 5682.000
571.4380, 5740.000
572.6110, 5711.000
573.7840, 5785.000
574.9570, 5853.000
576.1290, 5903.000
577.3020, 5968.000
578.4740, 6012.000
579.6460, 6065.000
580.8180, 6257.000
581.9900, 6428.000
583.1620, 6586.000
584.3330, 6690.000
585.5040, 6928.000
586.6760, 7010.000
587.8470, 7186.000
589.0180, 7251.000
590.1880, 7507.000
591.3590, 7528.000
592.5290, 7590.000
593.7000, 7751.000
594.8700, 7611.000
596.0400, 7643.000
597.2090, 7452.000
598.3790, 7290.000
599.5490, 7201.000
600.7180, 7107.000
601.8870, 7024.000
603.0560, 6797.000
604.2250, 6508.000
605.3940, 6521.000
606.5620, 6451.000
607.7300, 6235.000
608.8990, 6241.000
610.0670, 6023.000
611.2350, 5977.000
612.4020, 5919.000
613.5700, 5838.000
614.7370, 5765.000
615.9050, 5777.000
617.0720, 5703.000
618.2390, 5626.000
619.4060, 5609.000
620.5720, 5650.000
621.7390, 5525.000
622.9050, 5626.000
624.0710, 5504.000
625.2370, 5507.000
626.4030, 5384.000
627.5690, 5451.000
628.7340, 5381.000
629.9000, 5419.000
631.0650, 5434.000
632.2300, 5389.000
633.3950, 5335.000
634.5600, 5344.295
635.7240, 5353.000
636.8890, 5311.000
638.0530, 5319.000
639.2170, 5263.000
640.3810, 5280.000
641.5450, 5369.000
642.7080, 5432.000
643.8720, 5428.000
645.0350, 5347.000
646.1980, 5313.000
647.3610, 5309.000
648.5240, 5312.000
649.6870, 5333.000
650.8490, 5318.025
652.0120, 5352.000
653.1740, 5335.000
654.3360, 5289.000
655.4980, 5366.000
656.6600, 5325.000
657.8210, 5254.000
658.9830, 5310.000
660.1440, 5255.000
661.3050, 5270.000
662.4660, 5328.000
663.6270, 5294.000
664.7870, 5306.000
665.9480, 5265.000
667.1080, 5260.000
668.2680, 5252.732
669.4280, 5254.000
670.5880, 5240.000
671.7480, 5311.000
672.9070, 5315.417
674.0670, 5294.000
675.2260, 5285.000
676.3850, 5268.000
677.5440, 5229.000
678.7030, 5228.000
679.8610, 5262.000
681.0200, 5228.000
682.1780, 5250.000
683.3360, 5308.000
684.4940, 5350.000
685.6520, 5208.000
686.8090, 5206.000
687.9670, 5330.000
689.1240, 5173.000
690.2810, 5185.000
691.4380, 5262.000
692.5950, 5232.000
693.7520, 5249.000
694.9080, 5292.000
696.0650, 5327.000
697.2210, 5273.000
698.3770, 5244.000
699.5330, 5274.000
700.6880, 5331.000
701.8440, 5329.000
702.9990, 5306.000
704.1550, 5369.000
705.3100, 5316.000
706.4650, 5266.000
707.6190, 5277.000
708.7740, 5310.000
709.9290, 5342.000
711.0830, 5271.000
712.2370, 5253.000
713.3910, 5303.000
714.5450, 5273.000
715.6980, 5394.000
716.8520, 5319.000
718.0050, 5257.000
719.1580, 5335.000
720.3110, 5364.000
721.4640, 5361.000
722.6170, 5383.000
723.7700, 5382.607
724.9220, 5387.000
726.0740, 5388.000
727.2260, 5368.000
728.3780, 5387.000
729.5300, 5372.660
730.6810, 5363.000
731.8330, 5373.000
732.9840, 5362.000
734.1350, 5389.000
735.2860, 5398.000
736.4370, 5402.000
737.5880, 5352.000
738.7380, 5435.000
739.8880, 5445.000
741.0390, 5418.000
742.1890, 5507.000
743.3380, 5413.000
744.4880, 5401.000
745.6380, 5557.000
746.7870, 5443.000
747.9360, 5544.000
749.0850, 5452.000
750.2340, 5452.000
751.3830, 5491.000
752.5310, 5543.000
753.6800, 5457.000
754.8280, 5479.000
755.9760, 5567.000
757.1240, 5515.000
758.2720, 5553.000
759.4190, 5555.000
760.5670, 5568.000
761.7140, 5553.000
762.8610, 5563.000
764.0080, 5642.000
765.1550, 5702.000
766.3020, 5709.000
767.4480, 5811.000
768.5950, 5813.000
769.7410, 5787.000
770.8870, 5794.000
772.0330, 5887.000
773.1780, 5924.000
774.3240, 6017.000
775.4690, 6017.000
776.6140, 6053.000
777.7590, 6031.000
778.9040, 6111.000
780.0490, 6093.000
781.1940, 5986.000
782.3380, 6085.000
783.4820, 5855.000
784.6260, 5814.000
785.7700, 5833.000
786.9140, 5784.000
788.0580, 5857.000
789.2010, 5763.000
790.3450, 5724.000
791.4880, 5678.000
792.6310, 5714.000
793.7730, 5774.000
794.9160, 5695.000
796.0590, 5807.000
797.2010, 5677.000
798.3430, 5655.000
799.4850, 5685.000
800.6270, 5673.000
801.7690, 5689.447
802.9100, 5699.000
804.0520, 5699.000
805.1930, 5793.000
806.3340, 5754.000
807.4750, 5762.000
808.6160, 5705.000
809.7560, 5718.000
810.8970, 5832.000
812.0370, 5838.000
813.1770, 5755.000
814.3170, 5889.000
815.4570, 5810.000
816.5960, 5815.000
817.7360, 5799.000
818.8750, 5838.000
820.0140, 5828.757
821.1530, 5826.000
822.2920, 5831.000
823.4310, 5852.000
824.5690, 5838.000
825.7070, 5861.977
826.8460, 5874.000
827.9840, 5913.000
829.1220, 5905.000
830.2590, 5966.000
831.3970, 6013.000
832.5340, 6036.000
833.6710, 5997.000
834.8080, 6018.000
835.9450, 5978.000
837.0820, 6058.000
838.2190, 5998.000
839.3550, 6043.000
840.4910, 6114.000
841.6270, 6204.000
842.7630, 6216.000
843.8990, 6330.000
845.0350, 6335.000
846.1700, 6401.000
847.3060, 6555.000
848.4410, 6511.000
849.5760, 6602.000
850.7100, 6708.000
851.8450, 6712.000
852.9800, 6869.000
854.1140, 7043.000
855.2480, 7433.000
856.3820, 7699.000
857.5160, 8231.000
858.6500, 8985.000
859.7830, 9899.000
860.9170, 10538.00
862.0500, 11071.00
863.1830, 11275.00
864.3160, 11463.00
865.4480, 11155.00
866.5810, 10535.00
867.7130, 9936.000
868.8460, 9462.000
869.9780, 9135.321
871.1100, 8914.000
872.2410, 8850.000
873.3730, 8804.000
874.5050, 8926.569
875.6360, 9339.000
876.7670, 9425.000
877.8980, 9804.000
879.0290, 10256.00
880.1590, 10515.00
881.2900, 10834.00
882.4200, 10986.00
883.5500, 11312.00
884.6800, 11632.00
885.8100, 12050.00
886.9400, 13197.00
888.0690, 14515.00
889.1990, 16591.00
890.3280, 18786.00
891.4570, 21715.00
892.5860, 25877.00
893.7140, 30106.00
894.8430, 30593.00
895.9710, 26207.00
897.1000, 20735.00
898.2280, 16191.00
899.3560, 12890.00
900.4830, 10685.00
901.6110, 9355.000
902.7380, 8582.000
903.8660, 8285.000
904.9930, 8209.000
906.1200, 7969.000
907.2460, 7887.000
908.3730, 7875.000
909.5000, 8121.000
910.6260, 8097.000
911.7520, 8178.000
912.8780, 8306.000
914.0040, 8464.000
915.1290, 8597.000
916.2550, 8636.000
917.3800, 8613.000
918.5050, 8605.000
919.6300, 8800.000
920.7550, 8907.000
921.8800, 8969.000
923.0040, 9098.000
924.1290, 9348.000
925.2530, 9380.000
926.3770, 9515.000
927.5010, 9747.000
928.6250, 9738.000
929.7480, 9741.000
930.8720, 9876.000
931.9950, 9979.000
933.1180, 10158.00
934.2410, 10284.00
935.3640, 10377.18
936.4860, 10476.00
937.6090, 10536.00
938.7310, 10595.00
939.8530, 10635.00
940.9750, 10638.00
942.0970, 10728.00
943.2180, 10700.00
944.3400, 10337.00
945.4610, 10303.00
946.5820, 9925.000
947.7030, 9702.000
948.8240, 9407.000
949.9450, 9194.000
951.0650, 8963.000
952.1860, 8663.000
953.3060, 8522.000
954.4260, 8433.000
955.5460, 8049.000
956.6650, 7991.000
957.7850, 7930.000
958.9040, 7678.000
960.0230, 7618.000
961.1420, 7593.000
962.2610, 7585.000
963.3800, 7410.000
964.4990, 7384.000
965.6170, 7372.000
966.7350, 7073.000
967.8530, 7086.000
968.9710, 6971.000
970.0890, 7060.000
971.2070, 6899.000
972.3240, 6934.000
973.4410, 7018.000
974.5580, 6867.000
975.6750, 6788.000
976.7920, 6826.000
977.9090, 6827.000
979.0250, 6802.000
980.1410, 6818.000
981.2580, 6731.000
982.3740, 6809.000
983.4890, 6749.000
984.6050, 6751.326
985.7200, 6766.118
986.8360, 6709.000
987.9510, 6772.000
989.0660, 6680.000
990.1810, 6682.000
991.2950, 6631.000
992.4100, 6722.000
993.5240, 6729.000
994.6390, 6686.000
995.7530, 6724.000
996.8660, 6607.000
997.9800, 6705.000
999.0940, 6690.000
1000.207, 6802.000
1001.320, 6635.000
1002.433, 6623.000
1003.546, 6647.000
1004.659, 6664.000
1005.772, 6596.000
1006.884, 6710.000
1007.996, 6697.000
1009.108, 6708.000
1010.220, 6825.000
1011.332, 6702.000
1012.444, 6720.000
1013.555, 6687.000
1014.666, 6682.000
1015.777, 6745.000
1016.888, 6657.000
1017.999, 6774.000
1019.110, 6748.000
1020.220, 6701.000
1021.331, 6801.000
1022.441, 6751.000
1023.551, 6823.000
1024.661, 6772.000
1025.770, 6785.878
1026.880, 6932.000
1027.989, 6770.000
1029.098, 6856.000
1030.207, 6814.000
1031.316, 6892.000
1032.425, 6948.000
1033.533, 6850.000
1034.642, 6782.000
1035.750, 6807.000
1036.858, 6957.000
1037.966, 6798.000
1039.073, 6960.000
1040.181, 6885.000
1041.288, 6945.000
1042.396, 6797.000
1043.503, 6796.000
1044.610, 6945.000
1045.716, 6966.000
1046.823, 6959.000
1047.929, 6748.000
1049.036, 6965.000
1050.142, 6810.000
1051.248, 6818.000
1052.353, 6940.000
1053.459, 6777.000
1054.564, 6871.000
1055.670, 6901.000
1056.775, 6836.000
1057.880, 6891.000
1058.985, 6843.000
1060.089, 6844.000
1061.194, 6897.000
1062.298, 6881.000
1063.402, 6848.000
1064.506, 6873.000
1065.610, 6906.000
1066.713, 6843.000
1067.817, 6762.000
1068.920, 6842.000
1070.023, 6804.000
1071.126, 6913.000
1072.229, 6882.000
1073.332, 6847.000
1074.435, 6923.000
1075.537, 6824.000
1076.639, 6859.000
1077.741, 6968.000
1078.843, 6962.000
1079.945, 7041.000
1081.046, 6988.000
1082.148, 7095.000
1083.249, 7247.000
1084.350, 7363.000
1085.451, 7323.000
1086.551, 7501.000
1087.652, 7410.000
1088.752, 7320.000
1089.853, 7212.000
1090.953, 7101.000
1092.053, 6996.000
1093.152, 6946.000
1094.252, 6882.000
1095.351, 6943.000
1096.451, 7045.000
1097.550, 6944.000
1098.649, 6913.000
1099.748, 6901.000
1100.846, 6857.000
1101.945, 6926.000
1103.043, 6958.000
1104.141, 7066.000
1105.239, 6926.000
1106.337, 7009.000
1107.434, 6966.000
1108.532, 6982.000
1109.629, 6912.000
1110.726, 6968.000
1111.823, 6980.000
1112.920, 7085.000
1114.017, 7009.000
1115.113, 6984.000
1116.210, 7065.000
1117.306, 7028.013
1118.402, 7216.000
1119.498, 7109.000
1120.593, 7174.000
1121.689, 7316.000
1122.784, 7165.000
1123.879, 7098.000
1124.974, 7084.000
1126.069, 7158.000
1127.164, 7098.000
1128.259, 7034.000
1129.353, 7077.000
1130.447, 7029.000
1131.541, 7046.000
1132.635, 7037.697
1133.729, 7029.881
1134.822, 7033.000
1135.916, 7041.000
1137.009, 7071.000
1138.102, 7097.000
1139.195, 7107.672
1140.288, 7105.529
1141.380, 7101.161
1142.473, 7069.000
1143.565, 7069.000
1144.657, 7028.000
1145.749, 7010.000
1146.841, 7075.000
1147.932, 7146.000
1149.024, 7074.000
1150.115, 7066.000
1151.206, 7033.000
1152.297, 7145.000
1153.388, 7166.000
1154.479, 7065.000
1155.569, 7008.000
1156.659, 7023.701
1157.750, 7106.000
1158.839, 7073.000
1159.929, 7042.000
1161.019, 7143.000
1162.108, 7141.000
1163.198, 7067.000
1164.287, 7151.000
1165.376, 7114.000
1166.465, 7245.000
1167.553, 7142.000
1168.642, 7098.000
1169.730, 7205.000
1170.818, 7135.000
1171.906, 7203.000
1172.994, 7207.000
1174.082, 7228.000
1175.170, 7207.000
1176.257, 7221.000
1177.344, 7217.000
1178.431, 7281.000
1179.518, 7217.000
1180.605, 7280.000
1181.691, 7138.000
1182.778, 7317.000
1183.864, 7158.000
1184.950, 7174.000
1186.036, 7139.000
1187.122, 7252.000
1188.207, 7268.000
1189.292, 7292.000
1190.378, 7151.000
1191.463, 7260.000
1192.548, 7241.000
1193.632, 7290.000
1194.717, 7286.000
1195.801, 7283.000
1196.886, 7358.000
1197.970, 7420.000
1199.054, 7248.000
1200.137, 7284.000
1201.221, 7327.000
1202.305, 7259.000
1203.388, 7288.000
1204.471, 7279.000
1205.554, 7271.000
1206.637, 7219.000
1207.719, 7249.111
1208.802, 7259.176
1209.884, 7292.000
1210.966, 7347.000
1212.048, 7382.000
1213.130, 7470.000
1214.212, 7317.000
1215.293, 7357.000
1216.374, 7397.000
1217.456, 7326.000
1218.536, 7448.000
1219.617, 7337.000
1220.698, 7391.000
1221.778, 7363.000
1222.859, 7402.000
1223.939, 7393.000
1225.019, 7393.000
1226.099, 7458.000
1227.178, 7433.000
1228.258, 7431.000
1229.337, 7431.125
1230.417, 7429.000
1231.496, 7399.000
1232.574, 7440.000
1233.653, 7438.000
1234.732, 7461.000
1235.810, 7498.000
1236.888, 7419.000
1237.966, 7384.000
1239.044, 7533.000
1240.122, 7443.000
1241.199, 7475.000
1242.277, 7505.000
1243.354, 7452.000
1244.431, 7611.000
1245.508, 7447.000
1246.585, 7527.000
1247.661, 7479.000
1248.738, 7457.000
1249.814, 7474.000
1250.890, 7462.000
1251.966, 7458.000
1253.042, 7595.000
1254.117, 7585.000
1255.193, 7541.000
1256.268, 7452.000
1257.343, 7519.000
1258.418, 7475.000
1259.493, 7625.000
1260.567, 7504.000
1261.642, 7595.000
1262.716, 7695.000
1263.790, 7602.000
1264.864, 7584.000
1265.938, 7549.000
1267.011, 7585.000
1268.085, 7592.000
1269.158, 7548.000
1270.231, 7543.000
1271.304, 7571.000
1272.377, 7607.000
1273.450, 7619.000
1274.522, 7520.000
1275.594, 7630.000
1276.666, 7589.000
1277.738, 7620.000
1278.810, 7756.000
1279.882, 7523.000
1280.953, 7779.000
1282.025, 7698.000
1283.096, 7510.000
1284.167, 7635.000
1285.238, 7662.000
1286.308, 7681.000
1287.379, 7535.000
1288.449, 7667.000
1289.519, 7611.000
1290.589, 7702.000
1291.659, 7766.000
1292.729, 7674.000
1293.798, 7653.000
1294.868, 7792.000
1295.937, 7774.000
1297.006, 7773.000
1298.075, 7761.000
1299.143, 7740.000
1300.212, 7698.000
1301.280, 7693.000
1302.348, 7732.000
1303.416, 7805.000
1304.484, 7779.000
1305.552, 7843.000
1306.620, 7795.000
1307.687, 7708.000
1308.754, 7788.000
1309.821, 7764.000
1310.888, 7727.000
1311.955, 7740.000
1313.021, 7795.000
1314.088, 7877.000
1315.154, 7848.000
1316.220, 7998.000
1317.286, 7887.000
1318.352, 7933.000
1319.417, 8001.000
1320.483, 8021.000
1321.548, 8043.993
1322.613, 7917.000
1323.678, 8045.000
1324.743, 7978.000
1325.807, 7945.000
1326.872, 8078.000
1327.936, 8022.000
1329.000, 7865.000
1330.064, 7932.000
1331.128, 7903.000
1332.191, 7808.000
1333.255, 7864.000
1334.318, 7974.000
1335.381, 7968.000
1336.444, 8006.000
1337.507, 7870.000
1338.569, 7979.000
1339.632, 7982.000
1340.694, 7910.000
1341.756, 7955.000
1342.818, 7904.000
1343.880, 7875.000
1344.941, 7977.000
1346.003, 7895.000
1347.064, 8000.000
1348.125, 8067.000
1349.186, 8049.000
1350.247, 8036.000
1351.308, 8017.000
1352.368, 7862.000
1353.428, 8054.000
1354.489, 8120.000
1355.549, 7975.000
1356.608, 8117.000
1357.668, 8048.000
1358.727, 8035.000
1359.787, 8125.000
1360.846, 8121.000
1361.905, 8137.000
1362.964, 8089.000
1364.022, 8192.000
1365.081, 8133.000
1366.139, 8216.000
1367.197, 8131.000
1368.255, 8033.000
1369.313, 8160.000
1370.371, 8334.000
1371.428, 8302.000
1372.486, 8292.000
1373.543, 8270.000
1374.600, 8245.000
1375.657, 8314.000
1376.713, 8423.000
1377.770, 8443.000
1378.826, 8416.000
1379.882, 8466.000
1380.938, 8447.000
1381.994, 8534.000
1383.050, 8668.000
1384.106, 8707.000
1385.161, 8870.000
1386.216, 8937.000
1387.271, 8968.000
1388.326, 9137.000
1389.381, 9175.000
1390.435, 9303.000
1391.490, 9369.000
1392.544, 9448.000
1393.598, 9540.000
1394.652, 9535.000
1395.705, 9653.000
1396.759, 9426.000
1397.812, 9563.000
1398.866, 9499.000
1399.919, 9324.000
1400.972, 9389.000
1402.024, 9224.000
1403.077, 9302.000
1404.129, 9185.000
1405.181, 9237.000
1406.233, 9234.000
1407.285, 9234.000
1408.337, 9213.396
1409.389, 9251.000
1410.440, 9164.000
1411.491, 9147.000
1412.542, 9190.000
1413.593, 9268.000
1414.644, 9277.000
1415.695, 9315.758
1416.745, 9321.315
1417.795, 9352.000
1418.845, 9320.000
1419.895, 9326.000
1420.945, 9353.000
1421.995, 9331.000
1423.044, 9433.000
1424.093, 9266.000
1425.142, 9314.000
1426.191, 9335.000
1427.240, 9429.000
1428.289, 9454.000
1429.337, 9552.000
1430.385, 9645.000
1431.433, 9686.000
1432.481, 9652.000
1433.529, 9784.000
1434.577, 9810.000
1435.624, 9893.000
1436.672, 9979.000
1437.719, 9985.000
1438.766, 10184.00
1439.812, 10256.00
1440.859, 10521.00
1441.905, 10549.00
1442.952, 10841.00
1443.998, 11054.00
1445.044, 11331.00
1446.090, 11567.00
1447.135, 11539.00
1448.181, 11780.00
1449.226, 11852.00
1450.271, 12315.00
1451.316, 12806.00
1452.361, 13481.00
1453.405, 14482.00
1454.450, 15670.00
1455.494, 18129.00
1456.538, 21463.00
1457.582, 26430.00
1458.626, 32579.00
1459.670, 39339.00
1460.713, 42897.00
1461.757, 42421.00
1462.800, 37021.00
1463.843, 30890.00
1464.886, 25260.00
1465.928, 21463.00
1466.971, 19170.00
1468.013, 17938.00
1469.055, 17476.00
1470.097, 17110.00
1471.139, 17309.00
1472.181, 17584.00
1473.222, 18118.00
1474.263, 18620.00
1475.305, 19555.00
1476.346, 20602.00
1477.386, 22351.00
1478.427, 24144.00
1479.468, 27017.00
1480.508, 30452.00
1481.548, 34761.00
1482.588, 40196.00
1483.628, 46127.00
1484.668, 52483.00
1485.707, 58680.00
1486.747, 63756.00
1487.786, 65535.00
1488.825, 65535.00
1489.864, 61702.00
1490.902, 54890.00
1491.941, 46225.00
1492.979, 38350.00
1494.017, 31433.00
1495.055, 26045.00
1496.093, 22048.00
1497.131, 19081.00
1498.168, 17044.00
1499.206, 15353.00
1500.243, 14214.00
1501.280, 13174.00
1502.317, 12676.00
1503.354, 11958.00
1504.390, 11676.00
1505.426, 11160.00
1506.463, 10872.00
1507.499, 10618.00
1508.535, 10458.00
1509.570, 10158.00
1510.606, 10127.00
1511.641, 9976.000
1512.676, 10013.00
1513.711, 9713.000
1514.746, 9737.000
1515.781, 9685.000
1516.816, 9467.000
1517.850, 9565.000
1518.884, 9335.000
1519.918, 9475.000
1520.952, 9345.000
1521.986, 9388.000
1523.019, 9329.000
1524.053, 9196.000
1525.086, 9313.000
1526.119, 9269.000
1527.152, 9247.000
1528.185, 9254.000
1529.217, 9268.000
1530.250, 9185.000
1531.282, 9234.000
1532.314, 9154.000
1533.346, 9212.000
1534.377, 9221.000
1535.409, 9190.000
1536.440, 9171.000
1537.472, 9156.000
1538.503, 9151.000
1539.534, 9188.000
1540.564, 9235.000
1541.595, 9222.000
1542.625, 9139.000
1543.656, 9045.000
1544.686, 9106.000
1545.716, 9071.000
1546.745, 9176.000
1547.775, 9131.000
1548.804, 9250.000
1549.834, 9112.000
1550.863, 9078.000
1551.892, 9208.000
1552.920, 9255.000
1553.949, 9285.000
1554.977, 9151.000
1556.006, 9135.000
1557.034, 9208.000
1558.062, 9139.000
1559.089, 9266.000
1560.117, 9107.000
1561.144, 9069.000
1562.172, 9167.000
1563.199, 9106.000
1564.226, 9195.000
1565.252, 9096.000
1566.279, 9073.000
1567.305, 9134.000
1568.332, 9188.000
1569.358, 9093.000
1570.384, 9157.000
##END=



