##NAMES=Whewellite
##RRUFFID=R050240
##IDEAL CHEMISTRY=Ca(C_2_)^6+^O_4_&#183;H_2_O
##LOCALITY=Huron River, Milan, Ohio, USA
##OWNER=RRUFF
##SOURCE=Marcus Origlieri
##DESCRIPTION=White fragment
##STATUS=The identification of this mineral has been confirmed by X-ray diffraction and chemical analysis
##URL=rruff.info/R050240
##MEASURED CHEMISTRY=Ca_1.00_C_2_O_4_Â·H_2_O
##PIN_ID=L01973
##ORIENTATION=Laser parallel to b* (0 1 0). Fiducial mark perpendicular to laser is parallel to -c [0 0 -1]
100.8830, 6682.000
102.1160, 6749.000
103.3490, 6857.000
104.5820, 7024.000
105.8150, 7314.000
107.0470, 7586.000
108.2800, 7579.000
109.5120, 7701.000
110.7440, 7852.000
111.9760, 7869.000
113.2080, 8295.000
114.4400, 8579.000
115.6710, 8837.000
116.9030, 9060.000
118.1340, 9497.000
119.3650, 9997.000
120.5960, 10498.00
121.8270, 11124.00
123.0580, 11659.00
124.2880, 12565.00
125.5190, 13156.00
126.7490, 14009.00
127.9790, 14841.00
129.2090, 15943.00
130.4390, 16527.00
131.6680, 16980.00
132.8980, 17384.00
134.1270, 17316.00
135.3560, 17298.00
136.5850, 17037.00
137.8140, 16796.00
139.0430, 16245.00
140.2710, 15387.00
141.5000, 14794.00
142.7280, 14112.00
143.9560, 13319.00
145.1840, 12538.00
146.4120, 12013.00
147.6390, 11416.00
148.8670, 10923.00
150.0940, 10441.00
151.3210, 10058.00
152.5490, 9751.000
153.7750, 9552.000
155.0020, 9298.000
156.2290, 9186.000
157.4550, 9024.640
158.6810, 8958.000
159.9080, 8832.000
161.1340, 8794.000
162.3590, 8786.000
163.5850, 8723.000
164.8110, 8668.000
166.0360, 8726.000
167.2610, 8622.000
168.4860, 8803.000
169.7110, 8718.000
170.9360, 8898.000
172.1610, 8919.000
173.3850, 9029.000
174.6100, 9157.000
175.8340, 9343.000
177.0580, 9498.000
178.2820, 9767.349
179.5050, 10024.00
180.7290, 10367.00
181.9520, 10732.00
183.1760, 11090.00
184.3990, 11480.00
185.6220, 11986.00
186.8450, 12452.00
188.0670, 13141.00
189.2900, 13614.00
190.5120, 14187.00
191.7340, 14638.00
192.9560, 14830.00
194.1780, 15571.00
195.4000, 16130.00
196.6220, 16483.00
197.8430, 17232.00
199.0640, 17850.00
200.2860, 18718.00
201.5070, 19469.00
202.7270, 19987.00
203.9480, 20517.00
205.1690, 20640.00
206.3890, 20474.00
207.6090, 19941.00
208.8290, 19037.00
210.0490, 18359.00
211.2690, 17355.00
212.4890, 16827.00
213.7080, 15975.00
214.9280, 15589.00
216.1470, 15372.00
217.3660, 15098.00
218.5850, 15001.00
219.8030, 15159.00
221.0220, 14845.00
222.2400, 14605.00
223.4590, 14049.00
224.6770, 13252.00
225.8950, 12600.00
227.1120, 12003.00
228.3300, 11406.00
229.5480, 11040.00
230.7650, 10634.00
231.9820, 10434.00
233.1990, 10245.00
234.4160, 10082.00
235.6330, 10051.00
236.8490, 10126.00
238.0660, 9931.000
239.2820, 10054.00
240.4980, 10046.00
241.7140, 10187.00
242.9300, 10201.00
244.1460, 10388.00
245.3610, 10387.00
246.5770, 10443.00
247.7920, 10459.00
249.0070, 10405.00
250.2220, 10353.00
251.4370, 10168.00
252.6510, 9998.000
253.8660, 10040.00
255.0800, 9760.000
256.2940, 9800.000
257.5080, 9581.000
258.7220, 9538.000
259.9360, 9414.000
261.1490, 9421.000
262.3630, 9371.000
263.5760, 9439.000
264.7890, 9317.000
266.0020, 9271.000
267.2150, 9312.000
268.4270, 9303.000
269.6400, 9316.000
270.8520, 9412.000
272.0640, 9320.000
273.2760, 9517.000
274.4880, 9404.000
275.7000, 9441.000
276.9120, 9536.000
278.1230, 9484.000
279.3340, 9449.000
280.5450, 9435.000
281.7560, 9543.000
282.9670, 9459.000
284.1780, 9402.000
285.3880, 9556.000
286.5980, 9344.000
287.8090, 9353.000
289.0190, 9249.000
290.2290, 9240.476
291.4380, 9323.000
292.6480, 9296.000
293.8570, 9338.000
295.0670, 9396.000
296.2760, 9323.000
297.4850, 9262.000
298.6930, 9267.000
299.9020, 9280.000
301.1110, 9254.785
302.3190, 9252.467
303.5270, 9234.000
304.7350, 9259.000
305.9430, 9224.000
307.1510, 9307.000
308.3580, 9280.000
309.5660, 9283.000
310.7730, 9367.000
311.9800, 9298.188
313.1870, 9218.000
314.3940, 9229.000
315.6010, 9207.000
316.8070, 9188.000
318.0130, 9234.000
319.2200, 9199.932
320.4260, 9261.000
321.6310, 9189.000
322.8370, 9215.000
324.0430, 9236.000
325.2480, 9260.000
326.4540, 9345.000
327.6590, 9289.000
328.8640, 9367.000
330.0680, 9339.000
331.2730, 9335.000
332.4780, 9317.000
333.6820, 9315.710
334.8860, 9401.000
336.0900, 9331.000
337.2940, 9388.000
338.4980, 9425.000
339.7010, 9295.000
340.9050, 9319.000
342.1080, 9451.000
343.3110, 9527.000
344.5140, 9363.000
345.7170, 9365.000
346.9200, 9348.000
348.1220, 9470.000
349.3240, 9448.000
350.5270, 9464.000
351.7290, 9352.000
352.9310, 9512.000
354.1320, 9498.000
355.3340, 9577.000
356.5350, 9509.000
357.7370, 9474.000
358.9380, 9590.000
360.1390, 9709.000
361.3400, 9556.000
362.5400, 9599.000
363.7410, 9599.000
364.9410, 9600.000
366.1410, 9558.000
367.3410, 9606.000
368.5410, 9588.000
369.7410, 9678.000
370.9400, 9605.000
372.1400, 9579.000
373.3390, 9652.000
374.5380, 9703.000
375.7370, 9769.000
376.9360, 9658.000
378.1350, 9726.000
379.3330, 9666.000
380.5310, 9692.000
381.7300, 9697.000
382.9280, 9801.000
384.1260, 9805.000
385.3230, 9928.000
386.5210, 9819.000
387.7180, 9772.000
388.9160, 9813.000
390.1130, 9842.000
391.3100, 9857.000
392.5060, 9915.000
393.7030, 9944.000
394.9000, 9905.000
396.0960, 9872.000
397.2920, 9899.446
398.4880, 9841.000
399.6840, 9908.000
400.8800, 9964.000
402.0750, 9924.000
403.2710, 9898.000
404.4660, 9968.000
405.6610, 10012.00
406.8560, 9948.000
408.0510, 10032.00
409.2450, 10049.00
410.4400, 9990.000
411.6340, 10029.00
412.8280, 10017.71
414.0220, 10034.32
415.2160, 10052.00
416.4100, 10091.00
417.6030, 10160.00
418.7970, 10194.00
419.9900, 10165.00
421.1830, 10123.00
422.3760, 10101.00
423.5690, 10107.63
424.7610, 10135.00
425.9540, 10164.00
427.1460, 10204.00
428.3380, 10287.00
429.5300, 10324.00
430.7220, 10250.00
431.9140, 10196.00
433.1050, 10267.00
434.2970, 10262.00
435.4880, 10364.00
436.6790, 10282.00
437.8700, 10326.00
439.0610, 10317.00
440.2510, 10382.00
441.4420, 10442.00
442.6320, 10490.00
443.8220, 10518.00
445.0120, 10529.00
446.2020, 10415.00
447.3910, 10366.00
448.5810, 10468.00
449.7700, 10376.00
450.9600, 10447.00
452.1490, 10621.00
453.3370, 10521.00
454.5260, 10562.00
455.7150, 10584.00
456.9030, 10618.00
458.0910, 10658.00
459.2800, 10605.00
460.4670, 10754.00
461.6550, 10653.00
462.8430, 10788.00
464.0300, 10800.00
465.2180, 10808.00
466.4050, 10925.00
467.5920, 10859.00
468.7790, 10947.00
469.9650, 10928.00
471.1520, 10993.00
472.3380, 11038.00
473.5250, 11225.00
474.7110, 11051.00
475.8970, 11335.00
477.0820, 11298.00
478.2680, 11501.00
479.4540, 11643.00
480.6390, 11839.00
481.8240, 11989.00
483.0090, 12089.00
484.1940, 12556.00
485.3780, 12764.00
486.5630, 13117.00
487.7470, 13646.00
488.9320, 14274.00
490.1160, 15184.00
491.3000, 16223.00
492.4830, 17498.00
493.6670, 18862.00
494.8500, 20135.00
496.0340, 21619.00
497.2170, 23199.00
498.4000, 24164.00
499.5820, 25324.00
500.7650, 25045.00
501.9480, 24620.00
503.1300, 23473.00
504.3120, 21867.00
505.4940, 20460.00
506.6760, 18963.00
507.8580, 17297.00
509.0390, 16229.00
510.2210, 15136.00
511.4020, 14430.00
512.5830, 13819.00
513.7640, 13439.00
514.9450, 13113.00
516.1250, 12990.00
517.3060, 12740.00
518.4860, 12533.00
519.6660, 12451.00
520.8460, 12151.00
522.0260, 12050.00
523.2060, 11945.00
524.3850, 11891.00
525.5650, 11858.00
526.7440, 11759.00
527.9230, 11756.00
529.1020, 11636.00
530.2810, 11506.00
531.4590, 11521.00
532.6380, 11440.00
533.8160, 11462.72
534.9940, 11596.00
536.1720, 11527.00
537.3500, 11535.00
538.5270, 11546.00
539.7050, 11456.00
540.8820, 11542.00
542.0590, 11482.00
543.2360, 11546.00
544.4130, 11418.00
545.5900, 11550.00
546.7660, 11624.00
547.9430, 11378.00
549.1190, 11528.00
550.2950, 11568.00
551.4710, 11385.00
552.6470, 11647.00
553.8220, 11550.00
554.9980, 11527.00
556.1730, 11518.00
557.3480, 11605.00
558.5230, 11684.00
559.6980, 11672.00
560.8730, 11585.00
562.0470, 11658.00
563.2220, 11589.00
564.3960, 11716.00
565.5700, 11726.00
566.7440, 11779.00
567.9170, 11800.00
569.0910, 11794.48
570.2640, 11821.00
571.4380, 11800.00
572.6110, 11828.45
573.7840, 11847.54
574.9570, 11885.00
576.1290, 11895.00
577.3020, 11950.00
578.4740, 11963.69
579.6460, 12007.82
580.8180, 12138.00
581.9900, 12106.00
583.1620, 12285.00
584.3330, 12374.00
585.5040, 12462.00
586.6760, 12547.00
587.8470, 12591.00
589.0180, 12654.00
590.1880, 12782.00
591.3590, 12767.33
592.5290, 12908.00
593.7000, 12807.00
594.8700, 12830.00
596.0400, 12911.00
597.2090, 12918.00
598.3790, 12768.00
599.5490, 12565.00
600.7180, 12540.00
601.8870, 12495.00
603.0560, 12263.00
604.2250, 12403.00
605.3940, 12401.00
606.5620, 12305.00
607.7300, 12288.00
608.8990, 12143.00
610.0670, 12223.00
611.2350, 12119.00
612.4020, 12120.00
613.5700, 12226.00
614.7370, 12274.00
615.9050, 12227.00
617.0720, 12169.00
618.2390, 12151.00
619.4060, 12144.00
620.5720, 12261.00
621.7390, 12188.00
622.9050, 12296.00
624.0710, 12178.00
625.2370, 12189.00
626.4030, 12226.00
627.5690, 12240.00
628.7340, 12154.00
629.9000, 12228.00
631.0650, 12299.00
632.2300, 12316.00
633.3950, 12171.00
634.5600, 12341.00
635.7240, 12260.00
636.8890, 12219.00
638.0530, 12331.00
639.2170, 12363.00
640.3810, 12332.00
641.5450, 12488.00
642.7080, 12320.00
643.8720, 12633.00
645.0350, 12267.00
646.1980, 12397.00
647.3610, 12418.00
648.5240, 12464.00
649.6870, 12616.00
650.8490, 12591.00
652.0120, 12486.00
653.1740, 12443.00
654.3360, 12673.00
655.4980, 12569.00
656.6600, 12687.00
657.8210, 12533.00
658.9830, 12491.00
660.1440, 12805.00
661.3050, 12648.00
662.4660, 12631.00
663.6270, 12512.00
664.7870, 12698.00
665.9480, 12650.00
667.1080, 12727.00
668.2680, 12643.00
669.4280, 12601.00
670.5880, 12550.00
671.7480, 12557.00
672.9070, 12560.00
674.0670, 12720.00
675.2260, 12797.00
676.3850, 12753.00
677.5440, 12596.00
678.7030, 12775.00
679.8610, 12702.00
681.0200, 12808.00
682.1780, 12938.00
683.3360, 12836.00
684.4940, 12778.00
685.6520, 12962.00
686.8090, 12941.00
687.9670, 12759.00
689.1240, 12869.00
690.2810, 12869.00
691.4380, 13025.00
692.5950, 13023.00
693.7520, 12925.00
694.9080, 12953.00
696.0650, 12988.00
697.2210, 12978.00
698.3770, 12972.10
699.5330, 12974.33
700.6880, 12970.08
701.8440, 12951.00
702.9990, 12978.00
704.1550, 12961.00
705.3100, 12979.00
706.4650, 13120.00
707.6190, 13106.00
708.7740, 13132.00
709.9290, 13115.00
711.0830, 13034.00
712.2370, 13071.00
713.3910, 13108.00
714.5450, 13124.00
715.6980, 13214.00
716.8520, 13198.00
718.0050, 13091.00
719.1580, 13169.00
720.3110, 13137.00
721.4640, 13198.00
722.6170, 13229.00
723.7700, 13203.30
724.9220, 13293.00
726.0740, 13177.00
727.2260, 13168.00
728.3780, 13171.00
729.5300, 13266.00
730.6810, 13258.00
731.8330, 13367.00
732.9840, 13327.00
734.1350, 13206.00
735.2860, 13340.00
736.4370, 13303.00
737.5880, 13399.00
738.7380, 13392.00
739.8880, 13264.00
741.0390, 13465.00
742.1890, 13387.00
743.3380, 13391.00
744.4880, 13280.00
745.6380, 13443.00
746.7870, 13293.00
747.9360, 13460.00
749.0850, 13496.00
750.2340, 13533.00
751.3830, 13560.00
752.5310, 13678.00
753.6800, 13488.00
754.8280, 13529.00
755.9760, 13533.00
757.1240, 13628.00
758.2720, 13566.00
759.4190, 13837.00
760.5670, 13714.00
761.7140, 13663.00
762.8610, 13797.00
764.0080, 13706.00
765.1550, 13798.00
766.3020, 13725.00
767.4480, 13798.00
768.5950, 13816.00
769.7410, 13801.00
770.8870, 13774.00
772.0330, 13822.00
773.1780, 13832.40
774.3240, 13857.06
775.4690, 13896.00
776.6140, 13977.00
777.7590, 13982.00
778.9040, 14156.00
780.0490, 13890.00
781.1940, 14128.00
782.3380, 13967.00
783.4820, 13970.00
784.6260, 14137.00
785.7700, 14083.00
786.9140, 13842.00
788.0580, 13951.00
789.2010, 13969.00
790.3450, 13944.00
791.4880, 14035.00
792.6310, 13905.00
793.7730, 13891.00
794.9160, 13938.00
796.0590, 13904.00
797.2010, 13942.00
798.3430, 14024.00
799.4850, 14007.00
800.6270, 14005.00
801.7690, 14001.00
802.9100, 14100.00
804.0520, 14114.00
805.1930, 14239.00
806.3340, 14254.00
807.4750, 14133.00
808.6160, 14212.00
809.7560, 14167.00
810.8970, 14229.00
812.0370, 14225.00
813.1770, 13994.00
814.3170, 14332.00
815.4570, 14124.00
816.5960, 14323.00
817.7360, 14109.00
818.8750, 14280.00
820.0140, 14347.00
821.1530, 14431.00
822.2920, 14336.00
823.4310, 14434.00
824.5690, 14367.00
825.7070, 14502.00
826.8460, 14487.00
827.9840, 14357.00
829.1220, 14425.00
830.2590, 14349.00
831.3970, 14384.47
832.5340, 14412.18
833.6710, 14480.00
834.8080, 14458.00
835.9450, 14516.00
837.0820, 14493.00
838.2190, 14632.00
839.3550, 14663.00
840.4910, 14658.00
841.6270, 14845.00
842.7630, 14655.00
843.8990, 14783.00
845.0350, 14831.00
846.1700, 14823.00
847.3060, 14816.00
848.4410, 14943.00
849.5760, 14936.00
850.7100, 14932.00
851.8450, 15185.00
852.9800, 15154.00
854.1140, 15358.00
855.2480, 15634.00
856.3820, 16044.00
857.5160, 16439.00
858.6500, 16878.00
859.7830, 17303.00
860.9170, 17583.00
862.0500, 17610.00
863.1830, 17300.00
864.3160, 17025.00
865.4480, 16724.00
866.5810, 16482.72
867.7130, 15961.00
868.8460, 16045.00
869.9780, 15975.00
871.1100, 15839.00
872.2410, 16016.00
873.3730, 16096.00
874.5050, 16143.00
875.6360, 16410.00
876.7670, 16352.00
877.8980, 16598.00
879.0290, 16764.00
880.1590, 16742.00
881.2900, 16926.00
882.4200, 17292.00
883.5500, 17193.00
884.6800, 17574.00
885.8100, 18025.00
886.9400, 18482.00
888.0690, 19617.00
889.1990, 20771.00
890.3280, 22065.00
891.4570, 23681.00
892.5860, 25985.00
893.7140, 27601.00
894.8430, 27512.00
895.9710, 25126.00
897.1000, 22607.00
898.2280, 20782.00
899.3560, 18914.00
900.4830, 17636.00
901.6110, 16844.00
902.7380, 16377.00
903.8660, 16097.00
904.9930, 16047.00
906.1200, 16071.00
907.2460, 15950.00
908.3730, 15999.00
909.5000, 15953.00
910.6260, 15950.00
911.7520, 16001.00
912.8780, 16224.00
914.0040, 16131.00
915.1290, 16262.00
916.2550, 16253.00
917.3800, 16227.00
918.5050, 16207.00
919.6300, 16278.00
920.7550, 16188.00
921.8800, 16248.00
923.0040, 16312.00
924.1290, 16253.00
925.2530, 16378.00
926.3770, 16358.00
927.5010, 16318.00
928.6250, 16582.00
929.7480, 16342.00
930.8720, 16750.00
931.9950, 16441.00
933.1180, 16614.00
934.2410, 16744.00
935.3640, 16751.00
936.4860, 16537.00
937.6090, 16812.00
938.7310, 16678.00
939.8530, 16835.00
940.9750, 16669.00
942.0970, 16754.00
943.2180, 16695.00
944.3400, 16895.00
945.4610, 16684.00
946.5820, 16463.00
947.7030, 16662.00
948.8240, 16504.00
949.9450, 16479.00
951.0650, 16392.00
952.1860, 16515.00
953.3060, 16260.00
954.4260, 16331.00
955.5460, 16257.00
956.6650, 16086.00
957.7850, 16286.00
958.9040, 16256.00
960.0230, 16117.00
961.1420, 16176.00
962.2610, 16244.00
963.3800, 16001.00
964.4990, 16066.00
965.6170, 16096.00
966.7350, 16026.00
967.8530, 16019.00
968.9710, 15999.00
970.0890, 16089.00
971.2070, 16068.75
972.3240, 16083.00
973.4410, 16103.00
974.5580, 16137.00
975.6750, 16160.00
976.7920, 16155.00
977.9090, 16237.00
979.0250, 16101.00
980.1410, 16163.00
981.2580, 16168.00
982.3740, 16262.00
983.4890, 16343.00
984.6050, 16285.00
985.7200, 16317.52
986.8360, 16183.00
987.9510, 16268.00
989.0660, 16274.00
990.1810, 16272.00
991.2950, 16296.00
992.4100, 16346.04
993.5240, 16251.00
994.6390, 16431.00
995.7530, 16340.00
996.8660, 16279.00
997.9800, 16483.00
999.0940, 16350.00
1000.207, 16393.00
1001.320, 16446.00
1002.433, 16370.00
1003.546, 16358.00
1004.659, 16368.00
1005.772, 16361.63
1006.884, 16489.00
1007.996, 16424.00
1009.108, 16558.00
1010.220, 16630.00
1011.332, 16620.00
1012.444, 16600.00
1013.555, 16691.00
1014.666, 16652.03
1015.777, 16617.00
1016.888, 16668.00
1017.999, 16632.00
1019.110, 16687.00
1020.220, 16747.00
1021.331, 16756.74
1022.441, 16762.00
1023.551, 16796.00
1024.661, 16884.00
1025.770, 16837.00
1026.880, 16846.00
1027.989, 16826.00
1029.098, 16763.00
1030.207, 16785.00
1031.316, 16857.00
1032.425, 16902.00
1033.533, 16841.00
1034.642, 16941.00
1035.750, 16984.00
1036.858, 16910.00
1037.966, 16926.00
1039.073, 16922.00
1040.181, 16940.00
1041.288, 16923.00
1042.396, 16902.00
1043.503, 16978.00
1044.610, 16989.00
1045.716, 17043.00
1046.823, 17064.00
1047.929, 17041.00
1049.036, 16892.00
1050.142, 17062.00
1051.248, 17132.00
1052.353, 16906.00
1053.459, 16872.00
1054.564, 17111.00
1055.670, 17145.00
1056.775, 17044.00
1057.880, 17125.00
1058.985, 16967.00
1060.089, 17106.00
1061.194, 17246.00
1062.298, 17168.00
1063.402, 17150.00
1064.506, 17199.00
1065.610, 17045.00
1066.713, 16966.00
1067.817, 16984.80
1068.920, 16951.04
1070.023, 17031.00
1071.126, 17106.00
1072.229, 17231.00
1073.332, 17219.28
1074.435, 17308.00
1075.537, 17246.00
1076.639, 17221.00
1077.741, 17315.00
1078.843, 17510.00
1079.945, 17504.00
1081.046, 17679.00
1082.148, 18154.00
1083.249, 18134.00
1084.350, 18528.00
1085.451, 18624.00
1086.551, 18611.00
1087.652, 18459.00
1088.752, 18141.00
1089.853, 17839.00
1090.953, 17915.00
1092.053, 17605.00
1093.152, 17625.00
1094.252, 17575.00
1095.351, 17528.00
1096.451, 17359.00
1097.550, 17610.00
1098.649, 17642.00
1099.748, 17426.00
1100.846, 17455.00
1101.945, 17816.00
1103.043, 17585.00
1104.141, 17710.00
1105.239, 17657.00
1106.337, 17548.00
1107.434, 17468.00
1108.532, 17731.00
1109.629, 17668.00
1110.726, 17675.00
1111.823, 17732.00
1112.920, 17615.00
1114.017, 17725.00
1115.113, 17856.00
1116.210, 17740.00
1117.306, 17901.00
1118.402, 17692.00
1119.498, 17803.00
1120.593, 18058.00
1121.689, 17822.00
1122.784, 17913.00
1123.879, 17830.00
1124.974, 17792.00
1126.069, 17934.00
1127.164, 17950.00
1128.259, 17778.00
1129.353, 17781.00
1130.447, 18026.00
1131.541, 17826.00
1132.635, 17981.00
1133.729, 17936.00
1134.822, 17924.00
1135.916, 17846.00
1137.009, 17838.00
1138.102, 18109.00
1139.195, 18018.00
1140.288, 17936.00
1141.380, 18219.00
1142.473, 18219.00
1143.565, 18043.00
1144.657, 18194.00
1145.749, 18069.00
1146.841, 18067.00
1147.932, 17826.00
1149.024, 18136.00
1150.115, 18089.00
1151.206, 18259.00
1152.297, 18146.00
1153.388, 18199.00
1154.479, 18060.00
1155.569, 18174.00
1156.659, 18265.00
1157.750, 18168.00
1158.839, 18179.00
1159.929, 18287.00
1161.019, 18325.00
1162.108, 18287.00
1163.198, 18353.56
1164.287, 18331.00
1165.376, 18417.00
1166.465, 18289.00
1167.553, 18364.00
1168.642, 18445.00
1169.730, 18247.00
1170.818, 18364.00
1171.906, 18386.00
1172.994, 18532.00
1174.082, 18395.00
1175.170, 18536.00
1176.257, 18284.00
1177.344, 18430.00
1178.431, 18307.00
1179.518, 18475.00
1180.605, 18528.00
1181.691, 18494.00
1182.778, 18341.00
1183.864, 18409.00
1184.950, 18482.00
1186.036, 18688.00
1187.122, 18638.00
1188.207, 18613.00
1189.292, 18503.00
1190.378, 18517.00
1191.463, 18493.00
1192.548, 18642.00
1193.632, 18584.00
1194.717, 18468.00
1195.801, 18718.00
1196.886, 18722.00
1197.970, 18845.00
1199.054, 18863.19
1200.137, 18716.00
1201.221, 18821.00
1202.305, 18714.00
1203.388, 18672.00
1204.471, 18744.00
1205.554, 18775.00
1206.637, 18876.00
1207.719, 18803.00
1208.802, 18905.00
1209.884, 18840.00
1210.966, 18864.00
1212.048, 18868.00
1213.130, 18928.00
1214.212, 18892.00
1215.293, 18909.00
1216.374, 18949.00
1217.456, 18851.00
1218.536, 19013.00
1219.617, 19046.00
1220.698, 18986.00
1221.778, 18883.00
1222.859, 18959.00
1223.939, 18878.00
1225.019, 19130.00
1226.099, 18947.00
1227.178, 18916.00
1228.258, 19128.00
1229.337, 19150.00
1230.417, 18847.00
1231.496, 19167.00
1232.574, 19141.00
1233.653, 19127.00
1234.732, 19239.00
1235.810, 19193.00
1236.888, 19190.00
1237.966, 19186.00
1239.044, 19203.95
1240.122, 19159.00
1241.199, 19202.00
1242.277, 19239.00
1243.354, 19086.00
1244.431, 19351.00
1245.508, 19108.00
1246.585, 19423.00
1247.661, 19258.00
1248.738, 19162.00
1249.814, 19436.00
1250.890, 19315.00
1251.966, 19233.00
1253.042, 19360.00
1254.117, 19350.00
1255.193, 19332.00
1256.268, 19457.00
1257.343, 19531.00
1258.418, 19437.00
1259.493, 19360.00
1260.567, 19539.00
1261.642, 19513.00
1262.716, 19530.00
1263.790, 19438.00
1264.864, 19296.00
1265.938, 19376.00
1267.011, 19360.00
1268.085, 19522.00
1269.158, 19656.00
1270.231, 19495.00
1271.304, 19469.00
1272.377, 19311.00
1273.450, 19622.00
1274.522, 19671.00
1275.594, 19518.00
1276.666, 19505.00
1277.738, 19600.00
1278.810, 19640.00
1279.882, 19762.00
1280.953, 19759.92
1282.025, 19725.00
1283.096, 19764.00
1284.167, 19614.00
1285.238, 19592.00
1286.308, 19742.00
1287.379, 19684.00
1288.449, 19847.00
1289.519, 19845.00
1290.589, 19785.00
1291.659, 19850.00
1292.729, 19728.00
1293.798, 19943.00
1294.868, 19919.00
1295.937, 19769.00
1297.006, 19875.00
1298.075, 19967.00
1299.143, 19827.00
1300.212, 19888.00
1301.280, 19771.00
1302.348, 19966.00
1303.416, 19988.00
1304.484, 20070.00
1305.552, 19984.00
1306.620, 19931.00
1307.687, 19838.00
1308.754, 20213.00
1309.821, 20136.00
1310.888, 20098.00
1311.955, 20153.00
1313.021, 20060.00
1314.088, 20140.00
1315.154, 20117.00
1316.220, 20349.00
1317.286, 20268.00
1318.352, 20177.00
1319.417, 20344.00
1320.483, 20241.00
1321.548, 20198.00
1322.613, 20190.00
1323.678, 20206.00
1324.743, 20347.00
1325.807, 20292.00
1326.872, 20335.00
1327.936, 20528.00
1329.000, 20392.00
1330.064, 20327.00
1331.128, 20417.00
1332.191, 20545.00
1333.255, 20316.00
1334.318, 20513.00
1335.381, 20523.00
1336.444, 20514.00
1337.507, 20371.00
1338.569, 20383.00
1339.632, 20426.00
1340.694, 20528.00
1341.756, 20541.00
1342.818, 20467.00
1343.880, 20505.00
1344.941, 20511.00
1346.003, 20428.00
1347.064, 20618.00
1348.125, 20615.00
1349.186, 20488.00
1350.247, 20641.00
1351.308, 20671.00
1352.368, 20574.00
1353.428, 20578.00
1354.489, 20683.00
1355.549, 20454.00
1356.608, 20598.00
1357.668, 20793.00
1358.727, 20828.00
1359.787, 20806.00
1360.846, 20631.00
1361.905, 20689.00
1362.964, 20677.00
1364.022, 20907.00
1365.081, 20957.00
1366.139, 20832.00
1367.197, 21020.00
1368.255, 20881.00
1369.313, 20805.00
1370.371, 20954.00
1371.428, 20853.00
1372.486, 20755.00
1373.543, 20821.00
1374.600, 21082.00
1375.657, 21179.00
1376.713, 21008.00
1377.770, 21058.00
1378.826, 21086.00
1379.882, 21071.00
1380.938, 21059.00
1381.994, 21081.61
1383.050, 21154.00
1384.106, 21143.00
1385.161, 21175.00
1386.216, 21278.00
1387.271, 21436.00
1388.326, 21313.00
1389.381, 21466.61
1390.435, 21637.00
1391.490, 21570.00
1392.544, 21479.00
1393.598, 21450.00
1394.652, 21539.67
1395.705, 21690.00
1396.759, 21782.00
1397.812, 21743.00
1398.866, 21823.00
1399.919, 21791.12
1400.972, 21719.00
1402.024, 21722.00
1403.077, 21638.00
1404.129, 21582.00
1405.181, 21656.00
1406.233, 21795.00
1407.285, 21752.00
1408.337, 21908.00
1409.389, 21882.00
1410.440, 21790.00
1411.491, 21703.00
1412.542, 21743.00
1413.593, 21715.39
1414.644, 21815.00
1415.695, 21829.00
1416.745, 21885.00
1417.795, 22065.00
1418.845, 22225.00
1419.895, 21974.00
1420.945, 21962.00
1421.995, 22163.00
1423.044, 21974.00
1424.093, 22032.00
1425.142, 22168.00
1426.191, 22277.00
1427.240, 22211.00
1428.289, 22182.00
1429.337, 22302.00
1430.385, 22298.00
1431.433, 22367.00
1432.481, 22333.00
1433.529, 22556.00
1434.577, 22515.00
1435.624, 22375.00
1436.672, 22592.00
1437.719, 22699.00
1438.766, 22698.00
1439.812, 22661.00
1440.859, 22778.00
1441.905, 22795.00
1442.952, 22985.00
1443.998, 23246.00
1445.044, 23228.00
1446.090, 23512.00
1447.135, 23272.00
1448.181, 23573.00
1449.226, 23606.00
1450.271, 23871.00
1451.316, 23910.00
1452.361, 24222.00
1453.405, 24747.00
1454.450, 25223.00
1455.494, 26316.00
1456.538, 27403.00
1457.582, 29387.00
1458.626, 31583.00
1459.670, 33887.00
1460.713, 35388.00
1461.757, 35427.00
1462.800, 33712.00
1463.843, 31661.00
1464.886, 29839.00
1465.928, 28287.00
1466.971, 27292.00
1468.013, 27049.00
1469.055, 26845.00
1470.097, 27026.00
1471.139, 27217.00
1472.181, 27298.00
1473.222, 27568.00
1474.263, 27987.00
1475.305, 28717.00
1476.346, 29305.00
1477.386, 30414.00
1478.427, 31534.00
1479.468, 33333.00
1480.508, 35390.00
1481.548, 38069.00
1482.588, 41192.00
1483.628, 44420.00
1484.668, 48501.00
1485.707, 51937.00
1486.747, 54676.00
1487.786, 56120.00
1488.825, 55664.00
1489.864, 52502.00
1490.902, 48378.00
1491.941, 43526.00
1492.979, 39212.00
1494.017, 35409.00
1495.055, 32321.00
1496.093, 30223.00
1497.131, 28366.00
1498.168, 27277.00
1499.206, 26082.00
1500.243, 25641.00
1501.280, 25059.00
1502.317, 24758.00
1503.354, 24286.00
1504.390, 23990.00
1505.426, 23897.00
1506.463, 23848.00
1507.499, 23708.00
1508.535, 23594.00
1509.570, 23485.00
1510.606, 23342.00
1511.641, 23200.00
1512.676, 23260.00
1513.711, 23258.00
1514.746, 23188.00
1515.781, 23157.00
1516.816, 23176.74
1517.850, 23175.26
1518.884, 23203.00
1519.918, 23186.00
1520.952, 23154.00
1521.986, 23031.00
1523.019, 23211.00
1524.053, 22981.00
1525.086, 23083.00
1526.119, 22978.00
1527.152, 23001.00
1528.185, 22967.00
1529.217, 22977.48
1530.250, 23041.00
1531.282, 23002.00
1532.314, 23030.00
1533.346, 22964.00
1534.377, 23031.00
1535.409, 23053.00
1536.440, 23177.00
1537.472, 23180.00
1538.503, 23299.00
1539.534, 23086.00
1540.564, 23227.00
1541.595, 23127.00
1542.625, 23242.00
1543.656, 23214.54
1544.686, 23135.00
1545.716, 23172.00
1546.745, 23092.00
1547.775, 23056.00
1548.804, 23117.00
1549.834, 23071.00
1550.863, 23066.00
1551.892, 23136.00
1552.920, 23315.00
1553.949, 23219.00
1554.977, 23201.00
1556.006, 23305.00
1557.034, 23056.00
1558.062, 23359.00
1559.089, 23287.00
1560.117, 23218.00
1561.144, 23348.00
1562.172, 23424.00
1563.199, 23225.00
1564.226, 23235.00
1565.252, 23476.00
1566.279, 23119.00
1567.305, 23402.00
1568.332, 23446.00
1569.358, 23560.00
1570.384, 23588.00
##END=



