##NAMES=Whewellite
##RRUFFID=R050240
##IDEAL CHEMISTRY=Ca(C_2_)^6+^O_4_&#183;H_2_O
##LOCALITY=Huron River, Milan, Ohio, USA
##OWNER=RRUFF
##SOURCE=Marcus Origlieri
##DESCRIPTION=White fragment
##STATUS=The identification of this mineral has been confirmed by X-ray diffraction and chemical analysis
##URL=rruff.info/R050240
##MEASURED CHEMISTRY=Ca_1.00_C_2_O_4_Â·H_2_O
##PIN_ID=L01615
##ORIENTATION=Laser parallel to -a* (-1 0 0). Fiducial mark perpendicular to laser is parallel to b [0 1 0]
100.8830, 6269.000
102.1160, 6499.000
103.3490, 6435.000
104.5820, 6615.000
105.8150, 6966.000
107.0470, 6980.748
108.2800, 7472.000
109.5120, 7273.000
110.7440, 7352.000
111.9760, 7526.000
113.2080, 7663.000
114.4400, 8164.000
115.6710, 8414.000
116.9030, 8743.000
118.1340, 9257.000
119.3650, 9694.000
120.5960, 10385.00
121.8270, 11157.00
123.0580, 11984.00
124.2880, 12776.00
125.5190, 13662.00
126.7490, 14718.00
127.9790, 15963.00
129.2090, 17145.00
130.4390, 18178.00
131.6680, 18953.00
132.8980, 19694.00
134.1270, 19802.00
135.3560, 20037.00
136.5850, 19706.00
137.8140, 19313.00
139.0430, 18755.00
140.2710, 18181.00
141.5000, 17309.00
142.7280, 16585.00
143.9560, 15427.00
145.1840, 14582.00
146.4120, 13846.00
147.6390, 12722.00
148.8670, 11950.00
150.0940, 11168.00
151.3210, 10453.00
152.5490, 9867.000
153.7750, 9345.660
155.0020, 8875.000
156.2290, 8577.000
157.4550, 8300.000
158.6810, 8110.000
159.9080, 7944.000
161.1340, 7764.000
162.3590, 7641.000
163.5850, 7559.946
164.8110, 7473.000
166.0360, 7491.000
167.2610, 7569.000
168.4860, 7621.000
169.7110, 7630.000
170.9360, 7787.000
172.1610, 7887.000
173.3850, 8144.000
174.6100, 8251.000
175.8340, 8579.000
177.0580, 8893.000
178.2820, 9268.000
179.5050, 9608.000
180.7290, 9886.000
181.9520, 10364.00
183.1760, 10792.00
184.3990, 11362.00
185.6220, 12013.00
186.8450, 12767.00
188.0670, 13505.00
189.2900, 14110.00
190.5120, 14855.00
191.7340, 15732.00
192.9560, 16095.00
194.1780, 16765.00
195.4000, 17492.00
196.6220, 18563.00
197.8430, 19661.00
199.0640, 21118.00
200.2860, 22389.00
201.5070, 24025.00
202.7270, 25383.00
203.9480, 26686.00
205.1690, 27487.00
206.3890, 27772.00
207.6090, 26836.00
208.8290, 26135.00
210.0490, 24535.00
211.2690, 23141.00
212.4890, 21735.00
213.7080, 20171.00
214.9280, 19082.00
216.1470, 18197.00
217.3660, 17604.00
218.5850, 17029.00
219.8030, 16622.00
221.0220, 16223.00
222.2400, 15428.00
223.4590, 14434.00
224.6770, 13244.00
225.8950, 12185.00
227.1120, 11172.00
228.3300, 10313.00
229.5480, 9783.000
230.7650, 9435.000
231.9820, 9189.000
233.1990, 8897.000
234.4160, 8856.000
235.6330, 8927.000
236.8490, 8871.000
238.0660, 8949.000
239.2820, 9042.000
240.4980, 8936.000
241.7140, 9215.000
242.9300, 9371.000
244.1460, 9368.000
245.3610, 9680.000
246.5770, 9730.000
247.7920, 9694.000
249.0070, 9587.000
250.2220, 9515.000
251.4370, 9217.000
252.6510, 8922.000
253.8660, 8776.000
255.0800, 8479.000
256.2940, 8374.000
257.5080, 8244.000
258.7220, 8189.000
259.9360, 7853.000
261.1490, 7748.000
262.3630, 7573.000
263.5760, 7630.000
264.7890, 7649.000
266.0020, 7609.000
267.2150, 7546.000
268.4270, 7450.000
269.6400, 7434.000
270.8520, 7414.000
272.0640, 7263.000
273.2760, 7318.000
274.4880, 7221.000
275.7000, 7128.000
276.9120, 7124.000
278.1230, 7239.000
279.3340, 7115.000
280.5450, 7159.000
281.7560, 6955.000
282.9670, 7104.000
284.1780, 7037.000
285.3880, 6981.000
286.5980, 7147.000
287.8090, 7019.000
289.0190, 6985.000
290.2290, 7047.000
291.4380, 7023.000
292.6480, 7028.000
293.8570, 7013.000
295.0670, 7083.000
296.2760, 7107.000
297.4850, 7143.000
298.6930, 7127.000
299.9020, 7072.520
301.1110, 7044.273
302.3190, 6973.365
303.5270, 6909.000
304.7350, 6806.000
305.9430, 6708.000
307.1510, 6590.000
308.3580, 6565.689
309.5660, 6534.649
310.7730, 6556.000
311.9800, 6522.000
313.1870, 6584.000
314.3940, 6521.000
315.6010, 6560.000
316.8070, 6537.392
318.0130, 6476.000
319.2200, 6485.000
320.4260, 6519.000
321.6310, 6477.000
322.8370, 6413.000
324.0430, 6444.000
325.2480, 6389.000
326.4540, 6510.000
327.6590, 6472.000
328.8640, 6370.000
330.0680, 6456.000
331.2730, 6410.000
332.4780, 6418.000
333.6820, 6446.000
334.8860, 6323.000
336.0900, 6402.000
337.2940, 6459.000
338.4980, 6385.000
339.7010, 6368.000
340.9050, 6391.000
342.1080, 6464.000
343.3110, 6445.000
344.5140, 6418.000
345.7170, 6363.000
346.9200, 6423.000
348.1220, 6453.000
349.3240, 6404.000
350.5270, 6340.000
351.7290, 6430.000
352.9310, 6535.000
354.1320, 6343.000
355.3340, 6474.000
356.5350, 6424.000
357.7370, 6410.000
358.9380, 6479.000
360.1390, 6463.000
361.3400, 6418.000
362.5400, 6494.000
363.7410, 6495.000
364.9410, 6542.000
366.1410, 6502.000
367.3410, 6483.000
368.5410, 6565.000
369.7410, 6469.000
370.9400, 6527.000
372.1400, 6623.000
373.3390, 6539.000
374.5380, 6612.000
375.7370, 6546.000
376.9360, 6673.000
378.1350, 6626.000
379.3330, 6644.000
380.5310, 6610.000
381.7300, 6626.509
382.9280, 6767.000
384.1260, 6668.000
385.3230, 6695.000
386.5210, 6725.000
387.7180, 6627.000
388.9160, 6753.000
390.1130, 6800.000
391.3100, 6787.000
392.5060, 6697.000
393.7030, 6781.000
394.9000, 6638.000
396.0960, 6737.000
397.2920, 6676.000
398.4880, 6665.000
399.6840, 6774.000
400.8800, 6744.000
402.0750, 6850.000
403.2710, 6770.000
404.4660, 6714.000
405.6610, 6813.000
406.8560, 6729.000
408.0510, 6793.000
409.2450, 6816.000
410.4400, 6833.000
411.6340, 6785.000
412.8280, 6791.000
414.0220, 6835.000
415.2160, 6896.000
416.4100, 6902.000
417.6030, 6827.000
418.7970, 6854.000
419.9900, 6840.000
421.1830, 6908.000
422.3760, 6951.000
423.5690, 7027.000
424.7610, 7050.710
425.9540, 7079.494
427.1460, 7057.000
428.3380, 7107.000
429.5300, 7018.000
430.7220, 7020.000
431.9140, 7061.000
433.1050, 7103.000
434.2970, 7186.000
435.4880, 7166.234
436.6790, 7090.000
437.8700, 7129.000
439.0610, 7160.000
440.2510, 7117.000
441.4420, 7152.614
442.6320, 7128.000
443.8220, 7199.000
445.0120, 7203.000
446.2020, 7299.000
447.3910, 7322.000
448.5810, 7362.000
449.7700, 7374.000
450.9600, 7396.000
452.1490, 7490.000
453.3370, 7469.000
454.5260, 7564.000
455.7150, 7593.000
456.9030, 7561.000
458.0910, 7694.000
459.2800, 7762.000
460.4670, 7836.000
461.6550, 7877.000
462.8430, 7997.000
464.0300, 8115.000
465.2180, 8045.000
466.4050, 8054.000
467.5920, 8356.000
468.7790, 8218.000
469.9650, 8536.000
471.1520, 8719.000
472.3380, 8861.000
473.5250, 9066.000
474.7110, 9197.000
475.8970, 9381.000
477.0820, 9717.000
478.2680, 10170.00
479.4540, 10579.00
480.6390, 10948.00
481.8240, 11637.00
483.0090, 12359.00
484.1940, 13341.00
485.3780, 14448.00
486.5630, 15821.00
487.7470, 17394.00
488.9320, 19645.00
490.1160, 22503.00
491.3000, 26327.00
492.4830, 30463.00
493.6670, 35117.00
494.8500, 40168.00
496.0340, 45470.00
497.2170, 50663.00
498.4000, 55371.00
499.5820, 58939.00
500.7650, 59858.00
501.9480, 58193.00
503.1300, 54323.00
504.3120, 48442.00
505.4940, 41815.00
506.6760, 35630.00
507.8580, 29787.00
509.0390, 25412.00
510.2210, 21676.00
511.4020, 19105.00
512.5830, 16685.00
513.7640, 15125.00
514.9450, 13856.00
516.1250, 12972.00
517.3060, 12184.00
518.4860, 11622.00
519.6660, 11186.00
520.8460, 10848.00
522.0260, 10452.00
523.2060, 10132.14
524.3850, 9853.000
525.5650, 9536.000
526.7440, 9331.000
527.9230, 9077.000
529.1020, 8873.000
530.2810, 8624.000
531.4590, 8559.000
532.6380, 8391.000
533.8160, 8304.000
534.9940, 8281.000
536.1720, 8140.000
537.3500, 8080.000
538.5270, 8162.000
539.7050, 8057.000
540.8820, 7842.000
542.0590, 7958.000
543.2360, 7912.000
544.4130, 7944.000
545.5900, 7881.000
546.7660, 7931.000
547.9430, 7789.000
549.1190, 7828.000
550.2950, 7835.000
551.4710, 7753.000
552.6470, 7864.000
553.8220, 7850.000
554.9980, 7893.000
556.1730, 7731.000
557.3480, 7780.000
558.5230, 7754.000
559.6980, 7755.000
560.8730, 7896.000
562.0470, 7820.000
563.2220, 7864.000
564.3960, 7844.000
565.5700, 7973.000
566.7440, 8013.000
567.9170, 7945.000
569.0910, 7981.000
570.2640, 7977.000
571.4380, 7986.000
572.6110, 8033.000
573.7840, 8055.000
574.9570, 8164.000
576.1290, 8161.000
577.3020, 8199.000
578.4740, 8436.000
579.6460, 8399.000
580.8180, 8532.000
581.9900, 8532.000
583.1620, 8620.000
584.3330, 8870.000
585.5040, 8913.000
586.6760, 9112.000
587.8470, 9188.000
589.0180, 9342.000
590.1880, 9357.000
591.3590, 9503.000
592.5290, 9554.000
593.7000, 9681.000
594.8700, 9513.000
596.0400, 9478.000
597.2090, 9375.000
598.3790, 9252.000
599.5490, 9160.906
600.7180, 9012.000
601.8870, 8893.000
603.0560, 8764.000
604.2250, 8568.000
605.3940, 8425.000
606.5620, 8332.000
607.7300, 8335.000
608.8990, 8202.000
610.0670, 8270.000
611.2350, 8187.000
612.4020, 8171.000
613.5700, 8069.000
614.7370, 8009.000
615.9050, 8094.000
617.0720, 8024.000
618.2390, 8049.000
619.4060, 8003.000
620.5720, 8064.000
621.7390, 7994.000
622.9050, 7953.000
624.0710, 7961.000
625.2370, 8041.000
626.4030, 7976.000
627.5690, 8064.000
628.7340, 8060.000
629.9000, 7998.000
631.0650, 8128.000
632.2300, 7999.000
633.3950, 8090.000
634.5600, 8047.000
635.7240, 8006.000
636.8890, 8081.000
638.0530, 8123.000
639.2170, 8095.000
640.3810, 8018.000
641.5450, 8115.000
642.7080, 8160.000
643.8720, 8069.000
645.0350, 8157.000
646.1980, 8154.000
647.3610, 8090.000
648.5240, 8038.000
649.6870, 8107.000
650.8490, 8177.000
652.0120, 8097.000
653.1740, 8212.000
654.3360, 8063.000
655.4980, 7989.000
656.6600, 8200.000
657.8210, 8123.000
658.9830, 8152.000
660.1440, 8143.000
661.3050, 8248.000
662.4660, 8202.000
663.6270, 8213.000
664.7870, 8317.000
665.9480, 8262.000
667.1080, 8148.000
668.2680, 8151.000
669.4280, 8176.000
670.5880, 8152.000
671.7480, 8148.000
672.9070, 8179.872
674.0670, 8214.000
675.2260, 8243.000
676.3850, 8247.000
677.5440, 8283.000
678.7030, 8293.906
679.8610, 8275.000
681.0200, 8310.000
682.1780, 8254.000
683.3360, 8225.000
684.4940, 8366.000
685.6520, 8238.000
686.8090, 8276.000
687.9670, 8284.000
689.1240, 8256.000
690.2810, 8307.000
691.4380, 8311.000
692.5950, 8288.000
693.7520, 8248.000
694.9080, 8161.000
696.0650, 8266.000
697.2210, 8388.000
698.3770, 8273.000
699.5330, 8312.000
700.6880, 8272.000
701.8440, 8360.000
702.9990, 8377.000
704.1550, 8303.000
705.3100, 8322.000
706.4650, 8330.000
707.6190, 8388.000
708.7740, 8358.000
709.9290, 8397.000
711.0830, 8451.000
712.2370, 8368.000
713.3910, 8346.000
714.5450, 8518.000
715.6980, 8441.000
716.8520, 8413.000
718.0050, 8469.000
719.1580, 8427.000
720.3110, 8506.000
721.4640, 8436.000
722.6170, 8554.000
723.7700, 8421.000
724.9220, 8540.000
726.0740, 8490.000
727.2260, 8449.000
728.3780, 8470.000
729.5300, 8504.000
730.6810, 8509.000
731.8330, 8430.000
732.9840, 8423.000
734.1350, 8560.000
735.2860, 8441.000
736.4370, 8450.000
737.5880, 8525.000
738.7380, 8489.000
739.8880, 8530.000
741.0390, 8622.000
742.1890, 8620.000
743.3380, 8548.000
744.4880, 8631.000
745.6380, 8544.000
746.7870, 8489.000
747.9360, 8620.000
749.0850, 8555.000
750.2340, 8618.000
751.3830, 8624.000
752.5310, 8647.000
753.6800, 8702.000
754.8280, 8650.000
755.9760, 8720.000
757.1240, 8735.000
758.2720, 8664.000
759.4190, 8698.000
760.5670, 8785.000
761.7140, 8726.000
762.8610, 8886.000
764.0080, 8750.000
765.1550, 8801.000
766.3020, 8805.000
767.4480, 8868.000
768.5950, 8956.000
769.7410, 8933.000
770.8870, 8975.000
772.0330, 8971.000
773.1780, 8991.000
774.3240, 9020.135
775.4690, 9081.000
776.6140, 9119.000
777.7590, 9122.000
778.9040, 9266.000
780.0490, 9099.000
781.1940, 9187.000
782.3380, 9022.000
783.4820, 8979.000
784.6260, 9029.000
785.7700, 8927.000
786.9140, 8906.000
788.0580, 8858.000
789.2010, 8851.776
790.3450, 9008.000
791.4880, 8910.000
792.6310, 8987.000
793.7730, 9092.000
794.9160, 8968.000
796.0590, 8879.000
797.2010, 8973.000
798.3430, 8907.000
799.4850, 8941.000
800.6270, 9013.000
801.7690, 9026.000
802.9100, 9020.000
804.0520, 9027.000
805.1930, 8963.000
806.3340, 9100.000
807.4750, 9025.000
808.6160, 9086.000
809.7560, 8967.000
810.8970, 9098.000
812.0370, 9081.000
813.1770, 9074.000
814.3170, 9097.000
815.4570, 9193.000
816.5960, 9029.000
817.7360, 9088.000
818.8750, 8952.000
820.0140, 9191.000
821.1530, 9075.000
822.2920, 9190.000
823.4310, 9158.000
824.5690, 9195.000
825.7070, 9195.000
826.8460, 9119.000
827.9840, 9091.000
829.1220, 9182.000
830.2590, 9234.000
831.3970, 9186.000
832.5340, 9259.000
833.6710, 9285.000
834.8080, 9249.000
835.9450, 9286.000
837.0820, 9223.000
838.2190, 9368.000
839.3550, 9318.000
840.4910, 9531.000
841.6270, 9401.000
842.7630, 9462.000
843.8990, 9591.000
845.0350, 9475.000
846.1700, 9585.000
847.3060, 9715.000
848.4410, 9740.000
849.5760, 9769.000
850.7100, 9735.000
851.8450, 9971.000
852.9800, 10047.00
854.1140, 10168.00
855.2480, 10623.00
856.3820, 11007.00
857.5160, 11441.00
858.6500, 12249.00
859.7830, 13197.00
860.9170, 14186.00
862.0500, 14909.00
863.1830, 15082.00
864.3160, 15018.00
865.4480, 14644.00
866.5810, 13963.00
867.7130, 13028.00
868.8460, 12343.00
869.9780, 11814.00
871.1100, 11409.00
872.2410, 11171.00
873.3730, 11116.00
874.5050, 11207.00
875.6360, 11400.00
876.7670, 11455.00
877.8980, 11766.00
879.0290, 12036.00
880.1590, 12487.00
881.2900, 12700.00
882.4200, 13095.00
883.5500, 13726.00
884.6800, 14416.00
885.8100, 15593.00
886.9400, 17466.00
888.0690, 20515.00
889.1990, 24562.00
890.3280, 28563.00
891.4570, 33162.00
892.5860, 39861.00
893.7140, 46631.00
894.8430, 49338.00
895.9710, 44109.00
897.1000, 34477.00
898.2280, 25735.00
899.3560, 19602.00
900.4830, 15579.00
901.6110, 13395.00
902.7380, 12240.00
903.8660, 11675.00
904.9930, 11202.00
906.1200, 11115.00
907.2460, 10913.00
908.3730, 10969.00
909.5000, 10860.00
910.6260, 10843.00
911.7520, 10787.00
912.8780, 10755.00
914.0040, 10934.00
915.1290, 10930.00
916.2550, 11071.00
917.3800, 11083.00
918.5050, 11117.00
919.6300, 11094.00
920.7550, 11105.00
921.8800, 11199.00
923.0040, 11153.00
924.1290, 11273.00
925.2530, 11307.00
926.3770, 11338.00
927.5010, 11451.00
928.6250, 11513.00
929.7480, 11506.00
930.8720, 11478.00
931.9950, 11550.00
933.1180, 11587.00
934.2410, 11552.00
935.3640, 11575.00
936.4860, 11742.00
937.6090, 11741.00
938.7310, 11783.00
939.8530, 11728.00
940.9750, 11780.00
942.0970, 11786.00
943.2180, 11792.00
944.3400, 11738.00
945.4610, 11660.00
946.5820, 11553.00
947.7030, 11488.00
948.8240, 11377.00
949.9450, 11216.00
951.0650, 11239.00
952.1860, 11009.00
953.3060, 10975.00
954.4260, 10957.00
955.5460, 10886.00
956.6650, 10805.00
957.7850, 10802.00
958.9040, 10794.00
960.0230, 10547.00
961.1420, 10522.00
962.2610, 10414.00
963.3800, 10490.00
964.4990, 10552.00
965.6170, 10411.00
966.7350, 10447.00
967.8530, 10519.00
968.9710, 10380.00
970.0890, 10449.00
971.2070, 10376.00
972.3240, 10315.00
973.4410, 10396.00
974.5580, 10386.00
975.6750, 10446.00
976.7920, 10416.00
977.9090, 10399.00
979.0250, 10438.00
980.1410, 10319.00
981.2580, 10502.00
982.3740, 10348.00
983.4890, 10314.00
984.6050, 10407.00
985.7200, 10271.00
986.8360, 10443.00
987.9510, 10404.00
989.0660, 10378.00
990.1810, 10502.00
991.2950, 10406.00
992.4100, 10396.00
993.5240, 10610.00
994.6390, 10539.00
995.7530, 10510.00
996.8660, 10376.00
997.9800, 10430.00
999.0940, 10551.00
1000.207, 10515.00
1001.320, 10559.00
1002.433, 10519.00
1003.546, 10604.00
1004.659, 10530.00
1005.772, 10591.00
1006.884, 10591.00
1007.996, 10612.00
1009.108, 10619.00
1010.220, 10677.00
1011.332, 10509.00
1012.444, 10696.00
1013.555, 10641.00
1014.666, 10687.00
1015.777, 10469.00
1016.888, 10685.00
1017.999, 10806.00
1019.110, 10701.00
1020.220, 10814.00
1021.331, 10673.00
1022.441, 10842.00
1023.551, 10764.00
1024.661, 10766.00
1025.770, 10777.00
1026.880, 10740.00
1027.989, 10823.00
1029.098, 10799.00
1030.207, 10905.00
1031.316, 10877.00
1032.425, 10811.00
1033.533, 11012.00
1034.642, 10956.00
1035.750, 11107.00
1036.858, 10951.00
1037.966, 10959.00
1039.073, 10819.00
1040.181, 10800.00
1041.288, 10884.00
1042.396, 10888.00
1043.503, 10895.00
1044.610, 10870.00
1045.716, 10839.00
1046.823, 10868.00
1047.929, 10872.00
1049.036, 10799.00
1050.142, 10780.00
1051.248, 10805.00
1052.353, 10812.00
1053.459, 10784.00
1054.564, 10823.34
1055.670, 10770.00
1056.775, 10848.00
1057.880, 10822.00
1058.985, 10778.00
1060.089, 10779.00
1061.194, 10782.77
1062.298, 10903.00
1063.402, 10855.00
1064.506, 10839.00
1065.610, 10939.00
1066.713, 10780.00
1067.817, 10947.00
1068.920, 10846.00
1070.023, 10816.00
1071.126, 10815.00
1072.229, 10802.54
1073.332, 10834.00
1074.435, 10860.00
1075.537, 10833.00
1076.639, 10877.00
1077.741, 10894.00
1078.843, 11037.00
1079.945, 11132.00
1081.046, 11089.00
1082.148, 11157.00
1083.249, 11356.00
1084.350, 11310.00
1085.451, 11380.00
1086.551, 11299.00
1087.652, 11289.00
1088.752, 11163.00
1089.853, 11244.00
1090.953, 11065.00
1092.053, 11056.00
1093.152, 10972.00
1094.252, 11018.00
1095.351, 10940.00
1096.451, 11021.00
1097.550, 11007.19
1098.649, 11134.00
1099.748, 11012.00
1100.846, 10976.00
1101.945, 10934.00
1103.043, 10874.00
1104.141, 11003.00
1105.239, 11152.00
1106.337, 11085.00
1107.434, 11068.00
1108.532, 11060.00
1109.629, 11079.00
1110.726, 11188.00
1111.823, 11128.00
1112.920, 11215.00
1114.017, 11160.00
1115.113, 11065.00
1116.210, 11210.00
1117.306, 11397.00
1118.402, 11369.00
1119.498, 11531.00
1120.593, 11352.00
1121.689, 11413.00
1122.784, 11433.00
1123.879, 11396.00
1124.974, 11366.13
1126.069, 11288.76
1127.164, 11265.00
1128.259, 11222.60
1129.353, 11158.00
1130.447, 11165.00
1131.541, 11204.00
1132.635, 11203.48
1133.729, 11134.00
1134.822, 11218.00
1135.916, 11218.00
1137.009, 11246.00
1138.102, 11145.00
1139.195, 11291.00
1140.288, 11233.00
1141.380, 11226.00
1142.473, 11277.00
1143.565, 11258.00
1144.657, 11349.00
1145.749, 11235.00
1146.841, 11294.00
1147.932, 11223.00
1149.024, 11368.00
1150.115, 11223.00
1151.206, 11357.00
1152.297, 11346.00
1153.388, 11440.00
1154.479, 11450.06
1155.569, 11207.00
1156.659, 11403.00
1157.750, 11433.00
1158.839, 11297.00
1159.929, 11402.00
1161.019, 11429.00
1162.108, 11441.00
1163.198, 11457.00
1164.287, 11510.00
1165.376, 11421.00
1166.465, 11439.00
1167.553, 11429.00
1168.642, 11532.00
1169.730, 11364.00
1170.818, 11404.00
1171.906, 11339.00
1172.994, 11509.00
1174.082, 11462.00
1175.170, 11470.00
1176.257, 11567.00
1177.344, 11516.00
1178.431, 11609.00
1179.518, 11631.00
1180.605, 11482.00
1181.691, 11573.00
1182.778, 11711.00
1183.864, 11510.00
1184.950, 11574.00
1186.036, 11605.00
1187.122, 11558.00
1188.207, 11634.00
1189.292, 11616.00
1190.378, 11708.00
1191.463, 11726.00
1192.548, 11586.00
1193.632, 11519.00
1194.717, 11644.00
1195.801, 11709.00
1196.886, 11581.00
1197.970, 11557.00
1199.054, 11741.00
1200.137, 11629.00
1201.221, 11729.00
1202.305, 11752.00
1203.388, 11654.00
1204.471, 11638.00
1205.554, 11620.00
1206.637, 11639.00
1207.719, 11675.00
1208.802, 11703.00
1209.884, 11749.00
1210.966, 11722.00
1212.048, 11866.00
1213.130, 11748.00
1214.212, 11857.00
1215.293, 11715.00
1216.374, 11851.00
1217.456, 11724.00
1218.536, 11652.00
1219.617, 11856.00
1220.698, 11853.00
1221.778, 11735.00
1222.859, 11731.00
1223.939, 11834.00
1225.019, 11797.00
1226.099, 11709.00
1227.178, 11863.00
1228.258, 11952.00
1229.337, 11818.00
1230.417, 11898.00
1231.496, 11960.00
1232.574, 11882.00
1233.653, 11934.30
1234.732, 11803.00
1235.810, 11910.00
1236.888, 11931.00
1237.966, 11898.00
1239.044, 11994.00
1240.122, 11970.00
1241.199, 11879.00
1242.277, 11841.00
1243.354, 11962.00
1244.431, 11927.00
1245.508, 12031.00
1246.585, 12052.00
1247.661, 11968.00
1248.738, 11963.00
1249.814, 11929.00
1250.890, 11964.00
1251.966, 11851.00
1253.042, 11879.53
1254.117, 11896.00
1255.193, 11873.00
1256.268, 11998.00
1257.343, 12009.00
1258.418, 12037.00
1259.493, 12080.00
1260.567, 12075.00
1261.642, 12120.32
1262.716, 12138.76
1263.790, 12173.00
1264.864, 12177.00
1265.938, 12173.00
1267.011, 12168.72
1268.085, 12154.23
1269.158, 12093.00
1270.231, 12120.00
1271.304, 12088.00
1272.377, 12076.00
1273.450, 12174.00
1274.522, 12109.00
1275.594, 12085.00
1276.666, 12043.00
1277.738, 12171.00
1278.810, 12331.00
1279.882, 12422.00
1280.953, 12292.00
1282.025, 12370.00
1283.096, 12245.00
1284.167, 12443.00
1285.238, 12240.00
1286.308, 12157.00
1287.379, 12331.00
1288.449, 12267.00
1289.519, 12225.00
1290.589, 12338.00
1291.659, 12357.00
1292.729, 12373.00
1293.798, 12272.00
1294.868, 12419.00
1295.937, 12319.00
1297.006, 12395.00
1298.075, 12231.00
1299.143, 12355.00
1300.212, 12331.00
1301.280, 12356.00
1302.348, 12443.00
1303.416, 12393.00
1304.484, 12459.00
1305.552, 12380.00
1306.620, 12298.00
1307.687, 12526.00
1308.754, 12478.00
1309.821, 12570.00
1310.888, 12458.00
1311.955, 12621.00
1313.021, 12527.00
1314.088, 12526.00
1315.154, 12532.00
1316.220, 12694.00
1317.286, 12539.00
1318.352, 12695.00
1319.417, 12716.00
1320.483, 12771.00
1321.548, 12628.00
1322.613, 12597.00
1323.678, 12606.00
1324.743, 12795.00
1325.807, 12691.00
1326.872, 12721.00
1327.936, 12581.00
1329.000, 12779.00
1330.064, 12601.00
1331.128, 12610.00
1332.191, 12592.00
1333.255, 12566.00
1334.318, 12748.00
1335.381, 12684.00
1336.444, 12713.00
1337.507, 12746.03
1338.569, 12726.11
1339.632, 12746.00
1340.694, 12748.00
1341.756, 12758.00
1342.818, 12788.78
1343.880, 12780.90
1344.941, 12801.00
1346.003, 12793.00
1347.064, 12852.00
1348.125, 12888.00
1349.186, 12741.00
1350.247, 12704.00
1351.308, 12607.00
1352.368, 12892.00
1353.428, 12718.00
1354.489, 12866.00
1355.549, 12652.00
1356.608, 12837.00
1357.668, 12811.00
1358.727, 12818.00
1359.787, 12940.00
1360.846, 12818.00
1361.905, 12787.00
1362.964, 12805.00
1364.022, 12678.00
1365.081, 12724.34
1366.139, 12803.00
1367.197, 12776.00
1368.255, 12854.00
1369.313, 12942.00
1370.371, 12825.00
1371.428, 13001.00
1372.486, 13037.00
1373.543, 12974.00
1374.600, 12900.00
1375.657, 13066.00
1376.713, 12997.00
1377.770, 13073.00
1378.826, 13056.00
1379.882, 13127.00
1380.938, 13166.00
1381.994, 13194.00
1383.050, 13321.00
1384.106, 13511.00
1385.161, 13534.00
1386.216, 13533.00
1387.271, 13539.00
1388.326, 13456.00
1389.381, 13524.00
1390.435, 13519.00
1391.490, 13684.00
1392.544, 13582.00
1393.598, 13606.00
1394.652, 13711.00
1395.705, 13655.00
1396.759, 13810.00
1397.812, 13749.00
1398.866, 13784.25
1399.919, 13729.00
1400.972, 13766.00
1402.024, 13636.00
1403.077, 13531.00
1404.129, 13660.00
1405.181, 13476.00
1406.233, 13700.00
1407.285, 13648.00
1408.337, 13574.00
1409.389, 13820.00
1410.440, 13680.00
1411.491, 13572.00
1412.542, 13758.00
1413.593, 13674.00
1414.644, 13717.00
1415.695, 13636.00
1416.745, 13701.00
1417.795, 13710.00
1418.845, 13637.00
1419.895, 13727.00
1420.945, 13752.00
1421.995, 13610.00
1423.044, 13704.00
1424.093, 13783.00
1425.142, 13775.00
1426.191, 13862.00
1427.240, 13805.00
1428.289, 13805.00
1429.337, 13971.00
1430.385, 13904.00
1431.433, 13923.00
1432.481, 13983.00
1433.529, 13951.00
1434.577, 14020.45
1435.624, 14140.00
1436.672, 14122.00
1437.719, 14221.00
1438.766, 14278.00
1439.812, 14460.00
1440.859, 14532.00
1441.905, 14480.00
1442.952, 14689.00
1443.998, 14842.00
1445.044, 14953.00
1446.090, 15175.00
1447.135, 15091.00
1448.181, 15252.00
1449.226, 15283.00
1450.271, 15613.00
1451.316, 15851.00
1452.361, 16171.00
1453.405, 16909.00
1454.450, 17753.00
1455.494, 19401.00
1456.538, 21316.00
1457.582, 24526.00
1458.626, 28278.00
1459.670, 32073.00
1460.713, 34215.00
1461.757, 34034.00
1462.800, 31360.00
1463.843, 27339.00
1464.886, 23804.00
1465.928, 21013.00
1466.971, 19444.00
1468.013, 18578.00
1469.055, 18043.00
1470.097, 18035.00
1471.139, 17865.00
1472.181, 18034.00
1473.222, 17998.00
1474.263, 18329.00
1475.305, 18985.00
1476.346, 19369.00
1477.386, 20114.00
1478.427, 21007.00
1479.468, 22126.00
1480.508, 24047.00
1481.548, 25979.00
1482.588, 28430.00
1483.628, 31249.00
1484.668, 34099.00
1485.707, 36986.00
1486.747, 39708.00
1487.786, 40986.00
1488.825, 41096.00
1489.864, 39234.00
1490.902, 35578.00
1491.941, 31866.00
1492.979, 28019.00
1494.017, 24671.00
1495.055, 22249.00
1496.093, 20309.00
1497.131, 18727.00
1498.168, 17620.00
1499.206, 16880.00
1500.243, 16309.00
1501.280, 15949.00
1502.317, 15544.00
1503.354, 15366.00
1504.390, 15216.00
1505.426, 14994.00
1506.463, 14850.27
1507.499, 14712.78
1508.535, 14577.00
1509.570, 14504.00
1510.606, 14475.80
1511.641, 14454.00
1512.676, 14387.00
1513.711, 14276.00
1514.746, 14180.00
1515.781, 14192.00
1516.816, 14204.00
1517.850, 14188.00
1518.884, 14188.00
1519.918, 14210.00
1520.952, 14119.00
1521.986, 14154.00
1523.019, 14267.00
1524.053, 14100.00
1525.086, 14072.00
1526.119, 14155.00
1527.152, 14188.00
1528.185, 14175.00
1529.217, 14104.00
1530.250, 14279.00
1531.282, 13952.00
1532.314, 14131.00
1533.346, 14270.00
1534.377, 14162.00
1535.409, 14237.00
1536.440, 14003.00
1537.472, 14289.00
1538.503, 14148.00
1539.534, 14219.00
1540.564, 14137.00
1541.595, 14095.00
1542.625, 14223.00
1543.656, 14167.00
1544.686, 14219.00
1545.716, 14115.00
1546.745, 14212.00
1547.775, 14236.00
1548.804, 14206.00
1549.834, 14120.00
1550.863, 14235.00
1551.892, 14305.00
1552.920, 14365.00
1553.949, 14264.00
1554.977, 14213.00
1556.006, 14235.00
1557.034, 14229.00
1558.062, 14189.00
1559.089, 14261.00
1560.117, 14232.44
1561.144, 14451.00
1562.172, 14242.00
1563.199, 14300.00
1564.226, 14317.00
1565.252, 14200.00
1566.279, 14289.00
1567.305, 14277.00
1568.332, 14375.00
1569.358, 14468.00
1570.384, 14479.00
##END=



