##NAMES=Whewellite
##RRUFFID=R050240
##IDEAL CHEMISTRY=Ca(C_2_)^6+^O_4_&#183;H_2_O
##LOCALITY=Huron River, Milan, Ohio, USA
##OWNER=RRUFF
##SOURCE=Marcus Origlieri
##DESCRIPTION=White fragment
##STATUS=The identification of this mineral has been confirmed by X-ray diffraction and chemical analysis
##URL=rruff.info/R050240
##MEASURED CHEMISTRY=Ca_1.00_C_2_O_4_Â·H_2_O
##PIN_ID=L01310
##ORIENTATION=Laser parallel to (-1 0 -1). Fiducial mark perpendicular to laser is parallel to b [0 1 0]
108.2800, 7675.000
109.5120, 7588.000
110.7440, 7673.000
111.9760, 7918.000
113.2080, 7993.000
114.4400, 8437.000
115.6710, 8601.000
116.9030, 8932.000
118.1340, 9367.000
119.3650, 9778.000
120.5960, 10355.00
121.8270, 10963.00
123.0580, 11510.00
124.2880, 12307.00
125.5190, 13255.00
126.7490, 14294.00
127.9790, 15161.00
129.2090, 16219.00
130.4390, 17387.00
131.6680, 18081.00
132.8980, 19079.00
134.1270, 19582.00
135.3560, 19857.00
136.5850, 20228.00
137.8140, 20170.00
139.0430, 19556.00
140.2710, 19033.00
141.5000, 18190.00
142.7280, 17254.00
143.9560, 16033.00
145.1840, 14922.00
146.4120, 13810.00
147.6390, 12681.00
148.8670, 11776.00
150.0940, 10944.00
151.3210, 10397.00
152.5490, 9940.000
153.7750, 9430.000
155.0020, 9270.000
156.2290, 9026.000
157.4550, 8859.000
158.6810, 8783.000
159.9080, 8772.000
161.1340, 8726.000
162.3590, 8633.000
163.5850, 8617.000
164.8110, 8606.000
166.0360, 8648.000
167.2610, 8659.000
168.4860, 8674.000
169.7110, 8729.000
170.9360, 8774.000
172.1610, 9041.000
173.3850, 9086.000
174.6100, 9399.000
175.8340, 9580.000
177.0580, 9785.000
178.2820, 10200.00
179.5050, 10726.00
180.7290, 11185.00
181.9520, 11566.00
183.1760, 12219.00
184.3990, 12702.00
185.6220, 13476.00
186.8450, 14004.00
188.0670, 14593.00
189.2900, 15228.00
190.5120, 16105.00
191.7340, 16731.00
192.9560, 17273.00
194.1780, 17570.00
195.4000, 18006.00
196.6220, 18207.00
197.8430, 18475.00
199.0640, 18647.00
200.2860, 18842.00
201.5070, 19213.00
202.7270, 19558.00
203.9480, 19907.00
205.1690, 20288.00
206.3890, 20223.00
207.6090, 20278.00
208.8290, 20000.00
210.0490, 19621.00
211.2690, 18779.00
212.4890, 18116.00
213.7080, 17460.00
214.9280, 16820.00
216.1470, 16294.00
217.3660, 15782.00
218.5850, 15576.00
219.8030, 15341.00
221.0220, 15196.00
222.2400, 14846.00
223.4590, 14355.00
224.6770, 13885.00
225.8950, 13424.00
227.1120, 12718.00
228.3300, 12017.00
229.5480, 11642.00
230.7650, 11491.00
231.9820, 11345.00
233.1990, 11328.00
234.4160, 11360.00
235.6330, 11477.00
236.8490, 11651.00
238.0660, 11820.73
239.2820, 12034.00
240.4980, 12280.00
241.7140, 12536.00
242.9300, 12784.41
244.1460, 13016.00
245.3610, 13205.00
246.5770, 13297.00
247.7920, 13456.00
249.0070, 13461.00
250.2220, 13373.00
251.4370, 13061.00
252.6510, 12774.00
253.8660, 12052.00
255.0800, 11726.00
256.2940, 11228.00
257.5080, 10923.00
258.7220, 10561.00
259.9360, 10349.00
261.1490, 10054.00
262.3630, 10008.00
263.5760, 9730.000
264.7890, 9733.000
266.0020, 9675.000
267.2150, 9820.000
268.4270, 9728.000
269.6400, 9687.000
270.8520, 9694.000
272.0640, 9546.000
273.2760, 9651.000
274.4880, 9744.000
275.7000, 9611.000
276.9120, 9520.000
278.1230, 9529.000
279.3340, 9511.000
280.5450, 9549.000
281.7560, 9536.000
282.9670, 9430.000
284.1780, 9419.000
285.3880, 9407.000
286.5980, 9415.000
287.8090, 9322.000
289.0190, 9397.000
290.2290, 9336.000
291.4380, 9321.000
292.6480, 9410.000
293.8570, 9306.000
295.0670, 9271.000
296.2760, 9316.000
297.4850, 9214.000
298.6930, 9325.000
299.9020, 9342.000
301.1110, 9109.000
302.3190, 9257.000
303.5270, 9168.000
304.7350, 9134.000
305.9430, 9225.000
307.1510, 9123.000
308.3580, 9210.000
309.5660, 9143.000
310.7730, 9088.000
311.9800, 9140.000
313.1870, 9071.274
314.3940, 9164.000
315.6010, 9066.000
316.8070, 9097.000
318.0130, 9203.000
319.2200, 9038.000
320.4260, 9117.000
321.6310, 9247.000
322.8370, 9244.000
324.0430, 9208.000
325.2480, 9067.000
326.4540, 9192.000
327.6590, 9248.000
328.8640, 9178.000
330.0680, 9302.000
331.2730, 9286.000
332.4780, 9210.000
333.6820, 9180.000
334.8860, 9193.000
336.0900, 9385.000
337.2940, 9299.000
338.4980, 9306.000
339.7010, 9408.000
340.9050, 9339.000
342.1080, 9305.000
343.3110, 9272.000
344.5140, 9233.000
345.7170, 9295.000
346.9200, 9397.000
348.1220, 9327.000
349.3240, 9257.000
350.5270, 9470.000
351.7290, 9369.000
352.9310, 9376.000
354.1320, 9287.000
355.3340, 9534.000
356.5350, 9465.000
357.7370, 9434.000
358.9380, 9398.000
360.1390, 9404.000
361.3400, 9390.000
362.5400, 9535.000
363.7410, 9560.000
364.9410, 9545.000
366.1410, 9477.000
367.3410, 9512.000
368.5410, 9475.000
369.7410, 9446.000
370.9400, 9550.000
372.1400, 9466.000
373.3390, 9552.000
374.5380, 9548.000
375.7370, 9553.000
376.9360, 9666.000
378.1350, 9624.000
379.3330, 9613.000
380.5310, 9681.000
381.7300, 9658.000
382.9280, 9713.000
384.1260, 9787.000
385.3230, 9778.000
386.5210, 9781.000
387.7180, 9760.000
388.9160, 9743.000
390.1130, 9772.000
391.3100, 9819.000
392.5060, 9956.000
393.7030, 9739.000
394.9000, 9868.000
396.0960, 9890.000
397.2920, 9646.000
398.4880, 9891.000
399.6840, 9911.000
400.8800, 9871.000
402.0750, 9978.000
403.2710, 9971.000
404.4660, 9911.000
405.6610, 9894.000
406.8560, 9985.000
408.0510, 10024.00
409.2450, 10041.00
410.4400, 9927.000
411.6340, 9936.000
412.8280, 10046.00
414.0220, 10027.00
415.2160, 10092.00
416.4100, 9985.000
417.6030, 10086.00
418.7970, 10080.00
419.9900, 10014.00
421.1830, 10169.00
422.3760, 10153.00
423.5690, 10048.00
424.7610, 10186.00
425.9540, 10157.00
427.1460, 10122.00
428.3380, 10189.00
429.5300, 10125.00
430.7220, 10357.00
431.9140, 10223.00
433.1050, 10098.00
434.2970, 10327.00
435.4880, 10345.00
436.6790, 10234.00
437.8700, 10389.00
439.0610, 10244.00
440.2510, 10389.00
441.4420, 10309.00
442.6320, 10295.00
443.8220, 10369.00
445.0120, 10378.35
446.2020, 10406.00
447.3910, 10486.00
448.5810, 10542.00
449.7700, 10539.00
450.9600, 10639.00
452.1490, 10644.92
453.3370, 10597.00
454.5260, 10681.00
455.7150, 10670.00
456.9030, 10653.00
458.0910, 10580.00
459.2800, 10668.00
460.4670, 10711.00
461.6550, 10763.00
462.8430, 10701.00
464.0300, 10724.00
465.2180, 10698.00
466.4050, 10790.00
467.5920, 10785.00
468.7790, 10786.00
469.9650, 10899.00
471.1520, 10955.00
472.3380, 11106.00
473.5250, 11146.00
474.7110, 10962.00
475.8970, 11054.00
477.0820, 11139.00
478.2680, 11144.00
479.4540, 11369.00
480.6390, 11406.00
481.8240, 11414.00
483.0090, 11542.00
484.1940, 11688.00
485.3780, 11907.00
486.5630, 12091.00
487.7470, 12408.00
488.9320, 12777.73
490.1160, 13272.00
491.3000, 13726.00
492.4830, 14314.00
493.6670, 14987.00
494.8500, 15663.00
496.0340, 16236.27
497.2170, 16939.00
498.4000, 17379.00
499.5820, 17979.00
500.7650, 18471.00
501.9480, 18458.00
503.1300, 18334.00
504.3120, 17907.00
505.4940, 17350.00
506.6760, 16561.00
507.8580, 15800.00
509.0390, 15339.00
510.2210, 14595.00
511.4020, 14351.00
512.5830, 14100.00
513.7640, 14084.00
514.9450, 14187.00
516.1250, 14115.00
517.3060, 14138.00
518.4860, 14322.00
519.6660, 14017.00
520.8460, 14155.00
522.0260, 13984.00
523.2060, 13792.00
524.3850, 13614.00
525.5650, 13329.00
526.7440, 13079.00
527.9230, 12772.00
529.1020, 12596.00
530.2810, 12402.21
531.4590, 12144.00
532.6380, 12136.00
533.8160, 11972.00
534.9940, 11910.00
536.1720, 11831.00
537.3500, 11753.97
538.5270, 11834.00
539.7050, 11683.00
540.8820, 11692.00
542.0590, 11729.00
543.2360, 11631.00
544.4130, 11634.00
545.5900, 11590.00
546.7660, 11678.00
547.9430, 11772.00
549.1190, 11564.00
550.2950, 11692.00
551.4710, 11684.00
552.6470, 11704.00
553.8220, 11769.00
554.9980, 11699.00
556.1730, 11770.00
557.3480, 11879.00
558.5230, 11858.00
559.6980, 12032.00
560.8730, 11951.00
562.0470, 11914.00
563.2220, 12001.00
564.3960, 12035.00
565.5700, 12017.00
566.7440, 12219.00
567.9170, 12294.00
569.0910, 12286.00
570.2640, 12338.00
571.4380, 12303.00
572.6110, 12567.00
573.7840, 12561.00
574.9570, 12744.00
576.1290, 12722.00
577.3020, 12857.00
578.4740, 13037.00
579.6460, 13169.00
580.8180, 13288.86
581.9900, 13527.00
583.1620, 13624.00
584.3330, 13730.00
585.5040, 14146.00
586.6760, 14399.00
587.8470, 14453.00
589.0180, 14861.00
590.1880, 15070.00
591.3590, 15313.00
592.5290, 15349.00
593.7000, 15439.00
594.8700, 15503.00
596.0400, 15446.00
597.2090, 15320.00
598.3790, 15056.00
599.5490, 14798.00
600.7180, 14490.00
601.8870, 14298.00
603.0560, 13939.00
604.2250, 13669.00
605.3940, 13627.00
606.5620, 13375.00
607.7300, 13264.00
608.8990, 13025.00
610.0670, 12959.00
611.2350, 12903.00
612.4020, 12722.00
613.5700, 12741.00
614.7370, 12725.00
615.9050, 12697.00
617.0720, 12651.00
618.2390, 12604.00
619.4060, 12555.00
620.5720, 12575.00
621.7390, 12675.00
622.9050, 12571.00
624.0710, 12496.00
625.2370, 12592.00
626.4030, 12537.00
627.5690, 12384.00
628.7340, 12572.00
629.9000, 12407.00
631.0650, 12593.00
632.2300, 12465.00
633.3950, 12565.00
634.5600, 12640.00
635.7240, 12446.00
636.8890, 12478.00
638.0530, 12514.00
639.2170, 12574.00
640.3810, 12596.16
641.5450, 12580.00
642.7080, 12649.00
643.8720, 12689.00
645.0350, 12698.17
646.1980, 12753.00
647.3610, 12690.00
648.5240, 12678.00
649.6870, 12688.00
650.8490, 12712.00
652.0120, 12732.00
653.1740, 12773.00
654.3360, 12884.00
655.4980, 12894.00
656.6600, 12807.00
657.8210, 12663.00
658.9830, 12812.00
660.1440, 12727.00
661.3050, 12974.00
662.4660, 12821.00
663.6270, 12766.00
664.7870, 12861.00
665.9480, 12737.00
667.1080, 12845.00
668.2680, 12939.00
669.4280, 12854.00
670.5880, 12868.00
671.7480, 12799.00
672.9070, 12853.00
674.0670, 12884.00
675.2260, 12943.00
676.3850, 12939.00
677.5440, 12905.00
678.7030, 12946.00
679.8610, 12921.79
681.0200, 12966.00
682.1780, 12955.00
683.3360, 12949.00
684.4940, 13059.00
685.6520, 12931.00
686.8090, 13092.00
687.9670, 12930.00
689.1240, 13202.00
690.2810, 13018.00
691.4380, 12998.00
692.5950, 13190.00
693.7520, 12993.00
694.9080, 12992.00
696.0650, 13085.00
697.2210, 13186.00
698.3770, 13126.00
699.5330, 13185.74
700.6880, 13041.00
701.8440, 13167.00
702.9990, 13156.00
704.1550, 13116.00
705.3100, 13165.00
706.4650, 13090.00
707.6190, 13278.00
708.7740, 13166.00
709.9290, 13208.00
711.0830, 13312.00
712.2370, 13160.00
713.3910, 13347.00
714.5450, 13270.00
715.6980, 13324.00
716.8520, 13328.00
718.0050, 13282.00
719.1580, 13407.00
720.3110, 13382.00
721.4640, 13243.00
722.6170, 13394.00
723.7700, 13454.00
724.9220, 13287.00
726.0740, 13391.00
727.2260, 13449.00
728.3780, 13460.00
729.5300, 13443.00
730.6810, 13469.00
731.8330, 13354.00
732.9840, 13405.00
734.1350, 13486.00
735.2860, 13364.00
736.4370, 13739.00
737.5880, 13475.00
738.7380, 13617.00
739.8880, 13554.00
741.0390, 13650.00
742.1890, 13586.00
743.3380, 13609.00
744.4880, 13639.00
745.6380, 13695.00
746.7870, 13491.00
747.9360, 13610.00
749.0850, 13540.00
750.2340, 13476.00
751.3830, 13525.00
752.5310, 13660.00
753.6800, 13598.00
754.8280, 13731.00
755.9760, 13620.00
757.1240, 13760.00
758.2720, 13848.00
759.4190, 13943.00
760.5670, 13831.00
761.7140, 13882.00
762.8610, 13872.00
764.0080, 14020.00
765.1550, 13954.00
766.3020, 13978.00
767.4480, 13919.00
768.5950, 13862.00
769.7410, 13860.00
770.8870, 13889.23
772.0330, 14024.00
773.1780, 14007.00
774.3240, 14093.72
775.4690, 14145.00
776.6140, 14149.00
777.7590, 14194.00
778.9040, 14190.00
780.0490, 14323.00
781.1940, 14266.00
782.3380, 14264.12
783.4820, 14285.00
784.6260, 14194.00
785.7700, 14133.00
786.9140, 14133.00
788.0580, 14276.00
789.2010, 14118.00
790.3450, 14291.00
791.4880, 14242.00
792.6310, 14062.00
793.7730, 14055.00
794.9160, 14198.00
796.0590, 14207.00
797.2010, 14278.00
798.3430, 14335.00
799.4850, 14257.00
800.6270, 14205.00
801.7690, 14297.00
802.9100, 14347.00
804.0520, 14329.00
805.1930, 14377.00
806.3340, 14222.00
807.4750, 14340.00
808.6160, 14266.00
809.7560, 14305.00
810.8970, 14424.00
812.0370, 14454.00
813.1770, 14351.00
814.3170, 14499.00
815.4570, 14516.00
816.5960, 14455.00
817.7360, 14568.00
818.8750, 14528.00
820.0140, 14524.00
821.1530, 14582.00
822.2920, 14471.00
823.4310, 14519.00
824.5690, 14567.00
825.7070, 14669.00
826.8460, 14633.00
827.9840, 14644.00
829.1220, 14654.00
830.2590, 14679.48
831.3970, 14683.00
832.5340, 14712.00
833.6710, 14726.65
834.8080, 14730.00
835.9450, 14748.00
837.0820, 14783.00
838.2190, 14763.00
839.3550, 14755.00
840.4910, 14780.00
841.6270, 14871.00
842.7630, 14805.00
843.8990, 15143.00
845.0350, 14905.00
846.1700, 15132.00
847.3060, 15634.00
848.4410, 15374.08
849.5760, 15498.46
850.7100, 15298.00
851.8450, 15346.00
852.9800, 15432.00
854.1140, 15533.00
855.2480, 15849.00
856.3820, 16196.00
857.5160, 16561.00
858.6500, 16922.00
859.7830, 17253.00
860.9170, 17705.00
862.0500, 17858.00
863.1830, 18194.00
864.3160, 18315.00
865.4480, 18126.00
866.5810, 18087.00
867.7130, 17714.00
868.8460, 17384.00
869.9780, 17068.00
871.1100, 16814.00
872.2410, 16533.00
873.3730, 16480.00
874.5050, 16810.00
875.6360, 16789.00
876.7670, 16837.00
877.8980, 17026.00
879.0290, 17205.00
880.1590, 17342.00
881.2900, 17599.00
882.4200, 17772.00
883.5500, 18040.00
884.6800, 18205.00
885.8100, 18819.00
886.9400, 19730.00
888.0690, 21061.00
889.1990, 22475.00
890.3280, 24393.00
891.4570, 25546.00
892.5860, 27183.00
893.7140, 29461.00
894.8430, 30411.00
895.9710, 30509.00
897.1000, 28905.00
898.2280, 26190.00
899.3560, 22704.00
900.4830, 19899.00
901.6110, 18067.00
902.7380, 17353.00
903.8660, 16920.00
904.9930, 16511.00
906.1200, 16544.00
907.2460, 16358.00
908.3730, 16504.00
909.5000, 16465.00
910.6260, 16320.00
911.7520, 16433.00
912.8780, 16472.00
914.0040, 16428.00
915.1290, 16622.00
916.2550, 16705.00
917.3800, 16698.00
918.5050, 16699.00
919.6300, 16759.00
920.7550, 16992.00
921.8800, 17073.00
923.0040, 16987.00
924.1290, 17064.00
925.2530, 16999.00
926.3770, 16974.00
927.5010, 17348.00
928.6250, 17243.00
929.7480, 17407.00
930.8720, 17220.00
931.9950, 17410.00
933.1180, 17452.00
934.2410, 17685.00
935.3640, 17481.00
936.4860, 17613.00
937.6090, 17734.00
938.7310, 17845.00
939.8530, 17721.00
940.9750, 17708.00
942.0970, 17687.00
943.2180, 17817.00
944.3400, 17794.00
945.4610, 17663.00
946.5820, 17662.00
947.7030, 17537.41
948.8240, 17483.00
949.9450, 17295.00
951.0650, 17291.00
952.1860, 17138.00
953.3060, 17062.00
954.4260, 17029.00
955.5460, 16884.00
956.6650, 16760.00
957.7850, 16734.00
958.9040, 16645.09
960.0230, 16768.00
961.1420, 16594.00
962.2610, 16654.00
963.3800, 16704.00
964.4990, 16622.00
965.6170, 16595.00
966.7350, 16619.00
967.8530, 16524.00
968.9710, 16497.00
970.0890, 16477.00
971.2070, 16488.00
972.3240, 16590.00
973.4410, 16464.00
974.5580, 16661.00
975.6750, 16399.00
976.7920, 16475.00
977.9090, 16515.00
979.0250, 16648.00
980.1410, 16657.00
981.2580, 16459.00
982.3740, 16535.00
983.4890, 16437.00
984.6050, 16600.00
985.7200, 16487.00
986.8360, 16675.00
987.9510, 16698.00
989.0660, 16641.00
990.1810, 16611.00
991.2950, 16769.00
992.4100, 16684.00
993.5240, 16725.00
994.6390, 16660.00
995.7530, 16808.00
996.8660, 16860.00
997.9800, 16738.00
999.0940, 16660.00
1000.207, 16718.00
1001.320, 16837.00
1002.433, 16927.00
1003.546, 16893.00
1004.659, 16818.00
1005.772, 16795.00
1006.884, 16764.00
1007.996, 16726.00
1009.108, 16956.00
1010.220, 16891.00
1011.332, 16915.00
1012.444, 17020.00
1013.555, 16862.00
1014.666, 16930.00
1015.777, 16903.30
1016.888, 17039.00
1017.999, 16901.00
1019.110, 16847.00
1020.220, 16898.00
1021.331, 16904.00
1022.441, 17026.00
1023.551, 16963.00
1024.661, 17064.00
1025.770, 17077.00
1026.880, 16978.00
1027.989, 16998.00
1029.098, 17041.00
1030.207, 17089.00
1031.316, 17116.00
1032.425, 17016.00
1033.533, 17262.00
1034.642, 17215.00
1035.750, 17115.00
1036.858, 17210.00
1037.966, 17081.00
1039.073, 17140.00
1040.181, 17227.00
1041.288, 17294.00
1042.396, 17291.00
1043.503, 17310.06
1044.610, 17306.47
1045.716, 17220.00
1046.823, 17237.00
1047.929, 17245.10
1049.036, 17257.69
1050.142, 17282.00
1051.248, 17351.00
1052.353, 17320.00
1053.459, 17375.00
1054.564, 17389.00
1055.670, 17406.17
1056.775, 17415.00
1057.880, 17435.00
1058.985, 17457.00
1060.089, 17422.00
1061.194, 17369.00
1062.298, 17532.00
1063.402, 17212.00
1064.506, 17479.00
1065.610, 17517.00
1066.713, 17390.00
1067.817, 17377.00
1068.920, 17431.00
1070.023, 17591.00
1071.126, 17571.00
1072.229, 17490.00
1073.332, 17376.00
1074.435, 17544.00
1075.537, 17755.00
1076.639, 17658.00
1077.741, 17663.00
1078.843, 17665.00
1079.945, 17767.00
1081.046, 17749.00
1082.148, 17775.83
1083.249, 17762.00
1084.350, 17758.00
1085.451, 17846.00
1086.551, 17779.00
1087.652, 17986.00
1088.752, 17928.00
1089.853, 17952.10
1090.953, 17722.00
1092.053, 17901.00
1093.152, 17863.00
1094.252, 17750.00
1095.351, 17786.00
1096.451, 17791.00
1097.550, 17659.00
1098.649, 17752.00
1099.748, 17838.00
1100.846, 17957.00
1101.945, 17854.00
1103.043, 17971.00
1104.141, 17998.00
1105.239, 17894.00
1106.337, 17873.00
1107.434, 17812.00
1108.532, 17822.00
1109.629, 17820.01
1110.726, 17839.34
1111.823, 17868.00
1112.920, 17959.00
1114.017, 18013.00
1115.113, 18160.00
1116.210, 18045.00
1117.306, 18163.00
1118.402, 18139.00
1119.498, 18221.00
1120.593, 18235.07
1121.689, 18260.00
1122.784, 18259.00
1123.879, 18234.00
1124.974, 18248.00
1126.069, 18176.00
1127.164, 18259.00
1128.259, 18232.00
1129.353, 18017.00
1130.447, 18168.00
1131.541, 18124.00
1132.635, 18322.00
1133.729, 18123.00
1134.822, 18221.00
1135.916, 17998.00
1137.009, 18147.00
1138.102, 18088.00
1139.195, 18068.00
1140.288, 18163.00
1141.380, 18264.00
1142.473, 18214.60
1143.565, 18244.00
1144.657, 18239.00
1145.749, 18205.00
1146.841, 18220.72
1147.932, 18208.70
1149.024, 18216.00
1150.115, 18224.00
1151.206, 18229.00
1152.297, 18272.00
1153.388, 18301.83
1154.479, 18272.00
1155.569, 18409.00
1156.659, 18350.00
1157.750, 18427.00
1158.839, 18333.00
1159.929, 18255.00
1161.019, 18364.00
1162.108, 18401.00
1163.198, 18266.00
1164.287, 18545.00
1165.376, 18561.00
1166.465, 18641.00
1167.553, 18500.00
1168.642, 18512.00
1169.730, 18747.00
1170.818, 18568.00
1171.906, 18629.00
1172.994, 18677.00
1174.082, 18654.00
1175.170, 18822.00
1176.257, 18775.57
1177.344, 18673.00
1178.431, 18759.00
1179.518, 18740.00
1180.605, 18705.00
1181.691, 18669.00
1182.778, 18689.59
1183.864, 18726.00
1184.950, 18739.00
1186.036, 18730.00
1187.122, 18764.00
1188.207, 18796.00
1189.292, 18843.00
1190.378, 18844.00
1191.463, 18889.00
1192.548, 18844.00
1193.632, 18995.00
1194.717, 18888.00
1195.801, 18850.00
1196.886, 18817.00
1197.970, 18694.00
1199.054, 18825.00
1200.137, 19004.00
1201.221, 18916.00
1202.305, 18895.00
1203.388, 18956.00
1204.471, 18846.00
1205.554, 18959.00
1206.637, 18928.00
1207.719, 19071.00
1208.802, 18935.00
1209.884, 18999.00
1210.966, 19158.00
1212.048, 19069.00
1213.130, 18871.00
1214.212, 19098.00
1215.293, 19037.00
1216.374, 19053.00
1217.456, 19109.00
1218.536, 19195.00
1219.617, 19232.00
1220.698, 19120.00
1221.778, 19237.00
1222.859, 19148.00
1223.939, 19169.00
1225.019, 19207.00
1226.099, 19092.00
1227.178, 19278.00
1228.258, 19242.00
1229.337, 19168.00
1230.417, 19166.00
1231.496, 19218.00
1232.574, 19226.00
1233.653, 19347.00
1234.732, 19356.00
1235.810, 19404.00
1236.888, 19424.85
1237.966, 19403.27
1239.044, 19400.00
1240.122, 19368.00
1241.199, 19302.00
1242.277, 19323.00
1243.354, 19472.00
1244.431, 19339.00
1245.508, 19508.00
1246.585, 19450.00
1247.661, 19349.00
1248.738, 19395.00
1249.814, 19421.00
1250.890, 19545.00
1251.966, 19427.00
1253.042, 19705.00
1254.117, 19328.00
1255.193, 19426.00
1256.268, 19528.00
1257.343, 19573.00
1258.418, 19394.00
1259.493, 19357.00
1260.567, 19489.00
1261.642, 19635.00
1262.716, 19550.00
1263.790, 19611.00
1264.864, 19470.00
1265.938, 19511.00
1267.011, 19650.00
1268.085, 19709.00
1269.158, 19542.00
1270.231, 19716.00
1271.304, 19692.00
1272.377, 19514.00
1273.450, 19761.00
1274.522, 19740.00
1275.594, 19869.00
1276.666, 19712.00
1277.738, 19761.00
1278.810, 19832.00
1279.882, 19778.00
1280.953, 19929.00
1282.025, 19680.00
1283.096, 19826.00
1284.167, 19710.00
1285.238, 19935.00
1286.308, 19940.00
1287.379, 19775.00
1288.449, 19958.00
1289.519, 20049.00
1290.589, 19789.00
1291.659, 19979.00
1292.729, 20022.00
1293.798, 19957.00
1294.868, 19948.00
1295.937, 19998.00
1297.006, 20093.00
1298.075, 20057.41
1299.143, 20039.00
1300.212, 20051.00
1301.280, 19978.00
1302.348, 19999.00
1303.416, 19926.00
1304.484, 20104.00
1305.552, 20074.00
1306.620, 20219.00
1307.687, 19988.00
1308.754, 20058.00
1309.821, 20071.00
1310.888, 20090.00
1311.955, 20115.00
1313.021, 20035.00
1314.088, 20094.00
1315.154, 20278.00
1316.220, 20456.00
1317.286, 20220.00
1318.352, 20164.00
1319.417, 20289.00
1320.483, 20190.00
1321.548, 20477.00
1322.613, 20267.00
1323.678, 20500.00
1324.743, 20204.00
1325.807, 20408.00
1326.872, 20372.00
1327.936, 20264.00
1329.000, 20378.00
1330.064, 20522.00
1331.128, 20502.00
1332.191, 20561.00
1333.255, 20447.00
1334.318, 20546.00
1335.381, 20430.00
1336.444, 20323.00
1337.507, 20517.00
1338.569, 20399.00
1339.632, 20697.00
1340.694, 20478.00
1341.756, 20438.00
1342.818, 20412.00
1343.880, 20512.00
1344.941, 20575.00
1346.003, 20505.00
1347.064, 20519.00
1348.125, 20593.00
1349.186, 20501.00
1350.247, 20650.00
1351.308, 20659.00
1352.368, 20671.00
1353.428, 20603.00
1354.489, 20827.00
1355.549, 20629.00
1356.608, 20520.00
1357.668, 20719.00
1358.727, 20695.00
1359.787, 20649.00
1360.846, 20878.00
1361.905, 20685.00
1362.964, 20672.00
1364.022, 21002.00
1365.081, 20960.00
1366.139, 21038.00
1367.197, 20789.00
1368.255, 20906.00
1369.313, 20964.00
1370.371, 20993.00
1371.428, 21021.00
1372.486, 21024.00
1373.543, 20903.00
1374.600, 21051.00
1375.657, 20954.00
1376.713, 21204.00
1377.770, 21212.00
1378.826, 21043.00
1379.882, 21189.00
1380.938, 21360.00
1381.994, 21370.00
1383.050, 21613.00
1384.106, 21502.00
1385.161, 21635.00
1386.216, 21634.00
1387.271, 21902.00
1388.326, 22018.00
1389.381, 22019.00
1390.435, 22166.00
1391.490, 22396.00
1392.544, 22391.00
1393.598, 22331.00
1394.652, 22629.00
1395.705, 22563.00
1396.759, 22664.00
1397.812, 22559.00
1398.866, 22349.00
1399.919, 22198.00
1400.972, 21957.00
1402.024, 22065.00
1403.077, 22020.00
1404.129, 22281.00
1405.181, 22058.00
1406.233, 21871.00
1407.285, 22258.00
1408.337, 21963.00
1409.389, 21998.00
1410.440, 21925.00
1411.491, 21860.00
1412.542, 21977.00
1413.593, 22093.00
1414.644, 21816.00
1415.695, 22074.00
1416.745, 21936.00
1417.795, 22067.00
1418.845, 21972.00
1419.895, 22116.00
1420.945, 22091.00
1421.995, 22040.00
1423.044, 22092.00
1424.093, 22095.00
1425.142, 22288.00
1426.191, 22245.00
1427.240, 22434.00
1428.289, 22112.00
1429.337, 22375.00
1430.385, 22406.00
1431.433, 22085.00
1432.481, 22505.00
1433.529, 22573.00
1434.577, 22534.00
1435.624, 22716.00
1436.672, 22737.00
1437.719, 22926.00
1438.766, 22775.00
1439.812, 23071.00
1440.859, 23342.00
1441.905, 23397.00
1442.952, 23740.00
1443.998, 23775.00
1445.044, 24308.00
1446.090, 24425.00
1447.135, 24434.00
1448.181, 24634.00
1449.226, 25199.00
1450.271, 25448.00
1451.316, 25761.00
1452.361, 26655.00
1453.405, 27674.00
1454.450, 29478.00
1455.494, 32438.00
1456.538, 36478.00
1457.582, 42671.00
1458.626, 49405.00
1459.670, 55784.00
1460.713, 59839.00
1461.757, 60277.00
1462.800, 56786.00
1463.843, 50712.00
1464.886, 43184.00
1465.928, 37052.00
1466.971, 32828.00
1468.013, 30125.00
1469.055, 29023.00
1470.097, 28307.00
1471.139, 27825.00
1472.181, 27631.55
1473.222, 27842.00
1474.263, 28012.00
1475.305, 28548.00
1476.346, 29214.00
1477.386, 30052.00
1478.427, 30896.00
1479.468, 32426.00
1480.508, 34076.00
1481.548, 36619.00
1482.588, 38993.00
1483.628, 42311.00
1484.668, 45544.00
1485.707, 49485.00
1486.747, 52230.00
1487.786, 53617.00
1488.825, 54079.00
1489.864, 52522.00
1490.902, 49203.00
1491.941, 45092.00
1492.979, 40434.00
1494.017, 36480.00
1495.055, 33391.00
1496.093, 30794.00
1497.131, 28828.00
1498.168, 27469.00
1499.206, 26415.00
1500.243, 25787.00
1501.280, 25036.00
1502.317, 24715.00
1503.354, 24238.00
1504.390, 24024.00
1505.426, 23864.00
1506.463, 23766.00
1507.499, 23610.00
1508.535, 23494.21
1509.570, 23298.00
1510.606, 23283.00
1511.641, 23200.00
1512.676, 23154.00
1513.711, 23222.00
1514.746, 23057.00
1515.781, 22712.00
1516.816, 22999.00
1517.850, 22941.00
1518.884, 22745.00
1519.918, 23046.00
1520.952, 22619.00
1521.986, 22858.00
1523.019, 22903.00
1524.053, 22619.00
1525.086, 22796.00
1526.119, 22818.00
1527.152, 22909.00
1528.185, 22983.00
1529.217, 22967.67
1530.250, 22664.00
1531.282, 22932.00
1532.314, 22855.00
1533.346, 22807.00
1534.377, 22962.00
1535.409, 22758.00
1536.440, 22967.00
1537.472, 22673.00
1538.503, 22905.00
1539.534, 23136.00
1540.564, 22703.00
1541.595, 22832.00
1542.625, 22805.00
1543.656, 22693.00
1544.686, 22878.00
1545.716, 22727.00
1546.745, 22945.00
1547.775, 23003.00
1548.804, 22915.00
1549.834, 22917.00
1550.863, 22946.00
1551.892, 22899.87
1552.920, 23112.00
1553.949, 22940.00
1554.977, 22959.00
1556.006, 23120.00
1557.034, 22908.00
1558.062, 23027.00
1559.089, 23069.00
1560.117, 23019.00
1561.144, 23042.00
1562.172, 23255.00
1563.199, 23090.00
1564.226, 23254.00
1565.252, 22934.00
1566.279, 23113.00
1567.305, 23090.00
1568.332, 22949.00
1569.358, 23113.00
1570.384, 23334.00
##END=



