##NAMES=Whewellite
##RRUFFID=R050240
##IDEAL CHEMISTRY=Ca(C_2_)^6+^O_4_&#183;H_2_O
##LOCALITY=Huron River, Milan, Ohio, USA
##OWNER=RRUFF
##SOURCE=Marcus Origlieri
##DESCRIPTION=White fragment
##STATUS=The identification of this mineral has been confirmed by X-ray diffraction and chemical analysis
##URL=rruff.info/R050240
##MEASURED CHEMISTRY=Ca_1.00_C_2_O_4_Â·H_2_O
##PIN_ID=L01615
##ORIENTATION=Laser parallel to -a* (-1 0 0). Fiducial mark perpendicular to laser is parallel to b [0 1 0]
100.8830, 7045.000
102.1160, 7094.000
103.3490, 7249.000
104.5820, 7421.000
105.8150, 7735.000
107.0470, 7887.620
108.2800, 8379.000
109.5120, 8239.000
110.7440, 8392.000
111.9760, 8423.000
113.2080, 8808.000
114.4400, 9291.000
115.6710, 9811.000
116.9030, 10044.00
118.1340, 10777.00
119.3650, 11486.00
120.5960, 12234.00
121.8270, 13361.00
123.0580, 14411.00
124.2880, 15588.00
125.5190, 16704.00
126.7490, 18132.00
127.9790, 19653.00
129.2090, 21273.00
130.4390, 22800.00
131.6680, 23698.00
132.8980, 24485.00
134.1270, 24589.00
135.3560, 25018.00
136.5850, 24518.00
137.8140, 24089.00
139.0430, 23374.00
140.2710, 22147.00
141.5000, 21140.00
142.7280, 19774.00
143.9560, 18534.00
145.1840, 17088.00
146.4120, 15795.00
147.6390, 14616.00
148.8670, 13520.00
150.0940, 12551.00
151.3210, 11633.00
152.5490, 10922.00
153.7750, 10501.00
155.0020, 9871.000
156.2290, 9593.000
157.4550, 9205.000
158.6810, 9032.000
159.9080, 8816.000
161.1340, 8607.000
162.3590, 8478.000
163.5850, 8422.000
164.8110, 8388.905
166.0360, 8288.000
167.2610, 8453.000
168.4860, 8496.000
169.7110, 8526.000
170.9360, 8691.000
172.1610, 8907.000
173.3850, 9239.000
174.6100, 9540.000
175.8340, 9935.000
177.0580, 10364.00
178.2820, 10669.00
179.5050, 11151.00
180.7290, 11615.00
181.9520, 12124.00
183.1760, 12912.00
184.3990, 13672.69
185.6220, 14453.00
186.8450, 15570.00
188.0670, 16554.00
189.2900, 17671.00
190.5120, 18608.00
191.7340, 19354.00
192.9560, 20173.00
194.1780, 20898.00
195.4000, 22012.00
196.6220, 23425.00
197.8430, 24863.00
199.0640, 26962.00
200.2860, 28656.00
201.5070, 31172.00
202.7270, 33312.00
203.9480, 35113.00
205.1690, 36203.00
206.3890, 36224.00
207.6090, 35221.00
208.8290, 33503.00
210.0490, 31492.00
211.2690, 29300.00
212.4890, 27173.00
213.7080, 25259.00
214.9280, 23691.00
216.1470, 22413.00
217.3660, 21436.00
218.5850, 20330.00
219.8030, 19627.00
221.0220, 18695.00
222.2400, 17510.00
223.4590, 16110.00
224.6770, 14939.00
225.8950, 13724.00
227.1120, 12517.00
228.3300, 11695.00
229.5480, 10944.00
230.7650, 10619.00
231.9820, 10262.00
233.1990, 10222.00
234.4160, 10058.00
235.6330, 10049.00
236.8490, 10063.00
238.0660, 10199.00
239.2820, 10236.00
240.4980, 10289.00
241.7140, 10277.00
242.9300, 10580.00
244.1460, 10745.00
245.3610, 10856.00
246.5770, 10889.00
247.7920, 10913.00
249.0070, 10614.00
250.2220, 10528.00
251.4370, 10021.00
252.6510, 9832.000
253.8660, 9566.000
255.0800, 9167.000
256.2940, 9053.000
257.5080, 8830.646
258.7220, 8764.000
259.9360, 8605.000
261.1490, 8458.000
262.3630, 8456.000
263.5760, 8464.000
264.7890, 8339.000
266.0020, 8234.000
267.2150, 8128.000
268.4270, 8215.000
269.6400, 8036.000
270.8520, 8096.000
272.0640, 7996.000
273.2760, 8021.000
274.4880, 7964.000
275.7000, 7838.000
276.9120, 7880.000
278.1230, 7781.000
279.3340, 7718.000
280.5450, 7689.000
281.7560, 7556.000
282.9670, 7660.000
284.1780, 7590.000
285.3880, 7615.000
286.5980, 7502.000
287.8090, 7592.000
289.0190, 7668.000
290.2290, 7572.000
291.4380, 7625.000
292.6480, 7555.000
293.8570, 7558.000
295.0670, 7615.000
296.2760, 7715.000
297.4850, 7666.997
298.6930, 7657.095
299.9020, 7603.000
301.1110, 7502.000
302.3190, 7444.000
303.5270, 7310.000
304.7350, 7321.000
305.9430, 7161.000
307.1510, 7250.000
308.3580, 7073.000
309.5660, 7089.000
310.7730, 7062.000
311.9800, 7020.000
313.1870, 6999.000
314.3940, 6957.000
315.6010, 6955.000
316.8070, 6955.000
318.0130, 7009.000
319.2200, 6859.000
320.4260, 6909.000
321.6310, 6972.000
322.8370, 6860.000
324.0430, 6875.000
325.2480, 6866.000
326.4540, 6885.000
327.6590, 6937.000
328.8640, 6935.000
330.0680, 6962.706
331.2730, 6975.658
332.4780, 6975.000
333.6820, 6938.000
334.8860, 6899.000
336.0900, 6762.000
337.2940, 6874.000
338.4980, 6756.000
339.7010, 6789.000
340.9050, 6874.000
342.1080, 6935.000
343.3110, 6991.000
344.5140, 6873.000
345.7170, 6817.000
346.9200, 6868.000
348.1220, 6856.000
349.3240, 6915.000
350.5270, 6861.000
351.7290, 6867.000
352.9310, 6937.000
354.1320, 6870.000
355.3340, 6872.000
356.5350, 6836.000
357.7370, 6888.000
358.9380, 6993.000
360.1390, 6916.000
361.3400, 6949.000
362.5400, 6780.000
363.7410, 6933.000
364.9410, 6901.000
366.1410, 6897.000
367.3410, 6920.000
368.5410, 6868.000
369.7410, 7014.000
370.9400, 6939.000
372.1400, 7025.000
373.3390, 6991.000
374.5380, 6951.000
375.7370, 6945.000
376.9360, 7016.000
378.1350, 7125.000
379.3330, 7068.000
380.5310, 7141.000
381.7300, 7003.000
382.9280, 7081.000
384.1260, 7116.000
385.3230, 7063.000
386.5210, 7085.000
387.7180, 7098.000
388.9160, 7138.000
390.1130, 7129.150
391.3100, 7162.000
392.5060, 7134.000
393.7030, 7146.000
394.9000, 7180.000
396.0960, 7038.000
397.2920, 7095.000
398.4880, 7055.000
399.6840, 7177.000
400.8800, 7299.000
402.0750, 7091.000
403.2710, 7178.000
404.4660, 7317.000
405.6610, 7210.000
406.8560, 7206.000
408.0510, 7322.000
409.2450, 7199.000
410.4400, 7346.000
411.6340, 7295.000
412.8280, 7239.000
414.0220, 7357.000
415.2160, 7246.000
416.4100, 7339.000
417.6030, 7384.000
418.7970, 7359.000
419.9900, 7370.000
421.1830, 7376.000
422.3760, 7325.000
423.5690, 7324.000
424.7610, 7362.000
425.9540, 7375.000
427.1460, 7445.883
428.3380, 7452.875
429.5300, 7576.000
430.7220, 7510.000
431.9140, 7504.000
433.1050, 7570.000
434.2970, 7522.000
435.4880, 7507.000
436.6790, 7701.000
437.8700, 7712.000
439.0610, 7723.000
440.2510, 7733.000
441.4420, 7668.000
442.6320, 7722.000
443.8220, 7680.000
445.0120, 7806.000
446.2020, 7752.000
447.3910, 7878.000
448.5810, 7875.000
449.7700, 7933.000
450.9600, 7982.000
452.1490, 7924.000
453.3370, 8003.000
454.5260, 8002.000
455.7150, 8114.000
456.9030, 8164.000
458.0910, 8225.000
459.2800, 8243.000
460.4670, 8400.000
461.6550, 8387.000
462.8430, 8567.000
464.0300, 8510.000
465.2180, 8555.000
466.4050, 8644.000
467.5920, 8840.000
468.7790, 8919.000
469.9650, 9158.000
471.1520, 9258.000
472.3380, 9472.405
473.5250, 9765.000
474.7110, 9974.000
475.8970, 10272.00
477.0820, 10691.00
478.2680, 11072.00
479.4540, 11509.00
480.6390, 12131.00
481.8240, 12743.00
483.0090, 13585.00
484.1940, 14556.00
485.3780, 15967.00
486.5630, 17565.00
487.7470, 19613.00
488.9320, 22348.00
490.1160, 25707.00
491.3000, 29570.00
492.4830, 34241.00
493.6670, 39856.00
494.8500, 46954.00
496.0340, 53333.00
497.2170, 57870.00
498.4000, 62324.00
499.5820, 64850.00
500.7650, 65519.00
501.9480, 63421.00
503.1300, 58844.00
504.3120, 52409.00
505.4940, 45637.00
506.6760, 39170.00
507.8580, 32981.00
509.0390, 28032.00
510.2210, 24079.00
511.4020, 20849.00
512.5830, 18482.00
513.7640, 16593.00
514.9450, 15081.00
516.1250, 14261.00
517.3060, 13593.00
518.4860, 12853.00
519.6660, 12323.96
520.8460, 11783.00
522.0260, 11377.00
523.2060, 10942.99
524.3850, 10561.49
525.5650, 10246.00
526.7440, 9932.000
527.9230, 9700.000
529.1020, 9519.000
530.2810, 9326.000
531.4590, 9185.000
532.6380, 9059.000
533.8160, 8961.000
534.9940, 8865.000
536.1720, 8829.000
537.3500, 8664.000
538.5270, 8654.000
539.7050, 8475.000
540.8820, 8501.000
542.0590, 8533.000
543.2360, 8365.000
544.4130, 8521.000
545.5900, 8405.000
546.7660, 8517.000
547.9430, 8376.000
549.1190, 8380.000
550.2950, 8385.000
551.4710, 8413.000
552.6470, 8393.631
553.8220, 8436.000
554.9980, 8345.000
556.1730, 8381.000
557.3480, 8315.000
558.5230, 8301.000
559.6980, 8447.000
560.8730, 8445.000
562.0470, 8448.000
563.2220, 8376.000
564.3960, 8396.000
565.5700, 8459.000
566.7440, 8529.000
567.9170, 8489.000
569.0910, 8616.000
570.2640, 8614.000
571.4380, 8627.000
572.6110, 8662.000
573.7840, 8714.101
574.9570, 8779.000
576.1290, 8861.000
577.3020, 8974.000
578.4740, 9065.000
579.6460, 9049.000
580.8180, 9203.000
581.9900, 9461.000
583.1620, 9399.000
584.3330, 9687.000
585.5040, 9905.000
586.6760, 9922.000
587.8470, 10215.00
589.0180, 10371.00
590.1880, 10494.00
591.3590, 10598.00
592.5290, 10630.00
593.7000, 10614.00
594.8700, 10591.00
596.0400, 10611.00
597.2090, 10330.00
598.3790, 10315.00
599.5490, 9997.000
600.7180, 9848.000
601.8870, 9673.000
603.0560, 9450.000
604.2250, 9401.000
605.3940, 9155.000
606.5620, 9067.000
607.7300, 8979.000
608.8990, 8918.000
610.0670, 8845.000
611.2350, 8724.000
612.4020, 8720.000
613.5700, 8784.000
614.7370, 8669.000
615.9050, 8670.000
617.0720, 8530.000
618.2390, 8668.000
619.4060, 8584.000
620.5720, 8599.000
621.7390, 8554.000
622.9050, 8521.178
624.0710, 8518.000
625.2370, 8483.000
626.4030, 8474.000
627.5690, 8495.000
628.7340, 8567.000
629.9000, 8537.000
631.0650, 8549.000
632.2300, 8552.000
633.3950, 8533.614
634.5600, 8557.000
635.7240, 8526.000
636.8890, 8498.000
638.0530, 8526.000
639.2170, 8516.000
640.3810, 8603.000
641.5450, 8627.000
642.7080, 8641.000
643.8720, 8583.000
645.0350, 8643.000
646.1980, 8632.000
647.3610, 8588.000
648.5240, 8587.000
649.6870, 8550.000
650.8490, 8661.000
652.0120, 8533.000
653.1740, 8686.000
654.3360, 8650.000
655.4980, 8576.000
656.6600, 8560.000
657.8210, 8537.000
658.9830, 8522.000
660.1440, 8602.000
661.3050, 8591.000
662.4660, 8703.000
663.6270, 8558.000
664.7870, 8650.000
665.9480, 8626.000
667.1080, 8635.000
668.2680, 8725.000
669.4280, 8595.000
670.5880, 8631.000
671.7480, 8682.000
672.9070, 8685.000
674.0670, 8716.645
675.2260, 8737.000
676.3850, 8760.000
677.5440, 8740.000
678.7030, 8781.047
679.8610, 8785.000
681.0200, 8729.000
682.1780, 8694.000
683.3360, 8559.000
684.4940, 8683.000
685.6520, 8741.000
686.8090, 8755.000
687.9670, 8668.000
689.1240, 8669.000
690.2810, 8692.000
691.4380, 8854.000
692.5950, 8769.000
693.7520, 8765.000
694.9080, 8917.000
696.0650, 8800.000
697.2210, 8854.000
698.3770, 8915.000
699.5330, 8833.000
700.6880, 8896.000
701.8440, 8859.000
702.9990, 8860.000
704.1550, 8848.000
705.3100, 8870.000
706.4650, 8939.000
707.6190, 8949.000
708.7740, 8957.832
709.9290, 8910.000
711.0830, 8966.000
712.2370, 8881.000
713.3910, 8917.000
714.5450, 8916.000
715.6980, 8911.000
716.8520, 8941.000
718.0050, 8869.000
719.1580, 8973.000
720.3110, 8927.000
721.4640, 8877.000
722.6170, 8979.000
723.7700, 8815.000
724.9220, 9044.000
726.0740, 9016.000
727.2260, 9032.000
728.3780, 9012.000
729.5300, 9021.000
730.6810, 8921.000
731.8330, 9100.000
732.9840, 8975.000
734.1350, 9004.000
735.2860, 9052.000
736.4370, 9014.000
737.5880, 8974.000
738.7380, 9055.000
739.8880, 8992.000
741.0390, 9137.000
742.1890, 9057.000
743.3380, 9068.000
744.4880, 9128.000
745.6380, 8994.000
746.7870, 8988.000
747.9360, 9154.000
749.0850, 9120.000
750.2340, 9126.000
751.3830, 9177.000
752.5310, 9226.000
753.6800, 9144.000
754.8280, 9208.000
755.9760, 9130.000
757.1240, 9256.000
758.2720, 9146.000
759.4190, 9307.000
760.5670, 9224.000
761.7140, 9249.000
762.8610, 9173.000
764.0080, 9223.000
765.1550, 9265.000
766.3020, 9485.000
767.4480, 9421.000
768.5950, 9452.000
769.7410, 9407.000
770.8870, 9554.000
772.0330, 9537.000
773.1780, 9475.000
774.3240, 9698.000
775.4690, 9681.000
776.6140, 9628.000
777.7590, 9704.000
778.9040, 9615.000
780.0490, 9660.000
781.1940, 9673.000
782.3380, 9665.000
783.4820, 9548.000
784.6260, 9568.000
785.7700, 9554.000
786.9140, 9427.000
788.0580, 9456.000
789.2010, 9405.000
790.3450, 9423.000
791.4880, 9440.000
792.6310, 9367.000
793.7730, 9380.000
794.9160, 9556.000
796.0590, 9407.000
797.2010, 9537.000
798.3430, 9548.000
799.4850, 9476.000
800.6270, 9554.000
801.7690, 9498.000
802.9100, 9686.000
804.0520, 9553.000
805.1930, 9589.000
806.3340, 9559.000
807.4750, 9556.000
808.6160, 9535.000
809.7560, 9560.315
810.8970, 9554.000
812.0370, 9617.000
813.1770, 9661.000
814.3170, 9678.000
815.4570, 9687.000
816.5960, 9661.000
817.7360, 9635.000
818.8750, 9619.000
820.0140, 9613.931
821.1530, 9632.124
822.2920, 9629.000
823.4310, 9686.000
824.5690, 9725.000
825.7070, 9740.000
826.8460, 9774.000
827.9840, 9658.000
829.1220, 9745.000
830.2590, 9704.000
831.3970, 9763.000
832.5340, 9844.000
833.6710, 9746.000
834.8080, 9798.000
835.9450, 9751.000
837.0820, 9888.000
838.2190, 9994.000
839.3550, 9850.000
840.4910, 10066.00
841.6270, 9985.000
842.7630, 10087.00
843.8990, 10178.00
845.0350, 10171.00
846.1700, 10247.00
847.3060, 10307.00
848.4410, 10515.00
849.5760, 10511.00
850.7100, 10406.00
851.8450, 10665.00
852.9800, 10696.00
854.1140, 10998.00
855.2480, 11468.00
856.3820, 11960.00
857.5160, 12691.00
858.6500, 13923.00
859.7830, 15225.00
860.9170, 16550.00
862.0500, 17142.00
863.1830, 17593.00
864.3160, 17399.00
865.4480, 16920.00
866.5810, 15893.00
867.7130, 14735.00
868.8460, 13777.00
869.9780, 12956.00
871.1100, 12605.00
872.2410, 12351.00
873.3730, 12040.00
874.5050, 12256.00
875.6360, 12415.00
876.7670, 12499.00
877.8980, 12909.00
879.0290, 13238.00
880.1590, 13540.00
881.2900, 13987.00
882.4200, 14507.00
883.5500, 15184.00
884.6800, 15822.00
885.8100, 17286.00
886.9400, 19401.00
888.0690, 22760.00
889.1990, 27679.00
890.3280, 32279.00
891.4570, 37967.00
892.5860, 45968.00
893.7140, 52856.00
894.8430, 54036.00
895.9710, 46632.00
897.1000, 36286.00
898.2280, 27879.00
899.3560, 21644.00
900.4830, 17178.00
901.6110, 14532.00
902.7380, 13084.00
903.8660, 12543.00
904.9930, 12148.00
906.1200, 11878.00
907.2460, 11826.00
908.3730, 11692.00
909.5000, 11682.00
910.6260, 11691.00
911.7520, 11669.00
912.8780, 11768.00
914.0040, 11850.00
915.1290, 11922.00
916.2550, 11950.59
917.3800, 11910.00
918.5050, 11953.00
919.6300, 11930.00
920.7550, 11880.00
921.8800, 12046.00
923.0040, 12075.00
924.1290, 12239.00
925.2530, 12310.00
926.3770, 12261.00
927.5010, 12250.00
928.6250, 12624.00
929.7480, 12345.00
930.8720, 12529.00
931.9950, 12654.00
933.1180, 12558.00
934.2410, 12726.00
935.3640, 12886.00
936.4860, 12790.00
937.6090, 12906.00
938.7310, 12996.00
939.8530, 12970.00
940.9750, 12992.00
942.0970, 13016.00
943.2180, 12877.00
944.3400, 12850.00
945.4610, 12701.00
946.5820, 12625.00
947.7030, 12487.00
948.8240, 12338.00
949.9450, 12027.00
951.0650, 12086.00
952.1860, 11889.00
953.3060, 11844.00
954.4260, 11773.00
955.5460, 11679.00
956.6650, 11720.00
957.7850, 11594.52
958.9040, 11535.85
960.0230, 11436.00
961.1420, 11353.00
962.2610, 11308.00
963.3800, 11205.00
964.4990, 11224.00
965.6170, 11254.00
966.7350, 11108.00
967.8530, 11052.00
968.9710, 11140.00
970.0890, 10994.00
971.2070, 11062.00
972.3240, 11097.00
973.4410, 11029.00
974.5580, 11078.00
975.6750, 11082.00
976.7920, 10989.00
977.9090, 11025.00
979.0250, 11125.00
980.1410, 11006.00
981.2580, 11052.00
982.3740, 11116.00
983.4890, 10976.00
984.6050, 11066.00
985.7200, 10943.00
986.8360, 11102.00
987.9510, 10973.00
989.0660, 11044.00
990.1810, 11006.00
991.2950, 11180.00
992.4100, 11117.00
993.5240, 11097.00
994.6390, 11093.00
995.7530, 11119.00
996.8660, 11116.78
997.9800, 11048.00
999.0940, 11169.00
1000.207, 11183.00
1001.320, 11259.00
1002.433, 11224.00
1003.546, 11070.00
1004.659, 11267.00
1005.772, 11112.00
1006.884, 11186.00
1007.996, 11257.00
1009.108, 11206.00
1010.220, 11273.00
1011.332, 11312.00
1012.444, 11226.00
1013.555, 11276.00
1014.666, 11344.00
1015.777, 11306.00
1016.888, 11370.00
1017.999, 11377.00
1019.110, 11391.00
1020.220, 11398.00
1021.331, 11383.22
1022.441, 11351.00
1023.551, 11368.00
1024.661, 11376.00
1025.770, 11418.00
1026.880, 11446.00
1027.989, 11456.18
1029.098, 11527.00
1030.207, 11465.00
1031.316, 11494.00
1032.425, 11466.00
1033.533, 11607.00
1034.642, 11604.00
1035.750, 11593.00
1036.858, 11660.00
1037.966, 11621.00
1039.073, 11579.00
1040.181, 11518.00
1041.288, 11489.00
1042.396, 11474.00
1043.503, 11519.00
1044.610, 11563.00
1045.716, 11559.00
1046.823, 11557.65
1047.929, 11481.00
1049.036, 11454.00
1050.142, 11523.00
1051.248, 11365.00
1052.353, 11579.00
1053.459, 11342.00
1054.564, 11400.00
1055.670, 11444.00
1056.775, 11398.00
1057.880, 11443.00
1058.985, 11483.00
1060.089, 11500.00
1061.194, 11536.00
1062.298, 11396.00
1063.402, 11455.00
1064.506, 11415.00
1065.610, 11388.66
1066.713, 11424.77
1067.817, 11420.00
1068.920, 11441.00
1070.023, 11447.48
1071.126, 11447.43
1072.229, 11450.00
1073.332, 11449.00
1074.435, 11438.91
1075.537, 11440.00
1076.639, 11487.00
1077.741, 11503.00
1078.843, 11587.00
1079.945, 11601.00
1081.046, 11648.00
1082.148, 11612.00
1083.249, 11753.00
1084.350, 11945.00
1085.451, 11942.00
1086.551, 11885.00
1087.652, 11935.00
1088.752, 11907.00
1089.853, 11804.00
1090.953, 11613.00
1092.053, 11758.00
1093.152, 11686.00
1094.252, 11666.00
1095.351, 11692.00
1096.451, 11503.00
1097.550, 11674.00
1098.649, 11598.00
1099.748, 11657.00
1100.846, 11780.00
1101.945, 11567.00
1103.043, 11589.00
1104.141, 11595.00
1105.239, 11569.81
1106.337, 11708.00
1107.434, 11647.00
1108.532, 11662.00
1109.629, 11687.00
1110.726, 11826.00
1111.823, 11726.00
1112.920, 11777.00
1114.017, 11721.00
1115.113, 11729.00
1116.210, 11794.00
1117.306, 11996.00
1118.402, 11964.00
1119.498, 12040.00
1120.593, 12043.00
1121.689, 12153.00
1122.784, 11988.00
1123.879, 12058.00
1124.974, 12074.00
1126.069, 11833.00
1127.164, 11902.00
1128.259, 11838.00
1129.353, 11718.00
1130.447, 11975.00
1131.541, 11758.00
1132.635, 11814.00
1133.729, 11805.00
1134.822, 11869.00
1135.916, 11796.00
1137.009, 11808.00
1138.102, 11910.00
1139.195, 11732.00
1140.288, 11920.00
1141.380, 11822.00
1142.473, 11817.00
1143.565, 11977.00
1144.657, 11900.00
1145.749, 11880.00
1146.841, 11855.00
1147.932, 11926.00
1149.024, 11926.00
1150.115, 11999.00
1151.206, 11980.00
1152.297, 11945.00
1153.388, 11986.62
1154.479, 11935.00
1155.569, 12033.00
1156.659, 12015.00
1157.750, 12080.44
1158.839, 11956.00
1159.929, 12092.00
1161.019, 12065.00
1162.108, 12010.00
1163.198, 12088.00
1164.287, 12142.00
1165.376, 12127.00
1166.465, 12164.00
1167.553, 12182.00
1168.642, 12045.00
1169.730, 12056.00
1170.818, 12008.00
1171.906, 12038.00
1172.994, 12149.00
1174.082, 11936.00
1175.170, 12242.00
1176.257, 12163.00
1177.344, 12137.00
1178.431, 12253.00
1179.518, 12106.00
1180.605, 12267.00
1181.691, 12389.00
1182.778, 12239.00
1183.864, 12259.00
1184.950, 12263.00
1186.036, 12214.00
1187.122, 12082.00
1188.207, 12243.00
1189.292, 12348.00
1190.378, 12206.00
1191.463, 12259.00
1192.548, 12283.00
1193.632, 12263.00
1194.717, 12291.47
1195.801, 12338.00
1196.886, 12294.00
1197.970, 12256.00
1199.054, 12246.00
1200.137, 12275.00
1201.221, 12382.00
1202.305, 12250.00
1203.388, 12455.00
1204.471, 12378.00
1205.554, 12328.00
1206.637, 12478.00
1207.719, 12443.00
1208.802, 12396.00
1209.884, 12407.00
1210.966, 12372.00
1212.048, 12401.00
1213.130, 12477.00
1214.212, 12406.00
1215.293, 12325.00
1216.374, 12419.00
1217.456, 12339.00
1218.536, 12525.00
1219.617, 12688.00
1220.698, 12536.00
1221.778, 12408.00
1222.859, 12471.00
1223.939, 12424.00
1225.019, 12471.00
1226.099, 12619.00
1227.178, 12414.00
1228.258, 12437.00
1229.337, 12664.00
1230.417, 12423.00
1231.496, 12562.00
1232.574, 12382.00
1233.653, 12576.00
1234.732, 12414.00
1235.810, 12540.00
1236.888, 12567.00
1237.966, 12515.00
1239.044, 12745.00
1240.122, 12630.00
1241.199, 12526.00
1242.277, 12604.00
1243.354, 12611.00
1244.431, 12604.00
1245.508, 12631.19
1246.585, 12643.35
1247.661, 12651.00
1248.738, 12670.00
1249.814, 12670.52
1250.890, 12696.00
1251.966, 12675.00
1253.042, 12717.00
1254.117, 12722.27
1255.193, 12745.00
1256.268, 12728.00
1257.343, 12700.00
1258.418, 12569.00
1259.493, 12691.00
1260.567, 12607.00
1261.642, 12787.00
1262.716, 12857.00
1263.790, 12606.00
1264.864, 12815.00
1265.938, 12738.00
1267.011, 12773.00
1268.085, 12757.00
1269.158, 12743.00
1270.231, 12736.00
1271.304, 12745.00
1272.377, 12854.00
1273.450, 12825.00
1274.522, 12818.00
1275.594, 12674.00
1276.666, 12904.00
1277.738, 12937.00
1278.810, 12945.00
1279.882, 13146.00
1280.953, 13010.00
1282.025, 12795.00
1283.096, 12854.00
1284.167, 12958.00
1285.238, 13003.00
1286.308, 12895.00
1287.379, 12974.00
1288.449, 12969.00
1289.519, 12832.00
1290.589, 13034.00
1291.659, 12938.00
1292.729, 12969.00
1293.798, 13112.00
1294.868, 12921.00
1295.937, 13073.00
1297.006, 13052.00
1298.075, 13020.00
1299.143, 13050.00
1300.212, 13082.00
1301.280, 13080.00
1302.348, 13072.00
1303.416, 13046.00
1304.484, 13055.00
1305.552, 13068.00
1306.620, 13082.00
1307.687, 12931.00
1308.754, 13051.00
1309.821, 13059.00
1310.888, 13182.00
1311.955, 13233.00
1313.021, 13294.00
1314.088, 13329.00
1315.154, 13185.00
1316.220, 13291.00
1317.286, 13332.00
1318.352, 13252.00
1319.417, 13399.00
1320.483, 13459.00
1321.548, 13579.00
1322.613, 13567.80
1323.678, 13413.00
1324.743, 13482.00
1325.807, 13407.00
1326.872, 13292.00
1327.936, 13430.00
1329.000, 13330.00
1330.064, 13296.00
1331.128, 13389.00
1332.191, 13359.00
1333.255, 13351.00
1334.318, 13329.00
1335.381, 13321.25
1336.444, 13349.00
1337.507, 13309.00
1338.569, 13369.00
1339.632, 13366.00
1340.694, 13375.00
1341.756, 13440.00
1342.818, 13498.00
1343.880, 13493.32
1344.941, 13377.00
1346.003, 13521.00
1347.064, 13476.00
1348.125, 13534.00
1349.186, 13538.00
1350.247, 13574.00
1351.308, 13395.00
1352.368, 13499.00
1353.428, 13749.00
1354.489, 13536.00
1355.549, 13534.00
1356.608, 13378.00
1357.668, 13566.00
1358.727, 13591.00
1359.787, 13626.00
1360.846, 13543.00
1361.905, 13572.00
1362.964, 13712.00
1364.022, 13660.00
1365.081, 13672.00
1366.139, 13579.00
1367.197, 13626.00
1368.255, 13536.00
1369.313, 13603.00
1370.371, 13636.00
1371.428, 13679.00
1372.486, 13655.00
1373.543, 13827.00
1374.600, 13788.00
1375.657, 13838.00
1376.713, 13804.00
1377.770, 13695.00
1378.826, 13982.00
1379.882, 13857.00
1380.938, 14033.00
1381.994, 13964.00
1383.050, 13956.00
1384.106, 14302.00
1385.161, 14199.00
1386.216, 14372.00
1387.271, 14248.00
1388.326, 14356.00
1389.381, 14349.00
1390.435, 14263.00
1391.490, 14574.00
1392.544, 14564.00
1393.598, 14682.00
1394.652, 14582.00
1395.705, 14687.00
1396.759, 14498.00
1397.812, 14529.00
1398.866, 14458.00
1399.919, 14542.00
1400.972, 14635.00
1402.024, 14565.00
1403.077, 14493.00
1404.129, 14461.00
1405.181, 14559.00
1406.233, 14410.00
1407.285, 14619.00
1408.337, 14423.00
1409.389, 14533.00
1410.440, 14417.00
1411.491, 14455.00
1412.542, 14473.00
1413.593, 14659.00
1414.644, 14495.00
1415.695, 14348.00
1416.745, 14579.00
1417.795, 14690.00
1418.845, 14595.00
1419.895, 14600.00
1420.945, 14613.00
1421.995, 14702.00
1423.044, 14622.00
1424.093, 14656.00
1425.142, 14662.00
1426.191, 14641.00
1427.240, 14781.00
1428.289, 14712.00
1429.337, 14863.00
1430.385, 14773.00
1431.433, 14859.00
1432.481, 14850.00
1433.529, 14999.00
1434.577, 14988.00
1435.624, 15175.00
1436.672, 15222.00
1437.719, 15124.00
1438.766, 15329.00
1439.812, 15279.00
1440.859, 15620.00
1441.905, 15632.00
1442.952, 15871.00
1443.998, 16020.00
1445.044, 16081.00
1446.090, 16355.00
1447.135, 16449.00
1448.181, 16551.00
1449.226, 16512.00
1450.271, 16873.00
1451.316, 17261.00
1452.361, 17661.00
1453.405, 18632.00
1454.450, 19778.00
1455.494, 21493.00
1456.538, 24230.00
1457.582, 28314.00
1458.626, 32960.00
1459.670, 37760.00
1460.713, 40493.00
1461.757, 39557.00
1462.800, 35695.00
1463.843, 31031.00
1464.886, 26844.00
1465.928, 23780.00
1466.971, 21837.00
1468.013, 20840.00
1469.055, 20327.00
1470.097, 20132.00
1471.139, 19963.00
1472.181, 20380.00
1473.222, 20673.00
1474.263, 20935.00
1475.305, 21490.00
1476.346, 22127.00
1477.386, 22982.00
1478.427, 24650.00
1479.468, 26162.00
1480.508, 28726.00
1481.548, 31400.00
1482.588, 34834.00
1483.628, 38468.00
1484.668, 42574.00
1485.707, 46255.00
1486.747, 49621.00
1487.786, 51619.00
1488.825, 51112.00
1489.864, 48472.00
1490.902, 44142.00
1491.941, 38440.00
1492.979, 33544.00
1494.017, 29146.00
1495.055, 25694.00
1496.093, 23101.00
1497.131, 21325.00
1498.168, 19791.00
1499.206, 18706.00
1500.243, 17924.00
1501.280, 17529.00
1502.317, 17113.00
1503.354, 16799.00
1504.390, 16465.00
1505.426, 16124.00
1506.463, 15958.00
1507.499, 15912.00
1508.535, 15574.00
1509.570, 15542.00
1510.606, 15289.00
1511.641, 15343.00
1512.676, 15438.00
1513.711, 15296.00
1514.746, 15280.00
1515.781, 15143.00
1516.816, 15094.00
1517.850, 15146.00
1518.884, 15023.00
1519.918, 14973.00
1520.952, 15176.00
1521.986, 15106.00
1523.019, 15008.00
1524.053, 15047.00
1525.086, 14948.00
1526.119, 14924.00
1527.152, 14915.00
1528.185, 15092.00
1529.217, 14930.00
1530.250, 15226.00
1531.282, 15014.00
1532.314, 14973.00
1533.346, 15122.00
1534.377, 15241.00
1535.409, 15003.00
1536.440, 15061.00
1537.472, 15123.00
1538.503, 15068.00
1539.534, 15082.00
1540.564, 15146.00
1541.595, 14949.00
1542.625, 14893.00
1543.656, 15074.00
1544.686, 15103.00
1545.716, 14942.00
1546.745, 14938.00
1547.775, 15170.00
1548.804, 15117.00
1549.834, 14985.00
1550.863, 15153.00
1551.892, 14992.00
1552.920, 15140.00
1553.949, 15143.00
1554.977, 15194.00
1556.006, 15070.00
1557.034, 15091.00
1558.062, 15088.00
1559.089, 15207.00
1560.117, 15129.00
1561.144, 15236.00
1562.172, 15153.00
1563.199, 15097.00
1564.226, 15036.00
1565.252, 15021.83
1566.279, 15064.00
1567.305, 15030.00
1568.332, 15136.00
1569.358, 15174.00
1570.384, 15231.00
##END=



