##NAMES=Whewellite
##RRUFFID=R050240
##IDEAL CHEMISTRY=Ca(C_2_)^6+^O_4_&#183;H_2_O
##LOCALITY=Huron River, Milan, Ohio, USA
##OWNER=RRUFF
##SOURCE=Marcus Origlieri
##DESCRIPTION=White fragment
##STATUS=The identification of this mineral has been confirmed by X-ray diffraction and chemical analysis
##URL=rruff.info/R050240
##MEASURED CHEMISTRY=Ca_1.00_C_2_O_4_Â·H_2_O
##PIN_ID=L00839
##ORIENTATION=Laser parallel to c* (0 0 1). Fiducial mark perpendicular to laser is parallel to a [1 0 0]
107.0470, 6720.562
108.2800, 6836.447
109.5120, 6898.000
110.7440, 6967.000
111.9760, 6974.000
113.2080, 7059.000
114.4400, 7281.000
115.6710, 7334.000
116.9030, 7512.000
118.1340, 7724.000
119.3650, 7893.000
120.5960, 8157.000
121.8270, 8371.011
123.0580, 8547.000
124.2880, 8868.000
125.5190, 9066.000
126.7490, 9345.000
127.9790, 9582.000
129.2090, 10080.00
130.4390, 10328.00
131.6680, 10675.00
132.8980, 11125.00
134.1270, 11332.00
135.3560, 11590.00
136.5850, 11802.00
137.8140, 11889.00
139.0430, 11773.16
140.2710, 11544.00
141.5000, 11195.00
142.7280, 10769.00
143.9560, 10162.00
145.1840, 9665.000
146.4120, 9241.000
147.6390, 9009.000
148.8670, 8733.000
150.0940, 8559.000
151.3210, 8493.000
152.5490, 8336.000
153.7750, 8352.000
155.0020, 8223.000
156.2290, 8155.000
157.4550, 8212.000
158.6810, 8081.000
159.9080, 8011.000
161.1340, 8108.000
162.3590, 8217.000
163.5850, 8151.000
164.8110, 8283.000
166.0360, 8232.000
167.2610, 8185.000
168.4860, 8230.000
169.7110, 8326.000
170.9360, 8382.000
172.1610, 8370.000
173.3850, 8432.000
174.6100, 8490.779
175.8340, 8521.000
177.0580, 8634.000
178.2820, 8766.000
179.5050, 8839.000
180.7290, 9104.000
181.9520, 9120.000
183.1760, 9259.000
184.3990, 9543.000
185.6220, 9878.000
186.8450, 10147.00
188.0670, 10396.00
189.2900, 10874.00
190.5120, 11125.00
191.7340, 11346.00
192.9560, 11476.00
194.1780, 11481.00
195.4000, 11382.00
196.6220, 11281.00
197.8430, 11420.00
199.0640, 11549.00
200.2860, 11647.00
201.5070, 11809.00
202.7270, 12021.00
203.9480, 12155.00
205.1690, 12192.00
206.3890, 12181.00
207.6090, 12058.00
208.8290, 11713.00
210.0490, 11463.00
211.2690, 11216.00
212.4890, 10899.00
213.7080, 10755.00
214.9280, 10645.00
216.1470, 10456.00
217.3660, 10525.00
218.5850, 10690.00
219.8030, 10598.00
221.0220, 10563.00
222.2400, 10679.00
223.4590, 10594.00
224.6770, 10319.00
225.8950, 9860.000
227.1120, 9696.000
228.3300, 9586.000
229.5480, 9518.000
230.7650, 9373.000
231.9820, 9307.000
233.1990, 9293.000
234.4160, 9321.000
235.6330, 9266.000
236.8490, 9216.000
238.0660, 9223.000
239.2820, 9213.000
240.4980, 9205.000
241.7140, 9188.690
242.9300, 9202.000
244.1460, 9140.000
245.3610, 9204.000
246.5770, 9177.000
247.7920, 9107.000
249.0070, 9136.000
250.2220, 9114.062
251.4370, 9091.000
252.6510, 9146.000
253.8660, 9120.000
255.0800, 9174.000
256.2940, 9182.000
257.5080, 9224.000
258.7220, 9223.000
259.9360, 9242.000
261.1490, 9161.000
262.3630, 9136.000
263.5760, 9238.000
264.7890, 9185.000
266.0020, 9305.000
267.2150, 9284.000
268.4270, 9167.000
269.6400, 9340.000
270.8520, 9324.000
272.0640, 9261.000
273.2760, 9302.000
274.4880, 9251.000
275.7000, 9336.000
276.9120, 9345.000
278.1230, 9316.000
279.3340, 9395.000
280.5450, 9410.000
281.7560, 9391.000
282.9670, 9311.000
284.1780, 9316.000
285.3880, 9354.000
286.5980, 9292.000
287.8090, 9400.000
289.0190, 9345.000
290.2290, 9297.000
291.4380, 9361.000
292.6480, 9427.000
293.8570, 9401.000
295.0670, 9495.000
296.2760, 9332.000
297.4850, 9552.000
298.6930, 9428.000
299.9020, 9509.000
301.1110, 9446.000
302.3190, 9527.000
303.5270, 9443.000
304.7350, 9478.000
305.9430, 9370.000
307.1510, 9619.000
308.3580, 9438.000
309.5660, 9523.000
310.7730, 9453.000
311.9800, 9483.000
313.1870, 9547.000
314.3940, 9561.000
315.6010, 9645.000
316.8070, 9596.000
318.0130, 9577.000
319.2200, 9609.000
320.4260, 9764.000
321.6310, 9556.000
322.8370, 9604.000
324.0430, 9800.000
325.2480, 9635.000
326.4540, 9717.000
327.6590, 9603.000
328.8640, 9665.000
330.0680, 9752.000
331.2730, 9714.000
332.4780, 9752.000
333.6820, 9788.000
334.8860, 9766.000
336.0900, 9768.000
337.2940, 9775.000
338.4980, 9763.000
339.7010, 9902.000
340.9050, 9849.000
342.1080, 9953.000
343.3110, 9843.000
344.5140, 9862.000
345.7170, 9860.000
346.9200, 9852.000
348.1220, 9892.000
349.3240, 9912.000
350.5270, 9939.000
351.7290, 9904.000
352.9310, 10010.00
354.1320, 9934.000
355.3340, 9984.000
356.5350, 9920.000
357.7370, 10041.00
358.9380, 10018.00
360.1390, 9897.000
361.3400, 10076.00
362.5400, 10056.00
363.7410, 10029.00
364.9410, 10094.00
366.1410, 10051.00
367.3410, 10196.00
368.5410, 10111.00
369.7410, 10151.00
370.9400, 10188.00
372.1400, 10171.00
373.3390, 10158.00
374.5380, 10213.00
375.7370, 10299.00
376.9360, 10083.00
378.1350, 10258.00
379.3330, 10225.00
380.5310, 10212.00
381.7300, 10329.00
382.9280, 10339.00
384.1260, 10300.00
385.3230, 10383.00
386.5210, 10311.00
387.7180, 10298.00
388.9160, 10357.00
390.1130, 10404.00
391.3100, 10268.00
392.5060, 10419.00
393.7030, 10428.00
394.9000, 10319.00
396.0960, 10426.00
397.2920, 10330.00
398.4880, 10593.00
399.6840, 10358.00
400.8800, 10514.00
402.0750, 10380.00
403.2710, 10452.00
404.4660, 10582.00
405.6610, 10549.00
406.8560, 10441.00
408.0510, 10613.00
409.2450, 10419.00
410.4400, 10606.00
411.6340, 10536.00
412.8280, 10540.00
414.0220, 10709.00
415.2160, 10708.00
416.4100, 10643.00
417.6030, 10635.00
418.7970, 10661.00
419.9900, 10830.00
421.1830, 10648.00
422.3760, 10720.00
423.5690, 10623.00
424.7610, 10663.00
425.9540, 10670.00
427.1460, 10735.00
428.3380, 10719.00
429.5300, 10746.00
430.7220, 10721.00
431.9140, 10736.58
433.1050, 10757.58
434.2970, 10757.00
435.4880, 10809.00
436.6790, 10827.00
437.8700, 10857.29
439.0610, 10828.00
440.2510, 10869.00
441.4420, 10857.00
442.6320, 10839.00
443.8220, 10873.12
445.0120, 10902.00
446.2020, 10935.00
447.3910, 10938.00
448.5810, 11014.00
449.7700, 10900.00
450.9600, 11097.00
452.1490, 10906.00
453.3370, 10989.00
454.5260, 11081.00
455.7150, 10886.00
456.9030, 10919.00
458.0910, 11123.00
459.2800, 10901.00
460.4670, 11038.00
461.6550, 11046.00
462.8430, 11189.00
464.0300, 11088.00
465.2180, 11140.00
466.4050, 11204.00
467.5920, 11175.00
468.7790, 11201.00
469.9650, 11192.00
471.1520, 11211.00
472.3380, 11219.00
473.5250, 11178.00
474.7110, 11338.00
475.8970, 11275.00
477.0820, 11267.00
478.2680, 11343.00
479.4540, 11322.00
480.6390, 11380.00
481.8240, 11250.00
483.0090, 11331.00
484.1940, 11338.00
485.3780, 11383.00
486.5630, 11419.00
487.7470, 11461.00
488.9320, 11480.00
490.1160, 11397.00
491.3000, 11596.00
492.4830, 11463.00
493.6670, 11746.00
494.8500, 11584.00
496.0340, 11624.00
497.2170, 11830.00
498.4000, 11921.00
499.5820, 11904.00
500.7650, 11869.00
501.9480, 11962.00
503.1300, 11911.00
504.3120, 12056.00
505.4940, 11930.00
506.6760, 11777.00
507.8580, 11881.00
509.0390, 11833.00
510.2210, 12033.00
511.4020, 11892.00
512.5830, 11983.00
513.7640, 11954.00
514.9450, 11939.00
516.1250, 12053.00
517.3060, 12084.00
518.4860, 12226.00
519.6660, 12133.00
520.8460, 12095.00
522.0260, 12152.00
523.2060, 11987.00
524.3850, 12097.00
525.5650, 12033.00
526.7440, 12118.00
527.9230, 11913.00
529.1020, 11946.00
530.2810, 11948.00
531.4590, 12074.00
532.6380, 12019.00
533.8160, 12211.00
534.9940, 11825.00
536.1720, 12053.00
537.3500, 11871.00
538.5270, 12000.00
539.7050, 11933.00
540.8820, 11941.00
542.0590, 12094.00
543.2360, 11950.00
544.4130, 12067.00
545.5900, 12060.00
546.7660, 12163.00
547.9430, 12296.00
549.1190, 12177.00
550.2950, 12049.00
551.4710, 12169.00
552.6470, 12135.00
553.8220, 12015.00
554.9980, 12089.00
556.1730, 12152.00
557.3480, 12189.00
558.5230, 12309.00
559.6980, 12288.00
560.8730, 12438.00
562.0470, 12339.00
563.2220, 12356.00
564.3960, 12172.00
565.5700, 12204.00
566.7440, 12274.00
567.9170, 12394.00
569.0910, 12435.00
570.2640, 12294.00
571.4380, 12425.00
572.6110, 12437.00
573.7840, 12408.00
574.9570, 12484.00
576.1290, 12436.00
577.3020, 12563.00
578.4740, 12614.00
579.6460, 12612.00
580.8180, 12522.00
581.9900, 12525.00
583.1620, 12471.00
584.3330, 12639.00
585.5040, 12700.00
586.6760, 12745.00
587.8470, 12734.00
589.0180, 12821.00
590.1880, 12862.00
591.3590, 12888.14
592.5290, 12876.00
593.7000, 12951.00
594.8700, 12937.00
596.0400, 12953.00
597.2090, 12949.00
598.3790, 13069.00
599.5490, 12867.00
600.7180, 12955.00
601.8870, 12846.00
603.0560, 12946.00
604.2250, 12978.00
605.3940, 12750.00
606.5620, 12881.00
607.7300, 12976.00
608.8990, 12907.00
610.0670, 13003.27
611.2350, 12890.00
612.4020, 13040.00
613.5700, 12977.00
614.7370, 12965.00
615.9050, 12936.00
617.0720, 12985.00
618.2390, 12954.00
619.4060, 13007.00
620.5720, 13079.00
621.7390, 13006.00
622.9050, 13082.00
624.0710, 13055.00
625.2370, 13121.00
626.4030, 13095.00
627.5690, 13137.00
628.7340, 13096.00
629.9000, 13065.00
631.0650, 13125.00
632.2300, 13055.00
633.3950, 13119.00
634.5600, 13240.00
635.7240, 13075.00
636.8890, 13318.00
638.0530, 13251.00
639.2170, 13071.00
640.3810, 13311.00
641.5450, 13324.00
642.7080, 13247.00
643.8720, 13227.00
645.0350, 13210.00
646.1980, 13444.00
647.3610, 13252.00
648.5240, 13342.00
649.6870, 13463.00
650.8490, 13423.00
652.0120, 13269.00
653.1740, 13398.00
654.3360, 13372.00
655.4980, 13348.00
656.6600, 13393.00
657.8210, 13328.00
658.9830, 13446.00
660.1440, 13367.00
661.3050, 13388.00
662.4660, 13464.00
663.6270, 13396.00
664.7870, 13364.00
665.9480, 13389.00
667.1080, 13496.00
668.2680, 13451.00
669.4280, 13523.00
670.5880, 13556.55
671.7480, 13612.00
672.9070, 13616.00
674.0670, 13620.03
675.2260, 13522.00
676.3850, 13593.00
677.5440, 13502.00
678.7030, 13485.00
679.8610, 13483.25
681.0200, 13549.00
682.1780, 13523.00
683.3360, 13493.00
684.4940, 13670.00
685.6520, 13649.00
686.8090, 13566.00
687.9670, 13569.00
689.1240, 13501.00
690.2810, 13502.00
691.4380, 13655.00
692.5950, 13706.00
693.7520, 13695.00
694.9080, 13680.00
696.0650, 13743.00
697.2210, 13738.00
698.3770, 13796.00
699.5330, 13929.00
700.6880, 13787.00
701.8440, 13709.00
702.9990, 13816.00
704.1550, 13795.00
705.3100, 13898.00
706.4650, 13911.00
707.6190, 13823.00
708.7740, 13911.00
709.9290, 13895.00
711.0830, 13851.00
712.2370, 13896.00
713.3910, 13861.00
714.5450, 13861.61
715.6980, 14009.00
716.8520, 13855.00
718.0050, 14008.00
719.1580, 14025.00
720.3110, 13978.00
721.4640, 14006.00
722.6170, 14029.00
723.7700, 14155.00
724.9220, 14191.00
726.0740, 14028.00
727.2260, 14146.00
728.3780, 14107.00
729.5300, 14252.00
730.6810, 14156.00
731.8330, 14113.00
732.9840, 14126.00
734.1350, 14258.00
735.2860, 14125.00
736.4370, 14329.00
737.5880, 14219.00
738.7380, 14198.00
739.8880, 14329.00
741.0390, 14337.00
742.1890, 14339.00
743.3380, 14343.78
744.4880, 14319.00
745.6380, 14279.00
746.7870, 14332.00
747.9360, 14335.00
749.0850, 14292.00
750.2340, 14328.00
751.3830, 14505.00
752.5310, 14395.00
753.6800, 14339.00
754.8280, 14617.00
755.9760, 14499.00
757.1240, 14546.00
758.2720, 14517.00
759.4190, 14497.00
760.5670, 14523.00
761.7140, 14591.00
762.8610, 14655.00
764.0080, 14638.00
765.1550, 14666.00
766.3020, 14627.00
767.4480, 14651.00
768.5950, 14608.00
769.7410, 14602.00
770.8870, 14659.99
772.0330, 14913.00
773.1780, 14768.00
774.3240, 14958.00
775.4690, 14988.00
776.6140, 15044.00
777.7590, 15118.00
778.9040, 15100.00
780.0490, 15023.00
781.1940, 14988.00
782.3380, 14986.00
783.4820, 14929.00
784.6260, 14918.00
785.7700, 15010.00
786.9140, 14880.00
788.0580, 14900.00
789.2010, 14870.00
790.3450, 14969.00
791.4880, 14813.00
792.6310, 14894.00
793.7730, 14809.00
794.9160, 14797.00
796.0590, 14938.00
797.2010, 14868.00
798.3430, 14946.00
799.4850, 15004.00
800.6270, 14923.00
801.7690, 15075.00
802.9100, 15091.00
804.0520, 15114.00
805.1930, 14898.00
806.3340, 15042.00
807.4750, 14910.00
808.6160, 14923.00
809.7560, 15053.00
810.8970, 14942.00
812.0370, 15023.00
813.1770, 15037.00
814.3170, 15180.00
815.4570, 15053.00
816.5960, 15209.00
817.7360, 15247.00
818.8750, 15195.00
820.0140, 15289.00
821.1530, 15221.00
822.2920, 15215.00
823.4310, 15175.00
824.5690, 15203.45
825.7070, 15289.00
826.8460, 15285.00
827.9840, 15382.00
829.1220, 15427.00
830.2590, 15463.00
831.3970, 15474.32
832.5340, 15461.00
833.6710, 15468.00
834.8080, 15495.00
835.9450, 15540.00
837.0820, 15504.00
838.2190, 15522.68
839.3550, 15588.00
840.4910, 15517.00
841.6270, 15545.00
842.7630, 15570.00
843.8990, 15719.00
845.0350, 15672.00
846.1700, 15812.00
847.3060, 15831.00
848.4410, 15976.00
849.5760, 15962.00
850.7100, 16024.46
851.8450, 15886.00
852.9800, 16096.00
854.1140, 16057.00
855.2480, 16089.00
856.3820, 16202.00
857.5160, 16595.00
858.6500, 16615.00
859.7830, 16825.00
860.9170, 16978.00
862.0500, 16823.00
863.1830, 17046.00
864.3160, 16849.00
865.4480, 16856.00
866.5810, 16837.00
867.7130, 16790.00
868.8460, 16811.00
869.9780, 16796.00
871.1100, 16848.00
872.2410, 16860.00
873.3730, 16928.00
874.5050, 17075.00
875.6360, 17190.00
876.7670, 17295.00
877.8980, 17531.00
879.0290, 17529.00
880.1590, 17640.00
881.2900, 17740.00
882.4200, 17650.00
883.5500, 17939.00
884.6800, 17806.00
885.8100, 17657.00
886.9400, 17541.00
888.0690, 17687.00
889.1990, 17690.00
890.3280, 17679.00
891.4570, 17816.00
892.5860, 17798.00
893.7140, 17776.00
894.8430, 17898.00
895.9710, 17856.00
897.1000, 17446.00
898.2280, 17454.00
899.3560, 16982.00
900.4830, 16928.00
901.6110, 16737.00
902.7380, 16958.00
903.8660, 16748.00
904.9930, 16670.00
906.1200, 16781.00
907.2460, 16771.00
908.3730, 16819.00
909.5000, 16750.00
910.6260, 16865.00
911.7520, 16843.00
912.8780, 16959.00
914.0040, 17036.00
915.1290, 17029.00
916.2550, 17149.00
917.3800, 17213.00
918.5050, 17193.00
919.6300, 17320.00
920.7550, 17297.47
921.8800, 17135.00
923.0040, 17271.00
924.1290, 17276.00
925.2530, 17191.00
926.3770, 17536.00
927.5010, 17466.00
928.6250, 17380.00
929.7480, 17558.00
930.8720, 17489.00
931.9950, 17480.00
933.1180, 17592.00
934.2410, 17511.00
935.3640, 17581.00
936.4860, 17773.00
937.6090, 17882.00
938.7310, 17726.00
939.8530, 17728.00
940.9750, 17705.00
942.0970, 17695.00
943.2180, 17742.00
944.3400, 17663.00
945.4610, 17682.00
946.5820, 17425.00
947.7030, 17359.00
948.8240, 17361.00
949.9450, 17446.00
951.0650, 17251.00
952.1860, 17311.00
953.3060, 17294.00
954.4260, 17347.00
955.5460, 17234.00
956.6650, 17083.00
957.7850, 17147.00
958.9040, 17072.00
960.0230, 17119.00
961.1420, 17207.00
962.2610, 17048.00
963.3800, 17013.00
964.4990, 17158.00
965.6170, 17268.00
966.7350, 17185.00
967.8530, 17209.36
968.9710, 17091.00
970.0890, 17071.00
971.2070, 17067.00
972.3240, 17005.00
973.4410, 16965.00
974.5580, 17142.00
975.6750, 17196.00
976.7920, 17122.00
977.9090, 16945.00
979.0250, 16995.00
980.1410, 16893.00
981.2580, 17089.00
982.3740, 17031.00
983.4890, 17096.00
984.6050, 17038.00
985.7200, 17128.00
986.8360, 17135.00
987.9510, 17082.77
989.0660, 17100.00
990.1810, 17125.81
991.2950, 17217.00
992.4100, 17196.00
993.5240, 17202.00
994.6390, 17206.00
995.7530, 17222.00
996.8660, 17323.00
997.9800, 17336.00
999.0940, 17448.00
1000.207, 17464.01
1001.320, 17511.00
1002.433, 17434.00
1003.546, 17360.00
1004.659, 17171.00
1005.772, 17346.00
1006.884, 17419.00
1007.996, 17495.00
1009.108, 17352.00
1010.220, 17316.00
1011.332, 17442.00
1012.444, 17363.00
1013.555, 17408.00
1014.666, 17598.00
1015.777, 17349.00
1016.888, 17428.00
1017.999, 17516.00
1019.110, 17517.00
1020.220, 17503.00
1021.331, 17607.00
1022.441, 17659.00
1023.551, 17774.00
1024.661, 17566.00
1025.770, 17523.00
1026.880, 17574.00
1027.989, 17585.00
1029.098, 17584.00
1030.207, 17659.00
1031.316, 17632.00
1032.425, 17686.00
1033.533, 17643.00
1034.642, 17658.00
1035.750, 17873.00
1036.858, 17771.00
1037.966, 17848.00
1039.073, 17856.00
1040.181, 17768.00
1041.288, 17729.00
1042.396, 17707.00
1043.503, 17699.00
1044.610, 17799.00
1045.716, 17856.00
1046.823, 17894.00
1047.929, 17882.00
1049.036, 17945.69
1050.142, 17919.00
1051.248, 17971.00
1052.353, 17948.00
1053.459, 17829.00
1054.564, 17999.00
1055.670, 17887.00
1056.775, 18049.00
1057.880, 17929.00
1058.985, 17940.00
1060.089, 18012.00
1061.194, 18116.00
1062.298, 18070.83
1063.402, 18116.86
1064.506, 17997.00
1065.610, 18110.00
1066.713, 18046.00
1067.817, 18048.00
1068.920, 18096.00
1070.023, 17917.00
1071.126, 17949.00
1072.229, 18197.00
1073.332, 18084.00
1074.435, 18302.00
1075.537, 18165.00
1076.639, 18191.00
1077.741, 18391.00
1078.843, 18229.00
1079.945, 18309.00
1081.046, 18385.00
1082.148, 18279.00
1083.249, 18334.00
1084.350, 18396.00
1085.451, 18495.00
1086.551, 18463.00
1087.652, 18538.00
1088.752, 18342.00
1089.853, 18403.00
1090.953, 18334.00
1092.053, 18474.00
1093.152, 18310.00
1094.252, 18549.00
1095.351, 18409.00
1096.451, 18271.00
1097.550, 18298.00
1098.649, 18547.00
1099.748, 18622.00
1100.846, 18292.00
1101.945, 18576.00
1103.043, 18484.00
1104.141, 18599.00
1105.239, 18432.00
1106.337, 18300.00
1107.434, 18556.00
1108.532, 18504.00
1109.629, 18639.00
1110.726, 18677.00
1111.823, 18571.00
1112.920, 18552.00
1114.017, 18614.00
1115.113, 18625.00
1116.210, 18548.00
1117.306, 18798.00
1118.402, 18755.00
1119.498, 18737.00
1120.593, 18907.00
1121.689, 18779.00
1122.784, 18897.00
1123.879, 18917.00
1124.974, 18655.00
1126.069, 18700.00
1127.164, 18860.00
1128.259, 18723.00
1129.353, 18865.00
1130.447, 18809.00
1131.541, 18804.00
1132.635, 18848.00
1133.729, 18855.00
1134.822, 18808.00
1135.916, 18656.00
1137.009, 18811.00
1138.102, 18872.00
1139.195, 18979.00
1140.288, 18824.00
1141.380, 19041.00
1142.473, 18918.00
1143.565, 18871.00
1144.657, 18980.00
1145.749, 19033.00
1146.841, 18897.00
1147.932, 18999.00
1149.024, 18927.00
1150.115, 19012.00
1151.206, 19029.00
1152.297, 18889.00
1153.388, 19008.00
1154.479, 19103.00
1155.569, 18943.00
1156.659, 19023.00
1157.750, 19070.00
1158.839, 19047.00
1159.929, 19203.00
1161.019, 19083.00
1162.108, 19157.00
1163.198, 19205.00
1164.287, 18994.00
1165.376, 19141.00
1166.465, 19225.00
1167.553, 19341.00
1168.642, 19217.00
1169.730, 19136.00
1170.818, 19174.00
1171.906, 19174.00
1172.994, 19149.00
1174.082, 19452.00
1175.170, 19286.00
1176.257, 19400.00
1177.344, 19329.00
1178.431, 19208.00
1179.518, 19353.00
1180.605, 19246.00
1181.691, 19457.00
1182.778, 19473.00
1183.864, 19306.00
1184.950, 19332.00
1186.036, 19306.00
1187.122, 19347.00
1188.207, 19270.00
1189.292, 19513.00
1190.378, 19504.00
1191.463, 19473.00
1192.548, 19427.00
1193.632, 19492.00
1194.717, 19598.00
1195.801, 19631.00
1196.886, 19556.00
1197.970, 19552.00
1199.054, 19542.00
1200.137, 19448.00
1201.221, 19476.00
1202.305, 19491.00
1203.388, 19512.00
1204.471, 19567.00
1205.554, 19576.16
1206.637, 19571.00
1207.719, 19629.00
1208.802, 19642.00
1209.884, 19685.45
1210.966, 19729.07
1212.048, 19669.00
1213.130, 19797.00
1214.212, 19699.00
1215.293, 19679.00
1216.374, 19838.00
1217.456, 19671.00
1218.536, 19919.00
1219.617, 19744.00
1220.698, 19756.00
1221.778, 19963.00
1222.859, 19814.00
1223.939, 19822.00
1225.019, 19950.00
1226.099, 19970.00
1227.178, 19991.42
1228.258, 19721.00
1229.337, 19994.00
1230.417, 19947.00
1231.496, 19915.00
1232.574, 20087.00
1233.653, 20165.00
1234.732, 19885.00
1235.810, 19967.00
1236.888, 19937.00
1237.966, 20000.00
1239.044, 19923.00
1240.122, 19993.00
1241.199, 20035.00
1242.277, 20196.00
1243.354, 20139.58
1244.431, 20238.00
1245.508, 20095.00
1246.585, 20030.00
1247.661, 20056.00
1248.738, 20155.00
1249.814, 20022.00
1250.890, 20351.00
1251.966, 20203.00
1253.042, 20064.00
1254.117, 20204.00
1255.193, 20041.00
1256.268, 20277.00
1257.343, 20078.00
1258.418, 20106.00
1259.493, 20306.00
1260.567, 20013.00
1261.642, 20191.00
1262.716, 20273.00
1263.790, 20242.00
1264.864, 20360.00
1265.938, 20085.00
1267.011, 20329.00
1268.085, 20403.00
1269.158, 20338.00
1270.231, 20534.00
1271.304, 20300.00
1272.377, 20406.00
1273.450, 20514.00
1274.522, 20416.00
1275.594, 20491.00
1276.666, 20519.00
1277.738, 20534.00
1278.810, 20537.79
1279.882, 20542.76
1280.953, 20510.00
1282.025, 20477.00
1283.096, 20487.00
1284.167, 20335.00
1285.238, 20621.00
1286.308, 20570.00
1287.379, 20466.00
1288.449, 20293.00
1289.519, 20476.00
1290.589, 20428.83
1291.659, 20633.00
1292.729, 20586.00
1293.798, 20566.00
1294.868, 20641.00
1295.937, 20590.00
1297.006, 20596.00
1298.075, 20626.00
1299.143, 20699.00
1300.212, 20864.00
1301.280, 20554.00
1302.348, 20870.00
1303.416, 20779.00
1304.484, 20784.00
1305.552, 20845.00
1306.620, 20617.00
1307.687, 20711.00
1308.754, 20722.00
1309.821, 20864.00
1310.888, 20971.00
1311.955, 20813.00
1313.021, 20998.00
1314.088, 20798.00
1315.154, 20844.00
1316.220, 20826.00
1317.286, 21069.00
1318.352, 20986.00
1319.417, 20899.00
1320.483, 21016.00
1321.548, 20942.00
1322.613, 20966.00
1323.678, 20882.00
1324.743, 20907.00
1325.807, 20970.00
1326.872, 21215.00
1327.936, 20966.00
1329.000, 21154.00
1330.064, 20832.00
1331.128, 21088.00
1332.191, 21171.00
1333.255, 20972.00
1334.318, 21083.00
1335.381, 21121.00
1336.444, 21269.00
1337.507, 20988.00
1338.569, 21219.00
1339.632, 21037.00
1340.694, 21077.00
1341.756, 21183.00
1342.818, 21057.00
1343.880, 21252.00
1344.941, 21207.00
1346.003, 21113.00
1347.064, 21077.00
1348.125, 21284.00
1349.186, 21176.00
1350.247, 21292.00
1351.308, 21164.00
1352.368, 21068.00
1353.428, 21107.00
1354.489, 21075.92
1355.549, 21258.00
1356.608, 21170.00
1357.668, 21258.00
1358.727, 21349.00
1359.787, 21333.00
1360.846, 21444.00
1361.905, 21313.00
1362.964, 21470.00
1364.022, 21573.00
1365.081, 21329.00
1366.139, 21449.00
1367.197, 21435.00
1368.255, 21369.00
1369.313, 21406.00
1370.371, 21495.00
1371.428, 21442.00
1372.486, 21379.00
1373.543, 21491.00
1374.600, 21586.00
1375.657, 21702.00
1376.713, 21606.00
1377.770, 21644.00
1378.826, 21689.00
1379.882, 21634.48
1380.938, 21615.00
1381.994, 21613.00
1383.050, 21671.00
1384.106, 21702.00
1385.161, 21722.08
1386.216, 21744.00
1387.271, 21790.00
1388.326, 21850.00
1389.381, 21857.67
1390.435, 21820.00
1391.490, 21888.34
1392.544, 21889.00
1393.598, 21900.00
1394.652, 21986.00
1395.705, 21996.00
1396.759, 22260.00
1397.812, 22219.00
1398.866, 22007.00
1399.919, 22293.00
1400.972, 22145.00
1402.024, 22162.00
1403.077, 22248.00
1404.129, 22276.00
1405.181, 22200.00
1406.233, 22341.00
1407.285, 22066.00
1408.337, 22328.00
1409.389, 22468.00
1410.440, 22168.00
1411.491, 22430.00
1412.542, 22377.00
1413.593, 22329.00
1414.644, 22201.00
1415.695, 22509.00
1416.745, 22569.00
1417.795, 22435.00
1418.845, 22619.00
1419.895, 22630.00
1420.945, 22728.00
1421.995, 22735.12
1423.044, 22525.00
1424.093, 22656.00
1425.142, 22700.00
1426.191, 22577.00
1427.240, 22846.00
1428.289, 22628.00
1429.337, 22849.00
1430.385, 22862.00
1431.433, 22883.00
1432.481, 22955.00
1433.529, 23058.00
1434.577, 23045.00
1435.624, 23111.65
1436.672, 23059.00
1437.719, 23189.00
1438.766, 23170.00
1439.812, 23244.00
1440.859, 23235.00
1441.905, 23356.00
1442.952, 23403.00
1443.998, 23618.00
1445.044, 23570.00
1446.090, 23639.00
1447.135, 23579.00
1448.181, 23793.00
1449.226, 23925.00
1450.271, 23932.00
1451.316, 24078.00
1452.361, 24395.00
1453.405, 24449.00
1454.450, 24616.00
1455.494, 25019.00
1456.538, 25315.00
1457.582, 25833.00
1458.626, 26620.00
1459.670, 27530.00
1460.713, 28110.00
1461.757, 28318.00
1462.800, 27765.00
1463.843, 27496.00
1464.886, 26889.00
1465.928, 26757.00
1466.971, 26663.00
1468.013, 26670.00
1469.055, 26863.00
1470.097, 27085.00
1471.139, 27486.00
1472.181, 27686.00
1473.222, 28068.00
1474.263, 28267.00
1475.305, 28854.00
1476.346, 29615.00
1477.386, 30521.00
1478.427, 31778.00
1479.468, 33331.00
1480.508, 35516.60
1481.548, 37839.00
1482.588, 41004.00
1483.628, 44609.00
1484.668, 48360.00
1485.707, 52440.00
1486.747, 55832.00
1487.786, 57831.00
1488.825, 58049.00
1489.864, 56178.00
1490.902, 51718.00
1491.941, 46236.00
1492.979, 41332.00
1494.017, 37126.00
1495.055, 34053.00
1496.093, 31364.00
1497.131, 29255.00
1498.168, 28259.00
1499.206, 26894.00
1500.243, 26205.00
1501.280, 25476.00
1502.317, 25260.00
1503.354, 25025.00
1504.390, 24746.00
1505.426, 24568.64
1506.463, 24294.00
1507.499, 24232.00
1508.535, 24099.00
1509.570, 24040.00
1510.606, 23672.00
1511.641, 23784.00
1512.676, 23597.00
1513.711, 23646.00
1514.746, 23460.00
1515.781, 23329.00
1516.816, 23668.00
1517.850, 23450.00
1518.884, 23491.00
1519.918, 23392.00
1520.952, 23328.00
1521.986, 23455.00
1523.019, 23442.00
1524.053, 23414.00
1525.086, 23504.00
1526.119, 23451.15
1527.152, 23494.00
1528.185, 23432.00
1529.217, 23420.00
1530.250, 23444.00
1531.282, 23255.00
1532.314, 23271.00
1533.346, 23498.00
1534.377, 23599.00
1535.409, 23440.00
1536.440, 23447.00
1537.472, 23494.00
1538.503, 23364.00
1539.534, 23414.00
1540.564, 23360.00
1541.595, 23365.00
1542.625, 23444.00
1543.656, 23510.00
1544.686, 23324.00
1545.716, 23426.00
1546.745, 23603.00
1547.775, 23426.00
1548.804, 23461.00
1549.834, 23435.00
1550.863, 23451.00
1551.892, 23580.00
1552.920, 23553.00
1553.949, 23550.00
1554.977, 23567.00
1556.006, 23343.00
1557.034, 23340.00
1558.062, 23645.00
1559.089, 23529.00
1560.117, 23692.00
1561.144, 23501.00
1562.172, 23544.00
1563.199, 23513.00
1564.226, 23468.00
1565.252, 23504.91
1566.279, 23742.00
1567.305, 23587.00
1568.332, 23570.00
1569.358, 23717.00
1570.384, 23601.00
##END=



