##NAMES=Whitlockite
##RRUFFID=R070675
##IDEAL CHEMISTRY=Ca_9_Mg(PO_4_)_6_(PO_3_OH)
##LOCALITY=Palermo mine, North Groton, New Hampshire, USA
##OWNER=RRUFF
##SOURCE=Rock Currier
##DESCRIPTION=Colorless blocky modified rhombic crystals
##STATUS=The identification of this mineral is confirmed by single-crystal X-ray diffraction and chemical analysis.
##URL=rruff.info/R070675
##MEASURED CHEMISTRY=(Ca_8.70_Na_0.27_Sr_0.02_Mn_0.01_)_Σ=9_(Mg_0.73_Fe^3+^_0.19_Al_0.08_)_Σ=1_(P_1.00_O_4_)_6_(P_1.00_O_3_((OH)_0.58_F_0.42_)_Σ=1_); OH estimated by charge balance
##PIN_ID=M00691
##ORIENTATION=Laser parallel to a* (1 0 0). Fiducial mark perpendicular to laser is parallel to c [0 0 1]
137.3420, 4930.000
138.5800, 5038.000
139.8180, 5168.000
141.0560, 5222.000
142.2940, 5259.000
143.5310, 5331.000
144.7680, 5378.000
146.0050, 5608.000
147.2420, 5712.000
148.4790, 5801.000
149.7150, 5825.000
150.9510, 5912.000
152.1870, 6016.000
153.4230, 6112.000
154.6590, 6231.000
155.8940, 6175.000
157.1300, 6154.000
158.3650, 6331.000
159.6000, 6124.000
160.8340, 6195.000
162.0690, 6127.000
163.3030, 6122.000
164.5370, 6166.000
165.7710, 6064.000
167.0050, 6196.000
168.2380, 6080.000
169.4720, 6099.000
170.7050, 6179.000
171.9380, 6093.000
173.1700, 6149.000
174.4030, 6113.000
175.6350, 6159.000
176.8680, 6119.000
178.1000, 6212.000
179.3310, 6209.000
180.5630, 6103.000
181.7940, 6063.000
183.0260, 5943.000
184.2570, 5838.000
185.4870, 5912.000
186.7180, 5814.000
187.9480, 5794.000
189.1790, 5791.000
190.4090, 5786.000
191.6390, 5569.000
192.8680, 5658.000
194.0980, 5615.000
195.3270, 5779.000
196.5560, 5747.000
197.7850, 5733.000
199.0140, 5755.000
200.2420, 5648.000
201.4710, 5611.000
202.6990, 5650.000
203.9270, 5656.000
205.1550, 5617.000
206.3820, 5666.000
207.6090, 5703.000
208.8370, 5696.000
210.0640, 5681.000
211.2900, 5734.000
212.5170, 5771.000
213.7440, 5739.000
214.9700, 5764.000
216.1960, 5717.000
217.4220, 5768.000
218.6470, 5730.000
219.8730, 5828.000
221.0980, 5749.000
222.3230, 5779.000
223.5480, 5849.000
224.7730, 5899.000
225.9970, 5941.334
227.2220, 5957.910
228.4460, 6003.000
229.6700, 5963.000
230.8940, 5927.000
232.1170, 5925.000
233.3400, 5942.000
234.5640, 5982.000
235.7870, 6016.000
237.0100, 5971.000
238.2320, 5974.000
239.4550, 5964.000
240.6770, 5959.000
241.8990, 5924.000
243.1210, 6007.000
244.3420, 5977.000
245.5640, 6021.000
246.7850, 6004.000
248.0060, 5903.000
249.2270, 6044.000
250.4480, 6057.000
251.6690, 6015.000
252.8890, 6136.000
254.1090, 6093.000
255.3290, 6160.000
256.5490, 6159.000
257.7680, 6160.000
258.9880, 6191.000
260.2070, 6115.000
261.4260, 6187.000
262.6450, 6129.000
263.8640, 6120.000
265.0820, 6106.000
266.3000, 6074.000
267.5180, 6055.000
268.7360, 6086.000
269.9540, 6101.000
271.1720, 6188.000
272.3890, 6174.000
273.6060, 6259.000
274.8230, 6304.000
276.0400, 6328.000
277.2560, 6301.000
278.4730, 6242.000
279.6890, 6378.000
280.9050, 6354.014
282.1210, 6447.250
283.3370, 6478.823
284.5520, 6450.062
285.7670, 6293.169
286.9820, 6419.000
288.1970, 6314.000
289.4120, 6319.000
290.6270, 6114.000
291.8410, 6172.000
293.0550, 6031.000
294.2690, 6124.000
295.4830, 6047.000
296.6970, 5882.000
297.9100, 5975.000
299.1230, 5958.000
300.3360, 5926.000
301.5490, 5872.000
302.7620, 5873.368
303.9740, 5881.000
305.1860, 5836.000
306.3990, 5833.000
307.6110, 5767.000
308.8220, 5772.804
310.0340, 5716.000
311.2450, 5772.000
312.4560, 5780.000
313.6670, 5789.000
314.8780, 5695.000
316.0890, 5719.000
317.2990, 5710.000
318.5090, 5742.000
319.7200, 5673.000
320.9290, 5669.000
322.1390, 5543.000
323.3490, 5706.000
324.5580, 5729.000
325.7670, 5766.000
326.9760, 5667.000
328.1850, 5690.000
329.3930, 5669.000
330.6020, 5661.000
331.8100, 5674.000
333.0180, 5672.443
334.2260, 5721.000
335.4340, 5688.000
336.6410, 5730.000
337.8480, 5725.000
339.0550, 5813.000
340.2620, 5775.000
341.4690, 5722.000
342.6760, 5703.000
343.8820, 5605.000
345.0880, 5739.000
346.2940, 5833.000
347.5000, 5796.000
348.7060, 5788.000
349.9110, 5721.000
351.1160, 5766.000
352.3210, 5810.000
353.5260, 5692.000
354.7310, 5762.000
355.9360, 5791.000
357.1400, 5779.000
358.3440, 5832.000
359.5480, 5722.000
360.7520, 5703.000
361.9550, 5848.000
363.1590, 5724.000
364.3620, 5830.000
365.5650, 5797.000
366.7680, 5868.000
367.9710, 5782.000
369.1730, 5843.000
370.3760, 5776.000
371.5780, 5770.000
372.7800, 5808.000
373.9810, 6010.000
375.1830, 5812.000
376.3840, 6042.000
377.5860, 5995.000
378.7870, 6050.000
379.9880, 5958.000
381.1880, 6048.000
382.3890, 6118.000
383.5890, 6108.000
384.7890, 6144.000
385.9890, 6284.000
387.1890, 6366.000
388.3880, 6440.000
389.5880, 6496.000
390.7870, 6515.000
391.9860, 6725.000
393.1850, 6876.000
394.3840, 6968.000
395.5820, 7049.000
396.7800, 7173.000
397.9790, 7328.000
399.1770, 7496.000
400.3740, 7789.000
401.5720, 7775.000
402.7690, 7876.000
403.9670, 8181.000
405.1640, 8204.000
406.3600, 8115.000
407.5570, 8106.000
408.7540, 8141.000
409.9500, 7987.000
411.1460, 7860.000
412.3420, 7841.000
413.5380, 7716.000
414.7330, 7668.000
415.9290, 7523.000
417.1240, 7523.000
418.3190, 7464.000
419.5140, 7506.000
420.7090, 7460.000
421.9030, 7493.000
423.0970, 7548.000
424.2920, 7599.000
425.4860, 7562.000
426.6790, 7600.000
427.8730, 7732.000
429.0660, 7703.000
430.2600, 7763.000
431.4530, 7948.000
432.6460, 7838.000
433.8380, 7768.000
435.0310, 8000.000
436.2230, 7833.000
437.4150, 7823.000
438.6070, 7911.000
439.7990, 7838.000
440.9910, 7896.000
442.1820, 7834.000
443.3730, 7879.000
444.5640, 7777.000
445.7550, 7868.000
446.9460, 7857.000
448.1370, 7890.000
449.3270, 7847.000
450.5170, 7878.000
451.7070, 7867.000
452.8970, 7884.000
454.0870, 7813.000
455.2760, 7870.000
456.4650, 7816.000
457.6550, 7782.000
458.8430, 7839.000
460.0320, 7681.000
461.2210, 7652.000
462.4090, 7638.000
463.5970, 7695.000
464.7850, 7399.000
465.9730, 7496.000
467.1610, 7402.000
468.3480, 7260.000
469.5360, 7260.000
470.7230, 7161.000
471.9100, 7296.000
473.0970, 7031.000
474.2830, 7269.000
475.4700, 7094.000
476.6560, 7178.000
477.8420, 7151.000
479.0280, 7089.000
480.2140, 7150.000
481.3990, 7306.000
482.5850, 7259.000
483.7700, 7268.000
484.9550, 7194.000
486.1400, 7174.000
487.3240, 7066.000
488.5090, 7069.000
489.6930, 7061.000
490.8770, 6987.000
492.0610, 6835.000
493.2450, 6691.000
494.4290, 6677.000
495.6120, 6664.000
496.7950, 6609.000
497.9780, 6630.000
499.1610, 6617.000
500.3440, 6545.000
501.5260, 6499.000
502.7090, 6497.000
503.8910, 6431.000
505.0730, 6584.000
506.2550, 6432.000
507.4360, 6499.000
508.6180, 6513.000
509.7990, 6411.000
510.9800, 6500.000
512.1610, 6424.000
513.3420, 6485.000
514.5230, 6477.000
515.7030, 6493.000
516.8830, 6507.000
518.0630, 6496.000
519.2430, 6613.000
520.4230, 6476.000
521.6020, 6577.000
522.7820, 6472.000
523.9610, 6687.000
525.1400, 6644.000
526.3190, 6566.000
527.4970, 6623.000
528.6760, 6604.638
529.8540, 6675.000
531.0320, 6689.000
532.2100, 6774.000
533.3880, 6884.000
534.5660, 6930.000
535.7430, 7046.000
536.9200, 7067.000
538.0970, 7059.000
539.2740, 7227.000
540.4510, 7281.000
541.6270, 7518.000
542.8040, 7836.000
543.9800, 7919.000
545.1560, 8180.000
546.3320, 8247.000
547.5080, 8273.000
548.6830, 8225.000
549.8580, 8211.000
551.0340, 8064.000
552.2090, 7921.000
553.3830, 7900.000
554.5580, 7815.000
555.7320, 7770.000
556.9070, 7950.000
558.0810, 8054.000
559.2550, 8083.000
560.4280, 8150.000
561.6020, 8095.000
562.7750, 8157.000
563.9490, 8092.000
565.1220, 8053.000
566.2950, 7845.000
567.4670, 7638.000
568.6400, 7428.000
569.8120, 7340.226
570.9840, 7267.000
572.1560, 7198.000
573.3280, 7161.000
574.5000, 7103.000
575.6710, 7088.161
576.8430, 7061.837
578.0140, 7070.000
579.1850, 7059.000
580.3560, 7050.000
581.5260, 7100.000
582.6970, 7031.000
583.8670, 7121.000
585.0370, 7208.000
586.2070, 7325.000
587.3770, 7348.000
588.5460, 7530.000
589.7160, 7675.000
590.8850, 7716.000
592.0540, 7841.000
593.2230, 7834.000
594.3920, 7841.000
595.5600, 7891.000
596.7290, 7985.000
597.8970, 8002.819
599.0650, 7969.000
600.2330, 8116.000
601.4000, 8161.000
602.5680, 8270.000
603.7350, 8260.000
604.9020, 8293.773
606.0690, 8369.000
607.2360, 8235.000
608.4030, 8176.000
609.5690, 8009.000
610.7360, 7952.000
611.9020, 7777.000
613.0680, 7738.000
614.2340, 7822.000
615.3990, 7825.000
616.5650, 7783.000
617.7300, 7982.000
618.8950, 7995.000
620.0600, 8015.000
621.2250, 7971.000
622.3890, 8054.000
623.5540, 8249.000
624.7180, 7977.000
625.8820, 8191.000
627.0460, 8125.000
628.2100, 7966.000
629.3730, 8122.000
630.5370, 8094.000
631.7000, 8103.000
632.8630, 7910.000
634.0260, 7770.000
635.1890, 7797.000
636.3510, 7661.000
637.5140, 7357.000
638.6760, 7257.000
639.8380, 7214.000
641.0000, 6986.000
642.1610, 7090.000
643.3230, 7082.000
644.4840, 6949.000
645.6450, 6979.000
646.8060, 7064.000
647.9670, 7039.000
649.1280, 7047.000
650.2880, 7126.000
651.4490, 6989.000
652.6090, 6967.000
653.7690, 6875.000
654.9290, 6878.455
656.0880, 6998.000
657.2480, 6892.000
658.4070, 6983.000
659.5660, 6943.000
660.7250, 6933.000
661.8840, 6975.000
663.0430, 7047.000
664.2010, 6967.000
665.3600, 6960.000
666.5180, 7018.000
667.6760, 6991.000
668.8330, 6992.000
669.9910, 7012.549
671.1480, 6939.000
672.3060, 7003.000
673.4630, 7024.000
674.6200, 6963.000
675.7770, 7043.000
676.9330, 7071.000
678.0900, 7017.000
679.2460, 7024.000
680.4020, 6982.000
681.5580, 7109.000
682.7140, 7023.000
683.8690, 7072.000
685.0250, 7150.000
686.1800, 6989.000
687.3350, 7003.000
688.4900, 7009.000
689.6450, 7086.000
690.7990, 6996.000
691.9540, 7036.000
693.1080, 7084.000
694.2620, 7057.000
695.4160, 7099.000
696.5700, 7178.000
697.7230, 7211.000
698.8770, 7231.883
700.0300, 7221.720
701.1830, 7225.000
702.3360, 7187.000
703.4890, 7127.000
704.6410, 7185.000
705.7930, 7224.000
706.9460, 7164.000
708.0980, 7278.000
709.2500, 7094.000
710.4010, 7136.000
711.5530, 7097.000
712.7040, 7201.000
713.8560, 7265.000
715.0070, 7265.000
716.1580, 7241.000
717.3080, 7133.000
718.4590, 7261.000
719.6090, 7208.000
720.7590, 7229.000
721.9090, 7267.000
723.0590, 7280.000
724.2090, 7219.000
725.3590, 7331.000
726.5080, 7260.000
727.6570, 7304.000
728.8060, 7344.000
729.9550, 7209.000
731.1040, 7243.000
732.2530, 7322.000
733.4010, 7195.000
734.5490, 7340.000
735.6970, 7321.000
736.8450, 7450.000
737.9930, 7367.000
739.1400, 7256.000
740.2880, 7333.000
741.4350, 7370.000
742.5820, 7474.000
743.7290, 7481.000
744.8760, 7305.000
746.0220, 7397.000
747.1690, 7474.000
748.3150, 7335.000
749.4610, 7470.000
750.6070, 7351.000
751.7530, 7465.000
752.8980, 7459.000
754.0440, 7375.000
755.1890, 7309.000
756.3340, 7495.000
757.4790, 7425.000
758.6240, 7466.000
759.7680, 7523.000
760.9130, 7443.000
762.0570, 7466.000
763.2010, 7503.000
764.3450, 7500.000
765.4890, 7508.000
766.6320, 7511.021
767.7760, 7491.000
768.9190, 7503.000
770.0620, 7518.000
771.2050, 7522.000
772.3480, 7580.000
773.4900, 7561.000
774.6330, 7478.000
775.7750, 7653.000
776.9170, 7587.000
778.0590, 7718.000
779.2010, 7692.000
780.3420, 7634.000
781.4840, 7591.000
782.6250, 7593.000
783.7660, 7676.000
784.9070, 7571.000
786.0480, 7615.000
787.1890, 7627.000
788.3290, 7792.000
789.4690, 7610.000
790.6100, 7698.000
791.7490, 7722.000
792.8890, 7616.000
794.0290, 7786.000
795.1680, 7721.000
796.3080, 7788.000
797.4470, 7657.000
798.5860, 7793.000
799.7250, 7679.000
800.8630, 7758.000
802.0020, 7681.000
803.1400, 7808.000
804.2780, 7749.000
805.4160, 7639.000
806.5540, 7815.000
807.6920, 7769.000
808.8300, 7741.000
809.9670, 7759.000
811.1040, 7783.000
812.2410, 7774.177
813.3780, 7827.000
814.5150, 7787.000
815.6510, 7816.000
816.7880, 7829.000
817.9240, 7788.000
819.0600, 7827.000
820.1960, 7982.000
821.3320, 7823.000
822.4670, 7670.000
823.6030, 7955.000
824.7380, 7818.000
825.8730, 7930.000
827.0080, 7987.000
828.1430, 8010.000
829.2770, 7850.000
830.4120, 7962.000
831.5460, 7921.000
832.6800, 7950.000
833.8140, 7996.000
834.9480, 7951.000
836.0810, 7975.000
837.2150, 8059.000
838.3480, 8138.000
839.4810, 8045.000
840.6140, 8150.000
841.7470, 8146.000
842.8800, 8129.000
844.0120, 8196.000
845.1450, 8181.000
846.2770, 8149.000
847.4090, 8139.000
848.5410, 8127.000
849.6720, 8243.000
850.8040, 8377.000
851.9350, 8355.000
853.0660, 8295.000
854.1970, 8350.000
855.3280, 8262.000
856.4590, 8447.000
857.5900, 8523.000
858.7200, 8437.000
859.8500, 8469.000
860.9800, 8437.000
862.1100, 8476.000
863.2400, 8460.000
864.3700, 8481.000
865.4990, 8507.000
866.6280, 8449.000
867.7570, 8431.000
868.8860, 8399.000
870.0150, 8355.000
871.1440, 8400.000
872.2720, 8453.000
873.4010, 8541.000
874.5290, 8536.220
875.6570, 8552.299
876.7850, 8518.000
877.9120, 8548.000
879.0400, 8487.000
880.1670, 8539.000
881.2940, 8559.000
882.4210, 8476.000
883.5480, 8603.000
884.6750, 8516.000
885.8020, 8711.000
886.9280, 8630.000
888.0540, 8653.000
889.1800, 8723.000
890.3060, 8822.000
891.4320, 8909.000
892.5580, 8990.000
893.6830, 9081.000
894.8080, 9133.632
895.9330, 9150.000
897.0580, 9242.000
898.1830, 9282.000
899.3080, 9350.000
900.4320, 9309.000
901.5570, 9426.000
902.6810, 9443.000
903.8050, 9582.000
904.9290, 9507.000
906.0520, 9723.000
907.1760, 9858.000
908.2990, 9835.000
909.4230, 9909.000
910.5460, 10099.00
911.6690, 10277.00
912.7910, 10573.00
913.9140, 10885.53
915.0360, 11475.00
916.1590, 11660.00
917.2810, 12120.00
918.4030, 12592.00
919.5240, 12825.00
920.6460, 13078.00
921.7680, 13413.00
922.8890, 13253.00
924.0100, 13083.00
925.1310, 12656.00
926.2520, 12318.00
927.3730, 11777.00
928.4930, 11370.00
929.6130, 10935.00
930.7340, 10716.00
931.8540, 10539.00
932.9740, 10462.00
934.0930, 10384.00
935.2130, 10381.00
936.3320, 10336.00
937.4520, 10422.00
938.5710, 10699.00
939.6900, 10561.00
940.8090, 10917.00
941.9270, 11007.00
943.0460, 11115.00
944.1640, 11414.00
945.2820, 11801.00
946.4000, 11932.00
947.5180, 12425.00
948.6360, 13066.00
949.7530, 13869.00
950.8710, 14924.00
951.9880, 16446.00
953.1050, 18433.00
954.2220, 20727.00
955.3390, 23868.00
956.4550, 27774.00
957.5720, 32265.00
958.6880, 37080.00
959.8040, 41732.00
960.9200, 45845.00
962.0360, 48796.00
963.1520, 51426.00
964.2670, 53853.00
965.3820, 54841.00
966.4980, 55180.00
967.6130, 54124.00
968.7280, 51170.00
969.8420, 47521.00
970.9570, 43088.00
972.0710, 37907.00
973.1850, 32849.00
974.3000, 28225.00
975.4140, 24291.00
976.5270, 20969.00
977.6410, 18611.00
978.7540, 16809.00
979.8680, 15663.00
980.9810, 14878.00
982.0940, 14644.00
983.2070, 14576.00
984.3200, 14675.00
985.4320, 14748.00
986.5440, 14927.00
987.6570, 15334.00
988.7690, 15366.00
989.8810, 15290.00
990.9920, 15369.00
992.1040, 15108.00
993.2160, 14956.00
994.3270, 14499.00
995.4380, 14124.00
996.5490, 13834.00
997.6600, 13272.00
998.7710, 13118.00
999.8810, 12747.00
1000.991, 12409.00
1002.102, 12459.00
1003.212, 12168.00
1004.322, 12017.00
1005.431, 11689.00
1006.541, 11676.00
1007.651, 11494.00
1008.760, 11728.00
1009.869, 11756.00
1010.978, 11823.00
1012.087, 11873.00
1013.195, 12054.00
1014.304, 12165.00
1015.412, 12312.03
1016.521, 12471.00
1017.629, 12638.00
1018.737, 12862.00
1019.844, 13041.00
1020.952, 13380.00
1022.059, 13424.00
1023.167, 13698.00
1024.274, 13813.00
1025.381, 13917.00
1026.488, 13998.00
1027.594, 14031.00
1028.701, 14049.00
1029.807, 13937.00
1030.913, 13642.00
1032.019, 13504.00
1033.125, 13283.00
1034.231, 12986.00
1035.337, 12783.00
1036.442, 12430.00
1037.548, 12111.00
1038.653, 11917.00
1039.758, 11631.00
1040.863, 11577.00
1041.967, 11361.00
1043.072, 11274.00
1044.176, 11088.00
1045.280, 10961.00
1046.384, 10849.00
1047.488, 10787.00
1048.592, 10792.00
1049.696, 10670.00
1050.799, 10614.00
1051.903, 10682.00
1053.006, 10734.00
1054.109, 10713.00
1055.212, 10701.00
1056.314, 10684.00
1057.417, 10751.43
1058.519, 10946.00
1059.621, 10945.00
1060.724, 10923.00
1061.826, 11089.00
1062.927, 11106.00
1064.029, 11156.00
1065.130, 11170.00
1066.232, 11059.00
1067.333, 11018.00
1068.434, 10934.00
1069.535, 11059.00
1070.636, 11028.00
1071.736, 11017.00
1072.837, 10891.00
1073.937, 11099.00
1075.037, 10915.00
1076.137, 11014.00
1077.237, 11202.00
1078.337, 11118.00
1079.436, 11052.00
1080.535, 11267.00
1081.635, 11312.00
1082.734, 11265.00
1083.833, 11158.00
1084.931, 11161.00
1086.030, 11166.00
1087.128, 11175.00
1088.227, 11344.00
1089.325, 11075.00
1090.423, 11145.00
1091.521, 11088.00
1092.618, 11280.00
1093.716, 11212.00
1094.813, 11294.00
1095.911, 11200.00
1097.008, 11187.00
1098.105, 11079.00
1099.202, 11179.00
1100.298, 11014.00
1101.395, 11061.00
1102.491, 11014.00
1103.587, 10893.00
1104.683, 10801.00
1105.779, 10831.00
1106.875, 10772.00
1107.971, 10662.00
1109.066, 10583.00
1110.161, 10535.00
1111.256, 10614.00
1112.351, 10396.00
1113.446, 10453.00
1114.541, 10293.00
1115.636, 10197.00
1116.730, 10319.00
1117.824, 10151.00
1118.918, 10201.00
1120.012, 10170.00
1121.106, 10036.00
1122.200, 10136.00
1123.293, 9927.000
1124.387, 9973.000
1125.480, 9873.000
1126.573, 9956.000
1127.666, 9972.000
1128.759, 9799.000
1129.851, 9914.000
1130.944, 9891.000
1132.036, 9833.000
1133.128, 9771.000
1134.220, 9815.000
1135.312, 9871.000
1136.404, 9885.000
1137.495, 9886.000
1138.587, 9914.322
1139.678, 9956.000
1140.769, 9923.000
1141.860, 9927.192
1142.951, 9901.000
1144.041, 9919.000
1145.132, 9875.000
1146.222, 9907.000
1147.313, 9905.000
1148.403, 9856.000
1149.493, 9853.000
1150.582, 9916.000
1151.672, 9827.000
1152.761, 9903.000
1153.851, 9755.000
1154.940, 9897.000
1156.029, 9979.000
1157.118, 9883.000
1158.207, 9880.000
1159.295, 9871.000
1160.384, 9797.000
1161.472, 9800.000
1162.560, 9719.000
1163.648, 9781.000
1164.736, 9796.000
1165.824, 9708.000
1166.911, 9841.000
1167.999, 9754.000
1169.086, 9799.000
1170.173, 9777.000
1171.260, 9747.000
1172.347, 9715.000
1173.434, 9772.000
1174.520, 9686.000
1175.606, 9624.000
1176.693, 9815.000
1177.779, 9683.000
1178.865, 9907.000
1179.951, 9816.000
1181.036, 9782.000
1182.122, 9892.000
1183.207, 9728.000
1184.292, 9785.000
1185.377, 9932.000
1186.462, 9944.000
1187.547, 9956.000
1188.632, 9763.000
1189.716, 9836.000
1190.800, 9806.000
1191.885, 9823.000
1192.969, 9917.000
1194.052, 9720.000
1195.136, 9873.000
1196.220, 9809.000
1197.303, 9865.000
1198.387, 9880.000
1199.470, 9914.000
1200.553, 9925.000
1201.636, 9925.000
1202.718, 9880.000
1203.801, 9920.000
1204.883, 9899.000
1205.966, 9951.000
1207.048, 9862.000
1208.130, 9889.000
1209.211, 9890.000
1210.293, 9876.000
1211.375, 9892.188
1212.456, 9884.251
1213.537, 9892.000
1214.618, 9910.000
1215.699, 9894.000
1216.780, 9965.000
1217.861, 9925.000
1218.941, 9948.000
1220.022, 9897.000
1221.102, 10038.00
1222.182, 10151.00
1223.262, 9945.000
1224.342, 9962.000
1225.422, 9849.000
1226.501, 10005.00
1227.580, 9937.000
1228.660, 9950.000
1229.739, 10003.00
1230.818, 10053.00
1231.896, 9948.000
1232.975, 10100.00
1234.054, 10208.00
1235.132, 10057.00
1236.210, 9939.000
1237.288, 10254.00
1238.366, 9949.000
1239.444, 10106.00
1240.521, 10160.00
1241.599, 10097.00
1242.676, 10107.00
1243.753, 10063.00
1244.830, 10238.00
1245.907, 10039.00
1246.984, 10134.00
1248.061, 10179.00
1249.137, 9978.000
1250.214, 10014.00
1251.290, 10215.00
1252.366, 10190.00
1253.442, 10202.00
1254.517, 10178.00
1255.593, 10044.00
1256.668, 10182.00
1257.744, 10176.00
1258.819, 10213.00
1259.894, 10081.00
1260.969, 10243.00
1262.044, 10048.00
1263.118, 10215.00
1264.193, 10119.00
1265.267, 10135.00
1266.341, 10321.00
1267.415, 10211.00
1268.489, 10240.00
1269.563, 10202.00
1270.636, 10152.00
1271.710, 10190.00
1272.783, 10273.00
1273.856, 10295.00
1274.929, 10266.00
1276.002, 10352.00
1277.075, 10300.00
1278.147, 10229.00
1279.220, 10266.00
1280.292, 10205.00
1281.364, 10292.00
1282.436, 10261.00
1283.508, 10275.00
1284.580, 10373.00
1285.652, 10170.00
1286.723, 10335.00
1287.794, 10206.00
1288.865, 10240.00
1289.936, 10229.00
1291.007, 10347.00
1292.078, 10298.00
1293.149, 10245.00
1294.219, 10396.00
1295.289, 10387.00
1296.360, 10429.00
1297.430, 10379.00
1298.499, 10328.00
1299.569, 10359.00
1300.639, 10414.00
1301.708, 10416.00
1302.778, 10468.00
1303.847, 10325.00
1304.916, 10340.00
1305.985, 10563.00
1307.053, 10377.00
1308.122, 10405.00
1309.190, 10456.00
1310.259, 10392.00
1311.327, 10505.00
1312.395, 10534.00
1313.463, 10526.00
1314.531, 10400.00
1315.598, 10340.00
1316.666, 10474.00
1317.733, 10458.00
1318.800, 10494.00
1319.867, 10486.00
1320.934, 10499.00
1322.001, 10501.00
1323.067, 10419.00
1324.134, 10588.00
1325.200, 10420.00
1326.266, 10423.00
1327.333, 10298.00
1328.398, 10491.00
1329.464, 10440.00
1330.530, 10450.00
1331.595, 10608.00
1332.661, 10413.00
1333.726, 10445.00
1334.791, 10473.00
1335.856, 10388.00
1336.921, 10508.00
1337.985, 10483.00
1339.050, 10506.00
1340.114, 10417.00
1341.178, 10558.00
1342.242, 10562.00
1343.306, 10493.00
1344.370, 10508.00
1345.434, 10423.00
1346.497, 10519.00
1347.561, 10566.00
1348.624, 10464.00
1349.687, 10552.00
1350.750, 10561.00
1351.813, 10714.00
1352.876, 10567.00
1353.938, 10543.00
1355.000, 10540.00
1356.063, 10502.00
1357.125, 10681.00
1358.187, 10588.00
1359.249, 10465.00
1360.310, 10593.00
1361.372, 10461.00
1362.433, 10467.00
1363.495, 10735.00
1364.556, 10551.00
1365.617, 10645.00
1366.678, 10536.00
1367.738, 10584.00
1368.799, 10658.00
1369.859, 10636.00
1370.920, 10711.00
1371.980, 10654.00
1373.040, 10716.00
1374.100, 10731.00
1375.159, 10590.00
1376.219, 10737.00
1377.278, 10677.00
1378.338, 10646.00
1379.397, 10661.00
1380.456, 10635.00
1381.515, 10761.00
1382.574, 10785.00
1383.632, 10755.00
1384.691, 10674.00
1385.749, 10805.00
1386.807, 10698.00
1387.865, 10661.00
1388.923, 10775.00
1389.981, 10680.00
1391.039, 10767.00
1392.096, 10808.00
1393.154, 10842.00
1394.211, 10800.00
1395.268, 10723.00
1396.325, 10874.00
1397.382, 10892.00
1398.439, 10730.00
1399.495, 10816.00
1400.552, 10693.00
1401.608, 10804.00
1402.664, 10797.00
1403.720, 10800.00
1404.776, 10846.00
1405.832, 10776.00
1406.887, 10807.67
1407.943, 10902.00
1408.998, 10825.00
1410.053, 10893.00
1411.108, 10939.00
1412.163, 10938.00
1413.218, 10923.00
1414.272, 10823.00
1415.327, 10749.00
1416.381, 10811.00
1417.435, 10844.00
1418.489, 10845.00
1419.543, 10873.71
1420.597, 10846.00
1421.651, 10854.00
1422.704, 10903.00
1423.758, 10826.00
1424.811, 10924.00
1425.864, 10880.00
1426.917, 10903.00
1427.970, 10958.00
1429.023, 10873.00
1430.075, 10850.00
1431.128, 10941.00
1432.180, 10939.00
1433.232, 10985.00
1434.284, 10922.00
1435.336, 10964.00
1436.388, 10982.00
1437.439, 11051.00
1438.491, 11024.00
1439.542, 11015.00
1440.593, 10962.00
1441.644, 11083.00
1442.695, 11097.00
1443.746, 11191.00
1444.797, 11231.00
1445.847, 11226.00
1446.898, 11163.00
1447.948, 11249.00
1448.998, 11210.00
1450.048, 11316.00
1451.098, 11316.00
1452.147, 11223.00
1453.197, 11237.00
1454.246, 11341.00
1455.296, 11337.00
1456.345, 11286.00
1457.394, 11310.00
1458.443, 11116.00
1459.491, 11252.00
1460.540, 11163.00
1461.588, 11315.00
1462.637, 11313.00
1463.685, 11187.00
1464.733, 11281.00
1465.781, 11208.00
1466.829, 11189.00
1467.876, 11345.00
1468.924, 11325.00
1469.971, 11287.00
1471.019, 11293.00
1472.066, 11364.00
1473.113, 11252.00
1474.160, 11340.00
1475.206, 11163.00
1476.253, 11167.00
1477.299, 11341.00
1478.346, 11302.00
1479.392, 11314.00
1480.438, 11218.00
1481.484, 11293.00
1482.529, 11221.00
1483.575, 11179.00
1484.620, 11282.00
1485.666, 11258.00
1486.711, 11286.42
1487.756, 11233.00
1488.801, 11285.00
1489.846, 11291.00
1490.891, 11199.00
1491.935, 11282.00
1492.980, 11238.00
1494.024, 11200.00
1495.068, 11416.00
1496.112, 11231.00
1497.156, 11286.00
1498.200, 11199.00
1499.243, 11386.00
1500.287, 11261.00
1501.330, 11293.00
1502.373, 11341.00
1503.416, 11151.00
1504.459, 11343.00
1505.502, 11275.00
1506.545, 11371.00
1507.587, 11523.00
1508.630, 11303.00
1509.672, 11375.00
1510.714, 11295.00
1511.756, 11468.00
1512.798, 11325.00
1513.840, 11504.00
1514.881, 11522.00
1515.923, 11181.00
1516.964, 11355.00
1518.005, 11479.00
1519.046, 11367.00
1520.087, 11532.00
1521.128, 11395.00
1522.169, 11384.00
1523.209, 11360.00
1524.249, 11503.00
1525.290, 11424.00
1526.330, 11496.00
1527.370, 11578.00
1528.410, 11471.00
1529.449, 11497.00
1530.489, 11424.00
1531.528, 11452.00
1532.568, 11496.00
1533.607, 11438.00
1534.646, 11451.00
1535.685, 11522.00
1536.724, 11548.00
1537.762, 11618.00
1538.801, 11583.00
1539.839, 11489.00
1540.878, 11589.00
1541.916, 11538.00
1542.954, 11575.00
1543.992, 11627.00
1545.029, 11591.00
1546.067, 11560.00
1547.104, 11562.00
1548.142, 11614.00
1549.179, 11581.00
1550.216, 11461.00
1551.253, 11714.00
1552.290, 11607.00
1553.326, 11517.00
1554.363, 11620.00
1555.399, 11590.00
1556.436, 11607.00
1557.472, 11666.00
1558.508, 11544.00
1559.544, 11572.00
1560.579, 11638.00
1561.615, 11516.00
1562.651, 11530.00
1563.686, 11494.00
1564.721, 11619.00
1565.756, 11631.00
1566.791, 11665.00
1567.826, 11683.00
1568.861, 11582.00
1569.895, 11646.00
1570.930, 11632.62
1571.964, 11708.00
1572.998, 11676.00
1574.032, 11698.00
1575.066, 11731.00
1576.100, 11683.00
1577.134, 11739.00
1578.167, 11819.00
##END=



