##NAMES=Yukonite
##RRUFFID=X100001
##IDEAL CHEMISTRY=Ca_7_Fe^3+^_15_(As^5+^O_4_)_9_O_16_&#183;25H_2_O
##LOCALITY=Tagish Lake, Yukon, Canada
##OWNER=M. A. Gomez, L. Becze and G.P. Demopoulos of McGill University
##SOURCE=Geological Survey of Canada
##DESCRIPTION=Single homogeneous crystals. Sample and data are from Gomez et al (2010).
##STATUS=The identification of this mineral has been confirmed by X-ray diffraction and chemical analysis
##URL=rruff.info/X100001
146.8660, 5527.070
148.6290, 5714.140
150.3910, 5780.730
152.1540, 5766.470
153.9160, 5891.280
155.6770, 6040.290
157.4380, 6064.410
159.1990, 6180.860
160.9590, 6244.810
162.7190, 6304.520
164.4790, 6409.730
166.2380, 6500.780
167.9960, 6397.070
169.7540, 6435.540
171.5120, 6533.770
173.2700, 6513.940
175.0270, 6607.970
176.7830, 6749.010
178.5390, 6767.660
180.2950, 6763.540
182.0510, 6669.670
183.8060, 6572.900
185.5600, 6642.840
187.3140, 6476.170
189.0680, 6382.140
190.8210, 6144.020
192.5740, 6052.730
194.3270, 5984.220
196.0790, 5854.300
197.8310, 5892.780
199.5820, 5879.870
201.3330, 5818.390
203.0830, 5744.030
204.8330, 5773.940
206.5830, 5545.190
208.3320, 5605.080
210.0810, 5707.900
211.8300, 5553.340
213.5780, 5719.130
215.3250, 5668.950
217.0730, 5842.000
218.8190, 5910.640
220.5660, 5876.210
222.3120, 5979.260
224.0570, 5953.420
225.8030, 6099.520
227.5470, 5951.880
229.2920, 6089.440
231.0360, 6132.440
232.7790, 6242.850
234.5230, 6288.770
236.2650, 6293.090
238.0080, 6290.250
239.7500, 6419.460
241.4910, 6311.820
243.2330, 6244.350
244.9730, 6346.350
246.7140, 6497.250
248.4540, 6314.800
250.1930, 6304.760
251.9320, 6362.290
253.6710, 6191.190
255.4100, 6194.060
257.1470, 6313.470
258.8850, 6358.110
260.6220, 6192.600
262.3590, 6162.350
264.0950, 6147.940
265.8310, 6237.230
267.5670, 6271.810
269.3020, 6152.200
271.0370, 6143.530
272.7710, 6182.440
274.5050, 6175.220
276.2390, 6165.100
277.9720, 6084.290
279.7040, 6045.290
281.4370, 6023.590
283.1690, 5923.910
284.9000, 6017.700
286.6310, 5961.320
288.3620, 5922.240
290.0920, 5990.080
291.8220, 6081.080
293.5520, 6057.910
295.2810, 6040.510
297.0100, 5962.340
298.7380, 5957.930
300.4660, 5949.180
302.1940, 5985.290
303.9210, 5846.230
305.6480, 5847.580
307.3740, 5675.110
309.1000, 5666.280
310.8250, 5784.970
312.5510, 5780.500
314.2750, 5781.830
316.0000, 5691.810
317.7240, 5685.870
319.4470, 5708.940
321.1700, 5707.350
322.8930, 5787.050
324.6160, 5667.880
326.3380, 5666.280
328.0590, 5660.330
329.7800, 5663.080
331.5010, 5859.110
333.2220, 5754.350
334.9420, 5918.510
336.6610, 5902.420
338.3800, 5896.500
340.0990, 5870.220
341.8180, 5983.620
343.5360, 5960.250
345.2530, 5955.800
346.9700, 5962.990
348.6870, 6105.650
350.4040, 6130.360
352.1200, 6090.970
353.8350, 6284.760
355.5510, 6318.280
357.2660, 6287.650
358.9800, 6481.620
360.6940, 6432.050
362.4080, 6575.070
364.1210, 6735.670
365.8340, 6775.170
367.5470, 6949.030
369.2590, 7004.670
370.9700, 7050.100
372.6820, 7162.770
374.3930, 7488.880
376.1030, 7481.830
377.8130, 7692.640
379.5230, 8035.180
381.2320, 8193.550
382.9410, 8359.310
384.6500, 8618.810
386.3580, 8720.330
388.0660, 8766.260
389.7730, 9106.580
391.4800, 9042.750
393.1870, 9018.450
394.8930, 8989.750
396.5990, 8798.310
398.3040, 8619.980
400.0090, 8346.240
401.7140, 8279.210
403.4180, 7840.940
405.1220, 7735.600
406.8260, 7606.730
408.5290, 7332.440
410.2320, 7131.460
411.9340, 6970.040
413.6360, 6904.050
415.3370, 6773.370
417.0390, 6620.580
418.7390, 6588.280
420.4400, 6595.670
422.1400, 6451.560
423.8390, 6282.370
425.5380, 6283.810
427.2370, 6223.420
428.9360, 6329.380
430.6340, 6173.260
432.3310, 6174.670
434.0290, 6255.640
435.7250, 6124.450
437.4220, 6192.180
439.1180, 6074.170
440.8140, 6091.790
442.5090, 6118.250
444.2040, 6058.080
445.8980, 5997.910
447.5930, 5937.760
449.2860, 5877.630
450.9800, 5817.510
452.6730, 5757.400
454.3650, 5822.240
456.0580, 5825.050
457.7490, 5748.040
459.4410, 5832.150
461.1320, 5743.280
462.8230, 5709.090
464.5130, 5803.600
466.2030, 5723.540
467.8920, 5718.930
469.5810, 5695.070
471.2700, 5851.840
472.9590, 5789.490
474.6470, 5684.150
476.3340, 5768.430
478.0210, 5716.390
479.7080, 5708.800
481.3950, 5831.690
483.0810, 5827.090
484.7660, 5770.560
486.4520, 5743.690
488.1360, 5624.780
489.8210, 5692.870
491.5050, 5609.530
493.1890, 5541.010
494.8720, 5490.280
496.5550, 5473.710
498.2380, 5241.630
499.9200, 5297.820
501.6020, 5258.890
503.2830, 5216.960
504.9640, 5179.470
506.6450, 5113.700
508.3250, 5073.190
510.0050, 5047.560
511.6850, 4989.150
513.3640, 5069.220
515.0430, 5006.320
516.7210, 4889.760
518.3990, 4872.990
520.0770, 4921.800
521.7540, 4900.560
523.4310, 5035.880
525.1070, 4963.940
526.7830, 5178.410
528.4590, 5143.780
530.1340, 5256.890
531.8090, 5344.680
533.4840, 5525.090
535.1580, 5484.520
536.8320, 5470.830
538.5050, 5461.610
540.1780, 5513.670
541.8510, 5425.230
543.5230, 5339.730
545.1950, 5309.540
546.8670, 5188.070
548.5380, 4928.890
550.2080, 5049.750
551.8790, 4995.500
553.5490, 4677.710
555.2180, 4687.750
556.8880, 4586.950
558.5570, 4420.180
560.2250, 4349.240
561.8930, 4350.230
563.5610, 4355.720
565.2280, 4272.720
566.8950, 4263.190
568.5620, 4217.650
570.2280, 4178.080
571.8940, 4176.030
573.5590, 4116.920
575.2240, 4171.920
576.8890, 4133.810
578.5530, 4188.830
580.2170, 4146.200
581.8810, 4084.010
583.5440, 4014.280
585.2070, 3952.030
586.8690, 3973.980
588.5310, 4000.460
590.1930, 3971.270
591.8540, 4136.230
593.5150, 4034.790
595.1760, 3973.970
596.8360, 4003.490
598.4960, 4081.230
600.1550, 4149.960
601.8140, 4063.480
603.4730, 4133.750
605.1310, 4139.210
606.7890, 4036.080
608.4470, 4052.080
610.1040, 4125.430
611.7610, 4124.850
613.4170, 4118.240
615.0730, 4149.370
616.7290, 4272.640
618.3840, 4160.310
620.0390, 4129.520
621.6940, 4186.370
623.3480, 4311.280
625.0020, 4248.750
626.6550, 4346.500
628.3080, 4182.600
629.9610, 4256.170
631.6130, 4249.570
633.2650, 4274.750
634.9170, 4358.990
636.5680, 4197.930
638.2190, 4260.980
639.8690, 4287.700
641.5190, 4370.500
643.1690, 4368.460
644.8180, 4377.030
646.4670, 4465.970
648.1160, 4347.150
649.7640, 4360.270
651.4120, 4368.840
653.0590, 4391.080
654.7060, 4370.820
656.3530, 4379.400
657.9990, 4266.470
659.6450, 4437.580
661.2910, 4511.520
662.9360, 4471.500
664.5810, 4466.430
666.2250, 4345.790
667.8700, 4486.700
669.5130, 4425.340
671.1570, 4545.020
672.8000, 4644.970
674.4420, 4537.940
676.0850, 4679.040
677.7270, 4696.850
679.3680, 4696.390
681.0090, 4741.630
682.6500, 4779.280
684.2900, 4804.740
685.9300, 4872.910
687.5700, 4928.910
689.2090, 4833.920
690.8480, 4905.200
692.4870, 4965.820
694.1250, 5003.570
695.7630, 5052.030
697.4000, 5039.420
699.0380, 5135.260
700.6740, 5104.330
702.3110, 5096.310
703.9470, 5109.680
705.5820, 5179.630
707.2170, 5102.810
708.8520, 5019.840
710.4870, 5037.790
712.1210, 5095.540
713.7550, 5030.880
715.3880, 5047.320
717.0210, 5019.360
718.6540, 5000.580
720.2860, 4839.320
721.9180, 4932.340
723.5500, 4712.760
725.1810, 4675.490
726.8120, 4648.940
728.4420, 4600.910
730.0720, 4603.480
731.7020, 4561.550
733.3320, 4496.590
734.9610, 4459.220
736.5890, 4389.600
738.2170, 4353.730
739.8450, 4363.920
741.4730, 4200.510
743.1000, 4307.490
744.7270, 4342.270
746.3530, 4169.510
747.9790, 4202.740
749.6050, 4209.840
751.2310, 4161.550
752.8560, 4257.890
754.4800, 4191.130
756.1040, 4176.670
757.7280, 4328.510
759.3520, 4357.210
760.9750, 4412.100
762.5980, 4345.290
764.2200, 4414.080
765.8420, 4452.070
767.4640, 4564.090
769.0850, 4680.780
770.7060, 4572.300
772.3270, 4773.910
773.9470, 4810.480
775.5670, 4851.690
777.1870, 4835.800
778.8060, 4830.700
780.4250, 4921.380
782.0430, 5022.910
783.6610, 5042.580
785.2790, 4958.690
786.8960, 5066.480
788.5130, 5138.750
790.1300, 5078.030
791.7460, 5189.010
793.3620, 5197.910
794.9780, 5110.850
796.5930, 5149.150
798.2080, 5373.280
799.8220, 5368.290
801.4360, 5380.340
803.0500, 5542.690
804.6640, 5605.930
806.2770, 5672.290
807.8890, 5806.910
809.5020, 5761.680
811.1130, 6076.330
812.7250, 6090.100
814.3360, 6159.750
815.9470, 6303.930
817.5580, 6550.660
819.1680, 6783.530
820.7780, 7007.170
822.3870, 7087.980
823.9960, 7234.090
825.6050, 7498.390
827.2130, 7664.870
828.8210, 7864.080
830.4290, 7774.070
832.0360, 7978.050
833.6430, 7956.490
835.2490, 7945.820
836.8560, 7921.130
838.4610, 7734.480
840.0670, 7677.020
841.6720, 7748.830
843.2770, 7710.050
844.8810, 7699.300
846.4850, 7763.380
848.0890, 7643.490
849.6920, 7649.870
851.2950, 7804.450
852.8980, 7709.450
854.5000, 7797.010
856.1020, 7834.650
857.7040, 7669.330
859.3050, 7817.840
860.9060, 7539.980
862.5060, 7440.100
864.1060, 7318.310
865.7060, 7060.460
867.3050, 6872.860
868.9040, 6757.110
870.5030, 6233.070
872.1010, 6123.380
873.6990, 5890.020
875.2970, 5634.640
876.8940, 5499.690
878.4910, 5233.150
880.0880, 5005.650
881.6840, 5060.030
883.2800, 4926.400
884.8750, 4662.630
886.4700, 4626.040
888.0650, 4460.870
889.6590, 4397.560
891.2540, 4357.750
892.8470, 4190.840
894.4410, 4194.910
896.0340, 4087.530
897.6260, 3983.250
899.2190, 3889.910
900.8100, 3942.610
902.4020, 3905.780
903.9930, 3881.500
905.5840, 3753.480
907.1750, 3806.190
908.7650, 3737.850
910.3550, 3658.460
911.9440, 3706.470
913.5330, 3628.620
915.1220, 3572.760
916.7100, 3494.840
918.2990, 3512.940
919.8860, 3412.920
921.4740, 3421.560
923.0610, 3360.870
924.6470, 3274.930
926.2330, 3113.300
927.8190, 3028.850
929.4050, 3102.060
930.9900, 3153.230
932.5750, 3147.620
934.1600, 3006.290
935.7440, 2951.710
937.3280, 3010.780
938.9110, 2957.750
940.4940, 2911.030
942.0770, 2884.810
943.6590, 2887.030
945.2420, 2955.640
946.8230, 2870.920
948.4050, 3012.290
949.9860, 2954.440
951.5660, 2855.430
953.1470, 2881.380
954.7270, 2837.710
956.3060, 2907.990
957.8860, 3000.470
959.4640, 2912.440
961.0430, 3003.380
962.6210, 2878.880
964.1990, 2915.960
965.7770, 2935.630
967.3540, 2887.130
968.9310, 3014.640
970.5070, 2945.510
972.0830, 2954.100
973.6590, 2978.550
975.2340, 2925.250
976.8100, 2968.760
978.3840, 2936.070
979.9590, 2933.540
981.5330, 2978.670
983.1060, 2977.740
984.6800, 3053.100
986.2530, 2918.650
987.8250, 3003.570
989.3980, 3005.830
990.9700, 3011.260
992.5410, 2997.610
994.1120, 2956.890
995.6830, 3032.360
997.2540, 2955.020
998.8240, 2993.890
1000.390, 2954.730
1001.960, 3007.960
1003.530, 2930.540
1005.100, 3093.760
1006.670, 2981.260
1008.240, 3069.620
1009.810, 2996.930
1011.370, 3080.550
1012.940, 3012.610
1014.510, 2992.530
1016.070, 2996.380
1017.640, 3022.590
1019.210, 3002.500
1020.770, 2939.260
1022.340, 2976.660
1023.900, 3065.210
1025.460, 3000.350
1027.030, 2994.620
1028.590, 3043.260
1030.160, 2992.740
1031.720, 3006.200
1033.280, 3006.860
1034.840, 2917.890
1036.410, 3017.800
1037.970, 3000.850
1039.530, 2961.470
1041.090, 3000.570
1042.650, 3055.710
1044.210, 2995.480
1045.770, 3063.470
1047.330, 3062.540
1048.890, 2978.210
1050.450, 3023.790
1052.010, 3035.680
1053.560, 3018.700
1055.120, 3048.260
1056.680, 3024.850
1058.240, 3125.080
1059.790, 3108.100
1061.350, 3076.650
1062.910, 3125.530
1064.460, 3050.680
1066.020, 3117.260
1067.570, 3007.000
1069.130, 3068.780
1070.680, 3061.410
1072.230, 3110.350
1073.790, 3094.940
1075.340, 3134.260
1076.890, 3083.420
1078.450, 3156.570
1080.000, 3123.440
1081.550, 3204.690
1083.100, 3173.160
1084.650, 3144.840
1086.210, 3110.070
1087.760, 3149.450
1089.310, 3188.860
1090.860, 3183.100
1092.410, 3140.230
1093.960, 3223.240
1095.500, 3228.790
1097.050, 3177.830
1098.600, 3214.060
1100.150, 3242.230
1101.700, 3246.170
1103.240, 3156.380
1104.790, 3197.480
1106.340, 3186.870
1107.880, 3268.430
1109.430, 3181.800
1110.970, 3208.380
1112.520, 3200.990
1114.060, 3174.180
1115.610, 3257.440
1117.150, 3214.440
1118.700, 3174.650
1120.240, 3167.240
1121.780, 3190.620
1123.330, 3181.600
1124.870, 3114.210
1126.410, 3199.210
1127.950, 3081.520
1129.490, 3143.840
1131.040, 3219.160
1132.580, 3137.100
1134.120, 3220.570
1135.660, 3076.780
1137.200, 3228.480
1138.740, 3225.940
1140.270, 3208.770
1141.810, 3188.350
1143.350, 3163.040
1144.890, 3219.010
1146.430, 3169.310
1147.970, 3205.780
1149.500, 3136.530
1151.040, 3127.450
1152.580, 3268.110
1154.110, 3127.200
1155.650, 3217.430
1157.180, 3143.220
1158.720, 3166.710
1160.250, 3208.140
1161.790, 3127.360
1163.320, 3203.020
1164.850, 3220.030
1166.390, 3250.090
1167.920, 3257.320
1169.450, 3088.360
1170.990, 3144.520
1172.520, 3079.920
1174.050, 3181.810
1175.580, 3190.670
1177.110, 3158.700
1178.640, 3216.570
1180.170, 3182.960
1181.700, 3057.810
1183.230, 3179.440
1184.760, 3135.990
1186.290, 3249.520
1187.820, 3137.360
1189.350, 3185.490
1190.880, 3083.090
1192.400, 3132.870
1193.930, 3102.450
1195.460, 3191.550
1196.980, 3095.610
1198.510, 3183.120
1200.040, 3119.910
1201.560, 3225.480
1203.090, 3149.140
1204.610, 3184.260
1206.140, 3089.830
1207.660, 3124.950
1209.190, 3184.700
1210.710, 3270.730
1212.230, 3172.960
1213.760, 3216.340
1215.280, 3238.380
1216.800, 3196.380
1218.320, 3141.220
1219.850, 3230.640
1221.370, 3137.660
1222.890, 3187.660
1224.410, 3147.250
1225.930, 3172.610
1227.450, 3130.530
1228.970, 3213.480
1230.490, 3187.850
1232.010, 3091.420
1233.530, 3213.930
1235.040, 3191.580
1236.560, 3241.690
1238.080, 3191.320
1239.600, 3190.360
1241.110, 3230.620
1242.630, 3229.670
1244.150, 3205.640
1245.660, 3183.250
1247.180, 3282.920
1248.690, 3220.930
1250.210, 3203.480
1251.720, 3214.080
1253.240, 3254.410
1254.750, 3250.160
1256.270, 3326.850
1257.780, 3193.750
1259.290, 3227.490
1260.810, 3223.230
1262.320, 3243.770
1263.830, 3307.320
1265.340, 3230.300
1266.850, 3320.340
1268.370, 3231.700
1269.880, 3300.260
1271.390, 3282.770
1272.900, 3295.070
1274.410, 3262.670
1275.920, 3303.130
1277.430, 3421.490
1278.930, 3370.860
1280.440, 3263.840
1281.950, 3342.480
1283.460, 3374.710
1284.970, 3355.540
1286.470, 3298.200
1287.980, 3363.630
1289.490, 3414.160
1290.990, 3443.120
1292.500, 3384.090
1294.000, 3481.150
1295.510, 3400.510
1297.010, 3471.030
1298.520, 3456.830
1300.020, 3442.610
1301.530, 3509.870
1303.030, 3462.400
1304.530, 3491.430
1306.040, 3532.120
1307.540, 3564.500
1309.040, 3526.990
1310.540, 3544.400
1312.050, 3535.180
1313.550, 3565.920
1315.050, 3576.690
1316.550, 3512.480
1318.050, 3584.910
1319.550, 3515.670
1321.050, 3599.800
1322.550, 3528.870
1324.050, 3593.020
1325.550, 3550.420
1327.040, 3581.220
1328.540, 3553.620
1330.040, 3713.000
1331.540, 3506.730
1333.040, 3560.940
1334.530, 3613.500
1336.030, 3627.650
1337.520, 3611.720
1339.020, 3778.000
1340.520, 3663.440
1342.010, 3692.670
1343.510, 3589.750
1345.000, 3644.070
1346.490, 3629.800
1347.990, 3617.190
1349.480, 3606.250
1350.980, 3658.940
1352.470, 3626.240
1353.960, 3625.340
1355.450, 3678.070
1356.950, 3638.640
1358.440, 3657.870
1359.930, 3638.540
1361.420, 3687.960
1362.910, 3757.530
1364.400, 3696.260
1365.890, 3603.080
1367.380, 3751.580
1368.870, 3782.610
1370.360, 3811.970
1371.850, 3824.550
1373.340, 3780.020
1374.820, 3669.930
1376.310, 3748.030
1377.800, 3821.130
1379.290, 3763.100
1380.770, 3768.960
1382.260, 3737.810
1383.750, 3891.730
1385.230, 3842.080
1386.720, 3964.100
1388.200, 3892.560
1389.690, 3802.470
1391.170, 3836.970
1392.660, 3814.210
1394.140, 3820.090
1395.620, 3900.130
1397.110, 3933.000
1398.590, 3928.790
1400.070, 3796.400
1401.550, 3878.190
1403.040, 3799.720
1404.520, 3954.120
1406.000, 3779.420
1407.480, 3849.450
1408.960, 3865.480
1410.440, 3889.960
1411.920, 3851.940
1413.400, 3935.570
1414.880, 3813.030
1416.360, 3851.050
1417.840, 3848.490
1419.320, 3928.810
1420.800, 3804.470
1422.270, 3817.140
1423.750, 3785.800
1425.230, 3911.880
1426.700, 3961.820
1428.180, 3910.180
1429.660, 3866.980
1431.130, 3874.580
1432.610, 3926.250
1434.080, 3893.200
1435.560, 3899.120
1437.030, 3815.180
1438.510, 3866.880
1439.980, 3920.300
1441.460, 3883.810
1442.930, 3796.400
1444.400, 3839.650
1445.880, 3901.600
1447.350, 3678.270
1448.820, 3735.120
1450.290, 3630.580
1451.760, 3833.580
1453.240, 3881.990
1454.710, 3716.220
1456.180, 3793.540
1457.650, 3751.830
1459.120, 3722.020
1460.590, 3651.360
1462.060, 3755.950
1463.520, 3772.080
1464.990, 3720.110
1466.460, 3695.360
1467.930, 3781.320
1469.400, 3862.200
1470.870, 3672.180
1472.330, 3742.850
1473.800, 3653.300
1475.270, 3698.410
1476.730, 3680.450
1478.200, 3619.820
1479.660, 3738.330
1481.130, 3723.770
1482.590, 3750.170
1484.060, 3749.270
1485.520, 3842.290
1486.990, 3706.470
1488.450, 3710.680
1489.910, 3716.600
1491.380, 3797.730
1492.840, 3861.790
1494.300, 3693.340
1495.760, 3767.670
1497.230, 3799.270
1498.690, 3772.710
1500.150, 3792.340
1501.610, 3788.920
##END=



