##NAMES=Zircon
##RRUFFID=R050286
##IDEAL CHEMISTRY=Zr^4+^SiO_4_
##LOCALITY=Renfrew County, Ontario, Canada
##OWNER=RRUFF
##SOURCE=Marcus Origlieri
##DESCRIPTION=Brownish red prismatic crystal frozen in matrix, associated with apatite
##STATUS=The identification of this mineral has been confirmed by X-ray diffraction and chemical analysis
##URL=rruff.info/R050286
##MEASURED CHEMISTRY=Zr_1.00_Si_1.00_O_4_; trace amounts of Hf
##PIN_ID=L00926
##ORIENTATION=Laser parallel to a* (1 0 0). Fiducial mark perpendicular to laser is parallel to c [0 0 1]
63.41100, 143.0000
64.65300, 150.0000
65.89600, 126.0000
67.13800, 126.0000
68.38000, 136.0000
69.62200, 139.0000
70.86300, 127.0000
72.10500, 128.0000
73.34600, 145.0000
74.58700, 169.0000
75.82800, 136.0000
77.06900, 180.0000
78.30900, 161.9469
79.55000, 163.7290
80.79000, 156.0000
82.03000, 163.0000
83.27000, 177.0000
84.51000, 180.0000
85.74900, 170.0000
86.98900, 191.0000
88.22800, 245.0000
89.46700, 225.0000
90.70600, 301.0000
91.94400, 322.0000
93.18300, 396.0000
94.42100, 484.0000
95.65900, 535.0000
96.89700, 679.0000
98.13500, 783.0000
99.37300, 931.0000
100.6100, 1088.000
101.8480, 1278.000
103.0850, 1475.358
104.3220, 1677.000
105.5590, 1941.000
106.7950, 2210.000
108.0320, 2512.000
109.2680, 2798.000
110.5040, 3065.000
111.7400, 3299.000
112.9760, 3665.000
114.2120, 3858.000
115.4470, 4114.000
116.6820, 4534.000
117.9170, 4726.000
119.1520, 4887.000
120.3870, 4930.000
121.6220, 4961.000
122.8560, 5122.000
124.0900, 5157.000
125.3240, 5278.000
126.5580, 5547.000
127.7920, 5543.272
129.0260, 5703.479
130.2590, 5638.000
131.4920, 5898.000
132.7250, 5891.000
133.9580, 5990.000
135.1910, 6157.000
136.4230, 6327.000
137.6560, 6205.000
138.8880, 6385.000
140.1200, 6349.000
141.3520, 6386.000
142.5830, 6550.000
143.8150, 6401.000
145.0460, 6567.000
146.2770, 6499.000
147.5080, 6530.000
148.7390, 6697.000
149.9700, 6773.000
151.2000, 6814.383
152.4310, 6809.000
153.6610, 6888.000
154.8910, 6826.000
156.1210, 6853.000
157.3500, 6933.000
158.5800, 6934.000
159.8090, 6977.000
161.0380, 7061.000
162.2670, 7150.000
163.4960, 7190.000
164.7240, 7209.000
165.9530, 7181.000
167.1810, 7144.000
168.4090, 7158.000
169.6370, 7142.000
170.8650, 7139.000
172.0920, 7159.000
173.3200, 7147.000
174.5470, 7220.000
175.7740, 7209.000
177.0010, 7219.000
178.2280, 7099.000
179.4540, 7213.000
180.6810, 7139.000
181.9070, 7159.000
183.1330, 7264.000
184.3590, 7211.000
185.5850, 7313.000
186.8100, 7166.000
188.0350, 7209.000
189.2610, 7266.000
190.4860, 7431.000
191.7110, 7410.000
192.9350, 7458.000
194.1600, 7486.000
195.3840, 7633.000
196.6080, 7733.000
197.8320, 7675.000
199.0560, 7868.000
200.2800, 7898.000
201.5030, 8071.000
202.7270, 8170.000
203.9500, 8123.000
205.1730, 8273.000
206.3950, 8051.000
207.6180, 8056.500
208.8410, 7867.000
210.0630, 7889.000
211.2850, 7915.000
212.5070, 7845.000
213.7290, 7942.000
214.9500, 8201.000
216.1720, 8991.000
217.3930, 9444.000
218.6140, 9419.000
219.8350, 8729.000
221.0560, 8554.000
222.2770, 8567.000
223.4970, 8754.000
224.7170, 8823.000
225.9370, 8872.000
227.1570, 8818.000
228.3770, 8564.000
229.5970, 8423.000
230.8160, 8342.000
232.0350, 8084.000
233.2540, 8017.000
234.4730, 7879.000
235.6920, 7713.000
236.9110, 7720.000
238.1290, 7733.000
239.3470, 7795.000
240.5650, 7735.000
241.7830, 7669.000
243.0010, 7680.000
244.2180, 7594.000
245.4360, 7787.000
246.6530, 7635.000
247.8700, 7697.000
249.0870, 7701.000
250.3040, 7657.000
251.5200, 7732.000
252.7370, 7694.000
253.9530, 7599.000
255.1690, 7712.000
256.3850, 7709.000
257.6000, 7741.000
258.8160, 7732.000
260.0310, 7649.000
261.2460, 7687.000
262.4610, 7740.000
263.6760, 7659.000
264.8910, 7691.000
266.1050, 7640.000
267.3200, 7713.000
268.5340, 7766.000
269.7480, 7597.000
270.9620, 7741.000
272.1750, 7878.000
273.3890, 7749.000
274.6020, 7797.000
275.8150, 7928.000
277.0280, 7798.000
278.2410, 7933.000
279.4540, 7924.000
280.6660, 7832.000
281.8790, 7802.000
283.0910, 7915.000
284.3030, 7982.000
285.5140, 7928.000
286.7260, 7980.000
287.9380, 7997.000
289.1490, 7875.000
290.3600, 7942.000
291.5710, 8068.000
292.7820, 7968.000
293.9920, 8019.000
295.2030, 7978.000
296.4130, 8022.000
297.6230, 8018.000
298.8330, 8030.868
300.0430, 8052.259
301.2520, 8065.000
302.4620, 8077.000
303.6710, 8083.000
304.8800, 8084.000
306.0890, 8053.000
307.2980, 8205.000
308.5070, 8084.000
309.7150, 8238.000
310.9230, 8193.000
312.1310, 8198.000
313.3390, 8293.000
314.5470, 8334.000
315.7550, 8346.000
316.9620, 8350.000
318.1690, 8459.000
319.3760, 8385.000
320.5830, 8399.000
321.7900, 8517.000
322.9960, 8465.000
324.2030, 8610.000
325.4090, 8418.000
326.6150, 8536.000
327.8210, 8680.000
329.0270, 8611.000
330.2320, 8677.000
331.4380, 8659.000
332.6430, 8712.000
333.8480, 8815.000
335.0530, 8895.000
336.2580, 8943.000
337.4620, 9106.000
338.6670, 9089.000
339.8710, 9259.000
341.0750, 9295.000
342.2790, 9602.000
343.4820, 9793.000
344.6860, 9942.000
345.8890, 10282.00
347.0920, 10640.00
348.2960, 10970.00
349.4980, 11342.00
350.7010, 11617.00
351.9040, 12141.00
353.1060, 12202.00
354.3080, 12533.00
355.5100, 12751.00
356.7120, 12751.00
357.9140, 12546.00
359.1150, 12148.00
360.3170, 12223.00
361.5180, 11368.00
362.7190, 10906.00
363.9200, 10665.00
365.1200, 10185.00
366.3210, 9910.000
367.5210, 9803.000
368.7210, 9663.000
369.9210, 9605.000
371.1210, 9522.000
372.3210, 9393.000
373.5200, 9460.000
374.7200, 9417.000
375.9190, 9240.000
377.1180, 9261.000
378.3170, 9271.000
379.5150, 9235.000
380.7140, 9276.000
381.9120, 9248.128
383.1110, 9182.000
384.3090, 9244.000
385.5060, 9246.000
386.7040, 9295.000
387.9020, 9255.000
389.0990, 9333.000
390.2960, 9233.000
391.4930, 9289.000
392.6900, 9396.000
393.8860, 9302.000
395.0830, 9386.000
396.2790, 9452.000
397.4750, 9394.000
398.6710, 9492.000
399.8670, 9532.000
401.0630, 9578.000
402.2580, 9464.000
403.4540, 9594.000
404.6490, 9569.000
405.8440, 9545.000
407.0390, 9693.000
408.2330, 9763.000
409.4280, 9853.000
410.6220, 9880.000
411.8160, 9915.000
413.0100, 9949.000
414.2040, 10037.27
415.3980, 10134.34
416.5910, 10253.00
417.7850, 10397.00
418.9780, 10554.00
420.1710, 10716.00
421.3640, 10893.33
422.5560, 11142.00
423.7490, 11339.00
424.9410, 11641.00
426.1330, 12031.00
427.3250, 12355.00
428.5170, 13043.00
429.7090, 13522.00
430.9000, 14452.00
432.0910, 15283.00
433.2820, 16641.00
434.4730, 17525.00
435.6640, 18067.00
436.8550, 18900.00
438.0450, 19431.00
439.2360, 19857.00
440.4260, 19784.00
441.6160, 19071.00
442.8060, 18145.00
443.9950, 16918.00
445.1850, 15856.00
446.3740, 14831.00
447.5630, 13698.00
448.7520, 12958.00
449.9410, 12449.00
451.1300, 11649.00
452.3180, 11232.00
453.5060, 10989.00
454.6950, 10826.00
455.8830, 10515.00
457.0700, 10357.00
458.2580, 10335.00
459.4450, 10058.00
460.6330, 10151.00
461.8200, 9910.000
463.0070, 9917.000
464.1940, 9817.000
465.3800, 9862.000
466.5670, 9701.000
467.7530, 9787.000
468.9390, 9740.000
470.1250, 9791.000
471.3110, 9661.000
472.4970, 9617.000
473.6820, 9548.000
474.8680, 9548.000
476.0530, 9590.000
477.2380, 9524.000
478.4230, 9574.000
479.6070, 9537.499
480.7920, 9496.000
481.9760, 9482.000
483.1600, 9491.000
484.3440, 9458.000
485.5280, 9623.000
486.7120, 9483.257
487.8950, 9359.000
489.0780, 9320.000
490.2620, 9448.000
491.4450, 9438.000
492.6270, 9409.000
493.8100, 9536.000
494.9920, 9487.000
496.1750, 9497.576
497.3570, 9489.000
498.5390, 9514.000
499.7210, 9507.233
500.9020, 9519.000
502.0840, 9492.000
503.2650, 9493.293
504.4460, 9532.000
505.6270, 9479.000
506.8080, 9526.000
507.9890, 9528.000
509.1690, 9480.000
510.3500, 9495.000
511.5300, 9529.000
512.7100, 9525.000
513.8900, 9550.367
515.0690, 9568.127
516.2490, 9596.000
517.4280, 9593.000
518.6070, 9641.000
519.7860, 9629.000
520.9650, 9637.000
522.1440, 9681.000
523.3220, 9622.000
524.5010, 9630.000
525.6790, 9496.000
526.8570, 9648.000
528.0350, 9715.000
529.2130, 9540.000
530.3900, 9527.000
531.5670, 9763.000
532.7450, 9531.000
533.9220, 9590.000
535.0980, 9659.000
536.2750, 9522.000
537.4520, 9687.000
538.6280, 9619.000
539.8040, 9556.000
540.9800, 9557.000
542.1560, 9613.000
543.3320, 9661.000
544.5070, 9647.000
545.6830, 9642.000
546.8580, 9583.000
548.0330, 9701.000
549.2080, 9716.000
550.3830, 9735.000
551.5570, 9629.000
552.7310, 9758.000
553.9060, 9644.000
555.0800, 9815.000
556.2540, 9744.000
557.4270, 9711.000
558.6010, 9626.000
559.7740, 9696.000
560.9470, 9627.000
562.1210, 9686.000
563.2930, 9658.000
564.4660, 9754.000
565.6390, 9881.000
566.8110, 9684.000
567.9830, 9724.000
569.1550, 9627.000
570.3270, 9738.000
571.4990, 9740.000
572.6710, 9624.000
573.8420, 9765.000
575.0130, 9743.000
576.1840, 9859.000
577.3550, 9694.000
578.5260, 9909.000
579.6970, 9766.000
580.8670, 9775.000
582.0370, 9912.000
583.2070, 9860.000
584.3770, 9912.000
585.5470, 9934.000
586.7170, 9813.000
587.8860, 9780.000
589.0550, 9831.000
590.2240, 9791.000
591.3930, 9796.000
592.5620, 9785.000
593.7310, 9794.000
594.8990, 9923.000
596.0670, 9820.000
597.2350, 9837.000
598.4030, 9972.000
599.5710, 9794.000
600.7390, 9838.000
601.9060, 9690.000
603.0740, 9969.000
604.2410, 9955.692
605.4080, 10084.00
606.5740, 10084.00
607.7410, 9930.000
608.9080, 9829.000
610.0740, 9955.000
611.2400, 9864.000
612.4060, 9861.000
613.5720, 9879.000
614.7370, 9994.000
615.9030, 9957.000
617.0680, 10080.00
618.2330, 10074.00
619.3980, 10056.00
620.5630, 9985.000
621.7280, 10016.00
622.8920, 10000.00
624.0570, 10020.12
625.2210, 10153.00
626.3850, 10081.00
627.5490, 10171.00
628.7120, 10185.00
629.8760, 10073.00
631.0390, 10165.00
632.2020, 10201.00
633.3650, 10317.00
634.5280, 10104.00
635.6910, 10202.00
636.8530, 10162.00
638.0160, 10236.00
639.1780, 10180.00
640.3400, 10227.00
641.5020, 10171.00
642.6640, 10234.00
643.8250, 10345.00
644.9870, 10209.00
646.1480, 10168.00
647.3090, 10339.00
648.4700, 10207.00
649.6300, 10210.00
650.7910, 10330.00
651.9510, 10329.00
653.1120, 10246.00
654.2720, 10269.00
655.4320, 10242.00
656.5910, 10227.00
657.7510, 10234.00
658.9100, 10252.00
660.0690, 10241.77
661.2290, 10235.27
662.3880, 10216.00
663.5460, 10248.00
664.7050, 10187.00
665.8630, 10287.00
667.0220, 10343.00
668.1800, 10375.00
669.3380, 10373.00
670.4950, 10347.00
671.6530, 10369.95
672.8100, 10327.00
673.9680, 10337.00
675.1250, 10406.00
676.2820, 10299.00
677.4390, 10386.00
678.5950, 10359.00
679.7520, 10458.00
680.9080, 10420.79
682.0640, 10344.00
683.2200, 10378.00
684.3760, 10326.00
685.5320, 10339.00
686.6870, 10384.00
687.8420, 10258.00
688.9980, 10384.00
690.1530, 10255.00
691.3070, 10480.00
692.4620, 10332.00
693.6170, 10470.00
694.7710, 10306.00
695.9250, 10411.00
697.0790, 10448.00
698.2330, 10443.00
699.3870, 10321.00
700.5400, 10449.00
701.6940, 10421.00
702.8470, 10495.00
704.0000, 10555.00
705.1530, 10515.00
706.3050, 10361.00
707.4580, 10544.00
708.6100, 10461.00
709.7630, 10407.00
710.9150, 10447.00
712.0660, 10461.00
713.2180, 10530.00
714.3700, 10499.00
715.5210, 10429.00
716.6720, 10512.00
717.8240, 10491.00
718.9740, 10631.00
720.1250, 10501.00
721.2760, 10450.00
722.4260, 10497.00
723.5770, 10449.00
724.7270, 10547.00
725.8770, 10581.00
727.0260, 10585.00
728.1760, 10609.14
729.3250, 10586.00
730.4750, 10571.00
731.6240, 10572.00
732.7730, 10513.00
733.9220, 10663.00
735.0700, 10659.00
736.2190, 10548.00
737.3670, 10654.00
738.5150, 10514.00
739.6630, 10734.00
740.8110, 10528.00
741.9590, 10625.00
743.1060, 10742.00
744.2540, 10648.00
745.4010, 10631.00
746.5480, 10616.00
747.6950, 10675.00
748.8410, 10717.00
749.9880, 10678.00
751.1340, 10623.00
752.2800, 10716.00
753.4260, 10818.00
754.5720, 10860.00
755.7180, 10772.00
756.8640, 10695.00
758.0090, 10708.00
759.1540, 10703.00
760.2990, 10853.00
761.4440, 10745.00
762.5890, 10784.00
763.7340, 10782.00
764.8780, 10683.00
766.0220, 10747.26
767.1660, 10850.00
768.3100, 10807.00
769.4540, 10831.00
770.5980, 10890.00
771.7410, 10852.00
772.8840, 10902.54
774.0280, 10848.00
775.1700, 10970.00
776.3130, 10888.00
777.4560, 10949.00
778.5980, 10950.00
779.7410, 10845.00
780.8830, 11121.00
782.0250, 10979.00
783.1670, 10959.00
784.3080, 11171.00
785.4500, 11058.00
786.5910, 11088.00
787.7320, 11041.00
788.8730, 11122.00
790.0140, 11134.91
791.1550, 11258.00
792.2950, 11208.00
793.4360, 11353.00
794.5760, 11374.00
795.7160, 11251.00
796.8560, 11243.00
797.9960, 11180.00
799.1350, 11195.00
800.2750, 11122.00
801.4140, 11107.02
802.5530, 11157.00
803.6920, 11130.00
804.8310, 11150.00
805.9690, 11147.82
807.1080, 11129.30
808.2460, 11108.00
809.3840, 11100.00
810.5220, 11026.00
811.6600, 11012.00
812.7970, 11191.00
813.9350, 11029.00
815.0720, 11022.00
816.2090, 11225.00
817.3460, 11141.00
818.4830, 11231.00
819.6200, 11287.00
820.7560, 11273.00
821.8930, 11164.00
823.0290, 11217.00
824.1650, 11268.00
825.3010, 11227.00
826.4360, 11339.00
827.5720, 11330.00
828.7070, 11270.00
829.8420, 11294.00
830.9770, 11193.00
832.1120, 11306.00
833.2470, 11436.00
834.3820, 11250.00
835.5160, 11383.00
836.6500, 11393.00
837.7840, 11356.00
838.9180, 11392.00
840.0520, 11416.00
841.1860, 11387.14
842.3190, 11393.00
843.4520, 11375.00
844.5850, 11376.00
845.7180, 11419.00
846.8510, 11388.00
847.9840, 11504.00
849.1160, 11605.00
850.2490, 11484.00
851.3810, 11371.00
852.5130, 11526.00
853.6450, 11484.00
854.7760, 11468.00
855.9080, 11380.00
857.0390, 11390.00
858.1700, 11465.00
859.3010, 11403.00
860.4320, 11421.00
861.5630, 11490.00
862.6930, 11449.90
863.8240, 11496.05
864.9540, 11476.00
866.0840, 11532.00
867.2140, 11614.00
868.3440, 11629.00
869.4730, 11633.00
870.6030, 11630.75
871.7320, 11635.88
872.8610, 11637.76
873.9900, 11631.00
875.1190, 11661.51
876.2470, 11654.25
877.3760, 11703.00
878.5040, 11613.00
879.6320, 11660.00
880.7600, 11591.00
881.8880, 11626.92
883.0150, 11655.00
884.1430, 11689.00
885.2700, 11686.00
886.3970, 11687.00
887.5240, 11668.00
888.6510, 11664.00
889.7780, 11655.00
890.9040, 11848.00
892.0310, 11706.00
893.1570, 11892.00
894.2830, 11792.00
895.4090, 11816.00
896.5350, 11929.00
897.6600, 11804.00
898.7860, 11852.00
899.9110, 11725.00
901.0360, 11708.00
902.1610, 11774.00
903.2860, 11992.00
904.4100, 11990.00
905.5350, 11941.00
906.6590, 11920.00
907.7830, 11807.00
908.9070, 12018.00
910.0310, 11966.00
911.1540, 12123.00
912.2780, 11962.00
913.4010, 12061.00
914.5240, 12016.00
915.6470, 12046.00
916.7700, 12075.00
917.8930, 12098.00
919.0150, 12104.00
920.1380, 12201.00
921.2600, 12133.00
922.3820, 12078.00
923.5040, 12154.00
924.6260, 12141.00
925.7470, 12111.00
926.8690, 12112.00
927.9900, 12171.00
929.1110, 12221.00
930.2320, 12309.00
931.3530, 12107.00
932.4730, 12355.00
933.5940, 12080.00
934.7140, 12278.00
935.8340, 12198.00
936.9540, 12226.00
938.0740, 12251.00
939.1930, 12199.00
940.3130, 12281.00
941.4320, 12282.00
942.5510, 12421.00
943.6700, 12348.00
944.7890, 12269.00
945.9080, 12393.00
947.0260, 12488.00
948.1450, 12464.00
949.2630, 12609.00
950.3810, 12412.00
951.4990, 12398.00
952.6170, 12385.00
953.7340, 12306.00
954.8520, 12425.00
955.9690, 12366.00
957.0860, 12488.00
958.2030, 12455.00
959.3200, 12379.00
960.4360, 12355.00
961.5530, 12359.21
962.6690, 12206.00
963.7850, 12413.00
964.9010, 12485.00
966.0170, 12549.00
967.1330, 12489.00
968.2480, 12514.00
969.3630, 12565.00
970.4790, 12532.00
971.5940, 12771.00
972.7080, 12791.00
973.8230, 12918.00
974.9380, 12877.00
976.0520, 12835.00
977.1660, 12848.26
978.2800, 12576.00
979.3940, 12733.00
980.5080, 12688.00
981.6220, 12538.00
982.7350, 12732.00
983.8480, 12701.00
984.9610, 12670.00
986.0740, 12543.00
987.1870, 12518.00
988.3000, 12632.00
989.4120, 12703.00
990.5250, 12845.00
991.6370, 12727.00
992.7490, 12781.00
993.8610, 13119.00
994.9720, 13030.98
996.0840, 13291.00
997.1950, 13129.00
998.3060, 13195.00
999.4170, 13213.00
1000.528, 13410.00
1001.639, 13439.00
1002.750, 13593.00
1003.860, 13922.00
1004.970, 13864.00
1006.080, 13971.00
1007.190, 13937.00
1008.300, 13769.88
1009.410, 13674.00
1010.519, 13428.00
1011.628, 13310.00
1012.738, 13266.00
1013.846, 13146.00
1014.955, 13080.00
1016.064, 13051.00
1017.172, 12980.00
1018.281, 13015.00
1019.389, 12921.00
1020.497, 12971.00
1021.605, 12911.00
1022.713, 12975.00
1023.820, 12954.00
1024.928, 12947.72
1026.035, 13052.00
1027.142, 12949.00
1028.249, 12991.00
1029.356, 13021.00
1030.462, 13192.00
1031.569, 13024.00
1032.675, 13211.00
1033.781, 13068.00
1034.887, 13104.00
1035.993, 13166.00
1037.098, 13114.00
1038.204, 13148.00
1039.309, 13094.00
1040.415, 13076.00
1041.520, 13238.00
1042.624, 13144.00
1043.729, 13181.00
1044.834, 13175.00
1045.938, 13423.00
1047.042, 13410.00
1048.146, 13372.00
1049.250, 13296.00
1050.354, 13541.00
1051.458, 13412.00
1052.561, 13662.00
1053.664, 13635.00
1054.767, 13750.00
1055.870, 13613.00
1056.973, 13646.00
1058.076, 13470.00
1059.178, 13449.00
1060.281, 13396.00
1061.383, 13335.00
1062.485, 13349.00
1063.587, 13301.00
1064.688, 13311.00
1065.790, 13383.00
1066.891, 13282.00
1067.993, 13439.00
1069.094, 13407.00
1070.195, 13361.00
1071.295, 13464.00
1072.396, 13322.00
1073.496, 13335.00
1074.597, 13483.00
1075.697, 13462.00
1076.797, 13328.00
1077.897, 13598.00
1078.996, 13595.00
1080.096, 13471.00
1081.195, 13560.00
1082.294, 13605.00
1083.393, 13823.00
1084.492, 13857.00
1085.591, 13678.00
1086.689, 13996.00
1087.788, 14008.00
1088.886, 13828.00
1089.984, 13838.00
1091.082, 13801.00
1092.180, 13746.00
1093.277, 13703.00
1094.375, 13743.00
1095.472, 13686.00
1096.569, 13623.00
1097.666, 13674.00
1098.763, 13581.00
1099.860, 13640.00
1100.956, 13613.00
1102.053, 13794.00
1103.149, 13555.00
1104.245, 13853.00
1105.341, 13609.00
1106.436, 13758.00
1107.532, 13698.00
1108.627, 13734.00
1109.723, 13845.00
1110.818, 13865.00
1111.913, 13856.00
1113.007, 13741.00
1114.102, 13777.00
1115.197, 13765.00
1116.291, 13863.00
1117.385, 13759.00
1118.479, 13802.00
1119.573, 13717.00
1120.666, 13718.00
1121.760, 13741.00
1122.853, 13653.00
1123.947, 13739.00
1125.040, 13739.00
1126.132, 13740.00
1127.225, 13747.00
1128.318, 13742.64
1129.410, 13790.00
1130.502, 13710.00
1131.595, 13750.00
1132.687, 13678.00
1133.778, 13852.00
1134.870, 13814.00
1135.961, 13889.00
1137.053, 13816.00
1138.144, 13813.00
1139.235, 13926.00
1140.326, 13854.00
1141.416, 14041.00
1142.507, 14005.00
1143.597, 13989.00
1144.688, 13975.00
1145.778, 13937.00
1146.868, 13901.00
1147.957, 13900.00
1149.047, 14087.00
1150.136, 14128.00
1151.226, 14112.00
1152.315, 14030.00
1153.404, 14050.04
1154.493, 13938.00
1155.581, 14026.00
1156.670, 13959.00
1157.758, 13972.00
1158.846, 13956.00
1159.934, 13978.00
1161.022, 13958.00
1162.110, 13959.00
1163.198, 13936.12
1164.285, 13977.00
1165.372, 13918.00
1166.459, 13991.00
1167.546, 14078.00
1168.633, 14061.00
1169.720, 13927.00
1170.806, 13994.00
1171.892, 14000.00
1172.979, 14056.00
1174.065, 14112.00
1175.150, 14060.79
1176.236, 14093.10
1177.322, 13988.00
1178.407, 14085.00
1179.492, 14111.00
1180.577, 14137.00
1181.662, 14050.00
1182.747, 14203.00
1183.832, 14169.00
1184.916, 14021.00
1186.000, 14059.00
1187.084, 14142.00
1188.168, 14270.00
1189.252, 14246.00
1190.336, 14252.48
1191.419, 14179.00
1192.503, 14175.00
1193.586, 14266.00
1194.669, 14288.00
1195.752, 14171.00
1196.835, 14145.00
1197.917, 14322.00
1199.000, 14401.00
1200.082, 14240.00
1201.164, 14303.00
1202.246, 14298.00
1203.328, 14214.00
1204.409, 14043.15
1205.491, 14257.46
1206.572, 14387.60
1207.653, 14438.11
1208.734, 14170.51
1209.815, 14313.69
1210.896, 14292.25
1211.976, 14264.03
1213.057, 14465.03
1214.137, 14243.68
1215.217, 14441.02
1216.297, 14471.23
1217.377, 14454.00
1218.456, 14426.00
1219.536, 14487.00
1220.615, 14451.00
1221.694, 14477.00
1222.773, 14582.00
1223.852, 14380.00
1224.931, 14311.00
1226.009, 14507.00
1227.088, 14495.00
1228.166, 14440.00
1229.244, 14562.00
1230.322, 14563.00
1231.400, 14650.00
1232.477, 14610.00
1233.555, 14613.00
1234.632, 14638.00
1235.709, 14667.00
1236.786, 14593.00
1237.863, 14641.00
1238.939, 14627.70
1240.016, 14596.00
1241.092, 14654.00
1242.168, 14681.00
1243.245, 14730.00
1244.320, 14623.00
1245.396, 14657.00
1246.472, 14745.00
1247.547, 14860.00
1248.622, 14702.00
1249.697, 14659.00
1250.772, 14751.00
1251.847, 14713.00
1252.922, 14695.00
1253.996, 14796.00
1255.071, 14697.00
1256.145, 14918.00
1257.219, 14856.00
1258.293, 14753.00
1259.366, 14893.00
1260.440, 14787.00
1261.513, 14962.00
1262.587, 15063.00
1263.660, 14856.00
1264.733, 14909.00
1265.805, 15034.00
1266.878, 14816.00
1267.951, 14936.00
1269.023, 14885.00
1270.095, 14918.00
1271.167, 15053.00
1272.239, 15105.00
1273.311, 15104.00
1274.382, 15087.00
1275.454, 15024.00
1276.525, 15041.00
1277.596, 15035.00
1278.667, 15091.00
1279.738, 15061.00
1280.808, 15047.00
1281.879, 14909.00
1282.949, 14904.00
1284.019, 15039.00
1285.089, 14983.00
1286.159, 15055.00
1287.229, 14965.00
1288.298, 14954.00
1289.368, 14977.00
1290.437, 15109.00
1291.506, 15079.00
1292.575, 15167.00
1293.644, 15201.00
1294.712, 15008.00
1295.781, 15009.00
1296.849, 15065.00
1297.917, 15288.00
1298.985, 15130.00
1300.053, 15239.00
1301.121, 15098.00
1302.188, 15229.00
1303.255, 15274.00
1304.323, 15291.00
1305.390, 15258.00
1306.457, 15207.00
1307.523, 15282.00
1308.590, 15284.00
1309.656, 15396.00
1310.723, 15516.00
1311.789, 15169.00
1312.855, 15281.00
1313.921, 15277.00
1314.986, 15119.00
1316.052, 15382.00
1317.117, 15353.00
1318.182, 15428.00
1319.248, 15358.00
1320.312, 15288.00
1321.377, 15351.00
1322.442, 15384.00
1323.506, 15286.00
1324.571, 15343.00
1325.635, 15320.00
1326.699, 15351.64
1327.762, 15335.00
1328.826, 15421.00
1329.890, 15401.00
1330.953, 15362.00
1332.016, 15508.00
1333.079, 15214.00
1334.142, 15591.00
1335.205, 15494.00
1336.268, 15370.00
1337.330, 15566.00
1338.392, 15575.00
1339.454, 15457.00
1340.516, 15663.00
1341.578, 15638.00
1342.640, 15563.00
1343.701, 15496.00
1344.763, 15695.00
1345.824, 15669.00
1346.885, 15739.00
1347.946, 15682.00
1349.007, 15680.00
1350.067, 15595.00
1351.128, 15664.00
1352.188, 15692.00
1353.248, 15775.00
1354.308, 15728.00
1355.368, 15588.00
1356.428, 15870.00
1357.487, 15689.00
1358.547, 15768.00
1359.606, 15722.00
1360.665, 15686.00
1361.724, 15748.00
1362.783, 15745.00
1363.841, 15785.00
1364.900, 16034.00
1365.958, 15717.00
1367.016, 15933.00
1368.074, 15792.00
1369.132, 15892.00
1370.190, 15847.00
1371.247, 16064.00
1372.304, 15753.00
1373.362, 15976.00
1374.419, 15878.00
1375.476, 16003.00
1376.532, 15980.00
1377.589, 16128.00
1378.645, 16129.00
1379.702, 16003.00
1380.758, 16066.00
1381.814, 16057.00
1382.870, 16002.00
1383.925, 16164.00
1384.981, 16155.00
1386.036, 16160.00
1387.092, 16153.00
1388.147, 16206.00
1389.202, 16050.00
1390.256, 16050.00
1391.311, 16177.00
1392.365, 16067.00
1393.420, 16167.00
1394.474, 16331.00
1395.528, 16063.00
1396.582, 16061.00
1397.636, 16211.00
1398.689, 16218.00
1399.742, 16178.00
1400.796, 16187.00
1401.849, 16303.00
1402.902, 16119.00
1403.955, 16229.00
1405.007, 16348.00
1406.060, 16138.00
1407.112, 16247.00
1408.164, 16266.00
1409.216, 16338.00
1410.268, 16276.00
1411.320, 16281.00
1412.371, 16273.00
1413.423, 16285.00
1414.474, 16345.00
1415.525, 16221.00
1416.576, 16267.00
1417.627, 16526.00
1418.678, 16268.00
1419.728, 16397.00
1420.778, 16326.00
1421.829, 16509.00
1422.879, 16560.00
1423.928, 16333.00
1424.978, 16428.00
1426.028, 16461.00
1427.077, 16565.00
1428.126, 16668.00
1429.176, 16555.00
1430.225, 16768.00
1431.273, 16712.00
1432.322, 16636.00
1433.371, 16770.00
1434.419, 16579.22
1435.467, 16701.38
1436.515, 16781.48
1437.563, 16821.76
1438.611, 16702.97
1439.658, 16789.56
1440.706, 16793.86
1441.753, 16794.76
1442.800, 16910.26
1443.847, 16814.59
1444.894, 16928.27
1445.941, 16958.38
1446.987, 17026.71
1448.034, 17012.25
1449.080, 17023.34
1450.126, 17146.00
1451.172, 17228.00
1452.218, 17592.00
1453.263, 17505.63
1454.309, 17649.44
1455.354, 17440.00
1456.399, 17654.00
1457.444, 17535.00
1458.489, 17348.00
1459.534, 17609.00
1460.579, 17456.00
1461.623, 17592.00
1462.667, 17672.00
1463.711, 17604.00
1464.755, 17548.00
1465.799, 17427.00
1466.843, 17367.00
1467.886, 17393.00
1468.930, 17330.00
1469.973, 17495.00
1471.016, 17451.00
1472.059, 17491.00
1473.101, 17351.00
1474.144, 17259.00
1475.186, 17250.00
1476.229, 17178.00
1477.271, 17263.00
1478.313, 17416.00
1479.355, 17264.00
1480.396, 17321.00
1481.438, 17430.00
1482.479, 17333.00
1483.520, 17394.72
1484.561, 17291.00
1485.602, 17309.00
1486.643, 17317.00
1487.684, 17270.68
1488.724, 17207.00
1489.765, 17272.00
1490.805, 17281.00
1491.845, 17362.00
1492.885, 17261.00
1493.924, 17206.00
1494.964, 17217.00
1496.003, 17173.00
1497.042, 17196.00
1498.082, 17399.00
1499.120, 17407.00
1500.159, 17333.00
1501.198, 17248.00
1502.236, 17332.00
1503.275, 17285.00
1504.313, 17328.00
1505.351, 17422.00
1506.389, 17416.00
1507.427, 17432.37
1508.464, 17316.00
1509.502, 17419.00
1510.539, 17295.00
1511.576, 17308.00
1512.613, 17499.00
1513.650, 17362.00
1514.687, 17203.00
1515.723, 17225.00
1516.759, 17465.00
1517.796, 17363.00
1518.832, 17513.00
1519.868, 17379.00
1520.903, 17272.00
1521.939, 17355.00
1522.975, 17280.00
1524.010, 17304.00
1525.045, 17495.00
1526.080, 17397.00
1527.115, 17397.00
1528.150, 17345.00
1529.184, 17322.00
1530.219, 17342.00
1531.253, 17266.00
1532.287, 17402.00
1533.321, 17338.00
1534.355, 17397.00
1535.388, 17301.00
1536.422, 17476.00
1537.455, 17466.00
1538.488, 17357.00
1539.522, 17525.00
1540.554, 17548.00
1541.587, 17596.00
1542.620, 17488.00
1543.652, 17543.00
1544.685, 17502.00
1545.717, 17396.00
1546.749, 17426.00
1547.781, 17403.14
1548.812, 17444.87
1549.844, 17417.00
1550.875, 17591.00
1551.906, 17571.00
1552.938, 17654.00
1553.968, 17524.00
1554.999, 17523.00
1556.030, 17425.00
1557.060, 17484.00
1558.091, 17619.00
1559.121, 17639.00
1560.151, 17550.00
1561.181, 17814.00
1562.211, 17600.00
1563.240, 17606.00
1564.270, 17721.00
1565.299, 17525.00
1566.328, 17440.00
1567.357, 17549.00
1568.386, 17528.00
1569.415, 17705.00
1570.443, 17654.00
1571.472, 17825.00
1572.500, 17651.00
1573.528, 17589.00
1574.556, 19398.00
1575.584, 19494.00
1576.611, 19706.00
1577.639, 17643.00
1578.666, 17715.00
1579.693, 17616.00
##END=



