##NAMES=Zircon
##RRUFFID=R050203
##IDEAL CHEMISTRY=Zr^4+^SiO_4_
##LOCALITY=Eastern Thailand
##OWNER=RRUFF
##SOURCE=Eric Van Valkenburg
##DESCRIPTION=Dark red water-worn single crystal
##STATUS=The identification of this mineral has been confirmed by X-ray diffraction and chemical analysis
##URL=rruff.info/R050203
##MEASURED CHEMISTRY=(Zr_0.99_Hf_0.01_)_Î£=1_Si_1.00_O_4_
##PIN_ID=L00061
##ORIENTATION=Laser parallel to a* (1 0 0). Fiducial mark perpendicular to laser is parallel to -c [0 0 -1]
63.41100, 24.00000
64.65300, 28.00000
65.89600, 25.00000
67.13800, 17.00000
68.38000, 41.00000
69.62200, 21.00000
70.86300, 26.00000
72.10500, 13.00000
73.34600, 24.00000
74.58700, 21.00000
75.82800, 24.00000
77.06900, 28.00000
78.30900, 35.00000
79.55000, 28.00000
80.79000, 30.00000
82.03000, 33.00000
83.27000, 23.00000
84.51000, 39.00000
85.74900, 38.00000
86.98900, 39.00000
88.22800, 40.00000
89.46700, 42.45032
90.70600, 41.00000
91.94400, 51.00000
93.18300, 49.00000
94.42100, 57.00000
95.65900, 79.00000
96.89700, 64.00000
98.13500, 91.00000
99.37300, 84.00000
100.6100, 124.0000
101.8480, 123.0000
103.0850, 133.0000
104.3220, 166.0000
105.5590, 178.0000
106.7950, 212.0000
108.0320, 211.0000
109.2680, 236.0000
110.5040, 250.0000
111.7400, 251.0000
112.9760, 299.0000
114.2120, 303.0000
115.4470, 346.0000
116.6820, 410.0000
117.9170, 468.0000
119.1520, 475.0000
120.3870, 444.0000
121.6220, 436.8068
122.8560, 443.0000
124.0900, 365.0000
125.3240, 374.0000
126.5580, 360.0000
127.7920, 350.0000
129.0260, 366.0000
130.2590, 382.0000
131.4920, 356.0000
132.7250, 373.0000
133.9580, 383.0000
135.1910, 393.0000
136.4230, 356.0000
137.6560, 377.0000
138.8880, 390.0000
140.1200, 387.0000
141.3520, 413.0000
142.5830, 382.0000
143.8150, 372.0000
145.0460, 387.0000
146.2770, 371.0000
147.5080, 381.0000
148.7390, 386.0000
149.9700, 397.0000
151.2000, 418.0000
152.4310, 388.0000
153.6610, 373.0000
154.8910, 403.0000
156.1210, 387.0000
157.3500, 431.0000
158.5800, 399.0000
159.8090, 396.0000
161.0380, 417.0000
162.2670, 416.0000
163.4960, 402.0000
164.7240, 400.0000
165.9530, 399.0000
167.1810, 432.0000
168.4090, 398.0000
169.6370, 418.0000
170.8650, 415.0000
172.0920, 407.0000
173.3200, 400.0000
174.5470, 413.0000
175.7740, 401.0000
177.0010, 438.0000
178.2280, 409.0000
179.4540, 412.0000
180.6810, 455.0000
181.9070, 415.0000
183.1330, 426.0000
184.3590, 466.0000
185.5850, 418.0000
186.8100, 424.0000
188.0350, 454.0000
189.2610, 423.0000
190.4860, 427.0000
191.7110, 453.0000
192.9350, 469.0000
194.1600, 487.0000
195.3840, 547.0000
196.6080, 563.0000
197.8320, 624.0000
199.0560, 657.0000
200.2800, 718.0000
201.5030, 786.0000
202.7270, 881.0000
203.9500, 1005.000
205.1730, 1117.000
206.3950, 1242.000
207.6180, 1464.000
208.8410, 1706.000
210.0630, 2142.000
211.2850, 2649.000
212.5070, 3119.000
213.7290, 3535.000
214.9500, 4013.000
216.1720, 4013.000
217.3930, 3565.000
218.6140, 3040.000
219.8350, 2483.000
221.0560, 1924.000
222.2770, 1520.000
223.4970, 1290.000
224.7170, 1257.000
225.9370, 1172.000
227.1570, 1102.000
228.3770, 911.0000
229.5970, 790.0000
230.8160, 682.0000
232.0350, 599.0000
233.2540, 532.0000
234.4730, 503.0000
235.6920, 479.0000
236.9110, 465.0000
238.1290, 463.0000
239.3470, 446.0000
240.5650, 449.0000
241.7830, 426.0000
243.0010, 434.0000
244.2180, 442.0000
245.4360, 429.0000
246.6530, 438.0000
247.8700, 407.0000
249.0870, 430.0000
250.3040, 443.0000
251.5200, 429.0000
252.7370, 410.0000
253.9530, 447.0000
255.1690, 421.0000
256.3850, 429.0000
257.6000, 418.0000
258.8160, 451.0000
260.0310, 413.0000
261.2460, 439.0000
262.4610, 414.0000
263.6760, 419.0000
264.8910, 407.0000
266.1050, 429.0000
267.3200, 465.0000
268.5340, 427.0000
269.7480, 435.0000
270.9620, 401.0000
272.1750, 427.0000
273.3890, 412.0000
274.6020, 410.0000
275.8150, 406.0000
277.0280, 444.0000
278.2410, 438.0000
279.4540, 454.0000
280.6660, 407.0000
281.8790, 444.0000
283.0910, 436.7543
284.3030, 472.0000
285.5140, 463.0000
286.7260, 428.0000
287.9380, 460.0000
289.1490, 449.0000
290.3600, 478.0000
291.5710, 433.0000
292.7820, 436.0000
293.9920, 452.0000
295.2030, 436.0000
296.4130, 452.0000
297.6230, 429.0000
298.8330, 457.0000
300.0430, 448.0000
301.2520, 452.0000
302.4620, 469.0000
303.6710, 448.0000
304.8800, 463.0000
306.0890, 440.0000
307.2980, 450.0345
308.5070, 450.8028
309.7150, 466.0000
310.9230, 453.0000
312.1310, 462.0000
313.3390, 454.0000
314.5470, 470.0000
315.7550, 468.0000
316.9620, 455.0000
318.1690, 478.0000
319.3760, 475.0000
320.5830, 480.0000
321.7900, 455.0000
322.9960, 458.0000
324.2030, 456.8297
325.4090, 466.0000
326.6150, 469.0000
327.8210, 463.0000
329.0270, 485.0000
330.2320, 483.0000
331.4380, 459.0000
332.6430, 489.0000
333.8480, 483.3118
335.0530, 523.0000
336.2580, 499.0000
337.4620, 500.0000
338.6670, 501.0000
339.8710, 523.0000
341.0750, 536.7086
342.2790, 590.0000
343.4820, 592.0000
344.6860, 625.0000
345.8890, 673.0000
347.0920, 751.0000
348.2960, 870.0000
349.4980, 1001.000
350.7010, 1149.098
351.9040, 1300.000
353.1060, 1502.000
354.3080, 1689.000
355.5100, 1895.000
356.7120, 2039.000
357.9140, 1984.000
359.1150, 1887.000
360.3170, 1683.000
361.5180, 1445.000
362.7190, 1238.000
363.9200, 973.0000
365.1200, 847.0000
366.3210, 763.0000
367.5210, 691.0000
368.7210, 639.0000
369.9210, 661.0000
371.1210, 627.0000
372.3210, 617.0000
373.5200, 588.0000
374.7200, 573.0000
375.9190, 582.0000
377.1180, 605.0000
378.3170, 574.0000
379.5150, 591.0000
380.7140, 572.0000
381.9120, 643.0000
383.1110, 669.0000
384.3090, 709.0000
385.5060, 763.8708
386.7040, 816.1337
387.9020, 875.0000
389.0990, 960.0000
390.2960, 1048.000
391.4930, 1156.000
392.6900, 1221.000
393.8860, 1224.000
395.0830, 1245.000
396.2790, 1197.000
397.4750, 1109.000
398.6710, 1031.000
399.8670, 970.0000
401.0630, 878.0000
402.2580, 807.0000
403.4540, 795.0000
404.6490, 737.0000
405.8440, 731.0000
407.0390, 726.0000
408.2330, 733.0000
409.4280, 731.0000
410.6220, 756.0000
411.8160, 767.0000
413.0100, 793.0000
414.2040, 782.0000
415.3980, 841.0000
416.5910, 844.0000
417.7850, 905.0000
418.9780, 943.0000
420.1710, 973.0000
421.3640, 1051.000
422.5560, 1118.000
423.7490, 1251.000
424.9410, 1386.000
426.1330, 1604.000
427.3250, 1889.000
428.5170, 2217.000
429.7090, 2876.000
430.9000, 3776.000
432.0910, 4776.000
433.2820, 6121.000
434.4730, 7879.000
435.6640, 9905.000
436.8550, 12112.00
438.0450, 14194.00
439.2360, 15747.00
440.4260, 16489.00
441.6160, 15642.00
442.8060, 13604.00
443.9950, 11021.00
445.1850, 8817.000
446.3740, 6793.000
447.5630, 5287.000
448.7520, 4219.000
449.9410, 3401.000
451.1300, 2734.000
452.3180, 2334.000
453.5060, 2050.000
454.6950, 1790.000
455.8830, 1620.000
457.0700, 1469.000
458.2580, 1349.000
459.4450, 1290.000
460.6330, 1257.000
461.8200, 1177.000
463.0070, 1079.000
464.1940, 1054.000
465.3800, 1002.000
466.5670, 979.0000
467.7530, 909.0000
468.9390, 906.0000
470.1250, 878.0000
471.3110, 825.0000
472.4970, 855.0000
473.6820, 853.0000
474.8680, 823.0000
476.0530, 796.0000
477.2380, 766.0000
478.4230, 742.0000
479.6070, 728.0000
480.7920, 735.0000
481.9760, 750.0000
483.1600, 714.0000
484.3440, 715.0000
485.5280, 677.0000
486.7120, 678.0000
487.8950, 678.0000
489.0780, 673.0000
490.2620, 694.0000
491.4450, 703.0000
492.6270, 669.0000
493.8100, 648.0000
494.9920, 687.0000
496.1750, 632.0000
497.3570, 804.0000
498.5390, 754.0763
499.7210, 739.4532
500.9020, 757.0000
502.0840, 663.0000
503.2650, 648.0000
504.4460, 640.0000
505.6270, 694.0000
506.8080, 659.0000
507.9890, 657.0000
509.1690, 694.0000
510.3500, 676.2983
511.5300, 683.5292
512.7100, 672.0000
513.8900, 689.0000
515.0690, 654.0000
516.2490, 682.0000
517.4280, 659.0000
518.6070, 639.0000
519.7860, 671.0000
520.9650, 665.0000
522.1440, 653.0000
523.3220, 686.0000
524.5010, 676.0000
525.6790, 651.0000
526.8570, 690.0000
528.0350, 695.0000
529.2130, 681.0000
530.3900, 685.0000
531.5670, 684.5724
532.7450, 688.0000
533.9220, 684.0000
535.0980, 679.0000
536.2750, 670.0000
537.4520, 673.1198
538.6280, 696.0000
539.8040, 683.0000
540.9800, 696.0000
542.1560, 713.0000
543.3320, 691.0000
544.5070, 684.0000
545.6830, 675.0000
546.8580, 730.0000
548.0330, 702.8949
549.2080, 705.4366
550.3830, 714.0000
551.5570, 688.0000
552.7310, 743.0000
553.9060, 759.0000
555.0800, 739.0000
556.2540, 723.0000
557.4270, 693.0000
558.6010, 719.0000
559.7740, 692.0000
560.9470, 711.0000
562.1210, 713.0000
563.2930, 732.0000
564.4660, 712.5679
565.6390, 708.6786
566.8110, 678.0000
567.9830, 670.0000
569.1550, 672.0000
570.3270, 637.0000
571.4990, 662.0000
572.6710, 684.0000
573.8420, 683.0000
575.0130, 673.0000
576.1840, 683.0000
577.3550, 659.0000
578.5260, 674.0000
579.6970, 654.0000
580.8670, 671.0000
582.0370, 671.0000
583.2070, 664.0000
584.3770, 641.0000
585.5470, 662.0000
586.7170, 667.0000
587.8860, 653.0000
589.0550, 660.0000
590.2240, 651.0000
591.3930, 646.4753
592.5620, 660.0000
593.7310, 640.0000
594.8990, 660.0000
596.0670, 666.0000
597.2350, 667.0000
598.4030, 686.0000
599.5710, 662.0000
600.7390, 701.0000
601.9060, 638.0000
603.0740, 694.0000
604.2410, 664.0000
605.4080, 669.0000
606.5740, 676.0000
607.7410, 656.0000
608.9080, 680.0000
610.0740, 693.0000
611.2400, 677.0000
612.4060, 652.0000
613.5720, 684.0000
614.7370, 695.0000
615.9030, 719.0000
617.0680, 718.5222
618.2330, 717.7761
619.3980, 715.0000
620.5630, 695.0000
621.7280, 702.0000
622.8920, 680.0000
624.0570, 705.0000
625.2210, 719.0000
626.3850, 699.0000
627.5490, 679.0000
628.7120, 626.8716
629.8760, 672.1361
631.0390, 697.7162
632.2020, 704.6700
633.3650, 637.2094
634.5280, 665.8396
635.6910, 655.9609
636.8530, 644.5029
638.0160, 686.6574
639.1780, 630.0200
640.3400, 671.3240
641.5020, 673.5316
642.6640, 693.6326
643.8250, 674.9868
644.9870, 668.3088
646.1480, 700.3896
647.3090, 711.0092
648.4700, 687.9030
649.6300, 709.1409
650.7910, 651.1497
651.9510, 662.6831
653.1120, 704.2137
654.2720, 683.0554
655.4320, 705.0018
656.5910, 710.5312
657.7510, 641.4542
658.9100, 702.1255
660.0690, 706.6848
661.2290, 653.6296
662.3880, 709.8552
663.5460, 664.7423
664.7050, 655.8012
665.8630, 674.0813
667.0220, 663.9843
668.1800, 698.6272
669.3380, 690.1686
670.4950, 677.8589
671.6530, 682.3550
672.8100, 639.2290
673.9680, 684.4514
675.1250, 669.3243
676.2820, 684.1954
677.4390, 705.8661
678.5950, 675.4728
679.7520, 700.1986
680.9080, 639.4480
682.0640, 650.2183
683.2200, 653.2872
684.3760, 702.0707
685.5320, 641.7367
686.6870, 650.5197
687.8420, 688.7317
688.9980, 685.7659
690.1530, 700.0167
691.3070, 663.2983
692.4620, 674.4615
693.6170, 672.4268
694.7710, 715.9981
695.9250, 723.5653
697.0790, 687.7118
698.2330, 652.0422
699.3870, 698.8957
700.5400, 667.5327
701.6940, 678.3668
702.8470, 645.6201
704.0000, 650.5019
705.1530, 654.7870
706.3050, 678.3611
707.4580, 643.4451
708.6100, 684.4001
709.7630, 681.5037
710.9150, 691.5245
712.0660, 700.1080
713.2180, 649.8473
714.3700, 647.8250
715.5210, 714.8266
716.6720, 676.5627
717.8240, 659.5453
718.9740, 657.6307
720.1250, 726.9963
721.2760, 730.1081
722.4260, 654.0261
723.5770, 720.2506
724.7270, 698.9252
725.8770, 703.6166
727.0260, 698.8159
728.1760, 696.8251
729.3250, 659.0934
730.4750, 668.4615
731.6240, 716.1257
732.7730, 698.5002
733.9220, 725.2388
735.0700, 671.1257
736.2190, 712.0000
737.3670, 713.0000
738.5150, 706.0000
739.6630, 722.0000
740.8110, 731.0000
741.9590, 706.0000
743.1060, 721.0000
744.2540, 706.0000
745.4010, 721.0000
746.5480, 701.0000
747.6950, 708.0000
748.8410, 693.0000
749.9880, 685.2163
751.1340, 734.0000
752.2800, 686.0000
753.4260, 704.0000
754.5720, 746.0000
755.7180, 734.0000
756.8640, 749.0000
758.0090, 703.0000
759.1540, 711.0000
760.2990, 700.0000
761.4440, 726.0000
762.5890, 708.0000
763.7340, 726.0000
764.8780, 712.0000
766.0220, 687.0000
767.1660, 736.0000
768.3100, 742.0000
769.4540, 733.0000
770.5980, 723.0000
771.7410, 718.0000
772.8840, 713.0000
774.0280, 712.0000
775.1700, 700.0000
776.3130, 689.0000
777.4560, 691.9981
778.5980, 700.0307
779.7410, 694.0000
780.8830, 726.0000
782.0250, 727.0000
783.1670, 726.0000
784.3080, 731.0000
785.4500, 728.0000
786.5910, 749.0000
787.7320, 709.0000
788.8730, 735.0000
790.0140, 729.0000
791.1550, 712.0000
792.2950, 731.0000
793.4360, 717.0000
794.5760, 744.0000
795.7160, 762.7068
796.8560, 745.8138
797.9960, 804.0000
799.1350, 732.0000
800.2750, 717.0000
801.4140, 731.0000
802.5530, 722.0000
803.6920, 718.0000
804.8310, 745.0000
805.9690, 748.0000
807.1080, 739.0000
808.2460, 722.0000
809.3840, 742.0000
810.5220, 708.0000
811.6600, 707.0000
812.7970, 724.0000
813.9350, 746.0000
815.0720, 743.0000
816.2090, 755.0000
817.3460, 722.0000
818.4830, 755.0000
819.6200, 756.0000
820.7560, 742.4301
821.8930, 764.1470
823.0290, 721.0000
824.1650, 768.0000
825.3010, 719.9272
826.4360, 764.9909
827.5720, 790.3707
828.7070, 797.1239
829.8420, 729.4628
830.9770, 757.8924
832.1120, 747.8132
833.2470, 736.1550
834.3820, 778.1089
835.5160, 721.2712
836.6500, 762.3748
837.7840, 764.3821
838.9180, 784.2828
840.0520, 765.4368
841.1860, 758.5585
842.3190, 790.4391
843.4520, 800.8586
844.5850, 777.5522
845.7180, 798.5902
846.8510, 740.3988
847.9840, 751.7324
849.1160, 793.0626
850.2490, 771.7045
851.3810, 793.4508
852.5130, 798.7805
853.6450, 729.5035
854.7760, 789.9750
855.9080, 794.3345
857.0390, 741.0793
858.1700, 797.1050
859.3010, 751.7925
860.4320, 742.6516
861.5630, 760.7321
862.6930, 750.4352
863.8240, 784.8785
864.9540, 776.2203
866.0840, 763.7112
867.2140, 768.0076
868.3440, 724.6823
869.4730, 802.0000
870.6030, 802.0000
871.7320, 812.0000
872.8610, 758.0000
873.9900, 781.0000
875.1190, 765.0000
876.2470, 820.0000
877.3760, 742.0000
878.5040, 788.0000
879.6320, 785.0000
880.7600, 807.0000
881.8880, 747.0000
883.0150, 760.0000
884.1430, 760.0000
885.2700, 764.0000
886.3970, 814.0000
887.5240, 827.0000
888.6510, 780.0000
889.7780, 736.0000
890.9040, 807.0000
892.0310, 787.0000
893.1570, 789.0000
894.2830, 734.0000
895.4090, 802.0000
896.5350, 768.0000
897.6600, 761.0000
898.7860, 812.0000
899.9110, 826.0000
901.0360, 802.0000
902.1610, 786.0000
903.2860, 782.0000
904.4100, 785.0000
905.5350, 830.0000
906.6590, 772.0000
907.7830, 825.0000
908.9070, 810.0000
910.0310, 795.0000
911.1540, 808.0000
912.2780, 820.0000
913.4010, 804.0000
914.5240, 824.0000
915.6470, 772.0000
916.7700, 767.0000
917.8930, 831.0000
919.0150, 815.0000
920.1380, 849.0000
921.2600, 786.0000
922.3820, 824.0000
923.5040, 821.0000
924.6260, 811.0000
925.7470, 825.0000
926.8690, 836.0000
927.9900, 819.0000
929.1110, 828.0000
930.2320, 829.0000
931.3530, 827.0000
932.4730, 858.0000
933.5940, 825.0000
934.7140, 819.0000
935.8340, 820.0000
936.9540, 842.0000
938.0740, 856.0000
939.1930, 838.0000
940.3130, 878.0000
941.4320, 857.0000
942.5510, 848.0000
943.6700, 839.0000
944.7890, 865.0000
945.9080, 843.0000
947.0260, 857.0000
948.1450, 893.0000
949.2630, 884.0000
950.3810, 878.0000
951.4990, 866.0000
952.6170, 867.0000
953.7340, 880.0000
954.8520, 885.6443
955.9690, 873.0000
957.0860, 913.0000
958.2030, 940.0000
959.3200, 949.0000
960.4360, 948.0000
961.5530, 948.0000
962.6690, 996.0000
963.7850, 1006.000
964.9010, 1106.000
966.0170, 1140.000
967.1330, 1262.000
968.2480, 1577.000
969.3630, 1846.000
970.4790, 2441.000
971.5940, 3421.000
972.7080, 4692.000
973.8230, 6393.000
974.9380, 7918.000
976.0520, 8798.000
977.1660, 7809.000
978.2800, 6025.000
979.3940, 4283.000
980.5080, 2980.000
981.6220, 2332.000
982.7350, 1865.000
983.8480, 1654.000
984.9610, 1582.000
986.0740, 1469.000
987.1870, 1444.000
988.3000, 1437.000
989.4120, 1412.000
990.5250, 1473.000
991.6370, 1477.000
992.7490, 1548.000
993.8610, 1668.000
994.9720, 1808.000
996.0840, 1888.000
997.1950, 2192.000
998.3060, 2500.000
999.4170, 2985.000
1000.528, 3830.000
1001.639, 5079.000
1002.750, 7833.000
1003.860, 11740.00
1004.970, 17670.00
1006.080, 26608.00
1007.190, 37780.00
1008.300, 49188.00
1009.410, 56546.00
1010.519, 51452.00
1011.628, 38315.00
1012.738, 25308.00
1013.846, 15554.00
1014.955, 10078.00
1016.064, 7079.000
1017.172, 5016.000
1018.281, 3654.000
1019.389, 2961.000
1020.497, 2405.000
1021.605, 2079.000
1022.713, 1856.000
1023.820, 1714.000
1024.928, 1584.000
1026.035, 1441.000
1027.142, 1394.000
1028.249, 1338.000
1029.356, 1297.000
1030.462, 1270.000
1031.569, 1218.000
1032.675, 1195.000
1033.781, 1150.000
1034.887, 1117.008
1035.993, 1102.971
1037.098, 1065.000
1038.204, 1082.000
1039.309, 1089.000
1040.415, 1091.000
1041.520, 1073.000
1042.624, 1057.000
1043.729, 1054.466
1044.834, 1065.000
1045.938, 1054.000
1047.042, 1052.000
1048.146, 1079.000
1049.250, 1068.000
1050.354, 1078.000
1051.458, 1115.000
1052.561, 1080.000
1053.664, 1135.000
1054.767, 1120.000
1055.870, 1111.000
1056.973, 1087.000
1058.076, 1073.917
1059.178, 1061.000
1060.281, 1032.000
1061.383, 1018.000
1062.485, 981.0000
1063.587, 988.0000
1064.688, 987.0000
1065.790, 1007.000
1066.891, 993.0000
1067.993, 1018.000
1069.094, 1009.364
1070.195, 969.0000
1071.295, 1005.000
1072.396, 985.0000
1073.496, 993.0000
1074.597, 985.0000
1075.697, 985.0000
1076.797, 1007.000
1077.897, 1026.000
1078.996, 1027.000
1080.096, 1047.674
1081.195, 1099.000
1082.294, 1070.000
1083.393, 1103.000
1084.492, 1107.000
1085.591, 1108.000
1086.689, 1182.000
1087.788, 1204.000
1088.886, 1222.000
1089.984, 1275.000
1091.082, 1288.000
1092.180, 1239.000
1093.277, 1199.000
1094.375, 1165.000
1095.472, 1135.000
1096.569, 1127.000
1097.666, 1124.000
1098.763, 1088.000
1099.860, 1088.000
1100.956, 1048.000
1102.053, 1052.000
1103.149, 1024.000
1104.245, 1122.000
1105.341, 1110.000
1106.436, 1117.000
1107.532, 1158.000
1108.627, 1145.000
1109.723, 1199.000
1110.818, 1245.000
1111.913, 1298.000
1113.007, 1292.000
1114.102, 1166.000
1115.197, 1221.000
1116.291, 1142.000
1117.385, 1121.000
1118.479, 1067.000
1119.573, 1053.000
1120.666, 1062.000
1121.760, 1039.000
1122.853, 999.0000
1123.947, 1041.000
1125.040, 1014.517
1126.132, 999.0000
1127.225, 1014.000
1128.318, 1005.357
1129.410, 1051.000
1130.502, 1018.000
1131.595, 1041.000
1132.687, 1045.000
1133.778, 1012.000
1134.870, 1015.000
1135.961, 1095.000
1137.053, 1020.000
1138.144, 1058.000
1139.235, 991.0000
1140.326, 1071.000
1141.416, 1096.000
1142.507, 1129.000
1143.597, 1133.000
1144.688, 1160.000
1145.778, 1190.000
1146.868, 1216.000
1147.957, 1195.000
1149.047, 1190.000
1150.136, 1167.000
1151.226, 1126.000
1152.315, 1129.000
1153.404, 1064.000
1154.493, 1071.000
1155.581, 1039.000
1156.670, 1015.000
1157.758, 1043.000
1158.846, 1033.000
1159.934, 1010.000
1161.022, 1025.000
1162.110, 1014.000
1163.198, 982.0000
1164.285, 995.0000
1165.372, 1007.000
1166.459, 954.0000
1167.546, 951.0000
1168.633, 972.0000
1169.720, 971.0000
1170.806, 979.0000
1171.892, 1000.000
1172.979, 1016.000
1174.065, 1016.669
1175.150, 1014.330
1176.236, 1010.000
1177.322, 988.0000
1178.407, 966.0000
1179.492, 947.0000
1180.577, 957.0000
1181.662, 955.0000
1182.747, 969.0000
1183.832, 966.4412
1184.916, 974.0000
1186.000, 970.0000
1187.084, 976.0000
1188.168, 989.0000
1189.252, 996.0000
1190.336, 967.0000
1191.419, 920.0000
1192.503, 992.0000
1193.586, 986.0000
1194.669, 945.0000
1195.752, 988.0000
1196.835, 995.0000
1197.917, 950.0000
1199.000, 983.0000
1200.082, 1002.000
1201.164, 979.0000
1202.246, 954.0000
1203.328, 971.0000
1204.409, 973.0000
1205.491, 1011.000
1206.572, 975.0000
1207.653, 1008.000
1208.734, 1003.000
1209.815, 995.0000
1210.896, 1003.000
1211.976, 991.0000
1213.057, 1002.000
1214.137, 1003.000
1215.217, 1032.000
1216.297, 1004.000
1217.377, 1033.000
1218.456, 1047.000
1219.536, 1018.000
1220.615, 1041.000
1221.694, 1032.000
1222.773, 1022.000
1223.852, 1030.000
1224.931, 1022.000
1226.009, 1034.000
1227.088, 1030.000
1228.166, 1033.154
1229.244, 1038.868
1230.322, 1041.000
1231.400, 1046.000
1232.477, 1055.000
1233.555, 1056.000
1234.632, 1063.000
1235.709, 1040.000
1236.786, 1051.000
1237.863, 1104.000
1238.939, 1096.000
1240.016, 1008.000
1241.092, 1056.000
1242.168, 1030.000
1243.245, 1036.000
1244.320, 1031.000
1245.396, 1028.753
1246.472, 1036.000
1247.547, 1038.000
1248.622, 1050.000
1249.697, 1061.000
1250.772, 1027.000
1251.847, 1022.000
1252.922, 1037.000
1253.996, 1019.977
1255.071, 1066.000
1256.145, 1024.000
1257.219, 1035.000
1258.293, 1053.000
1259.366, 1038.000
1260.440, 1045.000
1261.513, 1033.000
1262.587, 1060.000
1263.660, 1048.000
1264.733, 1112.000
1265.805, 1136.000
1266.878, 1122.000
1267.951, 1094.000
1269.023, 1116.000
1270.095, 1133.000
1271.167, 1119.000
1272.239, 1120.000
1273.311, 1122.000
1274.382, 1135.000
1275.454, 1114.000
1276.525, 1110.000
1277.596, 1098.000
1278.667, 1082.000
1279.738, 1071.000
1280.808, 1069.301
1281.879, 1071.000
1282.949, 1077.000
1284.019, 1070.000
1285.089, 1087.000
1286.159, 1084.000
1287.229, 1086.000
1288.298, 1112.000
1289.368, 1102.000
1290.437, 1100.000
1291.506, 1073.000
1292.575, 1074.000
1293.644, 1122.000
1294.712, 1086.000
1295.781, 1102.000
1296.849, 1113.000
1297.917, 1081.000
1298.985, 1122.000
1300.053, 1120.000
1301.121, 1075.000
1302.188, 1101.000
1303.255, 1071.000
1304.323, 1084.000
1305.390, 1054.000
1306.457, 1065.000
1307.523, 1036.000
1308.590, 1063.000
1309.656, 1085.000
1310.723, 1089.000
1311.789, 1085.000
1312.855, 1071.000
1313.921, 1097.000
1314.986, 1057.000
1316.052, 1084.000
1317.117, 1114.000
1318.182, 1103.000
1319.248, 1017.000
1320.312, 1093.000
1321.377, 1099.000
1322.442, 1035.000
1323.506, 1110.000
1324.571, 1065.000
1325.635, 1096.000
1326.699, 1050.000
1327.762, 1075.000
1328.826, 1088.000
1329.890, 1110.000
1330.953, 1088.000
1332.016, 1093.000
1333.079, 1096.000
1334.142, 1111.000
1335.205, 1109.000
1336.268, 1140.000
1337.330, 1125.000
1338.392, 1076.000
1339.454, 1106.000
1340.516, 1113.000
1341.578, 1133.000
1342.640, 1136.000
1343.701, 1136.000
1344.763, 1158.000
1345.824, 1137.000
1346.885, 1213.000
1347.946, 1162.000
1349.007, 1210.000
1350.067, 1190.000
1351.128, 1207.000
1352.188, 1224.000
1353.248, 1201.025
1354.308, 1211.444
1355.368, 1178.000
1356.428, 1181.000
1357.487, 1189.000
1358.547, 1132.000
1359.606, 1161.000
1360.665, 1204.000
1361.724, 1172.000
1362.783, 1182.000
1363.841, 1173.000
1364.900, 1104.000
1365.958, 1142.000
1367.016, 1120.000
1368.074, 1126.000
1369.132, 1130.000
1370.190, 1124.000
1371.247, 1109.000
1372.304, 1101.000
1373.362, 1085.000
1374.419, 1117.000
1375.476, 1127.000
1376.532, 1122.000
1377.589, 1120.000
1378.645, 1127.000
1379.702, 1131.000
1380.758, 1108.000
1381.814, 1116.780
1382.870, 1102.000
1383.925, 1111.000
1384.981, 1114.000
1386.036, 1106.000
1387.092, 1102.213
1388.147, 1115.000
1389.202, 1082.000
1390.256, 1089.000
1391.311, 1083.000
1392.365, 1121.000
1393.420, 1143.000
1394.474, 1157.000
1395.528, 1142.000
1396.582, 1127.000
1397.636, 1164.000
1398.689, 1104.000
1399.742, 1118.000
1400.796, 1161.000
1401.849, 1106.000
1402.902, 1152.000
1403.955, 1194.000
1405.007, 1169.000
1406.060, 1156.000
1407.112, 1158.000
1408.164, 1128.000
1409.216, 1171.000
1410.268, 1186.000
1411.320, 1161.000
1412.371, 1164.000
1413.423, 1157.000
1414.474, 1139.000
1415.525, 1170.000
1416.576, 1134.000
1417.627, 1174.000
1418.678, 1170.000
1419.728, 1208.000
1420.778, 1173.000
1421.829, 1177.000
1422.879, 1166.000
1423.928, 1187.000
1424.978, 1188.000
1426.028, 1189.000
1427.077, 1198.000
1428.126, 1168.000
1429.176, 1185.289
1430.225, 1259.000
1431.273, 1188.000
1432.322, 1230.000
1433.371, 1212.000
1434.419, 1208.000
1435.467, 1212.000
1436.515, 1189.000
1437.563, 1205.000
1438.611, 1208.000
1439.658, 1241.000
1440.706, 1233.000
1441.753, 1251.000
1442.800, 1208.000
1443.847, 1256.000
1444.894, 1198.000
1445.941, 1288.000
1446.987, 1306.000
1448.034, 1290.000
1449.080, 1256.000
1450.126, 1327.000
1451.172, 1299.000
1452.218, 1370.000
1453.263, 1364.000
1454.309, 1339.000
1455.354, 1437.000
1456.399, 1433.000
1457.444, 1453.000
1458.489, 1530.000
1459.534, 1563.000
1460.579, 1633.000
1461.623, 1683.000
1462.667, 1726.000
1463.711, 1709.000
1464.755, 1770.000
1465.799, 1717.000
1466.843, 1658.000
1467.886, 1638.000
1468.930, 1579.000
1469.973, 1591.000
1471.016, 1531.000
1472.059, 1477.000
1473.101, 1509.000
1474.144, 1445.000
1475.186, 1479.000
1476.229, 1457.000
1477.271, 1443.000
1478.313, 1457.000
1479.355, 1418.000
1480.396, 1407.000
1481.438, 1440.000
1482.479, 1403.000
1483.520, 1433.000
1484.561, 1398.000
1485.602, 1368.000
1486.643, 1313.000
1487.684, 1374.000
1488.724, 1354.000
1489.765, 1322.000
1490.805, 1317.000
1491.845, 1314.000
1492.885, 1326.000
1493.924, 1301.000
1494.964, 1321.000
1496.003, 1328.516
1497.042, 1353.000
1498.082, 1350.000
1499.120, 1349.000
1500.159, 1336.000
1501.198, 1334.000
1502.236, 1345.000
1503.275, 1359.000
1504.313, 1343.000
1505.351, 1326.000
1506.389, 1377.000
1507.427, 1385.000
1508.464, 1352.000
1509.502, 1378.000
1510.539, 1352.000
1511.576, 1419.000
1512.613, 1413.000
1513.650, 1405.000
1514.687, 1423.000
1515.723, 1366.000
1516.759, 1354.000
1517.796, 1352.000
1518.832, 1376.000
1519.868, 1372.000
1520.903, 1369.000
1521.939, 1353.000
1522.975, 1358.000
1524.010, 1335.000
1525.045, 1341.000
1526.080, 1286.000
1527.115, 1291.000
1528.150, 1277.000
1529.184, 1316.000
1530.219, 1250.000
1531.253, 1312.000
1532.287, 1297.000
1533.321, 1268.000
1534.355, 1282.000
1535.388, 1299.000
1536.422, 1299.000
1537.455, 1308.000
1538.488, 1267.000
1539.522, 1261.000
1540.554, 1239.000
1541.587, 1243.000
1542.620, 1247.000
1543.652, 1222.000
1544.685, 1274.000
1545.717, 1277.000
1546.749, 1265.000
1547.781, 1236.000
1548.812, 1242.000
1549.844, 1251.000
1550.875, 1246.000
1551.906, 1250.000
1552.938, 1231.000
1553.968, 1248.000
1554.999, 1184.000
1556.030, 1208.000
1557.060, 1215.000
1558.091, 1210.000
1559.121, 1245.000
1560.151, 1222.000
1561.181, 1221.000
1562.211, 1263.000
1563.240, 1236.000
1564.270, 1230.000
1565.299, 1274.000
1566.328, 1179.000
1567.357, 1257.000
1568.386, 1225.000
1569.415, 1259.000
1570.443, 1184.000
1571.472, 1254.000
1572.500, 1222.000
1573.528, 1278.000
1574.556, 1231.000
1575.584, 1252.000
1576.611, 1249.000
1577.639, 1253.000
1578.666, 1238.000
1579.693, 1208.000
##END=



