##NAMES=Zircon
##RRUFFID=R050488
##IDEAL CHEMISTRY=Zr^4+^SiO_4_
##LOCALITY=Sigulani Village, Tambani Area, Blantyre District, Nyassaland
##OWNER=RRUFF
##SOURCE=California Institute of Technology
##DESCRIPTION=Brown fragment
##STATUS=The identification of this mineral has been confirmed by X-ray diffraction and chemical analysis
##URL=rruff.info/R050488
##MEASURED CHEMISTRY=(Zr_0.99_Hf_0.01_)_Î£=1_Si_1.00_O_4_
##PIN_ID=L01932
##ORIENTATION=Laser parallel to -a* (-1 0 0). Fiducial mark perpendicular to laser is parallel to c [0 0 1]
63.41100, 54.00000
64.65300, 53.00000
65.89600, 55.00000
67.13800, 53.00000
68.38000, 50.00000
69.62200, 49.16907
70.86300, 49.00634
72.10500, 45.00000
73.34600, 52.00000
74.58700, 52.00000
75.82800, 57.00000
77.06900, 55.28291
78.30900, 51.00000
79.55000, 54.00000
80.79000, 52.00000
82.03000, 59.00000
83.27000, 56.00000
84.51000, 64.00000
85.74900, 65.00000
86.98900, 65.00000
88.22800, 69.63112
89.46700, 68.00000
90.70600, 72.00000
91.94400, 74.00000
93.18300, 70.00000
94.42100, 70.00000
95.65900, 92.00000
96.89700, 109.0000
98.13500, 114.0000
99.37300, 135.0000
100.6100, 143.0915
101.8480, 152.7503
103.0850, 173.0000
104.3220, 190.0000
105.5590, 225.0000
106.7950, 245.8259
108.0320, 288.1610
109.2680, 309.0000
110.5040, 363.0000
111.7400, 417.0000
112.9760, 427.0000
114.2120, 478.0000
115.4470, 529.0000
116.6820, 616.0000
117.9170, 648.0000
119.1520, 606.0000
120.3870, 567.0000
121.6220, 556.0000
122.8560, 517.0000
124.0900, 484.0000
125.3240, 503.0000
126.5580, 499.0000
127.7920, 539.0000
129.0260, 495.0000
130.2590, 517.0000
131.4920, 491.0000
132.7250, 522.0000
133.9580, 517.0000
135.1910, 522.0000
136.4230, 546.0000
137.6560, 535.0000
138.8880, 513.0000
140.1200, 565.9736
141.3520, 546.2964
142.5830, 555.4666
143.8150, 561.0000
145.0460, 557.0000
146.2770, 575.0000
147.5080, 573.0000
148.7390, 575.0000
149.9700, 579.0000
151.2000, 580.0000
152.4310, 599.0000
153.6610, 594.8776
154.8910, 618.0000
156.1210, 590.0000
157.3500, 611.0000
158.5800, 596.0000
159.8090, 605.0000
161.0380, 635.0000
162.2670, 614.0000
163.4960, 628.0000
164.7240, 594.0000
165.9530, 632.0000
167.1810, 593.0000
168.4090, 594.0000
169.6370, 586.0000
170.8650, 615.0000
172.0920, 621.0000
173.3200, 600.0000
174.5470, 596.0000
175.7740, 606.0000
177.0010, 598.0000
178.2280, 632.0000
179.4540, 589.0000
180.6810, 620.0000
181.9070, 613.0000
183.1330, 636.0000
184.3590, 599.0000
185.5850, 600.0000
186.8100, 619.0000
188.0350, 645.0000
189.2610, 635.0000
190.4860, 632.0000
191.7110, 669.0000
192.9350, 710.0000
194.1600, 711.0000
195.3840, 764.0000
196.6080, 799.0000
197.8320, 839.0000
199.0560, 862.0000
200.2800, 913.0000
201.5030, 1036.000
202.7270, 1146.000
203.9500, 1262.000
205.1730, 1490.000
206.3950, 1729.000
207.6180, 1908.000
208.8410, 2153.000
210.0630, 2506.000
211.2850, 2843.000
212.5070, 3071.000
213.7290, 3460.000
214.9500, 3689.000
216.1720, 3750.000
217.3930, 3646.000
218.6140, 3339.000
219.8350, 2842.000
221.0560, 2229.000
222.2770, 1747.000
223.4970, 1474.000
224.7170, 1331.000
225.9370, 1216.000
227.1570, 1085.000
228.3770, 1008.000
229.5970, 934.0000
230.8160, 881.0000
232.0350, 790.0000
233.2540, 743.0000
234.4730, 700.0000
235.6920, 663.0355
236.9110, 648.0000
238.1290, 631.0000
239.3470, 634.0000
240.5650, 635.0000
241.7830, 608.0000
243.0010, 623.0000
244.2180, 675.0000
245.4360, 628.0000
246.6530, 634.0000
247.8700, 603.0000
249.0870, 613.0000
250.3040, 638.0000
251.5200, 646.0000
252.7370, 620.0000
253.9530, 639.8553
255.1690, 625.6571
256.3850, 635.0000
257.6000, 616.0000
258.8160, 588.0000
260.0310, 591.0000
261.2460, 583.4625
262.4610, 595.0000
263.6760, 595.0000
264.8910, 594.0000
266.1050, 609.0000
267.3200, 608.0000
268.5340, 622.0000
269.7480, 588.0000
270.9620, 618.0000
272.1750, 571.0000
273.3890, 621.0000
274.6020, 616.0000
275.8150, 583.0000
277.0280, 609.0000
278.2410, 620.0000
279.4540, 645.0000
280.6660, 582.0000
281.8790, 615.0000
283.0910, 601.0000
284.3030, 607.0000
285.5140, 627.0000
286.7260, 634.0000
287.9380, 633.6946
289.1490, 597.0000
290.3600, 633.0000
291.5710, 617.0000
292.7820, 627.0000
293.9920, 648.0000
295.2030, 621.0000
296.4130, 613.0000
297.6230, 635.0000
298.8330, 601.0000
300.0430, 636.0000
301.2520, 605.0000
302.4620, 618.2744
303.6710, 616.6371
304.8800, 641.0000
306.0890, 614.0000
307.2980, 632.0000
308.5070, 642.0000
309.7150, 642.0000
310.9230, 649.8285
312.1310, 665.0000
313.3390, 648.0000
314.5470, 660.0000
315.7550, 651.0000
316.9620, 629.0000
318.1690, 618.0000
319.3760, 633.0000
320.5830, 654.0000
321.7900, 643.0000
322.9960, 655.0000
324.2030, 670.0000
325.4090, 644.0000
326.6150, 640.0000
327.8210, 657.0000
329.0270, 675.0000
330.2320, 650.0000
331.4380, 667.0000
332.6430, 676.0000
333.8480, 675.0000
335.0530, 672.0000
336.2580, 696.0000
337.4620, 714.0000
338.6670, 699.0000
339.8710, 703.0000
341.0750, 759.0000
342.2790, 750.0000
343.4820, 773.0000
344.6860, 822.0000
345.8890, 872.0000
347.0920, 957.0000
348.2960, 1016.000
349.4980, 1128.000
350.7010, 1189.000
351.9040, 1350.000
353.1060, 1425.000
354.3080, 1546.000
355.5100, 1561.000
356.7120, 1665.000
357.9140, 1652.000
359.1150, 1559.000
360.3170, 1476.000
361.5180, 1310.000
362.7190, 1160.000
363.9200, 1056.000
365.1200, 947.0000
366.3210, 901.0000
367.5210, 843.0000
368.7210, 806.0000
369.9210, 782.0000
371.1210, 759.0000
372.3210, 793.0000
373.5200, 777.0000
374.7200, 784.0000
375.9190, 771.0000
377.1180, 782.3062
378.3170, 804.0000
379.5150, 813.0000
380.7140, 823.0000
381.9120, 852.0000
383.1110, 873.0000
384.3090, 953.0000
385.5060, 988.0000
386.7040, 1047.000
387.9020, 1090.000
389.0990, 1160.000
390.2960, 1209.000
391.4930, 1339.000
392.6900, 1353.000
393.8860, 1388.000
395.0830, 1367.000
396.2790, 1360.000
397.4750, 1315.000
398.6710, 1247.000
399.8670, 1139.000
401.0630, 1046.000
402.2580, 993.0000
403.4540, 971.0000
404.6490, 960.0000
405.8440, 909.0000
407.0390, 914.4696
408.2330, 931.0000
409.4280, 927.0000
410.6220, 942.0000
411.8160, 960.8373
413.0100, 965.0000
414.2040, 1008.000
415.3980, 1057.000
416.5910, 1090.000
417.7850, 1085.000
418.9780, 1194.000
420.1710, 1237.000
421.3640, 1268.000
422.5560, 1418.000
423.7490, 1521.000
424.9410, 1683.000
426.1330, 1937.000
427.3250, 2303.000
428.5170, 2842.000
429.7090, 3427.000
430.9000, 4293.000
432.0910, 5321.000
433.2820, 6379.000
434.4730, 7750.000
435.6640, 9215.000
436.8550, 10533.00
438.0450, 11844.00
439.2360, 12980.00
440.4260, 13275.00
441.6160, 13072.00
442.8060, 11923.00
443.9950, 10317.00
445.1850, 8469.000
446.3740, 6768.000
447.5630, 5178.000
448.7520, 4160.000
449.9410, 3436.000
451.1300, 2909.000
452.3180, 2406.787
453.5060, 2153.000
454.6950, 1867.000
455.8830, 1778.000
457.0700, 1669.000
458.2580, 1520.854
459.4450, 1443.200
460.6330, 1338.000
461.8200, 1288.000
463.0070, 1226.000
464.1940, 1225.000
465.3800, 1205.000
466.5670, 1138.000
467.7530, 1096.000
468.9390, 1103.000
470.1250, 1062.000
471.3110, 1057.000
472.4970, 1010.000
473.6820, 982.0000
474.8680, 984.0000
476.0530, 989.0000
477.2380, 953.0000
478.4230, 997.0000
479.6070, 937.0000
480.7920, 879.0000
481.9760, 897.0000
483.1600, 894.0000
484.3440, 909.0000
485.5280, 870.0000
486.7120, 849.0000
487.8950, 862.0000
489.0780, 819.0000
490.2620, 826.0000
491.4450, 845.0000
492.6270, 817.0000
493.8100, 839.0000
494.9920, 822.0000
496.1750, 838.0000
497.3570, 814.0000
498.5390, 859.0000
499.7210, 816.0000
500.9020, 824.0000
502.0840, 851.0000
503.2650, 822.0000
504.4460, 804.0000
505.6270, 843.0000
506.8080, 847.0000
507.9890, 849.0000
509.1690, 832.0000
510.3500, 847.0000
511.5300, 843.0000
512.7100, 842.0000
513.8900, 856.0000
515.0690, 841.0000
516.2490, 802.0000
517.4280, 879.0000
518.6070, 823.0000
519.7860, 860.0000
520.9650, 828.0000
522.1440, 810.0000
523.3220, 851.0000
524.5010, 835.0000
525.6790, 825.0000
526.8570, 852.0000
528.0350, 846.0000
529.2130, 856.0000
530.3900, 858.0000
531.5670, 841.0000
532.7450, 822.0000
533.9220, 844.0000
535.0980, 823.0000
536.2750, 838.0000
537.4520, 787.0000
538.6280, 813.0000
539.8040, 829.0000
540.9800, 855.0000
542.1560, 834.0000
543.3320, 839.0000
544.5070, 834.0000
545.6830, 855.0000
546.8580, 855.0000
548.0330, 853.0000
549.2080, 871.0000
550.3830, 869.0000
551.5570, 843.0000
552.7310, 834.0000
553.9060, 858.0000
555.0800, 831.0000
556.2540, 832.0000
557.4270, 849.0000
558.6010, 855.0000
559.7740, 843.0000
560.9470, 839.5255
562.1210, 826.8315
563.2930, 817.0000
564.4660, 805.0000
565.6390, 810.0000
566.8110, 821.0000
567.9830, 805.0000
569.1550, 816.2197
570.3270, 815.0000
571.4990, 814.0000
572.6710, 815.0000
573.8420, 814.9420
575.0130, 810.0000
576.1840, 815.0000
577.3550, 816.0000
578.5260, 812.4178
579.6970, 816.0000
580.8670, 794.0000
582.0370, 785.0000
583.2070, 777.0000
584.3770, 792.0000
585.5470, 812.0000
586.7170, 814.0000
587.8860, 794.0000
589.0550, 808.0000
590.2240, 801.0000
591.3930, 784.0000
592.5620, 782.0000
593.7310, 805.0000
594.8990, 785.0000
596.0670, 809.0000
597.2350, 821.0000
598.4030, 792.0000
599.5710, 791.0000
600.7390, 791.0000
601.9060, 780.6890
603.0740, 788.3483
604.2410, 783.0000
605.4080, 796.0000
606.5740, 811.0000
607.7410, 810.0000
608.9080, 853.0000
610.0740, 807.0000
611.2400, 812.0000
612.4060, 818.0000
613.5720, 847.0000
614.7370, 818.0000
615.9030, 843.0000
617.0680, 821.0000
618.2330, 827.0000
619.3980, 900.0000
620.5630, 812.0000
621.7280, 818.0000
622.8920, 856.0000
624.0570, 821.0000
625.2210, 818.0000
626.3850, 809.0000
627.5490, 808.0000
628.7120, 816.8245
629.8760, 844.0000
631.0390, 843.0000
632.2020, 872.0000
633.3650, 891.0000
634.5280, 861.0000
635.6910, 828.0000
636.8530, 866.0000
638.0160, 910.0000
639.1780, 905.0000
640.3400, 935.0000
641.5020, 911.0000
642.6640, 908.0000
643.8250, 936.0000
644.9870, 894.0000
646.1480, 889.0000
647.3090, 896.0000
648.4700, 896.0000
649.6300, 873.0000
650.7910, 850.0000
651.9510, 850.8658
653.1120, 810.0000
654.2720, 840.0000
655.4320, 866.0000
656.5910, 856.0000
657.7510, 850.0000
658.9100, 835.0000
660.0690, 839.0000
661.2290, 838.0000
662.3880, 842.0000
663.5460, 833.2961
664.7050, 834.6876
665.8630, 821.0000
667.0220, 833.0000
668.1800, 843.0000
669.3380, 848.0000
670.4950, 835.0000
671.6530, 837.0000
672.8100, 835.0000
673.9680, 858.0000
675.1250, 823.0000
676.2820, 837.0000
677.4390, 867.0000
678.5950, 848.0000
679.7520, 836.0000
680.9080, 841.0000
682.0640, 843.0000
683.2200, 820.0000
684.3760, 845.0000
685.5320, 861.0000
686.6870, 840.0000
687.8420, 841.0000
688.9980, 843.0000
690.1530, 849.0000
691.3070, 853.0000
692.4620, 798.0000
693.6170, 824.0000
694.7710, 810.0000
695.9250, 844.0000
697.0790, 868.0000
698.2330, 847.0000
699.3870, 834.0000
700.5400, 858.0000
701.6940, 850.0000
702.8470, 813.0000
704.0000, 856.0000
705.1530, 853.0000
706.3050, 884.0000
707.4580, 859.0000
708.6100, 853.0000
709.7630, 821.0000
710.9150, 877.0000
712.0660, 899.0000
713.2180, 864.0000
714.3700, 873.0000
715.5210, 867.0000
716.6720, 845.0000
717.8240, 843.0000
718.9740, 843.0000
720.1250, 829.0000
721.2760, 865.0000
722.4260, 846.0000
723.5770, 832.0000
724.7270, 861.0000
725.8770, 850.0000
727.0260, 828.0000
728.1760, 832.0000
729.3250, 843.0000
730.4750, 800.0000
731.6240, 830.0000
732.7730, 852.0000
733.9220, 836.0000
735.0700, 835.0000
736.2190, 869.0000
737.3670, 813.0000
738.5150, 841.0000
739.6630, 823.0000
740.8110, 863.0000
741.9590, 865.0000
743.1060, 825.0000
744.2540, 831.0000
745.4010, 874.0000
746.5480, 833.0000
747.6950, 842.0000
748.8410, 844.0000
749.9880, 889.0000
751.1340, 846.0000
752.2800, 873.0000
753.4260, 875.0000
754.5720, 868.0000
755.7180, 851.0000
756.8640, 878.0000
758.0090, 868.0000
759.1540, 859.0000
760.2990, 837.0000
761.4440, 859.0000
762.5890, 859.0000
763.7340, 875.0000
764.8780, 872.0000
766.0220, 877.2978
767.1660, 874.4765
768.3100, 879.0000
769.4540, 859.0000
770.5980, 852.0000
771.7410, 837.0000
772.8840, 853.0000
774.0280, 859.0000
775.1700, 870.0000
776.3130, 833.0000
777.4560, 849.0000
778.5980, 844.0000
779.7410, 834.0840
780.8830, 840.0000
782.0250, 839.0000
783.1670, 858.0000
784.3080, 887.0000
785.4500, 843.0000
786.5910, 822.0000
787.7320, 876.0000
788.8730, 891.0000
790.0140, 833.0000
791.1550, 836.0000
792.2950, 894.0000
793.4360, 863.0000
794.5760, 868.0000
795.7160, 897.0000
796.8560, 884.8078
797.9960, 903.0000
799.1350, 861.0000
800.2750, 873.9490
801.4140, 851.0000
802.5530, 868.0000
803.6920, 860.0000
804.8310, 843.0000
805.9690, 843.0000
807.1080, 884.0000
808.2460, 878.0000
809.3840, 881.0000
810.5220, 884.0000
811.6600, 891.0000
812.7970, 880.0000
813.9350, 882.0000
815.0720, 904.0000
816.2090, 889.0000
817.3460, 928.0000
818.4830, 889.0000
819.6200, 880.0000
820.7560, 900.0000
821.8930, 859.0000
823.0290, 906.0000
824.1650, 893.0000
825.3010, 917.0000
826.4360, 894.0000
827.5720, 878.0000
828.7070, 910.0000
829.8420, 873.0000
830.9770, 904.0000
832.1120, 893.0000
833.2470, 894.0000
834.3820, 892.0000
835.5160, 892.0000
836.6500, 899.0000
837.7840, 922.0000
838.9180, 926.0000
840.0520, 956.0000
841.1860, 954.0768
842.3190, 971.0000
843.4520, 950.0000
844.5850, 908.0000
845.7180, 891.0000
846.8510, 944.0000
847.9840, 925.0000
849.1160, 951.0000
850.2490, 916.0000
851.3810, 935.0000
852.5130, 887.0000
853.6450, 919.0000
854.7760, 906.0000
855.9080, 891.0000
857.0390, 882.0000
858.1700, 886.5143
859.3010, 916.0000
860.4320, 901.0000
861.5630, 925.0000
862.6930, 928.0000
863.8240, 887.0000
864.9540, 885.0000
866.0840, 900.0000
867.2140, 914.0000
868.3440, 927.0000
869.4730, 913.0000
870.6030, 922.0000
871.7320, 912.0000
872.8610, 925.0000
873.9900, 927.0000
875.1190, 968.0000
876.2470, 883.0000
877.3760, 918.0000
878.5040, 905.0000
879.6320, 949.0000
880.7600, 922.0000
881.8880, 901.0000
883.0150, 907.0000
884.1430, 924.0000
885.2700, 886.0000
886.3970, 956.0000
887.5240, 946.0000
888.6510, 945.0000
889.7780, 911.0000
890.9040, 930.0000
892.0310, 940.0000
893.1570, 938.0000
894.2830, 947.0000
895.4090, 906.0000
896.5350, 911.0000
897.6600, 957.0000
898.7860, 925.0000
899.9110, 971.0000
901.0360, 961.0000
902.1610, 963.0000
903.2860, 922.0000
904.4100, 962.0000
905.5350, 926.0000
906.6590, 918.0000
907.7830, 967.0000
908.9070, 966.0000
910.0310, 948.0000
911.1540, 964.0000
912.2780, 951.1901
913.4010, 970.0000
914.5240, 943.0000
915.6470, 952.0000
916.7700, 954.0000
917.8930, 948.0000
919.0150, 991.0000
920.1380, 959.0000
921.2600, 965.0000
922.3820, 990.0000
923.5040, 982.0000
924.6260, 993.0000
925.7470, 1006.000
926.8690, 989.0000
927.9900, 987.0000
929.1110, 979.0000
930.2320, 989.0000
931.3530, 972.0000
932.4730, 984.0000
933.5940, 963.0000
934.7140, 1013.000
935.8340, 1026.000
936.9540, 1016.000
938.0740, 1013.000
939.1930, 1020.000
940.3130, 994.0000
941.4320, 1033.000
942.5510, 1025.000
943.6700, 1006.000
944.7890, 1061.000
945.9080, 1033.000
947.0260, 1040.000
948.1450, 1029.000
949.2630, 1053.000
950.3810, 1099.000
951.4990, 1069.000
952.6170, 1099.000
953.7340, 1063.000
954.8520, 1123.000
955.9690, 1084.000
957.0860, 1087.000
958.2030, 1112.000
959.3200, 1139.000
960.4360, 1187.000
961.5530, 1179.000
962.6690, 1204.000
963.7850, 1298.000
964.9010, 1305.000
966.0170, 1424.000
967.1330, 1605.000
968.2480, 1955.000
969.3630, 2437.000
970.4790, 3013.000
971.5940, 3834.000
972.7080, 4796.000
973.8230, 5819.000
974.9380, 6870.000
976.0520, 7111.000
977.1660, 6609.000
978.2800, 5356.000
979.3940, 4018.000
980.5080, 2975.000
981.6220, 2441.000
982.7350, 2159.000
983.8480, 1907.000
984.9610, 1818.000
986.0740, 1673.000
987.1870, 1772.000
988.3000, 1744.000
989.4120, 1797.000
990.5250, 1761.000
991.6370, 1933.000
992.7490, 1990.000
993.8610, 2108.000
994.9720, 2307.000
996.0840, 2544.000
997.1950, 2950.000
998.3060, 3418.000
999.4170, 4157.000
1000.528, 5559.000
1001.639, 8051.000
1002.750, 11684.00
1003.860, 16763.00
1004.970, 23001.00
1006.080, 30994.00
1007.190, 39376.00
1008.300, 47429.00
1009.410, 50475.00
1010.519, 46290.00
1011.628, 37592.00
1012.738, 25717.00
1013.846, 16291.00
1014.955, 10523.00
1016.064, 7227.000
1017.172, 5297.000
1018.281, 4027.000
1019.389, 3276.000
1020.497, 2754.000
1021.605, 2403.000
1022.713, 2221.000
1023.820, 2016.000
1024.928, 1873.000
1026.035, 1767.000
1027.142, 1714.000
1028.249, 1605.000
1029.356, 1575.000
1030.462, 1518.000
1031.569, 1495.000
1032.675, 1406.000
1033.781, 1421.000
1034.887, 1367.000
1035.993, 1377.000
1037.098, 1342.000
1038.204, 1327.000
1039.309, 1355.000
1040.415, 1316.000
1041.520, 1300.000
1042.624, 1301.000
1043.729, 1296.000
1044.834, 1330.000
1045.938, 1314.000
1047.042, 1329.790
1048.146, 1307.000
1049.250, 1354.000
1050.354, 1353.000
1051.458, 1382.000
1052.561, 1369.000
1053.664, 1338.000
1054.767, 1424.000
1055.870, 1381.000
1056.973, 1392.000
1058.076, 1403.000
1059.178, 1371.000
1060.281, 1354.000
1061.383, 1333.000
1062.485, 1286.000
1063.587, 1238.000
1064.688, 1198.000
1065.790, 1231.000
1066.891, 1230.000
1067.993, 1203.000
1069.094, 1222.000
1070.195, 1231.000
1071.295, 1173.000
1072.396, 1223.000
1073.496, 1209.000
1074.597, 1200.000
1075.697, 1257.000
1076.797, 1209.000
1077.897, 1241.000
1078.996, 1314.000
1080.096, 1286.000
1081.195, 1287.000
1082.294, 1263.000
1083.393, 1316.000
1084.492, 1341.613
1085.591, 1420.000
1086.689, 1457.000
1087.788, 1499.000
1088.886, 1530.820
1089.984, 1554.000
1091.082, 1549.000
1092.180, 1548.000
1093.277, 1512.000
1094.375, 1419.000
1095.472, 1380.000
1096.569, 1327.000
1097.666, 1304.000
1098.763, 1309.000
1099.860, 1280.837
1100.956, 1328.000
1102.053, 1283.000
1103.149, 1311.000
1104.245, 1356.000
1105.341, 1351.000
1106.436, 1362.000
1107.532, 1436.000
1108.627, 1506.000
1109.723, 1530.000
1110.818, 1560.379
1111.913, 1581.226
1113.007, 1553.000
1114.102, 1566.000
1115.197, 1517.000
1116.291, 1440.000
1117.385, 1355.000
1118.479, 1386.000
1119.573, 1317.000
1120.666, 1286.000
1121.760, 1301.000
1122.853, 1295.000
1123.947, 1260.000
1125.040, 1241.000
1126.132, 1254.000
1127.225, 1242.000
1128.318, 1239.640
1129.410, 1240.806
1130.502, 1236.000
1131.595, 1236.000
1132.687, 1239.000
1133.778, 1235.000
1134.870, 1212.000
1135.961, 1226.000
1137.053, 1191.000
1138.144, 1227.000
1139.235, 1253.000
1140.326, 1314.000
1141.416, 1338.324
1142.507, 1329.000
1143.597, 1413.000
1144.688, 1410.000
1145.778, 1459.684
1146.868, 1454.000
1147.957, 1476.000
1149.047, 1425.000
1150.136, 1386.000
1151.226, 1394.000
1152.315, 1347.000
1153.404, 1294.000
1154.493, 1235.000
1155.581, 1248.000
1156.670, 1221.000
1157.758, 1201.923
1158.846, 1215.000
1159.934, 1175.000
1161.022, 1166.000
1162.110, 1155.000
1163.198, 1180.000
1164.285, 1187.000
1165.372, 1178.000
1166.459, 1192.120
1167.546, 1184.000
1168.633, 1193.000
1169.720, 1160.000
1170.806, 1146.000
1171.892, 1163.000
1172.979, 1218.000
1174.065, 1200.000
1175.150, 1155.000
1176.236, 1235.000
1177.322, 1191.000
1178.407, 1180.000
1179.492, 1224.000
1180.577, 1210.000
1181.662, 1164.000
1182.747, 1238.000
1183.832, 1240.000
1184.916, 1239.000
1186.000, 1191.000
1187.084, 1293.000
1188.168, 1220.000
1189.252, 1262.000
1190.336, 1237.000
1191.419, 1238.000
1192.503, 1255.000
1193.586, 1276.000
1194.669, 1218.000
1195.752, 1195.000
1196.835, 1208.000
1197.917, 1216.000
1199.000, 1149.000
1200.082, 1168.000
1201.164, 1209.000
1202.246, 1175.000
1203.328, 1236.000
1204.409, 1219.000
1205.491, 1184.000
1206.572, 1139.000
1207.653, 1208.000
1208.734, 1223.000
1209.815, 1220.000
1210.896, 1206.000
1211.976, 1175.000
1213.057, 1234.000
1214.137, 1185.000
1215.217, 1198.000
1216.297, 1266.000
1217.377, 1208.000
1218.456, 1252.000
1219.536, 1254.000
1220.615, 1272.000
1221.694, 1270.000
1222.773, 1243.000
1223.852, 1308.000
1224.931, 1219.000
1226.009, 1219.000
1227.088, 1254.000
1228.166, 1262.000
1229.244, 1258.000
1230.322, 1282.000
1231.400, 1256.000
1232.477, 1245.000
1233.555, 1212.000
1234.632, 1219.594
1235.709, 1230.000
1236.786, 1225.000
1237.863, 1254.000
1238.939, 1241.000
1240.016, 1282.000
1241.092, 1237.000
1242.168, 1257.000
1243.245, 1287.000
1244.320, 1247.000
1245.396, 1282.000
1246.472, 1281.000
1247.547, 1276.000
1248.622, 1232.000
1249.697, 1272.000
1250.772, 1245.000
1251.847, 1265.000
1252.922, 1264.000
1253.996, 1276.000
1255.071, 1303.000
1256.145, 1294.000
1257.219, 1279.000
1258.293, 1307.000
1259.366, 1335.000
1260.440, 1299.000
1261.513, 1344.000
1262.587, 1326.000
1263.660, 1349.000
1264.733, 1321.000
1265.805, 1393.000
1266.878, 1432.000
1267.951, 1341.000
1269.023, 1412.000
1270.095, 1373.000
1271.167, 1392.000
1272.239, 1410.000
1273.311, 1418.000
1274.382, 1420.000
1275.454, 1384.000
1276.525, 1355.000
1277.596, 1402.000
1278.667, 1345.000
1279.738, 1357.000
1280.808, 1329.000
1281.879, 1333.000
1282.949, 1398.000
1284.019, 1344.000
1285.089, 1293.000
1286.159, 1386.000
1287.229, 1316.000
1288.298, 1338.000
1289.368, 1377.000
1290.437, 1286.000
1291.506, 1327.000
1292.575, 1321.000
1293.644, 1305.000
1294.712, 1327.000
1295.781, 1285.000
1296.849, 1281.000
1297.917, 1318.000
1298.985, 1347.000
1300.053, 1371.000
1301.121, 1308.000
1302.188, 1295.000
1303.255, 1280.000
1304.323, 1272.000
1305.390, 1304.000
1306.457, 1317.000
1307.523, 1314.000
1308.590, 1327.000
1309.656, 1316.000
1310.723, 1330.000
1311.789, 1278.000
1312.855, 1291.000
1313.921, 1314.000
1314.986, 1308.000
1316.052, 1342.000
1317.117, 1312.000
1318.182, 1314.000
1319.248, 1269.000
1320.312, 1309.000
1321.377, 1326.000
1322.442, 1281.000
1323.506, 1342.000
1324.571, 1318.000
1325.635, 1301.000
1326.699, 1318.000
1327.762, 1281.000
1328.826, 1344.000
1329.890, 1383.000
1330.953, 1358.000
1332.016, 1371.000
1333.079, 1400.000
1334.142, 1395.000
1335.205, 1390.000
1336.268, 1381.000
1337.330, 1382.000
1338.392, 1381.960
1339.454, 1430.000
1340.516, 1399.000
1341.578, 1424.000
1342.640, 1456.000
1343.701, 1408.000
1344.763, 1410.000
1345.824, 1449.000
1346.885, 1436.000
1347.946, 1459.435
1349.007, 1457.992
1350.067, 1479.000
1351.128, 1454.000
1352.188, 1440.000
1353.248, 1445.000
1354.308, 1462.000
1355.368, 1487.000
1356.428, 1453.000
1357.487, 1452.000
1358.547, 1475.000
1359.606, 1427.000
1360.665, 1393.000
1361.724, 1423.000
1362.783, 1402.000
1363.841, 1424.000
1364.900, 1414.411
1365.958, 1397.000
1367.016, 1393.000
1368.074, 1384.000
1369.132, 1367.000
1370.190, 1347.000
1371.247, 1369.000
1372.304, 1379.000
1373.362, 1365.000
1374.419, 1356.000
1375.476, 1364.000
1376.532, 1334.000
1377.589, 1345.000
1378.645, 1364.000
1379.702, 1318.000
1380.758, 1342.000
1381.814, 1304.000
1382.870, 1367.000
1383.925, 1366.000
1384.981, 1393.000
1386.036, 1391.000
1387.092, 1358.000
1388.147, 1360.000
1389.202, 1349.000
1390.256, 1352.000
1391.311, 1339.000
1392.365, 1376.000
1393.420, 1349.000
1394.474, 1408.000
1395.528, 1396.000
1396.582, 1403.000
1397.636, 1450.000
1398.689, 1390.000
1399.742, 1384.000
1400.796, 1415.000
1401.849, 1425.000
1402.902, 1393.000
1403.955, 1376.000
1405.007, 1447.000
1406.060, 1382.000
1407.112, 1394.000
1408.164, 1440.000
1409.216, 1395.000
1410.268, 1430.000
1411.320, 1394.000
1412.371, 1383.000
1413.423, 1426.000
1414.474, 1423.000
1415.525, 1381.000
1416.576, 1401.000
1417.627, 1432.000
1418.678, 1430.000
1419.728, 1446.410
1420.778, 1485.000
1421.829, 1454.000
1422.879, 1445.000
1423.928, 1438.000
1424.978, 1474.000
1426.028, 1453.000
1427.077, 1453.000
1428.126, 1525.000
1429.176, 1506.000
1430.225, 1532.000
1431.273, 1508.000
1432.322, 1517.000
1433.371, 1531.000
1434.419, 1477.000
1435.467, 1477.000
1436.515, 1536.000
1437.563, 1498.000
1438.611, 1501.000
1439.658, 1537.000
1440.706, 1549.000
1441.753, 1534.000
1442.800, 1591.000
1443.847, 1584.000
1444.894, 1607.940
1445.941, 1577.000
1446.987, 1646.000
1448.034, 1612.000
1449.080, 1622.000
1450.126, 1636.000
1451.172, 1646.000
1452.218, 1738.000
1453.263, 1714.000
1454.309, 1812.000
1455.354, 1819.000
1456.399, 1882.000
1457.444, 1942.359
1458.489, 1980.000
1459.534, 2038.000
1460.579, 2115.000
1461.623, 2123.000
1462.667, 2148.000
1463.711, 2251.000
1464.755, 2172.000
1465.799, 2246.000
1466.843, 2117.000
1467.886, 2078.000
1468.930, 2056.000
1469.973, 1927.000
1471.016, 1954.000
1472.059, 1863.000
1473.101, 1876.000
1474.144, 1832.000
1475.186, 1827.000
1476.229, 1801.000
1477.271, 1792.000
1478.313, 1775.000
1479.355, 1767.845
1480.396, 1762.000
1481.438, 1758.000
1482.479, 1777.000
1483.520, 1771.000
1484.561, 1691.000
1485.602, 1712.000
1486.643, 1639.000
1487.684, 1683.000
1488.724, 1672.000
1489.765, 1688.000
1490.805, 1626.000
1491.845, 1636.000
1492.885, 1640.000
1493.924, 1630.000
1494.964, 1638.052
1496.003, 1627.373
1497.042, 1647.000
1498.082, 1640.000
1499.120, 1657.000
1500.159, 1730.000
1501.198, 1676.000
1502.236, 1641.000
1503.275, 1641.000
1504.313, 1712.000
1505.351, 1682.000
1506.389, 1721.000
1507.427, 1749.000
1508.464, 1739.000
1509.502, 1756.446
1510.539, 1661.000
1511.576, 1750.000
1512.613, 1714.000
1513.650, 1701.000
1514.687, 1734.000
1515.723, 1712.000
1516.759, 1713.000
1517.796, 1691.000
1518.832, 1673.000
1519.868, 1679.000
1520.903, 1654.000
1521.939, 1653.000
1522.975, 1658.000
1524.010, 1623.000
1525.045, 1624.296
1526.080, 1610.248
1527.115, 1607.000
1528.150, 1588.000
1529.184, 1593.000
1530.219, 1584.000
1531.253, 1539.000
1532.287, 1482.000
1533.321, 1543.000
1534.355, 1501.000
1535.388, 1559.000
1536.422, 1459.000
1537.455, 1548.000
1538.488, 1452.000
1539.522, 1517.000
1540.554, 1514.000
1541.587, 1496.000
1542.620, 1480.000
1543.652, 1462.000
1544.685, 1479.000
1545.717, 1496.000
1546.749, 1480.000
1547.781, 1479.000
1548.812, 1473.000
1549.844, 1436.000
1550.875, 1455.000
1551.906, 1473.000
1552.938, 1459.000
1553.968, 1420.000
1554.999, 1460.000
1556.030, 1446.000
1557.060, 1444.000
1558.091, 1460.000
1559.121, 1452.000
1560.151, 1452.000
1561.181, 1456.000
1562.211, 1433.000
1563.240, 1433.000
1564.270, 1426.000
1565.299, 1446.000
1566.328, 1467.000
1567.357, 1449.000
1568.386, 1497.000
1569.415, 1473.000
1570.443, 1400.000
1571.472, 1450.000
1572.500, 1486.000
1573.528, 1435.000
1574.556, 1465.000
1575.584, 1418.000
1576.611, 1458.000
1577.639, 1467.000
1578.666, 1448.000
1579.693, 1504.000
##END=



