##NAMES=Zircon
##RRUFFID=R050488
##IDEAL CHEMISTRY=Zr^4+^SiO_4_
##LOCALITY=Sigulani Village, Tambani Area, Blantyre District, Nyassaland
##OWNER=RRUFF
##SOURCE=California Institute of Technology
##DESCRIPTION=Brown fragment
##STATUS=The identification of this mineral has been confirmed by X-ray diffraction and chemical analysis
##URL=rruff.info/R050488
##MEASURED CHEMISTRY=(Zr_0.99_Hf_0.01_)_Î£=1_Si_1.00_O_4_
##PIN_ID=L01932
##ORIENTATION=Laser parallel to -a* (-1 0 0). Fiducial mark perpendicular to laser is parallel to c [0 0 1]
63.41100, 81.00000
64.65300, 76.00000
65.89600, 84.00000
67.13800, 48.00000
68.38000, 65.00000
69.62200, 55.00000
70.86300, 65.00000
72.10500, 62.00000
73.34600, 72.00000
74.58700, 66.00000
75.82800, 88.00000
77.06900, 54.00000
78.30900, 67.00000
79.55000, 66.00000
80.79000, 85.00000
82.03000, 65.00000
83.27000, 64.00000
84.51000, 74.00000
85.74900, 71.00000
86.98900, 78.00000
88.22800, 60.00000
89.46700, 76.00000
90.70600, 88.00000
91.94400, 110.0000
93.18300, 87.00000
94.42100, 114.0000
95.65900, 104.0000
96.89700, 125.0000
98.13500, 142.0000
99.37300, 162.0000
100.6100, 179.0000
101.8480, 199.0000
103.0850, 215.0000
104.3220, 249.0000
105.5590, 294.0000
106.7950, 327.0496
108.0320, 414.0000
109.2680, 425.0000
110.5040, 485.0000
111.7400, 561.0000
112.9760, 589.0000
114.2120, 641.0000
115.4470, 718.0000
116.6820, 806.0000
117.9170, 847.0000
119.1520, 922.0000
120.3870, 849.0000
121.6220, 767.0000
122.8560, 730.0000
124.0900, 700.0000
125.3240, 711.0000
126.5580, 686.0000
127.7920, 713.0000
129.0260, 711.0000
130.2590, 707.0000
131.4920, 711.0000
132.7250, 758.0000
133.9580, 741.0000
135.1910, 769.0000
136.4230, 714.0000
137.6560, 754.0000
138.8880, 749.0000
140.1200, 754.0000
141.3520, 770.0000
142.5830, 805.0000
143.8150, 753.0000
145.0460, 785.0000
146.2770, 785.0000
147.5080, 768.0000
148.7390, 786.0000
149.9700, 802.0000
151.2000, 806.0000
152.4310, 801.0000
153.6610, 813.0000
154.8910, 794.0000
156.1210, 835.0000
157.3500, 802.0000
158.5800, 826.0000
159.8090, 816.0000
161.0380, 863.0000
162.2670, 886.0000
163.4960, 851.0000
164.7240, 856.0000
165.9530, 840.0000
167.1810, 826.0000
168.4090, 852.0000
169.6370, 821.0000
170.8650, 818.0000
172.0920, 872.0000
173.3200, 862.0000
174.5470, 859.0000
175.7740, 812.0000
177.0010, 838.0000
178.2280, 825.0000
179.4540, 824.0000
180.6810, 826.0000
181.9070, 847.0000
183.1330, 862.0000
184.3590, 847.0000
185.5850, 865.0000
186.8100, 841.0000
188.0350, 858.0000
189.2610, 877.0000
190.4860, 911.0000
191.7110, 941.0000
192.9350, 976.0000
194.1600, 951.0000
195.3840, 1013.000
196.6080, 1020.000
197.8320, 1055.000
199.0560, 1097.000
200.2800, 1092.000
201.5030, 1156.000
202.7270, 1239.000
203.9500, 1227.000
205.1730, 1201.000
206.3950, 1159.000
207.6180, 1124.000
208.8410, 1023.000
210.0630, 1014.000
211.2850, 971.0000
212.5070, 971.0000
213.7290, 998.0000
214.9500, 1012.924
216.1720, 1075.767
217.3930, 1096.000
218.6140, 1229.000
219.8350, 1280.000
221.0560, 1375.000
222.2770, 1460.000
223.4970, 1453.000
224.7170, 1566.000
225.9370, 1552.000
227.1570, 1537.000
228.3770, 1543.000
229.5970, 1440.000
230.8160, 1287.000
232.0350, 1114.000
233.2540, 1032.000
234.4730, 1006.000
235.6920, 959.0000
236.9110, 920.0000
238.1290, 900.0000
239.3470, 886.1566
240.5650, 873.0000
241.7830, 881.0000
243.0010, 886.0000
244.2180, 877.0000
245.4360, 909.0000
246.6530, 884.0000
247.8700, 920.0000
249.0870, 865.0000
250.3040, 888.0000
251.5200, 893.0000
252.7370, 937.0000
253.9530, 886.0000
255.1690, 865.0000
256.3850, 889.0000
257.6000, 888.0000
258.8160, 875.0000
260.0310, 876.0000
261.2460, 873.4462
262.4610, 867.0000
263.6760, 862.0000
264.8910, 874.0000
266.1050, 873.3435
267.3200, 864.0000
268.5340, 885.0000
269.7480, 877.0000
270.9620, 878.0000
272.1750, 908.0000
273.3890, 871.0000
274.6020, 891.9479
275.8150, 891.0000
277.0280, 894.0000
278.2410, 894.0000
279.4540, 879.0000
280.6660, 914.0000
281.8790, 893.0000
283.0910, 879.0000
284.3030, 928.0000
285.5140, 929.0000
286.7260, 908.0000
287.9380, 893.0000
289.1490, 948.0000
290.3600, 925.0000
291.5710, 936.0000
292.7820, 949.0000
293.9920, 944.0812
295.2030, 929.0000
296.4130, 957.0000
297.6230, 949.0000
298.8330, 960.0000
300.0430, 973.0000
301.2520, 925.0000
302.4620, 889.0000
303.6710, 925.0000
304.8800, 936.0000
306.0890, 936.0000
307.2980, 956.0000
308.5070, 1012.000
309.7150, 983.0000
310.9230, 932.0000
312.1310, 977.0000
313.3390, 953.0000
314.5470, 970.0000
315.7550, 959.0000
316.9620, 1008.000
318.1690, 1023.000
319.3760, 1004.000
320.5830, 1012.000
321.7900, 1016.000
322.9960, 1005.927
324.2030, 1045.000
325.4090, 998.0000
326.6150, 1043.000
327.8210, 1047.000
329.0270, 995.0000
330.2320, 1035.000
331.4380, 994.0000
332.6430, 1022.000
333.8480, 1008.000
335.0530, 1022.000
336.2580, 1044.000
337.4620, 1053.000
338.6670, 1087.000
339.8710, 1128.000
341.0750, 1118.000
342.2790, 1179.000
343.4820, 1253.000
344.6860, 1354.000
345.8890, 1451.000
347.0920, 1588.000
348.2960, 1800.000
349.4980, 2000.000
350.7010, 2242.000
351.9040, 2487.000
353.1060, 2745.000
354.3080, 2959.000
355.5100, 3161.000
356.7120, 3279.000
357.9140, 3310.000
359.1150, 3211.000
360.3170, 3069.000
361.5180, 2715.000
362.7190, 2356.000
363.9200, 2052.000
365.1200, 1761.000
366.3210, 1556.000
367.5210, 1421.000
368.7210, 1293.000
369.9210, 1281.000
371.1210, 1250.000
372.3210, 1219.000
373.5200, 1230.000
374.7200, 1181.000
375.9190, 1200.000
377.1180, 1132.000
378.3170, 1169.000
379.5150, 1120.000
380.7140, 1193.000
381.9120, 1148.000
383.1110, 1123.000
384.3090, 1143.000
385.5060, 1133.000
386.7040, 1122.120
387.9020, 1146.000
389.0990, 1124.000
390.2960, 1106.000
391.4930, 1157.000
392.6900, 1098.000
393.8860, 1161.000
395.0830, 1151.000
396.2790, 1136.000
397.4750, 1135.000
398.6710, 1184.000
399.8670, 1178.000
401.0630, 1171.000
402.2580, 1142.000
403.4540, 1184.000
404.6490, 1193.000
405.8440, 1166.000
407.0390, 1216.000
408.2330, 1225.000
409.4280, 1215.000
410.6220, 1235.000
411.8160, 1265.000
413.0100, 1269.000
414.2040, 1261.000
415.3980, 1310.000
416.5910, 1297.000
417.7850, 1383.000
418.9780, 1378.000
420.1710, 1498.000
421.3640, 1501.000
422.5560, 1532.000
423.7490, 1665.000
424.9410, 1759.000
426.1330, 1871.000
427.3250, 2103.000
428.5170, 2392.000
429.7090, 2787.000
430.9000, 3298.000
432.0910, 3876.000
433.2820, 4515.000
434.4730, 5371.000
435.6640, 6185.000
436.8550, 6884.000
438.0450, 7552.000
439.2360, 8272.000
440.4260, 8424.000
441.6160, 8356.000
442.8060, 7731.000
443.9950, 6711.000
445.1850, 5701.000
446.3740, 4592.000
447.5630, 3656.000
448.7520, 2998.000
449.9410, 2558.000
451.1300, 2259.000
452.3180, 1942.000
453.5060, 1789.000
454.6950, 1735.000
455.8830, 1588.000
457.0700, 1573.000
458.2580, 1476.000
459.4450, 1448.000
460.6330, 1402.000
461.8200, 1377.000
463.0070, 1337.000
464.1940, 1309.000
465.3800, 1294.000
466.5670, 1261.000
467.7530, 1252.000
468.9390, 1219.000
470.1250, 1218.000
471.3110, 1204.821
472.4970, 1201.000
473.6820, 1196.000
474.8680, 1178.000
476.0530, 1183.000
477.2380, 1158.000
478.4230, 1162.000
479.6070, 1127.000
480.7920, 1157.000
481.9760, 1156.000
483.1600, 1157.000
484.3440, 1100.000
485.5280, 1117.000
486.7120, 1089.000
487.8950, 1097.000
489.0780, 1089.000
490.2620, 1155.000
491.4450, 1111.000
492.6270, 1117.000
493.8100, 1073.000
494.9920, 1108.000
496.1750, 1087.000
497.3570, 1090.000
498.5390, 1120.000
499.7210, 1052.000
500.9020, 1092.000
502.0840, 1075.000
503.2650, 1092.000
504.4460, 1085.000
505.6270, 1099.000
506.8080, 1091.000
507.9890, 1105.000
509.1690, 1102.000
510.3500, 1105.000
511.5300, 1073.000
512.7100, 1083.000
513.8900, 1083.303
515.0690, 1067.000
516.2490, 1100.000
517.4280, 1100.000
518.6070, 1108.000
519.7860, 1137.000
520.9650, 1100.000
522.1440, 1060.000
523.3220, 1093.000
524.5010, 1080.000
525.6790, 1094.000
526.8570, 1080.000
528.0350, 1103.000
529.2130, 1102.000
530.3900, 1118.000
531.5670, 1100.000
532.7450, 1091.000
533.9220, 1063.000
535.0980, 1089.000
536.2750, 1058.000
537.4520, 1107.000
538.6280, 1117.000
539.8040, 1078.000
540.9800, 1114.000
542.1560, 1080.000
543.3320, 1112.000
544.5070, 1068.000
545.6830, 1112.000
546.8580, 1109.000
548.0330, 1133.000
549.2080, 1111.000
550.3830, 1112.000
551.5570, 1113.000
552.7310, 1095.000
553.9060, 1104.000
555.0800, 1103.000
556.2540, 1087.000
557.4270, 1117.000
558.6010, 1057.000
559.7740, 1096.000
560.9470, 1168.000
562.1210, 1108.000
563.2930, 1121.000
564.4660, 1105.000
565.6390, 1093.000
566.8110, 1119.000
567.9830, 1098.000
569.1550, 1080.000
570.3270, 1152.000
571.4990, 1050.000
572.6710, 1107.000
573.8420, 1113.000
575.0130, 1091.000
576.1840, 1099.000
577.3550, 1090.000
578.5260, 1118.000
579.6970, 1069.000
580.8670, 1062.000
582.0370, 1052.000
583.2070, 1104.000
584.3770, 1088.000
585.5470, 1126.000
586.7170, 1067.000
587.8860, 1057.000
589.0550, 1068.000
590.2240, 1054.000
591.3930, 1095.000
592.5620, 1103.000
593.7310, 1112.000
594.8990, 1098.000
596.0670, 1118.000
597.2350, 1097.000
598.4030, 1099.000
599.5710, 1118.000
600.7390, 1088.000
601.9060, 1107.000
603.0740, 1112.000
604.2410, 1100.000
605.4080, 1124.000
606.5740, 1143.000
607.7410, 1103.000
608.9080, 1085.000
610.0740, 1113.000
611.2400, 1115.000
612.4060, 1112.000
613.5720, 1107.000
614.7370, 1123.000
615.9030, 1107.000
617.0680, 1105.000
618.2330, 1115.000
619.3980, 1155.000
620.5630, 1163.000
621.7280, 1160.049
622.8920, 1073.000
624.0570, 1137.000
625.2210, 1104.000
626.3850, 1085.000
627.5490, 1151.000
628.7120, 1130.000
629.8760, 1132.000
631.0390, 1130.000
632.2020, 1124.793
633.3650, 1093.000
634.5280, 1129.000
635.6910, 1143.000
636.8530, 1155.000
638.0160, 1113.000
639.1780, 1107.000
640.3400, 1124.000
641.5020, 1159.000
642.6640, 1125.000
643.8250, 1135.000
644.9870, 1093.000
646.1480, 1135.000
647.3090, 1135.000
648.4700, 1153.000
649.6300, 1137.000
650.7910, 1157.000
651.9510, 1110.000
653.1120, 1157.000
654.2720, 1158.000
655.4320, 1189.000
656.5910, 1148.000
657.7510, 1139.000
658.9100, 1155.000
660.0690, 1166.000
661.2290, 1151.000
662.3880, 1110.000
663.5460, 1144.000
664.7050, 1151.000
665.8630, 1177.000
667.0220, 1107.000
668.1800, 1140.000
669.3380, 1135.000
670.4950, 1146.000
671.6530, 1170.000
672.8100, 1161.000
673.9680, 1164.584
675.1250, 1149.000
676.2820, 1157.000
677.4390, 1157.000
678.5950, 1167.000
679.7520, 1150.000
680.9080, 1150.000
682.0640, 1150.000
683.2200, 1135.000
684.3760, 1158.000
685.5320, 1147.729
686.6870, 1162.000
687.8420, 1150.000
688.9980, 1154.000
690.1530, 1163.000
691.3070, 1150.475
692.4620, 1164.000
693.6170, 1151.000
694.7710, 1141.000
695.9250, 1174.000
697.0790, 1182.000
698.2330, 1158.000
699.3870, 1155.000
700.5400, 1191.000
701.6940, 1174.000
702.8470, 1178.000
704.0000, 1150.000
705.1530, 1151.000
706.3050, 1199.000
707.4580, 1151.000
708.6100, 1185.000
709.7630, 1201.000
710.9150, 1200.000
712.0660, 1223.000
713.2180, 1197.000
714.3700, 1180.000
715.5210, 1196.000
716.6720, 1184.000
717.8240, 1182.000
718.9740, 1187.700
720.1250, 1174.000
721.2760, 1187.000
722.4260, 1198.000
723.5770, 1187.000
724.7270, 1180.000
725.8770, 1155.000
727.0260, 1124.000
728.1760, 1141.000
729.3250, 1155.000
730.4750, 1137.000
731.6240, 1206.000
732.7730, 1202.000
733.9220, 1166.000
735.0700, 1173.000
736.2190, 1136.000
737.3670, 1181.000
738.5150, 1191.000
739.6630, 1170.000
740.8110, 1200.000
741.9590, 1161.000
743.1060, 1186.000
744.2540, 1201.000
745.4010, 1213.000
746.5480, 1212.495
747.6950, 1151.000
748.8410, 1190.000
749.9880, 1181.000
751.1340, 1151.000
752.2800, 1183.000
753.4260, 1198.000
754.5720, 1191.000
755.7180, 1198.000
756.8640, 1164.000
758.0090, 1137.000
759.1540, 1213.000
760.2990, 1225.000
761.4440, 1144.000
762.5890, 1207.000
763.7340, 1234.000
764.8780, 1184.000
766.0220, 1203.000
767.1660, 1215.000
768.3100, 1200.000
769.4540, 1195.000
770.5980, 1176.000
771.7410, 1169.000
772.8840, 1219.000
774.0280, 1199.000
775.1700, 1240.000
776.3130, 1203.000
777.4560, 1191.000
778.5980, 1225.000
779.7410, 1205.000
780.8830, 1186.000
782.0250, 1206.000
783.1670, 1213.000
784.3080, 1245.000
785.4500, 1227.000
786.5910, 1220.000
787.7320, 1227.000
788.8730, 1223.000
790.0140, 1258.000
791.1550, 1235.000
792.2950, 1238.000
793.4360, 1251.000
794.5760, 1221.000
795.7160, 1251.000
796.8560, 1270.000
797.9960, 1288.000
799.1350, 1235.000
800.2750, 1287.000
801.4140, 1259.000
802.5530, 1199.000
803.6920, 1281.000
804.8310, 1266.000
805.9690, 1245.000
807.1080, 1196.000
808.2460, 1213.000
809.3840, 1223.000
810.5220, 1194.000
811.6600, 1200.000
812.7970, 1246.000
813.9350, 1196.000
815.0720, 1220.000
816.2090, 1241.000
817.3460, 1205.000
818.4830, 1230.000
819.6200, 1220.000
820.7560, 1222.000
821.8930, 1196.000
823.0290, 1269.000
824.1650, 1243.000
825.3010, 1235.000
826.4360, 1254.000
827.5720, 1210.000
828.7070, 1200.000
829.8420, 1212.000
830.9770, 1240.000
832.1120, 1241.000
833.2470, 1230.000
834.3820, 1222.000
835.5160, 1213.000
836.6500, 1211.000
837.7840, 1233.000
838.9180, 1246.000
840.0520, 1235.000
841.1860, 1269.000
842.3190, 1254.000
843.4520, 1213.000
844.5850, 1238.000
845.7180, 1247.000
846.8510, 1229.000
847.9840, 1250.000
849.1160, 1208.000
850.2490, 1242.000
851.3810, 1255.000
852.5130, 1213.000
853.6450, 1228.000
854.7760, 1227.000
855.9080, 1225.000
857.0390, 1216.000
858.1700, 1222.334
859.3010, 1217.000
860.4320, 1227.000
861.5630, 1241.000
862.6930, 1235.000
863.8240, 1251.000
864.9540, 1257.000
866.0840, 1272.000
867.2140, 1239.000
868.3440, 1258.000
869.4730, 1274.000
870.6030, 1254.000
871.7320, 1286.000
872.8610, 1295.000
873.9900, 1282.000
875.1190, 1302.000
876.2470, 1293.669
877.3760, 1258.000
878.5040, 1286.000
879.6320, 1295.000
880.7600, 1288.000
881.8880, 1252.000
883.0150, 1277.000
884.1430, 1271.000
885.2700, 1287.000
886.3970, 1253.000
887.5240, 1280.000
888.6510, 1255.000
889.7780, 1247.000
890.9040, 1259.000
892.0310, 1296.000
893.1570, 1228.000
894.2830, 1269.000
895.4090, 1314.000
896.5350, 1270.000
897.6600, 1321.000
898.7860, 1280.000
899.9110, 1293.000
901.0360, 1297.000
902.1610, 1321.000
903.2860, 1317.000
904.4100, 1296.000
905.5350, 1344.000
906.6590, 1312.000
907.7830, 1298.000
908.9070, 1259.000
910.0310, 1300.000
911.1540, 1307.000
912.2780, 1351.000
913.4010, 1290.000
914.5240, 1294.000
915.6470, 1313.000
916.7700, 1314.000
917.8930, 1306.000
919.0150, 1334.000
920.1380, 1332.000
921.2600, 1322.000
922.3820, 1330.000
923.5040, 1316.000
924.6260, 1332.000
925.7470, 1295.000
926.8690, 1339.000
927.9900, 1316.000
929.1110, 1278.000
930.2320, 1361.000
931.3530, 1300.000
932.4730, 1333.000
933.5940, 1357.000
934.7140, 1284.000
935.8340, 1273.000
936.9540, 1303.000
938.0740, 1283.000
939.1930, 1269.000
940.3130, 1283.004
941.4320, 1326.000
942.5510, 1299.000
943.6700, 1330.000
944.7890, 1358.000
945.9080, 1313.000
947.0260, 1319.000
948.1450, 1325.000
949.2630, 1327.000
950.3810, 1349.000
951.4990, 1321.000
952.6170, 1357.000
953.7340, 1370.000
954.8520, 1339.000
955.9690, 1328.000
957.0860, 1310.000
958.2030, 1326.000
959.3200, 1337.000
960.4360, 1362.000
961.5530, 1351.000
962.6690, 1345.000
963.7850, 1313.000
964.9010, 1358.000
966.0170, 1335.000
967.1330, 1384.000
968.2480, 1438.000
969.3630, 1435.000
970.4790, 1489.000
971.5940, 1452.000
972.7080, 1555.000
973.8230, 1552.000
974.9380, 1623.000
976.0520, 1579.000
977.1660, 1598.000
978.2800, 1521.000
979.3940, 1485.000
980.5080, 1444.000
981.6220, 1436.000
982.7350, 1421.000
983.8480, 1397.000
984.9610, 1353.000
986.0740, 1356.000
987.1870, 1395.000
988.3000, 1376.000
989.4120, 1459.000
990.5250, 1395.000
991.6370, 1412.000
992.7490, 1433.000
993.8610, 1410.000
994.9720, 1422.000
996.0840, 1475.000
997.1950, 1465.000
998.3060, 1497.000
999.4170, 1437.000
1000.528, 1485.000
1001.639, 1493.000
1002.750, 1521.000
1003.860, 1586.000
1004.970, 1626.000
1006.080, 1702.000
1007.190, 1794.000
1008.300, 1821.000
1009.410, 1859.000
1010.519, 1898.000
1011.628, 1773.000
1012.738, 1638.000
1013.846, 1574.000
1014.955, 1493.000
1016.064, 1516.000
1017.172, 1464.000
1018.281, 1454.000
1019.389, 1501.000
1020.497, 1465.000
1021.605, 1418.000
1022.713, 1459.000
1023.820, 1449.000
1024.928, 1433.000
1026.035, 1457.000
1027.142, 1437.000
1028.249, 1461.000
1029.356, 1462.000
1030.462, 1514.000
1031.569, 1504.584
1032.675, 1483.000
1033.781, 1496.000
1034.887, 1481.000
1035.993, 1455.000
1037.098, 1463.000
1038.204, 1478.000
1039.309, 1494.000
1040.415, 1526.000
1041.520, 1525.000
1042.624, 1548.000
1043.729, 1521.000
1044.834, 1528.000
1045.938, 1551.000
1047.042, 1617.000
1048.146, 1589.000
1049.250, 1679.000
1050.354, 1772.000
1051.458, 1828.000
1052.561, 1863.000
1053.664, 1954.000
1054.767, 2011.000
1055.870, 2069.000
1056.973, 2030.000
1058.076, 2055.000
1059.178, 1989.000
1060.281, 1869.000
1061.383, 1777.000
1062.485, 1698.000
1063.587, 1659.000
1064.688, 1644.000
1065.790, 1562.000
1066.891, 1519.000
1067.993, 1565.000
1069.094, 1583.000
1070.195, 1514.000
1071.295, 1464.000
1072.396, 1536.000
1073.496, 1542.000
1074.597, 1578.000
1075.697, 1583.000
1076.797, 1600.000
1077.897, 1577.000
1078.996, 1561.000
1080.096, 1646.000
1081.195, 1643.000
1082.294, 1726.000
1083.393, 1743.000
1084.492, 1757.000
1085.591, 1860.000
1086.689, 1946.000
1087.788, 1926.000
1088.886, 1946.000
1089.984, 1930.000
1091.082, 1867.000
1092.180, 1831.000
1093.277, 1755.000
1094.375, 1730.000
1095.472, 1670.000
1096.569, 1716.000
1097.666, 1582.000
1098.763, 1638.000
1099.860, 1610.000
1100.956, 1596.000
1102.053, 1555.000
1103.149, 1554.000
1104.245, 1617.000
1105.341, 1608.000
1106.436, 1628.000
1107.532, 1674.000
1108.627, 1680.000
1109.723, 1673.000
1110.818, 1769.000
1111.913, 1761.000
1113.007, 1760.000
1114.102, 1728.000
1115.197, 1680.000
1116.291, 1682.993
1117.385, 1660.000
1118.479, 1656.000
1119.573, 1641.000
1120.666, 1607.000
1121.760, 1559.000
1122.853, 1595.000
1123.947, 1538.000
1125.040, 1600.000
1126.132, 1543.000
1127.225, 1588.266
1128.318, 1574.920
1129.410, 1632.000
1130.502, 1559.000
1131.595, 1499.000
1132.687, 1494.000
1133.778, 1584.000
1134.870, 1550.000
1135.961, 1565.000
1137.053, 1500.000
1138.144, 1531.000
1139.235, 1549.000
1140.326, 1551.000
1141.416, 1587.000
1142.507, 1604.647
1143.597, 1677.000
1144.688, 1668.000
1145.778, 1704.000
1146.868, 1757.000
1147.957, 1736.000
1149.047, 1746.000
1150.136, 1695.000
1151.226, 1653.000
1152.315, 1610.000
1153.404, 1617.000
1154.493, 1572.000
1155.581, 1563.000
1156.670, 1522.000
1157.758, 1484.000
1158.846, 1489.000
1159.934, 1549.000
1161.022, 1537.000
1162.110, 1537.000
1163.198, 1516.000
1164.285, 1558.000
1165.372, 1484.000
1166.459, 1494.000
1167.546, 1537.000
1168.633, 1514.000
1169.720, 1554.000
1170.806, 1534.000
1171.892, 1563.000
1172.979, 1553.000
1174.065, 1520.000
1175.150, 1531.000
1176.236, 1512.000
1177.322, 1517.000
1178.407, 1519.000
1179.492, 1494.000
1180.577, 1534.000
1181.662, 1533.000
1182.747, 1523.000
1183.832, 1532.000
1184.916, 1577.000
1186.000, 1559.000
1187.084, 1487.000
1188.168, 1540.000
1189.252, 1553.000
1190.336, 1524.000
1191.419, 1555.000
1192.503, 1548.000
1193.586, 1531.000
1194.669, 1600.000
1195.752, 1578.000
1196.835, 1535.000
1197.917, 1561.000
1199.000, 1588.000
1200.082, 1653.000
1201.164, 1587.000
1202.246, 1539.000
1203.328, 1556.000
1204.409, 1578.000
1205.491, 1559.000
1206.572, 1595.000
1207.653, 1566.000
1208.734, 1555.000
1209.815, 1566.000
1210.896, 1595.000
1211.976, 1553.000
1213.057, 1601.000
1214.137, 1593.000
1215.217, 1556.000
1216.297, 1605.000
1217.377, 1639.000
1218.456, 1597.000
1219.536, 1573.000
1220.615, 1608.000
1221.694, 1569.000
1222.773, 1564.000
1223.852, 1624.000
1224.931, 1602.000
1226.009, 1581.000
1227.088, 1573.000
1228.166, 1611.000
1229.244, 1577.000
1230.322, 1581.332
1231.400, 1605.000
1232.477, 1576.000
1233.555, 1576.000
1234.632, 1611.000
1235.709, 1600.000
1236.786, 1586.000
1237.863, 1616.000
1238.939, 1640.000
1240.016, 1625.000
1241.092, 1656.304
1242.168, 1638.000
1243.245, 1673.000
1244.320, 1648.000
1245.396, 1621.000
1246.472, 1633.000
1247.547, 1656.000
1248.622, 1627.000
1249.697, 1647.000
1250.772, 1601.000
1251.847, 1660.000
1252.922, 1630.000
1253.996, 1645.000
1255.071, 1646.290
1256.145, 1659.729
1257.219, 1634.000
1258.293, 1688.000
1259.366, 1694.000
1260.440, 1668.000
1261.513, 1626.000
1262.587, 1718.000
1263.660, 1734.000
1264.733, 1691.000
1265.805, 1743.000
1266.878, 1707.000
1267.951, 1705.000
1269.023, 1731.000
1270.095, 1788.000
1271.167, 1738.000
1272.239, 1725.000
1273.311, 1689.000
1274.382, 1708.000
1275.454, 1699.000
1276.525, 1691.000
1277.596, 1685.000
1278.667, 1690.000
1279.738, 1682.000
1280.808, 1720.000
1281.879, 1705.000
1282.949, 1659.000
1284.019, 1687.000
1285.089, 1669.000
1286.159, 1713.000
1287.229, 1680.000
1288.298, 1644.000
1289.368, 1737.000
1290.437, 1704.000
1291.506, 1727.000
1292.575, 1710.000
1293.644, 1681.000
1294.712, 1639.000
1295.781, 1651.000
1296.849, 1671.000
1297.917, 1671.000
1298.985, 1694.000
1300.053, 1689.000
1301.121, 1671.000
1302.188, 1690.000
1303.255, 1671.000
1304.323, 1701.000
1305.390, 1703.000
1306.457, 1716.000
1307.523, 1694.000
1308.590, 1713.000
1309.656, 1672.000
1310.723, 1674.000
1311.789, 1786.000
1312.855, 1709.000
1313.921, 1735.000
1314.986, 1662.000
1316.052, 1725.000
1317.117, 1735.000
1318.182, 1733.000
1319.248, 1740.000
1320.312, 1741.000
1321.377, 1761.000
1322.442, 1708.000
1323.506, 1698.000
1324.571, 1677.000
1325.635, 1712.000
1326.699, 1756.000
1327.762, 1743.000
1328.826, 1764.433
1329.890, 1708.000
1330.953, 1771.000
1332.016, 1709.000
1333.079, 1719.000
1334.142, 1771.000
1335.205, 1810.000
1336.268, 1746.000
1337.330, 1811.000
1338.392, 1782.000
1339.454, 1769.000
1340.516, 1764.000
1341.578, 1786.000
1342.640, 1792.000
1343.701, 1770.000
1344.763, 1794.000
1345.824, 1759.000
1346.885, 1761.000
1347.946, 1767.000
1349.007, 1748.000
1350.067, 1796.000
1351.128, 1766.000
1352.188, 1785.000
1353.248, 1790.000
1354.308, 1815.000
1355.368, 1816.000
1356.428, 1809.000
1357.487, 1813.701
1358.547, 1780.000
1359.606, 1800.000
1360.665, 1787.000
1361.724, 1775.000
1362.783, 1812.000
1363.841, 1824.000
1364.900, 1739.000
1365.958, 1713.000
1367.016, 1750.000
1368.074, 1772.000
1369.132, 1716.000
1370.190, 1755.000
1371.247, 1754.000
1372.304, 1755.000
1373.362, 1787.000
1374.419, 1785.000
1375.476, 1721.000
1376.532, 1769.000
1377.589, 1725.000
1378.645, 1728.000
1379.702, 1788.000
1380.758, 1857.000
1381.814, 1783.000
1382.870, 1778.000
1383.925, 1790.000
1384.981, 1750.013
1386.036, 1771.000
1387.092, 1746.000
1388.147, 1800.000
1389.202, 1860.000
1390.256, 1818.000
1391.311, 1854.000
1392.365, 1834.000
1393.420, 1806.000
1394.474, 1837.000
1395.528, 1814.000
1396.582, 1836.000
1397.636, 1810.000
1398.689, 1846.000
1399.742, 1846.000
1400.796, 1822.000
1401.849, 1879.000
1402.902, 1815.000
1403.955, 1811.000
1405.007, 1812.000
1406.060, 1825.000
1407.112, 1860.000
1408.164, 1853.601
1409.216, 1830.000
1410.268, 1864.000
1411.320, 1839.000
1412.371, 1850.000
1413.423, 1861.000
1414.474, 1809.000
1415.525, 1795.000
1416.576, 1823.000
1417.627, 1902.000
1418.678, 1823.000
1419.728, 1898.000
1420.778, 1874.000
1421.829, 1847.000
1422.879, 1882.000
1423.928, 1862.000
1424.978, 1912.000
1426.028, 1886.000
1427.077, 1887.000
1428.126, 1915.000
1429.176, 1943.000
1430.225, 1956.000
1431.273, 1986.000
1432.322, 1939.000
1433.371, 1975.000
1434.419, 1934.000
1435.467, 1972.000
1436.515, 1941.000
1437.563, 1935.000
1438.611, 1924.000
1439.658, 2007.000
1440.706, 1973.000
1441.753, 1985.000
1442.800, 2014.000
1443.847, 1963.000
1444.894, 2082.000
1445.941, 2043.000
1446.987, 2081.000
1448.034, 2165.000
1449.080, 2047.000
1450.126, 2182.000
1451.172, 2205.000
1452.218, 2158.000
1453.263, 2277.000
1454.309, 2290.000
1455.354, 2340.000
1456.399, 2460.000
1457.444, 2532.000
1458.489, 2598.000
1459.534, 2680.000
1460.579, 2734.000
1461.623, 2820.000
1462.667, 2870.000
1463.711, 2921.000
1464.755, 2861.000
1465.799, 2885.000
1466.843, 2746.000
1467.886, 2729.000
1468.930, 2626.000
1469.973, 2575.000
1471.016, 2505.000
1472.059, 2463.000
1473.101, 2400.000
1474.144, 2396.000
1475.186, 2416.000
1476.229, 2422.000
1477.271, 2347.000
1478.313, 2335.000
1479.355, 2320.000
1480.396, 2262.000
1481.438, 2229.000
1482.479, 2251.000
1483.520, 2190.000
1484.561, 2239.000
1485.602, 2215.000
1486.643, 2197.000
1487.684, 2203.495
1488.724, 2195.000
1489.765, 2159.000
1490.805, 2173.000
1491.845, 2108.000
1492.885, 2134.000
1493.924, 2047.000
1494.964, 2071.000
1496.003, 2121.000
1497.042, 2074.000
1498.082, 2085.000
1499.120, 2096.000
1500.159, 2022.000
1501.198, 2059.000
1502.236, 2087.000
1503.275, 2070.000
1504.313, 2100.000
1505.351, 2077.000
1506.389, 2058.000
1507.427, 2078.000
1508.464, 2082.000
1509.502, 2091.000
1510.539, 2115.000
1511.576, 2143.000
1512.613, 2106.000
1513.650, 2178.000
1514.687, 2094.000
1515.723, 2009.000
1516.759, 2104.000
1517.796, 2065.000
1518.832, 1961.000
1519.868, 2048.000
1520.903, 2000.000
1521.939, 2104.000
1522.975, 2028.000
1524.010, 2024.000
1525.045, 1977.000
1526.080, 2023.000
1527.115, 1919.000
1528.150, 1994.000
1529.184, 1934.000
1530.219, 1984.000
1531.253, 1962.000
1532.287, 1964.000
1533.321, 1919.000
1534.355, 1920.742
1535.388, 1983.000
1536.422, 1908.000
1537.455, 1933.000
1538.488, 1935.000
1539.522, 1909.788
1540.554, 1927.646
1541.587, 1896.000
1542.620, 1943.000
1543.652, 1940.000
1544.685, 1971.000
1545.717, 1897.000
1546.749, 1941.000
1547.781, 1976.000
1548.812, 1888.000
1549.844, 1969.000
1550.875, 1908.000
1551.906, 1895.000
1552.938, 1933.000
1553.968, 1904.000
1554.999, 1894.000
1556.030, 1907.000
1557.060, 1895.000
1558.091, 1885.000
1559.121, 1903.000
1560.151, 1862.000
1561.181, 1886.000
1562.211, 1922.000
1563.240, 1915.000
1564.270, 1891.000
1565.299, 1865.000
1566.328, 1888.000
1567.357, 1905.000
1568.386, 1911.000
1569.415, 1925.000
1570.443, 1912.000
1571.472, 1870.000
1572.500, 1856.000
1573.528, 1927.000
1574.556, 1899.000
1575.584, 1943.000
1576.611, 1995.000
1577.639, 1908.000
1578.666, 1923.000
1579.693, 1858.000
##END=



