##NAMES=Zircon
##RRUFFID=R050286
##IDEAL CHEMISTRY=Zr^4+^SiO_4_
##LOCALITY=Renfrew County, Ontario, Canada
##OWNER=RRUFF
##SOURCE=Marcus Origlieri
##DESCRIPTION=Brownish red prismatic crystal frozen in matrix, associated with apatite
##STATUS=The identification of this mineral has been confirmed by X-ray diffraction and chemical analysis
##URL=rruff.info/R050286
##MEASURED CHEMISTRY=Zr_1.00_Si_1.00_O_4_; trace amounts of Hf
##PIN_ID=L01183
##ORIENTATION=Laser parallel to -c* (0 0 -1). Fiducial mark perpendicular to laser is parallel to -a [-1 0 0]
63.41100, 841.0000
64.65300, 696.0000
65.89600, 685.0000
67.13800, 668.0000
68.38000, 669.0000
69.62200, 641.0000
70.86300, 636.5623
72.10500, 640.0000
73.34600, 620.0000
74.58700, 652.0000
75.82800, 654.0000
77.06900, 650.0000
78.30900, 638.0000
79.55000, 616.0000
80.79000, 615.3480
82.03000, 618.7033
83.27000, 592.0000
84.51000, 631.0000
85.74900, 597.0000
86.98900, 578.0000
88.22800, 610.0000
89.46700, 590.0000
90.70600, 572.0000
91.94400, 581.0000
93.18300, 661.0000
94.42100, 676.0000
95.65900, 736.0000
96.89700, 793.0000
98.13500, 840.0000
99.37300, 924.0000
100.6100, 1007.000
101.8480, 1118.179
103.0850, 1189.000
104.3220, 1367.000
105.5590, 1516.000
106.7950, 1633.000
108.0320, 1766.000
109.2680, 1939.000
110.5040, 2076.000
111.7400, 2232.000
112.9760, 2374.000
114.2120, 2536.000
115.4470, 2772.000
116.6820, 3001.000
117.9170, 3186.000
119.1520, 3309.000
120.3870, 3206.000
121.6220, 3240.000
122.8560, 3249.000
124.0900, 3251.000
125.3240, 3253.000
126.5580, 3290.000
127.7920, 3312.536
129.0260, 3345.000
130.2590, 3398.000
131.4920, 3488.000
132.7250, 3555.000
133.9580, 3580.000
135.1910, 3577.000
136.4230, 3501.000
137.6560, 3494.000
138.8880, 3629.000
140.1200, 3604.000
141.3520, 3728.000
142.5830, 3649.000
143.8150, 3652.000
145.0460, 3717.000
146.2770, 3723.000
147.5080, 3699.000
148.7390, 3735.000
149.9700, 3762.000
151.2000, 3782.000
152.4310, 3833.000
153.6610, 3729.000
154.8910, 3794.000
156.1210, 3790.000
157.3500, 3826.000
158.5800, 3919.000
159.8090, 3911.000
161.0380, 3975.000
162.2670, 4064.000
163.4960, 4010.000
164.7240, 3974.000
165.9530, 3991.000
167.1810, 4057.000
168.4090, 4040.000
169.6370, 3907.000
170.8650, 4036.000
172.0920, 3997.000
173.3200, 3987.000
174.5470, 4044.000
175.7740, 4061.000
177.0010, 3940.000
178.2280, 4008.000
179.4540, 3987.000
180.6810, 3984.000
181.9070, 3969.000
183.1330, 4021.000
184.3590, 4084.000
185.5850, 4084.000
186.8100, 4151.000
188.0350, 4144.000
189.2610, 4119.000
190.4860, 4259.000
191.7110, 4340.000
192.9350, 4386.000
194.1600, 4514.000
195.3840, 4616.000
196.6080, 4713.000
197.8320, 4779.000
199.0560, 5036.000
200.2800, 5215.000
201.5030, 5410.000
202.7270, 5711.000
203.9500, 5986.000
205.1730, 6365.000
206.3950, 6673.000
207.6180, 6862.000
208.8410, 7278.000
210.0630, 7489.000
211.2850, 7532.000
212.5070, 7632.000
213.7290, 7438.000
214.9500, 7237.000
216.1720, 6910.000
217.3930, 6452.000
218.6140, 5970.000
219.8350, 5682.000
221.0560, 5447.000
222.2770, 5225.000
223.4970, 5138.000
224.7170, 4900.000
225.9370, 4838.000
227.1570, 4824.000
228.3770, 4653.000
229.5970, 4630.000
230.8160, 4509.000
232.0350, 4447.000
233.2540, 4312.000
234.4730, 4229.000
235.6920, 4211.000
236.9110, 4167.519
238.1290, 4235.000
239.3470, 4166.000
240.5650, 4210.000
241.7830, 4197.000
243.0010, 4143.000
244.2180, 4121.000
245.4360, 4091.000
246.6530, 4046.000
247.8700, 4032.000
249.0870, 4041.000
250.3040, 4052.136
251.5200, 3997.000
252.7370, 4068.000
253.9530, 4079.000
255.1690, 3977.000
256.3850, 3984.000
257.6000, 4030.000
258.8160, 3964.000
260.0310, 3983.000
261.2460, 4047.000
262.4610, 3977.000
263.6760, 4107.000
264.8910, 3997.000
266.1050, 4062.000
267.3200, 4002.000
268.5340, 4089.000
269.7480, 4081.000
270.9620, 3991.000
272.1750, 4040.000
273.3890, 4088.000
274.6020, 4019.000
275.8150, 4021.000
277.0280, 4000.000
278.2410, 3967.000
279.4540, 3979.000
280.6660, 4077.000
281.8790, 3976.000
283.0910, 4054.000
284.3030, 4023.000
285.5140, 3998.000
286.7260, 4091.000
287.9380, 4048.000
289.1490, 4079.000
290.3600, 4068.000
291.5710, 3980.000
292.7820, 4018.000
293.9920, 3994.000
295.2030, 4041.000
296.4130, 4068.000
297.6230, 4087.000
298.8330, 4114.000
300.0430, 4038.000
301.2520, 4132.000
302.4620, 4085.000
303.6710, 4200.000
304.8800, 4180.000
306.0890, 4130.000
307.2980, 4170.000
308.5070, 4208.000
309.7150, 4123.000
310.9230, 4127.000
312.1310, 4246.000
313.3390, 4145.000
314.5470, 4255.000
315.7550, 4197.000
316.9620, 4295.000
318.1690, 4247.000
319.3760, 4261.000
320.5830, 4234.000
321.7900, 4310.000
322.9960, 4304.000
324.2030, 4290.000
325.4090, 4273.000
326.6150, 4299.000
327.8210, 4283.000
329.0270, 4366.000
330.2320, 4256.000
331.4380, 4400.000
332.6430, 4299.000
333.8480, 4356.000
335.0530, 4355.000
336.2580, 4383.000
337.4620, 4433.000
338.6670, 4487.000
339.8710, 4530.000
341.0750, 4575.000
342.2790, 4649.408
343.4820, 4692.000
344.6860, 4771.000
345.8890, 4882.000
347.0920, 4883.000
348.2960, 4960.000
349.4980, 5090.000
350.7010, 5235.000
351.9040, 5280.000
353.1060, 5432.000
354.3080, 5369.000
355.5100, 5480.000
356.7120, 5364.000
357.9140, 5309.000
359.1150, 5293.000
360.3170, 5177.000
361.5180, 5055.000
362.7190, 4961.000
363.9200, 4862.000
365.1200, 4856.000
366.3210, 4810.000
367.5210, 4651.000
368.7210, 4889.000
369.9210, 4700.000
371.1210, 4759.000
372.3210, 4688.000
373.5200, 4726.000
374.7200, 4811.000
375.9190, 4782.000
377.1180, 4797.000
378.3170, 4909.000
379.5150, 4918.000
380.7140, 4944.000
381.9120, 5010.000
383.1110, 5045.000
384.3090, 5149.000
385.5060, 5215.780
386.7040, 5307.000
387.9020, 5386.000
389.0990, 5445.000
390.2960, 5524.000
391.4930, 5457.000
392.6900, 5523.000
393.8860, 5337.000
395.0830, 5344.000
396.2790, 5256.000
397.4750, 5118.000
398.6710, 5134.000
399.8670, 5050.000
401.0630, 5078.000
402.2580, 5088.000
403.4540, 5043.000
404.6490, 5048.000
405.8440, 5073.000
407.0390, 5133.000
408.2330, 5156.000
409.4280, 5282.000
410.6220, 5334.000
411.8160, 5421.000
413.0100, 5471.000
414.2040, 5552.000
415.3980, 5715.000
416.5910, 5947.000
417.7850, 6070.000
418.9780, 6344.000
420.1710, 6590.000
421.3640, 6875.000
422.5560, 7116.000
423.7490, 7577.000
424.9410, 8130.000
426.1330, 8757.000
427.3250, 9487.000
428.5170, 10442.00
429.7090, 11444.00
430.9000, 12564.00
432.0910, 13745.00
433.2820, 14927.00
434.4730, 16311.00
435.6640, 17826.00
436.8550, 17726.00
438.0450, 18047.00
439.2360, 17761.00
440.4260, 17193.00
441.6160, 16197.00
442.8060, 14878.00
443.9950, 13492.00
445.1850, 12407.00
446.3740, 11205.00
447.5630, 10273.00
448.7520, 9438.000
449.9410, 8673.000
451.1300, 8092.000
452.3180, 7563.000
453.5060, 7358.000
454.6950, 7066.000
455.8830, 6756.000
457.0700, 6521.000
458.2580, 6371.000
459.4450, 6156.302
460.6330, 6088.894
461.8200, 5913.000
463.0070, 5899.000
464.1940, 5935.000
465.3800, 5666.000
466.5670, 5712.000
467.7530, 5586.000
468.9390, 5461.000
470.1250, 5476.000
471.3110, 5448.000
472.4970, 5414.000
473.6820, 5469.000
474.8680, 5333.000
476.0530, 5387.000
477.2380, 5275.000
478.4230, 5260.000
479.6070, 5212.000
480.7920, 5136.000
481.9760, 5131.000
483.1600, 5098.000
484.3440, 5128.000
485.5280, 5161.000
486.7120, 4994.000
487.8950, 5059.000
489.0780, 4974.000
490.2620, 4992.000
491.4450, 5071.000
492.6270, 4972.000
493.8100, 4872.000
494.9920, 5053.000
496.1750, 4957.000
497.3570, 4896.000
498.5390, 4989.000
499.7210, 4927.000
500.9020, 4919.000
502.0840, 4953.000
503.2650, 4912.322
504.4460, 4969.000
505.6270, 4907.000
506.8080, 4917.000
507.9890, 4953.000
509.1690, 5018.000
510.3500, 4878.616
511.5300, 4990.199
512.7100, 5052.522
513.8900, 5068.234
515.0690, 4897.727
516.2490, 4967.683
517.4280, 4941.273
518.6070, 4910.912
519.7860, 5014.712
520.9650, 4871.291
522.1440, 4972.964
523.3220, 4976.801
524.5010, 5025.415
525.6790, 4977.067
526.8570, 4958.668
528.0350, 5037.263
529.2130, 5062.151
530.3900, 5002.642
531.5670, 5054.104
532.7450, 4907.296
533.9220, 4934.472
535.0980, 5036.716
536.2750, 4982.083
537.4520, 5035.317
538.6280, 5047.470
539.8040, 4872.922
540.9800, 5023.066
542.1560, 5032.792
543.3320, 4898.338
544.5070, 5037.357
545.6830, 4922.781
546.8580, 4898.723
548.0330, 4942.785
549.2080, 4915.834
550.3830, 5000.845
551.5570, 4977.996
552.7310, 4945.510
553.9060, 4955.079
555.0800, 4845.476
556.2540, 4956.962
557.4270, 4917.426
558.6010, 4952.959
559.7740, 5005.509
560.9470, 4927.771
562.1210, 4987.966
563.2930, 4834.260
564.4660, 4859.533
565.6390, 4865.533
566.8110, 4985.933
567.9830, 4833.271
569.1550, 4853.571
570.3270, 4947.518
571.4990, 4938.417
572.6710, 4972.400
573.8420, 4878.837
575.0130, 4905.095
576.1840, 4898.326
577.3550, 5005.685
578.5260, 5022.945
579.6970, 4931.545
580.8670, 4840.607
582.0370, 4956.181
583.2070, 4876.021
584.3770, 4901.457
585.5470, 4817.833
586.7170, 4828.375
587.8860, 4837.423
589.0550, 4894.743
590.2240, 4805.692
591.3930, 4906.507
592.5620, 4897.584
593.7310, 4920.987
594.8990, 4940.794
596.0670, 4813.346
597.2350, 4806.611
598.4030, 4972.608
599.5710, 4875.182
600.7390, 4830.923
601.9060, 4824.461
603.0740, 4996.374
604.2410, 5002.489
605.4080, 4810.425
606.5740, 4761.000
607.7410, 4923.000
608.9080, 4923.000
610.0740, 4862.000
611.2400, 4949.000
612.4060, 4912.000
613.5720, 5007.000
614.7370, 4933.000
615.9030, 4934.000
617.0680, 4995.751
618.2330, 4991.000
619.3980, 5092.000
620.5630, 4946.000
621.7280, 4968.000
622.8920, 5034.000
624.0570, 5059.000
625.2210, 5058.000
626.3850, 5071.925
627.5490, 5098.000
628.7120, 5070.000
629.8760, 5071.000
631.0390, 5113.000
632.2020, 5124.000
633.3650, 4992.000
634.5280, 5144.000
635.6910, 5104.000
636.8530, 5238.000
638.0160, 5239.000
639.1780, 5280.000
640.3400, 5360.000
641.5020, 5322.000
642.6640, 5226.000
643.8250, 5424.000
644.9870, 5272.000
646.1480, 5260.000
647.3090, 5231.000
648.4700, 5267.000
649.6300, 5238.000
650.7910, 5192.000
651.9510, 5286.000
653.1120, 5180.000
654.2720, 5165.000
655.4320, 5260.000
656.5910, 5218.000
657.7510, 5182.000
658.9100, 5216.000
660.0690, 5197.107
661.2290, 5238.592
662.3880, 5224.000
663.5460, 5257.000
664.7050, 5282.000
665.8630, 5130.988
667.0220, 5179.064
668.1800, 5300.000
669.3380, 5114.000
670.4950, 5262.000
671.6530, 5176.000
672.8100, 5119.000
673.9680, 5316.000
675.1250, 5220.081
676.2820, 5275.000
677.4390, 5194.000
678.5950, 5137.000
679.7520, 5051.000
680.9080, 5059.000
682.0640, 5058.000
683.2200, 5097.000
684.3760, 5008.000
685.5320, 5032.000
686.6870, 5052.000
687.8420, 5009.000
688.9980, 5069.000
690.1530, 4995.000
691.3070, 5023.000
692.4620, 4940.000
693.6170, 5023.000
694.7710, 5052.000
695.9250, 5161.000
697.0790, 5022.000
698.2330, 5083.000
699.3870, 5162.000
700.5400, 5029.000
701.6940, 4953.000
702.8470, 5115.000
704.0000, 5006.000
705.1530, 5072.000
706.3050, 5186.000
707.4580, 5016.000
708.6100, 5047.000
709.7630, 5086.000
710.9150, 5130.000
712.0660, 5091.000
713.2180, 5094.000
714.3700, 5158.000
715.5210, 5069.000
716.6720, 5051.000
717.8240, 5169.000
718.9740, 5093.000
720.1250, 5156.000
721.2760, 5026.000
722.4260, 5102.000
723.5770, 5102.000
724.7270, 5171.000
725.8770, 5093.000
727.0260, 5010.000
728.1760, 5175.000
729.3250, 5124.000
730.4750, 5232.000
731.6240, 5183.000
732.7730, 5126.000
733.9220, 5115.000
735.0700, 5091.000
736.2190, 5111.000
737.3670, 5194.000
738.5150, 5261.000
739.6630, 5205.000
740.8110, 5120.000
741.9590, 5191.000
743.1060, 5207.000
744.2540, 5107.000
745.4010, 5217.000
746.5480, 5174.000
747.6950, 5217.000
748.8410, 5231.000
749.9880, 5179.000
751.1340, 5184.000
752.2800, 5250.000
753.4260, 5222.000
754.5720, 5255.000
755.7180, 5230.000
756.8640, 5245.000
758.0090, 5345.000
759.1540, 5280.000
760.2990, 5249.000
761.4440, 5211.000
762.5890, 5094.000
763.7340, 5309.000
764.8780, 5339.000
766.0220, 5271.000
767.1660, 5262.000
768.3100, 5241.000
769.4540, 5283.000
770.5980, 5183.000
771.7410, 5239.000
772.8840, 5195.000
774.0280, 5292.000
775.1700, 5295.026
776.3130, 5346.000
777.4560, 5326.000
778.5980, 5358.000
779.7410, 5321.000
780.8830, 5252.000
782.0250, 5301.000
783.1670, 5386.000
784.3080, 5228.000
785.4500, 5325.000
786.5910, 5320.000
787.7320, 5472.000
788.8730, 5343.000
790.0140, 5364.000
791.1550, 5391.000
792.2950, 5371.000
793.4360, 5418.000
794.5760, 5348.000
795.7160, 5322.000
796.8560, 5367.000
797.9960, 5399.000
799.1350, 5346.000
800.2750, 5406.000
801.4140, 5377.000
802.5530, 5350.000
803.6920, 5485.000
804.8310, 5349.000
805.9690, 5355.000
807.1080, 5425.000
808.2460, 5327.000
809.3840, 5422.000
810.5220, 5358.000
811.6600, 5428.000
812.7970, 5435.000
813.9350, 5473.000
815.0720, 5384.000
816.2090, 5476.000
817.3460, 5561.000
818.4830, 5454.000
819.6200, 5512.000
820.7560, 5545.000
821.8930, 5405.000
823.0290, 5555.000
824.1650, 5478.000
825.3010, 5533.000
826.4360, 5485.673
827.5720, 5608.961
828.7070, 5682.979
829.8420, 5710.387
830.9770, 5551.575
832.1120, 5633.227
833.2470, 5618.512
834.3820, 5599.845
835.5160, 5715.332
836.6500, 5583.595
837.7840, 5696.954
838.9180, 5712.476
840.0520, 5772.774
841.1860, 5736.111
842.3190, 5729.387
843.4520, 5819.657
844.5850, 5856.221
845.7180, 5808.386
846.8510, 5871.522
847.9840, 5736.389
849.1160, 5775.231
850.2490, 5889.148
851.3810, 5846.179
852.5130, 5911.078
853.6450, 5934.896
854.7760, 5772.002
855.9080, 5933.811
857.0390, 5955.190
858.1700, 5832.391
859.3010, 5983.065
860.4320, 5880.142
861.5630, 5867.738
862.6930, 5923.445
863.8240, 5908.148
864.9540, 6004.802
866.0840, 5993.597
867.2140, 5972.754
868.3440, 5993.967
869.4730, 5895.999
870.6030, 6019.128
871.7320, 5991.226
872.8610, 6038.394
873.9900, 6102.576
875.1190, 6036.472
876.2470, 6108.291
877.3760, 5966.217
878.5040, 6003.114
879.6320, 6020.738
880.7600, 6152.761
881.8880, 6011.721
883.0150, 6043.636
884.1430, 6149.205
885.2700, 6151.718
886.3970, 6197.314
887.5240, 6115.364
888.6510, 6153.235
889.7780, 6158.079
890.9040, 6277.041
892.0310, 6305.913
893.1570, 6226.117
894.2830, 6146.782
895.4090, 6273.958
896.5350, 6205.399
897.6600, 6242.428
898.7860, 6170.408
899.9110, 6192.542
901.0360, 6213.183
902.1610, 6282.095
903.2860, 6204.636
904.4100, 6317.033
905.5350, 6319.703
906.6590, 6354.688
907.7830, 6386.078
908.9070, 6270.210
910.0310, 6275.059
911.1540, 6452.628
912.2780, 6548.000
913.4010, 6447.000
914.5240, 6441.000
915.6470, 6420.000
916.7700, 6393.271
917.8930, 6425.902
919.0150, 6452.000
920.1380, 6461.000
921.2600, 6631.000
922.3820, 6597.000
923.5040, 6687.000
924.6260, 6667.000
925.7470, 6626.000
926.8690, 6657.000
927.9900, 6660.368
929.1110, 6648.000
930.2320, 6727.000
931.3530, 6680.000
932.4730, 6727.000
933.5940, 6718.000
934.7140, 6666.000
935.8340, 6711.000
936.9540, 6639.000
938.0740, 6722.000
939.1930, 6644.000
940.3130, 6785.000
941.4320, 6886.000
942.5510, 6708.000
943.6700, 6864.000
944.7890, 6772.000
945.9080, 6824.000
947.0260, 6887.000
948.1450, 6980.000
949.2630, 6939.000
950.3810, 6918.000
951.4990, 7019.000
952.6170, 6982.000
953.7340, 7055.000
954.8520, 7162.000
955.9690, 7143.000
957.0860, 7351.000
958.2030, 7452.000
959.3200, 7494.000
960.4360, 7669.000
961.5530, 7840.000
962.6690, 8068.000
963.7850, 8413.000
964.9010, 8931.000
966.0170, 9253.000
967.1330, 10114.00
968.2480, 11011.00
969.3630, 11939.00
970.4790, 12625.00
971.5940, 13235.00
972.7080, 13260.00
973.8230, 12953.00
974.9380, 12289.00
976.0520, 11584.00
977.1660, 10993.00
978.2800, 10324.00
979.3940, 9770.000
980.5080, 9535.000
981.6220, 9377.000
982.7350, 9309.000
983.8480, 9334.000
984.9610, 9307.000
986.0740, 9523.000
987.1870, 9749.000
988.3000, 9908.000
989.4120, 10386.00
990.5250, 10816.00
991.6370, 11400.00
992.7490, 12107.00
993.8610, 13213.00
994.9720, 14538.00
996.0840, 16790.00
997.1950, 19621.00
998.3060, 23351.00
999.4170, 28294.00
1000.528, 34153.00
1001.639, 40558.00
1002.750, 47621.00
1003.860, 52898.00
1004.970, 55954.00
1006.080, 55016.00
1007.190, 49985.00
1008.300, 43036.00
1009.410, 35838.00
1010.519, 29433.00
1011.628, 24411.00
1012.738, 20727.00
1013.846, 17956.00
1014.955, 15872.00
1016.064, 14321.00
1017.172, 12902.00
1018.281, 12073.00
1019.389, 11393.00
1020.497, 10685.00
1021.605, 10099.00
1022.713, 9802.000
1023.820, 9415.000
1024.928, 8970.000
1026.035, 8775.000
1027.142, 8582.000
1028.249, 8453.000
1029.356, 8308.000
1030.462, 7907.000
1031.569, 7877.000
1032.675, 7696.000
1033.781, 7729.000
1034.887, 7762.000
1035.993, 7560.000
1037.098, 7539.000
1038.204, 7407.000
1039.309, 7453.000
1040.415, 7458.000
1041.520, 7458.000
1042.624, 7459.840
1043.729, 7283.000
1044.834, 7425.000
1045.938, 7387.399
1047.042, 7353.657
1048.146, 7479.000
1049.250, 7251.000
1050.354, 7196.000
1051.458, 7206.000
1052.561, 7182.000
1053.664, 7210.000
1054.767, 7183.487
1055.870, 7126.000
1056.973, 7113.000
1058.076, 7096.000
1059.178, 6991.000
1060.281, 7165.000
1061.383, 7090.000
1062.485, 7126.000
1063.587, 7073.000
1064.688, 7056.000
1065.790, 7065.000
1066.891, 7060.739
1067.993, 7112.000
1069.094, 7085.000
1070.195, 7118.000
1071.295, 7102.000
1072.396, 7099.000
1073.496, 7119.000
1074.597, 7166.092
1075.697, 7134.612
1076.797, 7145.241
1077.897, 7113.000
1078.996, 7118.000
1080.096, 7150.000
1081.195, 7142.000
1082.294, 7203.000
1083.393, 7208.495
1084.492, 7156.000
1085.591, 7235.000
1086.689, 7303.000
1087.788, 7294.000
1088.886, 7413.000
1089.984, 7290.000
1091.082, 7393.000
1092.180, 7258.000
1093.277, 7351.000
1094.375, 7305.000
1095.472, 7202.000
1096.569, 7151.000
1097.666, 7196.000
1098.763, 7151.026
1099.860, 7171.000
1100.956, 7172.000
1102.053, 7212.000
1103.149, 7233.000
1104.245, 7199.000
1105.341, 7158.000
1106.436, 7288.000
1107.532, 7226.000
1108.627, 7385.000
1109.723, 7363.000
1110.818, 7311.000
1111.913, 7292.000
1113.007, 7229.000
1114.102, 7378.000
1115.197, 7179.000
1116.291, 7310.000
1117.385, 7208.000
1118.479, 7211.000
1119.573, 7179.000
1120.666, 7094.000
1121.760, 7154.000
1122.853, 7232.000
1123.947, 7014.000
1125.040, 7087.000
1126.132, 7117.000
1127.225, 7049.000
1128.318, 7067.000
1129.410, 7168.000
1130.502, 7187.000
1131.595, 7124.000
1132.687, 7134.000
1133.778, 7056.000
1134.870, 7129.719
1135.961, 7157.213
1137.053, 7274.000
1138.144, 7240.000
1139.235, 7297.000
1140.326, 7225.000
1141.416, 7120.000
1142.507, 7372.000
1143.597, 7230.722
1144.688, 7389.000
1145.778, 7216.000
1146.868, 7225.000
1147.957, 7295.000
1149.047, 7194.000
1150.136, 7305.000
1151.226, 7243.000
1152.315, 7224.000
1153.404, 7190.000
1154.493, 7172.000
1155.581, 7129.000
1156.670, 7070.000
1157.758, 7108.000
1158.846, 7256.000
1159.934, 7098.000
1161.022, 7221.000
1162.110, 7096.000
1163.198, 7110.000
1164.285, 7224.000
1165.372, 7154.000
1166.459, 7186.000
1167.546, 7154.000
1168.633, 7181.000
1169.720, 7207.000
1170.806, 7024.000
1171.892, 7075.000
1172.979, 7087.000
1174.065, 7139.000
1175.150, 7248.000
1176.236, 7176.000
1177.322, 7205.000
1178.407, 7212.000
1179.492, 7159.000
1180.577, 7187.000
1181.662, 7241.000
1182.747, 7271.000
1183.832, 7216.000
1184.916, 7245.130
1186.000, 7230.000
1187.084, 7213.000
1188.168, 7193.000
1189.252, 7152.000
1190.336, 7183.209
1191.419, 7260.000
1192.503, 7219.000
1193.586, 7240.000
1194.669, 7210.000
1195.752, 7288.000
1196.835, 7210.000
1197.917, 7201.000
1199.000, 7267.000
1200.082, 7139.000
1201.164, 7286.000
1202.246, 7293.000
1203.328, 7230.000
1204.409, 7389.000
1205.491, 7314.000
1206.572, 7305.812
1207.653, 7279.000
1208.734, 7325.000
1209.815, 7256.000
1210.896, 7484.000
1211.976, 7373.000
1213.057, 7312.000
1214.137, 7448.000
1215.217, 7297.000
1216.297, 7358.700
1217.377, 7394.568
1218.456, 7409.000
1219.536, 7415.000
1220.615, 7497.000
1221.694, 7372.000
1222.773, 7496.000
1223.852, 7497.000
1224.931, 7423.000
1226.009, 7428.000
1227.088, 7498.000
1228.166, 7431.000
1229.244, 7453.000
1230.322, 7459.000
1231.400, 7440.000
1232.477, 7426.000
1233.555, 7521.000
1234.632, 7521.000
1235.709, 7484.622
1236.786, 7490.000
1237.863, 7472.527
1238.939, 7459.000
1240.016, 7454.000
1241.092, 7414.000
1242.168, 7413.000
1243.245, 7376.000
1244.320, 7489.000
1245.396, 7530.000
1246.472, 7490.000
1247.547, 7474.000
1248.622, 7479.000
1249.697, 7481.124
1250.772, 7475.684
1251.847, 7501.706
1252.922, 7524.180
1253.996, 7559.000
1255.071, 7596.000
1256.145, 7640.000
1257.219, 7680.000
1258.293, 7642.000
1259.366, 7565.000
1260.440, 7601.000
1261.513, 7683.000
1262.587, 7773.000
1263.660, 7667.000
1264.733, 7572.000
1265.805, 7787.000
1266.878, 7756.000
1267.951, 7789.000
1269.023, 7812.000
1270.095, 7802.233
1271.167, 7808.905
1272.239, 7804.000
1273.311, 7781.000
1274.382, 7773.000
1275.454, 7746.000
1276.525, 7758.000
1277.596, 7648.000
1278.667, 7711.000
1279.738, 7755.000
1280.808, 7766.000
1281.879, 7649.000
1282.949, 7761.000
1284.019, 7720.000
1285.089, 7766.325
1286.159, 7796.000
1287.229, 7851.000
1288.298, 7839.236
1289.368, 7837.173
1290.437, 7813.000
1291.506, 7798.000
1292.575, 7785.000
1293.644, 7792.000
1294.712, 7717.000
1295.781, 7764.000
1296.849, 7895.000
1297.917, 7681.000
1298.985, 7851.000
1300.053, 7725.000
1301.121, 7797.000
1302.188, 7720.000
1303.255, 7802.000
1304.323, 7742.000
1305.390, 7748.000
1306.457, 7937.000
1307.523, 7835.000
1308.590, 7905.000
1309.656, 7831.000
1310.723, 7845.000
1311.789, 7890.000
1312.855, 7903.000
1313.921, 7892.000
1314.986, 7901.000
1316.052, 7824.000
1317.117, 7821.000
1318.182, 7865.000
1319.248, 7934.000
1320.312, 7869.000
1321.377, 7826.000
1322.442, 7815.000
1323.506, 7818.651
1324.571, 7911.000
1325.635, 7873.000
1326.699, 7967.000
1327.762, 7993.000
1328.826, 7979.000
1329.890, 8019.000
1330.953, 8085.000
1332.016, 8004.000
1333.079, 7954.000
1334.142, 7990.000
1335.205, 7997.000
1336.268, 7983.828
1337.330, 8017.000
1338.392, 8013.000
1339.454, 8091.000
1340.516, 8181.000
1341.578, 8180.000
1342.640, 8105.000
1343.701, 8069.000
1344.763, 8159.000
1345.824, 8142.000
1346.885, 8134.000
1347.946, 8316.000
1349.007, 8109.000
1350.067, 8299.000
1351.128, 8195.000
1352.188, 8159.000
1353.248, 8179.000
1354.308, 8203.000
1355.368, 8211.000
1356.428, 8220.000
1357.487, 8214.312
1358.547, 8225.533
1359.606, 8176.000
1360.665, 8225.000
1361.724, 8182.000
1362.783, 8149.000
1363.841, 8306.000
1364.900, 8322.000
1365.958, 8113.000
1367.016, 8232.000
1368.074, 8195.000
1369.132, 8235.000
1370.190, 8186.000
1371.247, 8170.000
1372.304, 8185.000
1373.362, 8211.000
1374.419, 8202.879
1375.476, 8228.000
1376.532, 8225.000
1377.589, 8245.517
1378.645, 8291.000
1379.702, 8223.000
1380.758, 8296.000
1381.814, 8204.000
1382.870, 8135.000
1383.925, 8325.000
1384.981, 8182.000
1386.036, 8248.000
1387.092, 8277.000
1388.147, 8216.000
1389.202, 8258.000
1390.256, 8320.000
1391.311, 8352.000
1392.365, 8366.000
1393.420, 8351.000
1394.474, 8364.000
1395.528, 8349.000
1396.582, 8303.000
1397.636, 8375.000
1398.689, 8345.000
1399.742, 8351.000
1400.796, 8383.000
1401.849, 8514.000
1402.902, 8429.000
1403.955, 8312.000
1405.007, 8464.000
1406.060, 8331.000
1407.112, 8331.000
1408.164, 8377.289
1409.216, 8340.494
1410.268, 8440.000
1411.320, 8377.000
1412.371, 8436.000
1413.423, 8450.000
1414.474, 8552.000
1415.525, 8523.000
1416.576, 8431.000
1417.627, 8509.000
1418.678, 8495.000
1419.728, 8561.000
1420.778, 8515.000
1421.829, 8557.000
1422.879, 8612.000
1423.928, 8468.000
1424.978, 8566.000
1426.028, 8677.000
1427.077, 8473.000
1428.126, 8528.000
1429.176, 8515.000
1430.225, 8576.000
1431.273, 8682.000
1432.322, 8704.000
1433.371, 8674.000
1434.419, 8732.000
1435.467, 8701.000
1436.515, 8769.000
1437.563, 8754.521
1438.611, 8613.000
1439.658, 8774.000
1440.706, 8678.000
1441.753, 8745.000
1442.800, 8669.000
1443.847, 8619.000
1444.894, 8692.000
1445.941, 8945.000
1446.987, 8925.000
1448.034, 8859.000
1449.080, 8715.000
1450.126, 8820.000
1451.172, 8762.000
1452.218, 8891.000
1453.263, 8874.000
1454.309, 9015.000
1455.354, 8965.000
1456.399, 8980.000
1457.444, 9041.000
1458.489, 8936.000
1459.534, 8972.000
1460.579, 8963.000
1461.623, 9007.000
1462.667, 8956.000
1463.711, 8925.000
1464.755, 8973.000
1465.799, 8950.000
1466.843, 9050.000
1467.886, 8927.000
1468.930, 8839.000
1469.973, 8982.000
1471.016, 8936.000
1472.059, 8946.000
1473.101, 9081.000
1474.144, 8953.000
1475.186, 8899.000
1476.229, 8986.000
1477.271, 8890.000
1478.313, 9007.000
1479.355, 8820.000
1480.396, 8962.000
1481.438, 8870.000
1482.479, 8980.000
1483.520, 8960.000
1484.561, 8940.000
1485.602, 8964.000
1486.643, 8965.000
1487.684, 8977.000
1488.724, 8929.000
1489.765, 9028.000
1490.805, 9058.000
1491.845, 8988.000
1492.885, 9042.000
1493.924, 9024.000
1494.964, 9052.000
1496.003, 9079.000
1497.042, 9003.000
1498.082, 9003.000
1499.120, 9119.000
1500.159, 9015.000
1501.198, 9135.000
1502.236, 9146.000
1503.275, 9051.000
1504.313, 9087.000
1505.351, 9189.000
1506.389, 9143.000
1507.427, 9155.000
1508.464, 9242.000
1509.502, 9142.000
1510.539, 9130.000
1511.576, 9137.000
1512.613, 9220.000
1513.650, 9249.000
1514.687, 9186.000
1515.723, 9201.000
1516.759, 9159.000
1517.796, 9154.000
1518.832, 9031.975
1519.868, 9147.437
1520.903, 9213.636
1521.939, 9233.228
1522.975, 9066.599
1524.010, 9140.432
1525.045, 9117.897
1526.080, 9091.411
1527.115, 9199.088
1528.150, 9059.542
1529.184, 9165.089
1530.219, 9172.801
1531.253, 9225.287
1532.287, 9180.812
1533.321, 9166.285
1534.355, 9248.751
1535.388, 9277.509
1536.422, 9221.872
1537.455, 9277.202
1538.488, 9134.264
1539.522, 9165.311
1540.554, 9271.419
1541.587, 9220.654
1542.620, 9277.758
1543.652, 9293.775
1544.685, 9123.096
1545.717, 9277.104
1546.749, 9290.695
1547.781, 9160.106
1548.812, 9302.987
1549.844, 9192.275
1550.875, 9172.078
1551.906, 9220.002
1552.938, 9196.916
1553.968, 9285.784
1554.999, 9266.796
1556.030, 9238.171
1557.060, 9251.598
1558.091, 9145.855
1559.121, 9261.199
1560.151, 9225.521
1561.181, 9264.912
1562.211, 9321.318
1563.240, 9247.435
1564.270, 9311.486
1565.299, 9161.634
1566.328, 9190.761
1567.357, 9200.615
1568.386, 9324.869
1569.415, 9176.060
1570.443, 9200.211
1571.472, 9298.010
1572.500, 9292.760
1573.528, 9175.000
1574.556, 9227.000
1575.584, 9198.000
1576.611, 9272.000
1577.639, 9331.000
1578.666, 9182.000
1579.693, 9240.000
##END=



