##NAMES=Zircon
##RRUFFID=R050286
##IDEAL CHEMISTRY=Zr^4+^SiO_4_
##LOCALITY=Renfrew County, Ontario, Canada
##OWNER=RRUFF
##SOURCE=Marcus Origlieri
##DESCRIPTION=Brownish red prismatic crystal frozen in matrix, associated with apatite
##STATUS=The identification of this mineral has been confirmed by X-ray diffraction and chemical analysis
##URL=rruff.info/R050286
##MEASURED CHEMISTRY=Zr_1.00_Si_1.00_O_4_; trace amounts of Hf
##PIN_ID=L01183
##ORIENTATION=Laser parallel to -c* (0 0 -1). Fiducial mark perpendicular to laser is parallel to -a [-1 0 0]
63.41100, 171.0000
64.65300, 151.0000
65.89600, 169.0000
67.13800, 149.0000
68.38000, 128.0000
69.62200, 125.0000
70.86300, 156.0000
72.10500, 127.0000
73.34600, 158.0000
74.58700, 148.0000
75.82800, 160.0000
77.06900, 142.0000
78.30900, 157.0000
79.55000, 169.0000
80.79000, 191.0000
82.03000, 189.0000
83.27000, 155.0000
84.51000, 164.0000
85.74900, 179.0000
86.98900, 169.0000
88.22800, 204.0000
89.46700, 210.0000
90.70600, 230.0000
91.94400, 227.0000
93.18300, 286.0000
94.42100, 296.0000
95.65900, 373.0000
96.89700, 371.0000
98.13500, 459.0000
99.37300, 517.0000
100.6100, 582.0000
101.8480, 677.0000
103.0850, 773.0000
104.3220, 902.0000
105.5590, 1045.000
106.7950, 1161.000
108.0320, 1320.000
109.2680, 1453.000
110.5040, 1551.000
111.7400, 1674.000
112.9760, 1817.000
114.2120, 1935.000
115.4470, 2145.000
116.6820, 2384.000
117.9170, 2507.000
119.1520, 2665.000
120.3870, 2623.000
121.6220, 2531.000
122.8560, 2451.000
124.0900, 2443.000
125.3240, 2554.000
126.5580, 2497.000
127.7920, 2600.000
129.0260, 2631.000
130.2590, 2619.000
131.4920, 2705.000
132.7250, 2707.000
133.9580, 2664.000
135.1910, 2699.000
136.4230, 2728.000
137.6560, 2764.000
138.8880, 2723.000
140.1200, 2761.000
141.3520, 2800.000
142.5830, 2786.000
143.8150, 2824.000
145.0460, 2780.000
146.2770, 2807.000
147.5080, 2809.000
148.7390, 2832.000
149.9700, 2838.005
151.2000, 2832.000
152.4310, 2868.000
153.6610, 2877.000
154.8910, 2931.000
156.1210, 2889.000
157.3500, 2973.000
158.5800, 2898.000
159.8090, 2987.000
161.0380, 3050.000
162.2670, 3037.000
163.4960, 3021.000
164.7240, 2986.000
165.9530, 2961.000
167.1810, 2998.000
168.4090, 3023.000
169.6370, 3017.000
170.8650, 2990.000
172.0920, 2981.000
173.3200, 3037.000
174.5470, 3074.000
175.7740, 3056.000
177.0010, 3045.908
178.2280, 3013.499
179.4540, 2994.000
180.6810, 2964.000
181.9070, 3011.000
183.1330, 3101.000
184.3590, 3070.114
185.5850, 3080.482
186.8100, 3084.000
188.0350, 3060.000
189.2610, 3091.000
190.4860, 3171.000
191.7110, 3216.000
192.9350, 3188.000
194.1600, 3346.000
195.3840, 3336.000
196.6080, 3506.000
197.8320, 3539.000
199.0560, 3621.000
200.2800, 3706.000
201.5030, 3848.000
202.7270, 3980.000
203.9500, 4091.000
205.1730, 4202.000
206.3950, 4324.000
207.6180, 4460.000
208.8410, 4633.000
210.0630, 4632.000
211.2850, 4752.000
212.5070, 4875.000
213.7290, 4785.000
214.9500, 4718.000
216.1720, 4697.000
217.3930, 4620.000
218.6140, 4349.000
219.8350, 4166.000
221.0560, 4031.000
222.2770, 4031.000
223.4970, 3918.000
224.7170, 3891.000
225.9370, 3786.000
227.1570, 3670.000
228.3770, 3627.000
229.5970, 3537.293
230.8160, 3441.000
232.0350, 3438.000
233.2540, 3367.000
234.4730, 3374.000
235.6920, 3257.000
236.9110, 3248.000
238.1290, 3280.000
239.3470, 3289.000
240.5650, 3191.000
241.7830, 3232.000
243.0010, 3180.000
244.2180, 3129.000
245.4360, 3167.000
246.6530, 3171.000
247.8700, 3165.000
249.0870, 3153.000
250.3040, 3140.000
251.5200, 3149.000
252.7370, 3052.000
253.9530, 3148.000
255.1690, 3068.000
256.3850, 3051.000
257.6000, 3132.000
258.8160, 3196.000
260.0310, 3144.000
261.2460, 3134.000
262.4610, 3090.000
263.6760, 3185.000
264.8910, 3182.000
266.1050, 3176.000
267.3200, 3150.000
268.5340, 3217.000
269.7480, 3161.000
270.9620, 3151.000
272.1750, 3198.000
273.3890, 3170.000
274.6020, 3189.000
275.8150, 3254.000
277.0280, 3164.000
278.2410, 3172.154
279.4540, 3251.000
280.6660, 3104.000
281.8790, 3207.000
283.0910, 3215.000
284.3030, 3232.000
285.5140, 3217.000
286.7260, 3127.000
287.9380, 3146.000
289.1490, 3177.000
290.3600, 3131.000
291.5710, 3187.000
292.7820, 3163.000
293.9920, 3230.000
295.2030, 3170.000
296.4130, 3219.000
297.6230, 3229.000
298.8330, 3158.000
300.0430, 3230.000
301.2520, 3172.000
302.4620, 3223.000
303.6710, 3173.000
304.8800, 3169.000
306.0890, 3277.000
307.2980, 3229.000
308.5070, 3247.000
309.7150, 3210.000
310.9230, 3264.000
312.1310, 3258.000
313.3390, 3306.000
314.5470, 3352.000
315.7550, 3368.000
316.9620, 3316.000
318.1690, 3346.000
319.3760, 3358.000
320.5830, 3437.000
321.7900, 3389.000
322.9960, 3290.000
324.2030, 3352.000
325.4090, 3320.000
326.6150, 3376.000
327.8210, 3387.000
329.0270, 3469.000
330.2320, 3326.000
331.4380, 3397.000
332.6430, 3410.000
333.8480, 3481.000
335.0530, 3516.000
336.2580, 3486.000
337.4620, 3568.000
338.6670, 3574.000
339.8710, 3647.000
341.0750, 3655.000
342.2790, 3690.000
343.4820, 3787.000
344.6860, 3859.000
345.8890, 3974.125
347.0920, 4175.000
348.2960, 4240.000
349.4980, 4434.000
350.7010, 4590.000
351.9040, 4640.000
353.1060, 4787.000
354.3080, 4879.000
355.5100, 4850.000
356.7120, 4799.000
357.9140, 4677.000
359.1150, 4644.000
360.3170, 4456.000
361.5180, 4427.000
362.7190, 4276.000
363.9200, 4171.000
365.1200, 3997.000
366.3210, 3923.000
367.5210, 3831.000
368.7210, 3759.627
369.9210, 3843.000
371.1210, 3699.000
372.3210, 3751.000
373.5200, 3789.000
374.7200, 3762.000
375.9190, 3782.000
377.1180, 3765.000
378.3170, 3764.000
379.5150, 3754.000
380.7140, 3830.000
381.9120, 3741.000
383.1110, 3952.000
384.3090, 3923.000
385.5060, 4003.000
386.7040, 3959.000
387.9020, 4053.000
389.0990, 4081.000
390.2960, 3997.000
391.4930, 3972.000
392.6900, 4014.000
393.8860, 4064.000
395.0830, 4053.000
396.2790, 4071.000
397.4750, 3955.000
398.6710, 3927.000
399.8670, 3831.000
401.0630, 3925.000
402.2580, 3901.000
403.4540, 3975.000
404.6490, 3983.000
405.8440, 4132.000
407.0390, 4105.715
408.2330, 4147.065
409.4280, 4163.000
410.6220, 4160.000
411.8160, 4313.000
413.0100, 4317.000
414.2040, 4468.000
415.3980, 4516.000
416.5910, 4556.000
417.7850, 4739.000
418.9780, 4933.000
420.1710, 5012.000
421.3640, 5251.000
422.5560, 5611.000
423.7490, 5806.000
424.9410, 6312.000
426.1330, 6777.000
427.3250, 7190.000
428.5170, 7996.000
429.7090, 8749.000
430.9000, 9528.000
432.0910, 10409.00
433.2820, 11272.00
434.4730, 11997.96
435.6640, 12781.00
436.8550, 13084.00
438.0450, 13362.00
439.2360, 13050.00
440.4260, 12704.00
441.6160, 11999.00
442.8060, 11328.00
443.9950, 10446.00
445.1850, 9443.000
446.3740, 8579.000
447.5630, 7915.000
448.7520, 7170.000
449.9410, 6671.000
451.1300, 6365.000
452.3180, 5906.000
453.5060, 5669.000
454.6950, 5441.000
455.8830, 5247.000
457.0700, 5059.000
458.2580, 4886.000
459.4450, 4835.000
460.6330, 4747.000
461.8200, 4576.000
463.0070, 4608.000
464.1940, 4540.000
465.3800, 4462.000
466.5670, 4430.000
467.7530, 4389.000
468.9390, 4308.000
470.1250, 4282.708
471.3110, 4234.907
472.4970, 4201.000
473.6820, 4181.000
474.8680, 4143.000
476.0530, 4156.000
477.2380, 4048.000
478.4230, 4065.000
479.6070, 4121.000
480.7920, 4009.000
481.9760, 4073.000
483.1600, 4002.000
484.3440, 3983.000
485.5280, 4013.000
486.7120, 3923.000
487.8950, 3894.000
489.0780, 3922.000
490.2620, 3851.000
491.4450, 3895.000
492.6270, 3978.000
493.8100, 3867.000
494.9920, 3840.000
496.1750, 3911.000
497.3570, 3853.000
498.5390, 3890.000
499.7210, 3812.000
500.9020, 3886.000
502.0840, 3839.000
503.2650, 3873.000
504.4460, 3871.000
505.6270, 3933.000
506.8080, 3927.000
507.9890, 3882.000
509.1690, 3926.000
510.3500, 3944.000
511.5300, 3803.000
512.7100, 3916.000
513.8900, 3902.000
515.0690, 3856.000
516.2490, 3923.000
517.4280, 3906.000
518.6070, 3986.000
519.7860, 3921.000
520.9650, 3996.000
522.1440, 3918.000
523.3220, 3917.000
524.5010, 3954.000
525.6790, 3967.000
526.8570, 3977.000
528.0350, 3936.000
529.2130, 3890.000
530.3900, 3876.000
531.5670, 3914.000
532.7450, 3887.000
533.9220, 3943.000
535.0980, 3956.000
536.2750, 3835.000
537.4520, 3867.000
538.6280, 3863.000
539.8040, 3895.000
540.9800, 3887.000
542.1560, 3878.877
543.3320, 3895.000
544.5070, 3857.000
545.6830, 3844.000
546.8580, 3855.000
548.0330, 3828.000
549.2080, 3864.000
550.3830, 3900.000
551.5570, 3852.000
552.7310, 3766.240
553.9060, 3844.501
555.0800, 3887.686
556.2540, 3897.685
557.4270, 3774.722
558.6010, 3823.742
559.7740, 3804.018
560.9470, 3781.596
562.1210, 3855.185
563.2930, 3752.215
564.4660, 3824.537
565.6390, 3827.063
566.8110, 3861.719
567.9830, 3827.202
569.1550, 3814.216
570.3270, 3870.677
571.4990, 3888.881
572.6710, 3846.894
573.8420, 3884.342
575.0130, 3780.215
576.1840, 3800.559
577.3550, 3874.679
578.5260, 3836.807
579.6970, 3876.153
580.8670, 3886.264
582.0370, 3763.068
583.2070, 3872.052
584.3770, 3880.805
585.5470, 3786.642
586.7170, 3888.052
587.8860, 3808.345
589.0550, 3793.456
590.2240, 3827.378
591.3930, 3810.674
592.5620, 3874.113
593.7310, 3860.590
594.8990, 3840.304
596.0670, 3850.201
597.2350, 3775.052
598.4030, 3858.038
599.5710, 3833.216
600.7390, 3862.171
601.9060, 3903.410
603.0740, 3851.662
604.2410, 3898.615
605.4080, 3792.821
606.5740, 3815.064
607.7410, 3823.661
608.9080, 3914.144
610.0740, 3809.593
611.2400, 3828.782
612.4060, 3900.731
613.5720, 3899.158
614.7370, 3870.000
615.9030, 3913.000
617.0680, 3897.000
618.2330, 3928.000
619.3980, 3939.000
620.5630, 3885.000
621.7280, 3950.000
622.8920, 3960.000
624.0570, 4043.000
625.2210, 4036.507
626.3850, 3978.000
627.5490, 4012.000
628.7120, 3943.000
629.8760, 3872.000
631.0390, 3927.000
632.2020, 3995.000
633.3650, 3949.000
634.5280, 3995.000
635.6910, 4104.000
636.8530, 4060.000
638.0160, 4128.000
639.1780, 4111.000
640.3400, 4136.000
641.5020, 4098.000
642.6640, 4131.000
643.8250, 4058.000
644.9870, 4018.000
646.1480, 4089.000
647.3090, 4040.000
648.4700, 4097.000
649.6300, 4057.000
650.7910, 4063.000
651.9510, 4006.000
653.1120, 4014.710
654.2720, 4103.000
655.4320, 4056.000
656.5910, 4028.000
657.7510, 4130.000
658.9100, 4102.000
660.0690, 4107.000
661.2290, 4107.000
662.3880, 4045.000
663.5460, 4060.000
664.7050, 4023.000
665.8630, 4051.000
667.0220, 4055.000
668.1800, 4059.000
669.3380, 4063.000
670.4950, 4057.000
671.6530, 4026.000
672.8100, 4059.000
673.9680, 4075.000
675.1250, 3961.000
676.2820, 4030.000
677.4390, 3975.000
678.5950, 4052.000
679.7520, 4027.000
680.9080, 3985.000
682.0640, 3986.000
683.2200, 4036.000
684.3760, 4011.510
685.5320, 4001.903
686.6870, 4037.000
687.8420, 3959.000
688.9980, 3999.000
690.1530, 4013.000
691.3070, 3893.000
692.4620, 3965.000
693.6170, 4007.000
694.7710, 4013.000
695.9250, 3914.000
697.0790, 4029.000
698.2330, 3968.000
699.3870, 4007.000
700.5400, 3976.000
701.6940, 4040.000
702.8470, 4033.906
704.0000, 3948.000
705.1530, 4041.000
706.3050, 4006.000
707.4580, 3983.000
708.6100, 4047.000
709.7630, 3907.000
710.9150, 4028.000
712.0660, 4089.000
713.2180, 4012.000
714.3700, 4075.000
715.5210, 3994.000
716.6720, 3940.000
717.8240, 4003.000
718.9740, 4037.000
720.1250, 4042.000
721.2760, 3992.000
722.4260, 4052.000
723.5770, 4015.000
724.7270, 4052.000
725.8770, 4003.000
727.0260, 4022.000
728.1760, 4059.000
729.3250, 3989.000
730.4750, 4048.000
731.6240, 4002.000
732.7730, 4078.000
733.9220, 4037.000
735.0700, 4040.000
736.2190, 4075.000
737.3670, 4107.000
738.5150, 4078.000
739.6630, 4116.313
740.8110, 4130.735
741.9590, 4123.000
743.1060, 4161.000
744.2540, 4114.000
745.4010, 4083.000
746.5480, 4123.000
747.6950, 4121.000
748.8410, 4121.678
749.9880, 4095.000
751.1340, 4127.000
752.2800, 4129.000
753.4260, 4126.505
754.5720, 4103.000
755.7180, 4099.000
756.8640, 4108.000
758.0090, 4116.000
759.1540, 4127.000
760.2990, 4127.000
761.4440, 4158.000
762.5890, 4152.000
763.7340, 4086.000
764.8780, 4157.000
766.0220, 4108.000
767.1660, 4159.000
768.3100, 4131.000
769.4540, 4250.000
770.5980, 4107.000
771.7410, 4074.000
772.8840, 4165.000
774.0280, 4196.000
775.1700, 4090.000
776.3130, 4094.000
777.4560, 4160.000
778.5980, 4216.000
779.7410, 4169.000
780.8830, 4127.000
782.0250, 4238.000
783.1670, 4248.340
784.3080, 4219.401
785.4500, 4238.126
786.5910, 4165.000
787.7320, 4189.000
788.8730, 4191.000
790.0140, 4185.000
791.1550, 4212.000
792.2950, 4233.000
793.4360, 4267.000
794.5760, 4276.000
795.7160, 4257.000
796.8560, 4228.000
797.9960, 4323.000
799.1350, 4277.000
800.2750, 4257.000
801.4140, 4273.000
802.5530, 4193.000
803.6920, 4218.000
804.8310, 4301.000
805.9690, 4312.000
807.1080, 4264.000
808.2460, 4253.000
809.3840, 4210.000
810.5220, 4239.000
811.6600, 4252.000
812.7970, 4275.000
813.9350, 4307.000
815.0720, 4206.000
816.2090, 4303.000
817.3460, 4263.000
818.4830, 4336.000
819.6200, 4316.000
820.7560, 4332.304
821.8930, 4330.000
823.0290, 4336.000
824.1650, 4316.000
825.3010, 4270.000
826.4360, 4340.000
827.5720, 4443.000
828.7070, 4434.000
829.8420, 4473.000
830.9770, 4413.000
832.1120, 4459.000
833.2470, 4458.912
834.3820, 4485.000
835.5160, 4505.000
836.6500, 4531.000
837.7840, 4595.000
838.9180, 4542.000
840.0520, 4579.000
841.1860, 4607.000
842.3190, 4449.000
843.4520, 4556.000
844.5850, 4474.000
845.7180, 4473.000
846.8510, 4447.000
847.9840, 4555.000
849.1160, 4548.137
850.2490, 4486.000
851.3810, 4592.000
852.5130, 4508.000
853.6450, 4456.000
854.7760, 4509.000
855.9080, 4483.000
857.0390, 4546.000
858.1700, 4650.000
859.3010, 4536.000
860.4320, 4690.000
861.5630, 4702.000
862.6930, 4708.000
863.8240, 4735.000
864.9540, 4724.000
866.0840, 4748.000
867.2140, 4779.000
868.3440, 4949.000
869.4730, 4978.000
870.6030, 4924.000
871.7320, 4902.000
872.8610, 4903.000
873.9900, 4893.000
875.1190, 4878.385
876.2470, 4903.000
877.3760, 4844.000
878.5040, 4845.000
879.6320, 4811.000
880.7600, 4835.000
881.8880, 4833.962
883.0150, 4890.000
884.1430, 4851.000
885.2700, 4904.000
886.3970, 4897.000
887.5240, 4852.000
888.6510, 4890.000
889.7780, 4824.000
890.9040, 4910.000
892.0310, 4857.000
893.1570, 4937.000
894.2830, 4832.000
895.4090, 4981.000
896.5350, 4875.000
897.6600, 4867.000
898.7860, 4840.000
899.9110, 4835.000
901.0360, 4852.000
902.1610, 4860.762
903.2860, 4965.000
904.4100, 4905.000
905.5350, 5007.000
906.6590, 5019.000
907.7830, 4942.000
908.9070, 4996.000
910.0310, 4969.553
911.1540, 5024.000
912.2780, 4965.000
913.4010, 5008.000
914.5240, 5005.000
915.6470, 5010.000
916.7700, 5072.000
917.8930, 5074.000
919.0150, 5110.000
920.1380, 5135.000
921.2600, 5123.000
922.3820, 5142.000
923.5040, 5204.000
924.6260, 5204.000
925.7470, 5175.000
926.8690, 5163.000
927.9900, 5148.000
929.1110, 5107.000
930.2320, 5208.000
931.3530, 5131.000
932.4730, 5190.000
933.5940, 5175.000
934.7140, 5189.479
935.8340, 5180.228
936.9540, 5213.000
938.0740, 5188.000
939.1930, 5204.188
940.3130, 5244.000
941.4320, 5209.000
942.5510, 5252.000
943.6700, 5239.000
944.7890, 5276.000
945.9080, 5318.000
947.0260, 5305.000
948.1450, 5326.000
949.2630, 5308.000
950.3810, 5336.962
951.4990, 5380.425
952.6170, 5399.000
953.7340, 5476.000
954.8520, 5529.000
955.9690, 5543.000
957.0860, 5615.000
958.2030, 5669.000
959.3200, 5705.000
960.4360, 5846.000
961.5530, 6018.000
962.6690, 6252.000
963.7850, 6445.000
964.9010, 6771.000
966.0170, 7243.000
967.1330, 7812.000
968.2480, 8300.000
969.3630, 8989.000
970.4790, 9595.000
971.5940, 9950.000
972.7080, 10053.00
973.8230, 9775.000
974.9380, 9462.000
976.0520, 8834.000
977.1660, 8261.000
978.2800, 7774.000
979.3940, 7423.000
980.5080, 7142.000
981.6220, 7118.000
982.7350, 6905.000
983.8480, 6907.000
984.9610, 6834.000
986.0740, 6904.000
987.1870, 7031.000
988.3000, 7114.000
989.4120, 7238.000
990.5250, 7513.000
991.6370, 7750.000
992.7490, 8193.000
993.8610, 8834.000
994.9720, 9674.000
996.0840, 10506.00
997.1950, 11995.00
998.3060, 14009.00
999.4170, 16735.00
1000.528, 19952.00
1001.639, 23281.00
1002.750, 26769.00
1003.860, 29627.00
1004.970, 31243.00
1006.080, 31437.00
1007.190, 29355.00
1008.300, 26312.00
1009.410, 22240.00
1010.519, 18415.00
1011.628, 15560.00
1012.738, 13445.00
1013.846, 11773.00
1014.955, 10603.00
1016.064, 9589.000
1017.172, 8924.000
1018.281, 8230.000
1019.389, 7859.000
1020.497, 7495.000
1021.605, 7189.000
1022.713, 6934.597
1023.820, 6731.000
1024.928, 6565.000
1026.035, 6408.000
1027.142, 6365.000
1028.249, 6197.000
1029.356, 6140.000
1030.462, 6027.000
1031.569, 6002.000
1032.675, 5852.000
1033.781, 5876.000
1034.887, 5825.000
1035.993, 5795.000
1037.098, 5797.000
1038.204, 5649.000
1039.309, 5639.000
1040.415, 5677.000
1041.520, 5592.000
1042.624, 5690.000
1043.729, 5511.000
1044.834, 5690.000
1045.938, 5592.000
1047.042, 5576.000
1048.146, 5525.000
1049.250, 5534.000
1050.354, 5527.000
1051.458, 5540.000
1052.561, 5582.000
1053.664, 5549.000
1054.767, 5667.000
1055.870, 5587.000
1056.973, 5628.000
1058.076, 5627.000
1059.178, 5543.000
1060.281, 5581.000
1061.383, 5568.000
1062.485, 5674.000
1063.587, 5572.000
1064.688, 5551.000
1065.790, 5572.000
1066.891, 5745.000
1067.993, 5639.076
1069.094, 5637.818
1070.195, 5509.000
1071.295, 5552.000
1072.396, 5438.000
1073.496, 5533.000
1074.597, 5492.000
1075.697, 5591.000
1076.797, 5630.000
1077.897, 5599.000
1078.996, 5573.000
1080.096, 5697.000
1081.195, 5661.000
1082.294, 5677.000
1083.393, 5650.000
1084.492, 5740.000
1085.591, 5710.000
1086.689, 5673.000
1087.788, 5793.000
1088.886, 5696.000
1089.984, 5758.000
1091.082, 5754.000
1092.180, 5693.000
1093.277, 5667.000
1094.375, 5682.000
1095.472, 5780.000
1096.569, 5671.000
1097.666, 5613.000
1098.763, 5879.000
1099.860, 5662.000
1100.956, 5697.000
1102.053, 5641.000
1103.149, 5754.000
1104.245, 5755.000
1105.341, 5727.000
1106.436, 5740.000
1107.532, 5745.000
1108.627, 5809.000
1109.723, 5707.000
1110.818, 5789.000
1111.913, 5875.000
1113.007, 5727.000
1114.102, 5801.000
1115.197, 5682.000
1116.291, 5721.000
1117.385, 5621.000
1118.479, 5654.000
1119.573, 5646.000
1120.666, 5662.000
1121.760, 5639.000
1122.853, 5598.000
1123.947, 5582.000
1125.040, 5641.000
1126.132, 5538.000
1127.225, 5539.000
1128.318, 5624.000
1129.410, 5581.000
1130.502, 5502.000
1131.595, 5585.000
1132.687, 5624.000
1133.778, 5637.000
1134.870, 5686.000
1135.961, 5674.000
1137.053, 5738.000
1138.144, 5594.000
1139.235, 5643.000
1140.326, 5631.000
1141.416, 5698.000
1142.507, 5718.000
1143.597, 5805.000
1144.688, 5651.000
1145.778, 5805.000
1146.868, 5684.000
1147.957, 5689.000
1149.047, 5655.000
1150.136, 5724.000
1151.226, 5721.000
1152.315, 5705.000
1153.404, 5717.000
1154.493, 5627.000
1155.581, 5602.000
1156.670, 5741.000
1157.758, 5615.000
1158.846, 5656.000
1159.934, 5546.000
1161.022, 5604.000
1162.110, 5583.000
1163.198, 5653.000
1164.285, 5630.000
1165.372, 5720.000
1166.459, 5574.000
1167.546, 5613.000
1168.633, 5663.000
1169.720, 5567.000
1170.806, 5617.000
1171.892, 5629.000
1172.979, 5547.000
1174.065, 5644.000
1175.150, 5600.000
1176.236, 5624.000
1177.322, 5668.000
1178.407, 5564.000
1179.492, 5776.000
1180.577, 5593.000
1181.662, 5663.000
1182.747, 5652.000
1183.832, 5589.000
1184.916, 5630.000
1186.000, 5719.000
1187.084, 5607.000
1188.168, 5723.000
1189.252, 5711.000
1190.336, 5661.000
1191.419, 5609.000
1192.503, 5713.000
1193.586, 5605.000
1194.669, 5676.000
1195.752, 5685.000
1196.835, 5695.000
1197.917, 5649.000
1199.000, 5726.000
1200.082, 5713.000
1201.164, 5811.000
1202.246, 5758.159
1203.328, 5689.000
1204.409, 5644.000
1205.491, 5659.433
1206.572, 5677.000
1207.653, 5722.000
1208.734, 5760.000
1209.815, 5799.000
1210.896, 5768.000
1211.976, 5632.000
1213.057, 5841.000
1214.137, 5737.000
1215.217, 5731.000
1216.297, 5811.000
1217.377, 5733.000
1218.456, 5858.000
1219.536, 5800.000
1220.615, 5725.000
1221.694, 5811.000
1222.773, 5767.000
1223.852, 5885.000
1224.931, 5781.000
1226.009, 5877.000
1227.088, 5789.000
1228.166, 5819.000
1229.244, 5762.000
1230.322, 5885.000
1231.400, 5904.000
1232.477, 5807.000
1233.555, 5780.000
1234.632, 5876.000
1235.709, 5776.000
1236.786, 5903.000
1237.863, 5843.000
1238.939, 5942.000
1240.016, 5766.000
1241.092, 5801.000
1242.168, 5792.000
1243.245, 5918.000
1244.320, 5863.000
1245.396, 6029.000
1246.472, 5942.000
1247.547, 5927.000
1248.622, 5790.000
1249.697, 5982.000
1250.772, 6010.000
1251.847, 5978.000
1252.922, 5979.000
1253.996, 6013.000
1255.071, 5945.000
1256.145, 6016.000
1257.219, 6027.000
1258.293, 5994.000
1259.366, 6004.000
1260.440, 6053.000
1261.513, 6011.000
1262.587, 6077.000
1263.660, 5963.000
1264.733, 5958.000
1265.805, 6149.000
1266.878, 6048.000
1267.951, 6123.000
1269.023, 6101.000
1270.095, 6115.000
1271.167, 6088.000
1272.239, 6066.000
1273.311, 6200.000
1274.382, 6123.000
1275.454, 6090.000
1276.525, 6026.000
1277.596, 6126.000
1278.667, 6061.000
1279.738, 6113.000
1280.808, 6016.000
1281.879, 6141.000
1282.949, 6189.000
1284.019, 6170.000
1285.089, 6097.000
1286.159, 6130.000
1287.229, 6206.000
1288.298, 6031.000
1289.368, 6061.000
1290.437, 6066.000
1291.506, 6155.000
1292.575, 6158.000
1293.644, 6203.000
1294.712, 6045.000
1295.781, 6139.000
1296.849, 6207.000
1297.917, 6102.000
1298.985, 6164.000
1300.053, 5978.000
1301.121, 6195.000
1302.188, 6157.000
1303.255, 6049.000
1304.323, 6142.000
1305.390, 6065.000
1306.457, 6188.000
1307.523, 6084.000
1308.590, 6217.000
1309.656, 6092.000
1310.723, 6198.000
1311.789, 6162.000
1312.855, 6312.000
1313.921, 6163.000
1314.986, 6194.000
1316.052, 6231.000
1317.117, 6151.000
1318.182, 6259.000
1319.248, 6181.000
1320.312, 6250.000
1321.377, 6142.760
1322.442, 6227.001
1323.506, 6276.035
1324.571, 6291.759
1325.635, 6174.389
1326.699, 6228.877
1327.762, 6214.489
1328.826, 6197.280
1329.890, 6275.957
1330.953, 6177.941
1332.016, 6255.093
1333.079, 6262.321
1334.142, 6301.552
1335.205, 6271.484
1336.268, 6262.821
1337.330, 6323.474
1338.392, 6345.745
1339.454, 6307.696
1340.516, 6348.958
1341.578, 6248.518
1342.640, 6272.423
1343.701, 6349.974
1344.763, 6315.409
1345.824, 6357.934
1346.885, 6371.098
1347.946, 6250.828
1349.007, 6362.612
1350.067, 6374.038
1351.128, 6282.423
1352.188, 6386.252
1353.248, 6308.840
1354.308, 6296.119
1355.368, 6332.084
1356.428, 6317.296
1357.487, 6382.523
1358.547, 6370.666
1359.606, 6351.918
1360.665, 6363.227
1361.724, 6289.364
1362.783, 6373.512
1363.841, 6349.721
1364.900, 6379.587
1365.958, 6421.609
1367.016, 6370.516
1368.074, 6418.002
1369.132, 6312.615
1370.190, 6335.143
1371.247, 6343.893
1372.304, 6434.403
1373.362, 6329.761
1374.419, 6348.731
1375.476, 6420.334
1376.532, 6418.288
1377.589, 6447.038
1378.645, 6384.625
1379.702, 6407.853
1380.758, 6407.472
1381.814, 6488.657
1382.870, 6505.450
1383.925, 6444.582
1384.981, 6384.045
1386.036, 6431.000
1387.092, 6521.000
1388.147, 6510.000
1389.202, 6535.000
1390.256, 6635.000
1391.311, 6505.000
1392.365, 6657.000
1393.420, 6503.000
1394.474, 6543.000
1395.528, 6515.000
1396.582, 6503.000
1397.636, 6633.000
1398.689, 6592.000
1399.742, 6619.000
1400.796, 6627.000
1401.849, 6633.000
1402.902, 6493.000
1403.955, 6555.000
1405.007, 6629.000
1406.060, 6566.000
1407.112, 6689.000
1408.164, 6567.000
1409.216, 6582.000
1410.268, 6633.000
1411.320, 6687.000
1412.371, 6763.000
1413.423, 6727.000
1414.474, 6701.000
1415.525, 6640.000
1416.576, 6627.000
1417.627, 6629.000
1418.678, 6630.613
1419.728, 6766.000
1420.778, 6681.000
1421.829, 6754.000
1422.879, 6784.000
1423.928, 6684.000
1424.978, 6673.000
1426.028, 6592.000
1427.077, 6727.000
1428.126, 6835.000
1429.176, 6710.000
1430.225, 6795.000
1431.273, 6808.000
1432.322, 6798.000
1433.371, 6792.000
1434.419, 6755.000
1435.467, 6877.000
1436.515, 6779.000
1437.563, 6882.000
1438.611, 6853.000
1439.658, 6878.644
1440.706, 6900.556
1441.753, 6924.000
1442.800, 6897.000
1443.847, 6866.000
1444.894, 6834.000
1445.941, 6887.758
1446.987, 6871.301
1448.034, 7009.544
1449.080, 6909.000
1450.126, 6948.000
1451.172, 6977.000
1452.218, 7124.000
1453.263, 7100.000
1454.309, 7015.000
1455.354, 7124.000
1456.399, 7082.000
1457.444, 7046.000
1458.489, 7190.000
1459.534, 7102.000
1460.579, 7142.000
1461.623, 7207.000
1462.667, 7080.000
1463.711, 7199.000
1464.755, 7031.000
1465.799, 7113.000
1466.843, 7252.000
1467.886, 7121.000
1468.930, 7148.000
1469.973, 7057.000
1471.016, 7131.000
1472.059, 7052.000
1473.101, 7213.000
1474.144, 7032.000
1475.186, 7101.000
1476.229, 7066.000
1477.271, 7001.000
1478.313, 7198.000
1479.355, 6950.000
1480.396, 7097.000
1481.438, 7087.000
1482.479, 7084.000
1483.520, 7009.000
1484.561, 7033.000
1485.602, 7036.000
1486.643, 7124.000
1487.684, 7101.260
1488.724, 7033.000
1489.765, 7105.000
1490.805, 7086.000
1491.845, 7101.000
1492.885, 7144.000
1493.924, 7036.000
1494.964, 7131.000
1496.003, 7177.000
1497.042, 7064.000
1498.082, 7277.000
1499.120, 7188.000
1500.159, 7035.000
1501.198, 7156.000
1502.236, 7209.000
1503.275, 7151.000
1504.313, 7228.000
1505.351, 7210.000
1506.389, 7083.000
1507.427, 7266.000
1508.464, 7196.000
1509.502, 7245.000
1510.539, 7293.000
1511.576, 7221.000
1512.613, 7297.000
1513.650, 7190.000
1514.687, 7257.000
1515.723, 7151.000
1516.759, 7224.000
1517.796, 7353.000
1518.832, 7234.000
1519.868, 7291.000
1520.903, 7179.000
1521.939, 7124.000
1522.975, 7155.000
1524.010, 7223.000
1525.045, 7283.000
1526.080, 7134.000
1527.115, 7167.000
1528.150, 7290.000
1529.184, 7124.000
1530.219, 7232.000
1531.253, 7270.000
1532.287, 7161.000
1533.321, 7191.000
1534.355, 7277.000
1535.388, 7159.000
1536.422, 7101.000
1537.455, 7240.000
1538.488, 7094.000
1539.522, 7241.000
1540.554, 7188.000
1541.587, 7270.000
1542.620, 7092.000
1543.652, 7126.000
1544.685, 7332.000
1545.717, 7093.000
1546.749, 7200.000
1547.781, 7226.000
1548.812, 7138.000
1549.844, 7144.000
1550.875, 7207.000
1551.906, 7090.000
1552.938, 7217.000
1553.968, 7252.000
1554.999, 7184.000
1556.030, 7141.000
1557.060, 7140.000
1558.091, 7140.000
1559.121, 7219.000
1560.151, 7190.000
1561.181, 7215.000
1562.211, 7137.000
1563.240, 7148.000
1564.270, 7204.000
1565.299, 7219.000
1566.328, 7187.000
1567.357, 7291.000
1568.386, 7209.000
1569.415, 7286.000
1570.443, 7142.000
1571.472, 7295.000
1572.500, 7239.000
1573.528, 7320.000
1574.556, 7251.000
1575.584, 7261.000
1576.611, 7239.000
1577.639, 7166.000
1578.666, 7264.000
1579.693, 7193.000
##END=



