##NAMES=Zircon
##RRUFFID=R050488
##IDEAL CHEMISTRY=Zr^4+^SiO_4_
##LOCALITY=Sigulani Village, Tambani Area, Blantyre District, Nyassaland
##OWNER=RRUFF
##SOURCE=California Institute of Technology
##DESCRIPTION=Brown fragment
##STATUS=The identification of this mineral has been confirmed by X-ray diffraction and chemical analysis
##URL=rruff.info/R050488
##MEASURED CHEMISTRY=(Zr_0.99_Hf_0.01_)_Î£=1_Si_1.00_O_4_
##PIN_ID=L01932
##ORIENTATION=Laser parallel to -a* (-1 0 0). Fiducial mark perpendicular to laser is parallel to c [0 0 1]
63.41100, 98.00000
64.65300, 96.00000
65.89600, 92.00000
67.13800, 111.0000
68.38000, 98.00000
69.62200, 117.0000
70.86300, 96.00000
72.10500, 103.0000
73.34600, 98.00000
74.58700, 82.00000
75.82800, 92.00000
77.06900, 76.00000
78.30900, 77.00000
79.55000, 68.00000
80.79000, 87.00000
82.03000, 78.00000
83.27000, 79.00000
84.51000, 93.00000
85.74900, 92.00000
86.98900, 71.00000
88.22800, 75.00000
89.46700, 82.00000
90.70600, 92.00000
91.94400, 99.00000
93.18300, 89.00000
94.42100, 84.00000
95.65900, 100.0000
96.89700, 119.0000
98.13500, 129.0000
99.37300, 154.0000
100.6100, 161.0000
101.8480, 179.0000
103.0850, 180.0000
104.3220, 222.0000
105.5590, 241.0000
106.7950, 258.6852
108.0320, 304.0000
109.2680, 304.0000
110.5040, 335.0000
111.7400, 371.0000
112.9760, 411.0000
114.2120, 455.0000
115.4470, 514.0000
116.6820, 592.0000
117.9170, 629.0000
119.1520, 650.0000
120.3870, 564.0000
121.6220, 577.0000
122.8560, 493.0000
124.0900, 495.0000
125.3240, 503.0000
126.5580, 531.0000
127.7920, 520.0000
129.0260, 488.0000
130.2590, 486.0000
131.4920, 532.0000
132.7250, 498.0000
133.9580, 507.0000
135.1910, 541.0000
136.4230, 524.0000
137.6560, 530.0000
138.8880, 531.0000
140.1200, 555.0000
141.3520, 589.0000
142.5830, 516.0000
143.8150, 555.0000
145.0460, 587.0000
146.2770, 544.0000
147.5080, 591.0000
148.7390, 576.0000
149.9700, 553.0000
151.2000, 589.0000
152.4310, 579.0000
153.6610, 592.0000
154.8910, 605.0000
156.1210, 609.0000
157.3500, 647.0000
158.5800, 618.0000
159.8090, 590.0000
161.0380, 612.0000
162.2670, 638.0000
163.4960, 625.0000
164.7240, 595.0000
165.9530, 631.0000
167.1810, 605.0000
168.4090, 575.0000
169.6370, 580.0000
170.8650, 604.0000
172.0920, 596.0000
173.3200, 626.0000
174.5470, 596.0000
175.7740, 607.0000
177.0010, 633.0000
178.2280, 631.0000
179.4540, 616.0000
180.6810, 602.0000
181.9070, 628.0000
183.1330, 617.0000
184.3590, 626.0000
185.5850, 688.0000
186.8100, 644.0000
188.0350, 653.0000
189.2610, 671.0000
190.4860, 735.0000
191.7110, 773.0000
192.9350, 829.0000
194.1600, 923.0000
195.3840, 1006.000
196.6080, 1096.000
197.8320, 1215.000
199.0560, 1287.000
200.2800, 1464.000
201.5030, 1706.000
202.7270, 1862.000
203.9500, 1896.000
205.1730, 1988.000
206.3950, 1900.000
207.6180, 1821.000
208.8410, 1615.000
210.0630, 1499.000
211.2850, 1598.000
212.5070, 1633.000
213.7290, 1847.000
214.9500, 2023.000
216.1720, 2147.000
217.3930, 2253.000
218.6140, 2271.000
219.8350, 2438.000
221.0560, 2373.000
222.2770, 2445.000
223.4970, 2609.000
224.7170, 2801.000
225.9370, 2774.000
227.1570, 2849.000
228.3770, 2717.000
229.5970, 2440.000
230.8160, 2024.000
232.0350, 1592.000
233.2540, 1236.000
234.4730, 1042.000
235.6920, 895.0000
236.9110, 778.0000
238.1290, 741.0000
239.3470, 709.0000
240.5650, 670.0000
241.7830, 623.0000
243.0010, 687.0000
244.2180, 615.0000
245.4360, 661.0000
246.6530, 643.0000
247.8700, 620.0000
249.0870, 664.0000
250.3040, 620.0000
251.5200, 598.0000
252.7370, 657.0000
253.9530, 595.0000
255.1690, 613.0000
256.3850, 617.0000
257.6000, 655.0000
258.8160, 594.0000
260.0310, 593.0000
261.2460, 613.0000
262.4610, 643.0000
263.6760, 601.0000
264.8910, 623.0000
266.1050, 612.0000
267.3200, 641.0000
268.5340, 625.0000
269.7480, 585.0000
270.9620, 619.0000
272.1750, 633.0000
273.3890, 605.0000
274.6020, 614.0000
275.8150, 629.0000
277.0280, 626.0000
278.2410, 649.0000
279.4540, 640.0000
280.6660, 626.0000
281.8790, 613.0000
283.0910, 639.0000
284.3030, 664.0000
285.5140, 667.0000
286.7260, 652.0000
287.9380, 624.0000
289.1490, 650.0000
290.3600, 662.0000
291.5710, 631.0000
292.7820, 696.0000
293.9920, 627.0000
295.2030, 642.0000
296.4130, 644.0000
297.6230, 656.0000
298.8330, 663.0000
300.0430, 648.0000
301.2520, 624.0000
302.4620, 663.0000
303.6710, 676.0000
304.8800, 643.0000
306.0890, 654.0000
307.2980, 657.0000
308.5070, 673.0000
309.7150, 674.0000
310.9230, 668.0000
312.1310, 655.0000
313.3390, 665.0000
314.5470, 659.9780
315.7550, 672.3318
316.9620, 678.0000
318.1690, 700.0000
319.3760, 740.0000
320.5830, 752.0000
321.7900, 730.0000
322.9960, 714.0000
324.2030, 718.0000
325.4090, 715.6583
326.6150, 728.0000
327.8210, 731.0000
329.0270, 753.0000
330.2320, 757.0000
331.4380, 759.0000
332.6430, 788.0000
333.8480, 798.0000
335.0530, 817.0000
336.2580, 880.0000
337.4620, 841.0000
338.6670, 898.0000
339.8710, 974.0000
341.0750, 1005.000
342.2790, 1098.000
343.4820, 1219.000
344.6860, 1433.122
345.8890, 1673.000
347.0920, 2034.000
348.2960, 2430.000
349.4980, 2913.000
350.7010, 3471.000
351.9040, 4162.000
353.1060, 4907.000
354.3080, 5768.000
355.5100, 6466.000
356.7120, 7181.000
357.9140, 7580.000
359.1150, 7423.000
360.3170, 7033.000
361.5180, 6046.000
362.7190, 4822.000
363.9200, 3684.000
365.1200, 2751.000
366.3210, 2108.000
367.5210, 1731.000
368.7210, 1470.000
369.9210, 1223.000
371.1210, 1174.000
372.3210, 1082.000
373.5200, 989.0000
374.7200, 965.0000
375.9190, 966.0000
377.1180, 937.0000
378.3170, 910.0000
379.5150, 926.0000
380.7140, 872.0000
381.9120, 868.0000
383.1110, 846.0000
384.3090, 878.0000
385.5060, 901.0000
386.7040, 874.0000
387.9020, 907.0000
389.0990, 967.0000
390.2960, 925.0000
391.4930, 976.0000
392.6900, 975.0000
393.8860, 987.0000
395.0830, 1010.000
396.2790, 966.0000
397.4750, 968.0000
398.6710, 931.0000
399.8670, 928.0000
401.0630, 928.0000
402.2580, 884.0000
403.4540, 861.0000
404.6490, 838.0000
405.8440, 827.0422
407.0390, 832.0000
408.2330, 837.0000
409.4280, 826.0000
410.6220, 862.0000
411.8160, 848.0000
413.0100, 858.0000
414.2040, 867.0000
415.3980, 863.0000
416.5910, 924.0000
417.7850, 925.0000
418.9780, 973.0000
420.1710, 943.0000
421.3640, 1033.000
422.5560, 1054.000
423.7490, 1088.000
424.9410, 1167.000
426.1330, 1249.000
427.3250, 1418.000
428.5170, 1633.000
429.7090, 1930.000
430.9000, 2319.000
432.0910, 2685.000
433.2820, 3219.000
434.4730, 3738.000
435.6640, 4336.000
436.8550, 4911.000
438.0450, 5449.184
439.2360, 6614.000
440.4260, 6187.000
441.6160, 6178.000
442.8060, 5731.000
443.9950, 5033.000
445.1850, 4291.000
446.3740, 3319.000
447.5630, 2744.000
448.7520, 2267.000
449.9410, 1927.000
451.1300, 1701.000
452.3180, 1471.000
453.5060, 1321.000
454.6950, 1261.000
455.8830, 1139.000
457.0700, 1173.000
458.2580, 1063.000
459.4450, 1047.000
460.6330, 992.0000
461.8200, 967.0000
463.0070, 953.0000
464.1940, 959.0000
465.3800, 914.0000
466.5670, 887.0000
467.7530, 912.0000
468.9390, 884.0000
470.1250, 881.0000
471.3110, 883.0000
472.4970, 868.1901
473.6820, 851.0000
474.8680, 847.0000
476.0530, 838.0000
477.2380, 808.0000
478.4230, 825.0000
479.6070, 804.0000
480.7920, 772.0000
481.9760, 773.0000
483.1600, 767.0000
484.3440, 767.0000
485.5280, 778.0000
486.7120, 790.0000
487.8950, 771.0000
489.0780, 756.0000
490.2620, 755.0000
491.4450, 763.0000
492.6270, 782.0000
493.8100, 789.4590
494.9920, 781.7237
496.1750, 827.0000
497.3570, 744.0000
498.5390, 773.0000
499.7210, 727.0000
500.9020, 769.0000
502.0840, 771.0000
503.2650, 770.0000
504.4460, 759.0000
505.6270, 775.0000
506.8080, 788.0000
507.9890, 778.0000
509.1690, 764.0000
510.3500, 762.0000
511.5300, 763.0000
512.7100, 755.9551
513.8900, 782.0000
515.0690, 750.0000
516.2490, 744.0000
517.4280, 739.0000
518.6070, 781.0000
519.7860, 777.0000
520.9650, 789.0000
522.1440, 770.0000
523.3220, 757.0000
524.5010, 794.0000
525.6790, 776.0000
526.8570, 754.0000
528.0350, 747.0000
529.2130, 771.0000
530.3900, 804.0000
531.5670, 773.0000
532.7450, 774.0000
533.9220, 769.0000
535.0980, 782.0000
536.2750, 791.0000
537.4520, 754.0000
538.6280, 745.0000
539.8040, 762.0000
540.9800, 763.0000
542.1560, 801.0000
543.3320, 789.0000
544.5070, 760.0000
545.6830, 784.0000
546.8580, 811.0000
548.0330, 781.0000
549.2080, 819.0000
550.3830, 831.0000
551.5570, 807.0000
552.7310, 783.0000
553.9060, 797.0000
555.0800, 776.3134
556.2540, 795.0000
557.4270, 765.0000
558.6010, 798.0000
559.7740, 798.0000
560.9470, 817.0000
562.1210, 806.0000
563.2930, 777.0000
564.4660, 785.0000
565.6390, 756.0000
566.8110, 762.5606
567.9830, 769.0000
569.1550, 769.0000
570.3270, 768.0000
571.4990, 763.0000
572.6710, 771.6298
573.8420, 773.2438
575.0130, 787.0000
576.1840, 781.0000
577.3550, 786.0000
578.5260, 780.0000
579.6970, 779.1047
580.8670, 779.0000
582.0370, 778.0000
583.2070, 766.0000
584.3770, 771.0000
585.5470, 778.0000
586.7170, 770.1131
587.8860, 757.0000
589.0550, 771.0000
590.2240, 760.0000
591.3930, 775.0000
592.5620, 794.0000
593.7310, 751.0000
594.8990, 809.0000
596.0670, 774.0000
597.2350, 756.0000
598.4030, 793.0000
599.5710, 791.0000
600.7390, 781.0000
601.9060, 762.0000
603.0740, 791.0000
604.2410, 764.0000
605.4080, 753.0000
606.5740, 826.0000
607.7410, 762.0000
608.9080, 786.0000
610.0740, 822.0000
611.2400, 812.0000
612.4060, 822.0506
613.5720, 830.0000
614.7370, 803.0000
615.9030, 803.0000
617.0680, 780.0000
618.2330, 790.0000
619.3980, 813.0000
620.5630, 778.0000
621.7280, 795.0000
622.8920, 799.0000
624.0570, 780.0000
625.2210, 768.0000
626.3850, 792.0000
627.5490, 780.0000
628.7120, 801.0000
629.8760, 807.0000
631.0390, 833.0000
632.2020, 829.0000
633.3650, 822.0000
634.5280, 801.0000
635.6910, 790.0000
636.8530, 832.0000
638.0160, 829.0000
639.1780, 825.0000
640.3400, 834.0000
641.5020, 825.0000
642.6640, 843.0000
643.8250, 829.0000
644.9870, 799.0000
646.1480, 835.0000
647.3090, 810.0000
648.4700, 831.0000
649.6300, 843.0000
650.7910, 826.0000
651.9510, 825.0000
653.1120, 827.5974
654.2720, 804.0000
655.4320, 831.0000
656.5910, 829.0000
657.7510, 832.0000
658.9100, 828.7286
660.0690, 827.8940
661.2290, 804.0000
662.3880, 830.0000
663.5460, 816.0000
664.7050, 829.0000
665.8630, 837.0067
667.0220, 796.0000
668.1800, 813.0000
669.3380, 819.0000
670.4950, 723.5600
671.6530, 780.0312
672.8100, 864.0000
673.9680, 807.0000
675.1250, 811.0000
676.2820, 788.0000
677.4390, 827.0000
678.5950, 840.0000
679.7520, 795.0000
680.9080, 818.0000
682.0640, 817.0000
683.2200, 831.0000
684.3760, 875.0000
685.5320, 818.0000
686.6870, 858.0000
687.8420, 814.0000
688.9980, 821.0000
690.1530, 809.0000
691.3070, 834.0000
692.4620, 800.0000
693.6170, 810.0000
694.7710, 797.0000
695.9250, 810.0000
697.0790, 789.0000
698.2330, 838.0000
699.3870, 856.0000
700.5400, 782.0000
701.6940, 833.0000
702.8470, 829.0000
704.0000, 828.0000
705.1530, 818.0000
706.3050, 840.0000
707.4580, 849.0000
708.6100, 832.0000
709.7630, 879.0000
710.9150, 854.0000
712.0660, 848.0000
713.2180, 847.0000
714.3700, 825.0000
715.5210, 824.6169
716.6720, 823.0000
717.8240, 816.0000
718.9740, 837.0000
720.1250, 844.0000
721.2760, 845.0000
722.4260, 861.0000
723.5770, 839.0000
724.7270, 832.0000
725.8770, 850.0000
727.0260, 819.0000
728.1760, 816.0000
729.3250, 835.0000
730.4750, 840.0000
731.6240, 839.0000
732.7730, 853.0000
733.9220, 825.0000
735.0700, 831.0000
736.2190, 863.0000
737.3670, 832.0000
738.5150, 848.0000
739.6630, 879.0000
740.8110, 809.0000
741.9590, 865.0000
743.1060, 829.0000
744.2540, 809.0000
745.4010, 876.0000
746.5480, 815.0000
747.6950, 863.0000
748.8410, 845.0000
749.9880, 848.0000
751.1340, 823.0000
752.2800, 835.7197
753.4260, 830.1697
754.5720, 861.0000
755.7180, 831.0000
756.8640, 849.0000
758.0090, 846.0000
759.1540, 888.0000
760.2990, 854.0000
761.4440, 866.0000
762.5890, 842.0000
763.7340, 862.0000
764.8780, 859.0000
766.0220, 846.0000
767.1660, 848.0000
768.3100, 848.5148
769.4540, 847.2386
770.5980, 854.0000
771.7410, 853.0000
772.8840, 848.0000
774.0280, 850.7437
775.1700, 844.0000
776.3130, 866.0000
777.4560, 872.0000
778.5980, 863.0000
779.7410, 857.0000
780.8830, 861.0000
782.0250, 853.0000
783.1670, 865.0000
784.3080, 849.0000
785.4500, 888.0000
786.5910, 860.0000
787.7320, 847.0000
788.8730, 894.0000
790.0140, 934.0000
791.1550, 883.0000
792.2950, 861.0000
793.4360, 871.0000
794.5760, 862.0000
795.7160, 890.0000
796.8560, 874.2352
797.9960, 868.0000
799.1350, 853.0000
800.2750, 908.0000
801.4140, 897.0000
802.5530, 901.0000
803.6920, 886.0000
804.8310, 893.0000
805.9690, 874.0000
807.1080, 854.0000
808.2460, 910.0000
809.3840, 849.0000
810.5220, 874.0000
811.6600, 890.0000
812.7970, 885.0000
813.9350, 904.0000
815.0720, 833.0000
816.2090, 849.0000
817.3460, 839.0000
818.4830, 849.0000
819.6200, 850.6951
820.7560, 861.0106
821.8930, 865.1555
823.0290, 889.0000
824.1650, 877.0000
825.3010, 889.0000
826.4360, 900.0000
827.5720, 841.0000
828.7070, 883.0000
829.8420, 896.0000
830.9770, 928.0000
832.1120, 866.0000
833.2470, 904.0000
834.3820, 896.0000
835.5160, 843.0000
836.6500, 879.0000
837.7840, 910.0000
838.9180, 893.0000
840.0520, 926.0000
841.1860, 896.0000
842.3190, 913.0000
843.4520, 892.0000
844.5850, 853.0000
845.7180, 915.0000
846.8510, 921.0000
847.9840, 898.0000
849.1160, 890.0000
850.2490, 916.0000
851.3810, 905.0000
852.5130, 948.0000
853.6450, 870.0000
854.7760, 846.0000
855.9080, 905.0000
857.0390, 888.0000
858.1700, 933.0000
859.3010, 916.0000
860.4320, 903.0000
861.5630, 905.0000
862.6930, 887.0000
863.8240, 886.0000
864.9540, 917.0000
866.0840, 917.0000
867.2140, 945.0000
868.3440, 885.0000
869.4730, 894.0000
870.6030, 914.0000
871.7320, 917.0000
872.8610, 919.0000
873.9900, 915.0000
875.1190, 934.0000
876.2470, 929.0000
877.3760, 890.0000
878.5040, 917.0000
879.6320, 911.0000
880.7600, 904.0000
881.8880, 920.0000
883.0150, 935.0000
884.1430, 923.0000
885.2700, 964.0000
886.3970, 956.4166
887.5240, 895.0000
888.6510, 952.0000
889.7780, 956.0000
890.9040, 929.0000
892.0310, 975.0000
893.1570, 924.0000
894.2830, 950.0000
895.4090, 958.0000
896.5350, 931.0000
897.6600, 937.0000
898.7860, 941.0000
899.9110, 955.0000
901.0360, 954.0000
902.1610, 970.0000
903.2860, 983.0000
904.4100, 989.0000
905.5350, 944.0000
906.6590, 951.0000
907.7830, 940.0000
908.9070, 978.0000
910.0310, 952.0000
911.1540, 955.0000
912.2780, 937.0000
913.4010, 931.8212
914.5240, 958.0000
915.6470, 926.0000
916.7700, 944.0000
917.8930, 949.0000
919.0150, 947.0000
920.1380, 957.0000
921.2600, 961.0000
922.3820, 942.0000
923.5040, 973.0000
924.6260, 971.0000
925.7470, 984.0000
926.8690, 960.0000
927.9900, 961.0000
929.1110, 1001.000
930.2320, 927.0000
931.3530, 973.0000
932.4730, 963.0000
933.5940, 952.0000
934.7140, 940.0000
935.8340, 997.0000
936.9540, 991.0000
938.0740, 987.1716
939.1930, 997.0000
940.3130, 965.0000
941.4320, 987.0000
942.5510, 982.0000
943.6700, 1015.000
944.7890, 962.0000
945.9080, 999.0000
947.0260, 975.0000
948.1450, 1008.000
949.2630, 1011.000
950.3810, 982.0000
951.4990, 977.0000
952.6170, 1001.000
953.7340, 1007.000
954.8520, 1014.442
955.9690, 1014.000
957.0860, 1028.000
958.2030, 1024.000
959.3200, 1023.000
960.4360, 1067.000
961.5530, 1081.000
962.6690, 1064.000
963.7850, 1052.000
964.9010, 1125.000
966.0170, 1121.000
967.1330, 1232.000
968.2480, 1376.000
969.3630, 1543.000
970.4790, 1777.000
971.5940, 1999.000
972.7080, 2311.000
973.8230, 2701.000
974.9380, 3006.000
976.0520, 3138.000
977.1660, 3001.000
978.2800, 2621.000
979.3940, 2183.000
980.5080, 1772.000
981.6220, 1571.000
982.7350, 1370.000
983.8480, 1343.000
984.9610, 1300.000
986.0740, 1290.000
987.1870, 1259.000
988.3000, 1281.000
989.4120, 1281.000
990.5250, 1300.000
991.6370, 1349.000
992.7490, 1406.000
993.8610, 1378.000
994.9720, 1527.000
996.0840, 1647.000
997.1950, 1679.000
998.3060, 1877.000
999.4170, 2169.000
1000.528, 2634.000
1001.639, 3381.000
1002.750, 4722.000
1003.860, 6400.000
1004.970, 8466.000
1006.080, 11194.00
1007.190, 14054.00
1008.300, 16408.00
1009.410, 17677.00
1010.519, 16800.00
1011.628, 14070.00
1012.738, 10159.00
1013.846, 6736.000
1014.955, 4612.000
1016.064, 3322.000
1017.172, 2595.000
1018.281, 2107.000
1019.389, 1869.000
1020.497, 1659.000
1021.605, 1602.000
1022.713, 1457.000
1023.820, 1415.000
1024.928, 1382.000
1026.035, 1329.000
1027.142, 1322.000
1028.249, 1277.000
1029.356, 1294.000
1030.462, 1250.000
1031.569, 1243.000
1032.675, 1213.000
1033.781, 1181.000
1034.887, 1169.000
1035.993, 1214.000
1037.098, 1224.000
1038.204, 1162.000
1039.309, 1204.000
1040.415, 1192.000
1041.520, 1186.000
1042.624, 1179.000
1043.729, 1189.000
1044.834, 1221.000
1045.938, 1205.000
1047.042, 1236.615
1048.146, 1301.000
1049.250, 1280.000
1050.354, 1324.000
1051.458, 1350.000
1052.561, 1430.000
1053.664, 1473.000
1054.767, 1534.000
1055.870, 1559.000
1056.973, 1598.000
1058.076, 1599.000
1059.178, 1422.000
1060.281, 1441.000
1061.383, 1358.000
1062.485, 1317.000
1063.587, 1211.000
1064.688, 1223.000
1065.790, 1211.000
1066.891, 1181.000
1067.993, 1154.000
1069.094, 1187.000
1070.195, 1182.000
1071.295, 1175.145
1072.396, 1160.000
1073.496, 1175.000
1074.597, 1191.000
1075.697, 1218.000
1076.797, 1205.000
1077.897, 1205.000
1078.996, 1223.000
1080.096, 1209.000
1081.195, 1284.000
1082.294, 1267.000
1083.393, 1321.000
1084.492, 1395.000
1085.591, 1449.000
1086.689, 1443.000
1087.788, 1519.000
1088.886, 1540.000
1089.984, 1508.000
1091.082, 1481.000
1092.180, 1500.000
1093.277, 1410.000
1094.375, 1402.000
1095.472, 1375.000
1096.569, 1300.000
1097.666, 1279.474
1098.763, 1266.508
1099.860, 1210.000
1100.956, 1260.000
1102.053, 1272.000
1103.149, 1260.000
1104.245, 1258.000
1105.341, 1286.000
1106.436, 1287.000
1107.532, 1316.000
1108.627, 1351.401
1109.723, 1416.000
1110.818, 1423.000
1111.913, 1452.000
1113.007, 1464.000
1114.102, 1477.000
1115.197, 1459.157
1116.291, 1395.000
1117.385, 1383.000
1118.479, 1331.000
1119.573, 1243.000
1120.666, 1265.000
1121.760, 1247.000
1122.853, 1272.000
1123.947, 1259.765
1125.040, 1216.000
1126.132, 1231.000
1127.225, 1231.000
1128.318, 1194.000
1129.410, 1186.000
1130.502, 1198.000
1131.595, 1215.000
1132.687, 1176.000
1133.778, 1209.000
1134.870, 1253.000
1135.961, 1201.084
1137.053, 1225.000
1138.144, 1175.000
1139.235, 1173.000
1140.326, 1255.000
1141.416, 1289.000
1142.507, 1236.000
1143.597, 1351.000
1144.688, 1386.000
1145.778, 1380.000
1146.868, 1419.000
1147.957, 1422.000
1149.047, 1374.000
1150.136, 1419.000
1151.226, 1383.000
1152.315, 1274.000
1153.404, 1288.000
1154.493, 1252.000
1155.581, 1222.000
1156.670, 1192.000
1157.758, 1226.000
1158.846, 1162.000
1159.934, 1218.000
1161.022, 1210.000
1162.110, 1188.000
1163.198, 1178.000
1164.285, 1158.000
1165.372, 1164.000
1166.459, 1186.000
1167.546, 1163.000
1168.633, 1200.000
1169.720, 1198.000
1170.806, 1160.000
1171.892, 1209.000
1172.979, 1182.000
1174.065, 1207.000
1175.150, 1183.000
1176.236, 1194.000
1177.322, 1200.000
1178.407, 1164.000
1179.492, 1182.000
1180.577, 1195.000
1181.662, 1187.000
1182.747, 1229.000
1183.832, 1218.000
1184.916, 1257.000
1186.000, 1243.000
1187.084, 1243.000
1188.168, 1234.000
1189.252, 1258.000
1190.336, 1243.000
1191.419, 1215.000
1192.503, 1245.000
1193.586, 1227.043
1194.669, 1166.000
1195.752, 1230.000
1196.835, 1196.000
1197.917, 1199.000
1199.000, 1205.000
1200.082, 1225.000
1201.164, 1178.000
1202.246, 1197.000
1203.328, 1201.000
1204.409, 1190.000
1205.491, 1227.000
1206.572, 1194.000
1207.653, 1205.000
1208.734, 1224.000
1209.815, 1229.000
1210.896, 1201.000
1211.976, 1217.000
1213.057, 1206.000
1214.137, 1256.000
1215.217, 1216.000
1216.297, 1239.000
1217.377, 1250.000
1218.456, 1212.000
1219.536, 1238.000
1220.615, 1260.000
1221.694, 1244.000
1222.773, 1248.000
1223.852, 1283.000
1224.931, 1209.000
1226.009, 1256.000
1227.088, 1299.000
1228.166, 1266.000
1229.244, 1248.000
1230.322, 1234.000
1231.400, 1244.000
1232.477, 1255.000
1233.555, 1248.000
1234.632, 1259.000
1235.709, 1281.000
1236.786, 1283.000
1237.863, 1263.000
1238.939, 1296.000
1240.016, 1221.000
1241.092, 1271.000
1242.168, 1253.000
1243.245, 1267.000
1244.320, 1237.000
1245.396, 1292.000
1246.472, 1294.000
1247.547, 1277.000
1248.622, 1313.000
1249.697, 1298.000
1250.772, 1254.000
1251.847, 1252.000
1252.922, 1304.000
1253.996, 1355.000
1255.071, 1301.000
1256.145, 1303.000
1257.219, 1276.000
1258.293, 1303.000
1259.366, 1374.000
1260.440, 1318.000
1261.513, 1351.000
1262.587, 1369.000
1263.660, 1309.000
1264.733, 1334.000
1265.805, 1343.000
1266.878, 1376.000
1267.951, 1384.000
1269.023, 1376.000
1270.095, 1383.000
1271.167, 1389.000
1272.239, 1368.000
1273.311, 1365.000
1274.382, 1340.000
1275.454, 1386.000
1276.525, 1336.000
1277.596, 1356.000
1278.667, 1338.000
1279.738, 1332.000
1280.808, 1370.000
1281.879, 1304.000
1282.949, 1301.000
1284.019, 1360.000
1285.089, 1330.000
1286.159, 1350.000
1287.229, 1343.000
1288.298, 1330.000
1289.368, 1376.000
1290.437, 1304.000
1291.506, 1326.000
1292.575, 1339.000
1293.644, 1278.000
1294.712, 1288.000
1295.781, 1316.000
1296.849, 1252.000
1297.917, 1336.000
1298.985, 1339.000
1300.053, 1315.000
1301.121, 1323.000
1302.188, 1330.000
1303.255, 1312.000
1304.323, 1291.000
1305.390, 1309.000
1306.457, 1331.000
1307.523, 1356.000
1308.590, 1355.000
1309.656, 1324.000
1310.723, 1366.000
1311.789, 1341.000
1312.855, 1344.000
1313.921, 1264.000
1314.986, 1338.000
1316.052, 1325.000
1317.117, 1373.000
1318.182, 1341.000
1319.248, 1320.000
1320.312, 1334.000
1321.377, 1353.000
1322.442, 1377.000
1323.506, 1347.000
1324.571, 1371.000
1325.635, 1354.000
1326.699, 1337.000
1327.762, 1328.000
1328.826, 1393.000
1329.890, 1415.000
1330.953, 1396.000
1332.016, 1384.000
1333.079, 1407.000
1334.142, 1363.000
1335.205, 1406.000
1336.268, 1412.000
1337.330, 1437.000
1338.392, 1420.000
1339.454, 1410.000
1340.516, 1440.000
1341.578, 1425.000
1342.640, 1415.000
1343.701, 1436.000
1344.763, 1416.000
1345.824, 1421.000
1346.885, 1454.000
1347.946, 1442.000
1349.007, 1428.000
1350.067, 1480.000
1351.128, 1474.000
1352.188, 1448.000
1353.248, 1459.000
1354.308, 1471.000
1355.368, 1428.000
1356.428, 1461.000
1357.487, 1444.000
1358.547, 1451.000
1359.606, 1448.000
1360.665, 1391.000
1361.724, 1449.000
1362.783, 1488.000
1363.841, 1397.000
1364.900, 1420.000
1365.958, 1385.000
1367.016, 1441.000
1368.074, 1397.000
1369.132, 1417.000
1370.190, 1436.000
1371.247, 1413.000
1372.304, 1404.000
1373.362, 1362.000
1374.419, 1402.000
1375.476, 1390.000
1376.532, 1400.000
1377.589, 1355.000
1378.645, 1376.000
1379.702, 1393.000
1380.758, 1415.000
1381.814, 1425.000
1382.870, 1345.000
1383.925, 1407.000
1384.981, 1449.000
1386.036, 1392.000
1387.092, 1459.000
1388.147, 1432.000
1389.202, 1451.000
1390.256, 1450.000
1391.311, 1368.000
1392.365, 1426.000
1393.420, 1403.000
1394.474, 1475.000
1395.528, 1465.000
1396.582, 1422.000
1397.636, 1452.000
1398.689, 1465.000
1399.742, 1409.000
1400.796, 1449.000
1401.849, 1464.000
1402.902, 1435.000
1403.955, 1472.000
1405.007, 1416.000
1406.060, 1443.000
1407.112, 1430.000
1408.164, 1498.000
1409.216, 1467.299
1410.268, 1485.000
1411.320, 1443.000
1412.371, 1443.000
1413.423, 1450.000
1414.474, 1451.000
1415.525, 1474.005
1416.576, 1475.763
1417.627, 1478.153
1418.678, 1487.000
1419.728, 1478.000
1420.778, 1472.000
1421.829, 1474.347
1422.879, 1524.000
1423.928, 1487.000
1424.978, 1519.000
1426.028, 1509.000
1427.077, 1530.000
1428.126, 1513.000
1429.176, 1532.634
1430.225, 1546.000
1431.273, 1562.000
1432.322, 1540.000
1433.371, 1547.000
1434.419, 1540.000
1435.467, 1586.000
1436.515, 1594.000
1437.563, 1557.000
1438.611, 1509.000
1439.658, 1593.000
1440.706, 1625.000
1441.753, 1610.000
1442.800, 1617.000
1443.847, 1607.000
1444.894, 1605.000
1445.941, 1620.000
1446.987, 1631.000
1448.034, 1695.000
1449.080, 1621.000
1450.126, 1690.000
1451.172, 1694.000
1452.218, 1778.000
1453.263, 1897.000
1454.309, 1843.000
1455.354, 1885.000
1456.399, 1896.000
1457.444, 2049.000
1458.489, 2060.000
1459.534, 2147.000
1460.579, 2224.000
1461.623, 2262.000
1462.667, 2309.000
1463.711, 2342.000
1464.755, 2340.000
1465.799, 2284.000
1466.843, 2273.000
1467.886, 2203.497
1468.930, 2167.000
1469.973, 2081.000
1471.016, 2018.000
1472.059, 2006.000
1473.101, 1920.000
1474.144, 1950.000
1475.186, 1884.000
1476.229, 1931.000
1477.271, 1846.000
1478.313, 1880.000
1479.355, 1830.000
1480.396, 1882.000
1481.438, 1779.000
1482.479, 1822.000
1483.520, 1741.000
1484.561, 1820.000
1485.602, 1792.000
1486.643, 1769.000
1487.684, 1717.000
1488.724, 1691.000
1489.765, 1695.000
1490.805, 1729.000
1491.845, 1670.000
1492.885, 1697.000
1493.924, 1728.000
1494.964, 1659.000
1496.003, 1702.000
1497.042, 1744.000
1498.082, 1703.000
1499.120, 1687.000
1500.159, 1651.000
1501.198, 1672.000
1502.236, 1658.000
1503.275, 1668.000
1504.313, 1687.446
1505.351, 1721.000
1506.389, 1736.000
1507.427, 1736.000
1508.464, 1773.000
1509.502, 1728.000
1510.539, 1719.000
1511.576, 1688.000
1512.613, 1726.000
1513.650, 1739.000
1514.687, 1717.000
1515.723, 1720.000
1516.759, 1708.000
1517.796, 1732.000
1518.832, 1670.000
1519.868, 1643.000
1520.903, 1701.000
1521.939, 1628.000
1522.975, 1631.000
1524.010, 1609.000
1525.045, 1654.000
1526.080, 1666.000
1527.115, 1579.000
1528.150, 1530.000
1529.184, 1600.000
1530.219, 1614.000
1531.253, 1539.000
1532.287, 1583.000
1533.321, 1534.000
1534.355, 1586.000
1535.388, 1607.000
1536.422, 1542.000
1537.455, 1601.000
1538.488, 1582.000
1539.522, 1571.000
1540.554, 1560.000
1541.587, 1554.000
1542.620, 1528.000
1543.652, 1498.000
1544.685, 1499.000
1545.717, 1480.291
1546.749, 1538.000
1547.781, 1482.000
1548.812, 1533.000
1549.844, 1573.000
1550.875, 1542.000
1551.906, 1534.000
1552.938, 1550.000
1553.968, 1489.000
1554.999, 1512.000
1556.030, 1558.000
1557.060, 1495.000
1558.091, 1541.000
1559.121, 1512.000
1560.151, 1536.000
1561.181, 1504.000
1562.211, 1544.000
1563.240, 1538.000
1564.270, 1512.000
1565.299, 1510.000
1566.328, 1502.000
1567.357, 1484.000
1568.386, 1497.000
1569.415, 1508.000
1570.443, 1498.000
1571.472, 1518.000
1572.500, 1513.479
1573.528, 1529.000
1574.556, 1515.000
1575.584, 1529.000
1576.611, 1533.000
1577.639, 1472.000
1578.666, 1515.000
1579.693, 1551.000
##END=



