##NAMES=Zircon
##RRUFFID=R050488
##IDEAL CHEMISTRY=Zr^4+^SiO_4_
##LOCALITY=Sigulani Village, Tambani Area, Blantyre District, Nyassaland
##OWNER=RRUFF
##SOURCE=California Institute of Technology
##DESCRIPTION=Brown fragment
##STATUS=The identification of this mineral has been confirmed by X-ray diffraction and chemical analysis
##URL=rruff.info/R050488
##MEASURED CHEMISTRY=(Zr_0.99_Hf_0.01_)_Î£=1_Si_1.00_O_4_
##PIN_ID=L01932
##ORIENTATION=Laser parallel to -a* (-1 0 0). Fiducial mark perpendicular to laser is parallel to c [0 0 1]
63.41100, 56.00000
64.65300, 71.00000
65.89600, 62.00000
67.13800, 56.00000
68.38000, 61.00000
69.62200, 66.00000
70.86300, 60.00000
72.10500, 53.00000
73.34600, 58.00000
74.58700, 67.00000
75.82800, 65.00000
77.06900, 47.00000
78.30900, 61.00000
79.55000, 48.00000
80.79000, 45.00000
82.03000, 55.00000
83.27000, 56.00000
84.51000, 56.61605
85.74900, 74.00000
86.98900, 62.00000
88.22800, 58.00000
89.46700, 70.00000
90.70600, 67.00000
91.94400, 88.00000
93.18300, 86.00000
94.42100, 78.00000
95.65900, 103.0000
96.89700, 98.00000
98.13500, 118.0000
99.37300, 145.0000
100.6100, 156.0000
101.8480, 171.0000
103.0850, 193.0000
104.3220, 219.0000
105.5590, 246.0000
106.7950, 294.0000
108.0320, 322.0000
109.2680, 350.0000
110.5040, 378.0000
111.7400, 392.0000
112.9760, 444.0000
114.2120, 488.0000
115.4470, 534.0000
116.6820, 618.0000
117.9170, 660.0000
119.1520, 667.0000
120.3870, 608.0000
121.6220, 575.0000
122.8560, 570.0000
124.0900, 524.0000
125.3240, 540.0000
126.5580, 519.0000
127.7920, 552.0000
129.0260, 553.0000
130.2590, 584.0000
131.4920, 585.0000
132.7250, 598.0000
133.9580, 583.0000
135.1910, 620.0000
136.4230, 589.0000
137.6560, 641.0000
138.8880, 607.0000
140.1200, 637.0000
141.3520, 609.0000
142.5830, 595.0000
143.8150, 606.0000
145.0460, 614.0000
146.2770, 613.2654
147.5080, 643.0000
148.7390, 634.0000
149.9700, 635.0000
151.2000, 668.0000
152.4310, 650.0000
153.6610, 636.0000
154.8910, 672.0000
156.1210, 645.0000
157.3500, 698.0000
158.5800, 714.0000
159.8090, 691.0000
161.0380, 709.0000
162.2670, 683.0000
163.4960, 705.0000
164.7240, 687.0000
165.9530, 668.0000
167.1810, 683.0000
168.4090, 671.0000
169.6370, 660.0000
170.8650, 705.0000
172.0920, 688.0000
173.3200, 679.0000
174.5470, 697.0000
175.7740, 678.0000
177.0010, 721.0000
178.2280, 709.0000
179.4540, 726.0000
180.6810, 694.0000
181.9070, 713.0000
183.1330, 665.0000
184.3590, 675.0000
185.5850, 735.0000
186.8100, 706.1454
188.0350, 732.0000
189.2610, 726.0000
190.4860, 777.0000
191.7110, 816.0000
192.9350, 846.0000
194.1600, 881.0000
195.3840, 923.0000
196.6080, 1012.000
197.8320, 1104.000
199.0560, 1180.000
200.2800, 1275.362
201.5030, 1381.000
202.7270, 1449.000
203.9500, 1546.000
205.1730, 1616.000
206.3950, 1639.000
207.6180, 1615.000
208.8410, 1505.000
210.0630, 1529.000
211.2850, 1613.000
212.5070, 1720.000
213.7290, 1851.000
214.9500, 2029.000
216.1720, 2126.000
217.3930, 2196.000
218.6140, 2149.000
219.8350, 2078.000
221.0560, 2012.000
222.2770, 1962.000
223.4970, 1978.000
224.7170, 2041.000
225.9370, 2118.000
227.1570, 2064.000
228.3770, 1994.000
229.5970, 1752.000
230.8160, 1542.000
232.0350, 1259.000
233.2540, 1027.000
234.4730, 942.0000
235.6920, 878.0000
236.9110, 804.0000
238.1290, 823.0000
239.3470, 773.0000
240.5650, 759.0000
241.7830, 732.0000
243.0010, 745.0000
244.2180, 711.0000
245.4360, 716.0000
246.6530, 744.0000
247.8700, 696.0000
249.0870, 760.0000
250.3040, 727.0000
251.5200, 675.0000
252.7370, 715.0000
253.9530, 693.0000
255.1690, 728.0000
256.3850, 724.0000
257.6000, 704.0000
258.8160, 678.0000
260.0310, 696.0000
261.2460, 709.0000
262.4610, 733.0000
263.6760, 728.0000
264.8910, 715.0000
266.1050, 712.0000
267.3200, 679.0000
268.5340, 688.0000
269.7480, 693.0000
270.9620, 717.0000
272.1750, 703.0000
273.3890, 695.0000
274.6020, 718.0000
275.8150, 737.0000
277.0280, 702.0000
278.2410, 696.0000
279.4540, 715.0000
280.6660, 713.0000
281.8790, 721.0000
283.0910, 721.0000
284.3030, 753.0000
285.5140, 746.0000
286.7260, 698.0000
287.9380, 740.0000
289.1490, 733.0000
290.3600, 696.0000
291.5710, 706.0000
292.7820, 701.2749
293.9920, 750.0000
295.2030, 704.0000
296.4130, 743.0000
297.6230, 724.0000
298.8330, 718.0000
300.0430, 729.0000
301.2520, 739.0000
302.4620, 747.0000
303.6710, 754.8731
304.8800, 757.0000
306.0890, 770.0000
307.2980, 753.0000
308.5070, 763.0000
309.7150, 750.0000
310.9230, 757.0000
312.1310, 795.0000
313.3390, 742.0000
314.5470, 804.0000
315.7550, 789.0000
316.9620, 758.0000
318.1690, 820.0000
319.3760, 763.0000
320.5830, 800.0000
321.7900, 822.0000
322.9960, 811.0000
324.2030, 801.0000
325.4090, 827.0000
326.6150, 833.0000
327.8210, 797.0000
329.0270, 811.0000
330.2320, 841.0000
331.4380, 804.0000
332.6430, 838.0000
333.8480, 837.0000
335.0530, 835.0000
336.2580, 876.0000
337.4620, 906.0000
338.6670, 909.0000
339.8710, 986.0000
341.0750, 1016.000
342.2790, 1077.000
343.4820, 1155.000
344.6860, 1281.000
345.8890, 1420.000
347.0920, 1671.000
348.2960, 1909.000
349.4980, 2324.000
350.7010, 2673.000
351.9040, 3061.000
353.1060, 3491.000
354.3080, 3952.000
355.5100, 4399.000
356.7120, 4851.000
357.9140, 4841.000
359.1150, 4784.000
360.3170, 4566.000
361.5180, 3954.000
362.7190, 3304.000
363.9200, 2601.000
365.1200, 2035.000
366.3210, 1682.000
367.5210, 1462.000
368.7210, 1238.000
369.9210, 1164.000
371.1210, 1136.000
372.3210, 1075.000
373.5200, 1050.000
374.7200, 982.0000
375.9190, 990.0000
377.1180, 955.0000
378.3170, 1002.000
379.5150, 944.0000
380.7140, 957.0000
381.9120, 932.0000
383.1110, 924.0000
384.3090, 1001.000
385.5060, 948.0000
386.7040, 1012.000
387.9020, 1017.000
389.0990, 1057.000
390.2960, 1085.000
391.4930, 1106.000
392.6900, 1110.000
393.8860, 1107.000
395.0830, 1130.000
396.2790, 1135.000
397.4750, 1121.000
398.6710, 1099.807
399.8670, 1067.000
401.0630, 1027.000
402.2580, 984.0000
403.4540, 952.0000
404.6490, 955.0000
405.8440, 951.0000
407.0390, 963.0000
408.2330, 964.7776
409.4280, 969.6173
410.6220, 965.0000
411.8160, 1001.000
413.0100, 978.0000
414.2040, 1035.000
415.3980, 1051.000
416.5910, 1082.000
417.7850, 1069.000
418.9780, 1123.000
420.1710, 1140.000
421.3640, 1171.000
422.5560, 1239.000
423.7490, 1290.000
424.9410, 1444.000
426.1330, 1554.000
427.3250, 1779.000
428.5170, 1986.000
429.7090, 2375.000
430.9000, 2859.000
432.0910, 3379.000
433.2820, 4090.000
434.4730, 4778.000
435.6640, 5450.000
436.8550, 6324.000
438.0450, 6884.000
439.2360, 7431.000
440.4260, 7656.000
441.6160, 7487.000
442.8060, 6954.000
443.9950, 6176.000
445.1850, 5150.000
446.3740, 4067.000
447.5630, 3273.000
448.7520, 2727.000
449.9410, 2295.000
451.1300, 1983.000
452.3180, 1743.000
453.5060, 1604.000
454.6950, 1484.000
455.8830, 1360.000
457.0700, 1325.000
458.2580, 1258.000
459.4450, 1208.000
460.6330, 1165.000
461.8200, 1131.000
463.0070, 1135.000
464.1940, 1072.000
465.3800, 1098.000
466.5670, 1021.000
467.7530, 1056.000
468.9390, 1017.000
470.1250, 975.0000
471.3110, 1006.000
472.4970, 1018.000
473.6820, 986.0000
474.8680, 992.0000
476.0530, 962.0000
477.2380, 950.0000
478.4230, 977.0000
479.6070, 919.0000
480.7920, 952.0000
481.9760, 987.0000
483.1600, 910.0000
484.3440, 913.0000
485.5280, 928.0000
486.7120, 913.0000
487.8950, 926.0000
489.0780, 920.0000
490.2620, 879.0000
491.4450, 892.0000
492.6270, 852.0000
493.8100, 878.0000
494.9920, 903.0000
496.1750, 885.0000
497.3570, 894.0000
498.5390, 879.0000
499.7210, 873.0000
500.9020, 887.0000
502.0840, 890.0000
503.2650, 886.0000
504.4460, 897.0000
505.6270, 928.0000
506.8080, 916.0000
507.9890, 888.0000
509.1690, 908.0000
510.3500, 888.0000
511.5300, 902.0000
512.7100, 921.0000
513.8900, 916.0000
515.0690, 909.0000
516.2490, 880.0000
517.4280, 879.0000
518.6070, 904.0000
519.7860, 918.0000
520.9650, 898.0000
522.1440, 885.0000
523.3220, 877.0000
524.5010, 874.5282
525.6790, 905.0000
526.8570, 884.0000
528.0350, 911.0000
529.2130, 925.0000
530.3900, 867.0000
531.5670, 910.0000
532.7450, 901.0000
533.9220, 901.0000
535.0980, 892.0000
536.2750, 893.0000
537.4520, 919.0000
538.6280, 899.0000
539.8040, 883.0000
540.9800, 904.0000
542.1560, 931.0000
543.3320, 906.0000
544.5070, 916.0000
545.6830, 926.0000
546.8580, 940.0000
548.0330, 884.0000
549.2080, 938.0000
550.3830, 947.0000
551.5570, 869.0000
552.7310, 914.0000
553.9060, 910.0000
555.0800, 900.0000
556.2540, 912.0000
557.4270, 901.0000
558.6010, 921.0000
559.7740, 898.0000
560.9470, 903.0000
562.1210, 880.0000
563.2930, 864.0000
564.4660, 873.2419
565.6390, 891.0000
566.8110, 891.0000
567.9830, 889.0000
569.1550, 907.0000
570.3270, 907.0000
571.4990, 918.0000
572.6710, 922.2144
573.8420, 914.0000
575.0130, 928.0000
576.1840, 924.0000
577.3550, 926.6343
578.5260, 916.3093
579.6970, 897.0000
580.8670, 896.0000
582.0370, 891.0000
583.2070, 901.0000
584.3770, 889.0000
585.5470, 935.0000
586.7170, 935.0000
587.8860, 889.0000
589.0550, 928.0000
590.2240, 938.0000
591.3930, 906.0000
592.5620, 893.0000
593.7310, 886.0000
594.8990, 872.0000
596.0670, 892.0000
597.2350, 881.0000
598.4030, 882.1560
599.5710, 912.0000
600.7390, 885.0000
601.9060, 903.0000
603.0740, 918.0000
604.2410, 907.0000
605.4080, 906.0000
606.5740, 941.0000
607.7410, 892.0000
608.9080, 931.0000
610.0740, 888.0000
611.2400, 881.0000
612.4060, 901.0000
613.5720, 918.0000
614.7370, 939.0000
615.9030, 937.2208
617.0680, 888.0000
618.2330, 920.0000
619.3980, 937.0000
620.5630, 909.0000
621.7280, 934.0000
622.8920, 932.0000
624.0570, 934.0000
625.2210, 953.0000
626.3850, 961.0000
627.5490, 911.0000
628.7120, 949.0000
629.8760, 928.0000
631.0390, 922.0000
632.2020, 943.0000
633.3650, 950.0000
634.5280, 949.0000
635.6910, 969.4362
636.8530, 975.0000
638.0160, 987.0000
639.1780, 963.0000
640.3400, 944.0000
641.5020, 968.0000
642.6640, 973.0000
643.8250, 942.0000
644.9870, 977.0000
646.1480, 992.0000
647.3090, 971.0000
648.4700, 957.0000
649.6300, 975.0000
650.7910, 916.0000
651.9510, 951.0000
653.1120, 937.0000
654.2720, 912.0000
655.4320, 953.0000
656.5910, 927.0000
657.7510, 893.0000
658.9100, 958.0000
660.0690, 986.0000
661.2290, 896.0000
662.3880, 935.0000
663.5460, 936.0000
664.7050, 936.0000
665.8630, 967.0000
667.0220, 902.0000
668.1800, 916.0000
669.3380, 944.0000
670.4950, 925.0000
671.6530, 962.0000
672.8100, 954.0000
673.9680, 945.0000
675.1250, 959.0000
676.2820, 954.0000
677.4390, 961.0000
678.5950, 955.0000
679.7520, 955.0000
680.9080, 970.0000
682.0640, 944.0000
683.2200, 991.0000
684.3760, 969.0000
685.5320, 964.0000
686.6870, 991.0000
687.8420, 963.0000
688.9980, 998.0000
690.1530, 963.0000
691.3070, 975.0000
692.4620, 910.0000
693.6170, 974.0000
694.7710, 969.0000
695.9250, 943.0000
697.0790, 972.0000
698.2330, 958.0000
699.3870, 941.0000
700.5400, 981.0000
701.6940, 944.0000
702.8470, 976.0000
704.0000, 996.0000
705.1530, 968.0000
706.3050, 988.0000
707.4580, 938.0000
708.6100, 998.0000
709.7630, 985.0000
710.9150, 976.0000
712.0660, 1001.000
713.2180, 975.0000
714.3700, 1011.000
715.5210, 975.0000
716.6720, 986.0000
717.8240, 997.0000
718.9740, 961.0000
720.1250, 940.0000
721.2760, 1000.000
722.4260, 1016.000
723.5770, 978.0000
724.7270, 958.0000
725.8770, 1000.000
727.0260, 981.0000
728.1760, 927.0000
729.3250, 1000.000
730.4750, 940.0000
731.6240, 960.0000
732.7730, 975.0000
733.9220, 941.0000
735.0700, 966.0000
736.2190, 968.0000
737.3670, 1008.000
738.5150, 999.0000
739.6630, 959.0000
740.8110, 974.0000
741.9590, 1000.000
743.1060, 952.0000
744.2540, 989.0000
745.4010, 974.0000
746.5480, 1019.000
747.6950, 966.0000
748.8410, 935.0000
749.9880, 952.0000
751.1340, 912.0000
752.2800, 981.0000
753.4260, 999.0000
754.5720, 986.0000
755.7180, 1001.000
756.8640, 974.0000
758.0090, 1002.000
759.1540, 963.0000
760.2990, 1009.000
761.4440, 1001.000
762.5890, 974.0000
763.7340, 1040.000
764.8780, 961.0000
766.0220, 1000.000
767.1660, 983.0000
768.3100, 992.0000
769.4540, 996.0000
770.5980, 985.0000
771.7410, 992.5561
772.8840, 953.0000
774.0280, 992.0000
775.1700, 991.0000
776.3130, 986.0000
777.4560, 1015.000
778.5980, 1030.000
779.7410, 1019.000
780.8830, 1009.000
782.0250, 1013.000
783.1670, 977.0000
784.3080, 984.0000
785.4500, 988.1136
786.5910, 1028.000
787.7320, 1014.000
788.8730, 1038.000
790.0140, 1057.000
791.1550, 1040.000
792.2950, 1030.000
793.4360, 1043.000
794.5760, 1005.000
795.7160, 1016.501
796.8560, 1015.000
797.9960, 1031.000
799.1350, 1033.000
800.2750, 1071.000
801.4140, 1006.000
802.5530, 1024.000
803.6920, 1042.000
804.8310, 988.0000
805.9690, 995.0000
807.1080, 1023.000
808.2460, 1041.000
809.3840, 1046.000
810.5220, 1015.000
811.6600, 981.0000
812.7970, 1006.000
813.9350, 1041.000
815.0720, 997.0000
816.2090, 1010.000
817.3460, 1036.000
818.4830, 1025.000
819.6200, 1039.000
820.7560, 1035.016
821.8930, 1007.000
823.0290, 1019.000
824.1650, 1011.000
825.3010, 995.0000
826.4360, 994.0000
827.5720, 1018.000
828.7070, 1031.000
829.8420, 1053.000
830.9770, 1037.000
832.1120, 1062.000
833.2470, 1049.000
834.3820, 1045.000
835.5160, 1052.000
836.6500, 1016.000
837.7840, 1030.000
838.9180, 1021.000
840.0520, 1039.000
841.1860, 1055.000
842.3190, 1073.000
843.4520, 1092.000
844.5850, 1093.910
845.7180, 1078.000
846.8510, 1087.000
847.9840, 1066.000
849.1160, 1042.000
850.2490, 1041.000
851.3810, 1061.000
852.5130, 1057.000
853.6450, 1060.000
854.7760, 1049.000
855.9080, 1074.000
857.0390, 1083.000
858.1700, 1074.000
859.3010, 1046.000
860.4320, 1087.000
861.5630, 1079.000
862.6930, 1072.000
863.8240, 1023.000
864.9540, 1047.000
866.0840, 1089.000
867.2140, 1062.000
868.3440, 1079.000
869.4730, 1069.000
870.6030, 1048.000
871.7320, 1080.000
872.8610, 1071.000
873.9900, 1063.000
875.1190, 1091.000
876.2470, 1059.000
877.3760, 1067.000
878.5040, 1061.000
879.6320, 1117.000
880.7600, 1063.000
881.8880, 1035.000
883.0150, 1092.000
884.1430, 1073.000
885.2700, 1076.000
886.3970, 1105.000
887.5240, 1044.000
888.6510, 1091.000
889.7780, 1078.000
890.9040, 1086.000
892.0310, 1069.000
893.1570, 1125.000
894.2830, 1076.000
895.4090, 1122.000
896.5350, 1103.000
897.6600, 1100.000
898.7860, 1073.000
899.9110, 1092.000
901.0360, 1081.000
902.1610, 1098.000
903.2860, 1081.000
904.4100, 1117.000
905.5350, 1086.000
906.6590, 1042.000
907.7830, 1104.000
908.9070, 1107.000
910.0310, 1103.000
911.1540, 1138.000
912.2780, 1121.000
913.4010, 1118.000
914.5240, 1105.000
915.6470, 1079.000
916.7700, 1098.000
917.8930, 1082.000
919.0150, 1112.000
920.1380, 1107.000
921.2600, 1156.000
922.3820, 1123.000
923.5040, 1082.000
924.6260, 1189.000
925.7470, 1122.000
926.8690, 1150.000
927.9900, 1139.000
929.1110, 1138.000
930.2320, 1151.000
931.3530, 1139.000
932.4730, 1143.331
933.5940, 1137.000
934.7140, 1130.000
935.8340, 1110.000
936.9540, 1111.274
938.0740, 1112.625
939.1930, 1116.000
940.3130, 1124.000
941.4320, 1149.000
942.5510, 1148.000
943.6700, 1149.000
944.7890, 1123.000
945.9080, 1128.000
947.0260, 1139.000
948.1450, 1172.000
949.2630, 1129.000
950.3810, 1157.000
951.4990, 1173.000
952.6170, 1173.000
953.7340, 1180.870
954.8520, 1199.000
955.9690, 1173.000
957.0860, 1177.000
958.2030, 1170.000
959.3200, 1177.000
960.4360, 1183.573
961.5530, 1203.000
962.6690, 1213.000
963.7850, 1226.000
964.9010, 1262.000
966.0170, 1327.000
967.1330, 1381.000
968.2480, 1553.000
969.3630, 1745.000
970.4790, 1907.000
971.5940, 2288.000
972.7080, 2653.000
973.8230, 2944.000
974.9380, 3359.000
976.0520, 3408.000
977.1660, 3214.000
978.2800, 2909.000
979.3940, 2314.000
980.5080, 1895.000
981.6220, 1736.000
982.7350, 1572.000
983.8480, 1524.000
984.9610, 1426.000
986.0740, 1435.000
987.1870, 1405.000
988.3000, 1421.000
989.4120, 1460.000
990.5250, 1473.106
991.6370, 1504.000
992.7490, 1553.000
993.8610, 1621.000
994.9720, 1678.000
996.0840, 1755.000
997.1950, 1839.000
998.3060, 2075.000
999.4170, 2420.000
1000.528, 2934.000
1001.639, 3827.000
1002.750, 5167.000
1003.860, 6953.000
1004.970, 9479.000
1006.080, 12328.00
1007.190, 15277.00
1008.300, 18023.00
1009.410, 19155.00
1010.519, 17870.00
1011.628, 14810.00
1012.738, 10630.00
1013.846, 6965.000
1014.955, 4870.000
1016.064, 3588.000
1017.172, 2785.000
1018.281, 2303.000
1019.389, 2061.000
1020.497, 1831.000
1021.605, 1711.000
1022.713, 1645.000
1023.820, 1581.000
1024.928, 1536.000
1026.035, 1484.000
1027.142, 1461.743
1028.249, 1390.000
1029.356, 1430.000
1030.462, 1413.000
1031.569, 1396.000
1032.675, 1368.000
1033.781, 1350.000
1034.887, 1353.000
1035.993, 1351.000
1037.098, 1384.000
1038.204, 1381.000
1039.309, 1394.000
1040.415, 1401.404
1041.520, 1394.390
1042.624, 1415.000
1043.729, 1375.000
1044.834, 1396.000
1045.938, 1374.000
1047.042, 1451.000
1048.146, 1431.000
1049.250, 1465.000
1050.354, 1476.000
1051.458, 1571.000
1052.561, 1579.000
1053.664, 1567.000
1054.767, 1686.000
1055.870, 1647.000
1056.973, 1663.000
1058.076, 1617.000
1059.178, 1554.000
1060.281, 1557.000
1061.383, 1481.000
1062.485, 1460.000
1063.587, 1370.000
1064.688, 1397.000
1065.790, 1331.000
1066.891, 1346.000
1067.993, 1348.000
1069.094, 1328.000
1070.195, 1313.000
1071.295, 1347.000
1072.396, 1350.000
1073.496, 1315.000
1074.597, 1376.000
1075.697, 1375.000
1076.797, 1417.000
1077.897, 1366.000
1078.996, 1424.000
1080.096, 1398.000
1081.195, 1398.000
1082.294, 1518.000
1083.393, 1464.000
1084.492, 1539.000
1085.591, 1631.000
1086.689, 1631.000
1087.788, 1611.000
1088.886, 1635.000
1089.984, 1669.000
1091.082, 1647.000
1092.180, 1637.000
1093.277, 1590.000
1094.375, 1563.000
1095.472, 1484.000
1096.569, 1469.010
1097.666, 1397.000
1098.763, 1437.000
1099.860, 1411.000
1100.956, 1438.000
1102.053, 1427.000
1103.149, 1399.000
1104.245, 1430.000
1105.341, 1431.000
1106.436, 1505.000
1107.532, 1489.000
1108.627, 1553.000
1109.723, 1595.000
1110.818, 1571.000
1111.913, 1621.000
1113.007, 1616.000
1114.102, 1560.000
1115.197, 1533.000
1116.291, 1514.000
1117.385, 1440.000
1118.479, 1461.000
1119.573, 1444.000
1120.666, 1400.000
1121.760, 1388.000
1122.853, 1408.000
1123.947, 1387.000
1125.040, 1363.000
1126.132, 1411.000
1127.225, 1390.000
1128.318, 1384.000
1129.410, 1310.000
1130.502, 1369.000
1131.595, 1351.000
1132.687, 1348.000
1133.778, 1358.000
1134.870, 1380.000
1135.961, 1340.000
1137.053, 1354.000
1138.144, 1336.000
1139.235, 1374.000
1140.326, 1404.000
1141.416, 1425.710
1142.507, 1440.000
1143.597, 1496.000
1144.688, 1539.000
1145.778, 1573.887
1146.868, 1570.000
1147.957, 1595.000
1149.047, 1555.000
1150.136, 1511.000
1151.226, 1550.000
1152.315, 1429.000
1153.404, 1414.000
1154.493, 1376.000
1155.581, 1412.000
1156.670, 1361.000
1157.758, 1367.000
1158.846, 1357.000
1159.934, 1349.000
1161.022, 1346.567
1162.110, 1354.000
1163.198, 1332.037
1164.285, 1341.114
1165.372, 1330.000
1166.459, 1341.000
1167.546, 1355.000
1168.633, 1328.000
1169.720, 1336.000
1170.806, 1359.000
1171.892, 1367.000
1172.979, 1345.000
1174.065, 1348.000
1175.150, 1325.000
1176.236, 1349.000
1177.322, 1378.000
1178.407, 1386.000
1179.492, 1349.000
1180.577, 1342.000
1181.662, 1387.000
1182.747, 1333.000
1183.832, 1389.000
1184.916, 1394.000
1186.000, 1392.000
1187.084, 1392.000
1188.168, 1388.000
1189.252, 1383.683
1190.336, 1384.000
1191.419, 1374.389
1192.503, 1370.119
1193.586, 1370.000
1194.669, 1361.000
1195.752, 1343.000
1196.835, 1334.000
1197.917, 1359.000
1199.000, 1390.000
1200.082, 1375.000
1201.164, 1376.000
1202.246, 1410.000
1203.328, 1384.000
1204.409, 1391.000
1205.491, 1382.000
1206.572, 1348.000
1207.653, 1391.000
1208.734, 1356.000
1209.815, 1380.000
1210.896, 1414.000
1211.976, 1385.000
1213.057, 1362.000
1214.137, 1381.000
1215.217, 1379.000
1216.297, 1345.000
1217.377, 1411.000
1218.456, 1397.000
1219.536, 1422.000
1220.615, 1408.000
1221.694, 1470.000
1222.773, 1377.000
1223.852, 1409.000
1224.931, 1452.000
1226.009, 1373.000
1227.088, 1449.000
1228.166, 1394.000
1229.244, 1451.000
1230.322, 1477.000
1231.400, 1403.000
1232.477, 1431.000
1233.555, 1406.000
1234.632, 1415.000
1235.709, 1434.000
1236.786, 1436.000
1237.863, 1431.000
1238.939, 1419.000
1240.016, 1444.000
1241.092, 1415.000
1242.168, 1445.000
1243.245, 1375.000
1244.320, 1472.000
1245.396, 1424.000
1246.472, 1500.000
1247.547, 1436.000
1248.622, 1445.000
1249.697, 1435.000
1250.772, 1414.000
1251.847, 1489.000
1252.922, 1435.000
1253.996, 1463.000
1255.071, 1412.000
1256.145, 1399.000
1257.219, 1479.000
1258.293, 1454.000
1259.366, 1478.000
1260.440, 1465.000
1261.513, 1509.000
1262.587, 1513.000
1263.660, 1497.000
1264.733, 1499.000
1265.805, 1494.000
1266.878, 1525.000
1267.951, 1522.000
1269.023, 1566.000
1270.095, 1567.000
1271.167, 1574.000
1272.239, 1560.000
1273.311, 1558.306
1274.382, 1542.000
1275.454, 1526.000
1276.525, 1537.000
1277.596, 1490.000
1278.667, 1518.000
1279.738, 1512.000
1280.808, 1586.000
1281.879, 1525.000
1282.949, 1540.000
1284.019, 1498.000
1285.089, 1548.000
1286.159, 1509.000
1287.229, 1503.000
1288.298, 1502.000
1289.368, 1458.000
1290.437, 1473.000
1291.506, 1494.000
1292.575, 1513.000
1293.644, 1529.000
1294.712, 1511.000
1295.781, 1554.000
1296.849, 1484.000
1297.917, 1514.000
1298.985, 1479.000
1300.053, 1452.000
1301.121, 1493.000
1302.188, 1523.000
1303.255, 1486.000
1304.323, 1518.000
1305.390, 1500.000
1306.457, 1493.000
1307.523, 1553.000
1308.590, 1480.000
1309.656, 1524.000
1310.723, 1565.000
1311.789, 1506.000
1312.855, 1536.000
1313.921, 1457.000
1314.986, 1477.000
1316.052, 1507.000
1317.117, 1530.000
1318.182, 1582.000
1319.248, 1468.000
1320.312, 1528.000
1321.377, 1475.000
1322.442, 1515.000
1323.506, 1503.000
1324.571, 1508.000
1325.635, 1514.000
1326.699, 1558.000
1327.762, 1520.000
1328.826, 1559.000
1329.890, 1567.000
1330.953, 1560.000
1332.016, 1522.000
1333.079, 1545.000
1334.142, 1564.000
1335.205, 1539.000
1336.268, 1550.000
1337.330, 1537.000
1338.392, 1582.000
1339.454, 1573.000
1340.516, 1603.000
1341.578, 1586.000
1342.640, 1575.000
1343.701, 1576.000
1344.763, 1640.000
1345.824, 1577.000
1346.885, 1640.000
1347.946, 1582.000
1349.007, 1654.000
1350.067, 1616.000
1351.128, 1573.000
1352.188, 1634.000
1353.248, 1612.000
1354.308, 1597.000
1355.368, 1626.000
1356.428, 1632.000
1357.487, 1657.000
1358.547, 1585.000
1359.606, 1581.000
1360.665, 1601.000
1361.724, 1579.000
1362.783, 1633.000
1363.841, 1578.000
1364.900, 1556.000
1365.958, 1522.000
1367.016, 1593.000
1368.074, 1628.000
1369.132, 1566.000
1370.190, 1600.000
1371.247, 1557.000
1372.304, 1567.000
1373.362, 1600.000
1374.419, 1567.000
1375.476, 1581.000
1376.532, 1558.000
1377.589, 1514.000
1378.645, 1548.000
1379.702, 1581.000
1380.758, 1551.000
1381.814, 1665.000
1382.870, 1599.000
1383.925, 1636.000
1384.981, 1575.000
1386.036, 1579.000
1387.092, 1616.000
1388.147, 1619.000
1389.202, 1610.000
1390.256, 1623.000
1391.311, 1587.000
1392.365, 1618.000
1393.420, 1689.000
1394.474, 1647.000
1395.528, 1645.000
1396.582, 1591.000
1397.636, 1649.000
1398.689, 1619.000
1399.742, 1588.000
1400.796, 1668.000
1401.849, 1614.000
1402.902, 1672.000
1403.955, 1543.000
1405.007, 1597.000
1406.060, 1610.000
1407.112, 1674.000
1408.164, 1606.000
1409.216, 1647.000
1410.268, 1669.000
1411.320, 1585.000
1412.371, 1576.000
1413.423, 1665.000
1414.474, 1626.000
1415.525, 1591.000
1416.576, 1642.000
1417.627, 1625.617
1418.678, 1622.299
1419.728, 1678.000
1420.778, 1621.000
1421.829, 1671.000
1422.879, 1700.000
1423.928, 1709.000
1424.978, 1675.000
1426.028, 1742.000
1427.077, 1689.000
1428.126, 1743.000
1429.176, 1707.000
1430.225, 1751.000
1431.273, 1683.000
1432.322, 1741.000
1433.371, 1767.000
1434.419, 1731.000
1435.467, 1695.000
1436.515, 1707.000
1437.563, 1744.000
1438.611, 1749.000
1439.658, 1786.000
1440.706, 1771.000
1441.753, 1782.000
1442.800, 1803.000
1443.847, 1778.000
1444.894, 1845.000
1445.941, 1792.000
1446.987, 1829.000
1448.034, 1847.000
1449.080, 1869.000
1450.126, 1852.000
1451.172, 1919.000
1452.218, 1945.000
1453.263, 2065.000
1454.309, 2018.000
1455.354, 2054.000
1456.399, 2173.000
1457.444, 2124.000
1458.489, 2248.000
1459.534, 2350.000
1460.579, 2414.000
1461.623, 2434.000
1462.667, 2476.000
1463.711, 2474.000
1464.755, 2498.000
1465.799, 2461.549
1466.843, 2416.000
1467.886, 2380.000
1468.930, 2275.000
1469.973, 2251.000
1471.016, 2186.729
1472.059, 2194.000
1473.101, 2098.000
1474.144, 2094.000
1475.186, 2087.000
1476.229, 2111.000
1477.271, 2034.000
1478.313, 2065.000
1479.355, 2016.000
1480.396, 1997.000
1481.438, 1997.052
1482.479, 1957.331
1483.520, 1969.000
1484.561, 1939.000
1485.602, 1903.000
1486.643, 1962.000
1487.684, 1940.000
1488.724, 1908.000
1489.765, 1915.000
1490.805, 1895.000
1491.845, 1899.000
1492.885, 1890.000
1493.924, 1853.000
1494.964, 1851.000
1496.003, 1874.000
1497.042, 1886.000
1498.082, 1906.000
1499.120, 1836.000
1500.159, 1903.000
1501.198, 1866.000
1502.236, 1842.000
1503.275, 1883.000
1504.313, 1884.000
1505.351, 1847.000
1506.389, 1896.000
1507.427, 1903.000
1508.464, 1887.000
1509.502, 1907.000
1510.539, 1949.000
1511.576, 1949.000
1512.613, 1927.000
1513.650, 1915.000
1514.687, 1848.000
1515.723, 1924.000
1516.759, 1844.000
1517.796, 1866.000
1518.832, 1838.000
1519.868, 1807.000
1520.903, 1877.000
1521.939, 1849.000
1522.975, 1832.000
1524.010, 1844.000
1525.045, 1796.000
1526.080, 1786.873
1527.115, 1789.906
1528.150, 1738.000
1529.184, 1795.000
1530.219, 1777.000
1531.253, 1772.000
1532.287, 1745.000
1533.321, 1771.000
1534.355, 1752.000
1535.388, 1778.000
1536.422, 1771.000
1537.455, 1727.000
1538.488, 1788.000
1539.522, 1813.000
1540.554, 1715.000
1541.587, 1786.000
1542.620, 1745.000
1543.652, 1751.000
1544.685, 1658.000
1545.717, 1744.000
1546.749, 1718.000
1547.781, 1720.000
1548.812, 1711.000
1549.844, 1735.000
1550.875, 1756.000
1551.906, 1733.000
1552.938, 1734.000
1553.968, 1727.000
1554.999, 1748.000
1556.030, 1703.000
1557.060, 1701.000
1558.091, 1705.000
1559.121, 1733.000
1560.151, 1745.000
1561.181, 1751.807
1562.211, 1698.000
1563.240, 1745.000
1564.270, 1734.000
1565.299, 1688.000
1566.328, 1728.000
1567.357, 1766.000
1568.386, 1714.000
1569.415, 1727.000
1570.443, 1726.000
1571.472, 1714.000
1572.500, 1734.000
1573.528, 1711.000
1574.556, 1749.000
1575.584, 1730.000
1576.611, 1767.000
1577.639, 1738.000
1578.666, 1797.000
1579.693, 1770.000
##END=



