##NAMES=Zircon
##RRUFFID=R050286
##IDEAL CHEMISTRY=Zr^4+^SiO_4_
##LOCALITY=Renfrew County, Ontario, Canada
##OWNER=RRUFF
##SOURCE=Marcus Origlieri
##DESCRIPTION=Brownish red prismatic crystal frozen in matrix, associated with apatite
##STATUS=The identification of this mineral has been confirmed by X-ray diffraction and chemical analysis
##URL=rruff.info/R050286
##MEASURED CHEMISTRY=Zr_1.00_Si_1.00_O_4_; trace amounts of Hf
##PIN_ID=L00926
##ORIENTATION=Laser parallel to a* (1 0 0). Fiducial mark perpendicular to laser is parallel to c [0 0 1]
63.41100, 126.0000
64.65300, 106.0000
65.89600, 115.0000
67.13800, 118.0000
68.38000, 132.0000
69.62200, 110.0000
70.86300, 121.0000
72.10500, 106.0000
73.34600, 111.0000
74.58700, 100.0000
75.82800, 129.0000
77.06900, 125.0000
78.30900, 126.0000
79.55000, 126.0000
80.79000, 125.3236
82.03000, 132.0000
83.27000, 133.0000
84.51000, 139.0000
85.74900, 158.0000
86.98900, 162.0000
88.22800, 168.0000
89.46700, 199.0000
90.70600, 221.0000
91.94400, 233.0000
93.18300, 299.0000
94.42100, 306.0000
95.65900, 373.0000
96.89700, 453.0000
98.13500, 569.0000
99.37300, 640.0000
100.6100, 725.0000
101.8480, 855.0000
103.0850, 1016.000
104.3220, 1120.000
105.5590, 1374.000
106.7950, 1500.000
108.0320, 1742.000
109.2680, 1898.000
110.5040, 2144.000
111.7400, 2296.000
112.9760, 2553.000
114.2120, 2730.000
115.4470, 2937.000
116.6820, 3335.000
117.9170, 3566.000
119.1520, 3682.000
120.3870, 3660.000
121.6220, 3748.000
122.8560, 3813.000
124.0900, 3797.000
125.3240, 3827.000
126.5580, 3907.000
127.7920, 4019.000
129.0260, 4143.000
130.2590, 4189.000
131.4920, 4270.000
132.7250, 4271.000
133.9580, 4405.000
135.1910, 4346.000
136.4230, 4457.000
137.6560, 4509.000
138.8880, 4531.000
140.1200, 4570.000
141.3520, 4645.000
142.5830, 4721.000
143.8150, 4844.000
145.0460, 4793.000
146.2770, 4723.000
147.5080, 4802.000
148.7390, 4805.000
149.9700, 4871.000
151.2000, 4976.000
152.4310, 5059.000
153.6610, 4912.000
154.8910, 5108.000
156.1210, 4977.000
157.3500, 5031.000
158.5800, 5096.000
159.8090, 5123.000
161.0380, 5134.000
162.2670, 5168.173
163.4960, 5176.000
164.7240, 5189.000
165.9530, 5213.000
167.1810, 5198.000
168.4090, 5282.000
169.6370, 5246.000
170.8650, 5181.000
172.0920, 5213.000
173.3200, 5264.000
174.5470, 5279.000
175.7740, 5303.000
177.0010, 5310.000
178.2280, 5257.000
179.4540, 5284.000
180.6810, 5312.000
181.9070, 5259.000
183.1330, 5408.000
184.3590, 5395.000
185.5850, 5278.000
186.8100, 5351.000
188.0350, 5367.000
189.2610, 5479.000
190.4860, 5415.000
191.7110, 5554.000
192.9350, 5568.000
194.1600, 5622.000
195.3840, 5784.000
196.6080, 5953.000
197.8320, 6105.000
199.0560, 6194.000
200.2800, 6356.000
201.5030, 6611.000
202.7270, 6894.000
203.9500, 7076.000
205.1730, 7168.000
206.3950, 7319.000
207.6180, 7326.000
208.8410, 7181.000
210.0630, 7188.000
211.2850, 7184.000
212.5070, 7394.000
213.7290, 7645.000
214.9500, 7767.000
216.1720, 7904.000
217.3930, 7782.000
218.6140, 7771.000
219.8350, 7612.000
221.0560, 7520.000
222.2770, 7599.000
223.4970, 7695.000
224.7170, 7816.000
225.9370, 7914.000
227.1570, 8017.000
228.3770, 7789.000
229.5970, 7505.000
230.8160, 7191.000
232.0350, 6686.000
233.2540, 6357.000
234.4730, 6259.000
235.6920, 6071.000
236.9110, 6050.000
238.1290, 5845.000
239.3470, 5741.000
240.5650, 5776.000
241.7830, 5731.000
243.0010, 5730.000
244.2180, 5660.000
245.4360, 5647.000
246.6530, 5579.000
247.8700, 5552.000
249.0870, 5626.000
250.3040, 5497.000
251.5200, 5661.000
252.7370, 5505.000
253.9530, 5553.000
255.1690, 5587.000
256.3850, 5600.000
257.6000, 5623.000
258.8160, 5593.000
260.0310, 5556.000
261.2460, 5541.000
262.4610, 5527.914
263.6760, 5481.000
264.8910, 5581.000
266.1050, 5560.000
267.3200, 5717.000
268.5340, 5632.000
269.7480, 5587.000
270.9620, 5696.000
272.1750, 5618.000
273.3890, 5622.000
274.6020, 5670.000
275.8150, 5620.000
277.0280, 5615.000
278.2410, 5567.000
279.4540, 5605.000
280.6660, 5582.000
281.8790, 5645.000
283.0910, 5737.000
284.3030, 5752.000
285.5140, 5735.000
286.7260, 5705.000
287.9380, 5759.000
289.1490, 5651.000
290.3600, 5706.000
291.5710, 5735.000
292.7820, 5681.000
293.9920, 5740.000
295.2030, 5711.000
296.4130, 5684.000
297.6230, 5785.000
298.8330, 5680.000
300.0430, 5778.000
301.2520, 5722.000
302.4620, 5708.000
303.6710, 5867.000
304.8800, 5811.000
306.0890, 5875.000
307.2980, 5809.000
308.5070, 5835.000
309.7150, 5841.000
310.9230, 5913.000
312.1310, 5970.000
313.3390, 5958.000
314.5470, 6018.000
315.7550, 6012.000
316.9620, 5931.000
318.1690, 6003.000
319.3760, 6045.000
320.5830, 6149.000
321.7900, 6087.000
322.9960, 6153.000
324.2030, 6127.000
325.4090, 6235.000
326.6150, 6219.000
327.8210, 6308.000
329.0270, 6283.000
330.2320, 6206.000
331.4380, 6309.000
332.6430, 6418.000
333.8480, 6384.000
335.0530, 6555.000
336.2580, 6540.000
337.4620, 6627.000
338.6670, 6733.000
339.8710, 6868.000
341.0750, 7045.000
342.2790, 7174.000
343.4820, 7376.000
344.6860, 7645.000
345.8890, 7980.000
347.0920, 8426.000
348.2960, 8891.000
349.4980, 9379.000
350.7010, 9773.000
351.9040, 10541.00
353.1060, 11308.00
354.3080, 11634.00
355.5100, 12256.00
356.7120, 12487.00
357.9140, 12611.00
359.1150, 12076.00
360.3170, 11385.00
361.5180, 10574.00
362.7190, 9810.000
363.9200, 9200.000
365.1200, 8750.000
366.3210, 8216.000
367.5210, 7796.000
368.7210, 7698.000
369.9210, 7438.000
371.1210, 7215.000
372.3210, 7240.000
373.5200, 7018.000
374.7200, 7007.000
375.9190, 6830.000
377.1180, 6967.000
378.3170, 6929.000
379.5150, 6938.000
380.7140, 6824.000
381.9120, 6840.000
383.1110, 6824.000
384.3090, 6910.000
385.5060, 6880.000
386.7040, 6926.000
387.9020, 6887.000
389.0990, 6949.000
390.2960, 6964.000
391.4930, 7037.000
392.6900, 6941.000
393.8860, 6948.323
395.0830, 7037.000
396.2790, 6926.000
397.4750, 6902.000
398.6710, 7034.000
399.8670, 6894.000
401.0630, 6828.000
402.2580, 6885.000
403.4540, 6818.000
404.6490, 6789.000
405.8440, 6878.000
407.0390, 6880.000
408.2330, 6890.000
409.4280, 6950.502
410.6220, 6948.000
411.8160, 7010.000
413.0100, 7042.000
414.2040, 7019.000
415.3980, 7212.000
416.5910, 7349.000
417.7850, 7314.000
418.9780, 7423.000
420.1710, 7447.000
421.3640, 7627.000
422.5560, 7752.000
423.7490, 7917.000
424.9410, 8139.000
426.1330, 8419.977
427.3250, 8755.000
428.5170, 9152.000
429.7090, 9531.000
430.9000, 10055.00
432.0910, 10736.00
433.2820, 11358.00
434.4730, 12299.00
435.6640, 12910.00
436.8550, 13887.00
438.0450, 14769.00
439.2360, 15219.00
440.4260, 15679.00
441.6160, 15700.00
442.8060, 15266.00
443.9950, 14327.00
445.1850, 13301.00
446.3740, 12299.00
447.5630, 11406.00
448.7520, 10542.00
449.9410, 9916.000
451.1300, 9269.000
452.3180, 8787.000
453.5060, 8587.000
454.6950, 8226.000
455.8830, 8012.000
457.0700, 7755.000
458.2580, 7704.000
459.4450, 7683.000
460.6330, 7531.000
461.8200, 7362.000
463.0070, 7377.000
464.1940, 7253.000
465.3800, 7197.000
466.5670, 7198.000
467.7530, 7260.000
468.9390, 7200.000
470.1250, 7177.000
471.3110, 7150.000
472.4970, 7137.000
473.6820, 7132.360
474.8680, 7113.030
476.0530, 7104.000
477.2380, 7090.000
478.4230, 7005.000
479.6070, 6991.000
480.7920, 6843.000
481.9760, 6931.000
483.1600, 6944.000
484.3440, 6844.000
485.5280, 6820.000
486.7120, 6925.000
487.8950, 6830.000
489.0780, 6743.000
490.2620, 6866.000
491.4450, 6902.000
492.6270, 6871.000
493.8100, 6778.000
494.9920, 6854.000
496.1750, 6845.000
497.3570, 6771.000
498.5390, 6861.000
499.7210, 6805.000
500.9020, 6728.000
502.0840, 6825.000
503.2650, 6834.000
504.4460, 6766.000
505.6270, 6889.000
506.8080, 6900.000
507.9890, 6875.000
509.1690, 6921.770
510.3500, 6930.000
511.5300, 6892.000
512.7100, 6921.000
513.8900, 6842.000
515.0690, 6935.000
516.2490, 6816.000
517.4280, 6862.000
518.6070, 6973.000
519.7860, 6891.000
520.9650, 6853.000
522.1440, 6954.000
523.3220, 6892.000
524.5010, 6975.000
525.6790, 6983.000
526.8570, 6941.000
528.0350, 7006.000
529.2130, 6911.000
530.3900, 6900.000
531.5670, 6874.000
532.7450, 6930.000
533.9220, 6904.000
535.0980, 6932.000
536.2750, 7022.000
537.4520, 6889.000
538.6280, 6933.000
539.8040, 6833.000
540.9800, 6904.000
542.1560, 6960.000
543.3320, 7023.000
544.5070, 6936.000
545.6830, 7018.000
546.8580, 6809.000
548.0330, 6961.000
549.2080, 6857.000
550.3830, 6960.000
551.5570, 6987.000
552.7310, 6966.000
553.9060, 6964.000
555.0800, 6911.000
556.2540, 6942.000
557.4270, 6943.000
558.6010, 6999.000
559.7740, 7008.000
560.9470, 6895.000
562.1210, 6903.000
563.2930, 6923.000
564.4660, 6959.000
565.6390, 6867.000
566.8110, 6991.000
567.9830, 7006.000
569.1550, 7053.000
570.3270, 6923.000
571.4990, 7009.000
572.6710, 6980.591
573.8420, 6957.122
575.0130, 7045.000
576.1840, 6931.000
577.3550, 7068.000
578.5260, 7044.000
579.6970, 7019.000
580.8670, 7020.000
582.0370, 6994.000
583.2070, 7020.000
584.3770, 7006.000
585.5470, 6997.000
586.7170, 7144.000
587.8860, 7089.000
589.0550, 6978.000
590.2240, 7109.000
591.3930, 6954.000
592.5620, 6983.000
593.7310, 7089.000
594.8990, 7136.000
596.0670, 7140.000
597.2350, 7012.000
598.4030, 7106.000
599.5710, 7009.000
600.7390, 7014.000
601.9060, 6986.000
603.0740, 7034.000
604.2410, 6995.370
605.4080, 7031.000
606.5740, 6989.000
607.7410, 6954.000
608.9080, 7034.000
610.0740, 7101.000
611.2400, 7116.000
612.4060, 7086.000
613.5720, 7094.000
614.7370, 7081.000
615.9030, 7120.000
617.0680, 6968.000
618.2330, 7149.000
619.3980, 7132.000
620.5630, 7197.000
621.7280, 7072.000
622.8920, 7164.000
624.0570, 7284.000
625.2210, 7191.000
626.3850, 7223.000
627.5490, 7140.000
628.7120, 7239.000
629.8760, 7254.000
631.0390, 7245.000
632.2020, 7246.000
633.3650, 7166.000
634.5280, 7289.000
635.6910, 7279.000
636.8530, 7229.000
638.0160, 7399.000
639.1780, 7353.000
640.3400, 7381.000
641.5020, 7401.000
642.6640, 7409.000
643.8250, 7414.000
644.9870, 7433.000
646.1480, 7448.160
647.3090, 7411.000
648.4700, 7478.000
649.6300, 7505.000
650.7910, 7496.000
651.9510, 7432.000
653.1120, 7439.779
654.2720, 7358.000
655.4320, 7406.000
656.5910, 7432.000
657.7510, 7443.000
658.9100, 7391.000
660.0690, 7338.000
661.2290, 7341.000
662.3880, 7326.454
663.5460, 7324.382
664.7050, 7373.000
665.8630, 7383.000
667.0220, 7460.000
668.1800, 7452.189
669.3380, 7477.296
670.4950, 7436.000
671.6530, 7482.000
672.8100, 7435.000
673.9680, 7402.000
675.1250, 7544.000
676.2820, 7560.000
677.4390, 7342.000
678.5950, 7446.000
679.7520, 7378.000
680.9080, 7398.000
682.0640, 7457.000
683.2200, 7346.000
684.3760, 7361.000
685.5320, 7289.000
686.6870, 7361.000
687.8420, 7362.000
688.9980, 7458.000
690.1530, 7367.000
691.3070, 7460.000
692.4620, 7351.000
693.6170, 7418.000
694.7710, 7469.000
695.9250, 7468.582
697.0790, 7486.019
698.2330, 7508.000
699.3870, 7498.000
700.5400, 7410.000
701.6940, 7483.000
702.8470, 7591.000
704.0000, 7355.000
705.1530, 7552.000
706.3050, 7432.000
707.4580, 7557.000
708.6100, 7393.000
709.7630, 7453.000
710.9150, 7481.000
712.0660, 7513.000
713.2180, 7443.000
714.3700, 7405.000
715.5210, 7487.000
716.6720, 7390.000
717.8240, 7524.000
718.9740, 7585.000
720.1250, 7590.000
721.2760, 7596.607
722.4260, 7600.000
723.5770, 7533.000
724.7270, 7498.000
725.8770, 7525.000
727.0260, 7490.000
728.1760, 7527.000
729.3250, 7560.000
730.4750, 7514.000
731.6240, 7610.000
732.7730, 7448.000
733.9220, 7696.000
735.0700, 7692.000
736.2190, 7524.000
737.3670, 7580.000
738.5150, 7700.000
739.6630, 7620.000
740.8110, 7559.000
741.9590, 7713.000
743.1060, 7594.000
744.2540, 7671.000
745.4010, 7647.000
746.5480, 7673.000
747.6950, 7543.000
748.8410, 7586.000
749.9880, 7553.000
751.1340, 7526.761
752.2800, 7627.000
753.4260, 7566.000
754.5720, 7596.000
755.7180, 7726.000
756.8640, 7775.000
758.0090, 7748.000
759.1540, 7723.000
760.2990, 7649.000
761.4440, 7681.000
762.5890, 7722.000
763.7340, 7641.000
764.8780, 7764.000
766.0220, 7676.000
767.1660, 7746.000
768.3100, 7716.000
769.4540, 7618.000
770.5980, 7814.000
771.7410, 7702.000
772.8840, 7757.000
774.0280, 7790.000
775.1700, 7773.000
776.3130, 7823.000
777.4560, 7900.000
778.5980, 7853.000
779.7410, 7744.000
780.8830, 7839.000
782.0250, 7835.000
783.1670, 7843.000
784.3080, 7931.000
785.4500, 7864.000
786.5910, 7906.000
787.7320, 7868.000
788.8730, 7847.000
790.0140, 7831.000
791.1550, 7974.000
792.2950, 7915.000
793.4360, 7945.000
794.5760, 8028.000
795.7160, 7983.000
796.8560, 8097.000
797.9960, 8071.000
799.1350, 7998.000
800.2750, 8058.000
801.4140, 7884.000
802.5530, 7920.000
803.6920, 7901.000
804.8310, 7901.000
805.9690, 7922.107
807.1080, 7879.000
808.2460, 7955.000
809.3840, 7909.000
810.5220, 7927.000
811.6600, 8011.000
812.7970, 8003.000
813.9350, 8055.000
815.0720, 8015.000
816.2090, 8013.000
817.3460, 8054.000
818.4830, 7974.000
819.6200, 7962.000
820.7560, 8084.000
821.8930, 8066.000
823.0290, 8049.000
824.1650, 8056.000
825.3010, 8137.000
826.4360, 8051.000
827.5720, 8054.000
828.7070, 8197.000
829.8420, 8197.000
830.9770, 8197.819
832.1120, 8223.024
833.2470, 8200.000
834.3820, 8152.000
835.5160, 8256.000
836.6500, 8160.000
837.7840, 8327.000
838.9180, 8190.000
840.0520, 8390.000
841.1860, 8349.548
842.3190, 8317.886
843.4520, 8377.000
844.5850, 8250.000
845.7180, 8333.000
846.8510, 8325.000
847.9840, 8286.000
849.1160, 8252.000
850.2490, 8222.000
851.3810, 8222.000
852.5130, 8234.000
853.6450, 8209.000
854.7760, 8351.000
855.9080, 8369.000
857.0390, 8380.821
858.1700, 8439.429
859.3010, 8389.000
860.4320, 8434.000
861.5630, 8437.000
862.6930, 8335.000
863.8240, 8312.000
864.9540, 8451.000
866.0840, 8451.000
867.2140, 8521.000
868.3440, 8572.000
869.4730, 8554.000
870.6030, 8660.000
871.7320, 8671.000
872.8610, 8653.001
873.9900, 8581.000
875.1190, 8612.000
876.2470, 8602.000
877.3760, 8613.000
878.5040, 8595.000
879.6320, 8681.000
880.7600, 8656.000
881.8880, 8626.000
883.0150, 8640.000
884.1430, 8549.000
885.2700, 8645.000
886.3970, 8696.000
887.5240, 8559.000
888.6510, 8698.000
889.7780, 8720.000
890.9040, 8577.000
892.0310, 8622.000
893.1570, 8658.000
894.2830, 8722.000
895.4090, 8680.000
896.5350, 8780.000
897.6600, 8777.000
898.7860, 8734.000
899.9110, 8748.000
901.0360, 8821.000
902.1610, 8686.000
903.2860, 8677.000
904.4100, 8675.000
905.5350, 8780.000
906.6590, 8739.000
907.7830, 8831.000
908.9070, 8881.000
910.0310, 8889.000
911.1540, 8819.000
912.2780, 8872.000
913.4010, 8898.000
914.5240, 9013.000
915.6470, 8985.000
916.7700, 8879.000
917.8930, 9017.000
919.0150, 8895.000
920.1380, 8970.000
921.2600, 9049.000
922.3820, 9013.779
923.5040, 9109.000
924.6260, 9059.000
925.7470, 9048.000
926.8690, 9088.000
927.9900, 9059.000
929.1110, 9129.000
930.2320, 9214.000
931.3530, 8937.000
932.4730, 9106.000
933.5940, 9054.000
934.7140, 9073.000
935.8340, 9155.000
936.9540, 9167.784
938.0740, 9182.527
939.1930, 9241.000
940.3130, 9184.000
941.4320, 9115.000
942.5510, 9106.000
943.6700, 9179.000
944.7890, 9129.000
945.9080, 9196.000
947.0260, 9248.000
948.1450, 9257.000
949.2630, 9281.000
950.3810, 9280.000
951.4990, 9291.000
952.6170, 9344.000
953.7340, 9342.000
954.8520, 9302.000
955.9690, 9382.000
957.0860, 9366.000
958.2030, 9287.014
959.3200, 9385.602
960.4360, 9469.161
961.5530, 9539.170
962.6690, 9522.518
963.7850, 9642.363
964.9010, 9722.586
966.0170, 9811.505
967.1330, 10144.00
968.2480, 10258.00
969.3630, 10536.00
970.4790, 10900.00
971.5940, 11439.00
972.7080, 11874.00
973.8230, 11995.00
974.9380, 12237.00
976.0520, 11994.00
977.1660, 11589.00
978.2800, 11157.00
979.3940, 10766.00
980.5080, 10558.00
981.6220, 10365.00
982.7350, 10233.00
983.8480, 10336.00
984.9610, 10244.00
986.0740, 10276.76
987.1870, 10309.00
988.3000, 10366.00
989.4120, 10360.00
990.5250, 10464.00
991.6370, 10737.00
992.7490, 10825.00
993.8610, 11199.00
994.9720, 11735.00
996.0840, 12171.00
997.1950, 12918.00
998.3060, 13786.00
999.4170, 15053.00
1000.528, 16566.00
1001.639, 18660.00
1002.750, 21139.00
1003.860, 23974.00
1004.970, 27217.00
1006.080, 30620.00
1007.190, 32021.00
1008.300, 31401.00
1009.410, 28982.00
1010.519, 24994.00
1011.628, 21357.00
1012.738, 18446.00
1013.846, 16182.00
1014.955, 14561.00
1016.064, 13537.00
1017.172, 12778.00
1018.281, 12109.00
1019.389, 11763.00
1020.497, 11340.00
1021.605, 11168.00
1022.713, 10826.00
1023.820, 10618.00
1024.928, 10567.00
1026.035, 10563.00
1027.142, 10347.00
1028.249, 10226.00
1029.356, 10194.00
1030.462, 10039.00
1031.569, 10000.00
1032.675, 10003.00
1033.781, 9974.000
1034.887, 9957.000
1035.993, 9978.000
1037.098, 9793.000
1038.204, 9828.000
1039.309, 9746.000
1040.415, 9810.000
1041.520, 9750.000
1042.624, 9768.385
1043.729, 9777.727
1044.834, 9791.000
1045.938, 9797.000
1047.042, 9790.000
1048.146, 9815.000
1049.250, 9803.000
1050.354, 9858.000
1051.458, 9897.000
1052.561, 10055.00
1053.664, 9929.000
1054.767, 10018.00
1055.870, 10109.00
1056.973, 10067.00
1058.076, 9894.000
1059.178, 9998.000
1060.281, 9792.000
1061.383, 9902.000
1062.485, 9763.000
1063.587, 9790.000
1064.688, 9826.000
1065.790, 9914.000
1066.891, 9857.000
1067.993, 9885.983
1069.094, 9839.000
1070.195, 9831.000
1071.295, 9743.000
1072.396, 9655.000
1073.496, 9697.000
1074.597, 9715.653
1075.697, 9907.000
1076.797, 9865.000
1077.897, 9795.958
1078.996, 9931.093
1080.096, 10008.27
1081.195, 10030.61
1082.294, 9833.854
1083.393, 9920.014
1084.492, 9892.792
1085.591, 9860.922
1086.689, 9986.897
1087.788, 9822.006
1088.886, 9945.479
1089.984, 9953.841
1091.082, 10014.89
1092.180, 9961.852
1093.277, 9944.050
1094.375, 10040.37
1095.472, 10073.50
1096.569, 10007.32
1097.666, 10071.72
1098.763, 9902.835
1099.860, 9938.654
1100.956, 10062.79
1102.053, 10002.36
1103.149, 10068.83
1104.245, 10086.97
1105.341, 9885.447
1106.436, 10065.94
1107.532, 10081.22
1108.627, 9926.868
1109.723, 10094.27
1110.818, 9963.305
1111.913, 9938.837
1113.007, 9994.514
1114.102, 9966.643
1115.197, 10070.50
1116.291, 10047.45
1117.385, 10013.06
1118.479, 10028.16
1119.573, 9903.038
1120.666, 10038.04
1121.760, 9995.355
1122.853, 10040.99
1123.947, 10106.66
1125.040, 10019.02
1126.132, 10093.67
1127.225, 9916.662
1128.318, 9950.228
1129.410, 9961.114
1130.502, 10106.60
1131.595, 9930.813
1132.687, 10046.33
1133.778, 10091.00
1134.870, 10054.00
1135.961, 10139.00
1137.053, 10111.00
1138.144, 10203.00
1139.235, 10082.00
1140.326, 10090.00
1141.416, 10129.00
1142.507, 10204.00
1143.597, 10139.00
1144.688, 10159.00
1145.778, 10139.00
1146.868, 10211.00
1147.957, 10199.00
1149.047, 10203.00
1150.136, 10164.00
1151.226, 10181.00
1152.315, 10310.00
1153.404, 10123.00
1154.493, 10010.00
1155.581, 10143.00
1156.670, 10178.00
1157.758, 10389.00
1158.846, 10324.34
1159.934, 10350.92
1161.022, 10245.00
1162.110, 10220.00
1163.198, 10204.00
1164.285, 10032.00
1165.372, 10212.00
1166.459, 10268.00
1167.546, 10022.00
1168.633, 10164.00
1169.720, 10177.00
1170.806, 10136.00
1171.892, 10106.00
1172.979, 10248.00
1174.065, 10184.00
1175.150, 10087.00
1176.236, 10233.00
1177.322, 10086.00
1178.407, 10176.00
1179.492, 10195.00
1180.577, 10278.00
1181.662, 10374.00
1182.747, 10286.00
1183.832, 10196.00
1184.916, 10209.00
1186.000, 10225.00
1187.084, 10261.00
1188.168, 10346.00
1189.252, 10284.00
1190.336, 10326.00
1191.419, 10242.00
1192.503, 10256.00
1193.586, 10287.00
1194.669, 10427.00
1195.752, 10394.00
1196.835, 10345.00
1197.917, 10231.00
1199.000, 10410.00
1200.082, 10440.00
1201.164, 10290.00
1202.246, 10398.00
1203.328, 10329.00
1204.409, 10422.00
1205.491, 10356.00
1206.572, 10428.00
1207.653, 10421.00
1208.734, 10395.00
1209.815, 10142.00
1210.896, 10560.00
1211.976, 10476.00
1213.057, 10344.00
1214.137, 10566.00
1215.217, 10504.00
1216.297, 10563.00
1217.377, 10647.00
1218.456, 10498.00
1219.536, 10593.00
1220.615, 10412.00
1221.694, 10523.00
1222.773, 10437.00
1223.852, 10388.00
1224.931, 10404.00
1226.009, 10497.00
1227.088, 10516.00
1228.166, 10476.00
1229.244, 10501.00
1230.322, 10491.00
1231.400, 10459.00
1232.477, 10589.00
1233.555, 10629.00
1234.632, 10648.00
1235.709, 10529.00
1236.786, 10541.00
1237.863, 10631.00
1238.939, 10606.00
1240.016, 10718.00
1241.092, 10594.00
1242.168, 10758.00
1243.245, 10555.00
1244.320, 10728.00
1245.396, 10779.00
1246.472, 10696.00
1247.547, 10652.00
1248.622, 10691.00
1249.697, 10651.00
1250.772, 10766.00
1251.847, 10698.00
1252.922, 10688.00
1253.996, 10656.00
1255.071, 10637.39
1256.145, 10663.00
1257.219, 10683.00
1258.293, 10676.00
1259.366, 10833.00
1260.440, 10863.00
1261.513, 10830.00
1262.587, 10858.00
1263.660, 10848.00
1264.733, 10700.00
1265.805, 10921.00
1266.878, 10892.00
1267.951, 10867.00
1269.023, 11023.00
1270.095, 10857.00
1271.167, 10864.00
1272.239, 10856.00
1273.311, 11052.00
1274.382, 11044.00
1275.454, 10913.00
1276.525, 10976.00
1277.596, 10865.00
1278.667, 10928.00
1279.738, 10952.00
1280.808, 10845.00
1281.879, 10900.00
1282.949, 10896.00
1284.019, 10962.00
1285.089, 10821.00
1286.159, 11001.00
1287.229, 10976.00
1288.298, 10828.00
1289.368, 10870.00
1290.437, 10937.00
1291.506, 10859.00
1292.575, 11093.00
1293.644, 10833.00
1294.712, 10940.00
1295.781, 11129.00
1296.849, 11021.00
1297.917, 11065.00
1298.985, 11012.00
1300.053, 11069.00
1301.121, 11195.00
1302.188, 11027.00
1303.255, 10945.00
1304.323, 10916.00
1305.390, 11015.00
1306.457, 11032.00
1307.523, 11068.00
1308.590, 11081.00
1309.656, 11056.00
1310.723, 11183.00
1311.789, 10960.00
1312.855, 11145.00
1313.921, 11338.00
1314.986, 11112.00
1316.052, 11111.00
1317.117, 11198.00
1318.182, 11211.00
1319.248, 11089.00
1320.312, 11010.00
1321.377, 11031.89
1322.442, 11130.00
1323.506, 11093.00
1324.571, 11125.00
1325.635, 11241.00
1326.699, 11191.00
1327.762, 11230.00
1328.826, 11249.00
1329.890, 11166.00
1330.953, 11231.00
1332.016, 11174.00
1333.079, 11104.00
1334.142, 11165.00
1335.205, 11307.00
1336.268, 11274.00
1337.330, 11332.00
1338.392, 11193.00
1339.454, 11243.00
1340.516, 11305.00
1341.578, 11406.00
1342.640, 11412.00
1343.701, 11355.00
1344.763, 11320.00
1345.824, 11312.00
1346.885, 11390.00
1347.946, 11402.00
1349.007, 11463.00
1350.067, 11349.00
1351.128, 11423.47
1352.188, 11381.00
1353.248, 11516.00
1354.308, 11383.00
1355.368, 11495.00
1356.428, 11477.00
1357.487, 11361.00
1358.547, 11479.00
1359.606, 11488.00
1360.665, 11669.00
1361.724, 11506.00
1362.783, 11477.00
1363.841, 11711.00
1364.900, 11518.00
1365.958, 11595.00
1367.016, 11533.00
1368.074, 11521.00
1369.132, 11426.00
1370.190, 11542.00
1371.247, 11498.00
1372.304, 11551.00
1373.362, 11627.00
1374.419, 11590.00
1375.476, 11643.00
1376.532, 11676.00
1377.589, 11561.00
1378.645, 11616.00
1379.702, 11492.00
1380.758, 11565.00
1381.814, 11630.00
1382.870, 11695.00
1383.925, 11722.55
1384.981, 11725.00
1386.036, 11698.00
1387.092, 11720.00
1388.147, 11732.07
1389.202, 11725.00
1390.256, 11755.00
1391.311, 11815.00
1392.365, 11770.00
1393.420, 11817.00
1394.474, 11805.00
1395.528, 11765.00
1396.582, 11820.00
1397.636, 11751.00
1398.689, 11802.00
1399.742, 11863.00
1400.796, 11827.33
1401.849, 11791.00
1402.902, 11809.00
1403.955, 11781.00
1405.007, 11743.00
1406.060, 11822.00
1407.112, 11800.00
1408.164, 11819.82
1409.216, 11824.00
1410.268, 11837.00
1411.320, 11891.00
1412.371, 11880.00
1413.423, 11779.00
1414.474, 11875.00
1415.525, 11739.00
1416.576, 11866.00
1417.627, 11922.00
1418.678, 11981.00
1419.728, 11935.00
1420.778, 12047.00
1421.829, 11951.00
1422.879, 11956.00
1423.928, 12036.00
1424.978, 11951.00
1426.028, 12149.00
1427.077, 12026.00
1428.126, 11996.00
1429.176, 12117.00
1430.225, 12076.57
1431.273, 12121.00
1432.322, 12170.00
1433.371, 12055.00
1434.419, 12095.00
1435.467, 12167.00
1436.515, 12107.00
1437.563, 12190.00
1438.611, 12222.00
1439.658, 12174.00
1440.706, 12205.00
1441.753, 12140.00
1442.800, 12273.00
1443.847, 12236.00
1444.894, 12308.00
1445.941, 12258.00
1446.987, 12330.00
1448.034, 12467.00
1449.080, 12317.00
1450.126, 12522.00
1451.172, 12340.00
1452.218, 12323.00
1453.263, 12528.00
1454.309, 12641.00
1455.354, 12644.00
1456.399, 12620.00
1457.444, 12617.00
1458.489, 12622.00
1459.534, 12788.00
1460.579, 12835.00
1461.623, 12725.00
1462.667, 12922.00
1463.711, 12681.00
1464.755, 12828.00
1465.799, 12731.00
1466.843, 12820.00
1467.886, 12778.00
1468.930, 12757.00
1469.973, 12683.00
1471.016, 12706.00
1472.059, 12658.00
1473.101, 12638.34
1474.144, 12627.31
1475.186, 12609.00
1476.229, 12627.00
1477.271, 12634.00
1478.313, 12630.08
1479.355, 12687.00
1480.396, 12617.00
1481.438, 12563.00
1482.479, 12518.00
1483.520, 12717.00
1484.561, 12533.00
1485.602, 12556.00
1486.643, 12662.00
1487.684, 12439.00
1488.724, 12492.00
1489.765, 12627.00
1490.805, 12554.00
1491.845, 12485.00
1492.885, 12558.00
1493.924, 12513.00
1494.964, 12491.00
1496.003, 12573.00
1497.042, 12646.00
1498.082, 12598.00
1499.120, 12636.00
1500.159, 12530.00
1501.198, 12706.00
1502.236, 12624.00
1503.275, 12457.00
1504.313, 12540.00
1505.351, 12642.00
1506.389, 12591.00
1507.427, 12605.00
1508.464, 12611.00
1509.502, 12657.00
1510.539, 12653.00
1511.576, 12671.00
1512.613, 12651.00
1513.650, 12654.00
1514.687, 12624.00
1515.723, 12662.00
1516.759, 12626.00
1517.796, 12757.00
1518.832, 12608.00
1519.868, 12679.00
1520.903, 12732.00
1521.939, 12690.02
1522.975, 12743.90
1524.010, 12697.00
1525.045, 12756.00
1526.080, 12734.00
1527.115, 12708.00
1528.150, 12704.00
1529.184, 12691.00
1530.219, 12678.31
1531.253, 12682.32
1532.287, 12666.00
1533.321, 12687.00
1534.355, 12699.00
1535.388, 12698.00
1536.422, 12611.00
1537.455, 12771.00
1538.488, 12841.00
1539.522, 12623.00
1540.554, 12842.00
1541.587, 12640.00
1542.620, 12789.00
1543.652, 12794.00
1544.685, 12572.00
1545.717, 12717.00
1546.749, 12625.00
1547.781, 12759.00
1548.812, 12730.00
1549.844, 12727.00
1550.875, 12782.00
1551.906, 12786.00
1552.938, 12860.00
1553.968, 12850.00
1554.999, 12868.00
1556.030, 12850.00
1557.060, 12698.00
1558.091, 12639.00
1559.121, 12694.00
1560.151, 12838.00
1561.181, 12700.00
1562.211, 12846.00
1563.240, 12743.00
1564.270, 12887.00
1565.299, 12888.00
1566.328, 12849.00
1567.357, 12970.00
1568.386, 12743.00
1569.415, 12929.00
1570.443, 12821.00
1571.472, 12957.00
1572.500, 12821.00
1573.528, 12761.00
1574.556, 12858.00
1575.584, 12772.00
1576.611, 12905.00
1577.639, 12928.00
1578.666, 12804.00
1579.693, 12849.00
##END=



